0,-0.096,-0.098,-0.1,-0.10099999999999999,-0.102,-0.102,-0.10300000000000001,-0.102,-0.102,-0.10099999999999999,-0.099,-0.09699999999999999,-0.095,-0.09300000000000001,-0.092,-0.092,-0.092,-0.092,-0.092,-0.091,-0.091,-0.08800000000000001,-0.086,-0.084,-0.081,-0.079,-0.077,-0.076,-0.076,-0.076,-0.077,-0.076,-0.076,-0.075,-0.07400000000000001,-0.07200000000000001,-0.071,-0.069,-0.067,-0.066,-0.065,-0.063,-0.061,-0.057999999999999996,-0.055,-0.052000000000000005,-0.049,-0.046,-0.043,-0.039,-0.035,-0.032,-0.027999999999999997,-0.025,-0.022000000000000002,-0.019,-0.016,-0.013000000000000001,-0.009000000000000001,-0.004,0.001,0.005,0.01,0.015,0.02,0.026000000000000002,0.032,0.04,0.048,0.057999999999999996,0.067,0.077,0.08800000000000001,0.098,0.107,0.11599999999999999,0.124,0.131,0.13699999999999998,0.141,0.145,0.14800000000000002,0.151,0.153,0.156,0.157,0.157,0.155,0.153,0.15,0.14800000000000002,0.14400000000000002,0.141,0.13699999999999998,0.133,0.127,0.121,0.114,0.106,0.099,0.091,0.084,0.077,0.069,0.061,0.052000000000000005,0.044000000000000004,0.037000000000000005,0.03,0.025,0.02,0.016,0.012,0.009000000000000001,0.005,0.002,-0.002,-0.005,-0.009000000000000001,-0.013000000000000001,-0.017,-0.021,-0.024,-0.027999999999999997,-0.031,-0.034,-0.037000000000000005,-0.04,-0.042,-0.043,-0.044000000000000004,-0.045,-0.046,-0.046,-0.046,-0.045,-0.045,-0.044000000000000004,-0.043,-0.042,-0.040999999999999995,-0.04,-0.039,-0.037000000000000005,-0.036000000000000004,-0.035,-0.033,-0.031,-0.028999999999999998,-0.027999999999999997,-0.026000000000000002,-0.026000000000000002,-0.026000000000000002,-0.027999999999999997,-0.03,-0.032,-0.034,-0.036000000000000004,-0.038,-0.039,-0.04,-0.040999999999999995,-0.040999999999999995,-0.040999999999999995,-0.04,-0.04,-0.04,-0.04,-0.04,-0.04,-0.04,-0.040999999999999995,-0.040999999999999995,-0.043,-0.044000000000000004,-0.046,-0.049,-0.051,-0.053,-0.055999999999999994,-0.057999999999999996,-0.059000000000000004,-0.061,-0.061,-0.062,-0.062,-0.063,-0.062,-0.062,-0.06,-0.059000000000000004,-0.055,-0.051,-0.044000000000000004,-0.038,-0.027999999999999997,-0.018000000000000002,-0.003,0.013000000000000001,0.035,0.055999999999999994,0.085,0.114,0.155,0.196,0.253,0.31,0.379,0.44799999999999995,0.511,0.574,0.609,0.644,0.632,0.621,0.565,0.509,0.428,0.34700000000000003,0.26899999999999996,0.19,0.129,0.068,0.027999999999999997,-0.012,-0.035,-0.057999999999999996,-0.07,-0.083,-0.09,-0.09699999999999999,-0.102,-0.106,-0.10800000000000001,-0.111,-0.113,-0.115,-0.11699999999999999,-0.11800000000000001,-0.11900000000000001,-0.12,-0.11900000000000001,-0.11900000000000001,-0.11699999999999999,-0.11599999999999999,-0.115,-0.113,-0.111,-0.109,-0.106,-0.10400000000000001,-0.102,-0.099,-0.09699999999999999,-0.095,-0.095,-0.095,-0.096,-0.096,-0.096,-0.095,-0.09300000000000001,-0.091,N,,,,,,,,,,,,,,,,,,,,,,,,,,,,,,,,,,,,,,,,,,,,,,,,,,,,,,,,,,,,,,,,,,,,,,,,,,,,,,,,,,,,,,,,,,,,,,,,,,,,,,,,,,,,,,,,,,,,,,,,,,,,,,,,,,,,,,,,,,,,,,,,,,,,,,,,,,,,,,,,,,,,,,,,,,,,,,,,,,,,,,,,,,,,,,,,,,,,,,,,,,,,,,,,,,,,,,,,,,,,,,,,,,,,,,,,,,,,,,,,,,,,,,,,,,,,,,,,,,,,,,,,,,,,,,,,,,,,,,,,,,,,,,,,,,,,,,,,,,,,,,,,,,,,,,,,,,,,,,,,,,,,,,,,,,,,,,,,,,,,,,,,,,,,,,,,,,,,,,,,,,,,,,,,,,,,,,,,,,,,,,,,,,,,,,,,,,,,,,,,,,,,,,,,,,,,,,,,,,,,,,,,,,,,,,,,,,,,,,,,,,,,,,,,,,,,,,,,,,,,,,,,,,,,,,,,,,,,,,,,,,,,,,,,,,,,,,,,,,,,,,,,,,,,,,,,,,,,,,,,,,,,,,,,,,,,,,,,,,,,,,,,,,,,,,,,,,,,,,,,,,,,,,,,,,,,,,,,,,,,,,,,,,,,,,,,,,,,,,,,,,,,,,,,,,,,,,,,,,,,,,,,,,,,,,,,,,,,,,,,,,,,,,,,,,,,,,,,,,,,,,,,,,,,,,,,,,,,,,,,,,,,,,,,,,,,,,,,,,,,,,,,,,,,,,,,,,,,,,,,,,,,,,,,,,,,,,,,,
1,-0.09,-0.094,-0.09699999999999999,-0.1,-0.102,-0.10400000000000001,-0.105,-0.106,-0.106,-0.106,-0.106,-0.106,-0.106,-0.106,-0.106,-0.106,-0.105,-0.105,-0.10300000000000001,-0.10099999999999999,-0.098,-0.095,-0.092,-0.09,-0.08800000000000001,-0.087,-0.086,-0.085,-0.084,-0.083,-0.08199999999999999,-0.08,-0.079,-0.077,-0.07400000000000001,-0.07200000000000001,-0.07,-0.069,-0.067,-0.065,-0.064,-0.063,-0.062,-0.062,-0.062,-0.063,-0.062,-0.062,-0.06,-0.059000000000000004,-0.055999999999999994,-0.053,-0.05,-0.047,-0.043,-0.039,-0.035,-0.032,-0.027999999999999997,-0.024,-0.018000000000000002,-0.013000000000000001,-0.006,0.0,0.006,0.013000000000000001,0.019,0.026000000000000002,0.032,0.038,0.044000000000000004,0.051,0.057999999999999996,0.065,0.07200000000000001,0.08,0.087,0.094,0.10099999999999999,0.10800000000000001,0.114,0.12,0.124,0.128,0.131,0.133,0.134,0.135,0.135,0.134,0.133,0.131,0.129,0.126,0.122,0.11800000000000001,0.113,0.107,0.102,0.09699999999999999,0.092,0.08800000000000001,0.083,0.077,0.07,0.064,0.057999999999999996,0.051,0.046,0.040999999999999995,0.035,0.03,0.025,0.02,0.016,0.012,0.008,0.004,-0.001,-0.006,-0.011000000000000001,-0.016,-0.021,-0.025,-0.027999999999999997,-0.03,-0.032,-0.034,-0.036000000000000004,-0.038,-0.039,-0.04,-0.040999999999999995,-0.040999999999999995,-0.040999999999999995,-0.040999999999999995,-0.042,-0.043,-0.043,-0.044000000000000004,-0.044000000000000004,-0.044000000000000004,-0.043,-0.040999999999999995,-0.040999999999999995,-0.04,-0.04,-0.039,-0.037000000000000005,-0.036000000000000004,-0.034,-0.032,-0.028999999999999998,-0.025,-0.021,-0.018000000000000002,-0.016,-0.013999999999999999,-0.015,-0.015,-0.017,-0.019,-0.021,-0.023,-0.025,-0.027000000000000003,-0.028999999999999998,-0.032,-0.035,-0.037000000000000005,-0.039,-0.040999999999999995,-0.043,-0.044000000000000004,-0.044000000000000004,-0.045,-0.044000000000000004,-0.044000000000000004,-0.044000000000000004,-0.044000000000000004,-0.044000000000000004,-0.045,-0.046,-0.048,-0.05,-0.051,-0.052000000000000005,-0.053,-0.054000000000000006,-0.055999999999999994,-0.057,-0.057999999999999996,-0.055999999999999994,-0.054000000000000006,-0.05,-0.045,-0.038,-0.031,-0.022000000000000002,-0.013000000000000001,-0.002,0.009000000000000001,0.026000000000000002,0.043,0.07,0.096,0.138,0.18,0.24100000000000002,0.303,0.376,0.449,0.512,0.575,0.605,0.634,0.621,0.607,0.5539999999999999,0.502,0.431,0.361,0.293,0.225,0.16899999999999998,0.113,0.07200000000000001,0.031,0.004,-0.023,-0.04,-0.055999999999999994,-0.066,-0.076,-0.081,-0.086,-0.08900000000000001,-0.09300000000000001,-0.095,-0.09699999999999999,-0.098,-0.099,-0.099,-0.099,-0.099,-0.099,-0.099,-0.098,-0.09699999999999999,-0.096,-0.096,-0.095,-0.095,-0.095,-0.095,-0.095,-0.094,-0.09300000000000001,-0.092,-0.091,-0.08900000000000001,-0.087,-0.086,-0.085,-0.085,-0.084,-0.084,-0.084,-0.084,-0.084,-0.084,-0.083,-0.08199999999999999,-0.08,-0.078,-0.076,-0.07200000000000001,-0.069,-0.068,-0.066,-0.066,-0.065,-0.064,-0.062,-0.06,-0.057999999999999996,-0.055999999999999994,-0.054000000000000006,-0.051,-0.049,-0.044000000000000004,-0.04,-0.035,-0.031,-0.027000000000000003,-0.023,-0.018000000000000002,-0.013000000000000001,-0.006999999999999999,-0.002,0.004,0.01,0.015,0.021,0.026000000000000002,0.032,0.04,0.047,0.057,0.066,0.076,0.086,0.096,0.106,0.115,0.12300000000000001,0.128,0.133,0.135,0.136,0.136,0.136,0.13699999999999998,0.13699999999999998,0.136,0.135,0.133,0.13,0.128,0.125,0.12,0.115,0.10800000000000001,0.102,0.096,0.08900000000000001,0.08199999999999999,0.075,0.068,0.06,0.054000000000000006,0.048,0.043,0.038,0.034,0.03,0.026000000000000002,0.022000000000000002,0.018000000000000002,0.015,0.012,0.009000000000000001,0.005,0.001,-0.004,-0.009000000000000001,-0.013000000000000001,-0.017,-0.02,-0.023,-0.025,-0.027999999999999997,-0.031,-0.034,-0.036000000000000004,-0.039,-0.042,-0.044000000000000004,-0.046,-0.049,-0.051,-0.052000000000000005,-0.053,-0.055,-0.054000000000000006,-0.054000000000000006,-0.052000000000000005,-0.051,-0.049,-0.047,-0.045,-0.043,-0.042,-0.04,-0.038,-0.036000000000000004,-0.034,-0.032,-0.031,-0.03,-0.028999999999999998,-0.028999999999999998,-0.028999999999999998,-0.03,-0.03,-0.03,-0.03,-0.03,-0.03,-0.031,-0.032,-0.033,-0.034,-0.035,-0.036000000000000004,-0.037000000000000005,-0.04,-0.042,-0.045,-0.048,-0.051,-0.054000000000000006,-0.055999999999999994,-0.057999999999999996,-0.059000000000000004,-0.06,-0.059000000000000004,-0.059000000000000004,-0.059000000000000004,-0.057999999999999996,-0.059000000000000004,-0.06,-0.061,-0.062,-0.062,-0.063,-0.062,-0.062,-0.06,-0.057999999999999996,-0.053,-0.048,-0.040999999999999995,-0.034,-0.025,-0.017,-0.006,0.005,0.02,0.035,0.057,0.079,0.11599999999999999,0.153,0.21100000000000002,0.26899999999999996,0.34,0.41100000000000003,0.47600000000000003,0.541,0.5770000000000001,0.613,0.606,0.599,0.552,0.506,0.43799999999999994,0.37,0.301,0.23199999999999998,0.174,0.11699999999999999,0.075,0.033,0.004,-0.025,-0.042,-0.059000000000000004,-0.069,-0.078,-0.084,-0.08900000000000001,-0.092,-0.095,-0.09699999999999999,-0.099,-0.102,-0.10400000000000001,-0.106,-0.10800000000000001,-0.109,-0.11,-0.11,-0.109,-0.107,-0.106,-0.10400000000000001,-0.102,-0.1,-0.098,-0.098,-0.09699999999999999,-0.09699999999999999,-0.09699999999999999,-0.09699999999999999,-0.096,-0.095,-0.094,-0.092,-0.091,-0.08800000000000001,-0.086,-0.084,-0.081,-0.079,-0.076,-0.07400000000000001,-0.073,-0.073,-0.073,-0.07200000000000001,-0.07200000000000001,-0.07,-0.069,-0.068,-0.066,-0.066,-0.065,-0.064,-0.062,-0.06,-0.057999999999999996,-0.055999999999999994,-0.054000000000000006,-0.051,-0.049,-0.044000000000000004,-0.04,-0.035,-0.03,-0.025,-0.02,-0.015,-0.009000000000000001,-0.004,0.002,0.006999999999999999,0.012,0.017,0.022000000000000002,0.028999999999999998,0.036000000000000004,0.045,0.054000000000000006,0.064,0.07400000000000001,0.083,0.092,0.10099999999999999,0.109,0.11599999999999999,0.12300000000000001,0.128,0.133,0.13699999999999998,0.14,0.141,0.142,0.142,0.14300000000000002,0.141,0.14,0.138,0.135,0.132,0.128,0.124,0.12,0.115,0.11,0.105,0.1,0.095,0.08900000000000001,0.083,0.077,0.07,0.063,0.057,0.05,0.044000000000000004,0.038,0.033,0.027000000000000003,0.022000000000000002,0.018000000000000002,0.013000000000000001,0.009000000000000001,0.004,-0.002,-0.006,-0.01,-0.013000000000000001,-0.017,-0.02,-0.023,-0.025,-0.027999999999999997,-0.031,-0.034,-0.037000000000000005,-0.04,-0.044000000000000004,-0.048,-0.05,-0.052000000000000005,-0.052000000000000005,-0.052000000000000005,-0.051,-0.05,-0.049,-0.047,-0.045,-0.043,-0.040999999999999995,-0.039,-0.036000000000000004,-0.033,-0.031,-0.028999999999999998,-0.027000000000000003,-0.025,-0.023,-0.021,-0.02,-0.019,-0.018000000000000002,-0.018000000000000002,-0.019,-0.02,-0.021,-0.022000000000000002,-0.022000000000000002,-0.023,-0.025,-0.026000000000000002,-0.027999999999999997,-0.03,-0.03,-0.031,-0.032,-0.033,-0.034,-0.034,-0.034,-0.033,-0.034,-0.034,-0.035,-0.037000000000000005,-0.04,-0.042,-0.045,-0.049,-0.052000000000000005,-0.055999999999999994,-0.057999999999999996,-0.06,-0.061,-0.062,-0.062,-0.063,-0.062,-0.061,-0.057999999999999996,-0.055,-0.049,-0.043,-0.035,-0.027999999999999997,-0.018000000000000002,-0.009000000000000001,0.004,0.016,0.032,0.047,0.071,0.095,0.135,0.175,0.235,0.29600000000000004,0.36700000000000005,0.439,0.5,0.561,0.59,0.618,0.603,0.5870000000000001,0.5329999999999999,0.48,0.40700000000000003,0.335,0.266,0.196,0.141,0.086,0.049,0.011000000000000001,-0.012,-0.035,-0.048,-0.061,-0.069,-0.076,-0.08,-0.084,-0.086,-0.08900000000000001,-0.091,-0.09300000000000001,-0.095,-0.096,-0.098,-0.099,-0.099,-0.099,-0.099,-0.098,-0.09699999999999999,-0.096,-0.096,-0.095,-0.095,-0.094,-0.09300000000000001,-0.092,-0.08900000000000001,-0.087,-0.084,-0.08,-0.078,-0.076,-0.07400000000000001,-0.07200000000000001,-0.071,-0.07,-0.07,-0.069,-0.07,-0.07,-0.07,-0.069,-0.068,-0.066,-0.064,-0.062,-0.06,-0.059000000000000004,-0.057999999999999996,-0.057,-0.055999999999999994,-0.055,-0.053,-0.052000000000000005,-0.051,-0.05,-0.048,-0.045,-0.040999999999999995,-0.036000000000000004,-0.032,-0.027000000000000003,-0.021,-0.016,-0.011000000000000001,-0.005,0.0,0.005,0.009000000000000001,0.013999999999999999,0.019,0.024,0.03,0.036000000000000004,0.043,0.051,0.06,0.069,0.078,0.087,0.095,0.10300000000000001,0.111,0.11900000000000001,0.124,0.13,0.134,0.13699999999999998,0.14,0.14300000000000002,0.145,0.147,0.14800000000000002,0.15,0.15,0.15,0.149,0.14800000000000002,0.14400000000000002,0.14,0.135,0.13,0.125,0.12,0.114,0.107,0.1,0.09300000000000001,0.086,0.08,0.073,0.067,0.061,0.055,0.049,0.042,0.036000000000000004,0.03,0.025,0.019,0.013999999999999999,0.009000000000000001,0.005,0.001,-0.003,-0.006999999999999999,-0.011000000000000001,-0.016,-0.021,-0.025,-0.027999999999999997,-0.031,-0.035,-0.038,-0.042,-0.046,-0.049,-0.051,-0.051,-0.052000000000000005,-0.051,-0.051,-0.049,-0.047,-0.045,-0.043,-0.042,-0.04,-0.038,-0.036000000000000004,-0.035,-0.033,-0.033,-0.032,-0.03,-0.028999999999999998,-0.027000000000000003,-0.025,-0.022000000000000002,-0.02,-0.018000000000000002,-0.016,-0.015,-0.013999999999999999,-0.015,-0.015,-0.017,-0.019,-0.021,-0.024,-0.027999999999999997,-0.031,-0.035,-0.039,-0.043,-0.048,-0.051,-0.054000000000000006,-0.054000000000000006,-0.054000000000000006,-0.052000000000000005,-0.051,-0.05,-0.048,-0.049,-0.049,-0.051,-0.052000000000000005,-0.054000000000000006,-0.055999999999999994,-0.057999999999999996,-0.06,-0.061,-0.062,-0.062,-0.062,-0.06,-0.059000000000000004,-0.055999999999999994,-0.053,-0.049,-0.044000000000000004,-0.035,-0.026000000000000002,-0.013000000000000001,-0.001,0.016,0.033,0.057999999999999996,0.08199999999999999,0.11699999999999999,0.153,0.205,0.257,0.324,0.391,0.45899999999999996,0.527,0.575,0.622,0.628,0.634,0.595,0.555,0.484,0.413,0.335,0.257,0.191,0.125,0.079,0.033,0.004,-0.024,-0.040999999999999995,-0.057,-0.066,-0.075,-0.081,-0.086,-0.08900000000000001,-0.09300000000000001,-0.095,-0.09699999999999999,-0.099,-0.1,-0.102,-0.10300000000000001,-0.10400000000000001,-0.106,-0.106,-0.107,-0.106,-0.106,-0.106,-0.107,-0.107,-0.10800000000000001,-0.107,-0.107,-0.10400000000000001,-0.102,-0.1,-0.09699999999999999,-0.095,-0.092,-0.08900000000000001,-0.087,-0.086,-0.084,-0.084,-0.083,-0.08199999999999999,-0.08,-0.079,-0.077,-0.07400000000000001,-0.07200000000000001,-0.07,-0.069,-0.067,-0.065,-0.063,-0.061,-0.057999999999999996,-0.054000000000000006,-0.05,-0.046,-0.043,-0.039,-0.036000000000000004,-0.033,-0.03,-0.027999999999999997,-0.025,-0.021,-0.017,-0.013000000000000001,N
2,-0.09300000000000001,-0.095,-0.09699999999999999,-0.098,-0.099,-0.099,-0.099,-0.099,-0.099,-0.099,-0.098,-0.09699999999999999,-0.096,-0.096,-0.095,-0.095,-0.095,-0.095,-0.095,-0.094,-0.09300000000000001,-0.092,-0.091,-0.08900000000000001,-0.087,-0.086,-0.085,-0.085,-0.084,-0.084,-0.084,-0.084,-0.084,-0.084,-0.083,-0.08199999999999999,-0.08,-0.078,-0.076,-0.07200000000000001,-0.069,-0.068,-0.066,-0.066,-0.065,-0.064,-0.062,-0.06,-0.057999999999999996,-0.055999999999999994,-0.054000000000000006,-0.051,-0.049,-0.044000000000000004,-0.04,-0.035,-0.031,-0.027000000000000003,-0.023,-0.018000000000000002,-0.013000000000000001,-0.006999999999999999,-0.002,0.004,0.01,0.015,0.021,0.026000000000000002,0.032,0.04,0.047,0.057,0.066,0.076,0.086,0.096,0.106,0.115,0.12300000000000001,0.128,0.133,0.135,0.136,0.136,0.136,0.13699999999999998,0.13699999999999998,0.136,0.135,0.133,0.13,0.128,0.125,0.12,0.115,0.10800000000000001,0.102,0.096,0.08900000000000001,0.08199999999999999,0.075,0.068,0.06,0.054000000000000006,0.048,0.043,0.038,0.034,0.03,0.026000000000000002,0.022000000000000002,0.018000000000000002,0.015,0.012,0.009000000000000001,0.005,0.001,-0.004,-0.009000000000000001,-0.013000000000000001,-0.017,-0.02,-0.023,-0.025,-0.027999999999999997,-0.031,-0.034,-0.036000000000000004,-0.039,-0.042,-0.044000000000000004,-0.046,-0.049,-0.051,-0.052000000000000005,-0.053,-0.055,-0.054000000000000006,-0.054000000000000006,-0.052000000000000005,-0.051,-0.049,-0.047,-0.045,-0.043,-0.042,-0.04,-0.038,-0.036000000000000004,-0.034,-0.032,-0.031,-0.03,-0.028999999999999998,-0.028999999999999998,-0.028999999999999998,-0.03,-0.03,-0.03,-0.03,-0.03,-0.03,-0.031,-0.032,-0.033,-0.034,-0.035,-0.036000000000000004,-0.037000000000000005,-0.04,-0.042,-0.045,-0.048,-0.051,-0.054000000000000006,-0.055999999999999994,-0.057999999999999996,-0.059000000000000004,-0.06,-0.059000000000000004,-0.059000000000000004,-0.059000000000000004,-0.057999999999999996,-0.059000000000000004,-0.06,-0.061,-0.062,-0.062,-0.063,-0.062,-0.062,-0.06,-0.057999999999999996,-0.053,-0.048,-0.040999999999999995,-0.034,-0.025,-0.017,-0.006,0.005,0.02,0.035,0.057,0.079,0.11599999999999999,0.153,0.21100000000000002,0.26899999999999996,0.34,0.41100000000000003,0.47600000000000003,0.541,0.5770000000000001,0.613,0.606,0.599,0.552,0.506,0.43799999999999994,0.37,0.301,0.23199999999999998,0.174,0.11699999999999999,0.075,0.033,0.004,-0.025,-0.042,-0.059000000000000004,-0.069,-0.078,-0.084,-0.08900000000000001,-0.092,-0.095,-0.09699999999999999,-0.099,-0.102,-0.10400000000000001,-0.106,-0.10800000000000001,-0.109,-0.11,-0.11,-0.109,-0.107,-0.106,-0.10400000000000001,-0.102,-0.1,-0.098,-0.098,-0.09699999999999999,-0.09699999999999999,-0.09699999999999999,-0.09699999999999999,-0.096,-0.095,-0.094,-0.092,-0.091,-0.08800000000000001,-0.086,-0.084,-0.081,-0.079,-0.076,-0.07400000000000001,-0.073,-0.073,-0.073,-0.07200000000000001,-0.07200000000000001,-0.07,-0.069,-0.068,-0.066,-0.066,-0.065,-0.064,-0.062,-0.06,-0.057999999999999996,-0.055999999999999994,-0.054000000000000006,-0.051,-0.049,-0.044000000000000004,-0.04,-0.035,-0.03,-0.025,-0.02,-0.015,-0.009000000000000001,-0.004,0.002,0.006999999999999999,0.012,0.017,0.022000000000000002,0.028999999999999998,0.036000000000000004,0.045,0.054000000000000006,0.064,0.07400000000000001,0.083,0.092,0.10099999999999999,0.109,0.11599999999999999,0.12300000000000001,0.128,0.133,0.13699999999999998,0.14,0.141,0.142,0.142,0.14300000000000002,0.141,0.14,0.138,0.135,0.132,0.128,0.124,0.12,0.115,0.11,0.105,0.1,0.095,0.08900000000000001,0.083,0.077,0.07,0.063,0.057,0.05,0.044000000000000004,0.038,0.033,0.027000000000000003,0.022000000000000002,0.018000000000000002,0.013000000000000001,0.009000000000000001,0.004,-0.002,-0.006,-0.01,-0.013000000000000001,-0.017,-0.02,-0.023,-0.025,-0.027999999999999997,-0.031,-0.034,-0.037000000000000005,-0.04,-0.044000000000000004,-0.048,-0.05,-0.052000000000000005,-0.052000000000000005,-0.052000000000000005,-0.051,-0.05,-0.049,-0.047,-0.045,-0.043,-0.040999999999999995,-0.039,-0.036000000000000004,-0.033,-0.031,-0.028999999999999998,-0.027000000000000003,-0.025,-0.023,-0.021,-0.02,-0.019,-0.018000000000000002,-0.018000000000000002,-0.019,-0.02,-0.021,-0.022000000000000002,-0.022000000000000002,-0.023,-0.025,-0.026000000000000002,-0.027999999999999997,-0.03,-0.03,-0.031,-0.032,-0.033,-0.034,-0.034,-0.034,-0.033,-0.034,-0.034,-0.035,-0.037000000000000005,-0.04,-0.042,-0.045,-0.049,-0.052000000000000005,-0.055999999999999994,-0.057999999999999996,-0.06,-0.061,-0.062,-0.062,-0.063,-0.062,-0.061,-0.057999999999999996,-0.055,-0.049,-0.043,-0.035,-0.027999999999999997,-0.018000000000000002,-0.009000000000000001,0.004,0.016,0.032,0.047,0.071,0.095,0.135,0.175,0.235,0.29600000000000004,0.36700000000000005,0.439,0.5,0.561,0.59,0.618,0.603,0.5870000000000001,0.5329999999999999,0.48,0.40700000000000003,0.335,0.266,0.196,0.141,0.086,0.049,0.011000000000000001,-0.012,-0.035,-0.048,-0.061,-0.069,-0.076,-0.08,-0.084,-0.086,-0.08900000000000001,-0.091,-0.09300000000000001,-0.095,-0.096,-0.098,-0.099,-0.099,-0.099,-0.099,-0.098,-0.09699999999999999,-0.096,-0.096,-0.095,-0.095,-0.094,-0.09300000000000001,-0.092,-0.08900000000000001,-0.087,-0.084,-0.08,-0.078,-0.076,-0.07400000000000001,-0.07200000000000001,-0.071,-0.07,-0.07,-0.069,-0.07,-0.07,-0.07,-0.069,-0.068,-0.066,-0.064,-0.062,-0.06,-0.059000000000000004,-0.057999999999999996,-0.057,-0.055999999999999994,-0.055,-0.053,-0.052000000000000005,-0.051,-0.05,-0.048,-0.045,-0.040999999999999995,-0.036000000000000004,-0.032,-0.027000000000000003,-0.021,-0.016,-0.011000000000000001,-0.005,0.0,0.005,0.009000000000000001,0.013999999999999999,0.019,0.024,0.03,0.036000000000000004,0.043,0.051,0.06,0.069,0.078,0.087,0.095,0.10300000000000001,0.111,0.11900000000000001,0.124,0.13,0.134,0.13699999999999998,0.14,0.14300000000000002,0.145,0.147,0.14800000000000002,0.15,0.15,0.15,0.149,0.14800000000000002,0.14400000000000002,0.14,0.135,0.13,0.125,0.12,0.114,0.107,0.1,0.09300000000000001,0.086,0.08,0.073,0.067,0.061,0.055,0.049,0.042,0.036000000000000004,0.03,0.025,0.019,0.013999999999999999,0.009000000000000001,0.005,0.001,-0.003,-0.006999999999999999,-0.011000000000000001,-0.016,-0.021,-0.025,-0.027999999999999997,-0.031,-0.035,-0.038,-0.042,-0.046,-0.049,-0.051,-0.051,-0.052000000000000005,-0.051,-0.051,-0.049,-0.047,-0.045,-0.043,-0.042,-0.04,-0.038,-0.036000000000000004,-0.035,-0.033,-0.033,-0.032,-0.03,-0.028999999999999998,-0.027000000000000003,-0.025,-0.022000000000000002,-0.02,-0.018000000000000002,-0.016,-0.015,-0.013999999999999999,-0.015,-0.015,-0.017,-0.019,-0.021,-0.024,-0.027999999999999997,-0.031,-0.035,-0.039,-0.043,-0.048,-0.051,-0.054000000000000006,-0.054000000000000006,-0.054000000000000006,-0.052000000000000005,-0.051,-0.05,-0.048,-0.049,-0.049,-0.051,-0.052000000000000005,-0.054000000000000006,-0.055999999999999994,-0.057999999999999996,-0.06,-0.061,-0.062,-0.062,-0.062,-0.06,-0.059000000000000004,-0.055999999999999994,-0.053,-0.049,-0.044000000000000004,-0.035,-0.026000000000000002,-0.013000000000000001,-0.001,0.016,0.033,0.057999999999999996,0.08199999999999999,0.11699999999999999,0.153,0.205,0.257,0.324,0.391,0.45899999999999996,0.527,0.575,0.622,0.628,0.634,0.595,0.555,0.484,0.413,0.335,0.257,0.191,0.125,0.079,0.033,0.004,-0.024,-0.040999999999999995,-0.057,-0.066,-0.075,-0.081,-0.086,-0.08900000000000001,-0.09300000000000001,-0.095,-0.09699999999999999,-0.099,-0.1,-0.102,-0.10300000000000001,-0.10400000000000001,-0.106,-0.106,-0.107,-0.106,-0.106,-0.106,-0.107,-0.107,-0.10800000000000001,-0.107,-0.107,-0.10400000000000001,-0.102,-0.1,-0.09699999999999999,-0.095,-0.092,-0.08900000000000001,-0.087,-0.086,-0.084,-0.084,-0.083,-0.08199999999999999,-0.08,-0.079,-0.077,-0.07400000000000001,-0.07200000000000001,-0.07,-0.069,-0.067,-0.065,-0.063,-0.061,-0.057999999999999996,-0.054000000000000006,-0.05,-0.046,-0.043,-0.039,-0.036000000000000004,-0.033,-0.03,-0.027999999999999997,-0.025,-0.021,-0.017,-0.013000000000000001,-0.009000000000000001,-0.006,-0.003,0.001,0.005,0.01,0.015,0.02,0.026000000000000002,0.033,0.042,0.051,0.06,0.07,0.081,0.091,0.1,0.109,0.11599999999999999,0.12300000000000001,0.128,0.133,0.13699999999999998,0.141,0.14300000000000002,0.146,0.146,0.147,0.147,0.147,0.147,0.14800000000000002,0.147,0.146,0.14300000000000002,0.14,0.135,0.129,0.12300000000000001,0.11800000000000001,0.11199999999999999,0.106,0.1,0.09300000000000001,0.086,0.08,0.073,0.066,0.059000000000000004,0.052000000000000005,0.044000000000000004,0.036000000000000004,0.028999999999999998,0.023,0.018000000000000002,0.012,0.006,0.001,-0.004,-0.009000000000000001,-0.013000000000000001,-0.018000000000000002,-0.022000000000000002,-0.027000000000000003,-0.031,-0.035,-0.038,-0.042,-0.045,-0.049,-0.051,-0.054000000000000006,-0.057,-0.059000000000000004,-0.061,-0.063,-0.063,-0.063,-0.063,-0.063,-0.062,-0.062,-0.06,-0.057999999999999996,-0.054000000000000006,-0.051,-0.049,-0.046,-0.044000000000000004,-0.043,-0.042,-0.04,-0.038,-0.036000000000000004,-0.034,-0.032,-0.031,-0.03,-0.03,-0.03,-0.032,-0.033,-0.034,-0.035,-0.036000000000000004,-0.037000000000000005,-0.038,-0.04,-0.040999999999999995,-0.042,-0.043,-0.044000000000000004,-0.046,-0.048,-0.048,-0.048,-0.049,-0.049,-0.05,-0.051,-0.051,-0.052000000000000005,-0.052000000000000005,-0.053,-0.054000000000000006,-0.055,-0.057,-0.059000000000000004,-0.061,-0.064,-0.066,-0.067,-0.068,-0.069,-0.069,-0.068,-0.065,-0.061,-0.053,-0.046,-0.035,-0.024,-0.006999999999999999,0.01,0.035,0.06,0.095,0.129,0.17600000000000002,0.223,0.28300000000000003,0.34299999999999997,0.41100000000000003,0.48,0.54,0.6,0.629,0.6579999999999999,0.642,0.626,0.568,0.509,0.428,0.34700000000000003,0.26899999999999996,0.191,0.131,0.071,0.032,-0.008,-0.031,-0.054000000000000006,-0.067,-0.079,-0.087,-0.095,-0.1,-0.105,-0.10800000000000001,-0.111,-0.113,-0.115,-0.11599999999999999,-0.11599999999999999,-0.11599999999999999,-0.11599999999999999,-0.11599999999999999,-0.11599999999999999,-0.11599999999999999,-0.11599999999999999,-0.115,-0.114,-0.114,-0.113,-0.114,-0.114,-0.114,-0.113,-0.11199999999999999,-0.11,-0.107,-0.10400000000000001,-0.102,-0.099,-0.096,-0.09300000000000001,-0.091,-0.08900000000000001,-0.087,-0.086,-0.085,-0.084,-0.08199999999999999,-0.08,-0.078,-0.076,-0.07400000000000001,-0.07200000000000001,-0.07,-0.069,-0.067,-0.064,-0.061,-0.057999999999999996,-0.054000000000000006,-0.05,-0.046,-0.042,-0.039,-0.036000000000000004,-0.034,-0.031,-0.027999999999999997,-0.024,-0.021,-0.017,-0.012,N
3,-0.092,-0.095,-0.09699999999999999,-0.099,-0.102,-0.10400000000000001,-0.106,-0.10800000000000001,-0.109,-0.11,-0.11,-0.109,-0.107,-0.106,-0.10400000000000001,-0.102,-0.1,-0.098,-0.098,-0.09699999999999999,-0.09699999999999999,-0.09699999999999999,-0.09699999999999999,-0.096,-0.095,-0.094,-0.092,-0.091,-0.08800000000000001,-0.086,-0.084,-0.081,-0.079,-0.076,-0.07400000000000001,-0.073,-0.073,-0.073,-0.07200000000000001,-0.07200000000000001,-0.07,-0.069,-0.068,-0.066,-0.066,-0.065,-0.064,-0.062,-0.06,-0.057999999999999996,-0.055999999999999994,-0.054000000000000006,-0.051,-0.049,-0.044000000000000004,-0.04,-0.035,-0.03,-0.025,-0.02,-0.015,-0.009000000000000001,-0.004,0.002,0.006999999999999999,0.012,0.017,0.022000000000000002,0.028999999999999998,0.036000000000000004,0.045,0.054000000000000006,0.064,0.07400000000000001,0.083,0.092,0.10099999999999999,0.109,0.11599999999999999,0.12300000000000001,0.128,0.133,0.13699999999999998,0.14,0.141,0.142,0.142,0.14300000000000002,0.141,0.14,0.138,0.135,0.132,0.128,0.124,0.12,0.115,0.11,0.105,0.1,0.095,0.08900000000000001,0.083,0.077,0.07,0.063,0.057,0.05,0.044000000000000004,0.038,0.033,0.027000000000000003,0.022000000000000002,0.018000000000000002,0.013000000000000001,0.009000000000000001,0.004,-0.002,-0.006,-0.01,-0.013000000000000001,-0.017,-0.02,-0.023,-0.025,-0.027999999999999997,-0.031,-0.034,-0.037000000000000005,-0.04,-0.044000000000000004,-0.048,-0.05,-0.052000000000000005,-0.052000000000000005,-0.052000000000000005,-0.051,-0.05,-0.049,-0.047,-0.045,-0.043,-0.040999999999999995,-0.039,-0.036000000000000004,-0.033,-0.031,-0.028999999999999998,-0.027000000000000003,-0.025,-0.023,-0.021,-0.02,-0.019,-0.018000000000000002,-0.018000000000000002,-0.019,-0.02,-0.021,-0.022000000000000002,-0.022000000000000002,-0.023,-0.025,-0.026000000000000002,-0.027999999999999997,-0.03,-0.03,-0.031,-0.032,-0.033,-0.034,-0.034,-0.034,-0.033,-0.034,-0.034,-0.035,-0.037000000000000005,-0.04,-0.042,-0.045,-0.049,-0.052000000000000005,-0.055999999999999994,-0.057999999999999996,-0.06,-0.061,-0.062,-0.062,-0.063,-0.062,-0.061,-0.057999999999999996,-0.055,-0.049,-0.043,-0.035,-0.027999999999999997,-0.018000000000000002,-0.009000000000000001,0.004,0.016,0.032,0.047,0.071,0.095,0.135,0.175,0.235,0.29600000000000004,0.36700000000000005,0.439,0.5,0.561,0.59,0.618,0.603,0.5870000000000001,0.5329999999999999,0.48,0.40700000000000003,0.335,0.266,0.196,0.141,0.086,0.049,0.011000000000000001,-0.012,-0.035,-0.048,-0.061,-0.069,-0.076,-0.08,-0.084,-0.086,-0.08900000000000001,-0.091,-0.09300000000000001,-0.095,-0.096,-0.098,-0.099,-0.099,-0.099,-0.099,-0.098,-0.09699999999999999,-0.096,-0.096,-0.095,-0.095,-0.094,-0.09300000000000001,-0.092,-0.08900000000000001,-0.087,-0.084,-0.08,-0.078,-0.076,-0.07400000000000001,-0.07200000000000001,-0.071,-0.07,-0.07,-0.069,-0.07,-0.07,-0.07,-0.069,-0.068,-0.066,-0.064,-0.062,-0.06,-0.059000000000000004,-0.057999999999999996,-0.057,-0.055999999999999994,-0.055,-0.053,-0.052000000000000005,-0.051,-0.05,-0.048,-0.045,-0.040999999999999995,-0.036000000000000004,-0.032,-0.027000000000000003,-0.021,-0.016,-0.011000000000000001,-0.005,0.0,0.005,0.009000000000000001,0.013999999999999999,0.019,0.024,0.03,0.036000000000000004,0.043,0.051,0.06,0.069,0.078,0.087,0.095,0.10300000000000001,0.111,0.11900000000000001,0.124,0.13,0.134,0.13699999999999998,0.14,0.14300000000000002,0.145,0.147,0.14800000000000002,0.15,0.15,0.15,0.149,0.14800000000000002,0.14400000000000002,0.14,0.135,0.13,0.125,0.12,0.114,0.107,0.1,0.09300000000000001,0.086,0.08,0.073,0.067,0.061,0.055,0.049,0.042,0.036000000000000004,0.03,0.025,0.019,0.013999999999999999,0.009000000000000001,0.005,0.001,-0.003,-0.006999999999999999,-0.011000000000000001,-0.016,-0.021,-0.025,-0.027999999999999997,-0.031,-0.035,-0.038,-0.042,-0.046,-0.049,-0.051,-0.051,-0.052000000000000005,-0.051,-0.051,-0.049,-0.047,-0.045,-0.043,-0.042,-0.04,-0.038,-0.036000000000000004,-0.035,-0.033,-0.033,-0.032,-0.03,-0.028999999999999998,-0.027000000000000003,-0.025,-0.022000000000000002,-0.02,-0.018000000000000002,-0.016,-0.015,-0.013999999999999999,-0.015,-0.015,-0.017,-0.019,-0.021,-0.024,-0.027999999999999997,-0.031,-0.035,-0.039,-0.043,-0.048,-0.051,-0.054000000000000006,-0.054000000000000006,-0.054000000000000006,-0.052000000000000005,-0.051,-0.05,-0.048,-0.049,-0.049,-0.051,-0.052000000000000005,-0.054000000000000006,-0.055999999999999994,-0.057999999999999996,-0.06,-0.061,-0.062,-0.062,-0.062,-0.06,-0.059000000000000004,-0.055999999999999994,-0.053,-0.049,-0.044000000000000004,-0.035,-0.026000000000000002,-0.013000000000000001,-0.001,0.016,0.033,0.057999999999999996,0.08199999999999999,0.11699999999999999,0.153,0.205,0.257,0.324,0.391,0.45899999999999996,0.527,0.575,0.622,0.628,0.634,0.595,0.555,0.484,0.413,0.335,0.257,0.191,0.125,0.079,0.033,0.004,-0.024,-0.040999999999999995,-0.057,-0.066,-0.075,-0.081,-0.086,-0.08900000000000001,-0.09300000000000001,-0.095,-0.09699999999999999,-0.099,-0.1,-0.102,-0.10300000000000001,-0.10400000000000001,-0.106,-0.106,-0.107,-0.106,-0.106,-0.106,-0.107,-0.107,-0.10800000000000001,-0.107,-0.107,-0.10400000000000001,-0.102,-0.1,-0.09699999999999999,-0.095,-0.092,-0.08900000000000001,-0.087,-0.086,-0.084,-0.084,-0.083,-0.08199999999999999,-0.08,-0.079,-0.077,-0.07400000000000001,-0.07200000000000001,-0.07,-0.069,-0.067,-0.065,-0.063,-0.061,-0.057999999999999996,-0.054000000000000006,-0.05,-0.046,-0.043,-0.039,-0.036000000000000004,-0.033,-0.03,-0.027999999999999997,-0.025,-0.021,-0.017,-0.013000000000000001,-0.009000000000000001,-0.006,-0.003,0.001,0.005,0.01,0.015,0.02,0.026000000000000002,0.033,0.042,0.051,0.06,0.07,0.081,0.091,0.1,0.109,0.11599999999999999,0.12300000000000001,0.128,0.133,0.13699999999999998,0.141,0.14300000000000002,0.146,0.146,0.147,0.147,0.147,0.147,0.14800000000000002,0.147,0.146,0.14300000000000002,0.14,0.135,0.129,0.12300000000000001,0.11800000000000001,0.11199999999999999,0.106,0.1,0.09300000000000001,0.086,0.08,0.073,0.066,0.059000000000000004,0.052000000000000005,0.044000000000000004,0.036000000000000004,0.028999999999999998,0.023,0.018000000000000002,0.012,0.006,0.001,-0.004,-0.009000000000000001,-0.013000000000000001,-0.018000000000000002,-0.022000000000000002,-0.027000000000000003,-0.031,-0.035,-0.038,-0.042,-0.045,-0.049,-0.051,-0.054000000000000006,-0.057,-0.059000000000000004,-0.061,-0.063,-0.063,-0.063,-0.063,-0.063,-0.062,-0.062,-0.06,-0.057999999999999996,-0.054000000000000006,-0.051,-0.049,-0.046,-0.044000000000000004,-0.043,-0.042,-0.04,-0.038,-0.036000000000000004,-0.034,-0.032,-0.031,-0.03,-0.03,-0.03,-0.032,-0.033,-0.034,-0.035,-0.036000000000000004,-0.037000000000000005,-0.038,-0.04,-0.040999999999999995,-0.042,-0.043,-0.044000000000000004,-0.046,-0.048,-0.048,-0.048,-0.049,-0.049,-0.05,-0.051,-0.051,-0.052000000000000005,-0.052000000000000005,-0.053,-0.054000000000000006,-0.055,-0.057,-0.059000000000000004,-0.061,-0.064,-0.066,-0.067,-0.068,-0.069,-0.069,-0.068,-0.065,-0.061,-0.053,-0.046,-0.035,-0.024,-0.006999999999999999,0.01,0.035,0.06,0.095,0.129,0.17600000000000002,0.223,0.28300000000000003,0.34299999999999997,0.41100000000000003,0.48,0.54,0.6,0.629,0.6579999999999999,0.642,0.626,0.568,0.509,0.428,0.34700000000000003,0.26899999999999996,0.191,0.131,0.071,0.032,-0.008,-0.031,-0.054000000000000006,-0.067,-0.079,-0.087,-0.095,-0.1,-0.105,-0.10800000000000001,-0.111,-0.113,-0.115,-0.11599999999999999,-0.11599999999999999,-0.11599999999999999,-0.11599999999999999,-0.11599999999999999,-0.11599999999999999,-0.11599999999999999,-0.11599999999999999,-0.115,-0.114,-0.114,-0.113,-0.114,-0.114,-0.114,-0.113,-0.11199999999999999,-0.11,-0.107,-0.10400000000000001,-0.102,-0.099,-0.096,-0.09300000000000001,-0.091,-0.08900000000000001,-0.087,-0.086,-0.085,-0.084,-0.08199999999999999,-0.08,-0.078,-0.076,-0.07400000000000001,-0.07200000000000001,-0.07,-0.069,-0.067,-0.064,-0.061,-0.057999999999999996,-0.054000000000000006,-0.05,-0.046,-0.042,-0.039,-0.036000000000000004,-0.034,-0.031,-0.027999999999999997,-0.024,-0.021,-0.017,-0.012,-0.006999999999999999,-0.001,0.005,0.011000000000000001,0.017,0.022000000000000002,0.027999999999999997,0.034,0.039,0.046,0.054000000000000006,0.062,0.07,0.079,0.087,0.095,0.10300000000000001,0.111,0.11900000000000001,0.124,0.13,0.134,0.13699999999999998,0.14,0.14300000000000002,0.14400000000000002,0.146,0.146,0.146,0.14400000000000002,0.142,0.14,0.13699999999999998,0.134,0.13,0.126,0.121,0.11599999999999999,0.111,0.105,0.099,0.09300000000000001,0.08800000000000001,0.081,0.07400000000000001,0.067,0.059000000000000004,0.051,0.043,0.035,0.027000000000000003,0.021,0.016,0.012,0.008,0.004,0.001,-0.003,-0.006999999999999999,-0.011000000000000001,-0.015,-0.019,-0.023,-0.027999999999999997,-0.032,-0.035,-0.039,-0.042,-0.045,-0.049,-0.052000000000000005,-0.054000000000000006,-0.055999999999999994,-0.055999999999999994,-0.055999999999999994,-0.055999999999999994,-0.055,-0.054000000000000006,-0.054000000000000006,-0.053,-0.052000000000000005,-0.051,-0.05,-0.049,-0.047,-0.045,-0.043,-0.042,-0.04,-0.038,-0.036000000000000004,-0.034,-0.031,-0.027999999999999997,-0.024,-0.021,-0.018000000000000002,-0.015,-0.013000000000000001,-0.012,-0.011000000000000001,-0.012,-0.013000000000000001,-0.017,-0.02,-0.024,-0.027000000000000003,-0.028999999999999998,-0.032,-0.034,-0.036000000000000004,-0.037000000000000005,-0.038,-0.039,-0.04,-0.040999999999999995,-0.042,-0.043,-0.043,-0.044000000000000004,-0.045,-0.046,-0.048,-0.048,-0.048,-0.049,-0.049,-0.05,-0.051,-0.052000000000000005,-0.053,-0.054000000000000006,-0.055,-0.055,-0.055,-0.054000000000000006,-0.054000000000000006,-0.051,-0.048,-0.040999999999999995,-0.033,-0.02,-0.006999999999999999,0.011000000000000001,0.03,0.052000000000000005,0.075,0.106,0.138,0.182,0.22699999999999998,0.285,0.344,0.409,0.474,0.526,0.578,0.597,0.616,0.594,0.5710000000000001,0.514,0.45799999999999996,0.38799999999999996,0.317,0.252,0.18600000000000003,0.135,0.083,0.046,0.01,-0.013999999999999999,-0.038,-0.051,-0.064,-0.07,-0.077,-0.08,-0.08199999999999999,-0.083,-0.084,-0.085,-0.086,-0.087,-0.08800000000000001,-0.09,-0.09300000000000001,-0.094,-0.095,-0.096,-0.096,-0.096,-0.096,-0.096,-0.095,-0.095,-0.094,-0.09300000000000001,-0.092,-0.08900000000000001,-0.087,-0.084,-0.08,-0.079,-0.077,-0.076,-0.075,-0.07400000000000001,-0.073,-0.071,-0.069,-0.068,-0.066,-0.066,-0.065,-0.064,-0.063,-0.062,-0.061,-0.06,-0.059000000000000004,-0.057,-0.054000000000000006,-0.051,-0.049,-0.045,-0.040999999999999995,-0.038,-0.035,-0.034,-0.032,-0.03,-0.028999999999999998,-0.027000000000000003,-0.025,N
4,-0.08900000000000001,-0.091,-0.09300000000000001,-0.095,-0.096,-0.098,-0.099,-0.099,-0.099,-0.099,-0.098,-0.09699999999999999,-0.096,-0.096,-0.095,-0.095,-0.094,-0.09300000000000001,-0.092,-0.08900000000000001,-0.087,-0.084,-0.08,-0.078,-0.076,-0.07400000000000001,-0.07200000000000001,-0.071,-0.07,-0.07,-0.069,-0.07,-0.07,-0.07,-0.069,-0.068,-0.066,-0.064,-0.062,-0.06,-0.059000000000000004,-0.057999999999999996,-0.057,-0.055999999999999994,-0.055,-0.053,-0.052000000000000005,-0.051,-0.05,-0.048,-0.045,-0.040999999999999995,-0.036000000000000004,-0.032,-0.027000000000000003,-0.021,-0.016,-0.011000000000000001,-0.005,0.0,0.005,0.009000000000000001,0.013999999999999999,0.019,0.024,0.03,0.036000000000000004,0.043,0.051,0.06,0.069,0.078,0.087,0.095,0.10300000000000001,0.111,0.11900000000000001,0.124,0.13,0.134,0.13699999999999998,0.14,0.14300000000000002,0.145,0.147,0.14800000000000002,0.15,0.15,0.15,0.149,0.14800000000000002,0.14400000000000002,0.14,0.135,0.13,0.125,0.12,0.114,0.107,0.1,0.09300000000000001,0.086,0.08,0.073,0.067,0.061,0.055,0.049,0.042,0.036000000000000004,0.03,0.025,0.019,0.013999999999999999,0.009000000000000001,0.005,0.001,-0.003,-0.006999999999999999,-0.011000000000000001,-0.016,-0.021,-0.025,-0.027999999999999997,-0.031,-0.035,-0.038,-0.042,-0.046,-0.049,-0.051,-0.051,-0.052000000000000005,-0.051,-0.051,-0.049,-0.047,-0.045,-0.043,-0.042,-0.04,-0.038,-0.036000000000000004,-0.035,-0.033,-0.033,-0.032,-0.03,-0.028999999999999998,-0.027000000000000003,-0.025,-0.022000000000000002,-0.02,-0.018000000000000002,-0.016,-0.015,-0.013999999999999999,-0.015,-0.015,-0.017,-0.019,-0.021,-0.024,-0.027999999999999997,-0.031,-0.035,-0.039,-0.043,-0.048,-0.051,-0.054000000000000006,-0.054000000000000006,-0.054000000000000006,-0.052000000000000005,-0.051,-0.05,-0.048,-0.049,-0.049,-0.051,-0.052000000000000005,-0.054000000000000006,-0.055999999999999994,-0.057999999999999996,-0.06,-0.061,-0.062,-0.062,-0.062,-0.06,-0.059000000000000004,-0.055999999999999994,-0.053,-0.049,-0.044000000000000004,-0.035,-0.026000000000000002,-0.013000000000000001,-0.001,0.016,0.033,0.057999999999999996,0.08199999999999999,0.11699999999999999,0.153,0.205,0.257,0.324,0.391,0.45899999999999996,0.527,0.575,0.622,0.628,0.634,0.595,0.555,0.484,0.413,0.335,0.257,0.191,0.125,0.079,0.033,0.004,-0.024,-0.040999999999999995,-0.057,-0.066,-0.075,-0.081,-0.086,-0.08900000000000001,-0.09300000000000001,-0.095,-0.09699999999999999,-0.099,-0.1,-0.102,-0.10300000000000001,-0.10400000000000001,-0.106,-0.106,-0.107,-0.106,-0.106,-0.106,-0.107,-0.107,-0.10800000000000001,-0.107,-0.107,-0.10400000000000001,-0.102,-0.1,-0.09699999999999999,-0.095,-0.092,-0.08900000000000001,-0.087,-0.086,-0.084,-0.084,-0.083,-0.08199999999999999,-0.08,-0.079,-0.077,-0.07400000000000001,-0.07200000000000001,-0.07,-0.069,-0.067,-0.065,-0.063,-0.061,-0.057999999999999996,-0.054000000000000006,-0.05,-0.046,-0.043,-0.039,-0.036000000000000004,-0.033,-0.03,-0.027999999999999997,-0.025,-0.021,-0.017,-0.013000000000000001,-0.009000000000000001,-0.006,-0.003,0.001,0.005,0.01,0.015,0.02,0.026000000000000002,0.033,0.042,0.051,0.06,0.07,0.081,0.091,0.1,0.109,0.11599999999999999,0.12300000000000001,0.128,0.133,0.13699999999999998,0.141,0.14300000000000002,0.146,0.146,0.147,0.147,0.147,0.147,0.14800000000000002,0.147,0.146,0.14300000000000002,0.14,0.135,0.129,0.12300000000000001,0.11800000000000001,0.11199999999999999,0.106,0.1,0.09300000000000001,0.086,0.08,0.073,0.066,0.059000000000000004,0.052000000000000005,0.044000000000000004,0.036000000000000004,0.028999999999999998,0.023,0.018000000000000002,0.012,0.006,0.001,-0.004,-0.009000000000000001,-0.013000000000000001,-0.018000000000000002,-0.022000000000000002,-0.027000000000000003,-0.031,-0.035,-0.038,-0.042,-0.045,-0.049,-0.051,-0.054000000000000006,-0.057,-0.059000000000000004,-0.061,-0.063,-0.063,-0.063,-0.063,-0.063,-0.062,-0.062,-0.06,-0.057999999999999996,-0.054000000000000006,-0.051,-0.049,-0.046,-0.044000000000000004,-0.043,-0.042,-0.04,-0.038,-0.036000000000000004,-0.034,-0.032,-0.031,-0.03,-0.03,-0.03,-0.032,-0.033,-0.034,-0.035,-0.036000000000000004,-0.037000000000000005,-0.038,-0.04,-0.040999999999999995,-0.042,-0.043,-0.044000000000000004,-0.046,-0.048,-0.048,-0.048,-0.049,-0.049,-0.05,-0.051,-0.051,-0.052000000000000005,-0.052000000000000005,-0.053,-0.054000000000000006,-0.055,-0.057,-0.059000000000000004,-0.061,-0.064,-0.066,-0.067,-0.068,-0.069,-0.069,-0.068,-0.065,-0.061,-0.053,-0.046,-0.035,-0.024,-0.006999999999999999,0.01,0.035,0.06,0.095,0.129,0.17600000000000002,0.223,0.28300000000000003,0.34299999999999997,0.41100000000000003,0.48,0.54,0.6,0.629,0.6579999999999999,0.642,0.626,0.568,0.509,0.428,0.34700000000000003,0.26899999999999996,0.191,0.131,0.071,0.032,-0.008,-0.031,-0.054000000000000006,-0.067,-0.079,-0.087,-0.095,-0.1,-0.105,-0.10800000000000001,-0.111,-0.113,-0.115,-0.11599999999999999,-0.11599999999999999,-0.11599999999999999,-0.11599999999999999,-0.11599999999999999,-0.11599999999999999,-0.11599999999999999,-0.11599999999999999,-0.115,-0.114,-0.114,-0.113,-0.114,-0.114,-0.114,-0.113,-0.11199999999999999,-0.11,-0.107,-0.10400000000000001,-0.102,-0.099,-0.096,-0.09300000000000001,-0.091,-0.08900000000000001,-0.087,-0.086,-0.085,-0.084,-0.08199999999999999,-0.08,-0.078,-0.076,-0.07400000000000001,-0.07200000000000001,-0.07,-0.069,-0.067,-0.064,-0.061,-0.057999999999999996,-0.054000000000000006,-0.05,-0.046,-0.042,-0.039,-0.036000000000000004,-0.034,-0.031,-0.027999999999999997,-0.024,-0.021,-0.017,-0.012,-0.006999999999999999,-0.001,0.005,0.011000000000000001,0.017,0.022000000000000002,0.027999999999999997,0.034,0.039,0.046,0.054000000000000006,0.062,0.07,0.079,0.087,0.095,0.10300000000000001,0.111,0.11900000000000001,0.124,0.13,0.134,0.13699999999999998,0.14,0.14300000000000002,0.14400000000000002,0.146,0.146,0.146,0.14400000000000002,0.142,0.14,0.13699999999999998,0.134,0.13,0.126,0.121,0.11599999999999999,0.111,0.105,0.099,0.09300000000000001,0.08800000000000001,0.081,0.07400000000000001,0.067,0.059000000000000004,0.051,0.043,0.035,0.027000000000000003,0.021,0.016,0.012,0.008,0.004,0.001,-0.003,-0.006999999999999999,-0.011000000000000001,-0.015,-0.019,-0.023,-0.027999999999999997,-0.032,-0.035,-0.039,-0.042,-0.045,-0.049,-0.052000000000000005,-0.054000000000000006,-0.055999999999999994,-0.055999999999999994,-0.055999999999999994,-0.055999999999999994,-0.055,-0.054000000000000006,-0.054000000000000006,-0.053,-0.052000000000000005,-0.051,-0.05,-0.049,-0.047,-0.045,-0.043,-0.042,-0.04,-0.038,-0.036000000000000004,-0.034,-0.031,-0.027999999999999997,-0.024,-0.021,-0.018000000000000002,-0.015,-0.013000000000000001,-0.012,-0.011000000000000001,-0.012,-0.013000000000000001,-0.017,-0.02,-0.024,-0.027000000000000003,-0.028999999999999998,-0.032,-0.034,-0.036000000000000004,-0.037000000000000005,-0.038,-0.039,-0.04,-0.040999999999999995,-0.042,-0.043,-0.043,-0.044000000000000004,-0.045,-0.046,-0.048,-0.048,-0.048,-0.049,-0.049,-0.05,-0.051,-0.052000000000000005,-0.053,-0.054000000000000006,-0.055,-0.055,-0.055,-0.054000000000000006,-0.054000000000000006,-0.051,-0.048,-0.040999999999999995,-0.033,-0.02,-0.006999999999999999,0.011000000000000001,0.03,0.052000000000000005,0.075,0.106,0.138,0.182,0.22699999999999998,0.285,0.344,0.409,0.474,0.526,0.578,0.597,0.616,0.594,0.5710000000000001,0.514,0.45799999999999996,0.38799999999999996,0.317,0.252,0.18600000000000003,0.135,0.083,0.046,0.01,-0.013999999999999999,-0.038,-0.051,-0.064,-0.07,-0.077,-0.08,-0.08199999999999999,-0.083,-0.084,-0.085,-0.086,-0.087,-0.08800000000000001,-0.09,-0.09300000000000001,-0.094,-0.095,-0.096,-0.096,-0.096,-0.096,-0.096,-0.095,-0.095,-0.094,-0.09300000000000001,-0.092,-0.08900000000000001,-0.087,-0.084,-0.08,-0.079,-0.077,-0.076,-0.075,-0.07400000000000001,-0.073,-0.071,-0.069,-0.068,-0.066,-0.066,-0.065,-0.064,-0.063,-0.062,-0.061,-0.06,-0.059000000000000004,-0.057,-0.054000000000000006,-0.051,-0.049,-0.045,-0.040999999999999995,-0.038,-0.035,-0.034,-0.032,-0.03,-0.028999999999999998,-0.027000000000000003,-0.025,-0.022000000000000002,-0.019,-0.013999999999999999,-0.009000000000000001,-0.004,0.002,0.006999999999999999,0.013000000000000001,0.019,0.025,0.032,0.039,0.047,0.055,0.064,0.073,0.08199999999999999,0.091,0.099,0.106,0.113,0.11900000000000001,0.124,0.13,0.135,0.139,0.141,0.14400000000000002,0.14400000000000002,0.145,0.14400000000000002,0.14400000000000002,0.142,0.14,0.13699999999999998,0.134,0.13,0.125,0.12,0.11599999999999999,0.11199999999999999,0.107,0.10300000000000001,0.1,0.096,0.092,0.087,0.08199999999999999,0.076,0.07,0.062,0.055,0.048,0.04,0.034,0.027999999999999997,0.024,0.019,0.016,0.013000000000000001,0.009000000000000001,0.006,0.002,-0.002,-0.005,-0.009000000000000001,-0.013000000000000001,-0.017,-0.021,-0.024,-0.027999999999999997,-0.031,-0.034,-0.036000000000000004,-0.037000000000000005,-0.039,-0.04,-0.040999999999999995,-0.043,-0.045,-0.046,-0.048,-0.048,-0.047,-0.045,-0.043,-0.042,-0.04,-0.038,-0.036000000000000004,-0.035,-0.033,-0.032,-0.031,-0.028999999999999998,-0.026000000000000002,-0.023,-0.02,-0.018000000000000002,-0.015,-0.013000000000000001,-0.011000000000000001,-0.011000000000000001,-0.011000000000000001,-0.011000000000000001,-0.012,-0.013999999999999999,-0.016,-0.018000000000000002,-0.019,-0.021,-0.023,-0.025,-0.027000000000000003,-0.028999999999999998,-0.032,-0.034,-0.036000000000000004,-0.036000000000000004,-0.037000000000000005,-0.037000000000000005,-0.037000000000000005,-0.037000000000000005,-0.037000000000000005,-0.038,-0.039,-0.042,-0.045,-0.049,-0.053,-0.057,-0.06,-0.061,-0.063,-0.062,-0.062,-0.06,-0.057999999999999996,-0.053,-0.048,-0.040999999999999995,-0.033,-0.024,-0.013999999999999999,-0.003,0.009000000000000001,0.024,0.039,0.061,0.084,0.11900000000000001,0.154,0.20600000000000002,0.259,0.32799999999999996,0.396,0.46299999999999997,0.529,0.5710000000000001,0.613,0.615,0.617,0.579,0.541,0.47700000000000004,0.413,0.34299999999999997,0.273,0.212,0.152,0.107,0.062,0.032,0.002,-0.018000000000000002,-0.038,-0.051,-0.063,-0.07,-0.077,-0.08199999999999999,-0.086,-0.08800000000000001,-0.09,-0.091,-0.092,-0.092,-0.09300000000000001,-0.094,-0.095,-0.096,-0.09699999999999999,-0.098,-0.098,-0.09699999999999999,-0.095,-0.092,-0.08900000000000001,-0.085,-0.08,-0.076,-0.07200000000000001,-0.07,-0.069,-0.069,-0.069,-0.07,-0.07,-0.07,-0.069,-0.068,-0.067,-0.066,-0.065,-0.064,-0.063,-0.062,-0.061,-0.06,-0.06,-0.059000000000000004,-0.059000000000000004,-0.059000000000000004,-0.057999999999999996,-0.057999999999999996,-0.057999999999999996,-0.057,-0.055,-0.052000000000000005,-0.05,-0.046,-0.043,-0.038,-0.034,-0.028999999999999998,-0.025,-0.021,N
5,-0.09300000000000001,-0.095,-0.09699999999999999,-0.099,-0.1,-0.102,-0.10300000000000001,-0.10400000000000001,-0.106,-0.106,-0.107,-0.106,-0.106,-0.106,-0.107,-0.107,-0.10800000000000001,-0.107,-0.107,-0.10400000000000001,-0.102,-0.1,-0.09699999999999999,-0.095,-0.092,-0.08900000000000001,-0.087,-0.086,-0.084,-0.084,-0.083,-0.08199999999999999,-0.08,-0.079,-0.077,-0.07400000000000001,-0.07200000000000001,-0.07,-0.069,-0.067,-0.065,-0.063,-0.061,-0.057999999999999996,-0.054000000000000006,-0.05,-0.046,-0.043,-0.039,-0.036000000000000004,-0.033,-0.03,-0.027999999999999997,-0.025,-0.021,-0.017,-0.013000000000000001,-0.009000000000000001,-0.006,-0.003,0.001,0.005,0.01,0.015,0.02,0.026000000000000002,0.033,0.042,0.051,0.06,0.07,0.081,0.091,0.1,0.109,0.11599999999999999,0.12300000000000001,0.128,0.133,0.13699999999999998,0.141,0.14300000000000002,0.146,0.146,0.147,0.147,0.147,0.147,0.14800000000000002,0.147,0.146,0.14300000000000002,0.14,0.135,0.129,0.12300000000000001,0.11800000000000001,0.11199999999999999,0.106,0.1,0.09300000000000001,0.086,0.08,0.073,0.066,0.059000000000000004,0.052000000000000005,0.044000000000000004,0.036000000000000004,0.028999999999999998,0.023,0.018000000000000002,0.012,0.006,0.001,-0.004,-0.009000000000000001,-0.013000000000000001,-0.018000000000000002,-0.022000000000000002,-0.027000000000000003,-0.031,-0.035,-0.038,-0.042,-0.045,-0.049,-0.051,-0.054000000000000006,-0.057,-0.059000000000000004,-0.061,-0.063,-0.063,-0.063,-0.063,-0.063,-0.062,-0.062,-0.06,-0.057999999999999996,-0.054000000000000006,-0.051,-0.049,-0.046,-0.044000000000000004,-0.043,-0.042,-0.04,-0.038,-0.036000000000000004,-0.034,-0.032,-0.031,-0.03,-0.03,-0.03,-0.032,-0.033,-0.034,-0.035,-0.036000000000000004,-0.037000000000000005,-0.038,-0.04,-0.040999999999999995,-0.042,-0.043,-0.044000000000000004,-0.046,-0.048,-0.048,-0.048,-0.049,-0.049,-0.05,-0.051,-0.051,-0.052000000000000005,-0.052000000000000005,-0.053,-0.054000000000000006,-0.055,-0.057,-0.059000000000000004,-0.061,-0.064,-0.066,-0.067,-0.068,-0.069,-0.069,-0.068,-0.065,-0.061,-0.053,-0.046,-0.035,-0.024,-0.006999999999999999,0.01,0.035,0.06,0.095,0.129,0.17600000000000002,0.223,0.28300000000000003,0.34299999999999997,0.41100000000000003,0.48,0.54,0.6,0.629,0.6579999999999999,0.642,0.626,0.568,0.509,0.428,0.34700000000000003,0.26899999999999996,0.191,0.131,0.071,0.032,-0.008,-0.031,-0.054000000000000006,-0.067,-0.079,-0.087,-0.095,-0.1,-0.105,-0.10800000000000001,-0.111,-0.113,-0.115,-0.11599999999999999,-0.11599999999999999,-0.11599999999999999,-0.11599999999999999,-0.11599999999999999,-0.11599999999999999,-0.11599999999999999,-0.11599999999999999,-0.115,-0.114,-0.114,-0.113,-0.114,-0.114,-0.114,-0.113,-0.11199999999999999,-0.11,-0.107,-0.10400000000000001,-0.102,-0.099,-0.096,-0.09300000000000001,-0.091,-0.08900000000000001,-0.087,-0.086,-0.085,-0.084,-0.08199999999999999,-0.08,-0.078,-0.076,-0.07400000000000001,-0.07200000000000001,-0.07,-0.069,-0.067,-0.064,-0.061,-0.057999999999999996,-0.054000000000000006,-0.05,-0.046,-0.042,-0.039,-0.036000000000000004,-0.034,-0.031,-0.027999999999999997,-0.024,-0.021,-0.017,-0.012,-0.006999999999999999,-0.001,0.005,0.011000000000000001,0.017,0.022000000000000002,0.027999999999999997,0.034,0.039,0.046,0.054000000000000006,0.062,0.07,0.079,0.087,0.095,0.10300000000000001,0.111,0.11900000000000001,0.124,0.13,0.134,0.13699999999999998,0.14,0.14300000000000002,0.14400000000000002,0.146,0.146,0.146,0.14400000000000002,0.142,0.14,0.13699999999999998,0.134,0.13,0.126,0.121,0.11599999999999999,0.111,0.105,0.099,0.09300000000000001,0.08800000000000001,0.081,0.07400000000000001,0.067,0.059000000000000004,0.051,0.043,0.035,0.027000000000000003,0.021,0.016,0.012,0.008,0.004,0.001,-0.003,-0.006999999999999999,-0.011000000000000001,-0.015,-0.019,-0.023,-0.027999999999999997,-0.032,-0.035,-0.039,-0.042,-0.045,-0.049,-0.052000000000000005,-0.054000000000000006,-0.055999999999999994,-0.055999999999999994,-0.055999999999999994,-0.055999999999999994,-0.055,-0.054000000000000006,-0.054000000000000006,-0.053,-0.052000000000000005,-0.051,-0.05,-0.049,-0.047,-0.045,-0.043,-0.042,-0.04,-0.038,-0.036000000000000004,-0.034,-0.031,-0.027999999999999997,-0.024,-0.021,-0.018000000000000002,-0.015,-0.013000000000000001,-0.012,-0.011000000000000001,-0.012,-0.013000000000000001,-0.017,-0.02,-0.024,-0.027000000000000003,-0.028999999999999998,-0.032,-0.034,-0.036000000000000004,-0.037000000000000005,-0.038,-0.039,-0.04,-0.040999999999999995,-0.042,-0.043,-0.043,-0.044000000000000004,-0.045,-0.046,-0.048,-0.048,-0.048,-0.049,-0.049,-0.05,-0.051,-0.052000000000000005,-0.053,-0.054000000000000006,-0.055,-0.055,-0.055,-0.054000000000000006,-0.054000000000000006,-0.051,-0.048,-0.040999999999999995,-0.033,-0.02,-0.006999999999999999,0.011000000000000001,0.03,0.052000000000000005,0.075,0.106,0.138,0.182,0.22699999999999998,0.285,0.344,0.409,0.474,0.526,0.578,0.597,0.616,0.594,0.5710000000000001,0.514,0.45799999999999996,0.38799999999999996,0.317,0.252,0.18600000000000003,0.135,0.083,0.046,0.01,-0.013999999999999999,-0.038,-0.051,-0.064,-0.07,-0.077,-0.08,-0.08199999999999999,-0.083,-0.084,-0.085,-0.086,-0.087,-0.08800000000000001,-0.09,-0.09300000000000001,-0.094,-0.095,-0.096,-0.096,-0.096,-0.096,-0.096,-0.095,-0.095,-0.094,-0.09300000000000001,-0.092,-0.08900000000000001,-0.087,-0.084,-0.08,-0.079,-0.077,-0.076,-0.075,-0.07400000000000001,-0.073,-0.071,-0.069,-0.068,-0.066,-0.066,-0.065,-0.064,-0.063,-0.062,-0.061,-0.06,-0.059000000000000004,-0.057,-0.054000000000000006,-0.051,-0.049,-0.045,-0.040999999999999995,-0.038,-0.035,-0.034,-0.032,-0.03,-0.028999999999999998,-0.027000000000000003,-0.025,-0.022000000000000002,-0.019,-0.013999999999999999,-0.009000000000000001,-0.004,0.002,0.006999999999999999,0.013000000000000001,0.019,0.025,0.032,0.039,0.047,0.055,0.064,0.073,0.08199999999999999,0.091,0.099,0.106,0.113,0.11900000000000001,0.124,0.13,0.135,0.139,0.141,0.14400000000000002,0.14400000000000002,0.145,0.14400000000000002,0.14400000000000002,0.142,0.14,0.13699999999999998,0.134,0.13,0.125,0.12,0.11599999999999999,0.11199999999999999,0.107,0.10300000000000001,0.1,0.096,0.092,0.087,0.08199999999999999,0.076,0.07,0.062,0.055,0.048,0.04,0.034,0.027999999999999997,0.024,0.019,0.016,0.013000000000000001,0.009000000000000001,0.006,0.002,-0.002,-0.005,-0.009000000000000001,-0.013000000000000001,-0.017,-0.021,-0.024,-0.027999999999999997,-0.031,-0.034,-0.036000000000000004,-0.037000000000000005,-0.039,-0.04,-0.040999999999999995,-0.043,-0.045,-0.046,-0.048,-0.048,-0.047,-0.045,-0.043,-0.042,-0.04,-0.038,-0.036000000000000004,-0.035,-0.033,-0.032,-0.031,-0.028999999999999998,-0.026000000000000002,-0.023,-0.02,-0.018000000000000002,-0.015,-0.013000000000000001,-0.011000000000000001,-0.011000000000000001,-0.011000000000000001,-0.011000000000000001,-0.012,-0.013999999999999999,-0.016,-0.018000000000000002,-0.019,-0.021,-0.023,-0.025,-0.027000000000000003,-0.028999999999999998,-0.032,-0.034,-0.036000000000000004,-0.036000000000000004,-0.037000000000000005,-0.037000000000000005,-0.037000000000000005,-0.037000000000000005,-0.037000000000000005,-0.038,-0.039,-0.042,-0.045,-0.049,-0.053,-0.057,-0.06,-0.061,-0.063,-0.062,-0.062,-0.06,-0.057999999999999996,-0.053,-0.048,-0.040999999999999995,-0.033,-0.024,-0.013999999999999999,-0.003,0.009000000000000001,0.024,0.039,0.061,0.084,0.11900000000000001,0.154,0.20600000000000002,0.259,0.32799999999999996,0.396,0.46299999999999997,0.529,0.5710000000000001,0.613,0.615,0.617,0.579,0.541,0.47700000000000004,0.413,0.34299999999999997,0.273,0.212,0.152,0.107,0.062,0.032,0.002,-0.018000000000000002,-0.038,-0.051,-0.063,-0.07,-0.077,-0.08199999999999999,-0.086,-0.08800000000000001,-0.09,-0.091,-0.092,-0.092,-0.09300000000000001,-0.094,-0.095,-0.096,-0.09699999999999999,-0.098,-0.098,-0.09699999999999999,-0.095,-0.092,-0.08900000000000001,-0.085,-0.08,-0.076,-0.07200000000000001,-0.07,-0.069,-0.069,-0.069,-0.07,-0.07,-0.07,-0.069,-0.068,-0.067,-0.066,-0.065,-0.064,-0.063,-0.062,-0.061,-0.06,-0.06,-0.059000000000000004,-0.059000000000000004,-0.059000000000000004,-0.057999999999999996,-0.057999999999999996,-0.057999999999999996,-0.057,-0.055,-0.052000000000000005,-0.05,-0.046,-0.043,-0.038,-0.034,-0.028999999999999998,-0.025,-0.021,-0.016,-0.011000000000000001,-0.005,0.0,0.005,0.009000000000000001,0.013000000000000001,0.017,0.021,0.026000000000000002,0.031,0.037000000000000005,0.043,0.051,0.057999999999999996,0.066,0.07400000000000001,0.08199999999999999,0.09,0.098,0.106,0.113,0.12,0.127,0.133,0.139,0.145,0.14800000000000002,0.151,0.152,0.153,0.152,0.152,0.14800000000000002,0.145,0.141,0.13699999999999998,0.133,0.129,0.126,0.122,0.11800000000000001,0.114,0.109,0.10400000000000001,0.09699999999999999,0.09,0.08199999999999999,0.07400000000000001,0.066,0.057,0.05,0.042,0.035,0.028999999999999998,0.025,0.02,0.017,0.013000000000000001,0.011000000000000001,0.01,0.008,0.006,0.004,0.001,-0.002,-0.005,-0.009000000000000001,-0.013000000000000001,-0.017,-0.02,-0.024,-0.027000000000000003,-0.028999999999999998,-0.031,-0.032,-0.033,-0.034,-0.034,-0.034,-0.033,-0.033,-0.033,-0.033,-0.032,-0.031,-0.03,-0.028999999999999998,-0.027999999999999997,-0.027999999999999997,-0.027000000000000003,-0.025,-0.024,-0.022000000000000002,-0.021,-0.018000000000000002,-0.015,-0.012,-0.009000000000000001,-0.006999999999999999,-0.006,-0.006,-0.006999999999999999,-0.01,-0.013000000000000001,-0.016,-0.019,-0.021,-0.024,-0.027000000000000003,-0.03,-0.032,-0.033,-0.034,-0.035,-0.035,-0.036000000000000004,-0.036000000000000004,-0.037000000000000005,-0.037000000000000005,-0.038,-0.038,-0.039,-0.039,-0.039,-0.04,-0.04,-0.040999999999999995,-0.042,-0.043,-0.044000000000000004,-0.046,-0.049,-0.05,-0.051,-0.051,-0.051,-0.049,-0.047,-0.043,-0.038,-0.032,-0.026000000000000002,-0.017,-0.006999999999999999,0.005,0.018000000000000002,0.035,0.053,0.079,0.10400000000000001,0.145,0.187,0.248,0.31,0.38299999999999995,0.455,0.517,0.579,0.609,0.638,0.624,0.609,0.556,0.503,0.43200000000000005,0.361,0.293,0.225,0.17,0.114,0.073,0.033,0.006,-0.021,-0.037000000000000005,-0.054000000000000006,-0.062,-0.071,-0.076,-0.081,-0.084,-0.087,-0.087,-0.08800000000000001,-0.08900000000000001,-0.09,-0.091,-0.092,-0.094,-0.096,-0.098,-0.099,-0.099,-0.098,-0.09699999999999999,-0.095,-0.092,-0.09,-0.087,-0.084,-0.083,-0.081,-0.08,-0.079,-0.077,-0.076,-0.07400000000000001,-0.073,-0.071,-0.069,-0.067,-0.065,-0.064,-0.063,-0.062,-0.062,-0.062,-0.063,-0.063,-0.063,-0.062,-0.062,-0.06,-0.059000000000000004,-0.057,-0.054000000000000006,-0.052000000000000005,-0.05,-0.047,-0.044000000000000004,-0.042,-0.039,-0.037000000000000005,N
6,-0.111,-0.113,-0.115,-0.11599999999999999,-0.11599999999999999,-0.11599999999999999,-0.11599999999999999,-0.11599999999999999,-0.11599999999999999,-0.11599999999999999,-0.11599999999999999,-0.115,-0.114,-0.114,-0.113,-0.114,-0.114,-0.114,-0.113,-0.11199999999999999,-0.11,-0.107,-0.10400000000000001,-0.102,-0.099,-0.096,-0.09300000000000001,-0.091,-0.08900000000000001,-0.087,-0.086,-0.085,-0.084,-0.08199999999999999,-0.08,-0.078,-0.076,-0.07400000000000001,-0.07200000000000001,-0.07,-0.069,-0.067,-0.064,-0.061,-0.057999999999999996,-0.054000000000000006,-0.05,-0.046,-0.042,-0.039,-0.036000000000000004,-0.034,-0.031,-0.027999999999999997,-0.024,-0.021,-0.017,-0.012,-0.006999999999999999,-0.001,0.005,0.011000000000000001,0.017,0.022000000000000002,0.027999999999999997,0.034,0.039,0.046,0.054000000000000006,0.062,0.07,0.079,0.087,0.095,0.10300000000000001,0.111,0.11900000000000001,0.124,0.13,0.134,0.13699999999999998,0.14,0.14300000000000002,0.14400000000000002,0.146,0.146,0.146,0.14400000000000002,0.142,0.14,0.13699999999999998,0.134,0.13,0.126,0.121,0.11599999999999999,0.111,0.105,0.099,0.09300000000000001,0.08800000000000001,0.081,0.07400000000000001,0.067,0.059000000000000004,0.051,0.043,0.035,0.027000000000000003,0.021,0.016,0.012,0.008,0.004,0.001,-0.003,-0.006999999999999999,-0.011000000000000001,-0.015,-0.019,-0.023,-0.027999999999999997,-0.032,-0.035,-0.039,-0.042,-0.045,-0.049,-0.052000000000000005,-0.054000000000000006,-0.055999999999999994,-0.055999999999999994,-0.055999999999999994,-0.055999999999999994,-0.055,-0.054000000000000006,-0.054000000000000006,-0.053,-0.052000000000000005,-0.051,-0.05,-0.049,-0.047,-0.045,-0.043,-0.042,-0.04,-0.038,-0.036000000000000004,-0.034,-0.031,-0.027999999999999997,-0.024,-0.021,-0.018000000000000002,-0.015,-0.013000000000000001,-0.012,-0.011000000000000001,-0.012,-0.013000000000000001,-0.017,-0.02,-0.024,-0.027000000000000003,-0.028999999999999998,-0.032,-0.034,-0.036000000000000004,-0.037000000000000005,-0.038,-0.039,-0.04,-0.040999999999999995,-0.042,-0.043,-0.043,-0.044000000000000004,-0.045,-0.046,-0.048,-0.048,-0.048,-0.049,-0.049,-0.05,-0.051,-0.052000000000000005,-0.053,-0.054000000000000006,-0.055,-0.055,-0.055,-0.054000000000000006,-0.054000000000000006,-0.051,-0.048,-0.040999999999999995,-0.033,-0.02,-0.006999999999999999,0.011000000000000001,0.03,0.052000000000000005,0.075,0.106,0.138,0.182,0.22699999999999998,0.285,0.344,0.409,0.474,0.526,0.578,0.597,0.616,0.594,0.5710000000000001,0.514,0.45799999999999996,0.38799999999999996,0.317,0.252,0.18600000000000003,0.135,0.083,0.046,0.01,-0.013999999999999999,-0.038,-0.051,-0.064,-0.07,-0.077,-0.08,-0.08199999999999999,-0.083,-0.084,-0.085,-0.086,-0.087,-0.08800000000000001,-0.09,-0.09300000000000001,-0.094,-0.095,-0.096,-0.096,-0.096,-0.096,-0.096,-0.095,-0.095,-0.094,-0.09300000000000001,-0.092,-0.08900000000000001,-0.087,-0.084,-0.08,-0.079,-0.077,-0.076,-0.075,-0.07400000000000001,-0.073,-0.071,-0.069,-0.068,-0.066,-0.066,-0.065,-0.064,-0.063,-0.062,-0.061,-0.06,-0.059000000000000004,-0.057,-0.054000000000000006,-0.051,-0.049,-0.045,-0.040999999999999995,-0.038,-0.035,-0.034,-0.032,-0.03,-0.028999999999999998,-0.027000000000000003,-0.025,-0.022000000000000002,-0.019,-0.013999999999999999,-0.009000000000000001,-0.004,0.002,0.006999999999999999,0.013000000000000001,0.019,0.025,0.032,0.039,0.047,0.055,0.064,0.073,0.08199999999999999,0.091,0.099,0.106,0.113,0.11900000000000001,0.124,0.13,0.135,0.139,0.141,0.14400000000000002,0.14400000000000002,0.145,0.14400000000000002,0.14400000000000002,0.142,0.14,0.13699999999999998,0.134,0.13,0.125,0.12,0.11599999999999999,0.11199999999999999,0.107,0.10300000000000001,0.1,0.096,0.092,0.087,0.08199999999999999,0.076,0.07,0.062,0.055,0.048,0.04,0.034,0.027999999999999997,0.024,0.019,0.016,0.013000000000000001,0.009000000000000001,0.006,0.002,-0.002,-0.005,-0.009000000000000001,-0.013000000000000001,-0.017,-0.021,-0.024,-0.027999999999999997,-0.031,-0.034,-0.036000000000000004,-0.037000000000000005,-0.039,-0.04,-0.040999999999999995,-0.043,-0.045,-0.046,-0.048,-0.048,-0.047,-0.045,-0.043,-0.042,-0.04,-0.038,-0.036000000000000004,-0.035,-0.033,-0.032,-0.031,-0.028999999999999998,-0.026000000000000002,-0.023,-0.02,-0.018000000000000002,-0.015,-0.013000000000000001,-0.011000000000000001,-0.011000000000000001,-0.011000000000000001,-0.011000000000000001,-0.012,-0.013999999999999999,-0.016,-0.018000000000000002,-0.019,-0.021,-0.023,-0.025,-0.027000000000000003,-0.028999999999999998,-0.032,-0.034,-0.036000000000000004,-0.036000000000000004,-0.037000000000000005,-0.037000000000000005,-0.037000000000000005,-0.037000000000000005,-0.037000000000000005,-0.038,-0.039,-0.042,-0.045,-0.049,-0.053,-0.057,-0.06,-0.061,-0.063,-0.062,-0.062,-0.06,-0.057999999999999996,-0.053,-0.048,-0.040999999999999995,-0.033,-0.024,-0.013999999999999999,-0.003,0.009000000000000001,0.024,0.039,0.061,0.084,0.11900000000000001,0.154,0.20600000000000002,0.259,0.32799999999999996,0.396,0.46299999999999997,0.529,0.5710000000000001,0.613,0.615,0.617,0.579,0.541,0.47700000000000004,0.413,0.34299999999999997,0.273,0.212,0.152,0.107,0.062,0.032,0.002,-0.018000000000000002,-0.038,-0.051,-0.063,-0.07,-0.077,-0.08199999999999999,-0.086,-0.08800000000000001,-0.09,-0.091,-0.092,-0.092,-0.09300000000000001,-0.094,-0.095,-0.096,-0.09699999999999999,-0.098,-0.098,-0.09699999999999999,-0.095,-0.092,-0.08900000000000001,-0.085,-0.08,-0.076,-0.07200000000000001,-0.07,-0.069,-0.069,-0.069,-0.07,-0.07,-0.07,-0.069,-0.068,-0.067,-0.066,-0.065,-0.064,-0.063,-0.062,-0.061,-0.06,-0.06,-0.059000000000000004,-0.059000000000000004,-0.059000000000000004,-0.057999999999999996,-0.057999999999999996,-0.057999999999999996,-0.057,-0.055,-0.052000000000000005,-0.05,-0.046,-0.043,-0.038,-0.034,-0.028999999999999998,-0.025,-0.021,-0.016,-0.011000000000000001,-0.005,0.0,0.005,0.009000000000000001,0.013000000000000001,0.017,0.021,0.026000000000000002,0.031,0.037000000000000005,0.043,0.051,0.057999999999999996,0.066,0.07400000000000001,0.08199999999999999,0.09,0.098,0.106,0.113,0.12,0.127,0.133,0.139,0.145,0.14800000000000002,0.151,0.152,0.153,0.152,0.152,0.14800000000000002,0.145,0.141,0.13699999999999998,0.133,0.129,0.126,0.122,0.11800000000000001,0.114,0.109,0.10400000000000001,0.09699999999999999,0.09,0.08199999999999999,0.07400000000000001,0.066,0.057,0.05,0.042,0.035,0.028999999999999998,0.025,0.02,0.017,0.013000000000000001,0.011000000000000001,0.01,0.008,0.006,0.004,0.001,-0.002,-0.005,-0.009000000000000001,-0.013000000000000001,-0.017,-0.02,-0.024,-0.027000000000000003,-0.028999999999999998,-0.031,-0.032,-0.033,-0.034,-0.034,-0.034,-0.033,-0.033,-0.033,-0.033,-0.032,-0.031,-0.03,-0.028999999999999998,-0.027999999999999997,-0.027999999999999997,-0.027000000000000003,-0.025,-0.024,-0.022000000000000002,-0.021,-0.018000000000000002,-0.015,-0.012,-0.009000000000000001,-0.006999999999999999,-0.006,-0.006,-0.006999999999999999,-0.01,-0.013000000000000001,-0.016,-0.019,-0.021,-0.024,-0.027000000000000003,-0.03,-0.032,-0.033,-0.034,-0.035,-0.035,-0.036000000000000004,-0.036000000000000004,-0.037000000000000005,-0.037000000000000005,-0.038,-0.038,-0.039,-0.039,-0.039,-0.04,-0.04,-0.040999999999999995,-0.042,-0.043,-0.044000000000000004,-0.046,-0.049,-0.05,-0.051,-0.051,-0.051,-0.049,-0.047,-0.043,-0.038,-0.032,-0.026000000000000002,-0.017,-0.006999999999999999,0.005,0.018000000000000002,0.035,0.053,0.079,0.10400000000000001,0.145,0.187,0.248,0.31,0.38299999999999995,0.455,0.517,0.579,0.609,0.638,0.624,0.609,0.556,0.503,0.43200000000000005,0.361,0.293,0.225,0.17,0.114,0.073,0.033,0.006,-0.021,-0.037000000000000005,-0.054000000000000006,-0.062,-0.071,-0.076,-0.081,-0.084,-0.087,-0.087,-0.08800000000000001,-0.08900000000000001,-0.09,-0.091,-0.092,-0.094,-0.096,-0.098,-0.099,-0.099,-0.098,-0.09699999999999999,-0.095,-0.092,-0.09,-0.087,-0.084,-0.083,-0.081,-0.08,-0.079,-0.077,-0.076,-0.07400000000000001,-0.073,-0.071,-0.069,-0.067,-0.065,-0.064,-0.063,-0.062,-0.062,-0.062,-0.063,-0.063,-0.063,-0.062,-0.062,-0.06,-0.059000000000000004,-0.057,-0.054000000000000006,-0.052000000000000005,-0.05,-0.047,-0.044000000000000004,-0.042,-0.039,-0.037000000000000005,-0.036000000000000004,-0.034,-0.032,-0.027999999999999997,-0.024,-0.018000000000000002,-0.012,-0.005,0.002,0.008,0.013999999999999999,0.019,0.025,0.032,0.039,0.046,0.053,0.06,0.067,0.07400000000000001,0.081,0.08800000000000001,0.095,0.102,0.109,0.11699999999999999,0.124,0.131,0.13699999999999998,0.142,0.14800000000000002,0.15,0.153,0.153,0.154,0.152,0.151,0.14800000000000002,0.146,0.142,0.139,0.134,0.129,0.12300000000000001,0.11699999999999999,0.111,0.10400000000000001,0.098,0.092,0.086,0.08,0.073,0.067,0.061,0.055999999999999994,0.051,0.045,0.04,0.034,0.028999999999999998,0.024,0.02,0.016,0.013000000000000001,0.009000000000000001,0.005,0.001,-0.004,-0.009000000000000001,-0.013000000000000001,-0.017,-0.02,-0.023,-0.025,-0.027000000000000003,-0.028999999999999998,-0.03,-0.03,-0.03,-0.03,-0.031,-0.033,-0.034,-0.036000000000000004,-0.038,-0.039,-0.04,-0.04,-0.04,-0.038,-0.036000000000000004,-0.034,-0.032,-0.031,-0.03,-0.028999999999999998,-0.027999999999999997,-0.026000000000000002,-0.025,-0.021,-0.018000000000000002,-0.015,-0.012,-0.011000000000000001,-0.009000000000000001,-0.009000000000000001,-0.01,-0.011000000000000001,-0.012,-0.013999999999999999,-0.016,-0.018000000000000002,-0.019,-0.021,-0.024,-0.027000000000000003,-0.03,-0.032,-0.034,-0.036000000000000004,-0.038,-0.039,-0.04,-0.040999999999999995,-0.040999999999999995,-0.040999999999999995,-0.04,-0.04,-0.04,-0.040999999999999995,-0.040999999999999995,-0.043,-0.045,-0.049,-0.052000000000000005,-0.054000000000000006,-0.057,-0.057999999999999996,-0.059000000000000004,-0.059000000000000004,-0.059000000000000004,-0.057999999999999996,-0.055999999999999994,-0.051,-0.045,-0.035,-0.026000000000000002,-0.015,-0.004,0.011000000000000001,0.025,0.046,0.068,0.10099999999999999,0.134,0.18600000000000003,0.23800000000000002,0.307,0.376,0.447,0.518,0.569,0.62,0.63,0.6409999999999999,0.608,0.575,0.51,0.445,0.37200000000000005,0.299,0.235,0.172,0.12300000000000001,0.075,0.04,0.005,-0.018000000000000002,-0.042,-0.055999999999999994,-0.07,-0.079,-0.087,-0.092,-0.098,-0.10099999999999999,-0.10300000000000001,-0.10300000000000001,-0.10300000000000001,-0.102,-0.102,-0.10099999999999999,-0.1,-0.1,-0.099,-0.099,-0.099,-0.099,-0.099,-0.099,-0.099,-0.099,-0.098,-0.09699999999999999,-0.096,-0.095,-0.094,-0.092,-0.091,-0.08900000000000001,-0.087,-0.086,-0.084,-0.08199999999999999,-0.079,-0.076,-0.07400000000000001,-0.073,-0.07200000000000001,-0.071,-0.07,-0.069,-0.068,-0.068,-0.067,-0.067,-0.066,-0.066,-0.065,-0.064,-0.063,-0.062,-0.061,-0.06,-0.059000000000000004,-0.057,N
7,-0.084,-0.085,-0.086,-0.087,-0.08800000000000001,-0.09,-0.09300000000000001,-0.094,-0.095,-0.096,-0.096,-0.096,-0.096,-0.096,-0.095,-0.095,-0.094,-0.09300000000000001,-0.092,-0.08900000000000001,-0.087,-0.084,-0.08,-0.079,-0.077,-0.076,-0.075,-0.07400000000000001,-0.073,-0.071,-0.069,-0.068,-0.066,-0.066,-0.065,-0.064,-0.063,-0.062,-0.061,-0.06,-0.059000000000000004,-0.057,-0.054000000000000006,-0.051,-0.049,-0.045,-0.040999999999999995,-0.038,-0.035,-0.034,-0.032,-0.03,-0.028999999999999998,-0.027000000000000003,-0.025,-0.022000000000000002,-0.019,-0.013999999999999999,-0.009000000000000001,-0.004,0.002,0.006999999999999999,0.013000000000000001,0.019,0.025,0.032,0.039,0.047,0.055,0.064,0.073,0.08199999999999999,0.091,0.099,0.106,0.113,0.11900000000000001,0.124,0.13,0.135,0.139,0.141,0.14400000000000002,0.14400000000000002,0.145,0.14400000000000002,0.14400000000000002,0.142,0.14,0.13699999999999998,0.134,0.13,0.125,0.12,0.11599999999999999,0.11199999999999999,0.107,0.10300000000000001,0.1,0.096,0.092,0.087,0.08199999999999999,0.076,0.07,0.062,0.055,0.048,0.04,0.034,0.027999999999999997,0.024,0.019,0.016,0.013000000000000001,0.009000000000000001,0.006,0.002,-0.002,-0.005,-0.009000000000000001,-0.013000000000000001,-0.017,-0.021,-0.024,-0.027999999999999997,-0.031,-0.034,-0.036000000000000004,-0.037000000000000005,-0.039,-0.04,-0.040999999999999995,-0.043,-0.045,-0.046,-0.048,-0.048,-0.047,-0.045,-0.043,-0.042,-0.04,-0.038,-0.036000000000000004,-0.035,-0.033,-0.032,-0.031,-0.028999999999999998,-0.026000000000000002,-0.023,-0.02,-0.018000000000000002,-0.015,-0.013000000000000001,-0.011000000000000001,-0.011000000000000001,-0.011000000000000001,-0.011000000000000001,-0.012,-0.013999999999999999,-0.016,-0.018000000000000002,-0.019,-0.021,-0.023,-0.025,-0.027000000000000003,-0.028999999999999998,-0.032,-0.034,-0.036000000000000004,-0.036000000000000004,-0.037000000000000005,-0.037000000000000005,-0.037000000000000005,-0.037000000000000005,-0.037000000000000005,-0.038,-0.039,-0.042,-0.045,-0.049,-0.053,-0.057,-0.06,-0.061,-0.063,-0.062,-0.062,-0.06,-0.057999999999999996,-0.053,-0.048,-0.040999999999999995,-0.033,-0.024,-0.013999999999999999,-0.003,0.009000000000000001,0.024,0.039,0.061,0.084,0.11900000000000001,0.154,0.20600000000000002,0.259,0.32799999999999996,0.396,0.46299999999999997,0.529,0.5710000000000001,0.613,0.615,0.617,0.579,0.541,0.47700000000000004,0.413,0.34299999999999997,0.273,0.212,0.152,0.107,0.062,0.032,0.002,-0.018000000000000002,-0.038,-0.051,-0.063,-0.07,-0.077,-0.08199999999999999,-0.086,-0.08800000000000001,-0.09,-0.091,-0.092,-0.092,-0.09300000000000001,-0.094,-0.095,-0.096,-0.09699999999999999,-0.098,-0.098,-0.09699999999999999,-0.095,-0.092,-0.08900000000000001,-0.085,-0.08,-0.076,-0.07200000000000001,-0.07,-0.069,-0.069,-0.069,-0.07,-0.07,-0.07,-0.069,-0.068,-0.067,-0.066,-0.065,-0.064,-0.063,-0.062,-0.061,-0.06,-0.06,-0.059000000000000004,-0.059000000000000004,-0.059000000000000004,-0.057999999999999996,-0.057999999999999996,-0.057999999999999996,-0.057,-0.055,-0.052000000000000005,-0.05,-0.046,-0.043,-0.038,-0.034,-0.028999999999999998,-0.025,-0.021,-0.016,-0.011000000000000001,-0.005,0.0,0.005,0.009000000000000001,0.013000000000000001,0.017,0.021,0.026000000000000002,0.031,0.037000000000000005,0.043,0.051,0.057999999999999996,0.066,0.07400000000000001,0.08199999999999999,0.09,0.098,0.106,0.113,0.12,0.127,0.133,0.139,0.145,0.14800000000000002,0.151,0.152,0.153,0.152,0.152,0.14800000000000002,0.145,0.141,0.13699999999999998,0.133,0.129,0.126,0.122,0.11800000000000001,0.114,0.109,0.10400000000000001,0.09699999999999999,0.09,0.08199999999999999,0.07400000000000001,0.066,0.057,0.05,0.042,0.035,0.028999999999999998,0.025,0.02,0.017,0.013000000000000001,0.011000000000000001,0.01,0.008,0.006,0.004,0.001,-0.002,-0.005,-0.009000000000000001,-0.013000000000000001,-0.017,-0.02,-0.024,-0.027000000000000003,-0.028999999999999998,-0.031,-0.032,-0.033,-0.034,-0.034,-0.034,-0.033,-0.033,-0.033,-0.033,-0.032,-0.031,-0.03,-0.028999999999999998,-0.027999999999999997,-0.027999999999999997,-0.027000000000000003,-0.025,-0.024,-0.022000000000000002,-0.021,-0.018000000000000002,-0.015,-0.012,-0.009000000000000001,-0.006999999999999999,-0.006,-0.006,-0.006999999999999999,-0.01,-0.013000000000000001,-0.016,-0.019,-0.021,-0.024,-0.027000000000000003,-0.03,-0.032,-0.033,-0.034,-0.035,-0.035,-0.036000000000000004,-0.036000000000000004,-0.037000000000000005,-0.037000000000000005,-0.038,-0.038,-0.039,-0.039,-0.039,-0.04,-0.04,-0.040999999999999995,-0.042,-0.043,-0.044000000000000004,-0.046,-0.049,-0.05,-0.051,-0.051,-0.051,-0.049,-0.047,-0.043,-0.038,-0.032,-0.026000000000000002,-0.017,-0.006999999999999999,0.005,0.018000000000000002,0.035,0.053,0.079,0.10400000000000001,0.145,0.187,0.248,0.31,0.38299999999999995,0.455,0.517,0.579,0.609,0.638,0.624,0.609,0.556,0.503,0.43200000000000005,0.361,0.293,0.225,0.17,0.114,0.073,0.033,0.006,-0.021,-0.037000000000000005,-0.054000000000000006,-0.062,-0.071,-0.076,-0.081,-0.084,-0.087,-0.087,-0.08800000000000001,-0.08900000000000001,-0.09,-0.091,-0.092,-0.094,-0.096,-0.098,-0.099,-0.099,-0.098,-0.09699999999999999,-0.095,-0.092,-0.09,-0.087,-0.084,-0.083,-0.081,-0.08,-0.079,-0.077,-0.076,-0.07400000000000001,-0.073,-0.071,-0.069,-0.067,-0.065,-0.064,-0.063,-0.062,-0.062,-0.062,-0.063,-0.063,-0.063,-0.062,-0.062,-0.06,-0.059000000000000004,-0.057,-0.054000000000000006,-0.052000000000000005,-0.05,-0.047,-0.044000000000000004,-0.042,-0.039,-0.037000000000000005,-0.036000000000000004,-0.034,-0.032,-0.027999999999999997,-0.024,-0.018000000000000002,-0.012,-0.005,0.002,0.008,0.013999999999999999,0.019,0.025,0.032,0.039,0.046,0.053,0.06,0.067,0.07400000000000001,0.081,0.08800000000000001,0.095,0.102,0.109,0.11699999999999999,0.124,0.131,0.13699999999999998,0.142,0.14800000000000002,0.15,0.153,0.153,0.154,0.152,0.151,0.14800000000000002,0.146,0.142,0.139,0.134,0.129,0.12300000000000001,0.11699999999999999,0.111,0.10400000000000001,0.098,0.092,0.086,0.08,0.073,0.067,0.061,0.055999999999999994,0.051,0.045,0.04,0.034,0.028999999999999998,0.024,0.02,0.016,0.013000000000000001,0.009000000000000001,0.005,0.001,-0.004,-0.009000000000000001,-0.013000000000000001,-0.017,-0.02,-0.023,-0.025,-0.027000000000000003,-0.028999999999999998,-0.03,-0.03,-0.03,-0.03,-0.031,-0.033,-0.034,-0.036000000000000004,-0.038,-0.039,-0.04,-0.04,-0.04,-0.038,-0.036000000000000004,-0.034,-0.032,-0.031,-0.03,-0.028999999999999998,-0.027999999999999997,-0.026000000000000002,-0.025,-0.021,-0.018000000000000002,-0.015,-0.012,-0.011000000000000001,-0.009000000000000001,-0.009000000000000001,-0.01,-0.011000000000000001,-0.012,-0.013999999999999999,-0.016,-0.018000000000000002,-0.019,-0.021,-0.024,-0.027000000000000003,-0.03,-0.032,-0.034,-0.036000000000000004,-0.038,-0.039,-0.04,-0.040999999999999995,-0.040999999999999995,-0.040999999999999995,-0.04,-0.04,-0.04,-0.040999999999999995,-0.040999999999999995,-0.043,-0.045,-0.049,-0.052000000000000005,-0.054000000000000006,-0.057,-0.057999999999999996,-0.059000000000000004,-0.059000000000000004,-0.059000000000000004,-0.057999999999999996,-0.055999999999999994,-0.051,-0.045,-0.035,-0.026000000000000002,-0.015,-0.004,0.011000000000000001,0.025,0.046,0.068,0.10099999999999999,0.134,0.18600000000000003,0.23800000000000002,0.307,0.376,0.447,0.518,0.569,0.62,0.63,0.6409999999999999,0.608,0.575,0.51,0.445,0.37200000000000005,0.299,0.235,0.172,0.12300000000000001,0.075,0.04,0.005,-0.018000000000000002,-0.042,-0.055999999999999994,-0.07,-0.079,-0.087,-0.092,-0.098,-0.10099999999999999,-0.10300000000000001,-0.10300000000000001,-0.10300000000000001,-0.102,-0.102,-0.10099999999999999,-0.1,-0.1,-0.099,-0.099,-0.099,-0.099,-0.099,-0.099,-0.099,-0.099,-0.098,-0.09699999999999999,-0.096,-0.095,-0.094,-0.092,-0.091,-0.08900000000000001,-0.087,-0.086,-0.084,-0.08199999999999999,-0.079,-0.076,-0.07400000000000001,-0.073,-0.07200000000000001,-0.071,-0.07,-0.069,-0.068,-0.068,-0.067,-0.067,-0.066,-0.066,-0.065,-0.064,-0.063,-0.062,-0.061,-0.06,-0.059000000000000004,-0.057,-0.054000000000000006,-0.051,-0.049,-0.044000000000000004,-0.039,-0.033,-0.027000000000000003,-0.021,-0.015,-0.009000000000000001,-0.002,0.004,0.01,0.015,0.021,0.026000000000000002,0.032,0.039,0.046,0.054000000000000006,0.063,0.071,0.079,0.087,0.095,0.102,0.10800000000000001,0.114,0.12,0.124,0.129,0.133,0.136,0.138,0.139,0.139,0.139,0.139,0.138,0.136,0.134,0.13,0.126,0.122,0.11800000000000001,0.113,0.107,0.10099999999999999,0.095,0.08800000000000001,0.081,0.073,0.066,0.059000000000000004,0.051,0.043,0.036000000000000004,0.03,0.024,0.021,0.017,0.015,0.012,0.009000000000000001,0.005,0.001,-0.003,-0.008,-0.013000000000000001,-0.018000000000000002,-0.024,-0.027999999999999997,-0.031,-0.033,-0.035,-0.038,-0.040999999999999995,-0.044000000000000004,-0.047,-0.05,-0.052000000000000005,-0.054000000000000006,-0.057,-0.057999999999999996,-0.057999999999999996,-0.057,-0.055,-0.053,-0.051,-0.049,-0.047,-0.045,-0.043,-0.042,-0.040999999999999995,-0.04,-0.039,-0.038,-0.037000000000000005,-0.036000000000000004,-0.036000000000000004,-0.035,-0.034,-0.034,-0.033,-0.034,-0.034,-0.035,-0.037000000000000005,-0.038,-0.04,-0.040999999999999995,-0.040999999999999995,-0.040999999999999995,-0.04,-0.040999999999999995,-0.040999999999999995,-0.043,-0.044000000000000004,-0.046,-0.048,-0.049,-0.049,-0.05,-0.051,-0.052000000000000005,-0.053,-0.054000000000000006,-0.055,-0.055999999999999994,-0.055999999999999994,-0.057999999999999996,-0.06,-0.061,-0.062,-0.062,-0.063,-0.062,-0.062,-0.06,-0.059000000000000004,-0.055999999999999994,-0.053,-0.05,-0.046,-0.040999999999999995,-0.035,-0.027999999999999997,-0.02,-0.009000000000000001,0.002,0.019,0.036000000000000004,0.062,0.08900000000000001,0.133,0.17600000000000002,0.237,0.298,0.368,0.439,0.49700000000000005,0.555,0.581,0.606,0.588,0.57,0.516,0.462,0.392,0.321,0.255,0.18899999999999997,0.136,0.08199999999999999,0.044000000000000004,0.006,-0.018000000000000002,-0.042,-0.055999999999999994,-0.069,-0.076,-0.083,-0.087,-0.091,-0.09300000000000001,-0.095,-0.096,-0.09699999999999999,-0.098,-0.099,-0.1,-0.1,-0.102,-0.10300000000000001,-0.10400000000000001,-0.106,-0.106,-0.106,-0.10400000000000001,-0.10300000000000001,-0.102,-0.1,-0.098,-0.096,-0.09300000000000001,-0.091,-0.08900000000000001,-0.087,-0.086,-0.084,-0.083,-0.081,-0.081,-0.08,-0.081,-0.081,-0.081,-0.08,-0.078,-0.076,-0.07200000000000001,-0.068,-0.065,-0.062,-0.059000000000000004,-0.057,-0.055999999999999994,-0.055,-0.055,-0.055,-0.055,-0.055,-0.054000000000000006,-0.054000000000000006,-0.052000000000000005,-0.05,-0.046,N
8,-0.086,-0.08800000000000001,-0.09,-0.091,-0.092,-0.092,-0.09300000000000001,-0.094,-0.095,-0.096,-0.09699999999999999,-0.098,-0.098,-0.09699999999999999,-0.095,-0.092,-0.08900000000000001,-0.085,-0.08,-0.076,-0.07200000000000001,-0.07,-0.069,-0.069,-0.069,-0.07,-0.07,-0.07,-0.069,-0.068,-0.067,-0.066,-0.065,-0.064,-0.063,-0.062,-0.061,-0.06,-0.06,-0.059000000000000004,-0.059000000000000004,-0.059000000000000004,-0.057999999999999996,-0.057999999999999996,-0.057999999999999996,-0.057,-0.055,-0.052000000000000005,-0.05,-0.046,-0.043,-0.038,-0.034,-0.028999999999999998,-0.025,-0.021,-0.016,-0.011000000000000001,-0.005,0.0,0.005,0.009000000000000001,0.013000000000000001,0.017,0.021,0.026000000000000002,0.031,0.037000000000000005,0.043,0.051,0.057999999999999996,0.066,0.07400000000000001,0.08199999999999999,0.09,0.098,0.106,0.113,0.12,0.127,0.133,0.139,0.145,0.14800000000000002,0.151,0.152,0.153,0.152,0.152,0.14800000000000002,0.145,0.141,0.13699999999999998,0.133,0.129,0.126,0.122,0.11800000000000001,0.114,0.109,0.10400000000000001,0.09699999999999999,0.09,0.08199999999999999,0.07400000000000001,0.066,0.057,0.05,0.042,0.035,0.028999999999999998,0.025,0.02,0.017,0.013000000000000001,0.011000000000000001,0.01,0.008,0.006,0.004,0.001,-0.002,-0.005,-0.009000000000000001,-0.013000000000000001,-0.017,-0.02,-0.024,-0.027000000000000003,-0.028999999999999998,-0.031,-0.032,-0.033,-0.034,-0.034,-0.034,-0.033,-0.033,-0.033,-0.033,-0.032,-0.031,-0.03,-0.028999999999999998,-0.027999999999999997,-0.027999999999999997,-0.027000000000000003,-0.025,-0.024,-0.022000000000000002,-0.021,-0.018000000000000002,-0.015,-0.012,-0.009000000000000001,-0.006999999999999999,-0.006,-0.006,-0.006999999999999999,-0.01,-0.013000000000000001,-0.016,-0.019,-0.021,-0.024,-0.027000000000000003,-0.03,-0.032,-0.033,-0.034,-0.035,-0.035,-0.036000000000000004,-0.036000000000000004,-0.037000000000000005,-0.037000000000000005,-0.038,-0.038,-0.039,-0.039,-0.039,-0.04,-0.04,-0.040999999999999995,-0.042,-0.043,-0.044000000000000004,-0.046,-0.049,-0.05,-0.051,-0.051,-0.051,-0.049,-0.047,-0.043,-0.038,-0.032,-0.026000000000000002,-0.017,-0.006999999999999999,0.005,0.018000000000000002,0.035,0.053,0.079,0.10400000000000001,0.145,0.187,0.248,0.31,0.38299999999999995,0.455,0.517,0.579,0.609,0.638,0.624,0.609,0.556,0.503,0.43200000000000005,0.361,0.293,0.225,0.17,0.114,0.073,0.033,0.006,-0.021,-0.037000000000000005,-0.054000000000000006,-0.062,-0.071,-0.076,-0.081,-0.084,-0.087,-0.087,-0.08800000000000001,-0.08900000000000001,-0.09,-0.091,-0.092,-0.094,-0.096,-0.098,-0.099,-0.099,-0.098,-0.09699999999999999,-0.095,-0.092,-0.09,-0.087,-0.084,-0.083,-0.081,-0.08,-0.079,-0.077,-0.076,-0.07400000000000001,-0.073,-0.071,-0.069,-0.067,-0.065,-0.064,-0.063,-0.062,-0.062,-0.062,-0.063,-0.063,-0.063,-0.062,-0.062,-0.06,-0.059000000000000004,-0.057,-0.054000000000000006,-0.052000000000000005,-0.05,-0.047,-0.044000000000000004,-0.042,-0.039,-0.037000000000000005,-0.036000000000000004,-0.034,-0.032,-0.027999999999999997,-0.024,-0.018000000000000002,-0.012,-0.005,0.002,0.008,0.013999999999999999,0.019,0.025,0.032,0.039,0.046,0.053,0.06,0.067,0.07400000000000001,0.081,0.08800000000000001,0.095,0.102,0.109,0.11699999999999999,0.124,0.131,0.13699999999999998,0.142,0.14800000000000002,0.15,0.153,0.153,0.154,0.152,0.151,0.14800000000000002,0.146,0.142,0.139,0.134,0.129,0.12300000000000001,0.11699999999999999,0.111,0.10400000000000001,0.098,0.092,0.086,0.08,0.073,0.067,0.061,0.055999999999999994,0.051,0.045,0.04,0.034,0.028999999999999998,0.024,0.02,0.016,0.013000000000000001,0.009000000000000001,0.005,0.001,-0.004,-0.009000000000000001,-0.013000000000000001,-0.017,-0.02,-0.023,-0.025,-0.027000000000000003,-0.028999999999999998,-0.03,-0.03,-0.03,-0.03,-0.031,-0.033,-0.034,-0.036000000000000004,-0.038,-0.039,-0.04,-0.04,-0.04,-0.038,-0.036000000000000004,-0.034,-0.032,-0.031,-0.03,-0.028999999999999998,-0.027999999999999997,-0.026000000000000002,-0.025,-0.021,-0.018000000000000002,-0.015,-0.012,-0.011000000000000001,-0.009000000000000001,-0.009000000000000001,-0.01,-0.011000000000000001,-0.012,-0.013999999999999999,-0.016,-0.018000000000000002,-0.019,-0.021,-0.024,-0.027000000000000003,-0.03,-0.032,-0.034,-0.036000000000000004,-0.038,-0.039,-0.04,-0.040999999999999995,-0.040999999999999995,-0.040999999999999995,-0.04,-0.04,-0.04,-0.040999999999999995,-0.040999999999999995,-0.043,-0.045,-0.049,-0.052000000000000005,-0.054000000000000006,-0.057,-0.057999999999999996,-0.059000000000000004,-0.059000000000000004,-0.059000000000000004,-0.057999999999999996,-0.055999999999999994,-0.051,-0.045,-0.035,-0.026000000000000002,-0.015,-0.004,0.011000000000000001,0.025,0.046,0.068,0.10099999999999999,0.134,0.18600000000000003,0.23800000000000002,0.307,0.376,0.447,0.518,0.569,0.62,0.63,0.6409999999999999,0.608,0.575,0.51,0.445,0.37200000000000005,0.299,0.235,0.172,0.12300000000000001,0.075,0.04,0.005,-0.018000000000000002,-0.042,-0.055999999999999994,-0.07,-0.079,-0.087,-0.092,-0.098,-0.10099999999999999,-0.10300000000000001,-0.10300000000000001,-0.10300000000000001,-0.102,-0.102,-0.10099999999999999,-0.1,-0.1,-0.099,-0.099,-0.099,-0.099,-0.099,-0.099,-0.099,-0.099,-0.098,-0.09699999999999999,-0.096,-0.095,-0.094,-0.092,-0.091,-0.08900000000000001,-0.087,-0.086,-0.084,-0.08199999999999999,-0.079,-0.076,-0.07400000000000001,-0.073,-0.07200000000000001,-0.071,-0.07,-0.069,-0.068,-0.068,-0.067,-0.067,-0.066,-0.066,-0.065,-0.064,-0.063,-0.062,-0.061,-0.06,-0.059000000000000004,-0.057,-0.054000000000000006,-0.051,-0.049,-0.044000000000000004,-0.039,-0.033,-0.027000000000000003,-0.021,-0.015,-0.009000000000000001,-0.002,0.004,0.01,0.015,0.021,0.026000000000000002,0.032,0.039,0.046,0.054000000000000006,0.063,0.071,0.079,0.087,0.095,0.102,0.10800000000000001,0.114,0.12,0.124,0.129,0.133,0.136,0.138,0.139,0.139,0.139,0.139,0.138,0.136,0.134,0.13,0.126,0.122,0.11800000000000001,0.113,0.107,0.10099999999999999,0.095,0.08800000000000001,0.081,0.073,0.066,0.059000000000000004,0.051,0.043,0.036000000000000004,0.03,0.024,0.021,0.017,0.015,0.012,0.009000000000000001,0.005,0.001,-0.003,-0.008,-0.013000000000000001,-0.018000000000000002,-0.024,-0.027999999999999997,-0.031,-0.033,-0.035,-0.038,-0.040999999999999995,-0.044000000000000004,-0.047,-0.05,-0.052000000000000005,-0.054000000000000006,-0.057,-0.057999999999999996,-0.057999999999999996,-0.057,-0.055,-0.053,-0.051,-0.049,-0.047,-0.045,-0.043,-0.042,-0.040999999999999995,-0.04,-0.039,-0.038,-0.037000000000000005,-0.036000000000000004,-0.036000000000000004,-0.035,-0.034,-0.034,-0.033,-0.034,-0.034,-0.035,-0.037000000000000005,-0.038,-0.04,-0.040999999999999995,-0.040999999999999995,-0.040999999999999995,-0.04,-0.040999999999999995,-0.040999999999999995,-0.043,-0.044000000000000004,-0.046,-0.048,-0.049,-0.049,-0.05,-0.051,-0.052000000000000005,-0.053,-0.054000000000000006,-0.055,-0.055999999999999994,-0.055999999999999994,-0.057999999999999996,-0.06,-0.061,-0.062,-0.062,-0.063,-0.062,-0.062,-0.06,-0.059000000000000004,-0.055999999999999994,-0.053,-0.05,-0.046,-0.040999999999999995,-0.035,-0.027999999999999997,-0.02,-0.009000000000000001,0.002,0.019,0.036000000000000004,0.062,0.08900000000000001,0.133,0.17600000000000002,0.237,0.298,0.368,0.439,0.49700000000000005,0.555,0.581,0.606,0.588,0.57,0.516,0.462,0.392,0.321,0.255,0.18899999999999997,0.136,0.08199999999999999,0.044000000000000004,0.006,-0.018000000000000002,-0.042,-0.055999999999999994,-0.069,-0.076,-0.083,-0.087,-0.091,-0.09300000000000001,-0.095,-0.096,-0.09699999999999999,-0.098,-0.099,-0.1,-0.1,-0.102,-0.10300000000000001,-0.10400000000000001,-0.106,-0.106,-0.106,-0.10400000000000001,-0.10300000000000001,-0.102,-0.1,-0.098,-0.096,-0.09300000000000001,-0.091,-0.08900000000000001,-0.087,-0.086,-0.084,-0.083,-0.081,-0.081,-0.08,-0.081,-0.081,-0.081,-0.08,-0.078,-0.076,-0.07200000000000001,-0.068,-0.065,-0.062,-0.059000000000000004,-0.057,-0.055999999999999994,-0.055,-0.055,-0.055,-0.055,-0.055,-0.054000000000000006,-0.054000000000000006,-0.052000000000000005,-0.05,-0.046,-0.042,-0.036000000000000004,-0.031,-0.025,-0.02,-0.015,-0.009000000000000001,-0.004,0.002,0.006999999999999999,0.013000000000000001,0.019,0.025,0.032,0.039,0.046,0.054000000000000006,0.061,0.069,0.076,0.084,0.091,0.098,0.106,0.114,0.121,0.129,0.136,0.142,0.146,0.15,0.152,0.154,0.154,0.154,0.152,0.151,0.147,0.14400000000000002,0.139,0.133,0.128,0.12300000000000001,0.11800000000000001,0.113,0.109,0.105,0.1,0.095,0.08900000000000001,0.084,0.076,0.069,0.06,0.052000000000000005,0.044000000000000004,0.037000000000000005,0.032,0.026000000000000002,0.021,0.015,0.01,0.005,0.001,-0.003,-0.006999999999999999,-0.011000000000000001,-0.013999999999999999,-0.017,-0.018000000000000002,-0.02,-0.021,-0.023,-0.025,-0.026000000000000002,-0.028999999999999998,-0.032,-0.035,-0.038,-0.040999999999999995,-0.044000000000000004,-0.046,-0.048,-0.048,-0.048,-0.048,-0.047,-0.045,-0.043,-0.042,-0.040999999999999995,-0.04,-0.039,-0.037000000000000005,-0.036000000000000004,-0.034,-0.032,-0.028999999999999998,-0.025,-0.021,-0.017,-0.013999999999999999,-0.011000000000000001,-0.011000000000000001,-0.011000000000000001,-0.013000000000000001,-0.016,-0.02,-0.024,-0.026000000000000002,-0.028999999999999998,-0.028999999999999998,-0.03,-0.03,-0.031,-0.032,-0.033,-0.034,-0.035,-0.036000000000000004,-0.037000000000000005,-0.039,-0.040999999999999995,-0.043,-0.044000000000000004,-0.045,-0.046,-0.046,-0.047,-0.048,-0.049,-0.051,-0.053,-0.055999999999999994,-0.059000000000000004,-0.061,-0.063,-0.062,-0.062,-0.059000000000000004,-0.057,-0.051,-0.045,-0.037000000000000005,-0.03,-0.021,-0.012,0.001,0.013999999999999999,0.035,0.055999999999999994,0.086,0.11699999999999999,0.16399999999999998,0.21,0.273,0.336,0.40700000000000003,0.478,0.534,0.591,0.612,0.632,0.607,0.581,0.518,0.456,0.37799999999999995,0.3,0.231,0.161,0.11,0.059000000000000004,0.025,-0.01,-0.031,-0.052000000000000005,-0.064,-0.075,-0.081,-0.087,-0.09,-0.09300000000000001,-0.095,-0.09699999999999999,-0.098,-0.099,-0.1,-0.1,-0.102,-0.10300000000000001,-0.10400000000000001,-0.106,-0.106,-0.106,-0.10400000000000001,-0.102,-0.1,-0.09699999999999999,-0.095,-0.092,-0.08900000000000001,-0.087,-0.085,-0.083,-0.08199999999999999,-0.081,-0.081,-0.081,-0.081,-0.08,-0.079,-0.078,-0.076,-0.07400000000000001,-0.07200000000000001,-0.07,-0.068,-0.066,-0.066,-0.065,-0.064,-0.063,-0.062,-0.062,-0.062,-0.062,-0.06,-0.059000000000000004,-0.057,-0.054000000000000006,-0.052000000000000005,-0.05,-0.046,-0.043,-0.039,N
9,-0.084,-0.087,-0.087,-0.08800000000000001,-0.08900000000000001,-0.09,-0.091,-0.092,-0.094,-0.096,-0.098,-0.099,-0.099,-0.098,-0.09699999999999999,-0.095,-0.092,-0.09,-0.087,-0.084,-0.083,-0.081,-0.08,-0.079,-0.077,-0.076,-0.07400000000000001,-0.073,-0.071,-0.069,-0.067,-0.065,-0.064,-0.063,-0.062,-0.062,-0.062,-0.063,-0.063,-0.063,-0.062,-0.062,-0.06,-0.059000000000000004,-0.057,-0.054000000000000006,-0.052000000000000005,-0.05,-0.047,-0.044000000000000004,-0.042,-0.039,-0.037000000000000005,-0.036000000000000004,-0.034,-0.032,-0.027999999999999997,-0.024,-0.018000000000000002,-0.012,-0.005,0.002,0.008,0.013999999999999999,0.019,0.025,0.032,0.039,0.046,0.053,0.06,0.067,0.07400000000000001,0.081,0.08800000000000001,0.095,0.102,0.109,0.11699999999999999,0.124,0.131,0.13699999999999998,0.142,0.14800000000000002,0.15,0.153,0.153,0.154,0.152,0.151,0.14800000000000002,0.146,0.142,0.139,0.134,0.129,0.12300000000000001,0.11699999999999999,0.111,0.10400000000000001,0.098,0.092,0.086,0.08,0.073,0.067,0.061,0.055999999999999994,0.051,0.045,0.04,0.034,0.028999999999999998,0.024,0.02,0.016,0.013000000000000001,0.009000000000000001,0.005,0.001,-0.004,-0.009000000000000001,-0.013000000000000001,-0.017,-0.02,-0.023,-0.025,-0.027000000000000003,-0.028999999999999998,-0.03,-0.03,-0.03,-0.03,-0.031,-0.033,-0.034,-0.036000000000000004,-0.038,-0.039,-0.04,-0.04,-0.04,-0.038,-0.036000000000000004,-0.034,-0.032,-0.031,-0.03,-0.028999999999999998,-0.027999999999999997,-0.026000000000000002,-0.025,-0.021,-0.018000000000000002,-0.015,-0.012,-0.011000000000000001,-0.009000000000000001,-0.009000000000000001,-0.01,-0.011000000000000001,-0.012,-0.013999999999999999,-0.016,-0.018000000000000002,-0.019,-0.021,-0.024,-0.027000000000000003,-0.03,-0.032,-0.034,-0.036000000000000004,-0.038,-0.039,-0.04,-0.040999999999999995,-0.040999999999999995,-0.040999999999999995,-0.04,-0.04,-0.04,-0.040999999999999995,-0.040999999999999995,-0.043,-0.045,-0.049,-0.052000000000000005,-0.054000000000000006,-0.057,-0.057999999999999996,-0.059000000000000004,-0.059000000000000004,-0.059000000000000004,-0.057999999999999996,-0.055999999999999994,-0.051,-0.045,-0.035,-0.026000000000000002,-0.015,-0.004,0.011000000000000001,0.025,0.046,0.068,0.10099999999999999,0.134,0.18600000000000003,0.23800000000000002,0.307,0.376,0.447,0.518,0.569,0.62,0.63,0.6409999999999999,0.608,0.575,0.51,0.445,0.37200000000000005,0.299,0.235,0.172,0.12300000000000001,0.075,0.04,0.005,-0.018000000000000002,-0.042,-0.055999999999999994,-0.07,-0.079,-0.087,-0.092,-0.098,-0.10099999999999999,-0.10300000000000001,-0.10300000000000001,-0.10300000000000001,-0.102,-0.102,-0.10099999999999999,-0.1,-0.1,-0.099,-0.099,-0.099,-0.099,-0.099,-0.099,-0.099,-0.099,-0.098,-0.09699999999999999,-0.096,-0.095,-0.094,-0.092,-0.091,-0.08900000000000001,-0.087,-0.086,-0.084,-0.08199999999999999,-0.079,-0.076,-0.07400000000000001,-0.073,-0.07200000000000001,-0.071,-0.07,-0.069,-0.068,-0.068,-0.067,-0.067,-0.066,-0.066,-0.065,-0.064,-0.063,-0.062,-0.061,-0.06,-0.059000000000000004,-0.057,-0.054000000000000006,-0.051,-0.049,-0.044000000000000004,-0.039,-0.033,-0.027000000000000003,-0.021,-0.015,-0.009000000000000001,-0.002,0.004,0.01,0.015,0.021,0.026000000000000002,0.032,0.039,0.046,0.054000000000000006,0.063,0.071,0.079,0.087,0.095,0.102,0.10800000000000001,0.114,0.12,0.124,0.129,0.133,0.136,0.138,0.139,0.139,0.139,0.139,0.138,0.136,0.134,0.13,0.126,0.122,0.11800000000000001,0.113,0.107,0.10099999999999999,0.095,0.08800000000000001,0.081,0.073,0.066,0.059000000000000004,0.051,0.043,0.036000000000000004,0.03,0.024,0.021,0.017,0.015,0.012,0.009000000000000001,0.005,0.001,-0.003,-0.008,-0.013000000000000001,-0.018000000000000002,-0.024,-0.027999999999999997,-0.031,-0.033,-0.035,-0.038,-0.040999999999999995,-0.044000000000000004,-0.047,-0.05,-0.052000000000000005,-0.054000000000000006,-0.057,-0.057999999999999996,-0.057999999999999996,-0.057,-0.055,-0.053,-0.051,-0.049,-0.047,-0.045,-0.043,-0.042,-0.040999999999999995,-0.04,-0.039,-0.038,-0.037000000000000005,-0.036000000000000004,-0.036000000000000004,-0.035,-0.034,-0.034,-0.033,-0.034,-0.034,-0.035,-0.037000000000000005,-0.038,-0.04,-0.040999999999999995,-0.040999999999999995,-0.040999999999999995,-0.04,-0.040999999999999995,-0.040999999999999995,-0.043,-0.044000000000000004,-0.046,-0.048,-0.049,-0.049,-0.05,-0.051,-0.052000000000000005,-0.053,-0.054000000000000006,-0.055,-0.055999999999999994,-0.055999999999999994,-0.057999999999999996,-0.06,-0.061,-0.062,-0.062,-0.063,-0.062,-0.062,-0.06,-0.059000000000000004,-0.055999999999999994,-0.053,-0.05,-0.046,-0.040999999999999995,-0.035,-0.027999999999999997,-0.02,-0.009000000000000001,0.002,0.019,0.036000000000000004,0.062,0.08900000000000001,0.133,0.17600000000000002,0.237,0.298,0.368,0.439,0.49700000000000005,0.555,0.581,0.606,0.588,0.57,0.516,0.462,0.392,0.321,0.255,0.18899999999999997,0.136,0.08199999999999999,0.044000000000000004,0.006,-0.018000000000000002,-0.042,-0.055999999999999994,-0.069,-0.076,-0.083,-0.087,-0.091,-0.09300000000000001,-0.095,-0.096,-0.09699999999999999,-0.098,-0.099,-0.1,-0.1,-0.102,-0.10300000000000001,-0.10400000000000001,-0.106,-0.106,-0.106,-0.10400000000000001,-0.10300000000000001,-0.102,-0.1,-0.098,-0.096,-0.09300000000000001,-0.091,-0.08900000000000001,-0.087,-0.086,-0.084,-0.083,-0.081,-0.081,-0.08,-0.081,-0.081,-0.081,-0.08,-0.078,-0.076,-0.07200000000000001,-0.068,-0.065,-0.062,-0.059000000000000004,-0.057,-0.055999999999999994,-0.055,-0.055,-0.055,-0.055,-0.055,-0.054000000000000006,-0.054000000000000006,-0.052000000000000005,-0.05,-0.046,-0.042,-0.036000000000000004,-0.031,-0.025,-0.02,-0.015,-0.009000000000000001,-0.004,0.002,0.006999999999999999,0.013000000000000001,0.019,0.025,0.032,0.039,0.046,0.054000000000000006,0.061,0.069,0.076,0.084,0.091,0.098,0.106,0.114,0.121,0.129,0.136,0.142,0.146,0.15,0.152,0.154,0.154,0.154,0.152,0.151,0.147,0.14400000000000002,0.139,0.133,0.128,0.12300000000000001,0.11800000000000001,0.113,0.109,0.105,0.1,0.095,0.08900000000000001,0.084,0.076,0.069,0.06,0.052000000000000005,0.044000000000000004,0.037000000000000005,0.032,0.026000000000000002,0.021,0.015,0.01,0.005,0.001,-0.003,-0.006999999999999999,-0.011000000000000001,-0.013999999999999999,-0.017,-0.018000000000000002,-0.02,-0.021,-0.023,-0.025,-0.026000000000000002,-0.028999999999999998,-0.032,-0.035,-0.038,-0.040999999999999995,-0.044000000000000004,-0.046,-0.048,-0.048,-0.048,-0.048,-0.047,-0.045,-0.043,-0.042,-0.040999999999999995,-0.04,-0.039,-0.037000000000000005,-0.036000000000000004,-0.034,-0.032,-0.028999999999999998,-0.025,-0.021,-0.017,-0.013999999999999999,-0.011000000000000001,-0.011000000000000001,-0.011000000000000001,-0.013000000000000001,-0.016,-0.02,-0.024,-0.026000000000000002,-0.028999999999999998,-0.028999999999999998,-0.03,-0.03,-0.031,-0.032,-0.033,-0.034,-0.035,-0.036000000000000004,-0.037000000000000005,-0.039,-0.040999999999999995,-0.043,-0.044000000000000004,-0.045,-0.046,-0.046,-0.047,-0.048,-0.049,-0.051,-0.053,-0.055999999999999994,-0.059000000000000004,-0.061,-0.063,-0.062,-0.062,-0.059000000000000004,-0.057,-0.051,-0.045,-0.037000000000000005,-0.03,-0.021,-0.012,0.001,0.013999999999999999,0.035,0.055999999999999994,0.086,0.11699999999999999,0.16399999999999998,0.21,0.273,0.336,0.40700000000000003,0.478,0.534,0.591,0.612,0.632,0.607,0.581,0.518,0.456,0.37799999999999995,0.3,0.231,0.161,0.11,0.059000000000000004,0.025,-0.01,-0.031,-0.052000000000000005,-0.064,-0.075,-0.081,-0.087,-0.09,-0.09300000000000001,-0.095,-0.09699999999999999,-0.098,-0.099,-0.1,-0.1,-0.102,-0.10300000000000001,-0.10400000000000001,-0.106,-0.106,-0.106,-0.10400000000000001,-0.102,-0.1,-0.09699999999999999,-0.095,-0.092,-0.08900000000000001,-0.087,-0.085,-0.083,-0.08199999999999999,-0.081,-0.081,-0.081,-0.081,-0.08,-0.079,-0.078,-0.076,-0.07400000000000001,-0.07200000000000001,-0.07,-0.068,-0.066,-0.066,-0.065,-0.064,-0.063,-0.062,-0.062,-0.062,-0.062,-0.06,-0.059000000000000004,-0.057,-0.054000000000000006,-0.052000000000000005,-0.05,-0.046,-0.043,-0.039,-0.035,-0.031,-0.027000000000000003,-0.022000000000000002,-0.018000000000000002,-0.013000000000000001,-0.006999999999999999,-0.001,0.005,0.011000000000000001,0.018000000000000002,0.025,0.033,0.042,0.05,0.059000000000000004,0.067,0.076,0.086,0.094,0.102,0.107,0.113,0.11800000000000001,0.12300000000000001,0.127,0.131,0.135,0.138,0.141,0.14400000000000002,0.146,0.149,0.15,0.151,0.15,0.149,0.147,0.146,0.142,0.139,0.134,0.129,0.12300000000000001,0.11699999999999999,0.11,0.10300000000000001,0.096,0.08900000000000001,0.08199999999999999,0.075,0.068,0.06,0.053,0.047,0.04,0.033,0.026000000000000002,0.02,0.013000000000000001,0.006999999999999999,0.003,-0.002,-0.006,-0.01,-0.015,-0.019,-0.022000000000000002,-0.025,-0.027999999999999997,-0.03,-0.032,-0.034,-0.036000000000000004,-0.039,-0.042,-0.044000000000000004,-0.046,-0.049,-0.05,-0.051,-0.051,-0.052000000000000005,-0.052000000000000005,-0.052000000000000005,-0.051,-0.05,-0.049,-0.048,-0.047,-0.046,-0.043,-0.040999999999999995,-0.04,-0.039,-0.038,-0.037000000000000005,-0.036000000000000004,-0.036000000000000004,-0.035,-0.033,-0.032,-0.03,-0.03,-0.031,-0.034,-0.037000000000000005,-0.04,-0.042,-0.043,-0.043,-0.043,-0.042,-0.043,-0.043,-0.044000000000000004,-0.045,-0.047,-0.049,-0.051,-0.052000000000000005,-0.054000000000000006,-0.055999999999999994,-0.057999999999999996,-0.06,-0.061,-0.062,-0.062,-0.063,-0.063,-0.063,-0.063,-0.063,-0.063,-0.063,-0.063,-0.063,-0.063,-0.063,-0.061,-0.06,-0.055,-0.05,-0.040999999999999995,-0.031,-0.017,-0.002,0.018000000000000002,0.039,0.067,0.095,0.135,0.174,0.22899999999999998,0.284,0.35200000000000004,0.42,0.486,0.5529999999999999,0.594,0.634,0.63,0.627,0.579,0.53,0.45299999999999996,0.376,0.29600000000000004,0.21600000000000003,0.153,0.09,0.048,0.005,-0.021,-0.048,-0.064,-0.079,-0.087,-0.095,-0.1,-0.105,-0.10800000000000001,-0.111,-0.113,-0.114,-0.115,-0.115,-0.11599999999999999,-0.11699999999999999,-0.11699999999999999,-0.11800000000000001,-0.11699999999999999,-0.11599999999999999,-0.115,-0.114,-0.113,-0.11199999999999999,-0.111,-0.11,-0.107,-0.105,-0.10300000000000001,-0.102,-0.1,-0.098,-0.09699999999999999,-0.096,-0.095,-0.094,-0.092,-0.091,-0.08900000000000001,-0.08800000000000001,-0.087,-0.087,-0.086,-0.084,-0.08199999999999999,-0.08,-0.078,-0.076,-0.073,-0.071,-0.069,-0.066,-0.064,-0.062,-0.06,-0.057999999999999996,-0.055999999999999994,-0.053,-0.05,-0.047,-0.043,-0.038,-0.033,-0.027000000000000003,N
10,-0.10099999999999999,-0.10300000000000001,-0.10300000000000001,-0.10300000000000001,-0.102,-0.102,-0.10099999999999999,-0.1,-0.1,-0.099,-0.099,-0.099,-0.099,-0.099,-0.099,-0.099,-0.099,-0.098,-0.09699999999999999,-0.096,-0.095,-0.094,-0.092,-0.091,-0.08900000000000001,-0.087,-0.086,-0.084,-0.08199999999999999,-0.079,-0.076,-0.07400000000000001,-0.073,-0.07200000000000001,-0.071,-0.07,-0.069,-0.068,-0.068,-0.067,-0.067,-0.066,-0.066,-0.065,-0.064,-0.063,-0.062,-0.061,-0.06,-0.059000000000000004,-0.057,-0.054000000000000006,-0.051,-0.049,-0.044000000000000004,-0.039,-0.033,-0.027000000000000003,-0.021,-0.015,-0.009000000000000001,-0.002,0.004,0.01,0.015,0.021,0.026000000000000002,0.032,0.039,0.046,0.054000000000000006,0.063,0.071,0.079,0.087,0.095,0.102,0.10800000000000001,0.114,0.12,0.124,0.129,0.133,0.136,0.138,0.139,0.139,0.139,0.139,0.138,0.136,0.134,0.13,0.126,0.122,0.11800000000000001,0.113,0.107,0.10099999999999999,0.095,0.08800000000000001,0.081,0.073,0.066,0.059000000000000004,0.051,0.043,0.036000000000000004,0.03,0.024,0.021,0.017,0.015,0.012,0.009000000000000001,0.005,0.001,-0.003,-0.008,-0.013000000000000001,-0.018000000000000002,-0.024,-0.027999999999999997,-0.031,-0.033,-0.035,-0.038,-0.040999999999999995,-0.044000000000000004,-0.047,-0.05,-0.052000000000000005,-0.054000000000000006,-0.057,-0.057999999999999996,-0.057999999999999996,-0.057,-0.055,-0.053,-0.051,-0.049,-0.047,-0.045,-0.043,-0.042,-0.040999999999999995,-0.04,-0.039,-0.038,-0.037000000000000005,-0.036000000000000004,-0.036000000000000004,-0.035,-0.034,-0.034,-0.033,-0.034,-0.034,-0.035,-0.037000000000000005,-0.038,-0.04,-0.040999999999999995,-0.040999999999999995,-0.040999999999999995,-0.04,-0.040999999999999995,-0.040999999999999995,-0.043,-0.044000000000000004,-0.046,-0.048,-0.049,-0.049,-0.05,-0.051,-0.052000000000000005,-0.053,-0.054000000000000006,-0.055,-0.055999999999999994,-0.055999999999999994,-0.057999999999999996,-0.06,-0.061,-0.062,-0.062,-0.063,-0.062,-0.062,-0.06,-0.059000000000000004,-0.055999999999999994,-0.053,-0.05,-0.046,-0.040999999999999995,-0.035,-0.027999999999999997,-0.02,-0.009000000000000001,0.002,0.019,0.036000000000000004,0.062,0.08900000000000001,0.133,0.17600000000000002,0.237,0.298,0.368,0.439,0.49700000000000005,0.555,0.581,0.606,0.588,0.57,0.516,0.462,0.392,0.321,0.255,0.18899999999999997,0.136,0.08199999999999999,0.044000000000000004,0.006,-0.018000000000000002,-0.042,-0.055999999999999994,-0.069,-0.076,-0.083,-0.087,-0.091,-0.09300000000000001,-0.095,-0.096,-0.09699999999999999,-0.098,-0.099,-0.1,-0.1,-0.102,-0.10300000000000001,-0.10400000000000001,-0.106,-0.106,-0.106,-0.10400000000000001,-0.10300000000000001,-0.102,-0.1,-0.098,-0.096,-0.09300000000000001,-0.091,-0.08900000000000001,-0.087,-0.086,-0.084,-0.083,-0.081,-0.081,-0.08,-0.081,-0.081,-0.081,-0.08,-0.078,-0.076,-0.07200000000000001,-0.068,-0.065,-0.062,-0.059000000000000004,-0.057,-0.055999999999999994,-0.055,-0.055,-0.055,-0.055,-0.055,-0.054000000000000006,-0.054000000000000006,-0.052000000000000005,-0.05,-0.046,-0.042,-0.036000000000000004,-0.031,-0.025,-0.02,-0.015,-0.009000000000000001,-0.004,0.002,0.006999999999999999,0.013000000000000001,0.019,0.025,0.032,0.039,0.046,0.054000000000000006,0.061,0.069,0.076,0.084,0.091,0.098,0.106,0.114,0.121,0.129,0.136,0.142,0.146,0.15,0.152,0.154,0.154,0.154,0.152,0.151,0.147,0.14400000000000002,0.139,0.133,0.128,0.12300000000000001,0.11800000000000001,0.113,0.109,0.105,0.1,0.095,0.08900000000000001,0.084,0.076,0.069,0.06,0.052000000000000005,0.044000000000000004,0.037000000000000005,0.032,0.026000000000000002,0.021,0.015,0.01,0.005,0.001,-0.003,-0.006999999999999999,-0.011000000000000001,-0.013999999999999999,-0.017,-0.018000000000000002,-0.02,-0.021,-0.023,-0.025,-0.026000000000000002,-0.028999999999999998,-0.032,-0.035,-0.038,-0.040999999999999995,-0.044000000000000004,-0.046,-0.048,-0.048,-0.048,-0.048,-0.047,-0.045,-0.043,-0.042,-0.040999999999999995,-0.04,-0.039,-0.037000000000000005,-0.036000000000000004,-0.034,-0.032,-0.028999999999999998,-0.025,-0.021,-0.017,-0.013999999999999999,-0.011000000000000001,-0.011000000000000001,-0.011000000000000001,-0.013000000000000001,-0.016,-0.02,-0.024,-0.026000000000000002,-0.028999999999999998,-0.028999999999999998,-0.03,-0.03,-0.031,-0.032,-0.033,-0.034,-0.035,-0.036000000000000004,-0.037000000000000005,-0.039,-0.040999999999999995,-0.043,-0.044000000000000004,-0.045,-0.046,-0.046,-0.047,-0.048,-0.049,-0.051,-0.053,-0.055999999999999994,-0.059000000000000004,-0.061,-0.063,-0.062,-0.062,-0.059000000000000004,-0.057,-0.051,-0.045,-0.037000000000000005,-0.03,-0.021,-0.012,0.001,0.013999999999999999,0.035,0.055999999999999994,0.086,0.11699999999999999,0.16399999999999998,0.21,0.273,0.336,0.40700000000000003,0.478,0.534,0.591,0.612,0.632,0.607,0.581,0.518,0.456,0.37799999999999995,0.3,0.231,0.161,0.11,0.059000000000000004,0.025,-0.01,-0.031,-0.052000000000000005,-0.064,-0.075,-0.081,-0.087,-0.09,-0.09300000000000001,-0.095,-0.09699999999999999,-0.098,-0.099,-0.1,-0.1,-0.102,-0.10300000000000001,-0.10400000000000001,-0.106,-0.106,-0.106,-0.10400000000000001,-0.102,-0.1,-0.09699999999999999,-0.095,-0.092,-0.08900000000000001,-0.087,-0.085,-0.083,-0.08199999999999999,-0.081,-0.081,-0.081,-0.081,-0.08,-0.079,-0.078,-0.076,-0.07400000000000001,-0.07200000000000001,-0.07,-0.068,-0.066,-0.066,-0.065,-0.064,-0.063,-0.062,-0.062,-0.062,-0.062,-0.06,-0.059000000000000004,-0.057,-0.054000000000000006,-0.052000000000000005,-0.05,-0.046,-0.043,-0.039,-0.035,-0.031,-0.027000000000000003,-0.022000000000000002,-0.018000000000000002,-0.013000000000000001,-0.006999999999999999,-0.001,0.005,0.011000000000000001,0.018000000000000002,0.025,0.033,0.042,0.05,0.059000000000000004,0.067,0.076,0.086,0.094,0.102,0.107,0.113,0.11800000000000001,0.12300000000000001,0.127,0.131,0.135,0.138,0.141,0.14400000000000002,0.146,0.149,0.15,0.151,0.15,0.149,0.147,0.146,0.142,0.139,0.134,0.129,0.12300000000000001,0.11699999999999999,0.11,0.10300000000000001,0.096,0.08900000000000001,0.08199999999999999,0.075,0.068,0.06,0.053,0.047,0.04,0.033,0.026000000000000002,0.02,0.013000000000000001,0.006999999999999999,0.003,-0.002,-0.006,-0.01,-0.015,-0.019,-0.022000000000000002,-0.025,-0.027999999999999997,-0.03,-0.032,-0.034,-0.036000000000000004,-0.039,-0.042,-0.044000000000000004,-0.046,-0.049,-0.05,-0.051,-0.051,-0.052000000000000005,-0.052000000000000005,-0.052000000000000005,-0.051,-0.05,-0.049,-0.048,-0.047,-0.046,-0.043,-0.040999999999999995,-0.04,-0.039,-0.038,-0.037000000000000005,-0.036000000000000004,-0.036000000000000004,-0.035,-0.033,-0.032,-0.03,-0.03,-0.031,-0.034,-0.037000000000000005,-0.04,-0.042,-0.043,-0.043,-0.043,-0.042,-0.043,-0.043,-0.044000000000000004,-0.045,-0.047,-0.049,-0.051,-0.052000000000000005,-0.054000000000000006,-0.055999999999999994,-0.057999999999999996,-0.06,-0.061,-0.062,-0.062,-0.063,-0.063,-0.063,-0.063,-0.063,-0.063,-0.063,-0.063,-0.063,-0.063,-0.063,-0.061,-0.06,-0.055,-0.05,-0.040999999999999995,-0.031,-0.017,-0.002,0.018000000000000002,0.039,0.067,0.095,0.135,0.174,0.22899999999999998,0.284,0.35200000000000004,0.42,0.486,0.5529999999999999,0.594,0.634,0.63,0.627,0.579,0.53,0.45299999999999996,0.376,0.29600000000000004,0.21600000000000003,0.153,0.09,0.048,0.005,-0.021,-0.048,-0.064,-0.079,-0.087,-0.095,-0.1,-0.105,-0.10800000000000001,-0.111,-0.113,-0.114,-0.115,-0.115,-0.11599999999999999,-0.11699999999999999,-0.11699999999999999,-0.11800000000000001,-0.11699999999999999,-0.11599999999999999,-0.115,-0.114,-0.113,-0.11199999999999999,-0.111,-0.11,-0.107,-0.105,-0.10300000000000001,-0.102,-0.1,-0.098,-0.09699999999999999,-0.096,-0.095,-0.094,-0.092,-0.091,-0.08900000000000001,-0.08800000000000001,-0.087,-0.087,-0.086,-0.084,-0.08199999999999999,-0.08,-0.078,-0.076,-0.073,-0.071,-0.069,-0.066,-0.064,-0.062,-0.06,-0.057999999999999996,-0.055999999999999994,-0.053,-0.05,-0.047,-0.043,-0.038,-0.033,-0.027000000000000003,-0.019,-0.012,-0.005,0.002,0.006999999999999999,0.013000000000000001,0.017,0.021,0.026000000000000002,0.032,0.04,0.047,0.057,0.066,0.075,0.084,0.091,0.098,0.105,0.11199999999999999,0.11699999999999999,0.12300000000000001,0.128,0.133,0.138,0.142,0.145,0.149,0.15,0.152,0.151,0.151,0.149,0.147,0.14300000000000002,0.139,0.135,0.13,0.125,0.12,0.114,0.10800000000000001,0.102,0.095,0.087,0.08,0.071,0.063,0.055,0.047,0.040999999999999995,0.034,0.028999999999999998,0.024,0.019,0.015,0.01,0.005,-0.001,-0.006,-0.012,-0.018000000000000002,-0.024,-0.028999999999999998,-0.034,-0.038,-0.042,-0.046,-0.05,-0.053,-0.057,-0.06,-0.061,-0.063,-0.063,-0.063,-0.063,-0.063,-0.063,-0.063,-0.063,-0.063,-0.062,-0.062,-0.06,-0.059000000000000004,-0.055999999999999994,-0.053,-0.051,-0.048,-0.045,-0.043,-0.040999999999999995,-0.039,-0.038,-0.037000000000000005,-0.037000000000000005,-0.037000000000000005,-0.037000000000000005,-0.037000000000000005,-0.037000000000000005,-0.037000000000000005,-0.037000000000000005,-0.038,-0.039,-0.04,-0.040999999999999995,-0.040999999999999995,-0.040999999999999995,-0.04,-0.040999999999999995,-0.040999999999999995,-0.043,-0.044000000000000004,-0.047,-0.05,-0.052000000000000005,-0.055,-0.057999999999999996,-0.06,-0.061,-0.063,-0.063,-0.063,-0.063,-0.063,-0.063,-0.063,-0.064,-0.064,-0.065,-0.066,-0.066,-0.066,-0.066,-0.065,-0.063,-0.061,-0.057,-0.052000000000000005,-0.044000000000000004,-0.037000000000000005,-0.025,-0.013999999999999999,0.003,0.02,0.044000000000000004,0.068,0.102,0.136,0.183,0.231,0.293,0.355,0.424,0.493,0.5489999999999999,0.605,0.626,0.647,0.623,0.599,0.537,0.475,0.395,0.315,0.24,0.166,0.111,0.055,0.018000000000000002,-0.018000000000000002,-0.039,-0.06,-0.071,-0.083,-0.09,-0.09699999999999999,-0.102,-0.106,-0.10800000000000001,-0.111,-0.113,-0.115,-0.11599999999999999,-0.11699999999999999,-0.11699999999999999,-0.11800000000000001,-0.11699999999999999,-0.11699999999999999,-0.11699999999999999,-0.11699999999999999,-0.11699999999999999,-0.11699999999999999,-0.11699999999999999,-0.11599999999999999,-0.115,-0.114,-0.113,-0.11199999999999999,-0.111,-0.11,-0.107,-0.105,-0.10300000000000001,-0.102,-0.1,-0.098,-0.09699999999999999,-0.095,-0.09300000000000001,-0.091,-0.08800000000000001,-0.086,-0.083,-0.08,-0.076,-0.073,-0.07,-0.068,-0.067,-0.065,-0.064,-0.062,-0.06,-0.057999999999999996,-0.055999999999999994,-0.053,-0.05,-0.047,-0.043,-0.04,-0.037000000000000005,-0.034,-0.028999999999999998,-0.025,-0.021,-0.016,N
11,-0.09300000000000001,-0.095,-0.096,-0.09699999999999999,-0.098,-0.099,-0.1,-0.1,-0.102,-0.10300000000000001,-0.10400000000000001,-0.106,-0.106,-0.106,-0.10400000000000001,-0.10300000000000001,-0.102,-0.1,-0.098,-0.096,-0.09300000000000001,-0.091,-0.08900000000000001,-0.087,-0.086,-0.084,-0.083,-0.081,-0.081,-0.08,-0.081,-0.081,-0.081,-0.08,-0.078,-0.076,-0.07200000000000001,-0.068,-0.065,-0.062,-0.059000000000000004,-0.057,-0.055999999999999994,-0.055,-0.055,-0.055,-0.055,-0.055,-0.054000000000000006,-0.054000000000000006,-0.052000000000000005,-0.05,-0.046,-0.042,-0.036000000000000004,-0.031,-0.025,-0.02,-0.015,-0.009000000000000001,-0.004,0.002,0.006999999999999999,0.013000000000000001,0.019,0.025,0.032,0.039,0.046,0.054000000000000006,0.061,0.069,0.076,0.084,0.091,0.098,0.106,0.114,0.121,0.129,0.136,0.142,0.146,0.15,0.152,0.154,0.154,0.154,0.152,0.151,0.147,0.14400000000000002,0.139,0.133,0.128,0.12300000000000001,0.11800000000000001,0.113,0.109,0.105,0.1,0.095,0.08900000000000001,0.084,0.076,0.069,0.06,0.052000000000000005,0.044000000000000004,0.037000000000000005,0.032,0.026000000000000002,0.021,0.015,0.01,0.005,0.001,-0.003,-0.006999999999999999,-0.011000000000000001,-0.013999999999999999,-0.017,-0.018000000000000002,-0.02,-0.021,-0.023,-0.025,-0.026000000000000002,-0.028999999999999998,-0.032,-0.035,-0.038,-0.040999999999999995,-0.044000000000000004,-0.046,-0.048,-0.048,-0.048,-0.048,-0.047,-0.045,-0.043,-0.042,-0.040999999999999995,-0.04,-0.039,-0.037000000000000005,-0.036000000000000004,-0.034,-0.032,-0.028999999999999998,-0.025,-0.021,-0.017,-0.013999999999999999,-0.011000000000000001,-0.011000000000000001,-0.011000000000000001,-0.013000000000000001,-0.016,-0.02,-0.024,-0.026000000000000002,-0.028999999999999998,-0.028999999999999998,-0.03,-0.03,-0.031,-0.032,-0.033,-0.034,-0.035,-0.036000000000000004,-0.037000000000000005,-0.039,-0.040999999999999995,-0.043,-0.044000000000000004,-0.045,-0.046,-0.046,-0.047,-0.048,-0.049,-0.051,-0.053,-0.055999999999999994,-0.059000000000000004,-0.061,-0.063,-0.062,-0.062,-0.059000000000000004,-0.057,-0.051,-0.045,-0.037000000000000005,-0.03,-0.021,-0.012,0.001,0.013999999999999999,0.035,0.055999999999999994,0.086,0.11699999999999999,0.16399999999999998,0.21,0.273,0.336,0.40700000000000003,0.478,0.534,0.591,0.612,0.632,0.607,0.581,0.518,0.456,0.37799999999999995,0.3,0.231,0.161,0.11,0.059000000000000004,0.025,-0.01,-0.031,-0.052000000000000005,-0.064,-0.075,-0.081,-0.087,-0.09,-0.09300000000000001,-0.095,-0.09699999999999999,-0.098,-0.099,-0.1,-0.1,-0.102,-0.10300000000000001,-0.10400000000000001,-0.106,-0.106,-0.106,-0.10400000000000001,-0.102,-0.1,-0.09699999999999999,-0.095,-0.092,-0.08900000000000001,-0.087,-0.085,-0.083,-0.08199999999999999,-0.081,-0.081,-0.081,-0.081,-0.08,-0.079,-0.078,-0.076,-0.07400000000000001,-0.07200000000000001,-0.07,-0.068,-0.066,-0.066,-0.065,-0.064,-0.063,-0.062,-0.062,-0.062,-0.062,-0.06,-0.059000000000000004,-0.057,-0.054000000000000006,-0.052000000000000005,-0.05,-0.046,-0.043,-0.039,-0.035,-0.031,-0.027000000000000003,-0.022000000000000002,-0.018000000000000002,-0.013000000000000001,-0.006999999999999999,-0.001,0.005,0.011000000000000001,0.018000000000000002,0.025,0.033,0.042,0.05,0.059000000000000004,0.067,0.076,0.086,0.094,0.102,0.107,0.113,0.11800000000000001,0.12300000000000001,0.127,0.131,0.135,0.138,0.141,0.14400000000000002,0.146,0.149,0.15,0.151,0.15,0.149,0.147,0.146,0.142,0.139,0.134,0.129,0.12300000000000001,0.11699999999999999,0.11,0.10300000000000001,0.096,0.08900000000000001,0.08199999999999999,0.075,0.068,0.06,0.053,0.047,0.04,0.033,0.026000000000000002,0.02,0.013000000000000001,0.006999999999999999,0.003,-0.002,-0.006,-0.01,-0.015,-0.019,-0.022000000000000002,-0.025,-0.027999999999999997,-0.03,-0.032,-0.034,-0.036000000000000004,-0.039,-0.042,-0.044000000000000004,-0.046,-0.049,-0.05,-0.051,-0.051,-0.052000000000000005,-0.052000000000000005,-0.052000000000000005,-0.051,-0.05,-0.049,-0.048,-0.047,-0.046,-0.043,-0.040999999999999995,-0.04,-0.039,-0.038,-0.037000000000000005,-0.036000000000000004,-0.036000000000000004,-0.035,-0.033,-0.032,-0.03,-0.03,-0.031,-0.034,-0.037000000000000005,-0.04,-0.042,-0.043,-0.043,-0.043,-0.042,-0.043,-0.043,-0.044000000000000004,-0.045,-0.047,-0.049,-0.051,-0.052000000000000005,-0.054000000000000006,-0.055999999999999994,-0.057999999999999996,-0.06,-0.061,-0.062,-0.062,-0.063,-0.063,-0.063,-0.063,-0.063,-0.063,-0.063,-0.063,-0.063,-0.063,-0.063,-0.061,-0.06,-0.055,-0.05,-0.040999999999999995,-0.031,-0.017,-0.002,0.018000000000000002,0.039,0.067,0.095,0.135,0.174,0.22899999999999998,0.284,0.35200000000000004,0.42,0.486,0.5529999999999999,0.594,0.634,0.63,0.627,0.579,0.53,0.45299999999999996,0.376,0.29600000000000004,0.21600000000000003,0.153,0.09,0.048,0.005,-0.021,-0.048,-0.064,-0.079,-0.087,-0.095,-0.1,-0.105,-0.10800000000000001,-0.111,-0.113,-0.114,-0.115,-0.115,-0.11599999999999999,-0.11699999999999999,-0.11699999999999999,-0.11800000000000001,-0.11699999999999999,-0.11599999999999999,-0.115,-0.114,-0.113,-0.11199999999999999,-0.111,-0.11,-0.107,-0.105,-0.10300000000000001,-0.102,-0.1,-0.098,-0.09699999999999999,-0.096,-0.095,-0.094,-0.092,-0.091,-0.08900000000000001,-0.08800000000000001,-0.087,-0.087,-0.086,-0.084,-0.08199999999999999,-0.08,-0.078,-0.076,-0.073,-0.071,-0.069,-0.066,-0.064,-0.062,-0.06,-0.057999999999999996,-0.055999999999999994,-0.053,-0.05,-0.047,-0.043,-0.038,-0.033,-0.027000000000000003,-0.019,-0.012,-0.005,0.002,0.006999999999999999,0.013000000000000001,0.017,0.021,0.026000000000000002,0.032,0.04,0.047,0.057,0.066,0.075,0.084,0.091,0.098,0.105,0.11199999999999999,0.11699999999999999,0.12300000000000001,0.128,0.133,0.138,0.142,0.145,0.149,0.15,0.152,0.151,0.151,0.149,0.147,0.14300000000000002,0.139,0.135,0.13,0.125,0.12,0.114,0.10800000000000001,0.102,0.095,0.087,0.08,0.071,0.063,0.055,0.047,0.040999999999999995,0.034,0.028999999999999998,0.024,0.019,0.015,0.01,0.005,-0.001,-0.006,-0.012,-0.018000000000000002,-0.024,-0.028999999999999998,-0.034,-0.038,-0.042,-0.046,-0.05,-0.053,-0.057,-0.06,-0.061,-0.063,-0.063,-0.063,-0.063,-0.063,-0.063,-0.063,-0.063,-0.063,-0.062,-0.062,-0.06,-0.059000000000000004,-0.055999999999999994,-0.053,-0.051,-0.048,-0.045,-0.043,-0.040999999999999995,-0.039,-0.038,-0.037000000000000005,-0.037000000000000005,-0.037000000000000005,-0.037000000000000005,-0.037000000000000005,-0.037000000000000005,-0.037000000000000005,-0.037000000000000005,-0.038,-0.039,-0.04,-0.040999999999999995,-0.040999999999999995,-0.040999999999999995,-0.04,-0.040999999999999995,-0.040999999999999995,-0.043,-0.044000000000000004,-0.047,-0.05,-0.052000000000000005,-0.055,-0.057999999999999996,-0.06,-0.061,-0.063,-0.063,-0.063,-0.063,-0.063,-0.063,-0.063,-0.064,-0.064,-0.065,-0.066,-0.066,-0.066,-0.066,-0.065,-0.063,-0.061,-0.057,-0.052000000000000005,-0.044000000000000004,-0.037000000000000005,-0.025,-0.013999999999999999,0.003,0.02,0.044000000000000004,0.068,0.102,0.136,0.183,0.231,0.293,0.355,0.424,0.493,0.5489999999999999,0.605,0.626,0.647,0.623,0.599,0.537,0.475,0.395,0.315,0.24,0.166,0.111,0.055,0.018000000000000002,-0.018000000000000002,-0.039,-0.06,-0.071,-0.083,-0.09,-0.09699999999999999,-0.102,-0.106,-0.10800000000000001,-0.111,-0.113,-0.115,-0.11599999999999999,-0.11699999999999999,-0.11699999999999999,-0.11800000000000001,-0.11699999999999999,-0.11699999999999999,-0.11699999999999999,-0.11699999999999999,-0.11699999999999999,-0.11699999999999999,-0.11699999999999999,-0.11599999999999999,-0.115,-0.114,-0.113,-0.11199999999999999,-0.111,-0.11,-0.107,-0.105,-0.10300000000000001,-0.102,-0.1,-0.098,-0.09699999999999999,-0.095,-0.09300000000000001,-0.091,-0.08800000000000001,-0.086,-0.083,-0.08,-0.076,-0.073,-0.07,-0.068,-0.067,-0.065,-0.064,-0.062,-0.06,-0.057999999999999996,-0.055999999999999994,-0.053,-0.05,-0.047,-0.043,-0.04,-0.037000000000000005,-0.034,-0.028999999999999998,-0.025,-0.021,-0.016,-0.01,-0.004,0.003,0.009000000000000001,0.015,0.021,0.026000000000000002,0.031,0.036000000000000004,0.042,0.049,0.055,0.061,0.068,0.075,0.083,0.091,0.099,0.107,0.11599999999999999,0.12300000000000001,0.13,0.136,0.141,0.14300000000000002,0.146,0.146,0.146,0.14400000000000002,0.142,0.14,0.13699999999999998,0.134,0.13,0.126,0.121,0.11599999999999999,0.111,0.105,0.099,0.095,0.09,0.086,0.081,0.076,0.071,0.065,0.057999999999999996,0.051,0.044000000000000004,0.037000000000000005,0.03,0.025,0.019,0.013000000000000001,0.008,0.003,-0.003,-0.008,-0.013000000000000001,-0.018000000000000002,-0.024,-0.027999999999999997,-0.032,-0.035,-0.037000000000000005,-0.039,-0.040999999999999995,-0.043,-0.045,-0.048,-0.05,-0.052000000000000005,-0.054000000000000006,-0.055999999999999994,-0.057,-0.057999999999999996,-0.057999999999999996,-0.057,-0.055,-0.052000000000000005,-0.05,-0.046,-0.043,-0.04,-0.036000000000000004,-0.035,-0.033,-0.033,-0.033,-0.034,-0.034,-0.035,-0.036000000000000004,-0.036000000000000004,-0.036000000000000004,-0.035,-0.033,-0.032,-0.03,-0.028999999999999998,-0.028999999999999998,-0.03,-0.031,-0.033,-0.035,-0.038,-0.040999999999999995,-0.043,-0.045,-0.045,-0.045,-0.044000000000000004,-0.044000000000000004,-0.044000000000000004,-0.044000000000000004,-0.043,-0.043,-0.043,-0.043,-0.044000000000000004,-0.046,-0.049,-0.051,-0.053,-0.055,-0.057999999999999996,-0.06,-0.061,-0.063,-0.063,-0.063,-0.062,-0.062,-0.061,-0.06,-0.057999999999999996,-0.055999999999999994,-0.051,-0.045,-0.037000000000000005,-0.028999999999999998,-0.018000000000000002,-0.006999999999999999,0.01,0.027000000000000003,0.05,0.073,0.10400000000000001,0.136,0.18100000000000002,0.22699999999999998,0.289,0.35200000000000004,0.418,0.484,0.534,0.584,0.599,0.614,0.5870000000000001,0.5589999999999999,0.499,0.439,0.36700000000000005,0.295,0.23,0.165,0.115,0.064,0.028999999999999998,-0.006,-0.027000000000000003,-0.048,-0.06,-0.073,-0.08,-0.087,-0.091,-0.096,-0.098,-0.1,-0.1,-0.099,-0.098,-0.09699999999999999,-0.095,-0.09300000000000001,-0.092,-0.092,-0.09300000000000001,-0.095,-0.096,-0.09699999999999999,-0.098,-0.099,-0.099,-0.099,-0.099,-0.098,-0.09699999999999999,-0.095,-0.09300000000000001,-0.091,-0.08900000000000001,-0.08800000000000001,-0.087,-0.086,-0.084,-0.08199999999999999,-0.08,-0.078,-0.075,-0.073,-0.071,-0.069,-0.067,-0.065,-0.064,-0.063,-0.062,-0.062,-0.062,-0.063,-0.062,-0.062,-0.06,-0.059000000000000004,-0.055999999999999994,-0.052000000000000005,-0.048,-0.044000000000000004,-0.039,-0.034,-0.028999999999999998,-0.024,N
