0,-0.052000000000000005,-0.054000000000000006,-0.057,-0.059000000000000004,-0.06,-0.06,-0.061,-0.06,-0.06,-0.059000000000000004,-0.057999999999999996,-0.055999999999999994,-0.054000000000000006,-0.053,-0.052000000000000005,-0.051,-0.051,-0.051,-0.05,-0.049,-0.048,-0.046,-0.044000000000000004,-0.042,-0.04,-0.04,-0.04,-0.04,-0.04,-0.04,-0.04,-0.04,-0.04,-0.04,-0.04,-0.04,-0.039,-0.038,-0.037000000000000005,-0.036000000000000004,-0.036000000000000004,-0.035,-0.033,-0.032,-0.03,-0.028999999999999998,-0.028999999999999998,-0.028999999999999998,-0.03,-0.028999999999999998,-0.028999999999999998,-0.027999999999999997,-0.027000000000000003,-0.026000000000000002,-0.025,-0.025,-0.026000000000000002,-0.025,-0.025,-0.024,-0.022000000000000002,-0.019,-0.017,-0.013000000000000001,-0.009000000000000001,-0.004,0.0,0.003,0.005,0.006,0.006999999999999999,0.006999999999999999,0.008,0.009000000000000001,0.011000000000000001,0.013000000000000001,0.016,0.019,0.022000000000000002,0.025,0.027000000000000003,0.028999999999999998,0.031,0.034,0.037000000000000005,0.040999999999999995,0.044000000000000004,0.046,0.049,0.052000000000000005,0.055,0.057,0.059000000000000004,0.06,0.062,0.062,0.063,0.065,0.066,0.068,0.069,0.07,0.07,0.07,0.069,0.069,0.068,0.066,0.064,0.061,0.057999999999999996,0.055,0.052000000000000005,0.048,0.043,0.038,0.034,0.03,0.027000000000000003,0.024,0.021,0.018000000000000002,0.016,0.013000000000000001,0.01,0.006999999999999999,0.005,0.002,-0.002,-0.005,-0.009000000000000001,-0.013000000000000001,-0.017,-0.021,-0.024,-0.027999999999999997,-0.031,-0.034,-0.036000000000000004,-0.037000000000000005,-0.039,-0.039,-0.039,-0.039,-0.039,-0.04,-0.04,-0.040999999999999995,-0.040999999999999995,-0.040999999999999995,-0.040999999999999995,-0.043,-0.044000000000000004,-0.046,-0.048,-0.048,-0.047,-0.046,-0.045,-0.045,-0.046,-0.046,-0.046,-0.046,-0.046,-0.045,-0.045,-0.044000000000000004,-0.044000000000000004,-0.044000000000000004,-0.044000000000000004,-0.044000000000000004,-0.044000000000000004,-0.043,-0.043,-0.042,-0.040999999999999995,-0.04,-0.039,-0.037000000000000005,-0.036000000000000004,-0.035,-0.034,-0.033,-0.032,-0.03,-0.028999999999999998,-0.027000000000000003,-0.025,-0.023,-0.021,-0.019,-0.018000000000000002,-0.017,-0.015,-0.015,-0.013999999999999999,-0.015,-0.016,-0.018000000000000002,-0.02,-0.022000000000000002,-0.025,-0.026000000000000002,-0.027999999999999997,-0.028999999999999998,-0.028999999999999998,-0.028999999999999998,-0.03,-0.03,-0.03,-0.03,-0.03,-0.03,-0.03,-0.03,-0.03,-0.03,-0.03,-0.03,-0.03,-0.03,-0.03,-0.03,-0.031,-0.032,-0.033,-0.034,-0.034,-0.034,-0.033,-0.033,-0.033,-0.034,-0.034,-0.035,-0.036000000000000004,-0.035,-0.035,-0.028999999999999998,-0.024,-0.006999999999999999,0.009000000000000001,0.044000000000000004,0.08,0.138,0.196,0.27399999999999997,0.35200000000000004,0.43200000000000005,0.513,0.573,0.632,0.6509999999999999,0.67,0.643,0.617,0.555,0.493,0.41600000000000004,0.34,0.27,0.2,0.146,0.09300000000000001,0.059000000000000004,0.024,0.004,-0.016,-0.025,-0.034,-0.038,-0.043,-0.046,-0.05,-0.053,-0.055999999999999994,-0.057999999999999996,-0.059000000000000004,-0.059000000000000004,-0.057999999999999996,-0.057,-0.055999999999999994,-0.055,-0.054000000000000006,-0.053,-0.052000000000000005,-0.051,-0.051,-0.051,-0.051,-0.051,-0.052000000000000005,-0.052000000000000005,-0.052000000000000005,-0.051,-0.051,-0.051,-0.051,-0.051,-0.052000000000000005,-0.052000000000000005,-0.052000000000000005,-0.051,-0.051,-0.051,-0.05,-0.049,-0.047,-0.044000000000000004,-0.040999999999999995,-0.04,-0.039,-0.037000000000000005,-0.036000000000000004,-0.035,-0.034,-0.034,-0.033,-0.033,-0.032,-0.031,-0.03,-0.028999999999999998,-0.028999999999999998,-0.028999999999999998,-0.03,-0.028999999999999998,-0.028999999999999998,-0.027999999999999997,-0.026000000000000002,-0.024,-0.021,-0.019,-0.018000000000000002,-0.016,-0.013999999999999999,-0.012,-0.01,-0.008,-0.006,-0.003,0.0,0.003,0.005,0.008,0.011000000000000001,0.013000000000000001,0.015,0.018000000000000002,0.02,0.023,0.026000000000000002,0.027999999999999997,0.03,0.032,0.034,0.037000000000000005,0.04,0.043,0.045,0.048,0.05,0.052000000000000005,0.055,0.057,0.059000000000000004,0.061,0.063,0.065,0.066,0.068,0.07,0.071,0.073,0.073,0.073,0.07200000000000001,0.07200000000000001,0.07,0.068,0.066,0.064,0.06,0.057,0.054000000000000006,0.051,0.048,0.044000000000000004,0.04,0.035,0.031,0.027000000000000003,0.024,0.021,0.019,0.017,0.015,0.013000000000000001,0.011000000000000001,0.009000000000000001,0.005,0.002,-0.002,-0.006,-0.009000000000000001,-0.013000000000000001,-0.017,-0.02,-0.024,-0.027000000000000003,-0.028999999999999998,-0.032,-0.034,-0.036000000000000004,-0.037000000000000005,-0.038,-0.04,-0.040999999999999995,-0.043,-0.045,-0.046,-0.048,-0.048,-0.048,-0.048,-0.048,-0.048,-0.047,N,,,,,,,,,,,,,,,,,,,,,,,,,,,,,,,,,,,,,,,,,,,,,,,,,,,,,,,,,,,,,,,,,,,,,,,,,,,,,,,,,,,,,,,,,,,,,,,,,,,,,,,,,,,,,,,,,,,,,,,,,,,,,,,,,,,,,,,,,,,,,,,,,,,,,,,,,,,,,,,,,,,,,,,,,,,,,,,,,,,,,,,,,,,,,,,,,,,,,,,,,,,,,,,,,,,,,,,,,,,,,,,,,,,,,,,,,,,,,,,,,,,,,,,,,,,,,,,,,,,,,,,,,,,,,,,,,,,,,,,,,,,,,,,,,,,,,,,,,,,,,,,,,,,,,,,,,,,,,,,,,,,,,,,,,,,,,,,,,,,,,,,,,,,,,,,,,,,,,,,,,,,,,,,,,,,,,,,,,,,,,,,,,,,,,,,,,,,,,,,,,,,,,,,,,,,,,,,,,,,,,,,,,,,,,,,,,,,,,,,,,,,,,,,,,,,,,,,,,,,,,,,,,,,,,,,,,,,,,,,,,,,,,,,,,,,,,,,,,,,,,,,,,,,,,,,,,,,,,,,,,,,,,,,,,,,,,,,,,,,,,,,,,,,,,,,,,,,,,,,,,,,,,,,,,,,
1,-0.051,-0.052000000000000005,-0.053,-0.054000000000000006,-0.055,-0.055999999999999994,-0.055999999999999994,-0.057999999999999996,-0.059000000000000004,-0.059000000000000004,-0.057999999999999996,-0.057,-0.055,-0.052000000000000005,-0.049,-0.045,-0.042,-0.04,-0.038,-0.038,-0.038,-0.04,-0.040999999999999995,-0.043,-0.044000000000000004,-0.044000000000000004,-0.045,-0.044000000000000004,-0.044000000000000004,-0.043,-0.043,-0.042,-0.040999999999999995,-0.04,-0.039,-0.038,-0.037000000000000005,-0.037000000000000005,-0.037000000000000005,-0.037000000000000005,-0.037000000000000005,-0.036000000000000004,-0.036000000000000004,-0.035,-0.034,-0.034,-0.033,-0.033,-0.032,-0.03,-0.028999999999999998,-0.027000000000000003,-0.025,-0.022000000000000002,-0.02,-0.018000000000000002,-0.015,-0.012,-0.009000000000000001,-0.006,-0.004,-0.002,0.0,0.001,0.001,0.003,0.004,0.005,0.006999999999999999,0.009000000000000001,0.011000000000000001,0.011000000000000001,0.012,0.013000000000000001,0.015,0.017,0.019,0.021,0.023,0.025,0.027000000000000003,0.03,0.034,0.038,0.042,0.045,0.049,0.052000000000000005,0.055999999999999994,0.059000000000000004,0.062,0.065,0.067,0.069,0.071,0.07400000000000001,0.078,0.08199999999999999,0.086,0.08900000000000001,0.09300000000000001,0.096,0.099,0.10099999999999999,0.10300000000000001,0.10400000000000001,0.106,0.106,0.106,0.106,0.106,0.106,0.106,0.105,0.105,0.10300000000000001,0.102,0.099,0.096,0.09300000000000001,0.091,0.08800000000000001,0.086,0.08199999999999999,0.078,0.073,0.068,0.064,0.059000000000000004,0.054000000000000006,0.049,0.043,0.038,0.033,0.027000000000000003,0.023,0.019,0.016,0.013000000000000001,0.01,0.006999999999999999,0.004,0.001,-0.002,-0.005,-0.009000000000000001,-0.012,-0.015,-0.017,-0.019,-0.022000000000000002,-0.025,-0.027000000000000003,-0.028999999999999998,-0.031,-0.033,-0.034,-0.035,-0.037000000000000005,-0.037000000000000005,-0.038,-0.039,-0.04,-0.040999999999999995,-0.042,-0.043,-0.044000000000000004,-0.046,-0.048,-0.048,-0.048,-0.048,-0.048,-0.048,-0.048,-0.048,-0.048,-0.048,-0.047,-0.045,-0.044000000000000004,-0.044000000000000004,-0.044000000000000004,-0.044000000000000004,-0.044000000000000004,-0.044000000000000004,-0.044000000000000004,-0.044000000000000004,-0.044000000000000004,-0.044000000000000004,-0.044000000000000004,-0.044000000000000004,-0.044000000000000004,-0.043,-0.043,-0.043,-0.042,-0.042,-0.042,-0.042,-0.040999999999999995,-0.040999999999999995,-0.04,-0.04,-0.039,-0.038,-0.037000000000000005,-0.037000000000000005,-0.037000000000000005,-0.037000000000000005,-0.037000000000000005,-0.037000000000000005,-0.037000000000000005,-0.037000000000000005,-0.037000000000000005,-0.037000000000000005,-0.037000000000000005,-0.037000000000000005,-0.037000000000000005,-0.037000000000000005,-0.037000000000000005,-0.037000000000000005,-0.037000000000000005,-0.037000000000000005,-0.037000000000000005,-0.037000000000000005,-0.037000000000000005,-0.036000000000000004,-0.036000000000000004,-0.035,-0.034,-0.034,-0.033,-0.033,-0.033,-0.033,-0.033,-0.033,-0.033,-0.033,-0.032,-0.031,-0.03,-0.028999999999999998,-0.027999999999999997,-0.027000000000000003,-0.026000000000000002,-0.024,-0.021,-0.02,-0.019,-0.018000000000000002,-0.017,-0.016,-0.015,-0.013000000000000001,-0.01,-0.009000000000000001,-0.008,-0.006999999999999999,-0.006999999999999999,-0.006999999999999999,-0.008,-0.01,-0.012,-0.013999999999999999,-0.016,-0.018000000000000002,-0.019,-0.021,-0.022000000000000002,-0.022000000000000002,-0.023,-0.022000000000000002,-0.021,-0.02,-0.019,-0.018000000000000002,-0.018000000000000002,-0.018000000000000002,-0.019,-0.019,-0.02,-0.021,-0.022000000000000002,-0.022000000000000002,-0.023,-0.024,-0.025,-0.026000000000000002,-0.027000000000000003,-0.026000000000000002,-0.026000000000000002,-0.026000000000000002,-0.026000000000000002,-0.026000000000000002,-0.026000000000000002,-0.026000000000000002,-0.027000000000000003,-0.028999999999999998,-0.03,-0.032,-0.034,-0.035,-0.035,-0.03,-0.025,-0.01,0.005,0.039,0.073,0.131,0.18899999999999997,0.268,0.34600000000000003,0.42700000000000005,0.509,0.57,0.631,0.652,0.674,0.649,0.625,0.565,0.504,0.429,0.354,0.284,0.215,0.161,0.107,0.071,0.035,0.015,-0.006,-0.016,-0.026000000000000002,-0.031,-0.036000000000000004,-0.039,-0.042,-0.043,-0.045,-0.046,-0.048,-0.048,-0.048,-0.048,-0.048,-0.048,-0.048,-0.048,-0.048,-0.048,-0.048,-0.048,-0.048,-0.048,-0.048,-0.048,-0.047,-0.045,-0.044000000000000004,-0.043,-0.043,-0.042,-0.040999999999999995,-0.040999999999999995,-0.04,-0.04,-0.04,-0.04,-0.04,-0.04,-0.039,-0.038,-0.037000000000000005,-0.036000000000000004,-0.036000000000000004,-0.035,-0.034,-0.033,-0.032,-0.03,-0.028999999999999998,-0.027999999999999997,-0.026000000000000002,-0.025,-0.024,-0.024,-0.023,-0.022000000000000002,-0.021,-0.019,-0.018000000000000002,-0.016,-0.013999999999999999,-0.012,-0.01,-0.009000000000000001,-0.006999999999999999,-0.005,-0.003,-0.002,-0.001,0.0,0.001,0.002,0.003,0.004,0.004,0.005,0.006999999999999999,0.009000000000000001,0.012,0.013000000000000001,0.015,0.017,0.019,0.021,0.024,0.026000000000000002,0.028999999999999998,0.032,0.035,0.037000000000000005,0.04,0.043,0.046,0.05,0.053,0.057,0.06,0.064,0.067,0.07,0.07400000000000001,0.076,0.079,0.08199999999999999,0.085,0.08800000000000001,0.092,0.094,0.096,0.098,0.099,0.10099999999999999,0.10300000000000001,0.10400000000000001,0.106,0.106,0.106,0.106,0.106,0.105,0.10400000000000001,0.10099999999999999,0.098,0.096,0.094,0.091,0.08900000000000001,0.086,0.083,0.079,0.07400000000000001,0.069,0.064,0.059000000000000004,0.055,0.05,0.045,0.04,0.034,0.028999999999999998,0.024,0.021,0.017,0.015,0.012,0.009000000000000001,0.006,0.004,0.001,-0.002,-0.005,-0.009000000000000001,-0.013000000000000001,-0.017,-0.02,-0.024,-0.027000000000000003,-0.028999999999999998,-0.031,-0.033,-0.034,-0.035,-0.037000000000000005,-0.037000000000000005,-0.038,-0.039,-0.04,-0.040999999999999995,-0.042,-0.043,-0.043,-0.043,-0.044000000000000004,-0.044000000000000004,-0.045,-0.044000000000000004,-0.044000000000000004,-0.044000000000000004,-0.044000000000000004,-0.044000000000000004,-0.044000000000000004,-0.044000000000000004,-0.044000000000000004,-0.044000000000000004,-0.044000000000000004,-0.043,-0.043,-0.043,-0.042,-0.042,-0.042,-0.042,-0.040999999999999995,-0.04,-0.039,-0.038,-0.037000000000000005,-0.037000000000000005,-0.037000000000000005,-0.037000000000000005,-0.037000000000000005,-0.037000000000000005,-0.037000000000000005,-0.037000000000000005,-0.037000000000000005,-0.037000000000000005,-0.037000000000000005,-0.037000000000000005,-0.037000000000000005,-0.037000000000000005,-0.037000000000000005,-0.037000000000000005,-0.037000000000000005,-0.037000000000000005,-0.037000000000000005,-0.037000000000000005,-0.037000000000000005,-0.037000000000000005,-0.037000000000000005,-0.037000000000000005,-0.037000000000000005,-0.037000000000000005,-0.037000000000000005,-0.036000000000000004,-0.036000000000000004,-0.035,-0.034,-0.034,-0.033,-0.033,-0.033,-0.033,-0.033,-0.033,-0.033,-0.033,-0.032,-0.031,-0.03,-0.028999999999999998,-0.027999999999999997,-0.027999999999999997,-0.027000000000000003,-0.026000000000000002,-0.025,-0.025,-0.025,-0.024,-0.023,-0.022000000000000002,-0.022000000000000002,-0.021,-0.021,-0.019,-0.018000000000000002,-0.017,-0.015,-0.013999999999999999,-0.013000000000000001,-0.013000000000000001,-0.012,-0.011000000000000001,-0.01,-0.009000000000000001,-0.006999999999999999,-0.005,-0.004,-0.004,-0.005,-0.006,-0.008,-0.01,-0.012,-0.013999999999999999,-0.016,-0.017,-0.018000000000000002,-0.018000000000000002,-0.019,-0.019,-0.019,-0.019,-0.019,-0.019,-0.019,-0.019,-0.019,-0.019,-0.019,-0.019,-0.019,-0.019,-0.02,-0.021,-0.021,-0.02,-0.019,-0.018000000000000002,-0.018000000000000002,-0.018000000000000002,-0.019,-0.019,-0.02,-0.021,-0.023,-0.025,-0.026000000000000002,-0.028999999999999998,-0.031,-0.032,-0.033,-0.032,-0.031,-0.023,-0.015,0.006,0.027999999999999997,0.071,0.115,0.183,0.251,0.33299999999999996,0.415,0.49200000000000005,0.569,0.618,0.6659999999999999,0.6679999999999999,0.6709999999999999,0.629,0.588,0.519,0.451,0.376,0.301,0.23600000000000002,0.172,0.125,0.078,0.05,0.021,0.005,-0.01,-0.018000000000000002,-0.026000000000000002,-0.03,-0.034,-0.036000000000000004,-0.038,-0.04,-0.040999999999999995,-0.043,-0.044000000000000004,-0.045,-0.046,-0.046,-0.047,-0.047,-0.047,-0.046,-0.045,-0.044000000000000004,-0.044000000000000004,-0.044000000000000004,-0.044000000000000004,-0.044000000000000004,-0.044000000000000004,-0.044000000000000004,-0.044000000000000004,-0.043,-0.043,-0.042,-0.040999999999999995,-0.040999999999999995,-0.04,-0.04,-0.04,-0.04,-0.039,-0.038,-0.037000000000000005,-0.036000000000000004,-0.036000000000000004,-0.035,-0.034,-0.033,-0.032,-0.031,-0.03,-0.028999999999999998,-0.027999999999999997,-0.027000000000000003,-0.026000000000000002,-0.024,-0.021,-0.02,-0.019,-0.018000000000000002,-0.017,-0.016,-0.015,-0.013000000000000001,-0.011000000000000001,-0.011000000000000001,-0.01,-0.009000000000000001,-0.008,-0.006999999999999999,-0.006,-0.004,-0.003,-0.002,-0.001,0.0,0.001,0.003,0.004,0.005,0.006999999999999999,0.009000000000000001,0.012,0.013000000000000001,0.015,0.017,0.018000000000000002,0.019,0.02,0.021,0.022000000000000002,0.024,0.026000000000000002,0.028999999999999998,0.031,0.034,0.037000000000000005,0.040999999999999995,0.045,0.049,0.053,0.057,0.06,0.064,0.067,0.071,0.075,0.078,0.081,0.084,0.086,0.08800000000000001,0.091,0.09300000000000001,0.096,0.098,0.099,0.10099999999999999,0.10300000000000001,0.10400000000000001,0.106,0.106,0.106,0.105,0.105,0.10300000000000001,0.102,0.1,0.09699999999999999,0.095,0.09300000000000001,0.08900000000000001,0.086,0.08199999999999999,0.078,0.07400000000000001,0.07,0.066,0.061,0.057,0.052000000000000005,0.046,0.040999999999999995,0.036000000000000004,0.031,0.027000000000000003,0.023,0.019,0.016,0.013000000000000001,0.01,0.006999999999999999,0.005,0.002,-0.001,-0.004,-0.006,-0.009000000000000001,-0.012,-0.015,-0.019,-0.021,-0.024,-0.027000000000000003,-0.03,-0.032,-0.033,-0.034,-0.035,-0.035,-0.036000000000000004,-0.037000000000000005,-0.038,-0.039,-0.04,-0.040999999999999995,-0.040999999999999995,-0.040999999999999995,-0.04,-0.04,-0.04,-0.04,-0.04,-0.04,-0.04,-0.04,-0.04,-0.04,-0.04,-0.04,-0.04,-0.04,-0.04,-0.04,-0.04,-0.04,-0.04,-0.04,-0.04,-0.04,-0.039,-0.038,-0.038,-0.038,-0.039,-0.039,-0.039,-0.04,-0.04,-0.040999999999999995,-0.040999999999999995,-0.040999999999999995,-0.04,-0.04,-0.04,-0.04,-0.04,-0.04,-0.039,-0.038,-0.037000000000000005,-0.036000000000000004,-0.036000000000000004,-0.035,-0.034,-0.034,-0.033,-0.033,-0.033,-0.033,-0.033,-0.033,-0.033,-0.033,-0.033,-0.033,-0.033,-0.033,-0.033,-0.033,-0.033,-0.033,-0.033,-0.034,-0.035,-0.038,-0.042,-0.047,-0.052000000000000005,-0.053,-0.054000000000000006,-0.049,-0.043,-0.034,-0.025,-0.016,-0.006999999999999999,-0.003,0.002,0.002,0.001,-0.002,-0.005,-0.006,-0.008,-0.008,-0.008,-0.006999999999999999,-0.006,-0.005,-0.004,-0.004,-0.004,-0.004,-0.005,-0.006,-0.008,-0.01,-0.012,-0.013999999999999999,-0.016,-0.017,-0.018000000000000002,-0.018000000000000002,-0.019,-0.018000000000000002,-0.018000000000000002,-0.017,-0.016,-0.015,-0.015,-0.015,-0.015,-0.017,-0.018000000000000002,-0.018000000000000002,-0.019,-0.019,-0.019,-0.019,-0.02,-0.021,-0.022000000000000002,-0.022000000000000002,-0.022000000000000002,-0.022000000000000002,-0.022000000000000002,-0.022000000000000002,-0.023,-0.025,-0.026000000000000002,-0.028999999999999998,-0.031,-0.033,-0.034,-0.035,-0.036000000000000004,-0.034,-0.031,-0.021,-0.011000000000000001,0.015,0.042,0.09300000000000001,0.145,0.222,N
2,-0.045,-0.046,-0.048,-0.048,-0.048,-0.048,-0.048,-0.048,-0.048,-0.048,-0.048,-0.048,-0.048,-0.048,-0.048,-0.048,-0.048,-0.048,-0.047,-0.045,-0.044000000000000004,-0.043,-0.043,-0.042,-0.040999999999999995,-0.040999999999999995,-0.04,-0.04,-0.04,-0.04,-0.04,-0.04,-0.039,-0.038,-0.037000000000000005,-0.036000000000000004,-0.036000000000000004,-0.035,-0.034,-0.033,-0.032,-0.03,-0.028999999999999998,-0.027999999999999997,-0.026000000000000002,-0.025,-0.024,-0.024,-0.023,-0.022000000000000002,-0.021,-0.019,-0.018000000000000002,-0.016,-0.013999999999999999,-0.012,-0.01,-0.009000000000000001,-0.006999999999999999,-0.005,-0.003,-0.002,-0.001,0.0,0.001,0.002,0.003,0.004,0.004,0.005,0.006999999999999999,0.009000000000000001,0.012,0.013000000000000001,0.015,0.017,0.019,0.021,0.024,0.026000000000000002,0.028999999999999998,0.032,0.035,0.037000000000000005,0.04,0.043,0.046,0.05,0.053,0.057,0.06,0.064,0.067,0.07,0.07400000000000001,0.076,0.079,0.08199999999999999,0.085,0.08800000000000001,0.092,0.094,0.096,0.098,0.099,0.10099999999999999,0.10300000000000001,0.10400000000000001,0.106,0.106,0.106,0.106,0.106,0.105,0.10400000000000001,0.10099999999999999,0.098,0.096,0.094,0.091,0.08900000000000001,0.086,0.083,0.079,0.07400000000000001,0.069,0.064,0.059000000000000004,0.055,0.05,0.045,0.04,0.034,0.028999999999999998,0.024,0.021,0.017,0.015,0.012,0.009000000000000001,0.006,0.004,0.001,-0.002,-0.005,-0.009000000000000001,-0.013000000000000001,-0.017,-0.02,-0.024,-0.027000000000000003,-0.028999999999999998,-0.031,-0.033,-0.034,-0.035,-0.037000000000000005,-0.037000000000000005,-0.038,-0.039,-0.04,-0.040999999999999995,-0.042,-0.043,-0.043,-0.043,-0.044000000000000004,-0.044000000000000004,-0.045,-0.044000000000000004,-0.044000000000000004,-0.044000000000000004,-0.044000000000000004,-0.044000000000000004,-0.044000000000000004,-0.044000000000000004,-0.044000000000000004,-0.044000000000000004,-0.044000000000000004,-0.043,-0.043,-0.043,-0.042,-0.042,-0.042,-0.042,-0.040999999999999995,-0.04,-0.039,-0.038,-0.037000000000000005,-0.037000000000000005,-0.037000000000000005,-0.037000000000000005,-0.037000000000000005,-0.037000000000000005,-0.037000000000000005,-0.037000000000000005,-0.037000000000000005,-0.037000000000000005,-0.037000000000000005,-0.037000000000000005,-0.037000000000000005,-0.037000000000000005,-0.037000000000000005,-0.037000000000000005,-0.037000000000000005,-0.037000000000000005,-0.037000000000000005,-0.037000000000000005,-0.037000000000000005,-0.037000000000000005,-0.037000000000000005,-0.037000000000000005,-0.037000000000000005,-0.037000000000000005,-0.037000000000000005,-0.036000000000000004,-0.036000000000000004,-0.035,-0.034,-0.034,-0.033,-0.033,-0.033,-0.033,-0.033,-0.033,-0.033,-0.033,-0.032,-0.031,-0.03,-0.028999999999999998,-0.027999999999999997,-0.027999999999999997,-0.027000000000000003,-0.026000000000000002,-0.025,-0.025,-0.025,-0.024,-0.023,-0.022000000000000002,-0.022000000000000002,-0.021,-0.021,-0.019,-0.018000000000000002,-0.017,-0.015,-0.013999999999999999,-0.013000000000000001,-0.013000000000000001,-0.012,-0.011000000000000001,-0.01,-0.009000000000000001,-0.006999999999999999,-0.005,-0.004,-0.004,-0.005,-0.006,-0.008,-0.01,-0.012,-0.013999999999999999,-0.016,-0.017,-0.018000000000000002,-0.018000000000000002,-0.019,-0.019,-0.019,-0.019,-0.019,-0.019,-0.019,-0.019,-0.019,-0.019,-0.019,-0.019,-0.019,-0.019,-0.02,-0.021,-0.021,-0.02,-0.019,-0.018000000000000002,-0.018000000000000002,-0.018000000000000002,-0.019,-0.019,-0.02,-0.021,-0.023,-0.025,-0.026000000000000002,-0.028999999999999998,-0.031,-0.032,-0.033,-0.032,-0.031,-0.023,-0.015,0.006,0.027999999999999997,0.071,0.115,0.183,0.251,0.33299999999999996,0.415,0.49200000000000005,0.569,0.618,0.6659999999999999,0.6679999999999999,0.6709999999999999,0.629,0.588,0.519,0.451,0.376,0.301,0.23600000000000002,0.172,0.125,0.078,0.05,0.021,0.005,-0.01,-0.018000000000000002,-0.026000000000000002,-0.03,-0.034,-0.036000000000000004,-0.038,-0.04,-0.040999999999999995,-0.043,-0.044000000000000004,-0.045,-0.046,-0.046,-0.047,-0.047,-0.047,-0.046,-0.045,-0.044000000000000004,-0.044000000000000004,-0.044000000000000004,-0.044000000000000004,-0.044000000000000004,-0.044000000000000004,-0.044000000000000004,-0.044000000000000004,-0.043,-0.043,-0.042,-0.040999999999999995,-0.040999999999999995,-0.04,-0.04,-0.04,-0.04,-0.039,-0.038,-0.037000000000000005,-0.036000000000000004,-0.036000000000000004,-0.035,-0.034,-0.033,-0.032,-0.031,-0.03,-0.028999999999999998,-0.027999999999999997,-0.027000000000000003,-0.026000000000000002,-0.024,-0.021,-0.02,-0.019,-0.018000000000000002,-0.017,-0.016,-0.015,-0.013000000000000001,-0.011000000000000001,-0.011000000000000001,-0.01,-0.009000000000000001,-0.008,-0.006999999999999999,-0.006,-0.004,-0.003,-0.002,-0.001,0.0,0.001,0.003,0.004,0.005,0.006999999999999999,0.009000000000000001,0.012,0.013000000000000001,0.015,0.017,0.018000000000000002,0.019,0.02,0.021,0.022000000000000002,0.024,0.026000000000000002,0.028999999999999998,0.031,0.034,0.037000000000000005,0.040999999999999995,0.045,0.049,0.053,0.057,0.06,0.064,0.067,0.071,0.075,0.078,0.081,0.084,0.086,0.08800000000000001,0.091,0.09300000000000001,0.096,0.098,0.099,0.10099999999999999,0.10300000000000001,0.10400000000000001,0.106,0.106,0.106,0.105,0.105,0.10300000000000001,0.102,0.1,0.09699999999999999,0.095,0.09300000000000001,0.08900000000000001,0.086,0.08199999999999999,0.078,0.07400000000000001,0.07,0.066,0.061,0.057,0.052000000000000005,0.046,0.040999999999999995,0.036000000000000004,0.031,0.027000000000000003,0.023,0.019,0.016,0.013000000000000001,0.01,0.006999999999999999,0.005,0.002,-0.001,-0.004,-0.006,-0.009000000000000001,-0.012,-0.015,-0.019,-0.021,-0.024,-0.027000000000000003,-0.03,-0.032,-0.033,-0.034,-0.035,-0.035,-0.036000000000000004,-0.037000000000000005,-0.038,-0.039,-0.04,-0.040999999999999995,-0.040999999999999995,-0.040999999999999995,-0.04,-0.04,-0.04,-0.04,-0.04,-0.04,-0.04,-0.04,-0.04,-0.04,-0.04,-0.04,-0.04,-0.04,-0.04,-0.04,-0.04,-0.04,-0.04,-0.04,-0.04,-0.04,-0.039,-0.038,-0.038,-0.038,-0.039,-0.039,-0.039,-0.04,-0.04,-0.040999999999999995,-0.040999999999999995,-0.040999999999999995,-0.04,-0.04,-0.04,-0.04,-0.04,-0.04,-0.039,-0.038,-0.037000000000000005,-0.036000000000000004,-0.036000000000000004,-0.035,-0.034,-0.034,-0.033,-0.033,-0.033,-0.033,-0.033,-0.033,-0.033,-0.033,-0.033,-0.033,-0.033,-0.033,-0.033,-0.033,-0.033,-0.033,-0.033,-0.034,-0.035,-0.038,-0.042,-0.047,-0.052000000000000005,-0.053,-0.054000000000000006,-0.049,-0.043,-0.034,-0.025,-0.016,-0.006999999999999999,-0.003,0.002,0.002,0.001,-0.002,-0.005,-0.006,-0.008,-0.008,-0.008,-0.006999999999999999,-0.006,-0.005,-0.004,-0.004,-0.004,-0.004,-0.005,-0.006,-0.008,-0.01,-0.012,-0.013999999999999999,-0.016,-0.017,-0.018000000000000002,-0.018000000000000002,-0.019,-0.018000000000000002,-0.018000000000000002,-0.017,-0.016,-0.015,-0.015,-0.015,-0.015,-0.017,-0.018000000000000002,-0.018000000000000002,-0.019,-0.019,-0.019,-0.019,-0.02,-0.021,-0.022000000000000002,-0.022000000000000002,-0.022000000000000002,-0.022000000000000002,-0.022000000000000002,-0.022000000000000002,-0.023,-0.025,-0.026000000000000002,-0.028999999999999998,-0.031,-0.033,-0.034,-0.035,-0.036000000000000004,-0.034,-0.031,-0.021,-0.011000000000000001,0.015,0.042,0.09300000000000001,0.145,0.222,0.298,0.387,0.475,0.55,0.625,0.66,0.696,0.6809999999999999,0.6659999999999999,0.612,0.557,0.48200000000000004,0.40700000000000003,0.33299999999999996,0.258,0.19699999999999998,0.136,0.09300000000000001,0.051,0.026000000000000002,0.001,-0.012,-0.025,-0.033,-0.04,-0.045,-0.05,-0.054000000000000006,-0.057999999999999996,-0.062,-0.066,-0.069,-0.071,-0.07200000000000001,-0.073,-0.073,-0.073,-0.07,-0.068,-0.063,-0.057999999999999996,-0.05,-0.042,-0.034,-0.026000000000000002,-0.019,-0.013000000000000001,-0.011000000000000001,-0.008,-0.01,-0.012,-0.016,-0.02,-0.024,-0.027999999999999997,-0.03,-0.033,-0.034,-0.034,-0.034,-0.034,-0.035,-0.035,-0.035,-0.034,-0.033,-0.032,-0.031,-0.03,-0.028999999999999998,-0.027999999999999997,-0.027999999999999997,-0.027000000000000003,-0.025,-0.024,-0.024,-0.023,-0.022000000000000002,-0.021,-0.019,-0.018000000000000002,-0.016,-0.013999999999999999,-0.013000000000000001,-0.011000000000000001,-0.011000000000000001,-0.01,-0.009000000000000001,-0.006999999999999999,-0.005,-0.003,-0.002,0.0,0.002,0.004,0.006,0.008,0.01,0.012,0.013000000000000001,0.013999999999999999,0.015,0.016,0.017,0.017,0.018000000000000002,0.02,0.021,0.022000000000000002,0.025,0.027000000000000003,0.03,0.034,0.038,0.042,0.045,0.049,0.052000000000000005,0.055999999999999994,0.059000000000000004,0.063,0.067,0.071,0.07400000000000001,0.078,0.08199999999999999,0.085,0.087,0.08900000000000001,0.091,0.09300000000000001,0.096,0.098,0.1,0.102,0.10300000000000001,0.10400000000000001,0.10400000000000001,0.105,0.105,0.105,0.10300000000000001,0.102,0.1,0.09699999999999999,0.096,0.094,0.091,0.08900000000000001,0.086,0.083,0.079,0.075,0.071,0.067,0.063,0.059000000000000004,0.054000000000000006,0.049,0.043,0.038,0.032,0.026000000000000002,0.021,0.017,0.015,0.012,0.009000000000000001,0.006,0.004,0.002,0.0,-0.002,-0.005,-0.009000000000000001,-0.013000000000000001,-0.017,-0.02,-0.023,-0.025,-0.027999999999999997,-0.03,-0.033,-0.034,-0.035,-0.036000000000000004,-0.037000000000000005,-0.038,-0.04,-0.040999999999999995,-0.040999999999999995,-0.040999999999999995,-0.040999999999999995,-0.042,-0.043,-0.043,-0.044000000000000004,-0.044000000000000004,-0.045,-0.044000000000000004,-0.044000000000000004,-0.044000000000000004,-0.044000000000000004,-0.044000000000000004,-0.044000000000000004,-0.044000000000000004,-0.044000000000000004,-0.044000000000000004,-0.044000000000000004,-0.043,-0.043,-0.042,-0.040999999999999995,-0.040999999999999995,-0.04,-0.04,-0.04,-0.04,-0.039,-0.038,-0.037000000000000005,-0.037000000000000005,-0.037000000000000005,-0.037000000000000005,-0.037000000000000005,-0.037000000000000005,-0.037000000000000005,-0.037000000000000005,-0.037000000000000005,-0.037000000000000005,-0.037000000000000005,-0.037000000000000005,-0.037000000000000005,-0.037000000000000005,-0.037000000000000005,-0.037000000000000005,-0.037000000000000005,-0.037000000000000005,-0.037000000000000005,-0.037000000000000005,-0.037000000000000005,-0.037000000000000005,-0.037000000000000005,-0.036000000000000004,-0.036000000000000004,-0.035,-0.034,-0.034,-0.034,-0.035,-0.036000000000000004,-0.036000000000000004,-0.037000000000000005,-0.037000000000000005,-0.037000000000000005,-0.037000000000000005,-0.037000000000000005,-0.037000000000000005,-0.037000000000000005,-0.036000000000000004,-0.036000000000000004,-0.035,-0.034,-0.034,-0.033,-0.033,-0.032,-0.03,-0.028999999999999998,-0.027999999999999997,-0.026000000000000002,-0.025,-0.024,-0.023,-0.022000000000000002,-0.021,-0.019,-0.018000000000000002,-0.017,-0.016,-0.015,-0.013000000000000001,-0.01,-0.009000000000000001,-0.009000000000000001,-0.009000000000000001,-0.01,-0.011000000000000001,-0.013000000000000001,-0.016,-0.019,-0.021,-0.022000000000000002,-0.022000000000000002,-0.023,-0.022000000000000002,-0.022000000000000002,-0.022000000000000002,-0.022000000000000002,-0.021,-0.021,-0.02,-0.019,-0.018000000000000002,-0.017,-0.017,-0.017,-0.018000000000000002,-0.018000000000000002,-0.018000000000000002,-0.019,-0.019,-0.019,-0.019,-0.02,-0.021,-0.021,-0.021,-0.02,-0.021,-0.021,-0.021,-0.022000000000000002,-0.022000000000000002,-0.023,-0.025,-0.026000000000000002,-0.027999999999999997,-0.03,-0.028999999999999998,-0.028999999999999998,-0.025,-0.021,-0.006,0.008,0.040999999999999995,0.073,0.131,0.188,0.265,0.341,0.418,N
3,-0.038,-0.04,-0.040999999999999995,-0.043,-0.044000000000000004,-0.045,-0.046,-0.046,-0.047,-0.047,-0.047,-0.046,-0.045,-0.044000000000000004,-0.044000000000000004,-0.044000000000000004,-0.044000000000000004,-0.044000000000000004,-0.044000000000000004,-0.044000000000000004,-0.044000000000000004,-0.043,-0.043,-0.042,-0.040999999999999995,-0.040999999999999995,-0.04,-0.04,-0.04,-0.04,-0.039,-0.038,-0.037000000000000005,-0.036000000000000004,-0.036000000000000004,-0.035,-0.034,-0.033,-0.032,-0.031,-0.03,-0.028999999999999998,-0.027999999999999997,-0.027000000000000003,-0.026000000000000002,-0.024,-0.021,-0.02,-0.019,-0.018000000000000002,-0.017,-0.016,-0.015,-0.013000000000000001,-0.011000000000000001,-0.011000000000000001,-0.01,-0.009000000000000001,-0.008,-0.006999999999999999,-0.006,-0.004,-0.003,-0.002,-0.001,0.0,0.001,0.003,0.004,0.005,0.006999999999999999,0.009000000000000001,0.012,0.013000000000000001,0.015,0.017,0.018000000000000002,0.019,0.02,0.021,0.022000000000000002,0.024,0.026000000000000002,0.028999999999999998,0.031,0.034,0.037000000000000005,0.040999999999999995,0.045,0.049,0.053,0.057,0.06,0.064,0.067,0.071,0.075,0.078,0.081,0.084,0.086,0.08800000000000001,0.091,0.09300000000000001,0.096,0.098,0.099,0.10099999999999999,0.10300000000000001,0.10400000000000001,0.106,0.106,0.106,0.105,0.105,0.10300000000000001,0.102,0.1,0.09699999999999999,0.095,0.09300000000000001,0.08900000000000001,0.086,0.08199999999999999,0.078,0.07400000000000001,0.07,0.066,0.061,0.057,0.052000000000000005,0.046,0.040999999999999995,0.036000000000000004,0.031,0.027000000000000003,0.023,0.019,0.016,0.013000000000000001,0.01,0.006999999999999999,0.005,0.002,-0.001,-0.004,-0.006,-0.009000000000000001,-0.012,-0.015,-0.019,-0.021,-0.024,-0.027000000000000003,-0.03,-0.032,-0.033,-0.034,-0.035,-0.035,-0.036000000000000004,-0.037000000000000005,-0.038,-0.039,-0.04,-0.040999999999999995,-0.040999999999999995,-0.040999999999999995,-0.04,-0.04,-0.04,-0.04,-0.04,-0.04,-0.04,-0.04,-0.04,-0.04,-0.04,-0.04,-0.04,-0.04,-0.04,-0.04,-0.04,-0.04,-0.04,-0.04,-0.04,-0.04,-0.039,-0.038,-0.038,-0.038,-0.039,-0.039,-0.039,-0.04,-0.04,-0.040999999999999995,-0.040999999999999995,-0.040999999999999995,-0.04,-0.04,-0.04,-0.04,-0.04,-0.04,-0.039,-0.038,-0.037000000000000005,-0.036000000000000004,-0.036000000000000004,-0.035,-0.034,-0.034,-0.033,-0.033,-0.033,-0.033,-0.033,-0.033,-0.033,-0.033,-0.033,-0.033,-0.033,-0.033,-0.033,-0.033,-0.033,-0.033,-0.033,-0.034,-0.035,-0.038,-0.042,-0.047,-0.052000000000000005,-0.053,-0.054000000000000006,-0.049,-0.043,-0.034,-0.025,-0.016,-0.006999999999999999,-0.003,0.002,0.002,0.001,-0.002,-0.005,-0.006,-0.008,-0.008,-0.008,-0.006999999999999999,-0.006,-0.005,-0.004,-0.004,-0.004,-0.004,-0.005,-0.006,-0.008,-0.01,-0.012,-0.013999999999999999,-0.016,-0.017,-0.018000000000000002,-0.018000000000000002,-0.019,-0.018000000000000002,-0.018000000000000002,-0.017,-0.016,-0.015,-0.015,-0.015,-0.015,-0.017,-0.018000000000000002,-0.018000000000000002,-0.019,-0.019,-0.019,-0.019,-0.02,-0.021,-0.022000000000000002,-0.022000000000000002,-0.022000000000000002,-0.022000000000000002,-0.022000000000000002,-0.022000000000000002,-0.023,-0.025,-0.026000000000000002,-0.028999999999999998,-0.031,-0.033,-0.034,-0.035,-0.036000000000000004,-0.034,-0.031,-0.021,-0.011000000000000001,0.015,0.042,0.09300000000000001,0.145,0.222,0.298,0.387,0.475,0.55,0.625,0.66,0.696,0.6809999999999999,0.6659999999999999,0.612,0.557,0.48200000000000004,0.40700000000000003,0.33299999999999996,0.258,0.19699999999999998,0.136,0.09300000000000001,0.051,0.026000000000000002,0.001,-0.012,-0.025,-0.033,-0.04,-0.045,-0.05,-0.054000000000000006,-0.057999999999999996,-0.062,-0.066,-0.069,-0.071,-0.07200000000000001,-0.073,-0.073,-0.073,-0.07,-0.068,-0.063,-0.057999999999999996,-0.05,-0.042,-0.034,-0.026000000000000002,-0.019,-0.013000000000000001,-0.011000000000000001,-0.008,-0.01,-0.012,-0.016,-0.02,-0.024,-0.027999999999999997,-0.03,-0.033,-0.034,-0.034,-0.034,-0.034,-0.035,-0.035,-0.035,-0.034,-0.033,-0.032,-0.031,-0.03,-0.028999999999999998,-0.027999999999999997,-0.027999999999999997,-0.027000000000000003,-0.025,-0.024,-0.024,-0.023,-0.022000000000000002,-0.021,-0.019,-0.018000000000000002,-0.016,-0.013999999999999999,-0.013000000000000001,-0.011000000000000001,-0.011000000000000001,-0.01,-0.009000000000000001,-0.006999999999999999,-0.005,-0.003,-0.002,0.0,0.002,0.004,0.006,0.008,0.01,0.012,0.013000000000000001,0.013999999999999999,0.015,0.016,0.017,0.017,0.018000000000000002,0.02,0.021,0.022000000000000002,0.025,0.027000000000000003,0.03,0.034,0.038,0.042,0.045,0.049,0.052000000000000005,0.055999999999999994,0.059000000000000004,0.063,0.067,0.071,0.07400000000000001,0.078,0.08199999999999999,0.085,0.087,0.08900000000000001,0.091,0.09300000000000001,0.096,0.098,0.1,0.102,0.10300000000000001,0.10400000000000001,0.10400000000000001,0.105,0.105,0.105,0.10300000000000001,0.102,0.1,0.09699999999999999,0.096,0.094,0.091,0.08900000000000001,0.086,0.083,0.079,0.075,0.071,0.067,0.063,0.059000000000000004,0.054000000000000006,0.049,0.043,0.038,0.032,0.026000000000000002,0.021,0.017,0.015,0.012,0.009000000000000001,0.006,0.004,0.002,0.0,-0.002,-0.005,-0.009000000000000001,-0.013000000000000001,-0.017,-0.02,-0.023,-0.025,-0.027999999999999997,-0.03,-0.033,-0.034,-0.035,-0.036000000000000004,-0.037000000000000005,-0.038,-0.04,-0.040999999999999995,-0.040999999999999995,-0.040999999999999995,-0.040999999999999995,-0.042,-0.043,-0.043,-0.044000000000000004,-0.044000000000000004,-0.045,-0.044000000000000004,-0.044000000000000004,-0.044000000000000004,-0.044000000000000004,-0.044000000000000004,-0.044000000000000004,-0.044000000000000004,-0.044000000000000004,-0.044000000000000004,-0.044000000000000004,-0.043,-0.043,-0.042,-0.040999999999999995,-0.040999999999999995,-0.04,-0.04,-0.04,-0.04,-0.039,-0.038,-0.037000000000000005,-0.037000000000000005,-0.037000000000000005,-0.037000000000000005,-0.037000000000000005,-0.037000000000000005,-0.037000000000000005,-0.037000000000000005,-0.037000000000000005,-0.037000000000000005,-0.037000000000000005,-0.037000000000000005,-0.037000000000000005,-0.037000000000000005,-0.037000000000000005,-0.037000000000000005,-0.037000000000000005,-0.037000000000000005,-0.037000000000000005,-0.037000000000000005,-0.037000000000000005,-0.037000000000000005,-0.037000000000000005,-0.036000000000000004,-0.036000000000000004,-0.035,-0.034,-0.034,-0.034,-0.035,-0.036000000000000004,-0.036000000000000004,-0.037000000000000005,-0.037000000000000005,-0.037000000000000005,-0.037000000000000005,-0.037000000000000005,-0.037000000000000005,-0.037000000000000005,-0.036000000000000004,-0.036000000000000004,-0.035,-0.034,-0.034,-0.033,-0.033,-0.032,-0.03,-0.028999999999999998,-0.027999999999999997,-0.026000000000000002,-0.025,-0.024,-0.023,-0.022000000000000002,-0.021,-0.019,-0.018000000000000002,-0.017,-0.016,-0.015,-0.013000000000000001,-0.01,-0.009000000000000001,-0.009000000000000001,-0.009000000000000001,-0.01,-0.011000000000000001,-0.013000000000000001,-0.016,-0.019,-0.021,-0.022000000000000002,-0.022000000000000002,-0.023,-0.022000000000000002,-0.022000000000000002,-0.022000000000000002,-0.022000000000000002,-0.021,-0.021,-0.02,-0.019,-0.018000000000000002,-0.017,-0.017,-0.017,-0.018000000000000002,-0.018000000000000002,-0.018000000000000002,-0.019,-0.019,-0.019,-0.019,-0.02,-0.021,-0.021,-0.021,-0.02,-0.021,-0.021,-0.021,-0.022000000000000002,-0.022000000000000002,-0.023,-0.025,-0.026000000000000002,-0.027999999999999997,-0.03,-0.028999999999999998,-0.028999999999999998,-0.025,-0.021,-0.006,0.008,0.040999999999999995,0.073,0.131,0.188,0.265,0.341,0.418,0.495,0.5489999999999999,0.604,0.62,0.636,0.61,0.583,0.526,0.469,0.401,0.332,0.26899999999999996,0.20600000000000002,0.158,0.11,0.079,0.047,0.03,0.013000000000000001,0.004,-0.005,-0.013000000000000001,-0.02,-0.027999999999999997,-0.036000000000000004,-0.043,-0.049,-0.052000000000000005,-0.055999999999999994,-0.055999999999999994,-0.055,-0.052000000000000005,-0.05,-0.046,-0.043,-0.04,-0.036000000000000004,-0.035,-0.033,-0.034,-0.034,-0.035,-0.037000000000000005,-0.038,-0.04,-0.040999999999999995,-0.040999999999999995,-0.040999999999999995,-0.04,-0.04,-0.04,-0.04,-0.04,-0.04,-0.04,-0.039,-0.038,-0.035,-0.031,-0.025,-0.019,-0.013000000000000001,-0.006999999999999999,-0.003,0.001,0.002,0.003,0.001,-0.002,-0.005,-0.008,-0.01,-0.012,-0.013000000000000001,-0.013000000000000001,-0.013000000000000001,-0.013000000000000001,-0.013000000000000001,-0.012,-0.011000000000000001,-0.011000000000000001,-0.011000000000000001,-0.01,-0.009000000000000001,-0.006999999999999999,-0.005,-0.003,-0.002,0.0,0.002,0.003,0.004,0.005,0.006,0.006999999999999999,0.006999999999999999,0.006999999999999999,0.006999999999999999,0.006999999999999999,0.006999999999999999,0.008,0.009000000000000001,0.011000000000000001,0.013000000000000001,0.015,0.017,0.018000000000000002,0.019,0.02,0.022000000000000002,0.025,0.033,0.04,0.051,0.063,0.07400000000000001,0.086,0.092,0.098,0.1,0.10099999999999999,0.1,0.099,0.096,0.092,0.08800000000000001,0.084,0.08199999999999999,0.08,0.08199999999999999,0.084,0.091,0.098,0.107,0.11699999999999999,0.124,0.132,0.134,0.135,0.133,0.13,0.124,0.11900000000000001,0.113,0.107,0.102,0.09699999999999999,0.092,0.087,0.081,0.075,0.069,0.063,0.055999999999999994,0.049,0.038,0.027999999999999997,0.015,0.003,-0.004,-0.012,-0.013000000000000001,-0.013000000000000001,-0.006999999999999999,-0.001,0.003,0.006,0.001,-0.004,-0.015,-0.026000000000000002,-0.035,-0.045,-0.049,-0.053,-0.051,-0.048,-0.04,-0.032,-0.024,-0.016,-0.01,-0.004,-0.001,0.003,0.004,0.004,0.001,-0.003,-0.006999999999999999,-0.011000000000000001,-0.015,-0.019,-0.023,-0.027000000000000003,-0.03,-0.034,-0.036000000000000004,-0.038,-0.039,-0.04,-0.040999999999999995,-0.040999999999999995,-0.040999999999999995,-0.04,-0.04,-0.04,-0.04,-0.04,-0.04,-0.039,-0.038,-0.038,-0.039,-0.04,-0.040999999999999995,-0.040999999999999995,-0.040999999999999995,-0.04,-0.04,-0.04,-0.04,-0.04,-0.040999999999999995,-0.040999999999999995,-0.044000000000000004,-0.047,-0.053,-0.06,-0.067,-0.073,-0.077,-0.08199999999999999,-0.085,-0.087,-0.085,-0.08199999999999999,-0.07400000000000001,-0.066,-0.054000000000000006,-0.043,-0.03,-0.018000000000000002,-0.009000000000000001,0.001,0.005,0.009000000000000001,0.006,0.004,-0.004,-0.012,-0.021,-0.031,-0.037000000000000005,-0.043,-0.044000000000000004,-0.045,-0.040999999999999995,-0.036000000000000004,-0.028999999999999998,-0.021,-0.015,-0.01,-0.009000000000000001,-0.009000000000000001,-0.011000000000000001,-0.013999999999999999,-0.017,-0.02,-0.021,-0.023,-0.022000000000000002,-0.021,-0.019,-0.018000000000000002,-0.017,-0.015,-0.013999999999999999,-0.013000000000000001,-0.012,-0.011000000000000001,-0.009000000000000001,-0.008,-0.006999999999999999,-0.006999999999999999,-0.006999999999999999,-0.008,-0.01,-0.012,-0.013999999999999999,-0.016,-0.017,-0.018000000000000002,-0.018000000000000002,-0.019,-0.019,-0.019,-0.019,-0.019,-0.019,-0.019,-0.019,-0.019,-0.019,-0.019,-0.019,-0.019,-0.019,-0.02,-0.021,-0.022000000000000002,-0.022000000000000002,-0.023,-0.024,-0.024,-0.024,-0.024,-0.023,-0.022000000000000002,-0.022000000000000002,-0.023,-0.024,-0.025,-0.027000000000000003,-0.028999999999999998,-0.03,-0.032,-0.032,-0.032,-0.025,-0.019,-0.001,0.018000000000000002,0.055999999999999994,0.09300000000000001,0.155,0.217,0.299,0.382,0.465,0.5479999999999999,0.606,N
4,-0.054000000000000006,-0.057999999999999996,-0.062,-0.066,-0.069,-0.071,-0.07200000000000001,-0.073,-0.073,-0.073,-0.07,-0.068,-0.063,-0.057999999999999996,-0.05,-0.042,-0.034,-0.026000000000000002,-0.019,-0.013000000000000001,-0.011000000000000001,-0.008,-0.01,-0.012,-0.016,-0.02,-0.024,-0.027999999999999997,-0.03,-0.033,-0.034,-0.034,-0.034,-0.034,-0.035,-0.035,-0.035,-0.034,-0.033,-0.032,-0.031,-0.03,-0.028999999999999998,-0.027999999999999997,-0.027999999999999997,-0.027000000000000003,-0.025,-0.024,-0.024,-0.023,-0.022000000000000002,-0.021,-0.019,-0.018000000000000002,-0.016,-0.013999999999999999,-0.013000000000000001,-0.011000000000000001,-0.011000000000000001,-0.01,-0.009000000000000001,-0.006999999999999999,-0.005,-0.003,-0.002,0.0,0.002,0.004,0.006,0.008,0.01,0.012,0.013000000000000001,0.013999999999999999,0.015,0.016,0.017,0.017,0.018000000000000002,0.02,0.021,0.022000000000000002,0.025,0.027000000000000003,0.03,0.034,0.038,0.042,0.045,0.049,0.052000000000000005,0.055999999999999994,0.059000000000000004,0.063,0.067,0.071,0.07400000000000001,0.078,0.08199999999999999,0.085,0.087,0.08900000000000001,0.091,0.09300000000000001,0.096,0.098,0.1,0.102,0.10300000000000001,0.10400000000000001,0.10400000000000001,0.105,0.105,0.105,0.10300000000000001,0.102,0.1,0.09699999999999999,0.096,0.094,0.091,0.08900000000000001,0.086,0.083,0.079,0.075,0.071,0.067,0.063,0.059000000000000004,0.054000000000000006,0.049,0.043,0.038,0.032,0.026000000000000002,0.021,0.017,0.015,0.012,0.009000000000000001,0.006,0.004,0.002,0.0,-0.002,-0.005,-0.009000000000000001,-0.013000000000000001,-0.017,-0.02,-0.023,-0.025,-0.027999999999999997,-0.03,-0.033,-0.034,-0.035,-0.036000000000000004,-0.037000000000000005,-0.038,-0.04,-0.040999999999999995,-0.040999999999999995,-0.040999999999999995,-0.040999999999999995,-0.042,-0.043,-0.043,-0.044000000000000004,-0.044000000000000004,-0.045,-0.044000000000000004,-0.044000000000000004,-0.044000000000000004,-0.044000000000000004,-0.044000000000000004,-0.044000000000000004,-0.044000000000000004,-0.044000000000000004,-0.044000000000000004,-0.044000000000000004,-0.043,-0.043,-0.042,-0.040999999999999995,-0.040999999999999995,-0.04,-0.04,-0.04,-0.04,-0.039,-0.038,-0.037000000000000005,-0.037000000000000005,-0.037000000000000005,-0.037000000000000005,-0.037000000000000005,-0.037000000000000005,-0.037000000000000005,-0.037000000000000005,-0.037000000000000005,-0.037000000000000005,-0.037000000000000005,-0.037000000000000005,-0.037000000000000005,-0.037000000000000005,-0.037000000000000005,-0.037000000000000005,-0.037000000000000005,-0.037000000000000005,-0.037000000000000005,-0.037000000000000005,-0.037000000000000005,-0.037000000000000005,-0.037000000000000005,-0.036000000000000004,-0.036000000000000004,-0.035,-0.034,-0.034,-0.034,-0.035,-0.036000000000000004,-0.036000000000000004,-0.037000000000000005,-0.037000000000000005,-0.037000000000000005,-0.037000000000000005,-0.037000000000000005,-0.037000000000000005,-0.037000000000000005,-0.036000000000000004,-0.036000000000000004,-0.035,-0.034,-0.034,-0.033,-0.033,-0.032,-0.03,-0.028999999999999998,-0.027999999999999997,-0.026000000000000002,-0.025,-0.024,-0.023,-0.022000000000000002,-0.021,-0.019,-0.018000000000000002,-0.017,-0.016,-0.015,-0.013000000000000001,-0.01,-0.009000000000000001,-0.009000000000000001,-0.009000000000000001,-0.01,-0.011000000000000001,-0.013000000000000001,-0.016,-0.019,-0.021,-0.022000000000000002,-0.022000000000000002,-0.023,-0.022000000000000002,-0.022000000000000002,-0.022000000000000002,-0.022000000000000002,-0.021,-0.021,-0.02,-0.019,-0.018000000000000002,-0.017,-0.017,-0.017,-0.018000000000000002,-0.018000000000000002,-0.018000000000000002,-0.019,-0.019,-0.019,-0.019,-0.02,-0.021,-0.021,-0.021,-0.02,-0.021,-0.021,-0.021,-0.022000000000000002,-0.022000000000000002,-0.023,-0.025,-0.026000000000000002,-0.027999999999999997,-0.03,-0.028999999999999998,-0.028999999999999998,-0.025,-0.021,-0.006,0.008,0.040999999999999995,0.073,0.131,0.188,0.265,0.341,0.418,0.495,0.5489999999999999,0.604,0.62,0.636,0.61,0.583,0.526,0.469,0.401,0.332,0.26899999999999996,0.20600000000000002,0.158,0.11,0.079,0.047,0.03,0.013000000000000001,0.004,-0.005,-0.013000000000000001,-0.02,-0.027999999999999997,-0.036000000000000004,-0.043,-0.049,-0.052000000000000005,-0.055999999999999994,-0.055999999999999994,-0.055,-0.052000000000000005,-0.05,-0.046,-0.043,-0.04,-0.036000000000000004,-0.035,-0.033,-0.034,-0.034,-0.035,-0.037000000000000005,-0.038,-0.04,-0.040999999999999995,-0.040999999999999995,-0.040999999999999995,-0.04,-0.04,-0.04,-0.04,-0.04,-0.04,-0.04,-0.039,-0.038,-0.035,-0.031,-0.025,-0.019,-0.013000000000000001,-0.006999999999999999,-0.003,0.001,0.002,0.003,0.001,-0.002,-0.005,-0.008,-0.01,-0.012,-0.013000000000000001,-0.013000000000000001,-0.013000000000000001,-0.013000000000000001,-0.013000000000000001,-0.012,-0.011000000000000001,-0.011000000000000001,-0.011000000000000001,-0.01,-0.009000000000000001,-0.006999999999999999,-0.005,-0.003,-0.002,0.0,0.002,0.003,0.004,0.005,0.006,0.006999999999999999,0.006999999999999999,0.006999999999999999,0.006999999999999999,0.006999999999999999,0.006999999999999999,0.008,0.009000000000000001,0.011000000000000001,0.013000000000000001,0.015,0.017,0.018000000000000002,0.019,0.02,0.022000000000000002,0.025,0.033,0.04,0.051,0.063,0.07400000000000001,0.086,0.092,0.098,0.1,0.10099999999999999,0.1,0.099,0.096,0.092,0.08800000000000001,0.084,0.08199999999999999,0.08,0.08199999999999999,0.084,0.091,0.098,0.107,0.11699999999999999,0.124,0.132,0.134,0.135,0.133,0.13,0.124,0.11900000000000001,0.113,0.107,0.102,0.09699999999999999,0.092,0.087,0.081,0.075,0.069,0.063,0.055999999999999994,0.049,0.038,0.027999999999999997,0.015,0.003,-0.004,-0.012,-0.013000000000000001,-0.013000000000000001,-0.006999999999999999,-0.001,0.003,0.006,0.001,-0.004,-0.015,-0.026000000000000002,-0.035,-0.045,-0.049,-0.053,-0.051,-0.048,-0.04,-0.032,-0.024,-0.016,-0.01,-0.004,-0.001,0.003,0.004,0.004,0.001,-0.003,-0.006999999999999999,-0.011000000000000001,-0.015,-0.019,-0.023,-0.027000000000000003,-0.03,-0.034,-0.036000000000000004,-0.038,-0.039,-0.04,-0.040999999999999995,-0.040999999999999995,-0.040999999999999995,-0.04,-0.04,-0.04,-0.04,-0.04,-0.04,-0.039,-0.038,-0.038,-0.039,-0.04,-0.040999999999999995,-0.040999999999999995,-0.040999999999999995,-0.04,-0.04,-0.04,-0.04,-0.04,-0.040999999999999995,-0.040999999999999995,-0.044000000000000004,-0.047,-0.053,-0.06,-0.067,-0.073,-0.077,-0.08199999999999999,-0.085,-0.087,-0.085,-0.08199999999999999,-0.07400000000000001,-0.066,-0.054000000000000006,-0.043,-0.03,-0.018000000000000002,-0.009000000000000001,0.001,0.005,0.009000000000000001,0.006,0.004,-0.004,-0.012,-0.021,-0.031,-0.037000000000000005,-0.043,-0.044000000000000004,-0.045,-0.040999999999999995,-0.036000000000000004,-0.028999999999999998,-0.021,-0.015,-0.01,-0.009000000000000001,-0.009000000000000001,-0.011000000000000001,-0.013999999999999999,-0.017,-0.02,-0.021,-0.023,-0.022000000000000002,-0.021,-0.019,-0.018000000000000002,-0.017,-0.015,-0.013999999999999999,-0.013000000000000001,-0.012,-0.011000000000000001,-0.009000000000000001,-0.008,-0.006999999999999999,-0.006999999999999999,-0.006999999999999999,-0.008,-0.01,-0.012,-0.013999999999999999,-0.016,-0.017,-0.018000000000000002,-0.018000000000000002,-0.019,-0.019,-0.019,-0.019,-0.019,-0.019,-0.019,-0.019,-0.019,-0.019,-0.019,-0.019,-0.019,-0.019,-0.02,-0.021,-0.022000000000000002,-0.022000000000000002,-0.023,-0.024,-0.024,-0.024,-0.024,-0.023,-0.022000000000000002,-0.022000000000000002,-0.023,-0.024,-0.025,-0.027000000000000003,-0.028999999999999998,-0.03,-0.032,-0.032,-0.032,-0.025,-0.019,-0.001,0.018000000000000002,0.055999999999999994,0.09300000000000001,0.155,0.217,0.299,0.382,0.465,0.5479999999999999,0.606,0.6629999999999999,0.675,0.688,0.6509999999999999,0.615,0.545,0.475,0.39399999999999996,0.313,0.242,0.171,0.12,0.069,0.038,0.008,-0.008,-0.024,-0.031,-0.038,-0.043,-0.047,-0.051,-0.055,-0.057999999999999996,-0.06,-0.06,-0.06,-0.059000000000000004,-0.059000000000000004,-0.057999999999999996,-0.057,-0.057,-0.055999999999999994,-0.055,-0.054000000000000006,-0.052000000000000005,-0.05,-0.045,-0.040999999999999995,-0.034,-0.026000000000000002,-0.018000000000000002,-0.009000000000000001,-0.004,0.001,0.001,0.001,-0.004,-0.01,-0.018000000000000002,-0.025,-0.033,-0.04,-0.047,-0.054000000000000006,-0.059000000000000004,-0.064,-0.067,-0.07,-0.069,-0.068,-0.065,-0.062,-0.057,-0.052000000000000005,-0.048,-0.043,-0.039,-0.035,-0.032,-0.027999999999999997,-0.025,-0.022000000000000002,-0.019,-0.017,-0.015,-0.013000000000000001,-0.01,-0.006999999999999999,-0.004,0.0,0.005,0.011000000000000001,0.018000000000000002,0.024,0.027000000000000003,0.03,0.032,0.033,0.033,0.032,0.03,0.027999999999999997,0.026000000000000002,0.025,0.024,0.023,0.024,0.024,0.025,0.027000000000000003,0.028999999999999998,0.031,0.034,0.037000000000000005,0.040999999999999995,0.045,0.049,0.052000000000000005,0.053,0.054000000000000006,0.052000000000000005,0.05,0.045,0.040999999999999995,0.037000000000000005,0.033,0.033,0.033,0.038,0.043,0.052000000000000005,0.061,0.07,0.08,0.086,0.09300000000000001,0.09699999999999999,0.10099999999999999,0.10300000000000001,0.106,0.10800000000000001,0.11,0.11199999999999999,0.113,0.113,0.113,0.111,0.109,0.106,0.10400000000000001,0.10099999999999999,0.098,0.09699999999999999,0.096,0.09699999999999999,0.098,0.10099999999999999,0.10400000000000001,0.106,0.10800000000000001,0.106,0.10400000000000001,0.09699999999999999,0.09,0.08,0.069,0.059000000000000004,0.048,0.04,0.031,0.023,0.015,0.006999999999999999,0.0,-0.009000000000000001,-0.017,-0.026000000000000002,-0.036000000000000004,-0.045,-0.055,-0.061,-0.067,-0.069,-0.071,-0.07,-0.068,-0.065,-0.062,-0.057999999999999996,-0.054000000000000006,-0.052000000000000005,-0.051,-0.051,-0.05,-0.05,-0.049,-0.049,-0.048,-0.048,-0.047,-0.045,-0.044000000000000004,-0.043,-0.043,-0.042,-0.040999999999999995,-0.040999999999999995,-0.04,-0.04,-0.04,-0.04,-0.04,-0.04,-0.04,-0.04,-0.04,-0.04,-0.04,-0.04,-0.04,-0.04,-0.039,-0.038,-0.037000000000000005,-0.037000000000000005,-0.037000000000000005,-0.037000000000000005,-0.037000000000000005,-0.037000000000000005,-0.037000000000000005,-0.037000000000000005,-0.037000000000000005,-0.036000000000000004,-0.035,-0.031,-0.027000000000000003,-0.02,-0.013000000000000001,-0.006,0.0,0.003,0.005,0.003,0.0,-0.005,-0.011000000000000001,-0.015,-0.02,-0.021,-0.022000000000000002,-0.021,-0.019,-0.018000000000000002,-0.018000000000000002,-0.021,-0.023,-0.03,-0.037000000000000005,-0.048,-0.057999999999999996,-0.066,-0.07400000000000001,-0.075,-0.077,-0.073,-0.069,-0.062,-0.055,-0.048,-0.04,-0.036000000000000004,-0.033,-0.032,-0.031,-0.031,-0.031,-0.031,-0.031,-0.028999999999999998,-0.026000000000000002,-0.019,-0.013000000000000001,-0.004,0.005,0.012,0.019,0.019,0.019,0.011000000000000001,0.003,-0.009000000000000001,-0.022000000000000002,-0.032,-0.042,-0.045,-0.049,-0.046,-0.044000000000000004,-0.040999999999999995,-0.037000000000000005,-0.036000000000000004,-0.035,-0.034,-0.033,-0.032,-0.03,-0.028999999999999998,-0.028999999999999998,-0.028999999999999998,-0.03,-0.03,-0.03,-0.03,-0.03,-0.03,-0.03,-0.03,-0.03,-0.03,-0.03,-0.03,-0.03,-0.03,-0.03,-0.03,-0.03,-0.03,-0.03,-0.03,-0.031,-0.033,-0.034,-0.035,-0.035,-0.028999999999999998,-0.024,-0.006999999999999999,0.009000000000000001,0.045,0.081,0.141,0.201,0.282,0.363,0.44799999999999995,0.5329999999999999,0.595,0.657,0.6759999999999999,0.695,0.6659999999999999,0.637,N
5,-0.036000000000000004,-0.043,-0.049,-0.052000000000000005,-0.055999999999999994,-0.055999999999999994,-0.055,-0.052000000000000005,-0.05,-0.046,-0.043,-0.04,-0.036000000000000004,-0.035,-0.033,-0.034,-0.034,-0.035,-0.037000000000000005,-0.038,-0.04,-0.040999999999999995,-0.040999999999999995,-0.040999999999999995,-0.04,-0.04,-0.04,-0.04,-0.04,-0.04,-0.04,-0.039,-0.038,-0.035,-0.031,-0.025,-0.019,-0.013000000000000001,-0.006999999999999999,-0.003,0.001,0.002,0.003,0.001,-0.002,-0.005,-0.008,-0.01,-0.012,-0.013000000000000001,-0.013000000000000001,-0.013000000000000001,-0.013000000000000001,-0.013000000000000001,-0.012,-0.011000000000000001,-0.011000000000000001,-0.011000000000000001,-0.01,-0.009000000000000001,-0.006999999999999999,-0.005,-0.003,-0.002,0.0,0.002,0.003,0.004,0.005,0.006,0.006999999999999999,0.006999999999999999,0.006999999999999999,0.006999999999999999,0.006999999999999999,0.006999999999999999,0.008,0.009000000000000001,0.011000000000000001,0.013000000000000001,0.015,0.017,0.018000000000000002,0.019,0.02,0.022000000000000002,0.025,0.033,0.04,0.051,0.063,0.07400000000000001,0.086,0.092,0.098,0.1,0.10099999999999999,0.1,0.099,0.096,0.092,0.08800000000000001,0.084,0.08199999999999999,0.08,0.08199999999999999,0.084,0.091,0.098,0.107,0.11699999999999999,0.124,0.132,0.134,0.135,0.133,0.13,0.124,0.11900000000000001,0.113,0.107,0.102,0.09699999999999999,0.092,0.087,0.081,0.075,0.069,0.063,0.055999999999999994,0.049,0.038,0.027999999999999997,0.015,0.003,-0.004,-0.012,-0.013000000000000001,-0.013000000000000001,-0.006999999999999999,-0.001,0.003,0.006,0.001,-0.004,-0.015,-0.026000000000000002,-0.035,-0.045,-0.049,-0.053,-0.051,-0.048,-0.04,-0.032,-0.024,-0.016,-0.01,-0.004,-0.001,0.003,0.004,0.004,0.001,-0.003,-0.006999999999999999,-0.011000000000000001,-0.015,-0.019,-0.023,-0.027000000000000003,-0.03,-0.034,-0.036000000000000004,-0.038,-0.039,-0.04,-0.040999999999999995,-0.040999999999999995,-0.040999999999999995,-0.04,-0.04,-0.04,-0.04,-0.04,-0.04,-0.039,-0.038,-0.038,-0.039,-0.04,-0.040999999999999995,-0.040999999999999995,-0.040999999999999995,-0.04,-0.04,-0.04,-0.04,-0.04,-0.040999999999999995,-0.040999999999999995,-0.044000000000000004,-0.047,-0.053,-0.06,-0.067,-0.073,-0.077,-0.08199999999999999,-0.085,-0.087,-0.085,-0.08199999999999999,-0.07400000000000001,-0.066,-0.054000000000000006,-0.043,-0.03,-0.018000000000000002,-0.009000000000000001,0.001,0.005,0.009000000000000001,0.006,0.004,-0.004,-0.012,-0.021,-0.031,-0.037000000000000005,-0.043,-0.044000000000000004,-0.045,-0.040999999999999995,-0.036000000000000004,-0.028999999999999998,-0.021,-0.015,-0.01,-0.009000000000000001,-0.009000000000000001,-0.011000000000000001,-0.013999999999999999,-0.017,-0.02,-0.021,-0.023,-0.022000000000000002,-0.021,-0.019,-0.018000000000000002,-0.017,-0.015,-0.013999999999999999,-0.013000000000000001,-0.012,-0.011000000000000001,-0.009000000000000001,-0.008,-0.006999999999999999,-0.006999999999999999,-0.006999999999999999,-0.008,-0.01,-0.012,-0.013999999999999999,-0.016,-0.017,-0.018000000000000002,-0.018000000000000002,-0.019,-0.019,-0.019,-0.019,-0.019,-0.019,-0.019,-0.019,-0.019,-0.019,-0.019,-0.019,-0.019,-0.019,-0.02,-0.021,-0.022000000000000002,-0.022000000000000002,-0.023,-0.024,-0.024,-0.024,-0.024,-0.023,-0.022000000000000002,-0.022000000000000002,-0.023,-0.024,-0.025,-0.027000000000000003,-0.028999999999999998,-0.03,-0.032,-0.032,-0.032,-0.025,-0.019,-0.001,0.018000000000000002,0.055999999999999994,0.09300000000000001,0.155,0.217,0.299,0.382,0.465,0.5479999999999999,0.606,0.6629999999999999,0.675,0.688,0.6509999999999999,0.615,0.545,0.475,0.39399999999999996,0.313,0.242,0.171,0.12,0.069,0.038,0.008,-0.008,-0.024,-0.031,-0.038,-0.043,-0.047,-0.051,-0.055,-0.057999999999999996,-0.06,-0.06,-0.06,-0.059000000000000004,-0.059000000000000004,-0.057999999999999996,-0.057,-0.057,-0.055999999999999994,-0.055,-0.054000000000000006,-0.052000000000000005,-0.05,-0.045,-0.040999999999999995,-0.034,-0.026000000000000002,-0.018000000000000002,-0.009000000000000001,-0.004,0.001,0.001,0.001,-0.004,-0.01,-0.018000000000000002,-0.025,-0.033,-0.04,-0.047,-0.054000000000000006,-0.059000000000000004,-0.064,-0.067,-0.07,-0.069,-0.068,-0.065,-0.062,-0.057,-0.052000000000000005,-0.048,-0.043,-0.039,-0.035,-0.032,-0.027999999999999997,-0.025,-0.022000000000000002,-0.019,-0.017,-0.015,-0.013000000000000001,-0.01,-0.006999999999999999,-0.004,0.0,0.005,0.011000000000000001,0.018000000000000002,0.024,0.027000000000000003,0.03,0.032,0.033,0.033,0.032,0.03,0.027999999999999997,0.026000000000000002,0.025,0.024,0.023,0.024,0.024,0.025,0.027000000000000003,0.028999999999999998,0.031,0.034,0.037000000000000005,0.040999999999999995,0.045,0.049,0.052000000000000005,0.053,0.054000000000000006,0.052000000000000005,0.05,0.045,0.040999999999999995,0.037000000000000005,0.033,0.033,0.033,0.038,0.043,0.052000000000000005,0.061,0.07,0.08,0.086,0.09300000000000001,0.09699999999999999,0.10099999999999999,0.10300000000000001,0.106,0.10800000000000001,0.11,0.11199999999999999,0.113,0.113,0.113,0.111,0.109,0.106,0.10400000000000001,0.10099999999999999,0.098,0.09699999999999999,0.096,0.09699999999999999,0.098,0.10099999999999999,0.10400000000000001,0.106,0.10800000000000001,0.106,0.10400000000000001,0.09699999999999999,0.09,0.08,0.069,0.059000000000000004,0.048,0.04,0.031,0.023,0.015,0.006999999999999999,0.0,-0.009000000000000001,-0.017,-0.026000000000000002,-0.036000000000000004,-0.045,-0.055,-0.061,-0.067,-0.069,-0.071,-0.07,-0.068,-0.065,-0.062,-0.057999999999999996,-0.054000000000000006,-0.052000000000000005,-0.051,-0.051,-0.05,-0.05,-0.049,-0.049,-0.048,-0.048,-0.047,-0.045,-0.044000000000000004,-0.043,-0.043,-0.042,-0.040999999999999995,-0.040999999999999995,-0.04,-0.04,-0.04,-0.04,-0.04,-0.04,-0.04,-0.04,-0.04,-0.04,-0.04,-0.04,-0.04,-0.04,-0.039,-0.038,-0.037000000000000005,-0.037000000000000005,-0.037000000000000005,-0.037000000000000005,-0.037000000000000005,-0.037000000000000005,-0.037000000000000005,-0.037000000000000005,-0.037000000000000005,-0.036000000000000004,-0.035,-0.031,-0.027000000000000003,-0.02,-0.013000000000000001,-0.006,0.0,0.003,0.005,0.003,0.0,-0.005,-0.011000000000000001,-0.015,-0.02,-0.021,-0.022000000000000002,-0.021,-0.019,-0.018000000000000002,-0.018000000000000002,-0.021,-0.023,-0.03,-0.037000000000000005,-0.048,-0.057999999999999996,-0.066,-0.07400000000000001,-0.075,-0.077,-0.073,-0.069,-0.062,-0.055,-0.048,-0.04,-0.036000000000000004,-0.033,-0.032,-0.031,-0.031,-0.031,-0.031,-0.031,-0.028999999999999998,-0.026000000000000002,-0.019,-0.013000000000000001,-0.004,0.005,0.012,0.019,0.019,0.019,0.011000000000000001,0.003,-0.009000000000000001,-0.022000000000000002,-0.032,-0.042,-0.045,-0.049,-0.046,-0.044000000000000004,-0.040999999999999995,-0.037000000000000005,-0.036000000000000004,-0.035,-0.034,-0.033,-0.032,-0.03,-0.028999999999999998,-0.028999999999999998,-0.028999999999999998,-0.03,-0.03,-0.03,-0.03,-0.03,-0.03,-0.03,-0.03,-0.03,-0.03,-0.03,-0.03,-0.03,-0.03,-0.03,-0.03,-0.03,-0.03,-0.03,-0.03,-0.031,-0.033,-0.034,-0.035,-0.035,-0.028999999999999998,-0.024,-0.006999999999999999,0.009000000000000001,0.045,0.081,0.141,0.201,0.282,0.363,0.44799999999999995,0.5329999999999999,0.595,0.657,0.6759999999999999,0.695,0.6659999999999999,0.637,0.5720000000000001,0.507,0.428,0.349,0.276,0.203,0.14800000000000002,0.09300000000000001,0.057999999999999996,0.023,0.004,-0.016,-0.025,-0.034,-0.038,-0.043,-0.046,-0.049,-0.051,-0.052000000000000005,-0.052000000000000005,-0.053,-0.053,-0.053,-0.052000000000000005,-0.052000000000000005,-0.051,-0.051,-0.051,-0.051,-0.051,-0.052000000000000005,-0.052000000000000005,-0.052000000000000005,-0.051,-0.05,-0.049,-0.047,-0.045,-0.043,-0.042,-0.040999999999999995,-0.040999999999999995,-0.04,-0.04,-0.04,-0.04,-0.04,-0.04,-0.04,-0.04,-0.04,-0.04,-0.039,-0.038,-0.037000000000000005,-0.036000000000000004,-0.036000000000000004,-0.035,-0.033,-0.031,-0.028999999999999998,-0.027999999999999997,-0.026000000000000002,-0.024,-0.022000000000000002,-0.018000000000000002,-0.013000000000000001,-0.005,0.003,0.011000000000000001,0.02,0.024,0.027999999999999997,0.025,0.022000000000000002,0.013000000000000001,0.005,-0.004,-0.013000000000000001,-0.017,-0.02,-0.015,-0.011000000000000001,-0.002,0.008,0.017,0.026000000000000002,0.03,0.035,0.035,0.036000000000000004,0.034,0.032,0.03,0.028999999999999998,0.028999999999999998,0.03,0.032,0.034,0.037000000000000005,0.04,0.043,0.046,0.049,0.052000000000000005,0.053,0.055,0.055999999999999994,0.055999999999999994,0.057999999999999996,0.059000000000000004,0.061,0.064,0.068,0.071,0.076,0.081,0.086,0.09,0.092,0.094,0.095,0.096,0.09699999999999999,0.098,0.099,0.1,0.10099999999999999,0.102,0.10400000000000001,0.107,0.107,0.10800000000000001,0.107,0.107,0.106,0.105,0.10300000000000001,0.102,0.1,0.098,0.09699999999999999,0.095,0.09,0.085,0.076,0.068,0.057,0.046,0.036000000000000004,0.027000000000000003,0.021,0.015,0.013000000000000001,0.01,0.009000000000000001,0.009000000000000001,0.006999999999999999,0.005,-0.001,-0.006999999999999999,-0.013000000000000001,-0.02,-0.025,-0.031,-0.034,-0.036000000000000004,-0.035,-0.033,-0.028999999999999998,-0.024,-0.019,-0.015,-0.013000000000000001,-0.011000000000000001,-0.013000000000000001,-0.013999999999999999,-0.018000000000000002,-0.021,-0.026000000000000002,-0.031,-0.035,-0.038,-0.04,-0.042,-0.043,-0.045,-0.046,-0.048,-0.048,-0.047,-0.045,-0.044000000000000004,-0.044000000000000004,-0.044000000000000004,-0.044000000000000004,-0.044000000000000004,-0.044000000000000004,-0.044000000000000004,-0.043,-0.043,-0.042,-0.040999999999999995,-0.04,-0.039,-0.038,-0.037000000000000005,-0.037000000000000005,-0.037000000000000005,-0.037000000000000005,-0.037000000000000005,-0.037000000000000005,-0.037000000000000005,-0.037000000000000005,-0.037000000000000005,-0.037000000000000005,-0.037000000000000005,-0.037000000000000005,-0.037000000000000005,-0.037000000000000005,-0.037000000000000005,-0.037000000000000005,-0.037000000000000005,-0.037000000000000005,-0.037000000000000005,-0.036000000000000004,-0.036000000000000004,-0.035,-0.034,-0.034,-0.033,-0.033,-0.033,-0.033,-0.033,-0.033,-0.033,-0.033,-0.033,-0.033,-0.033,-0.033,-0.033,-0.033,-0.033,-0.033,-0.033,-0.034,-0.034,-0.035,-0.035,-0.035,-0.034,-0.033,-0.032,-0.03,-0.028999999999999998,-0.027999999999999997,-0.026000000000000002,-0.025,-0.024,-0.023,-0.022000000000000002,-0.021,-0.019,-0.018000000000000002,-0.017,-0.016,-0.015,-0.013000000000000001,-0.011000000000000001,-0.011000000000000001,-0.011000000000000001,-0.013000000000000001,-0.013999999999999999,-0.018000000000000002,-0.023,-0.027999999999999997,-0.032,-0.035,-0.037000000000000005,-0.036000000000000004,-0.035,-0.032,-0.027999999999999997,-0.023,-0.018000000000000002,-0.013999999999999999,-0.01,-0.009000000000000001,-0.008,-0.009000000000000001,-0.011000000000000001,-0.013000000000000001,-0.015,-0.018000000000000002,-0.02,-0.021,-0.023,-0.022000000000000002,-0.022000000000000002,-0.022000000000000002,-0.022000000000000002,-0.022000000000000002,-0.022000000000000002,-0.022000000000000002,-0.023,-0.024,-0.025,-0.026000000000000002,-0.027999999999999997,-0.028999999999999998,-0.03,-0.032,-0.034,-0.035,-0.036000000000000004,-0.032,-0.027000000000000003,-0.011000000000000001,0.005,0.039,0.073,0.131,0.18899999999999997,0.268,0.34700000000000003,0.429,0.512,0.573,0.634,0.654,0.675,0.648,0.621,0.5579999999999999,0.496,0.419,N
6,-0.055,-0.057999999999999996,-0.06,-0.06,-0.06,-0.059000000000000004,-0.059000000000000004,-0.057999999999999996,-0.057,-0.057,-0.055999999999999994,-0.055,-0.054000000000000006,-0.052000000000000005,-0.05,-0.045,-0.040999999999999995,-0.034,-0.026000000000000002,-0.018000000000000002,-0.009000000000000001,-0.004,0.001,0.001,0.001,-0.004,-0.01,-0.018000000000000002,-0.025,-0.033,-0.04,-0.047,-0.054000000000000006,-0.059000000000000004,-0.064,-0.067,-0.07,-0.069,-0.068,-0.065,-0.062,-0.057,-0.052000000000000005,-0.048,-0.043,-0.039,-0.035,-0.032,-0.027999999999999997,-0.025,-0.022000000000000002,-0.019,-0.017,-0.015,-0.013000000000000001,-0.01,-0.006999999999999999,-0.004,0.0,0.005,0.011000000000000001,0.018000000000000002,0.024,0.027000000000000003,0.03,0.032,0.033,0.033,0.032,0.03,0.027999999999999997,0.026000000000000002,0.025,0.024,0.023,0.024,0.024,0.025,0.027000000000000003,0.028999999999999998,0.031,0.034,0.037000000000000005,0.040999999999999995,0.045,0.049,0.052000000000000005,0.053,0.054000000000000006,0.052000000000000005,0.05,0.045,0.040999999999999995,0.037000000000000005,0.033,0.033,0.033,0.038,0.043,0.052000000000000005,0.061,0.07,0.08,0.086,0.09300000000000001,0.09699999999999999,0.10099999999999999,0.10300000000000001,0.106,0.10800000000000001,0.11,0.11199999999999999,0.113,0.113,0.113,0.111,0.109,0.106,0.10400000000000001,0.10099999999999999,0.098,0.09699999999999999,0.096,0.09699999999999999,0.098,0.10099999999999999,0.10400000000000001,0.106,0.10800000000000001,0.106,0.10400000000000001,0.09699999999999999,0.09,0.08,0.069,0.059000000000000004,0.048,0.04,0.031,0.023,0.015,0.006999999999999999,0.0,-0.009000000000000001,-0.017,-0.026000000000000002,-0.036000000000000004,-0.045,-0.055,-0.061,-0.067,-0.069,-0.071,-0.07,-0.068,-0.065,-0.062,-0.057999999999999996,-0.054000000000000006,-0.052000000000000005,-0.051,-0.051,-0.05,-0.05,-0.049,-0.049,-0.048,-0.048,-0.047,-0.045,-0.044000000000000004,-0.043,-0.043,-0.042,-0.040999999999999995,-0.040999999999999995,-0.04,-0.04,-0.04,-0.04,-0.04,-0.04,-0.04,-0.04,-0.04,-0.04,-0.04,-0.04,-0.04,-0.04,-0.039,-0.038,-0.037000000000000005,-0.037000000000000005,-0.037000000000000005,-0.037000000000000005,-0.037000000000000005,-0.037000000000000005,-0.037000000000000005,-0.037000000000000005,-0.037000000000000005,-0.036000000000000004,-0.035,-0.031,-0.027000000000000003,-0.02,-0.013000000000000001,-0.006,0.0,0.003,0.005,0.003,0.0,-0.005,-0.011000000000000001,-0.015,-0.02,-0.021,-0.022000000000000002,-0.021,-0.019,-0.018000000000000002,-0.018000000000000002,-0.021,-0.023,-0.03,-0.037000000000000005,-0.048,-0.057999999999999996,-0.066,-0.07400000000000001,-0.075,-0.077,-0.073,-0.069,-0.062,-0.055,-0.048,-0.04,-0.036000000000000004,-0.033,-0.032,-0.031,-0.031,-0.031,-0.031,-0.031,-0.028999999999999998,-0.026000000000000002,-0.019,-0.013000000000000001,-0.004,0.005,0.012,0.019,0.019,0.019,0.011000000000000001,0.003,-0.009000000000000001,-0.022000000000000002,-0.032,-0.042,-0.045,-0.049,-0.046,-0.044000000000000004,-0.040999999999999995,-0.037000000000000005,-0.036000000000000004,-0.035,-0.034,-0.033,-0.032,-0.03,-0.028999999999999998,-0.028999999999999998,-0.028999999999999998,-0.03,-0.03,-0.03,-0.03,-0.03,-0.03,-0.03,-0.03,-0.03,-0.03,-0.03,-0.03,-0.03,-0.03,-0.03,-0.03,-0.03,-0.03,-0.03,-0.03,-0.031,-0.033,-0.034,-0.035,-0.035,-0.028999999999999998,-0.024,-0.006999999999999999,0.009000000000000001,0.045,0.081,0.141,0.201,0.282,0.363,0.44799999999999995,0.5329999999999999,0.595,0.657,0.6759999999999999,0.695,0.6659999999999999,0.637,0.5720000000000001,0.507,0.428,0.349,0.276,0.203,0.14800000000000002,0.09300000000000001,0.057999999999999996,0.023,0.004,-0.016,-0.025,-0.034,-0.038,-0.043,-0.046,-0.049,-0.051,-0.052000000000000005,-0.052000000000000005,-0.053,-0.053,-0.053,-0.052000000000000005,-0.052000000000000005,-0.051,-0.051,-0.051,-0.051,-0.051,-0.052000000000000005,-0.052000000000000005,-0.052000000000000005,-0.051,-0.05,-0.049,-0.047,-0.045,-0.043,-0.042,-0.040999999999999995,-0.040999999999999995,-0.04,-0.04,-0.04,-0.04,-0.04,-0.04,-0.04,-0.04,-0.04,-0.04,-0.039,-0.038,-0.037000000000000005,-0.036000000000000004,-0.036000000000000004,-0.035,-0.033,-0.031,-0.028999999999999998,-0.027999999999999997,-0.026000000000000002,-0.024,-0.022000000000000002,-0.018000000000000002,-0.013000000000000001,-0.005,0.003,0.011000000000000001,0.02,0.024,0.027999999999999997,0.025,0.022000000000000002,0.013000000000000001,0.005,-0.004,-0.013000000000000001,-0.017,-0.02,-0.015,-0.011000000000000001,-0.002,0.008,0.017,0.026000000000000002,0.03,0.035,0.035,0.036000000000000004,0.034,0.032,0.03,0.028999999999999998,0.028999999999999998,0.03,0.032,0.034,0.037000000000000005,0.04,0.043,0.046,0.049,0.052000000000000005,0.053,0.055,0.055999999999999994,0.055999999999999994,0.057999999999999996,0.059000000000000004,0.061,0.064,0.068,0.071,0.076,0.081,0.086,0.09,0.092,0.094,0.095,0.096,0.09699999999999999,0.098,0.099,0.1,0.10099999999999999,0.102,0.10400000000000001,0.107,0.107,0.10800000000000001,0.107,0.107,0.106,0.105,0.10300000000000001,0.102,0.1,0.098,0.09699999999999999,0.095,0.09,0.085,0.076,0.068,0.057,0.046,0.036000000000000004,0.027000000000000003,0.021,0.015,0.013000000000000001,0.01,0.009000000000000001,0.009000000000000001,0.006999999999999999,0.005,-0.001,-0.006999999999999999,-0.013000000000000001,-0.02,-0.025,-0.031,-0.034,-0.036000000000000004,-0.035,-0.033,-0.028999999999999998,-0.024,-0.019,-0.015,-0.013000000000000001,-0.011000000000000001,-0.013000000000000001,-0.013999999999999999,-0.018000000000000002,-0.021,-0.026000000000000002,-0.031,-0.035,-0.038,-0.04,-0.042,-0.043,-0.045,-0.046,-0.048,-0.048,-0.047,-0.045,-0.044000000000000004,-0.044000000000000004,-0.044000000000000004,-0.044000000000000004,-0.044000000000000004,-0.044000000000000004,-0.044000000000000004,-0.043,-0.043,-0.042,-0.040999999999999995,-0.04,-0.039,-0.038,-0.037000000000000005,-0.037000000000000005,-0.037000000000000005,-0.037000000000000005,-0.037000000000000005,-0.037000000000000005,-0.037000000000000005,-0.037000000000000005,-0.037000000000000005,-0.037000000000000005,-0.037000000000000005,-0.037000000000000005,-0.037000000000000005,-0.037000000000000005,-0.037000000000000005,-0.037000000000000005,-0.037000000000000005,-0.037000000000000005,-0.037000000000000005,-0.036000000000000004,-0.036000000000000004,-0.035,-0.034,-0.034,-0.033,-0.033,-0.033,-0.033,-0.033,-0.033,-0.033,-0.033,-0.033,-0.033,-0.033,-0.033,-0.033,-0.033,-0.033,-0.033,-0.033,-0.034,-0.034,-0.035,-0.035,-0.035,-0.034,-0.033,-0.032,-0.03,-0.028999999999999998,-0.027999999999999997,-0.026000000000000002,-0.025,-0.024,-0.023,-0.022000000000000002,-0.021,-0.019,-0.018000000000000002,-0.017,-0.016,-0.015,-0.013000000000000001,-0.011000000000000001,-0.011000000000000001,-0.011000000000000001,-0.013000000000000001,-0.013999999999999999,-0.018000000000000002,-0.023,-0.027999999999999997,-0.032,-0.035,-0.037000000000000005,-0.036000000000000004,-0.035,-0.032,-0.027999999999999997,-0.023,-0.018000000000000002,-0.013999999999999999,-0.01,-0.009000000000000001,-0.008,-0.009000000000000001,-0.011000000000000001,-0.013000000000000001,-0.015,-0.018000000000000002,-0.02,-0.021,-0.023,-0.022000000000000002,-0.022000000000000002,-0.022000000000000002,-0.022000000000000002,-0.022000000000000002,-0.022000000000000002,-0.022000000000000002,-0.023,-0.024,-0.025,-0.026000000000000002,-0.027999999999999997,-0.028999999999999998,-0.03,-0.032,-0.034,-0.035,-0.036000000000000004,-0.032,-0.027000000000000003,-0.011000000000000001,0.005,0.039,0.073,0.131,0.18899999999999997,0.268,0.34700000000000003,0.429,0.512,0.573,0.634,0.654,0.675,0.648,0.621,0.5579999999999999,0.496,0.419,0.34299999999999997,0.27399999999999997,0.204,0.15,0.09699999999999999,0.062,0.027000000000000003,0.006999999999999999,-0.012,-0.021,-0.03,-0.035,-0.039,-0.042,-0.045,-0.047,-0.049,-0.05,-0.051,-0.051,-0.052000000000000005,-0.052000000000000005,-0.053,-0.053,-0.054000000000000006,-0.054000000000000006,-0.055,-0.054000000000000006,-0.054000000000000006,-0.053,-0.052000000000000005,-0.051,-0.05,-0.049,-0.048,-0.048,-0.047,-0.045,-0.044000000000000004,-0.044000000000000004,-0.044000000000000004,-0.044000000000000004,-0.044000000000000004,-0.043,-0.043,-0.042,-0.040999999999999995,-0.040999999999999995,-0.04,-0.04,-0.039,-0.038,-0.037000000000000005,-0.036000000000000004,-0.036000000000000004,-0.035,-0.034,-0.033,-0.032,-0.031,-0.03,-0.028999999999999998,-0.027999999999999997,-0.027000000000000003,-0.026000000000000002,-0.024,-0.022000000000000002,-0.021,-0.021,-0.019,-0.018000000000000002,-0.017,-0.015,-0.013999999999999999,-0.013000000000000001,-0.012,-0.011000000000000001,-0.009000000000000001,-0.006999999999999999,-0.005,-0.003,-0.002,0.0,0.002,0.004,0.006,0.008,0.01,0.012,0.013000000000000001,0.015,0.017,0.019,0.021,0.023,0.025,0.027000000000000003,0.03,0.034,0.037000000000000005,0.040999999999999995,0.043,0.046,0.049,0.052000000000000005,0.055999999999999994,0.06,0.064,0.067,0.071,0.075,0.079,0.08199999999999999,0.085,0.08800000000000001,0.09,0.09300000000000001,0.096,0.098,0.099,0.1,0.10099999999999999,0.10099999999999999,0.102,0.10400000000000001,0.10400000000000001,0.10400000000000001,0.10300000000000001,0.10300000000000001,0.102,0.1,0.098,0.095,0.092,0.08900000000000001,0.086,0.083,0.079,0.07400000000000001,0.069,0.064,0.06,0.055999999999999994,0.052000000000000005,0.049,0.045,0.040999999999999995,0.036000000000000004,0.031,0.027000000000000003,0.023,0.019,0.016,0.013000000000000001,0.009000000000000001,0.006,0.003,-0.001,-0.004,-0.006999999999999999,-0.011000000000000001,-0.013999999999999999,-0.017,-0.021,-0.024,-0.027000000000000003,-0.03,-0.032,-0.034,-0.036000000000000004,-0.038,-0.039,-0.04,-0.040999999999999995,-0.042,-0.042,-0.042,-0.042,-0.042,-0.043,-0.043,-0.043,-0.044000000000000004,-0.044000000000000004,-0.045,-0.044000000000000004,-0.044000000000000004,-0.044000000000000004,-0.044000000000000004,-0.044000000000000004,-0.044000000000000004,-0.044000000000000004,-0.044000000000000004,-0.044000000000000004,-0.044000000000000004,-0.044000000000000004,-0.044000000000000004,-0.044000000000000004,-0.044000000000000004,-0.044000000000000004,-0.044000000000000004,-0.044000000000000004,-0.044000000000000004,-0.044000000000000004,-0.044000000000000004,-0.043,-0.043,-0.042,-0.040999999999999995,-0.040999999999999995,-0.04,-0.04,-0.04,-0.04,-0.04,-0.04,-0.04,-0.04,-0.04,-0.04,-0.04,-0.04,-0.039,-0.037000000000000005,-0.036000000000000004,-0.035,-0.033,-0.032,-0.03,-0.028999999999999998,-0.028999999999999998,-0.03,-0.031,-0.032,-0.033,-0.034,-0.034,-0.034,-0.033,-0.033,-0.033,-0.033,-0.033,-0.033,-0.033,-0.033,-0.033,-0.033,-0.032,-0.03,-0.028999999999999998,-0.027000000000000003,-0.025,-0.023,-0.021,-0.019,-0.018000000000000002,-0.017,-0.015,-0.015,-0.013999999999999999,-0.013999999999999999,-0.013999999999999999,-0.013000000000000001,-0.012,-0.011000000000000001,-0.011000000000000001,-0.011000000000000001,-0.011000000000000001,-0.011000000000000001,-0.012,-0.013000000000000001,-0.015,-0.015,-0.016,-0.018000000000000002,-0.019,-0.021,-0.022000000000000002,-0.022000000000000002,-0.023,-0.022000000000000002,-0.021,-0.02,-0.019,-0.018000000000000002,-0.018000000000000002,-0.019,-0.02,-0.021,-0.022000000000000002,-0.022000000000000002,-0.023,-0.024,-0.025,-0.026000000000000002,-0.027999999999999997,-0.027999999999999997,-0.027999999999999997,-0.027999999999999997,-0.027000000000000003,-0.025,-0.024,-0.024,-0.023,-0.023,-0.023,-0.025,-0.026000000000000002,-0.028999999999999998,-0.031,-0.032,-0.032,-0.028999999999999998,-0.025,-0.011000000000000001,0.004,0.036000000000000004,0.069,0.126,0.182,0.259,0.336,0.418,0.501,0.5660000000000001,0.63,0.654,0.679,0.6559999999999999,0.634,0.575,0.516,0.442,0.368,0.297,0.226,0.171,0.115,0.077,N
7,-0.051,-0.052000000000000005,-0.052000000000000005,-0.053,-0.053,-0.053,-0.052000000000000005,-0.052000000000000005,-0.051,-0.051,-0.051,-0.051,-0.051,-0.052000000000000005,-0.052000000000000005,-0.052000000000000005,-0.051,-0.05,-0.049,-0.047,-0.045,-0.043,-0.042,-0.040999999999999995,-0.040999999999999995,-0.04,-0.04,-0.04,-0.04,-0.04,-0.04,-0.04,-0.04,-0.04,-0.04,-0.039,-0.038,-0.037000000000000005,-0.036000000000000004,-0.036000000000000004,-0.035,-0.033,-0.031,-0.028999999999999998,-0.027999999999999997,-0.026000000000000002,-0.024,-0.022000000000000002,-0.018000000000000002,-0.013000000000000001,-0.005,0.003,0.011000000000000001,0.02,0.024,0.027999999999999997,0.025,0.022000000000000002,0.013000000000000001,0.005,-0.004,-0.013000000000000001,-0.017,-0.02,-0.015,-0.011000000000000001,-0.002,0.008,0.017,0.026000000000000002,0.03,0.035,0.035,0.036000000000000004,0.034,0.032,0.03,0.028999999999999998,0.028999999999999998,0.03,0.032,0.034,0.037000000000000005,0.04,0.043,0.046,0.049,0.052000000000000005,0.053,0.055,0.055999999999999994,0.055999999999999994,0.057999999999999996,0.059000000000000004,0.061,0.064,0.068,0.071,0.076,0.081,0.086,0.09,0.092,0.094,0.095,0.096,0.09699999999999999,0.098,0.099,0.1,0.10099999999999999,0.102,0.10400000000000001,0.107,0.107,0.10800000000000001,0.107,0.107,0.106,0.105,0.10300000000000001,0.102,0.1,0.098,0.09699999999999999,0.095,0.09,0.085,0.076,0.068,0.057,0.046,0.036000000000000004,0.027000000000000003,0.021,0.015,0.013000000000000001,0.01,0.009000000000000001,0.009000000000000001,0.006999999999999999,0.005,-0.001,-0.006999999999999999,-0.013000000000000001,-0.02,-0.025,-0.031,-0.034,-0.036000000000000004,-0.035,-0.033,-0.028999999999999998,-0.024,-0.019,-0.015,-0.013000000000000001,-0.011000000000000001,-0.013000000000000001,-0.013999999999999999,-0.018000000000000002,-0.021,-0.026000000000000002,-0.031,-0.035,-0.038,-0.04,-0.042,-0.043,-0.045,-0.046,-0.048,-0.048,-0.047,-0.045,-0.044000000000000004,-0.044000000000000004,-0.044000000000000004,-0.044000000000000004,-0.044000000000000004,-0.044000000000000004,-0.044000000000000004,-0.043,-0.043,-0.042,-0.040999999999999995,-0.04,-0.039,-0.038,-0.037000000000000005,-0.037000000000000005,-0.037000000000000005,-0.037000000000000005,-0.037000000000000005,-0.037000000000000005,-0.037000000000000005,-0.037000000000000005,-0.037000000000000005,-0.037000000000000005,-0.037000000000000005,-0.037000000000000005,-0.037000000000000005,-0.037000000000000005,-0.037000000000000005,-0.037000000000000005,-0.037000000000000005,-0.037000000000000005,-0.037000000000000005,-0.036000000000000004,-0.036000000000000004,-0.035,-0.034,-0.034,-0.033,-0.033,-0.033,-0.033,-0.033,-0.033,-0.033,-0.033,-0.033,-0.033,-0.033,-0.033,-0.033,-0.033,-0.033,-0.033,-0.033,-0.034,-0.034,-0.035,-0.035,-0.035,-0.034,-0.033,-0.032,-0.03,-0.028999999999999998,-0.027999999999999997,-0.026000000000000002,-0.025,-0.024,-0.023,-0.022000000000000002,-0.021,-0.019,-0.018000000000000002,-0.017,-0.016,-0.015,-0.013000000000000001,-0.011000000000000001,-0.011000000000000001,-0.011000000000000001,-0.013000000000000001,-0.013999999999999999,-0.018000000000000002,-0.023,-0.027999999999999997,-0.032,-0.035,-0.037000000000000005,-0.036000000000000004,-0.035,-0.032,-0.027999999999999997,-0.023,-0.018000000000000002,-0.013999999999999999,-0.01,-0.009000000000000001,-0.008,-0.009000000000000001,-0.011000000000000001,-0.013000000000000001,-0.015,-0.018000000000000002,-0.02,-0.021,-0.023,-0.022000000000000002,-0.022000000000000002,-0.022000000000000002,-0.022000000000000002,-0.022000000000000002,-0.022000000000000002,-0.022000000000000002,-0.023,-0.024,-0.025,-0.026000000000000002,-0.027999999999999997,-0.028999999999999998,-0.03,-0.032,-0.034,-0.035,-0.036000000000000004,-0.032,-0.027000000000000003,-0.011000000000000001,0.005,0.039,0.073,0.131,0.18899999999999997,0.268,0.34700000000000003,0.429,0.512,0.573,0.634,0.654,0.675,0.648,0.621,0.5579999999999999,0.496,0.419,0.34299999999999997,0.27399999999999997,0.204,0.15,0.09699999999999999,0.062,0.027000000000000003,0.006999999999999999,-0.012,-0.021,-0.03,-0.035,-0.039,-0.042,-0.045,-0.047,-0.049,-0.05,-0.051,-0.051,-0.052000000000000005,-0.052000000000000005,-0.053,-0.053,-0.054000000000000006,-0.054000000000000006,-0.055,-0.054000000000000006,-0.054000000000000006,-0.053,-0.052000000000000005,-0.051,-0.05,-0.049,-0.048,-0.048,-0.047,-0.045,-0.044000000000000004,-0.044000000000000004,-0.044000000000000004,-0.044000000000000004,-0.044000000000000004,-0.043,-0.043,-0.042,-0.040999999999999995,-0.040999999999999995,-0.04,-0.04,-0.039,-0.038,-0.037000000000000005,-0.036000000000000004,-0.036000000000000004,-0.035,-0.034,-0.033,-0.032,-0.031,-0.03,-0.028999999999999998,-0.027999999999999997,-0.027000000000000003,-0.026000000000000002,-0.024,-0.022000000000000002,-0.021,-0.021,-0.019,-0.018000000000000002,-0.017,-0.015,-0.013999999999999999,-0.013000000000000001,-0.012,-0.011000000000000001,-0.009000000000000001,-0.006999999999999999,-0.005,-0.003,-0.002,0.0,0.002,0.004,0.006,0.008,0.01,0.012,0.013000000000000001,0.015,0.017,0.019,0.021,0.023,0.025,0.027000000000000003,0.03,0.034,0.037000000000000005,0.040999999999999995,0.043,0.046,0.049,0.052000000000000005,0.055999999999999994,0.06,0.064,0.067,0.071,0.075,0.079,0.08199999999999999,0.085,0.08800000000000001,0.09,0.09300000000000001,0.096,0.098,0.099,0.1,0.10099999999999999,0.10099999999999999,0.102,0.10400000000000001,0.10400000000000001,0.10400000000000001,0.10300000000000001,0.10300000000000001,0.102,0.1,0.098,0.095,0.092,0.08900000000000001,0.086,0.083,0.079,0.07400000000000001,0.069,0.064,0.06,0.055999999999999994,0.052000000000000005,0.049,0.045,0.040999999999999995,0.036000000000000004,0.031,0.027000000000000003,0.023,0.019,0.016,0.013000000000000001,0.009000000000000001,0.006,0.003,-0.001,-0.004,-0.006999999999999999,-0.011000000000000001,-0.013999999999999999,-0.017,-0.021,-0.024,-0.027000000000000003,-0.03,-0.032,-0.034,-0.036000000000000004,-0.038,-0.039,-0.04,-0.040999999999999995,-0.042,-0.042,-0.042,-0.042,-0.042,-0.043,-0.043,-0.043,-0.044000000000000004,-0.044000000000000004,-0.045,-0.044000000000000004,-0.044000000000000004,-0.044000000000000004,-0.044000000000000004,-0.044000000000000004,-0.044000000000000004,-0.044000000000000004,-0.044000000000000004,-0.044000000000000004,-0.044000000000000004,-0.044000000000000004,-0.044000000000000004,-0.044000000000000004,-0.044000000000000004,-0.044000000000000004,-0.044000000000000004,-0.044000000000000004,-0.044000000000000004,-0.044000000000000004,-0.044000000000000004,-0.043,-0.043,-0.042,-0.040999999999999995,-0.040999999999999995,-0.04,-0.04,-0.04,-0.04,-0.04,-0.04,-0.04,-0.04,-0.04,-0.04,-0.04,-0.04,-0.039,-0.037000000000000005,-0.036000000000000004,-0.035,-0.033,-0.032,-0.03,-0.028999999999999998,-0.028999999999999998,-0.03,-0.031,-0.032,-0.033,-0.034,-0.034,-0.034,-0.033,-0.033,-0.033,-0.033,-0.033,-0.033,-0.033,-0.033,-0.033,-0.033,-0.032,-0.03,-0.028999999999999998,-0.027000000000000003,-0.025,-0.023,-0.021,-0.019,-0.018000000000000002,-0.017,-0.015,-0.015,-0.013999999999999999,-0.013999999999999999,-0.013999999999999999,-0.013000000000000001,-0.012,-0.011000000000000001,-0.011000000000000001,-0.011000000000000001,-0.011000000000000001,-0.011000000000000001,-0.012,-0.013000000000000001,-0.015,-0.015,-0.016,-0.018000000000000002,-0.019,-0.021,-0.022000000000000002,-0.022000000000000002,-0.023,-0.022000000000000002,-0.021,-0.02,-0.019,-0.018000000000000002,-0.018000000000000002,-0.019,-0.02,-0.021,-0.022000000000000002,-0.022000000000000002,-0.023,-0.024,-0.025,-0.026000000000000002,-0.027999999999999997,-0.027999999999999997,-0.027999999999999997,-0.027999999999999997,-0.027000000000000003,-0.025,-0.024,-0.024,-0.023,-0.023,-0.023,-0.025,-0.026000000000000002,-0.028999999999999998,-0.031,-0.032,-0.032,-0.028999999999999998,-0.025,-0.011000000000000001,0.004,0.036000000000000004,0.069,0.126,0.182,0.259,0.336,0.418,0.501,0.5660000000000001,0.63,0.654,0.679,0.6559999999999999,0.634,0.575,0.516,0.442,0.368,0.297,0.226,0.171,0.115,0.077,0.04,0.018000000000000002,-0.003,-0.015,-0.026000000000000002,-0.033,-0.04,-0.043,-0.047,-0.049,-0.051,-0.051,-0.052000000000000005,-0.052000000000000005,-0.052000000000000005,-0.051,-0.051,-0.051,-0.051,-0.051,-0.052000000000000005,-0.051,-0.051,-0.05,-0.048,-0.048,-0.048,-0.048,-0.047,-0.045,-0.044000000000000004,-0.043,-0.043,-0.043,-0.042,-0.042,-0.042,-0.042,-0.040999999999999995,-0.040999999999999995,-0.04,-0.04,-0.039,-0.038,-0.037000000000000005,-0.036000000000000004,-0.036000000000000004,-0.035,-0.034,-0.033,-0.032,-0.031,-0.03,-0.028999999999999998,-0.027999999999999997,-0.027999999999999997,-0.027000000000000003,-0.025,-0.024,-0.023,-0.022000000000000002,-0.02,-0.018000000000000002,-0.017,-0.015,-0.013999999999999999,-0.013000000000000001,-0.012,-0.011000000000000001,-0.009000000000000001,-0.006999999999999999,-0.005,-0.003,-0.002,0.0,0.002,0.003,0.004,0.006,0.008,0.01,0.011000000000000001,0.012,0.013000000000000001,0.015,0.017,0.018000000000000002,0.019,0.02,0.021,0.022000000000000002,0.025,0.027000000000000003,0.031,0.035,0.04,0.045,0.05,0.054000000000000006,0.057999999999999996,0.062,0.065,0.068,0.071,0.07400000000000001,0.078,0.08199999999999999,0.086,0.08900000000000001,0.092,0.095,0.09699999999999999,0.099,0.10099999999999999,0.10300000000000001,0.10400000000000001,0.106,0.106,0.106,0.106,0.106,0.105,0.105,0.10300000000000001,0.102,0.099,0.096,0.09300000000000001,0.09,0.086,0.083,0.079,0.075,0.071,0.067,0.064,0.06,0.055999999999999994,0.052000000000000005,0.047,0.042,0.036000000000000004,0.031,0.027000000000000003,0.023,0.019,0.016,0.013000000000000001,0.009000000000000001,0.005,0.002,-0.002,-0.006,-0.009000000000000001,-0.013000000000000001,-0.017,-0.02,-0.024,-0.027000000000000003,-0.028999999999999998,-0.031,-0.033,-0.034,-0.035,-0.037000000000000005,-0.037000000000000005,-0.038,-0.039,-0.04,-0.040999999999999995,-0.042,-0.043,-0.045,-0.049,-0.052000000000000005,-0.054000000000000006,-0.057,-0.057,-0.057,-0.054000000000000006,-0.051,-0.046,-0.042,-0.04,-0.037000000000000005,-0.036000000000000004,-0.036000000000000004,-0.037000000000000005,-0.038,-0.04,-0.040999999999999995,-0.043,-0.044000000000000004,-0.044000000000000004,-0.045,-0.044000000000000004,-0.043,-0.042,-0.040999999999999995,-0.040999999999999995,-0.04,-0.04,-0.04,-0.04,-0.039,-0.038,-0.038,-0.039,-0.04,-0.040999999999999995,-0.040999999999999995,-0.040999999999999995,-0.04,-0.04,-0.04,-0.04,-0.04,-0.04,-0.04,-0.04,-0.04,-0.04,-0.04,-0.04,-0.039,-0.037000000000000005,-0.036000000000000004,-0.035,-0.033,-0.032,-0.03,-0.028999999999999998,-0.028999999999999998,-0.028999999999999998,-0.03,-0.03,-0.03,-0.03,-0.031,-0.032,-0.032,-0.032,-0.031,-0.028999999999999998,-0.027999999999999997,-0.027000000000000003,-0.026000000000000002,-0.024,-0.021,-0.02,-0.019,-0.018000000000000002,-0.017,-0.017,-0.016,-0.015,-0.013999999999999999,-0.013000000000000001,-0.011000000000000001,-0.011000000000000001,-0.011000000000000001,-0.011000000000000001,-0.011000000000000001,-0.011000000000000001,-0.012,-0.013999999999999999,-0.016,-0.018000000000000002,-0.019,-0.021,-0.022000000000000002,-0.022000000000000002,-0.022000000000000002,-0.021,-0.019,-0.018000000000000002,-0.018000000000000002,-0.018000000000000002,-0.019,-0.019,-0.019,-0.019,-0.02,-0.021,-0.022000000000000002,-0.022000000000000002,-0.023,-0.024,-0.025,-0.026000000000000002,-0.027000000000000003,-0.026000000000000002,-0.025,-0.024,-0.023,-0.023,-0.023,-0.025,-0.026000000000000002,-0.028999999999999998,-0.031,-0.033,-0.034,-0.035,-0.036000000000000004,-0.032,-0.027999999999999997,-0.013999999999999999,0.0,0.03,0.061,0.115,0.168,0.24100000000000002,0.315,0.396,0.47700000000000004,0.541,0.606,0.634,0.662,0.644,0.627,0.5720000000000001,0.517,0.445,0.37200000000000005,0.301,0.23,0.17300000000000001,0.11699999999999999,0.08,0.042,0.021,0.001,-0.009000000000000001,-0.019,-0.024,-0.028999999999999998,N
8,-0.049,-0.05,-0.051,-0.051,-0.052000000000000005,-0.052000000000000005,-0.053,-0.053,-0.054000000000000006,-0.054000000000000006,-0.055,-0.054000000000000006,-0.054000000000000006,-0.053,-0.052000000000000005,-0.051,-0.05,-0.049,-0.048,-0.048,-0.047,-0.045,-0.044000000000000004,-0.044000000000000004,-0.044000000000000004,-0.044000000000000004,-0.044000000000000004,-0.043,-0.043,-0.042,-0.040999999999999995,-0.040999999999999995,-0.04,-0.04,-0.039,-0.038,-0.037000000000000005,-0.036000000000000004,-0.036000000000000004,-0.035,-0.034,-0.033,-0.032,-0.031,-0.03,-0.028999999999999998,-0.027999999999999997,-0.027000000000000003,-0.026000000000000002,-0.024,-0.022000000000000002,-0.021,-0.021,-0.019,-0.018000000000000002,-0.017,-0.015,-0.013999999999999999,-0.013000000000000001,-0.012,-0.011000000000000001,-0.009000000000000001,-0.006999999999999999,-0.005,-0.003,-0.002,0.0,0.002,0.004,0.006,0.008,0.01,0.012,0.013000000000000001,0.015,0.017,0.019,0.021,0.023,0.025,0.027000000000000003,0.03,0.034,0.037000000000000005,0.040999999999999995,0.043,0.046,0.049,0.052000000000000005,0.055999999999999994,0.06,0.064,0.067,0.071,0.075,0.079,0.08199999999999999,0.085,0.08800000000000001,0.09,0.09300000000000001,0.096,0.098,0.099,0.1,0.10099999999999999,0.10099999999999999,0.102,0.10400000000000001,0.10400000000000001,0.10400000000000001,0.10300000000000001,0.10300000000000001,0.102,0.1,0.098,0.095,0.092,0.08900000000000001,0.086,0.083,0.079,0.07400000000000001,0.069,0.064,0.06,0.055999999999999994,0.052000000000000005,0.049,0.045,0.040999999999999995,0.036000000000000004,0.031,0.027000000000000003,0.023,0.019,0.016,0.013000000000000001,0.009000000000000001,0.006,0.003,-0.001,-0.004,-0.006999999999999999,-0.011000000000000001,-0.013999999999999999,-0.017,-0.021,-0.024,-0.027000000000000003,-0.03,-0.032,-0.034,-0.036000000000000004,-0.038,-0.039,-0.04,-0.040999999999999995,-0.042,-0.042,-0.042,-0.042,-0.042,-0.043,-0.043,-0.043,-0.044000000000000004,-0.044000000000000004,-0.045,-0.044000000000000004,-0.044000000000000004,-0.044000000000000004,-0.044000000000000004,-0.044000000000000004,-0.044000000000000004,-0.044000000000000004,-0.044000000000000004,-0.044000000000000004,-0.044000000000000004,-0.044000000000000004,-0.044000000000000004,-0.044000000000000004,-0.044000000000000004,-0.044000000000000004,-0.044000000000000004,-0.044000000000000004,-0.044000000000000004,-0.044000000000000004,-0.044000000000000004,-0.043,-0.043,-0.042,-0.040999999999999995,-0.040999999999999995,-0.04,-0.04,-0.04,-0.04,-0.04,-0.04,-0.04,-0.04,-0.04,-0.04,-0.04,-0.04,-0.039,-0.037000000000000005,-0.036000000000000004,-0.035,-0.033,-0.032,-0.03,-0.028999999999999998,-0.028999999999999998,-0.03,-0.031,-0.032,-0.033,-0.034,-0.034,-0.034,-0.033,-0.033,-0.033,-0.033,-0.033,-0.033,-0.033,-0.033,-0.033,-0.033,-0.032,-0.03,-0.028999999999999998,-0.027000000000000003,-0.025,-0.023,-0.021,-0.019,-0.018000000000000002,-0.017,-0.015,-0.015,-0.013999999999999999,-0.013999999999999999,-0.013999999999999999,-0.013000000000000001,-0.012,-0.011000000000000001,-0.011000000000000001,-0.011000000000000001,-0.011000000000000001,-0.011000000000000001,-0.012,-0.013000000000000001,-0.015,-0.015,-0.016,-0.018000000000000002,-0.019,-0.021,-0.022000000000000002,-0.022000000000000002,-0.023,-0.022000000000000002,-0.021,-0.02,-0.019,-0.018000000000000002,-0.018000000000000002,-0.019,-0.02,-0.021,-0.022000000000000002,-0.022000000000000002,-0.023,-0.024,-0.025,-0.026000000000000002,-0.027999999999999997,-0.027999999999999997,-0.027999999999999997,-0.027999999999999997,-0.027000000000000003,-0.025,-0.024,-0.024,-0.023,-0.023,-0.023,-0.025,-0.026000000000000002,-0.028999999999999998,-0.031,-0.032,-0.032,-0.028999999999999998,-0.025,-0.011000000000000001,0.004,0.036000000000000004,0.069,0.126,0.182,0.259,0.336,0.418,0.501,0.5660000000000001,0.63,0.654,0.679,0.6559999999999999,0.634,0.575,0.516,0.442,0.368,0.297,0.226,0.171,0.115,0.077,0.04,0.018000000000000002,-0.003,-0.015,-0.026000000000000002,-0.033,-0.04,-0.043,-0.047,-0.049,-0.051,-0.051,-0.052000000000000005,-0.052000000000000005,-0.052000000000000005,-0.051,-0.051,-0.051,-0.051,-0.051,-0.052000000000000005,-0.051,-0.051,-0.05,-0.048,-0.048,-0.048,-0.048,-0.047,-0.045,-0.044000000000000004,-0.043,-0.043,-0.043,-0.042,-0.042,-0.042,-0.042,-0.040999999999999995,-0.040999999999999995,-0.04,-0.04,-0.039,-0.038,-0.037000000000000005,-0.036000000000000004,-0.036000000000000004,-0.035,-0.034,-0.033,-0.032,-0.031,-0.03,-0.028999999999999998,-0.027999999999999997,-0.027999999999999997,-0.027000000000000003,-0.025,-0.024,-0.023,-0.022000000000000002,-0.02,-0.018000000000000002,-0.017,-0.015,-0.013999999999999999,-0.013000000000000001,-0.012,-0.011000000000000001,-0.009000000000000001,-0.006999999999999999,-0.005,-0.003,-0.002,0.0,0.002,0.003,0.004,0.006,0.008,0.01,0.011000000000000001,0.012,0.013000000000000001,0.015,0.017,0.018000000000000002,0.019,0.02,0.021,0.022000000000000002,0.025,0.027000000000000003,0.031,0.035,0.04,0.045,0.05,0.054000000000000006,0.057999999999999996,0.062,0.065,0.068,0.071,0.07400000000000001,0.078,0.08199999999999999,0.086,0.08900000000000001,0.092,0.095,0.09699999999999999,0.099,0.10099999999999999,0.10300000000000001,0.10400000000000001,0.106,0.106,0.106,0.106,0.106,0.105,0.105,0.10300000000000001,0.102,0.099,0.096,0.09300000000000001,0.09,0.086,0.083,0.079,0.075,0.071,0.067,0.064,0.06,0.055999999999999994,0.052000000000000005,0.047,0.042,0.036000000000000004,0.031,0.027000000000000003,0.023,0.019,0.016,0.013000000000000001,0.009000000000000001,0.005,0.002,-0.002,-0.006,-0.009000000000000001,-0.013000000000000001,-0.017,-0.02,-0.024,-0.027000000000000003,-0.028999999999999998,-0.031,-0.033,-0.034,-0.035,-0.037000000000000005,-0.037000000000000005,-0.038,-0.039,-0.04,-0.040999999999999995,-0.042,-0.043,-0.045,-0.049,-0.052000000000000005,-0.054000000000000006,-0.057,-0.057,-0.057,-0.054000000000000006,-0.051,-0.046,-0.042,-0.04,-0.037000000000000005,-0.036000000000000004,-0.036000000000000004,-0.037000000000000005,-0.038,-0.04,-0.040999999999999995,-0.043,-0.044000000000000004,-0.044000000000000004,-0.045,-0.044000000000000004,-0.043,-0.042,-0.040999999999999995,-0.040999999999999995,-0.04,-0.04,-0.04,-0.04,-0.039,-0.038,-0.038,-0.039,-0.04,-0.040999999999999995,-0.040999999999999995,-0.040999999999999995,-0.04,-0.04,-0.04,-0.04,-0.04,-0.04,-0.04,-0.04,-0.04,-0.04,-0.04,-0.04,-0.039,-0.037000000000000005,-0.036000000000000004,-0.035,-0.033,-0.032,-0.03,-0.028999999999999998,-0.028999999999999998,-0.028999999999999998,-0.03,-0.03,-0.03,-0.03,-0.031,-0.032,-0.032,-0.032,-0.031,-0.028999999999999998,-0.027999999999999997,-0.027000000000000003,-0.026000000000000002,-0.024,-0.021,-0.02,-0.019,-0.018000000000000002,-0.017,-0.017,-0.016,-0.015,-0.013999999999999999,-0.013000000000000001,-0.011000000000000001,-0.011000000000000001,-0.011000000000000001,-0.011000000000000001,-0.011000000000000001,-0.011000000000000001,-0.012,-0.013999999999999999,-0.016,-0.018000000000000002,-0.019,-0.021,-0.022000000000000002,-0.022000000000000002,-0.022000000000000002,-0.021,-0.019,-0.018000000000000002,-0.018000000000000002,-0.018000000000000002,-0.019,-0.019,-0.019,-0.019,-0.02,-0.021,-0.022000000000000002,-0.022000000000000002,-0.023,-0.024,-0.025,-0.026000000000000002,-0.027000000000000003,-0.026000000000000002,-0.025,-0.024,-0.023,-0.023,-0.023,-0.025,-0.026000000000000002,-0.028999999999999998,-0.031,-0.033,-0.034,-0.035,-0.036000000000000004,-0.032,-0.027999999999999997,-0.013999999999999999,0.0,0.03,0.061,0.115,0.168,0.24100000000000002,0.315,0.396,0.47700000000000004,0.541,0.606,0.634,0.662,0.644,0.627,0.5720000000000001,0.517,0.445,0.37200000000000005,0.301,0.23,0.17300000000000001,0.11699999999999999,0.08,0.042,0.021,0.001,-0.009000000000000001,-0.019,-0.024,-0.028999999999999998,-0.032,-0.034,-0.035,-0.037000000000000005,-0.037000000000000005,-0.038,-0.039,-0.04,-0.040999999999999995,-0.042,-0.043,-0.043,-0.044000000000000004,-0.045,-0.046,-0.048,-0.048,-0.047,-0.045,-0.044000000000000004,-0.044000000000000004,-0.044000000000000004,-0.044000000000000004,-0.044000000000000004,-0.043,-0.043,-0.042,-0.040999999999999995,-0.040999999999999995,-0.04,-0.04,-0.04,-0.04,-0.039,-0.038,-0.037000000000000005,-0.036000000000000004,-0.036000000000000004,-0.035,-0.034,-0.034,-0.033,-0.033,-0.033,-0.033,-0.032,-0.031,-0.03,-0.028999999999999998,-0.027999999999999997,-0.027000000000000003,-0.026000000000000002,-0.024,-0.021,-0.019,-0.018000000000000002,-0.017,-0.015,-0.013999999999999999,-0.013000000000000001,-0.012,-0.011000000000000001,-0.009000000000000001,-0.008,-0.006999999999999999,-0.006,-0.005,-0.004,-0.004,-0.003,-0.002,0.0,0.002,0.004,0.006,0.008,0.01,0.012,0.013000000000000001,0.015,0.017,0.019,0.021,0.024,0.026000000000000002,0.028999999999999998,0.033,0.036000000000000004,0.04,0.044000000000000004,0.049,0.053,0.057,0.06,0.064,0.067,0.071,0.075,0.079,0.08199999999999999,0.085,0.08800000000000001,0.09,0.09300000000000001,0.096,0.099,0.10099999999999999,0.10300000000000001,0.10400000000000001,0.106,0.106,0.106,0.106,0.106,0.106,0.106,0.105,0.10400000000000001,0.10099999999999999,0.098,0.096,0.09300000000000001,0.08900000000000001,0.085,0.08,0.075,0.071,0.067,0.063,0.059000000000000004,0.054000000000000006,0.05,0.046,0.042,0.037000000000000005,0.033,0.028999999999999998,0.025,0.022000000000000002,0.019,0.016,0.013000000000000001,0.009000000000000001,0.006,0.002,-0.003,-0.006999999999999999,-0.012,-0.017,-0.021,-0.025,-0.027999999999999997,-0.031,-0.034,-0.035,-0.037000000000000005,-0.037000000000000005,-0.037000000000000005,-0.037000000000000005,-0.037000000000000005,-0.037000000000000005,-0.037000000000000005,-0.037000000000000005,-0.038,-0.039,-0.04,-0.040999999999999995,-0.042,-0.043,-0.044000000000000004,-0.046,-0.048,-0.048,-0.047,-0.045,-0.044000000000000004,-0.044000000000000004,-0.044000000000000004,-0.044000000000000004,-0.044000000000000004,-0.044000000000000004,-0.044000000000000004,-0.044000000000000004,-0.044000000000000004,-0.044000000000000004,-0.044000000000000004,-0.044000000000000004,-0.044000000000000004,-0.044000000000000004,-0.044000000000000004,-0.044000000000000004,-0.044000000000000004,-0.044000000000000004,-0.044000000000000004,-0.044000000000000004,-0.044000000000000004,-0.043,-0.043,-0.042,-0.040999999999999995,-0.040999999999999995,-0.04,-0.04,-0.039,-0.038,-0.037000000000000005,-0.037000000000000005,-0.037000000000000005,-0.037000000000000005,-0.037000000000000005,-0.037000000000000005,-0.037000000000000005,-0.037000000000000005,-0.037000000000000005,-0.037000000000000005,-0.037000000000000005,-0.037000000000000005,-0.037000000000000005,-0.036000000000000004,-0.036000000000000004,-0.035,-0.034,-0.034,-0.033,-0.033,-0.033,-0.033,-0.033,-0.033,-0.033,-0.033,-0.032,-0.03,-0.028999999999999998,-0.027000000000000003,-0.025,-0.023,-0.021,-0.02,-0.019,-0.018000000000000002,-0.017,-0.017,-0.016,-0.015,-0.013999999999999999,-0.013000000000000001,-0.011000000000000001,-0.011000000000000001,-0.011000000000000001,-0.011000000000000001,-0.012,-0.013000000000000001,-0.015,-0.016,-0.017,-0.019,-0.022000000000000002,-0.024,-0.026000000000000002,-0.027000000000000003,-0.027999999999999997,-0.027999999999999997,-0.027999999999999997,-0.027999999999999997,-0.027000000000000003,-0.025,-0.024,-0.024,-0.023,-0.023,-0.023,-0.024,-0.025,-0.026000000000000002,-0.027999999999999997,-0.028999999999999998,-0.028999999999999998,-0.028999999999999998,-0.03,-0.028999999999999998,-0.028999999999999998,-0.027999999999999997,-0.027000000000000003,-0.026000000000000002,-0.025,-0.025,-0.026000000000000002,-0.026000000000000002,-0.027000000000000003,-0.028999999999999998,-0.03,-0.032,-0.033,-0.033,-0.032,-0.025,-0.018000000000000002,0.002,0.021,0.06,0.099,0.162,0.225,0.306,0.387,0.466,0.545,0.599,0.653,0.6629999999999999,0.6729999999999999,0.637,0.602,0.535,0.469,0.39399999999999996,0.319,0.253,0.18600000000000003,0.13699999999999998,0.08800000000000001,0.055999999999999994,0.024,0.006,-0.011000000000000001,-0.02,-0.028999999999999998,-0.035,-0.04,-0.043,-0.046,-0.049,-0.052000000000000005,-0.054000000000000006,-0.057,-0.057999999999999996,N
9,-0.049,-0.051,-0.051,-0.052000000000000005,-0.052000000000000005,-0.052000000000000005,-0.051,-0.051,-0.051,-0.051,-0.051,-0.052000000000000005,-0.051,-0.051,-0.05,-0.048,-0.048,-0.048,-0.048,-0.047,-0.045,-0.044000000000000004,-0.043,-0.043,-0.043,-0.042,-0.042,-0.042,-0.042,-0.040999999999999995,-0.040999999999999995,-0.04,-0.04,-0.039,-0.038,-0.037000000000000005,-0.036000000000000004,-0.036000000000000004,-0.035,-0.034,-0.033,-0.032,-0.031,-0.03,-0.028999999999999998,-0.027999999999999997,-0.027999999999999997,-0.027000000000000003,-0.025,-0.024,-0.023,-0.022000000000000002,-0.02,-0.018000000000000002,-0.017,-0.015,-0.013999999999999999,-0.013000000000000001,-0.012,-0.011000000000000001,-0.009000000000000001,-0.006999999999999999,-0.005,-0.003,-0.002,0.0,0.002,0.003,0.004,0.006,0.008,0.01,0.011000000000000001,0.012,0.013000000000000001,0.015,0.017,0.018000000000000002,0.019,0.02,0.021,0.022000000000000002,0.025,0.027000000000000003,0.031,0.035,0.04,0.045,0.05,0.054000000000000006,0.057999999999999996,0.062,0.065,0.068,0.071,0.07400000000000001,0.078,0.08199999999999999,0.086,0.08900000000000001,0.092,0.095,0.09699999999999999,0.099,0.10099999999999999,0.10300000000000001,0.10400000000000001,0.106,0.106,0.106,0.106,0.106,0.105,0.105,0.10300000000000001,0.102,0.099,0.096,0.09300000000000001,0.09,0.086,0.083,0.079,0.075,0.071,0.067,0.064,0.06,0.055999999999999994,0.052000000000000005,0.047,0.042,0.036000000000000004,0.031,0.027000000000000003,0.023,0.019,0.016,0.013000000000000001,0.009000000000000001,0.005,0.002,-0.002,-0.006,-0.009000000000000001,-0.013000000000000001,-0.017,-0.02,-0.024,-0.027000000000000003,-0.028999999999999998,-0.031,-0.033,-0.034,-0.035,-0.037000000000000005,-0.037000000000000005,-0.038,-0.039,-0.04,-0.040999999999999995,-0.042,-0.043,-0.045,-0.049,-0.052000000000000005,-0.054000000000000006,-0.057,-0.057,-0.057,-0.054000000000000006,-0.051,-0.046,-0.042,-0.04,-0.037000000000000005,-0.036000000000000004,-0.036000000000000004,-0.037000000000000005,-0.038,-0.04,-0.040999999999999995,-0.043,-0.044000000000000004,-0.044000000000000004,-0.045,-0.044000000000000004,-0.043,-0.042,-0.040999999999999995,-0.040999999999999995,-0.04,-0.04,-0.04,-0.04,-0.039,-0.038,-0.038,-0.039,-0.04,-0.040999999999999995,-0.040999999999999995,-0.040999999999999995,-0.04,-0.04,-0.04,-0.04,-0.04,-0.04,-0.04,-0.04,-0.04,-0.04,-0.04,-0.04,-0.039,-0.037000000000000005,-0.036000000000000004,-0.035,-0.033,-0.032,-0.03,-0.028999999999999998,-0.028999999999999998,-0.028999999999999998,-0.03,-0.03,-0.03,-0.03,-0.031,-0.032,-0.032,-0.032,-0.031,-0.028999999999999998,-0.027999999999999997,-0.027000000000000003,-0.026000000000000002,-0.024,-0.021,-0.02,-0.019,-0.018000000000000002,-0.017,-0.017,-0.016,-0.015,-0.013999999999999999,-0.013000000000000001,-0.011000000000000001,-0.011000000000000001,-0.011000000000000001,-0.011000000000000001,-0.011000000000000001,-0.011000000000000001,-0.012,-0.013999999999999999,-0.016,-0.018000000000000002,-0.019,-0.021,-0.022000000000000002,-0.022000000000000002,-0.022000000000000002,-0.021,-0.019,-0.018000000000000002,-0.018000000000000002,-0.018000000000000002,-0.019,-0.019,-0.019,-0.019,-0.02,-0.021,-0.022000000000000002,-0.022000000000000002,-0.023,-0.024,-0.025,-0.026000000000000002,-0.027000000000000003,-0.026000000000000002,-0.025,-0.024,-0.023,-0.023,-0.023,-0.025,-0.026000000000000002,-0.028999999999999998,-0.031,-0.033,-0.034,-0.035,-0.036000000000000004,-0.032,-0.027999999999999997,-0.013999999999999999,0.0,0.03,0.061,0.115,0.168,0.24100000000000002,0.315,0.396,0.47700000000000004,0.541,0.606,0.634,0.662,0.644,0.627,0.5720000000000001,0.517,0.445,0.37200000000000005,0.301,0.23,0.17300000000000001,0.11699999999999999,0.08,0.042,0.021,0.001,-0.009000000000000001,-0.019,-0.024,-0.028999999999999998,-0.032,-0.034,-0.035,-0.037000000000000005,-0.037000000000000005,-0.038,-0.039,-0.04,-0.040999999999999995,-0.042,-0.043,-0.043,-0.044000000000000004,-0.045,-0.046,-0.048,-0.048,-0.047,-0.045,-0.044000000000000004,-0.044000000000000004,-0.044000000000000004,-0.044000000000000004,-0.044000000000000004,-0.043,-0.043,-0.042,-0.040999999999999995,-0.040999999999999995,-0.04,-0.04,-0.04,-0.04,-0.039,-0.038,-0.037000000000000005,-0.036000000000000004,-0.036000000000000004,-0.035,-0.034,-0.034,-0.033,-0.033,-0.033,-0.033,-0.032,-0.031,-0.03,-0.028999999999999998,-0.027999999999999997,-0.027000000000000003,-0.026000000000000002,-0.024,-0.021,-0.019,-0.018000000000000002,-0.017,-0.015,-0.013999999999999999,-0.013000000000000001,-0.012,-0.011000000000000001,-0.009000000000000001,-0.008,-0.006999999999999999,-0.006,-0.005,-0.004,-0.004,-0.003,-0.002,0.0,0.002,0.004,0.006,0.008,0.01,0.012,0.013000000000000001,0.015,0.017,0.019,0.021,0.024,0.026000000000000002,0.028999999999999998,0.033,0.036000000000000004,0.04,0.044000000000000004,0.049,0.053,0.057,0.06,0.064,0.067,0.071,0.075,0.079,0.08199999999999999,0.085,0.08800000000000001,0.09,0.09300000000000001,0.096,0.099,0.10099999999999999,0.10300000000000001,0.10400000000000001,0.106,0.106,0.106,0.106,0.106,0.106,0.106,0.105,0.10400000000000001,0.10099999999999999,0.098,0.096,0.09300000000000001,0.08900000000000001,0.085,0.08,0.075,0.071,0.067,0.063,0.059000000000000004,0.054000000000000006,0.05,0.046,0.042,0.037000000000000005,0.033,0.028999999999999998,0.025,0.022000000000000002,0.019,0.016,0.013000000000000001,0.009000000000000001,0.006,0.002,-0.003,-0.006999999999999999,-0.012,-0.017,-0.021,-0.025,-0.027999999999999997,-0.031,-0.034,-0.035,-0.037000000000000005,-0.037000000000000005,-0.037000000000000005,-0.037000000000000005,-0.037000000000000005,-0.037000000000000005,-0.037000000000000005,-0.037000000000000005,-0.038,-0.039,-0.04,-0.040999999999999995,-0.042,-0.043,-0.044000000000000004,-0.046,-0.048,-0.048,-0.047,-0.045,-0.044000000000000004,-0.044000000000000004,-0.044000000000000004,-0.044000000000000004,-0.044000000000000004,-0.044000000000000004,-0.044000000000000004,-0.044000000000000004,-0.044000000000000004,-0.044000000000000004,-0.044000000000000004,-0.044000000000000004,-0.044000000000000004,-0.044000000000000004,-0.044000000000000004,-0.044000000000000004,-0.044000000000000004,-0.044000000000000004,-0.044000000000000004,-0.044000000000000004,-0.044000000000000004,-0.043,-0.043,-0.042,-0.040999999999999995,-0.040999999999999995,-0.04,-0.04,-0.039,-0.038,-0.037000000000000005,-0.037000000000000005,-0.037000000000000005,-0.037000000000000005,-0.037000000000000005,-0.037000000000000005,-0.037000000000000005,-0.037000000000000005,-0.037000000000000005,-0.037000000000000005,-0.037000000000000005,-0.037000000000000005,-0.037000000000000005,-0.036000000000000004,-0.036000000000000004,-0.035,-0.034,-0.034,-0.033,-0.033,-0.033,-0.033,-0.033,-0.033,-0.033,-0.033,-0.032,-0.03,-0.028999999999999998,-0.027000000000000003,-0.025,-0.023,-0.021,-0.02,-0.019,-0.018000000000000002,-0.017,-0.017,-0.016,-0.015,-0.013999999999999999,-0.013000000000000001,-0.011000000000000001,-0.011000000000000001,-0.011000000000000001,-0.011000000000000001,-0.012,-0.013000000000000001,-0.015,-0.016,-0.017,-0.019,-0.022000000000000002,-0.024,-0.026000000000000002,-0.027000000000000003,-0.027999999999999997,-0.027999999999999997,-0.027999999999999997,-0.027999999999999997,-0.027000000000000003,-0.025,-0.024,-0.024,-0.023,-0.023,-0.023,-0.024,-0.025,-0.026000000000000002,-0.027999999999999997,-0.028999999999999998,-0.028999999999999998,-0.028999999999999998,-0.03,-0.028999999999999998,-0.028999999999999998,-0.027999999999999997,-0.027000000000000003,-0.026000000000000002,-0.025,-0.025,-0.026000000000000002,-0.026000000000000002,-0.027000000000000003,-0.028999999999999998,-0.03,-0.032,-0.033,-0.033,-0.032,-0.025,-0.018000000000000002,0.002,0.021,0.06,0.099,0.162,0.225,0.306,0.387,0.466,0.545,0.599,0.653,0.6629999999999999,0.6729999999999999,0.637,0.602,0.535,0.469,0.39399999999999996,0.319,0.253,0.18600000000000003,0.13699999999999998,0.08800000000000001,0.055999999999999994,0.024,0.006,-0.011000000000000001,-0.02,-0.028999999999999998,-0.035,-0.04,-0.043,-0.046,-0.049,-0.052000000000000005,-0.054000000000000006,-0.057,-0.057999999999999996,-0.059000000000000004,-0.059000000000000004,-0.059000000000000004,-0.059000000000000004,-0.057999999999999996,-0.057,-0.055,-0.053,-0.051,-0.049,-0.047,-0.045,-0.044000000000000004,-0.044000000000000004,-0.044000000000000004,-0.044000000000000004,-0.044000000000000004,-0.044000000000000004,-0.044000000000000004,-0.044000000000000004,-0.045,-0.045,-0.046,-0.045,-0.045,-0.044000000000000004,-0.043,-0.042,-0.04,-0.038,-0.036000000000000004,-0.035,-0.033,-0.033,-0.033,-0.033,-0.033,-0.033,-0.033,-0.033,-0.032,-0.031,-0.03,-0.028999999999999998,-0.028999999999999998,-0.028999999999999998,-0.028999999999999998,-0.027999999999999997,-0.026000000000000002,-0.023,-0.02,-0.018000000000000002,-0.015,-0.013000000000000001,-0.011000000000000001,-0.012,-0.013000000000000001,-0.016,-0.019,-0.021,-0.023,-0.023,-0.023,-0.018000000000000002,-0.013999999999999999,-0.008,-0.002,0.004,0.01,0.015,0.021,0.026000000000000002,0.032,0.039,0.046,0.053,0.061,0.065,0.069,0.069,0.069,0.068,0.066,0.066,0.066,0.068,0.069,0.07200000000000001,0.075,0.077,0.08,0.083,0.086,0.08900000000000001,0.092,0.094,0.096,0.098,0.099,0.10099999999999999,0.10300000000000001,0.105,0.107,0.107,0.10800000000000001,0.107,0.106,0.10400000000000001,0.102,0.1,0.09699999999999999,0.096,0.094,0.091,0.08900000000000001,0.086,0.083,0.079,0.075,0.07,0.066,0.061,0.057,0.052000000000000005,0.048,0.043,0.037000000000000005,0.032,0.027000000000000003,0.021,0.016,0.012,0.008,0.005,0.002,-0.002,-0.005,-0.009000000000000001,-0.013000000000000001,-0.017,-0.02,-0.024,-0.027000000000000003,-0.028999999999999998,-0.031,-0.033,-0.034,-0.036000000000000004,-0.038,-0.039,-0.04,-0.040999999999999995,-0.040999999999999995,-0.040999999999999995,-0.04,-0.04,-0.04,-0.040999999999999995,-0.040999999999999995,-0.042,-0.043,-0.043,-0.044000000000000004,-0.044000000000000004,-0.044000000000000004,-0.042,-0.04,-0.038,-0.037000000000000005,-0.036000000000000004,-0.036000000000000004,-0.036000000000000004,-0.037000000000000005,-0.037000000000000005,-0.038,-0.039,-0.04,-0.040999999999999995,-0.040999999999999995,-0.040999999999999995,-0.04,-0.04,-0.04,-0.04,-0.039,-0.038,-0.037000000000000005,-0.037000000000000005,-0.037000000000000005,-0.037000000000000005,-0.037000000000000005,-0.037000000000000005,-0.037000000000000005,-0.037000000000000005,-0.037000000000000005,-0.037000000000000005,-0.037000000000000005,-0.037000000000000005,-0.037000000000000005,-0.037000000000000005,-0.037000000000000005,-0.037000000000000005,-0.037000000000000005,-0.037000000000000005,-0.037000000000000005,-0.037000000000000005,-0.037000000000000005,-0.037000000000000005,-0.037000000000000005,-0.037000000000000005,-0.037000000000000005,-0.036000000000000004,-0.036000000000000004,-0.035,-0.034,-0.034,-0.033,-0.033,-0.033,-0.033,-0.033,-0.033,-0.032,-0.031,-0.03,-0.028999999999999998,-0.027999999999999997,-0.027000000000000003,-0.026000000000000002,-0.024,-0.021,-0.02,-0.019,-0.018000000000000002,-0.017,-0.016,-0.015,-0.013000000000000001,-0.011000000000000001,-0.011000000000000001,-0.01,-0.009000000000000001,-0.009000000000000001,-0.01,-0.011000000000000001,-0.013000000000000001,-0.015,-0.018000000000000002,-0.02,-0.021,-0.023,-0.022000000000000002,-0.022000000000000002,-0.022000000000000002,-0.022000000000000002,-0.022000000000000002,-0.022000000000000002,-0.022000000000000002,-0.022000000000000002,-0.022000000000000002,-0.023,-0.024,-0.025,-0.026000000000000002,-0.027999999999999997,-0.028999999999999998,-0.028999999999999998,-0.028999999999999998,-0.03,-0.03,-0.03,-0.03,-0.03,-0.03,-0.03,-0.03,-0.03,-0.03,-0.03,-0.03,-0.03,-0.03,-0.031,-0.032,-0.033,-0.033,-0.032,-0.025,-0.019,0.0,0.019,0.059000000000000004,0.098,0.163,0.228,0.311,0.39399999999999996,0.475,0.557,0.612,0.6659999999999999,0.6759999999999999,0.687,0.6509999999999999,0.615,0.547,0.48,0.40299999999999997,0.326,0.257,0.188,0.136,0.084,0.051,0.019,0.001,-0.017,-0.025,-0.034,-0.038,-0.043,-0.046,-0.049,-0.051,-0.052000000000000005,-0.052000000000000005,-0.052000000000000005,-0.052000000000000005,-0.052000000000000005,-0.053,-0.054000000000000006,-0.054000000000000006,-0.055,N
