0,-0.114,-0.114,-0.114,-0.1,-0.1,-0.1,-0.1,-0.1,-0.1,-0.1,-0.1,-0.1,-0.1,-0.1,-0.1,-0.1,-0.1,-0.1,-0.1,-0.1,-0.1,-0.085,-0.071,-0.071,-0.071,-0.085,-0.085,-0.071,-0.071,-0.071,-0.071,-0.071,-0.071,-0.071,-0.071,-0.071,-0.071,-0.071,-0.071,-0.071,-0.071,-0.071,-0.071,-0.071,-0.071,-0.071,-0.055999999999999994,-0.055999999999999994,-0.055999999999999994,-0.055999999999999994,-0.055999999999999994,-0.042,-0.042,-0.042,-0.027999999999999997,-0.027999999999999997,-0.027999999999999997,-0.027999999999999997,-0.027999999999999997,-0.013000000000000001,-0.013000000000000001,-0.013000000000000001,-0.013000000000000001,-0.013000000000000001,0.001,-0.013000000000000001,0.001,0.001,0.001,-0.013000000000000001,-0.013000000000000001,0.001,0.001,0.001,0.001,0.001,0.001,0.001,0.015,0.015,0.03,0.03,0.03,0.03,0.03,0.03,0.03,0.03,0.044000000000000004,0.057999999999999996,0.057999999999999996,0.057999999999999996,0.057999999999999996,0.057999999999999996,0.073,0.073,0.073,0.073,0.073,0.073,0.073,0.073,0.073,0.073,0.073,0.087,0.087,0.073,0.073,0.073,0.073,0.073,0.073,0.102,0.102,0.102,0.102,0.11599999999999999,0.11599999999999999,0.11599999999999999,0.131,0.131,0.145,0.145,0.145,0.145,0.145,0.145,0.145,0.145,0.145,0.131,0.131,0.11599999999999999,0.11599999999999999,0.11599999999999999,0.11599999999999999,0.11599999999999999,0.102,0.102,0.102,0.087,0.073,0.073,0.057999999999999996,0.057999999999999996,0.057999999999999996,0.057999999999999996,0.044000000000000004,0.044000000000000004,0.03,0.015,0.015,0.001,0.001,0.001,0.001,0.001,0.001,0.001,0.001,0.001,0.001,0.001,0.001,0.001,0.001,0.001,0.001,0.001,0.001,0.001,-0.013000000000000001,-0.013000000000000001,-0.013000000000000001,-0.013000000000000001,0.001,0.001,0.001,0.001,0.001,0.001,0.001,0.001,0.001,0.001,0.001,0.001,0.001,0.001,0.001,0.001,0.001,0.001,0.001,0.001,0.001,0.001,0.001,0.001,0.001,0.001,0.001,0.001,0.001,0.001,0.001,0.001,-0.013000000000000001,-0.013000000000000001,-0.013000000000000001,-0.013000000000000001,-0.013000000000000001,0.001,0.001,-0.013000000000000001,-0.013000000000000001,-0.013000000000000001,-0.027999999999999997,-0.027999999999999997,-0.027999999999999997,-0.027999999999999997,-0.027999999999999997,-0.027999999999999997,-0.013000000000000001,-0.013000000000000001,-0.013000000000000001,-0.013000000000000001,-0.013000000000000001,-0.013000000000000001,0.001,0.001,0.001,0.001,0.001,0.001,0.001,0.001,0.001,0.001,0.001,0.001,0.001,0.015,0.03,0.03,0.044000000000000004,0.057999999999999996,0.057999999999999996,0.044000000000000004,0.044000000000000004,0.044000000000000004,0.03,0.03,0.03,0.03,0.03,0.03,0.015,0.015,0.001,0.001,0.001,0.001,0.001,-0.013000000000000001,-0.027999999999999997,-0.027999999999999997,-0.042,-0.055999999999999994,-0.055999999999999994,-0.071,-0.085,-0.1,-0.1,-0.114,-0.114,-0.114,-0.114,-0.114,-0.114,-0.114,-0.114,-0.114,-0.114,-0.114,-0.1,-0.1,-0.1,-0.1,-0.1,-0.114,-0.1,-0.114,-0.1,-0.1,-0.1,-0.114,-0.114,-0.114,-0.1,-0.1,-0.071,-0.055999999999999994,-0.013000000000000001,0.015,0.057999999999999996,0.102,0.159,0.217,0.303,0.39,0.47600000000000003,0.562,0.648,0.735,0.764,0.7929999999999999,0.778,0.706,0.606,0.47600000000000003,0.34600000000000003,0.217,0.11599999999999999,0.015,-0.055999999999999994,-0.114,-0.157,-0.172,-0.18600000000000003,-0.201,-0.215,-0.201,-0.201,-0.18600000000000003,-0.172,-0.157,-0.157,-0.157,-0.14300000000000002,-0.14300000000000002,-0.14300000000000002,-0.129,-0.114,-0.114,-0.114,-0.1,-0.1,-0.1,-0.114,-0.114,-0.114,-0.114,-0.114,-0.114,-0.114,-0.114,-0.114,-0.114,-0.114,-0.114,-0.129,-0.114,-0.114,-0.114,-0.114,-0.114,-0.114,-0.114,-0.114,-0.114,-0.114,-0.114,-0.114,-0.1,-0.1,-0.085,-0.085,-0.085,-0.071,-0.085,-0.071,-0.085,-0.085,-0.085,-0.1,-0.1,-0.1,-0.085,-0.085,-0.085,-0.085,-0.071,-0.071,-0.055999999999999994,-0.055999999999999994,-0.055999999999999994,-0.055999999999999994,-0.055999999999999994,-0.055999999999999994,-0.055999999999999994,-0.055999999999999994,-0.055999999999999994,-0.027999999999999997,-0.027999999999999997,-0.027999999999999997,-0.027999999999999997,-0.027999999999999997,-0.027999999999999997,-0.013000000000000001,-0.027999999999999997,-0.013000000000000001,-0.013000000000000001,0.001,0.001,-0.013000000000000001,-0.013000000000000001,-0.013000000000000001,0.001,0.001,0.001,0.015,0.015,0.015,0.03,0.03,0.03,0.03,0.03,0.03,0.044000000000000004,0.03,0.03,0.03,0.03,0.044000000000000004,0.044000000000000004,0.057999999999999996,0.057999999999999996,0.057999999999999996,0.057999999999999996,0.073,0.057999999999999996,0.073,0.073,0.073,0.087,0.087,0.073,0.087,0.087,0.087,0.073,0.087,0.102,0.102,0.102,0.102,0.102,0.102,0.102,0.11599999999999999,0.11599999999999999,0.11599999999999999,0.11599999999999999,0.131,0.11599999999999999,0.11599999999999999,0.11599999999999999,0.11599999999999999,0.11599999999999999,0.102,0.102,0.102,0.087,0.087,0.073,0.073,0.073,0.057999999999999996,0.057999999999999996,0.057999999999999996,0.044000000000000004,0.044000000000000004,0.03,0.03,0.03,0.03,0.03,0.015,0.001,0.001,0.001,0.001,0.001,0.001,0.001,0.001,-0.013000000000000001,-0.013000000000000001,-0.013000000000000001,-0.013000000000000001,-0.027999999999999997,-0.027999999999999997,-0.027999999999999997,-0.027999999999999997,-0.027999999999999997,-0.027999999999999997,-0.013000000000000001,0.001,0.001,0.001,0.001,0.001,0.001,0.001,0.001,-0.013000000000000001,-0.013000000000000001,-0.013000000000000001,-0.013000000000000001,-0.013000000000000001,0.001,0.001,0.001,0.001,0.001,0.001,0.001,0.001,0.001,0.001,0.001,0.001,-0.013000000000000001,0.001,0.001,0.001,-0.013000000000000001,0.001,-0.013000000000000001,-0.013000000000000001,-0.013000000000000001,-0.027999999999999997,-0.027999999999999997,-0.027999999999999997,-0.027999999999999997,-0.027999999999999997,-0.013000000000000001,-0.013000000000000001,-0.013000000000000001,-0.027999999999999997,-0.027999999999999997,-0.027999999999999997,-0.027999999999999997,-0.027999999999999997,-0.027999999999999997,-0.027999999999999997,-0.027999999999999997,N,,,,,,,,,,,,,,,,,,,,,,,,,,,,,,,,,,,,,,,,,,,,,,,,,,,,,,,,,,,,,,,,,,,,,,,,,,,,,,,,,,,,,,,,,,,,,,,,,,,,,,,,,,,,,,,,,,,,,,,,,,,,,,,,,,,,,,,,,,,,,,,,,,,,,,,,,,,,,,,,,,,,,,,,,,,,,,,,,,,,,,,,,,,,,,,,,,,,,,,,,,,,,,,,,,,,,,,,,,,,,,,,,,,,,,,,,,,,,,,,,,,,,,,,,,,,,,,,,,,,,,,,,,,,,,,,,,,,,,,,,,,,,,,,,,,,,,,,,,,,,,,,,,,,,,,,,,,,,,,,,,,,,,,,,,,,,,,,,,,,,,,,,,,,,,,,,,,,,,,,,,,,,,,,,,,,,,,,,,,,,,,,,,,,,,,,,,,,,,,,,,,,,,,,,,,,,,,,,,,,,,,,,,,,,,,,,,,,,,,,
1,-0.114,-0.114,-0.114,-0.1,-0.1,-0.1,-0.085,-0.071,-0.071,-0.071,-0.071,-0.071,-0.071,-0.071,-0.071,-0.071,-0.071,-0.071,-0.071,-0.071,-0.071,-0.071,-0.071,-0.071,-0.071,-0.071,-0.071,-0.071,-0.071,-0.071,-0.071,-0.071,-0.071,-0.071,-0.055999999999999994,-0.055999999999999994,-0.055999999999999994,-0.055999999999999994,-0.055999999999999994,-0.055999999999999994,-0.055999999999999994,-0.055999999999999994,-0.042,-0.027999999999999997,-0.042,-0.027999999999999997,-0.027999999999999997,-0.027999999999999997,-0.027999999999999997,-0.027999999999999997,-0.027999999999999997,-0.027999999999999997,-0.027999999999999997,-0.027999999999999997,-0.027999999999999997,-0.013000000000000001,-0.013000000000000001,-0.013000000000000001,-0.013000000000000001,-0.013000000000000001,-0.013000000000000001,0.001,0.001,-0.013000000000000001,0.001,0.001,0.001,0.001,0.015,0.015,0.015,0.015,0.015,0.015,0.03,0.03,0.03,0.03,0.03,0.03,0.044000000000000004,0.044000000000000004,0.057999999999999996,0.057999999999999996,0.057999999999999996,0.073,0.073,0.073,0.073,0.073,0.073,0.073,0.087,0.087,0.087,0.087,0.102,0.102,0.102,0.102,0.102,0.102,0.102,0.11599999999999999,0.11599999999999999,0.11599999999999999,0.11599999999999999,0.11599999999999999,0.11599999999999999,0.11599999999999999,0.11599999999999999,0.11599999999999999,0.131,0.145,0.131,0.145,0.145,0.159,0.159,0.159,0.159,0.159,0.159,0.145,0.159,0.159,0.159,0.159,0.159,0.159,0.159,0.159,0.159,0.159,0.145,0.159,0.145,0.145,0.131,0.131,0.131,0.11599999999999999,0.102,0.102,0.102,0.087,0.073,0.073,0.057999999999999996,0.073,0.057999999999999996,0.057999999999999996,0.057999999999999996,0.057999999999999996,0.044000000000000004,0.044000000000000004,0.044000000000000004,0.044000000000000004,0.044000000000000004,0.03,0.03,0.03,0.03,0.03,0.03,0.03,0.03,0.03,0.015,0.015,0.015,0.015,0.015,0.03,0.015,0.03,0.03,0.015,0.015,0.015,0.015,0.015,0.03,0.03,0.03,0.03,0.03,0.03,0.03,0.03,0.03,0.03,0.03,0.015,0.015,0.015,0.015,0.015,0.03,0.03,0.03,0.03,0.03,0.015,0.015,0.015,0.015,0.015,0.015,0.001,0.001,0.001,0.015,0.015,0.001,0.001,0.001,0.001,0.001,0.001,0.001,0.001,0.001,0.001,0.001,0.001,0.001,0.015,0.001,0.001,0.015,0.015,0.015,0.015,0.015,0.015,0.03,0.015,0.03,0.03,0.03,0.044000000000000004,0.057999999999999996,0.057999999999999996,0.073,0.073,0.073,0.073,0.073,0.073,0.073,0.073,0.073,0.057999999999999996,0.057999999999999996,0.044000000000000004,0.044000000000000004,0.044000000000000004,0.044000000000000004,0.044000000000000004,0.03,0.03,0.03,0.03,0.015,0.001,0.001,0.001,-0.013000000000000001,-0.027999999999999997,-0.055999999999999994,-0.055999999999999994,-0.071,-0.071,-0.071,-0.071,-0.071,-0.071,-0.071,-0.085,-0.085,-0.071,-0.071,-0.071,-0.071,-0.085,-0.085,-0.1,-0.085,-0.085,-0.071,-0.071,-0.071,-0.071,-0.071,-0.071,-0.085,-0.085,-0.085,-0.071,-0.055999999999999994,-0.042,-0.013000000000000001,0.015,0.057999999999999996,0.102,0.159,0.217,0.289,0.375,0.47600000000000003,0.5770000000000001,0.6629999999999999,0.735,0.7929999999999999,0.821,0.835,0.7929999999999999,0.6920000000000001,0.5770000000000001,0.43200000000000005,0.303,0.203,0.073,0.001,-0.055999999999999994,-0.1,-0.129,-0.157,-0.172,-0.18600000000000003,-0.18600000000000003,-0.18600000000000003,-0.172,-0.157,-0.14300000000000002,-0.14300000000000002,-0.14300000000000002,-0.114,-0.114,-0.114,-0.1,-0.1,-0.1,-0.1,-0.1,-0.1,-0.1,-0.1,-0.1,-0.1,-0.1,-0.1,-0.114,-0.114,-0.1,-0.1,-0.1,-0.1,-0.1,-0.1,-0.085,-0.1,-0.1,-0.085,-0.085,-0.085,-0.085,-0.085,-0.085,-0.085,-0.071,-0.071,-0.071,-0.071,-0.071,-0.071,-0.071,-0.071,-0.071,-0.071,-0.071,-0.071,-0.071,-0.055999999999999994,-0.055999999999999994,-0.071,-0.055999999999999994,-0.055999999999999994,-0.055999999999999994,-0.055999999999999994,-0.042,-0.055999999999999994,-0.042,-0.042,-0.042,-0.042,-0.027999999999999997,-0.027999999999999997,-0.027999999999999997,-0.027999999999999997,-0.013000000000000001,-0.013000000000000001,-0.013000000000000001,-0.013000000000000001,-0.013000000000000001,-0.013000000000000001,-0.013000000000000001,-0.013000000000000001,0.001,0.001,0.001,0.001,0.001,0.001,0.015,0.015,0.015,0.015,0.015,0.015,0.015,0.03,0.015,0.03,0.03,0.03,0.044000000000000004,0.044000000000000004,0.044000000000000004,0.044000000000000004,0.057999999999999996,0.057999999999999996,0.057999999999999996,0.057999999999999996,0.057999999999999996,0.057999999999999996,0.057999999999999996,0.057999999999999996,0.057999999999999996,0.057999999999999996,0.073,0.073,0.073,0.073,0.073,0.073,0.073,0.087,0.073,0.087,0.087,0.087,0.102,0.102,0.102,0.102,0.102,0.11599999999999999,0.11599999999999999,0.11599999999999999,0.11599999999999999,0.11599999999999999,0.11599999999999999,0.11599999999999999,0.11599999999999999,0.11599999999999999,0.11599999999999999,0.11599999999999999,0.11599999999999999,0.102,0.102,0.102,0.102,0.102,0.102,0.102,0.073,0.073,0.057999999999999996,0.057999999999999996,0.044000000000000004,0.044000000000000004,0.044000000000000004,0.03,0.03,0.015,0.015,0.015,0.001,0.001,0.001,0.001,0.001,0.001,0.001,0.001,0.001,0.001,0.001,0.001,-0.013000000000000001,-0.013000000000000001,0.001,-0.013000000000000001,-0.013000000000000001,0.001,0.001,0.001,0.001,0.001,0.001,0.001,0.001,0.001,0.001,0.001,0.001,0.001,0.001,0.001,0.001,0.001,0.001,0.001,0.001,0.001,0.001,0.001,0.001,0.001,0.001,-0.013000000000000001,0.001,0.001,0.001,0.001,0.001,0.001,0.001,-0.013000000000000001,0.001,-0.013000000000000001,-0.013000000000000001,-0.013000000000000001,-0.013000000000000001,-0.013000000000000001,-0.013000000000000001,-0.013000000000000001,-0.013000000000000001,-0.013000000000000001,-0.027999999999999997,-0.027999999999999997,-0.027999999999999997,-0.027999999999999997,-0.027999999999999997,-0.027999999999999997,-0.042,-0.042,-0.042,-0.042,-0.042,-0.027999999999999997,-0.027999999999999997,-0.027999999999999997,-0.027999999999999997,-0.013000000000000001,-0.013000000000000001,-0.013000000000000001,0.001,-0.013000000000000001,-0.013000000000000001,-0.013000000000000001,-0.013000000000000001,0.001,0.001,0.001,0.001,0.001,0.015,0.015,0.03,0.03,0.03,0.03,0.03,0.03,0.03,0.03,0.015,0.015,0.015,0.015,0.015,0.001,0.001,0.001,-0.013000000000000001,-0.013000000000000001,-0.013000000000000001,-0.013000000000000001,-0.027999999999999997,-0.027999999999999997,-0.055999999999999994,-0.055999999999999994,-0.071,-0.071,-0.1,-0.1,-0.114,-0.114,-0.129,-0.129,-0.129,-0.129,-0.114,-0.129,-0.114,-0.129,-0.129,-0.129,-0.114,-0.114,-0.114,-0.114,-0.114,-0.114,-0.1,-0.1,-0.114,-0.114,-0.114,-0.114,-0.114,-0.114,-0.114,-0.114,-0.1,-0.071,-0.042,0.001,0.03,0.073,0.11599999999999999,0.188,0.26,0.34600000000000003,0.447,0.5479999999999999,0.619,0.6920000000000001,0.735,0.764,0.7490000000000001,0.6920000000000001,0.5770000000000001,0.461,0.332,0.231,0.11599999999999999,0.015,-0.055999999999999994,-0.114,-0.172,-0.18600000000000003,-0.201,-0.215,-0.22899999999999998,-0.22899999999999998,-0.215,-0.201,-0.18600000000000003,-0.172,-0.157,-0.157,-0.14300000000000002,-0.14300000000000002,-0.14300000000000002,-0.14300000000000002,-0.129,-0.129,-0.129,-0.129,-0.114,-0.114,-0.129,-0.129,-0.129,-0.129,-0.129,-0.129,-0.129,-0.129,-0.129,-0.129,-0.129,-0.129,-0.114,-0.114,-0.114,-0.114,-0.114,-0.129,-0.129,-0.129,-0.129,-0.129,-0.114,-0.114,-0.114,-0.114,-0.114,-0.114,-0.1,-0.1,-0.1,-0.1,-0.1,-0.1,-0.1,-0.1,-0.114,-0.114,-0.1,-0.1,-0.1,-0.085,-0.085,-0.085,-0.085,-0.071,-0.071,-0.071,-0.071,-0.071,-0.071,-0.055999999999999994,-0.055999999999999994,-0.055999999999999994,-0.042,-0.042,-0.042,-0.027999999999999997,-0.027999999999999997,-0.027999999999999997,-0.027999999999999997,-0.027999999999999997,-0.027999999999999997,-0.013000000000000001,-0.013000000000000001,-0.013000000000000001,-0.013000000000000001,-0.013000000000000001,-0.013000000000000001,-0.013000000000000001,-0.013000000000000001,0.001,0.001,0.001,0.001,0.001,0.001,0.001,0.015,0.015,0.015,0.015,0.03,0.03,0.03,0.03,0.03,0.03,0.03,0.03,0.03,0.03,0.03,0.03,0.03,0.03,0.044000000000000004,0.057999999999999996,0.057999999999999996,0.057999999999999996,0.073,0.073,0.073,0.073,0.073,0.073,0.073,0.073,0.073,0.073,0.073,0.087,0.102,0.102,0.11599999999999999,0.11599999999999999,0.11599999999999999,0.102,0.11599999999999999,0.102,0.102,0.102,0.102,0.102,0.102,0.073,0.073,0.057999999999999996,0.057999999999999996,0.057999999999999996,0.057999999999999996,0.03,0.03,0.03,0.015,0.015,0.001,0.001,0.001,0.001,0.001,0.001,0.001,0.001,-0.013000000000000001,-0.013000000000000001,-0.013000000000000001,-0.013000000000000001,0.001,-0.013000000000000001,-0.013000000000000001,-0.013000000000000001,-0.013000000000000001,-0.027999999999999997,-0.027999999999999997,-0.027999999999999997,-0.027999999999999997,-0.013000000000000001,-0.013000000000000001,-0.027999999999999997,-0.013000000000000001,-0.013000000000000001,-0.013000000000000001,-0.013000000000000001,0.001,-0.013000000000000001,-0.013000000000000001,-0.013000000000000001,-0.013000000000000001,-0.013000000000000001,-0.013000000000000001,-0.013000000000000001,-0.013000000000000001,-0.013000000000000001,-0.013000000000000001,-0.013000000000000001,-0.013000000000000001,-0.013000000000000001,-0.013000000000000001,-0.013000000000000001,-0.013000000000000001,0.001,0.001,0.001,-0.013000000000000001,-0.013000000000000001,-0.013000000000000001,-0.013000000000000001,-0.013000000000000001,-0.013000000000000001,-0.027999999999999997,-0.013000000000000001,-0.027999999999999997,-0.013000000000000001,-0.013000000000000001,-0.027999999999999997,-0.027999999999999997,-0.027999999999999997,-0.027999999999999997,-0.027999999999999997,-0.027999999999999997,-0.027999999999999997,-0.027999999999999997,-0.027999999999999997,-0.027999999999999997,-0.027999999999999997,-0.027999999999999997,-0.042,-0.042,-0.042,-0.055999999999999994,-0.055999999999999994,-0.055999999999999994,-0.055999999999999994,-0.042,-0.042,-0.027999999999999997,-0.027999999999999997,-0.027999999999999997,-0.027999999999999997,-0.027999999999999997,-0.013000000000000001,-0.013000000000000001,-0.013000000000000001,-0.013000000000000001,-0.013000000000000001,-0.013000000000000001,-0.013000000000000001,-0.027999999999999997,-0.013000000000000001,0.001,0.001,0.015,0.015,0.03,0.03,0.03,0.03,0.03,0.03,0.015,0.015,0.015,0.015,0.015,0.001,0.001,0.001,0.001,-0.013000000000000001,0.001,-0.013000000000000001,-0.013000000000000001,-0.027999999999999997,-0.027999999999999997,-0.042,-0.055999999999999994,-0.071,-0.1,-0.114,-0.129,-0.129,-0.14300000000000002,-0.129,-0.129,-0.114,-0.114,-0.129,-0.129,-0.129,-0.129,-0.114,-0.114,-0.114,-0.114,-0.114,-0.114,-0.114,-0.114,-0.114,-0.114,-0.114,-0.114,-0.114,-0.129,-0.129,-0.14300000000000002,-0.14300000000000002,-0.129,-0.114,-0.071,-0.055999999999999994,0.001,0.015,0.057999999999999996,0.11599999999999999,0.174,0.245,0.332,0.418,0.505,0.5770000000000001,0.648,0.6920000000000001,0.735,0.735,0.6920000000000001,0.591,0.47600000000000003,0.34600000000000003,0.231,0.11599999999999999,0.015,-0.055999999999999994,-0.114,N
2,-0.14300000000000002,-0.14300000000000002,-0.114,-0.114,-0.114,-0.1,-0.1,-0.1,-0.1,-0.1,-0.1,-0.1,-0.1,-0.1,-0.1,-0.1,-0.1,-0.114,-0.114,-0.1,-0.1,-0.1,-0.1,-0.1,-0.1,-0.085,-0.1,-0.1,-0.085,-0.085,-0.085,-0.085,-0.085,-0.085,-0.085,-0.071,-0.071,-0.071,-0.071,-0.071,-0.071,-0.071,-0.071,-0.071,-0.071,-0.071,-0.071,-0.071,-0.055999999999999994,-0.055999999999999994,-0.071,-0.055999999999999994,-0.055999999999999994,-0.055999999999999994,-0.055999999999999994,-0.042,-0.055999999999999994,-0.042,-0.042,-0.042,-0.042,-0.027999999999999997,-0.027999999999999997,-0.027999999999999997,-0.027999999999999997,-0.013000000000000001,-0.013000000000000001,-0.013000000000000001,-0.013000000000000001,-0.013000000000000001,-0.013000000000000001,-0.013000000000000001,-0.013000000000000001,0.001,0.001,0.001,0.001,0.001,0.001,0.015,0.015,0.015,0.015,0.015,0.015,0.015,0.03,0.015,0.03,0.03,0.03,0.044000000000000004,0.044000000000000004,0.044000000000000004,0.044000000000000004,0.057999999999999996,0.057999999999999996,0.057999999999999996,0.057999999999999996,0.057999999999999996,0.057999999999999996,0.057999999999999996,0.057999999999999996,0.057999999999999996,0.057999999999999996,0.073,0.073,0.073,0.073,0.073,0.073,0.073,0.087,0.073,0.087,0.087,0.087,0.102,0.102,0.102,0.102,0.102,0.11599999999999999,0.11599999999999999,0.11599999999999999,0.11599999999999999,0.11599999999999999,0.11599999999999999,0.11599999999999999,0.11599999999999999,0.11599999999999999,0.11599999999999999,0.11599999999999999,0.11599999999999999,0.102,0.102,0.102,0.102,0.102,0.102,0.102,0.073,0.073,0.057999999999999996,0.057999999999999996,0.044000000000000004,0.044000000000000004,0.044000000000000004,0.03,0.03,0.015,0.015,0.015,0.001,0.001,0.001,0.001,0.001,0.001,0.001,0.001,0.001,0.001,0.001,0.001,-0.013000000000000001,-0.013000000000000001,0.001,-0.013000000000000001,-0.013000000000000001,0.001,0.001,0.001,0.001,0.001,0.001,0.001,0.001,0.001,0.001,0.001,0.001,0.001,0.001,0.001,0.001,0.001,0.001,0.001,0.001,0.001,0.001,0.001,0.001,0.001,0.001,-0.013000000000000001,0.001,0.001,0.001,0.001,0.001,0.001,0.001,-0.013000000000000001,0.001,-0.013000000000000001,-0.013000000000000001,-0.013000000000000001,-0.013000000000000001,-0.013000000000000001,-0.013000000000000001,-0.013000000000000001,-0.013000000000000001,-0.013000000000000001,-0.027999999999999997,-0.027999999999999997,-0.027999999999999997,-0.027999999999999997,-0.027999999999999997,-0.027999999999999997,-0.042,-0.042,-0.042,-0.042,-0.042,-0.027999999999999997,-0.027999999999999997,-0.027999999999999997,-0.027999999999999997,-0.013000000000000001,-0.013000000000000001,-0.013000000000000001,0.001,-0.013000000000000001,-0.013000000000000001,-0.013000000000000001,-0.013000000000000001,0.001,0.001,0.001,0.001,0.001,0.015,0.015,0.03,0.03,0.03,0.03,0.03,0.03,0.03,0.03,0.015,0.015,0.015,0.015,0.015,0.001,0.001,0.001,-0.013000000000000001,-0.013000000000000001,-0.013000000000000001,-0.013000000000000001,-0.027999999999999997,-0.027999999999999997,-0.055999999999999994,-0.055999999999999994,-0.071,-0.071,-0.1,-0.1,-0.114,-0.114,-0.129,-0.129,-0.129,-0.129,-0.114,-0.129,-0.114,-0.129,-0.129,-0.129,-0.114,-0.114,-0.114,-0.114,-0.114,-0.114,-0.1,-0.1,-0.114,-0.114,-0.114,-0.114,-0.114,-0.114,-0.114,-0.114,-0.1,-0.071,-0.042,0.001,0.03,0.073,0.11599999999999999,0.188,0.26,0.34600000000000003,0.447,0.5479999999999999,0.619,0.6920000000000001,0.735,0.764,0.7490000000000001,0.6920000000000001,0.5770000000000001,0.461,0.332,0.231,0.11599999999999999,0.015,-0.055999999999999994,-0.114,-0.172,-0.18600000000000003,-0.201,-0.215,-0.22899999999999998,-0.22899999999999998,-0.215,-0.201,-0.18600000000000003,-0.172,-0.157,-0.157,-0.14300000000000002,-0.14300000000000002,-0.14300000000000002,-0.14300000000000002,-0.129,-0.129,-0.129,-0.129,-0.114,-0.114,-0.129,-0.129,-0.129,-0.129,-0.129,-0.129,-0.129,-0.129,-0.129,-0.129,-0.129,-0.129,-0.114,-0.114,-0.114,-0.114,-0.114,-0.129,-0.129,-0.129,-0.129,-0.129,-0.114,-0.114,-0.114,-0.114,-0.114,-0.114,-0.1,-0.1,-0.1,-0.1,-0.1,-0.1,-0.1,-0.1,-0.114,-0.114,-0.1,-0.1,-0.1,-0.085,-0.085,-0.085,-0.085,-0.071,-0.071,-0.071,-0.071,-0.071,-0.071,-0.055999999999999994,-0.055999999999999994,-0.055999999999999994,-0.042,-0.042,-0.042,-0.027999999999999997,-0.027999999999999997,-0.027999999999999997,-0.027999999999999997,-0.027999999999999997,-0.027999999999999997,-0.013000000000000001,-0.013000000000000001,-0.013000000000000001,-0.013000000000000001,-0.013000000000000001,-0.013000000000000001,-0.013000000000000001,-0.013000000000000001,0.001,0.001,0.001,0.001,0.001,0.001,0.001,0.015,0.015,0.015,0.015,0.03,0.03,0.03,0.03,0.03,0.03,0.03,0.03,0.03,0.03,0.03,0.03,0.03,0.03,0.044000000000000004,0.057999999999999996,0.057999999999999996,0.057999999999999996,0.073,0.073,0.073,0.073,0.073,0.073,0.073,0.073,0.073,0.073,0.073,0.087,0.102,0.102,0.11599999999999999,0.11599999999999999,0.11599999999999999,0.102,0.11599999999999999,0.102,0.102,0.102,0.102,0.102,0.102,0.073,0.073,0.057999999999999996,0.057999999999999996,0.057999999999999996,0.057999999999999996,0.03,0.03,0.03,0.015,0.015,0.001,0.001,0.001,0.001,0.001,0.001,0.001,0.001,-0.013000000000000001,-0.013000000000000001,-0.013000000000000001,-0.013000000000000001,0.001,-0.013000000000000001,-0.013000000000000001,-0.013000000000000001,-0.013000000000000001,-0.027999999999999997,-0.027999999999999997,-0.027999999999999997,-0.027999999999999997,-0.013000000000000001,-0.013000000000000001,-0.027999999999999997,-0.013000000000000001,-0.013000000000000001,-0.013000000000000001,-0.013000000000000001,0.001,-0.013000000000000001,-0.013000000000000001,-0.013000000000000001,-0.013000000000000001,-0.013000000000000001,-0.013000000000000001,-0.013000000000000001,-0.013000000000000001,-0.013000000000000001,-0.013000000000000001,-0.013000000000000001,-0.013000000000000001,-0.013000000000000001,-0.013000000000000001,-0.013000000000000001,-0.013000000000000001,0.001,0.001,0.001,-0.013000000000000001,-0.013000000000000001,-0.013000000000000001,-0.013000000000000001,-0.013000000000000001,-0.013000000000000001,-0.027999999999999997,-0.013000000000000001,-0.027999999999999997,-0.013000000000000001,-0.013000000000000001,-0.027999999999999997,-0.027999999999999997,-0.027999999999999997,-0.027999999999999997,-0.027999999999999997,-0.027999999999999997,-0.027999999999999997,-0.027999999999999997,-0.027999999999999997,-0.027999999999999997,-0.027999999999999997,-0.027999999999999997,-0.042,-0.042,-0.042,-0.055999999999999994,-0.055999999999999994,-0.055999999999999994,-0.055999999999999994,-0.042,-0.042,-0.027999999999999997,-0.027999999999999997,-0.027999999999999997,-0.027999999999999997,-0.027999999999999997,-0.013000000000000001,-0.013000000000000001,-0.013000000000000001,-0.013000000000000001,-0.013000000000000001,-0.013000000000000001,-0.013000000000000001,-0.027999999999999997,-0.013000000000000001,0.001,0.001,0.015,0.015,0.03,0.03,0.03,0.03,0.03,0.03,0.015,0.015,0.015,0.015,0.015,0.001,0.001,0.001,0.001,-0.013000000000000001,0.001,-0.013000000000000001,-0.013000000000000001,-0.027999999999999997,-0.027999999999999997,-0.042,-0.055999999999999994,-0.071,-0.1,-0.114,-0.129,-0.129,-0.14300000000000002,-0.129,-0.129,-0.114,-0.114,-0.129,-0.129,-0.129,-0.129,-0.114,-0.114,-0.114,-0.114,-0.114,-0.114,-0.114,-0.114,-0.114,-0.114,-0.114,-0.114,-0.114,-0.129,-0.129,-0.14300000000000002,-0.14300000000000002,-0.129,-0.114,-0.071,-0.055999999999999994,0.001,0.015,0.057999999999999996,0.11599999999999999,0.174,0.245,0.332,0.418,0.505,0.5770000000000001,0.648,0.6920000000000001,0.735,0.735,0.6920000000000001,0.591,0.47600000000000003,0.34600000000000003,0.231,0.11599999999999999,0.015,-0.055999999999999994,-0.114,-0.157,-0.172,-0.18600000000000003,-0.201,-0.22899999999999998,-0.201,-0.201,-0.18600000000000003,-0.18600000000000003,-0.172,-0.157,-0.157,-0.14300000000000002,-0.14300000000000002,-0.129,-0.114,-0.114,-0.129,-0.14300000000000002,-0.129,-0.129,-0.129,-0.129,-0.114,-0.114,-0.114,-0.114,-0.14300000000000002,-0.14300000000000002,-0.14300000000000002,-0.14300000000000002,-0.14300000000000002,-0.14300000000000002,-0.129,-0.114,-0.114,-0.114,-0.129,-0.14300000000000002,-0.129,-0.114,-0.129,-0.114,-0.114,-0.114,-0.1,-0.1,-0.1,-0.114,-0.1,-0.1,-0.1,-0.1,-0.1,-0.1,-0.1,-0.1,-0.1,-0.085,-0.085,-0.071,-0.071,-0.085,-0.085,-0.085,-0.071,-0.071,-0.071,-0.071,-0.071,-0.071,-0.055999999999999994,-0.055999999999999994,-0.042,-0.042,-0.027999999999999997,-0.027999999999999997,-0.027999999999999997,-0.027999999999999997,-0.027999999999999997,-0.013000000000000001,-0.027999999999999997,-0.013000000000000001,-0.013000000000000001,-0.013000000000000001,-0.013000000000000001,-0.013000000000000001,-0.013000000000000001,-0.013000000000000001,0.001,0.001,0.001,0.001,0.001,0.015,0.015,0.015,0.015,0.03,0.03,0.03,0.03,0.03,0.03,0.03,0.03,0.03,0.057999999999999996,0.057999999999999996,0.057999999999999996,0.057999999999999996,0.057999999999999996,0.057999999999999996,0.073,0.073,0.073,0.057999999999999996,0.073,0.073,0.073,0.073,0.057999999999999996,0.057999999999999996,0.057999999999999996,0.073,0.073,0.073,0.073,0.073,0.087,0.087,0.087,0.102,0.102,0.11599999999999999,0.11599999999999999,0.11599999999999999,0.11599999999999999,0.11599999999999999,0.11599999999999999,0.11599999999999999,0.11599999999999999,0.11599999999999999,0.102,0.102,0.087,0.087,0.087,0.087,0.087,0.073,0.073,0.057999999999999996,0.057999999999999996,0.044000000000000004,0.044000000000000004,0.03,0.03,0.015,0.015,0.001,0.001,0.001,0.001,-0.013000000000000001,-0.013000000000000001,-0.013000000000000001,-0.013000000000000001,-0.013000000000000001,-0.013000000000000001,-0.013000000000000001,0.001,0.001,0.001,-0.013000000000000001,-0.013000000000000001,-0.013000000000000001,-0.013000000000000001,-0.013000000000000001,-0.013000000000000001,-0.013000000000000001,-0.013000000000000001,-0.013000000000000001,-0.013000000000000001,-0.013000000000000001,-0.013000000000000001,-0.013000000000000001,-0.013000000000000001,-0.013000000000000001,-0.013000000000000001,-0.013000000000000001,-0.013000000000000001,-0.013000000000000001,-0.013000000000000001,0.001,-0.013000000000000001,-0.013000000000000001,-0.013000000000000001,0.001,0.001,-0.013000000000000001,-0.013000000000000001,-0.027999999999999997,-0.027999999999999997,-0.027999999999999997,-0.027999999999999997,-0.027999999999999997,-0.013000000000000001,-0.013000000000000001,-0.013000000000000001,-0.013000000000000001,-0.013000000000000001,-0.013000000000000001,-0.013000000000000001,-0.013000000000000001,-0.013000000000000001,-0.013000000000000001,-0.013000000000000001,-0.013000000000000001,-0.013000000000000001,-0.027999999999999997,-0.027999999999999997,-0.027999999999999997,-0.027999999999999997,-0.027999999999999997,-0.027999999999999997,-0.027999999999999997,-0.027999999999999997,-0.027999999999999997,-0.027999999999999997,-0.027999999999999997,-0.042,-0.042,-0.042,-0.042,-0.027999999999999997,-0.027999999999999997,-0.027999999999999997,-0.027999999999999997,-0.027999999999999997,-0.027999999999999997,-0.027999999999999997,-0.027999999999999997,-0.027999999999999997,-0.027999999999999997,-0.027999999999999997,-0.027999999999999997,-0.027999999999999997,-0.027999999999999997,-0.013000000000000001,-0.013000000000000001,0.001,0.001,0.001,0.015,0.03,0.03,0.03,0.044000000000000004,0.044000000000000004,0.03,0.03,0.03,0.03,0.015,0.015,0.015,0.015,0.015,0.001,0.001,0.001,0.001,0.001,-0.013000000000000001,-0.013000000000000001,-0.027999999999999997,-0.042,-0.055999999999999994,-0.071,-0.071,-0.1,-0.1,-0.114,-0.114,-0.14300000000000002,-0.14300000000000002,-0.129,-0.14300000000000002,-0.129,-0.129,-0.129,-0.114,-0.114,-0.114,-0.129,-0.129,-0.129,-0.114,-0.114,-0.114,-0.114,-0.114,-0.114,-0.114,-0.1,-0.114,-0.114,-0.114,-0.1,-0.1,-0.1,-0.055999999999999994,-0.027999999999999997,0.001,0.015,0.057999999999999996,0.102,0.145,0.217,0.303,0.39,0.47600000000000003,0.5479999999999999,0.619,0.6629999999999999,0.6920000000000001,0.72,0.6920000000000001,0.606,0.505,0.39,0.27399999999999997,0.174,0.057999999999999996,-0.013000000000000001,N
3,-0.157,-0.14300000000000002,-0.14300000000000002,-0.14300000000000002,-0.14300000000000002,-0.129,-0.129,-0.129,-0.129,-0.114,-0.114,-0.129,-0.129,-0.129,-0.129,-0.129,-0.129,-0.129,-0.129,-0.129,-0.129,-0.129,-0.129,-0.114,-0.114,-0.114,-0.114,-0.114,-0.129,-0.129,-0.129,-0.129,-0.129,-0.114,-0.114,-0.114,-0.114,-0.114,-0.114,-0.1,-0.1,-0.1,-0.1,-0.1,-0.1,-0.1,-0.1,-0.114,-0.114,-0.1,-0.1,-0.1,-0.085,-0.085,-0.085,-0.085,-0.071,-0.071,-0.071,-0.071,-0.071,-0.071,-0.055999999999999994,-0.055999999999999994,-0.055999999999999994,-0.042,-0.042,-0.042,-0.027999999999999997,-0.027999999999999997,-0.027999999999999997,-0.027999999999999997,-0.027999999999999997,-0.027999999999999997,-0.013000000000000001,-0.013000000000000001,-0.013000000000000001,-0.013000000000000001,-0.013000000000000001,-0.013000000000000001,-0.013000000000000001,-0.013000000000000001,0.001,0.001,0.001,0.001,0.001,0.001,0.001,0.015,0.015,0.015,0.015,0.03,0.03,0.03,0.03,0.03,0.03,0.03,0.03,0.03,0.03,0.03,0.03,0.03,0.03,0.044000000000000004,0.057999999999999996,0.057999999999999996,0.057999999999999996,0.073,0.073,0.073,0.073,0.073,0.073,0.073,0.073,0.073,0.073,0.073,0.087,0.102,0.102,0.11599999999999999,0.11599999999999999,0.11599999999999999,0.102,0.11599999999999999,0.102,0.102,0.102,0.102,0.102,0.102,0.073,0.073,0.057999999999999996,0.057999999999999996,0.057999999999999996,0.057999999999999996,0.03,0.03,0.03,0.015,0.015,0.001,0.001,0.001,0.001,0.001,0.001,0.001,0.001,-0.013000000000000001,-0.013000000000000001,-0.013000000000000001,-0.013000000000000001,0.001,-0.013000000000000001,-0.013000000000000001,-0.013000000000000001,-0.013000000000000001,-0.027999999999999997,-0.027999999999999997,-0.027999999999999997,-0.027999999999999997,-0.013000000000000001,-0.013000000000000001,-0.027999999999999997,-0.013000000000000001,-0.013000000000000001,-0.013000000000000001,-0.013000000000000001,0.001,-0.013000000000000001,-0.013000000000000001,-0.013000000000000001,-0.013000000000000001,-0.013000000000000001,-0.013000000000000001,-0.013000000000000001,-0.013000000000000001,-0.013000000000000001,-0.013000000000000001,-0.013000000000000001,-0.013000000000000001,-0.013000000000000001,-0.013000000000000001,-0.013000000000000001,-0.013000000000000001,0.001,0.001,0.001,-0.013000000000000001,-0.013000000000000001,-0.013000000000000001,-0.013000000000000001,-0.013000000000000001,-0.013000000000000001,-0.027999999999999997,-0.013000000000000001,-0.027999999999999997,-0.013000000000000001,-0.013000000000000001,-0.027999999999999997,-0.027999999999999997,-0.027999999999999997,-0.027999999999999997,-0.027999999999999997,-0.027999999999999997,-0.027999999999999997,-0.027999999999999997,-0.027999999999999997,-0.027999999999999997,-0.027999999999999997,-0.027999999999999997,-0.042,-0.042,-0.042,-0.055999999999999994,-0.055999999999999994,-0.055999999999999994,-0.055999999999999994,-0.042,-0.042,-0.027999999999999997,-0.027999999999999997,-0.027999999999999997,-0.027999999999999997,-0.027999999999999997,-0.013000000000000001,-0.013000000000000001,-0.013000000000000001,-0.013000000000000001,-0.013000000000000001,-0.013000000000000001,-0.013000000000000001,-0.027999999999999997,-0.013000000000000001,0.001,0.001,0.015,0.015,0.03,0.03,0.03,0.03,0.03,0.03,0.015,0.015,0.015,0.015,0.015,0.001,0.001,0.001,0.001,-0.013000000000000001,0.001,-0.013000000000000001,-0.013000000000000001,-0.027999999999999997,-0.027999999999999997,-0.042,-0.055999999999999994,-0.071,-0.1,-0.114,-0.129,-0.129,-0.14300000000000002,-0.129,-0.129,-0.114,-0.114,-0.129,-0.129,-0.129,-0.129,-0.114,-0.114,-0.114,-0.114,-0.114,-0.114,-0.114,-0.114,-0.114,-0.114,-0.114,-0.114,-0.114,-0.129,-0.129,-0.14300000000000002,-0.14300000000000002,-0.129,-0.114,-0.071,-0.055999999999999994,0.001,0.015,0.057999999999999996,0.11599999999999999,0.174,0.245,0.332,0.418,0.505,0.5770000000000001,0.648,0.6920000000000001,0.735,0.735,0.6920000000000001,0.591,0.47600000000000003,0.34600000000000003,0.231,0.11599999999999999,0.015,-0.055999999999999994,-0.114,-0.157,-0.172,-0.18600000000000003,-0.201,-0.22899999999999998,-0.201,-0.201,-0.18600000000000003,-0.18600000000000003,-0.172,-0.157,-0.157,-0.14300000000000002,-0.14300000000000002,-0.129,-0.114,-0.114,-0.129,-0.14300000000000002,-0.129,-0.129,-0.129,-0.129,-0.114,-0.114,-0.114,-0.114,-0.14300000000000002,-0.14300000000000002,-0.14300000000000002,-0.14300000000000002,-0.14300000000000002,-0.14300000000000002,-0.129,-0.114,-0.114,-0.114,-0.129,-0.14300000000000002,-0.129,-0.114,-0.129,-0.114,-0.114,-0.114,-0.1,-0.1,-0.1,-0.114,-0.1,-0.1,-0.1,-0.1,-0.1,-0.1,-0.1,-0.1,-0.1,-0.085,-0.085,-0.071,-0.071,-0.085,-0.085,-0.085,-0.071,-0.071,-0.071,-0.071,-0.071,-0.071,-0.055999999999999994,-0.055999999999999994,-0.042,-0.042,-0.027999999999999997,-0.027999999999999997,-0.027999999999999997,-0.027999999999999997,-0.027999999999999997,-0.013000000000000001,-0.027999999999999997,-0.013000000000000001,-0.013000000000000001,-0.013000000000000001,-0.013000000000000001,-0.013000000000000001,-0.013000000000000001,-0.013000000000000001,0.001,0.001,0.001,0.001,0.001,0.015,0.015,0.015,0.015,0.03,0.03,0.03,0.03,0.03,0.03,0.03,0.03,0.03,0.057999999999999996,0.057999999999999996,0.057999999999999996,0.057999999999999996,0.057999999999999996,0.057999999999999996,0.073,0.073,0.073,0.057999999999999996,0.073,0.073,0.073,0.073,0.057999999999999996,0.057999999999999996,0.057999999999999996,0.073,0.073,0.073,0.073,0.073,0.087,0.087,0.087,0.102,0.102,0.11599999999999999,0.11599999999999999,0.11599999999999999,0.11599999999999999,0.11599999999999999,0.11599999999999999,0.11599999999999999,0.11599999999999999,0.11599999999999999,0.102,0.102,0.087,0.087,0.087,0.087,0.087,0.073,0.073,0.057999999999999996,0.057999999999999996,0.044000000000000004,0.044000000000000004,0.03,0.03,0.015,0.015,0.001,0.001,0.001,0.001,-0.013000000000000001,-0.013000000000000001,-0.013000000000000001,-0.013000000000000001,-0.013000000000000001,-0.013000000000000001,-0.013000000000000001,0.001,0.001,0.001,-0.013000000000000001,-0.013000000000000001,-0.013000000000000001,-0.013000000000000001,-0.013000000000000001,-0.013000000000000001,-0.013000000000000001,-0.013000000000000001,-0.013000000000000001,-0.013000000000000001,-0.013000000000000001,-0.013000000000000001,-0.013000000000000001,-0.013000000000000001,-0.013000000000000001,-0.013000000000000001,-0.013000000000000001,-0.013000000000000001,-0.013000000000000001,-0.013000000000000001,0.001,-0.013000000000000001,-0.013000000000000001,-0.013000000000000001,0.001,0.001,-0.013000000000000001,-0.013000000000000001,-0.027999999999999997,-0.027999999999999997,-0.027999999999999997,-0.027999999999999997,-0.027999999999999997,-0.013000000000000001,-0.013000000000000001,-0.013000000000000001,-0.013000000000000001,-0.013000000000000001,-0.013000000000000001,-0.013000000000000001,-0.013000000000000001,-0.013000000000000001,-0.013000000000000001,-0.013000000000000001,-0.013000000000000001,-0.013000000000000001,-0.027999999999999997,-0.027999999999999997,-0.027999999999999997,-0.027999999999999997,-0.027999999999999997,-0.027999999999999997,-0.027999999999999997,-0.027999999999999997,-0.027999999999999997,-0.027999999999999997,-0.027999999999999997,-0.042,-0.042,-0.042,-0.042,-0.027999999999999997,-0.027999999999999997,-0.027999999999999997,-0.027999999999999997,-0.027999999999999997,-0.027999999999999997,-0.027999999999999997,-0.027999999999999997,-0.027999999999999997,-0.027999999999999997,-0.027999999999999997,-0.027999999999999997,-0.027999999999999997,-0.027999999999999997,-0.013000000000000001,-0.013000000000000001,0.001,0.001,0.001,0.015,0.03,0.03,0.03,0.044000000000000004,0.044000000000000004,0.03,0.03,0.03,0.03,0.015,0.015,0.015,0.015,0.015,0.001,0.001,0.001,0.001,0.001,-0.013000000000000001,-0.013000000000000001,-0.027999999999999997,-0.042,-0.055999999999999994,-0.071,-0.071,-0.1,-0.1,-0.114,-0.114,-0.14300000000000002,-0.14300000000000002,-0.129,-0.14300000000000002,-0.129,-0.129,-0.129,-0.114,-0.114,-0.114,-0.129,-0.129,-0.129,-0.114,-0.114,-0.114,-0.114,-0.114,-0.114,-0.114,-0.1,-0.114,-0.114,-0.114,-0.1,-0.1,-0.1,-0.055999999999999994,-0.027999999999999997,0.001,0.015,0.057999999999999996,0.102,0.145,0.217,0.303,0.39,0.47600000000000003,0.5479999999999999,0.619,0.6629999999999999,0.6920000000000001,0.72,0.6920000000000001,0.606,0.505,0.39,0.27399999999999997,0.174,0.057999999999999996,-0.013000000000000001,-0.1,-0.14300000000000002,-0.172,-0.18600000000000003,-0.201,-0.215,-0.22899999999999998,-0.215,-0.201,-0.201,-0.18600000000000003,-0.172,-0.157,-0.14300000000000002,-0.14300000000000002,-0.14300000000000002,-0.129,-0.129,-0.14300000000000002,-0.14300000000000002,-0.129,-0.129,-0.14300000000000002,-0.129,-0.129,-0.129,-0.114,-0.114,-0.114,-0.114,-0.14300000000000002,-0.14300000000000002,-0.14300000000000002,-0.14300000000000002,-0.14300000000000002,-0.14300000000000002,-0.129,-0.114,-0.114,-0.114,-0.1,-0.114,-0.114,-0.114,-0.114,-0.114,-0.1,-0.114,-0.1,-0.1,-0.1,-0.1,-0.1,-0.1,-0.1,-0.085,-0.085,-0.085,-0.1,-0.1,-0.1,-0.1,-0.085,-0.085,-0.071,-0.071,-0.071,-0.071,-0.071,-0.071,-0.055999999999999994,-0.055999999999999994,-0.055999999999999994,-0.055999999999999994,-0.055999999999999994,-0.071,-0.055999999999999994,-0.055999999999999994,-0.042,-0.027999999999999997,-0.027999999999999997,-0.027999999999999997,-0.027999999999999997,-0.027999999999999997,-0.027999999999999997,-0.013000000000000001,-0.013000000000000001,-0.013000000000000001,-0.013000000000000001,-0.013000000000000001,0.001,0.001,0.001,0.001,0.001,0.001,0.015,0.015,0.015,0.015,0.03,0.03,0.03,0.03,0.03,0.044000000000000004,0.057999999999999996,0.057999999999999996,0.057999999999999996,0.044000000000000004,0.044000000000000004,0.057999999999999996,0.044000000000000004,0.057999999999999996,0.057999999999999996,0.057999999999999996,0.057999999999999996,0.057999999999999996,0.057999999999999996,0.073,0.073,0.073,0.073,0.073,0.073,0.073,0.073,0.073,0.087,0.087,0.102,0.102,0.102,0.102,0.102,0.11599999999999999,0.11599999999999999,0.11599999999999999,0.11599999999999999,0.11599999999999999,0.11599999999999999,0.11599999999999999,0.102,0.11599999999999999,0.102,0.102,0.102,0.102,0.087,0.087,0.073,0.073,0.073,0.057999999999999996,0.057999999999999996,0.057999999999999996,0.057999999999999996,0.044000000000000004,0.03,0.03,0.03,0.015,0.015,0.001,0.001,0.001,0.001,0.001,0.001,0.001,0.001,0.001,-0.013000000000000001,-0.013000000000000001,-0.013000000000000001,-0.013000000000000001,-0.013000000000000001,-0.013000000000000001,-0.013000000000000001,-0.013000000000000001,-0.013000000000000001,0.001,0.001,0.001,-0.013000000000000001,-0.013000000000000001,-0.013000000000000001,-0.013000000000000001,0.001,-0.013000000000000001,0.001,0.001,-0.013000000000000001,-0.013000000000000001,-0.013000000000000001,0.001,0.001,0.001,0.001,0.001,0.001,0.001,0.001,0.001,0.001,-0.013000000000000001,-0.013000000000000001,-0.013000000000000001,-0.013000000000000001,-0.013000000000000001,-0.013000000000000001,-0.013000000000000001,-0.013000000000000001,0.001,-0.013000000000000001,-0.013000000000000001,-0.013000000000000001,-0.013000000000000001,-0.013000000000000001,-0.013000000000000001,-0.013000000000000001,-0.013000000000000001,-0.013000000000000001,-0.013000000000000001,-0.027999999999999997,-0.027999999999999997,-0.027999999999999997,-0.027999999999999997,-0.027999999999999997,-0.027999999999999997,-0.027999999999999997,-0.027999999999999997,-0.027999999999999997,-0.027999999999999997,-0.027999999999999997,-0.027999999999999997,-0.027999999999999997,-0.027999999999999997,-0.027999999999999997,-0.027999999999999997,-0.027999999999999997,-0.013000000000000001,-0.013000000000000001,-0.013000000000000001,-0.013000000000000001,-0.013000000000000001,0.001,-0.013000000000000001,-0.013000000000000001,-0.013000000000000001,-0.013000000000000001,-0.013000000000000001,-0.013000000000000001,0.001,0.001,0.015,0.015,0.03,0.044000000000000004,0.044000000000000004,0.044000000000000004,0.044000000000000004,0.03,0.03,0.03,0.03,0.015,0.015,0.015,0.001,0.001,0.015,0.001,0.001,0.001,0.001,0.001,-0.013000000000000001,-0.013000000000000001,-0.027999999999999997,-0.055999999999999994,-0.071,-0.071,-0.1,-0.1,-0.114,-0.114,-0.1,-0.1,-0.114,-0.114,-0.114,-0.114,-0.114,-0.114,-0.114,-0.114,-0.1,-0.114,-0.114,-0.114,-0.114,-0.114,-0.1,-0.1,-0.1,-0.1,-0.114,-0.114,-0.114,-0.114,-0.1,-0.085,-0.071,-0.042,-0.013000000000000001,0.015,0.03,0.073,0.131,0.203,0.27399999999999997,0.375,0.447,0.5329999999999999,0.606,0.6629999999999999,0.6920000000000001,0.72,0.706,0.619,0.519,0.39,0.27399999999999997,0.188,0.073,0.001,-0.055999999999999994,N
4,-0.172,-0.157,-0.157,-0.14300000000000002,-0.14300000000000002,-0.129,-0.114,-0.114,-0.129,-0.14300000000000002,-0.129,-0.129,-0.129,-0.129,-0.114,-0.114,-0.114,-0.114,-0.14300000000000002,-0.14300000000000002,-0.14300000000000002,-0.14300000000000002,-0.14300000000000002,-0.14300000000000002,-0.129,-0.114,-0.114,-0.114,-0.129,-0.14300000000000002,-0.129,-0.114,-0.129,-0.114,-0.114,-0.114,-0.1,-0.1,-0.1,-0.114,-0.1,-0.1,-0.1,-0.1,-0.1,-0.1,-0.1,-0.1,-0.1,-0.085,-0.085,-0.071,-0.071,-0.085,-0.085,-0.085,-0.071,-0.071,-0.071,-0.071,-0.071,-0.071,-0.055999999999999994,-0.055999999999999994,-0.042,-0.042,-0.027999999999999997,-0.027999999999999997,-0.027999999999999997,-0.027999999999999997,-0.027999999999999997,-0.013000000000000001,-0.027999999999999997,-0.013000000000000001,-0.013000000000000001,-0.013000000000000001,-0.013000000000000001,-0.013000000000000001,-0.013000000000000001,-0.013000000000000001,0.001,0.001,0.001,0.001,0.001,0.015,0.015,0.015,0.015,0.03,0.03,0.03,0.03,0.03,0.03,0.03,0.03,0.03,0.057999999999999996,0.057999999999999996,0.057999999999999996,0.057999999999999996,0.057999999999999996,0.057999999999999996,0.073,0.073,0.073,0.057999999999999996,0.073,0.073,0.073,0.073,0.057999999999999996,0.057999999999999996,0.057999999999999996,0.073,0.073,0.073,0.073,0.073,0.087,0.087,0.087,0.102,0.102,0.11599999999999999,0.11599999999999999,0.11599999999999999,0.11599999999999999,0.11599999999999999,0.11599999999999999,0.11599999999999999,0.11599999999999999,0.11599999999999999,0.102,0.102,0.087,0.087,0.087,0.087,0.087,0.073,0.073,0.057999999999999996,0.057999999999999996,0.044000000000000004,0.044000000000000004,0.03,0.03,0.015,0.015,0.001,0.001,0.001,0.001,-0.013000000000000001,-0.013000000000000001,-0.013000000000000001,-0.013000000000000001,-0.013000000000000001,-0.013000000000000001,-0.013000000000000001,0.001,0.001,0.001,-0.013000000000000001,-0.013000000000000001,-0.013000000000000001,-0.013000000000000001,-0.013000000000000001,-0.013000000000000001,-0.013000000000000001,-0.013000000000000001,-0.013000000000000001,-0.013000000000000001,-0.013000000000000001,-0.013000000000000001,-0.013000000000000001,-0.013000000000000001,-0.013000000000000001,-0.013000000000000001,-0.013000000000000001,-0.013000000000000001,-0.013000000000000001,-0.013000000000000001,0.001,-0.013000000000000001,-0.013000000000000001,-0.013000000000000001,0.001,0.001,-0.013000000000000001,-0.013000000000000001,-0.027999999999999997,-0.027999999999999997,-0.027999999999999997,-0.027999999999999997,-0.027999999999999997,-0.013000000000000001,-0.013000000000000001,-0.013000000000000001,-0.013000000000000001,-0.013000000000000001,-0.013000000000000001,-0.013000000000000001,-0.013000000000000001,-0.013000000000000001,-0.013000000000000001,-0.013000000000000001,-0.013000000000000001,-0.013000000000000001,-0.027999999999999997,-0.027999999999999997,-0.027999999999999997,-0.027999999999999997,-0.027999999999999997,-0.027999999999999997,-0.027999999999999997,-0.027999999999999997,-0.027999999999999997,-0.027999999999999997,-0.027999999999999997,-0.042,-0.042,-0.042,-0.042,-0.027999999999999997,-0.027999999999999997,-0.027999999999999997,-0.027999999999999997,-0.027999999999999997,-0.027999999999999997,-0.027999999999999997,-0.027999999999999997,-0.027999999999999997,-0.027999999999999997,-0.027999999999999997,-0.027999999999999997,-0.027999999999999997,-0.027999999999999997,-0.013000000000000001,-0.013000000000000001,0.001,0.001,0.001,0.015,0.03,0.03,0.03,0.044000000000000004,0.044000000000000004,0.03,0.03,0.03,0.03,0.015,0.015,0.015,0.015,0.015,0.001,0.001,0.001,0.001,0.001,-0.013000000000000001,-0.013000000000000001,-0.027999999999999997,-0.042,-0.055999999999999994,-0.071,-0.071,-0.1,-0.1,-0.114,-0.114,-0.14300000000000002,-0.14300000000000002,-0.129,-0.14300000000000002,-0.129,-0.129,-0.129,-0.114,-0.114,-0.114,-0.129,-0.129,-0.129,-0.114,-0.114,-0.114,-0.114,-0.114,-0.114,-0.114,-0.1,-0.114,-0.114,-0.114,-0.1,-0.1,-0.1,-0.055999999999999994,-0.027999999999999997,0.001,0.015,0.057999999999999996,0.102,0.145,0.217,0.303,0.39,0.47600000000000003,0.5479999999999999,0.619,0.6629999999999999,0.6920000000000001,0.72,0.6920000000000001,0.606,0.505,0.39,0.27399999999999997,0.174,0.057999999999999996,-0.013000000000000001,-0.1,-0.14300000000000002,-0.172,-0.18600000000000003,-0.201,-0.215,-0.22899999999999998,-0.215,-0.201,-0.201,-0.18600000000000003,-0.172,-0.157,-0.14300000000000002,-0.14300000000000002,-0.14300000000000002,-0.129,-0.129,-0.14300000000000002,-0.14300000000000002,-0.129,-0.129,-0.14300000000000002,-0.129,-0.129,-0.129,-0.114,-0.114,-0.114,-0.114,-0.14300000000000002,-0.14300000000000002,-0.14300000000000002,-0.14300000000000002,-0.14300000000000002,-0.14300000000000002,-0.129,-0.114,-0.114,-0.114,-0.1,-0.114,-0.114,-0.114,-0.114,-0.114,-0.1,-0.114,-0.1,-0.1,-0.1,-0.1,-0.1,-0.1,-0.1,-0.085,-0.085,-0.085,-0.1,-0.1,-0.1,-0.1,-0.085,-0.085,-0.071,-0.071,-0.071,-0.071,-0.071,-0.071,-0.055999999999999994,-0.055999999999999994,-0.055999999999999994,-0.055999999999999994,-0.055999999999999994,-0.071,-0.055999999999999994,-0.055999999999999994,-0.042,-0.027999999999999997,-0.027999999999999997,-0.027999999999999997,-0.027999999999999997,-0.027999999999999997,-0.027999999999999997,-0.013000000000000001,-0.013000000000000001,-0.013000000000000001,-0.013000000000000001,-0.013000000000000001,0.001,0.001,0.001,0.001,0.001,0.001,0.015,0.015,0.015,0.015,0.03,0.03,0.03,0.03,0.03,0.044000000000000004,0.057999999999999996,0.057999999999999996,0.057999999999999996,0.044000000000000004,0.044000000000000004,0.057999999999999996,0.044000000000000004,0.057999999999999996,0.057999999999999996,0.057999999999999996,0.057999999999999996,0.057999999999999996,0.057999999999999996,0.073,0.073,0.073,0.073,0.073,0.073,0.073,0.073,0.073,0.087,0.087,0.102,0.102,0.102,0.102,0.102,0.11599999999999999,0.11599999999999999,0.11599999999999999,0.11599999999999999,0.11599999999999999,0.11599999999999999,0.11599999999999999,0.102,0.11599999999999999,0.102,0.102,0.102,0.102,0.087,0.087,0.073,0.073,0.073,0.057999999999999996,0.057999999999999996,0.057999999999999996,0.057999999999999996,0.044000000000000004,0.03,0.03,0.03,0.015,0.015,0.001,0.001,0.001,0.001,0.001,0.001,0.001,0.001,0.001,-0.013000000000000001,-0.013000000000000001,-0.013000000000000001,-0.013000000000000001,-0.013000000000000001,-0.013000000000000001,-0.013000000000000001,-0.013000000000000001,-0.013000000000000001,0.001,0.001,0.001,-0.013000000000000001,-0.013000000000000001,-0.013000000000000001,-0.013000000000000001,0.001,-0.013000000000000001,0.001,0.001,-0.013000000000000001,-0.013000000000000001,-0.013000000000000001,0.001,0.001,0.001,0.001,0.001,0.001,0.001,0.001,0.001,0.001,-0.013000000000000001,-0.013000000000000001,-0.013000000000000001,-0.013000000000000001,-0.013000000000000001,-0.013000000000000001,-0.013000000000000001,-0.013000000000000001,0.001,-0.013000000000000001,-0.013000000000000001,-0.013000000000000001,-0.013000000000000001,-0.013000000000000001,-0.013000000000000001,-0.013000000000000001,-0.013000000000000001,-0.013000000000000001,-0.013000000000000001,-0.027999999999999997,-0.027999999999999997,-0.027999999999999997,-0.027999999999999997,-0.027999999999999997,-0.027999999999999997,-0.027999999999999997,-0.027999999999999997,-0.027999999999999997,-0.027999999999999997,-0.027999999999999997,-0.027999999999999997,-0.027999999999999997,-0.027999999999999997,-0.027999999999999997,-0.027999999999999997,-0.027999999999999997,-0.013000000000000001,-0.013000000000000001,-0.013000000000000001,-0.013000000000000001,-0.013000000000000001,0.001,-0.013000000000000001,-0.013000000000000001,-0.013000000000000001,-0.013000000000000001,-0.013000000000000001,-0.013000000000000001,0.001,0.001,0.015,0.015,0.03,0.044000000000000004,0.044000000000000004,0.044000000000000004,0.044000000000000004,0.03,0.03,0.03,0.03,0.015,0.015,0.015,0.001,0.001,0.015,0.001,0.001,0.001,0.001,0.001,-0.013000000000000001,-0.013000000000000001,-0.027999999999999997,-0.055999999999999994,-0.071,-0.071,-0.1,-0.1,-0.114,-0.114,-0.1,-0.1,-0.114,-0.114,-0.114,-0.114,-0.114,-0.114,-0.114,-0.114,-0.1,-0.114,-0.114,-0.114,-0.114,-0.114,-0.1,-0.1,-0.1,-0.1,-0.114,-0.114,-0.114,-0.114,-0.1,-0.085,-0.071,-0.042,-0.013000000000000001,0.015,0.03,0.073,0.131,0.203,0.27399999999999997,0.375,0.447,0.5329999999999999,0.606,0.6629999999999999,0.6920000000000001,0.72,0.706,0.619,0.519,0.39,0.27399999999999997,0.188,0.073,0.001,-0.055999999999999994,-0.114,-0.14300000000000002,-0.172,-0.201,-0.215,-0.201,-0.215,-0.201,-0.201,-0.18600000000000003,-0.18600000000000003,-0.172,-0.157,-0.14300000000000002,-0.129,-0.114,-0.114,-0.1,-0.114,-0.114,-0.114,-0.114,-0.114,-0.114,-0.114,-0.114,-0.114,-0.114,-0.114,-0.114,-0.114,-0.114,-0.114,-0.114,-0.114,-0.114,-0.129,-0.129,-0.129,-0.114,-0.114,-0.114,-0.114,-0.114,-0.114,-0.114,-0.114,-0.1,-0.1,-0.1,-0.1,-0.1,-0.1,-0.1,-0.1,-0.1,-0.1,-0.1,-0.085,-0.085,-0.071,-0.071,-0.071,-0.071,-0.071,-0.071,-0.071,-0.071,-0.055999999999999994,-0.055999999999999994,-0.055999999999999994,-0.055999999999999994,-0.055999999999999994,-0.055999999999999994,-0.042,-0.042,-0.027999999999999997,-0.027999999999999997,-0.027999999999999997,-0.027999999999999997,-0.027999999999999997,-0.027999999999999997,-0.013000000000000001,-0.013000000000000001,-0.013000000000000001,-0.013000000000000001,-0.013000000000000001,-0.013000000000000001,0.001,0.001,0.001,0.001,0.001,0.001,0.001,0.001,0.001,0.001,0.015,0.015,0.03,0.03,0.03,0.03,0.03,0.03,0.044000000000000004,0.044000000000000004,0.044000000000000004,0.057999999999999996,0.057999999999999996,0.057999999999999996,0.057999999999999996,0.057999999999999996,0.073,0.073,0.073,0.073,0.073,0.073,0.073,0.073,0.073,0.073,0.073,0.087,0.102,0.087,0.102,0.102,0.102,0.102,0.11599999999999999,0.11599999999999999,0.11599999999999999,0.11599999999999999,0.11599999999999999,0.11599999999999999,0.102,0.102,0.11599999999999999,0.11599999999999999,0.11599999999999999,0.11599999999999999,0.102,0.102,0.102,0.087,0.087,0.087,0.087,0.073,0.073,0.057999999999999996,0.057999999999999996,0.057999999999999996,0.044000000000000004,0.044000000000000004,0.03,0.03,0.015,0.015,0.015,0.001,0.001,0.001,0.001,0.001,0.001,0.001,0.001,-0.013000000000000001,-0.013000000000000001,-0.013000000000000001,-0.013000000000000001,0.001,-0.013000000000000001,-0.013000000000000001,-0.013000000000000001,-0.013000000000000001,-0.013000000000000001,-0.013000000000000001,0.001,0.001,0.001,0.001,0.001,0.001,0.001,0.001,-0.013000000000000001,0.001,0.001,0.001,-0.013000000000000001,0.001,0.001,0.001,0.001,0.001,0.001,0.001,0.001,0.001,0.001,0.001,-0.013000000000000001,-0.013000000000000001,0.001,0.001,0.001,0.001,0.001,-0.013000000000000001,-0.013000000000000001,-0.013000000000000001,-0.013000000000000001,-0.013000000000000001,-0.013000000000000001,-0.013000000000000001,-0.013000000000000001,-0.013000000000000001,-0.013000000000000001,-0.013000000000000001,-0.013000000000000001,-0.013000000000000001,-0.013000000000000001,-0.027999999999999997,-0.027999999999999997,-0.027999999999999997,-0.027999999999999997,-0.027999999999999997,-0.013000000000000001,-0.013000000000000001,-0.027999999999999997,-0.027999999999999997,-0.027999999999999997,-0.027999999999999997,-0.027999999999999997,-0.013000000000000001,-0.013000000000000001,-0.013000000000000001,-0.013000000000000001,-0.013000000000000001,-0.013000000000000001,-0.013000000000000001,-0.013000000000000001,-0.013000000000000001,-0.013000000000000001,0.001,0.001,0.001,0.001,0.015,0.03,0.044000000000000004,0.057999999999999996,0.057999999999999996,0.057999999999999996,0.057999999999999996,0.057999999999999996,0.057999999999999996,0.044000000000000004,0.03,0.03,0.03,0.03,0.03,0.015,0.015,0.015,0.001,0.001,0.001,0.001,-0.013000000000000001,-0.013000000000000001,-0.013000000000000001,-0.027999999999999997,-0.055999999999999994,-0.071,-0.085,-0.1,-0.1,-0.114,-0.114,-0.114,-0.114,-0.114,-0.114,-0.114,-0.1,-0.114,-0.1,-0.1,-0.114,-0.114,-0.114,-0.114,-0.1,-0.1,-0.1,-0.1,-0.1,-0.1,-0.1,-0.1,-0.1,-0.1,-0.1,-0.1,-0.085,-0.071,-0.042,-0.013000000000000001,0.015,0.044000000000000004,0.087,0.145,0.203,0.289,0.375,0.447,0.5329999999999999,0.606,0.6629999999999999,0.706,0.706,0.6920000000000001,0.619,0.505,0.39,0.289,0.188,0.073,N
5,-0.172,-0.157,-0.14300000000000002,-0.14300000000000002,-0.14300000000000002,-0.129,-0.129,-0.14300000000000002,-0.14300000000000002,-0.129,-0.129,-0.14300000000000002,-0.129,-0.129,-0.129,-0.114,-0.114,-0.114,-0.114,-0.14300000000000002,-0.14300000000000002,-0.14300000000000002,-0.14300000000000002,-0.14300000000000002,-0.14300000000000002,-0.129,-0.114,-0.114,-0.114,-0.1,-0.114,-0.114,-0.114,-0.114,-0.114,-0.1,-0.114,-0.1,-0.1,-0.1,-0.1,-0.1,-0.1,-0.1,-0.085,-0.085,-0.085,-0.1,-0.1,-0.1,-0.1,-0.085,-0.085,-0.071,-0.071,-0.071,-0.071,-0.071,-0.071,-0.055999999999999994,-0.055999999999999994,-0.055999999999999994,-0.055999999999999994,-0.055999999999999994,-0.071,-0.055999999999999994,-0.055999999999999994,-0.042,-0.027999999999999997,-0.027999999999999997,-0.027999999999999997,-0.027999999999999997,-0.027999999999999997,-0.027999999999999997,-0.013000000000000001,-0.013000000000000001,-0.013000000000000001,-0.013000000000000001,-0.013000000000000001,0.001,0.001,0.001,0.001,0.001,0.001,0.015,0.015,0.015,0.015,0.03,0.03,0.03,0.03,0.03,0.044000000000000004,0.057999999999999996,0.057999999999999996,0.057999999999999996,0.044000000000000004,0.044000000000000004,0.057999999999999996,0.044000000000000004,0.057999999999999996,0.057999999999999996,0.057999999999999996,0.057999999999999996,0.057999999999999996,0.057999999999999996,0.073,0.073,0.073,0.073,0.073,0.073,0.073,0.073,0.073,0.087,0.087,0.102,0.102,0.102,0.102,0.102,0.11599999999999999,0.11599999999999999,0.11599999999999999,0.11599999999999999,0.11599999999999999,0.11599999999999999,0.11599999999999999,0.102,0.11599999999999999,0.102,0.102,0.102,0.102,0.087,0.087,0.073,0.073,0.073,0.057999999999999996,0.057999999999999996,0.057999999999999996,0.057999999999999996,0.044000000000000004,0.03,0.03,0.03,0.015,0.015,0.001,0.001,0.001,0.001,0.001,0.001,0.001,0.001,0.001,-0.013000000000000001,-0.013000000000000001,-0.013000000000000001,-0.013000000000000001,-0.013000000000000001,-0.013000000000000001,-0.013000000000000001,-0.013000000000000001,-0.013000000000000001,0.001,0.001,0.001,-0.013000000000000001,-0.013000000000000001,-0.013000000000000001,-0.013000000000000001,0.001,-0.013000000000000001,0.001,0.001,-0.013000000000000001,-0.013000000000000001,-0.013000000000000001,0.001,0.001,0.001,0.001,0.001,0.001,0.001,0.001,0.001,0.001,-0.013000000000000001,-0.013000000000000001,-0.013000000000000001,-0.013000000000000001,-0.013000000000000001,-0.013000000000000001,-0.013000000000000001,-0.013000000000000001,0.001,-0.013000000000000001,-0.013000000000000001,-0.013000000000000001,-0.013000000000000001,-0.013000000000000001,-0.013000000000000001,-0.013000000000000001,-0.013000000000000001,-0.013000000000000001,-0.013000000000000001,-0.027999999999999997,-0.027999999999999997,-0.027999999999999997,-0.027999999999999997,-0.027999999999999997,-0.027999999999999997,-0.027999999999999997,-0.027999999999999997,-0.027999999999999997,-0.027999999999999997,-0.027999999999999997,-0.027999999999999997,-0.027999999999999997,-0.027999999999999997,-0.027999999999999997,-0.027999999999999997,-0.027999999999999997,-0.013000000000000001,-0.013000000000000001,-0.013000000000000001,-0.013000000000000001,-0.013000000000000001,0.001,-0.013000000000000001,-0.013000000000000001,-0.013000000000000001,-0.013000000000000001,-0.013000000000000001,-0.013000000000000001,0.001,0.001,0.015,0.015,0.03,0.044000000000000004,0.044000000000000004,0.044000000000000004,0.044000000000000004,0.03,0.03,0.03,0.03,0.015,0.015,0.015,0.001,0.001,0.015,0.001,0.001,0.001,0.001,0.001,-0.013000000000000001,-0.013000000000000001,-0.027999999999999997,-0.055999999999999994,-0.071,-0.071,-0.1,-0.1,-0.114,-0.114,-0.1,-0.1,-0.114,-0.114,-0.114,-0.114,-0.114,-0.114,-0.114,-0.114,-0.1,-0.114,-0.114,-0.114,-0.114,-0.114,-0.1,-0.1,-0.1,-0.1,-0.114,-0.114,-0.114,-0.114,-0.1,-0.085,-0.071,-0.042,-0.013000000000000001,0.015,0.03,0.073,0.131,0.203,0.27399999999999997,0.375,0.447,0.5329999999999999,0.606,0.6629999999999999,0.6920000000000001,0.72,0.706,0.619,0.519,0.39,0.27399999999999997,0.188,0.073,0.001,-0.055999999999999994,-0.114,-0.14300000000000002,-0.172,-0.201,-0.215,-0.201,-0.215,-0.201,-0.201,-0.18600000000000003,-0.18600000000000003,-0.172,-0.157,-0.14300000000000002,-0.129,-0.114,-0.114,-0.1,-0.114,-0.114,-0.114,-0.114,-0.114,-0.114,-0.114,-0.114,-0.114,-0.114,-0.114,-0.114,-0.114,-0.114,-0.114,-0.114,-0.114,-0.114,-0.129,-0.129,-0.129,-0.114,-0.114,-0.114,-0.114,-0.114,-0.114,-0.114,-0.114,-0.1,-0.1,-0.1,-0.1,-0.1,-0.1,-0.1,-0.1,-0.1,-0.1,-0.1,-0.085,-0.085,-0.071,-0.071,-0.071,-0.071,-0.071,-0.071,-0.071,-0.071,-0.055999999999999994,-0.055999999999999994,-0.055999999999999994,-0.055999999999999994,-0.055999999999999994,-0.055999999999999994,-0.042,-0.042,-0.027999999999999997,-0.027999999999999997,-0.027999999999999997,-0.027999999999999997,-0.027999999999999997,-0.027999999999999997,-0.013000000000000001,-0.013000000000000001,-0.013000000000000001,-0.013000000000000001,-0.013000000000000001,-0.013000000000000001,0.001,0.001,0.001,0.001,0.001,0.001,0.001,0.001,0.001,0.001,0.015,0.015,0.03,0.03,0.03,0.03,0.03,0.03,0.044000000000000004,0.044000000000000004,0.044000000000000004,0.057999999999999996,0.057999999999999996,0.057999999999999996,0.057999999999999996,0.057999999999999996,0.073,0.073,0.073,0.073,0.073,0.073,0.073,0.073,0.073,0.073,0.073,0.087,0.102,0.087,0.102,0.102,0.102,0.102,0.11599999999999999,0.11599999999999999,0.11599999999999999,0.11599999999999999,0.11599999999999999,0.11599999999999999,0.102,0.102,0.11599999999999999,0.11599999999999999,0.11599999999999999,0.11599999999999999,0.102,0.102,0.102,0.087,0.087,0.087,0.087,0.073,0.073,0.057999999999999996,0.057999999999999996,0.057999999999999996,0.044000000000000004,0.044000000000000004,0.03,0.03,0.015,0.015,0.015,0.001,0.001,0.001,0.001,0.001,0.001,0.001,0.001,-0.013000000000000001,-0.013000000000000001,-0.013000000000000001,-0.013000000000000001,0.001,-0.013000000000000001,-0.013000000000000001,-0.013000000000000001,-0.013000000000000001,-0.013000000000000001,-0.013000000000000001,0.001,0.001,0.001,0.001,0.001,0.001,0.001,0.001,-0.013000000000000001,0.001,0.001,0.001,-0.013000000000000001,0.001,0.001,0.001,0.001,0.001,0.001,0.001,0.001,0.001,0.001,0.001,-0.013000000000000001,-0.013000000000000001,0.001,0.001,0.001,0.001,0.001,-0.013000000000000001,-0.013000000000000001,-0.013000000000000001,-0.013000000000000001,-0.013000000000000001,-0.013000000000000001,-0.013000000000000001,-0.013000000000000001,-0.013000000000000001,-0.013000000000000001,-0.013000000000000001,-0.013000000000000001,-0.013000000000000001,-0.013000000000000001,-0.027999999999999997,-0.027999999999999997,-0.027999999999999997,-0.027999999999999997,-0.027999999999999997,-0.013000000000000001,-0.013000000000000001,-0.027999999999999997,-0.027999999999999997,-0.027999999999999997,-0.027999999999999997,-0.027999999999999997,-0.013000000000000001,-0.013000000000000001,-0.013000000000000001,-0.013000000000000001,-0.013000000000000001,-0.013000000000000001,-0.013000000000000001,-0.013000000000000001,-0.013000000000000001,-0.013000000000000001,0.001,0.001,0.001,0.001,0.015,0.03,0.044000000000000004,0.057999999999999996,0.057999999999999996,0.057999999999999996,0.057999999999999996,0.057999999999999996,0.057999999999999996,0.044000000000000004,0.03,0.03,0.03,0.03,0.03,0.015,0.015,0.015,0.001,0.001,0.001,0.001,-0.013000000000000001,-0.013000000000000001,-0.013000000000000001,-0.027999999999999997,-0.055999999999999994,-0.071,-0.085,-0.1,-0.1,-0.114,-0.114,-0.114,-0.114,-0.114,-0.114,-0.114,-0.1,-0.114,-0.1,-0.1,-0.114,-0.114,-0.114,-0.114,-0.1,-0.1,-0.1,-0.1,-0.1,-0.1,-0.1,-0.1,-0.1,-0.1,-0.1,-0.1,-0.085,-0.071,-0.042,-0.013000000000000001,0.015,0.044000000000000004,0.087,0.145,0.203,0.289,0.375,0.447,0.5329999999999999,0.606,0.6629999999999999,0.706,0.706,0.6920000000000001,0.619,0.505,0.39,0.289,0.188,0.073,0.001,-0.071,-0.114,-0.14300000000000002,-0.172,-0.18600000000000003,-0.201,-0.201,-0.201,-0.201,-0.18600000000000003,-0.18600000000000003,-0.157,-0.157,-0.14300000000000002,-0.14300000000000002,-0.14300000000000002,-0.14300000000000002,-0.129,-0.14300000000000002,-0.129,-0.129,-0.129,-0.129,-0.114,-0.114,-0.114,-0.129,-0.114,-0.114,-0.114,-0.114,-0.114,-0.114,-0.114,-0.114,-0.114,-0.114,-0.129,-0.129,-0.129,-0.114,-0.114,-0.114,-0.114,-0.114,-0.114,-0.114,-0.1,-0.1,-0.114,-0.1,-0.1,-0.1,-0.1,-0.1,-0.1,-0.1,-0.1,-0.085,-0.085,-0.085,-0.085,-0.085,-0.085,-0.071,-0.071,-0.071,-0.071,-0.071,-0.071,-0.071,-0.071,-0.055999999999999994,-0.055999999999999994,-0.055999999999999994,-0.055999999999999994,-0.055999999999999994,-0.055999999999999994,-0.042,-0.027999999999999997,-0.027999999999999997,-0.013000000000000001,-0.013000000000000001,-0.013000000000000001,-0.013000000000000001,-0.013000000000000001,-0.013000000000000001,-0.013000000000000001,0.001,0.001,0.001,0.001,0.001,0.001,0.001,0.001,0.015,0.015,0.015,0.03,0.015,0.03,0.03,0.03,0.044000000000000004,0.044000000000000004,0.057999999999999996,0.057999999999999996,0.057999999999999996,0.057999999999999996,0.057999999999999996,0.073,0.073,0.073,0.057999999999999996,0.073,0.073,0.073,0.073,0.073,0.073,0.073,0.087,0.073,0.073,0.073,0.073,0.087,0.087,0.102,0.11599999999999999,0.11599999999999999,0.11599999999999999,0.11599999999999999,0.131,0.131,0.131,0.131,0.145,0.131,0.131,0.131,0.11599999999999999,0.11599999999999999,0.11599999999999999,0.11599999999999999,0.11599999999999999,0.11599999999999999,0.11599999999999999,0.102,0.102,0.073,0.073,0.073,0.057999999999999996,0.057999999999999996,0.044000000000000004,0.044000000000000004,0.03,0.03,0.03,0.03,0.03,0.03,0.015,0.015,0.015,0.001,0.001,0.001,0.001,0.001,0.001,0.001,0.001,0.001,0.001,0.001,0.001,0.001,0.001,0.001,0.001,0.001,0.001,0.001,0.001,0.001,0.001,0.001,0.001,-0.013000000000000001,0.001,0.001,0.001,0.001,0.001,0.001,0.001,0.001,0.001,0.001,0.001,0.001,0.001,0.001,0.001,0.001,0.001,0.001,0.001,0.001,0.001,0.001,0.001,0.001,0.001,0.001,0.001,0.001,-0.013000000000000001,-0.013000000000000001,-0.013000000000000001,-0.027999999999999997,-0.027999999999999997,-0.027999999999999997,-0.013000000000000001,-0.013000000000000001,-0.027999999999999997,-0.027999999999999997,-0.013000000000000001,-0.027999999999999997,-0.027999999999999997,-0.027999999999999997,-0.027999999999999997,-0.027999999999999997,-0.027999999999999997,-0.027999999999999997,-0.027999999999999997,-0.013000000000000001,-0.013000000000000001,0.001,-0.013000000000000001,-0.013000000000000001,-0.013000000000000001,-0.013000000000000001,-0.013000000000000001,-0.013000000000000001,0.001,-0.013000000000000001,0.001,0.001,0.001,0.015,0.03,0.057999999999999996,0.057999999999999996,0.073,0.073,0.073,0.073,0.073,0.073,0.057999999999999996,0.057999999999999996,0.044000000000000004,0.044000000000000004,0.03,0.03,0.03,0.015,0.015,0.015,0.001,0.001,0.001,-0.013000000000000001,-0.013000000000000001,-0.027999999999999997,-0.027999999999999997,-0.055999999999999994,-0.055999999999999994,-0.071,-0.1,-0.1,-0.114,-0.114,-0.114,-0.114,-0.114,-0.114,-0.114,-0.114,-0.1,-0.1,-0.1,-0.085,-0.085,-0.1,-0.071,-0.085,-0.071,-0.085,-0.085,-0.085,-0.085,-0.071,-0.071,-0.085,-0.1,-0.085,-0.085,-0.071,-0.027999999999999997,0.001,0.015,0.057999999999999996,0.102,0.131,0.188,0.26,0.332,0.40399999999999997,0.47600000000000003,0.562,0.619,0.6629999999999999,0.706,0.72,0.677,0.5770000000000001,0.47600000000000003,0.361,0.245,0.145,0.044000000000000004,-0.013000000000000001,N
6,-0.172,-0.157,-0.14300000000000002,-0.129,-0.114,-0.114,-0.1,-0.114,-0.114,-0.114,-0.114,-0.114,-0.114,-0.114,-0.114,-0.114,-0.114,-0.114,-0.114,-0.114,-0.114,-0.114,-0.114,-0.114,-0.114,-0.129,-0.129,-0.129,-0.114,-0.114,-0.114,-0.114,-0.114,-0.114,-0.114,-0.114,-0.1,-0.1,-0.1,-0.1,-0.1,-0.1,-0.1,-0.1,-0.1,-0.1,-0.1,-0.085,-0.085,-0.071,-0.071,-0.071,-0.071,-0.071,-0.071,-0.071,-0.071,-0.055999999999999994,-0.055999999999999994,-0.055999999999999994,-0.055999999999999994,-0.055999999999999994,-0.055999999999999994,-0.042,-0.042,-0.027999999999999997,-0.027999999999999997,-0.027999999999999997,-0.027999999999999997,-0.027999999999999997,-0.027999999999999997,-0.013000000000000001,-0.013000000000000001,-0.013000000000000001,-0.013000000000000001,-0.013000000000000001,-0.013000000000000001,0.001,0.001,0.001,0.001,0.001,0.001,0.001,0.001,0.001,0.001,0.015,0.015,0.03,0.03,0.03,0.03,0.03,0.03,0.044000000000000004,0.044000000000000004,0.044000000000000004,0.057999999999999996,0.057999999999999996,0.057999999999999996,0.057999999999999996,0.057999999999999996,0.073,0.073,0.073,0.073,0.073,0.073,0.073,0.073,0.073,0.073,0.073,0.087,0.102,0.087,0.102,0.102,0.102,0.102,0.11599999999999999,0.11599999999999999,0.11599999999999999,0.11599999999999999,0.11599999999999999,0.11599999999999999,0.102,0.102,0.11599999999999999,0.11599999999999999,0.11599999999999999,0.11599999999999999,0.102,0.102,0.102,0.087,0.087,0.087,0.087,0.073,0.073,0.057999999999999996,0.057999999999999996,0.057999999999999996,0.044000000000000004,0.044000000000000004,0.03,0.03,0.015,0.015,0.015,0.001,0.001,0.001,0.001,0.001,0.001,0.001,0.001,-0.013000000000000001,-0.013000000000000001,-0.013000000000000001,-0.013000000000000001,0.001,-0.013000000000000001,-0.013000000000000001,-0.013000000000000001,-0.013000000000000001,-0.013000000000000001,-0.013000000000000001,0.001,0.001,0.001,0.001,0.001,0.001,0.001,0.001,-0.013000000000000001,0.001,0.001,0.001,-0.013000000000000001,0.001,0.001,0.001,0.001,0.001,0.001,0.001,0.001,0.001,0.001,0.001,-0.013000000000000001,-0.013000000000000001,0.001,0.001,0.001,0.001,0.001,-0.013000000000000001,-0.013000000000000001,-0.013000000000000001,-0.013000000000000001,-0.013000000000000001,-0.013000000000000001,-0.013000000000000001,-0.013000000000000001,-0.013000000000000001,-0.013000000000000001,-0.013000000000000001,-0.013000000000000001,-0.013000000000000001,-0.013000000000000001,-0.027999999999999997,-0.027999999999999997,-0.027999999999999997,-0.027999999999999997,-0.027999999999999997,-0.013000000000000001,-0.013000000000000001,-0.027999999999999997,-0.027999999999999997,-0.027999999999999997,-0.027999999999999997,-0.027999999999999997,-0.013000000000000001,-0.013000000000000001,-0.013000000000000001,-0.013000000000000001,-0.013000000000000001,-0.013000000000000001,-0.013000000000000001,-0.013000000000000001,-0.013000000000000001,-0.013000000000000001,0.001,0.001,0.001,0.001,0.015,0.03,0.044000000000000004,0.057999999999999996,0.057999999999999996,0.057999999999999996,0.057999999999999996,0.057999999999999996,0.057999999999999996,0.044000000000000004,0.03,0.03,0.03,0.03,0.03,0.015,0.015,0.015,0.001,0.001,0.001,0.001,-0.013000000000000001,-0.013000000000000001,-0.013000000000000001,-0.027999999999999997,-0.055999999999999994,-0.071,-0.085,-0.1,-0.1,-0.114,-0.114,-0.114,-0.114,-0.114,-0.114,-0.114,-0.1,-0.114,-0.1,-0.1,-0.114,-0.114,-0.114,-0.114,-0.1,-0.1,-0.1,-0.1,-0.1,-0.1,-0.1,-0.1,-0.1,-0.1,-0.1,-0.1,-0.085,-0.071,-0.042,-0.013000000000000001,0.015,0.044000000000000004,0.087,0.145,0.203,0.289,0.375,0.447,0.5329999999999999,0.606,0.6629999999999999,0.706,0.706,0.6920000000000001,0.619,0.505,0.39,0.289,0.188,0.073,0.001,-0.071,-0.114,-0.14300000000000002,-0.172,-0.18600000000000003,-0.201,-0.201,-0.201,-0.201,-0.18600000000000003,-0.18600000000000003,-0.157,-0.157,-0.14300000000000002,-0.14300000000000002,-0.14300000000000002,-0.14300000000000002,-0.129,-0.14300000000000002,-0.129,-0.129,-0.129,-0.129,-0.114,-0.114,-0.114,-0.129,-0.114,-0.114,-0.114,-0.114,-0.114,-0.114,-0.114,-0.114,-0.114,-0.114,-0.129,-0.129,-0.129,-0.114,-0.114,-0.114,-0.114,-0.114,-0.114,-0.114,-0.1,-0.1,-0.114,-0.1,-0.1,-0.1,-0.1,-0.1,-0.1,-0.1,-0.1,-0.085,-0.085,-0.085,-0.085,-0.085,-0.085,-0.071,-0.071,-0.071,-0.071,-0.071,-0.071,-0.071,-0.071,-0.055999999999999994,-0.055999999999999994,-0.055999999999999994,-0.055999999999999994,-0.055999999999999994,-0.055999999999999994,-0.042,-0.027999999999999997,-0.027999999999999997,-0.013000000000000001,-0.013000000000000001,-0.013000000000000001,-0.013000000000000001,-0.013000000000000001,-0.013000000000000001,-0.013000000000000001,0.001,0.001,0.001,0.001,0.001,0.001,0.001,0.001,0.015,0.015,0.015,0.03,0.015,0.03,0.03,0.03,0.044000000000000004,0.044000000000000004,0.057999999999999996,0.057999999999999996,0.057999999999999996,0.057999999999999996,0.057999999999999996,0.073,0.073,0.073,0.057999999999999996,0.073,0.073,0.073,0.073,0.073,0.073,0.073,0.087,0.073,0.073,0.073,0.073,0.087,0.087,0.102,0.11599999999999999,0.11599999999999999,0.11599999999999999,0.11599999999999999,0.131,0.131,0.131,0.131,0.145,0.131,0.131,0.131,0.11599999999999999,0.11599999999999999,0.11599999999999999,0.11599999999999999,0.11599999999999999,0.11599999999999999,0.11599999999999999,0.102,0.102,0.073,0.073,0.073,0.057999999999999996,0.057999999999999996,0.044000000000000004,0.044000000000000004,0.03,0.03,0.03,0.03,0.03,0.03,0.015,0.015,0.015,0.001,0.001,0.001,0.001,0.001,0.001,0.001,0.001,0.001,0.001,0.001,0.001,0.001,0.001,0.001,0.001,0.001,0.001,0.001,0.001,0.001,0.001,0.001,0.001,-0.013000000000000001,0.001,0.001,0.001,0.001,0.001,0.001,0.001,0.001,0.001,0.001,0.001,0.001,0.001,0.001,0.001,0.001,0.001,0.001,0.001,0.001,0.001,0.001,0.001,0.001,0.001,0.001,0.001,0.001,-0.013000000000000001,-0.013000000000000001,-0.013000000000000001,-0.027999999999999997,-0.027999999999999997,-0.027999999999999997,-0.013000000000000001,-0.013000000000000001,-0.027999999999999997,-0.027999999999999997,-0.013000000000000001,-0.027999999999999997,-0.027999999999999997,-0.027999999999999997,-0.027999999999999997,-0.027999999999999997,-0.027999999999999997,-0.027999999999999997,-0.027999999999999997,-0.013000000000000001,-0.013000000000000001,0.001,-0.013000000000000001,-0.013000000000000001,-0.013000000000000001,-0.013000000000000001,-0.013000000000000001,-0.013000000000000001,0.001,-0.013000000000000001,0.001,0.001,0.001,0.015,0.03,0.057999999999999996,0.057999999999999996,0.073,0.073,0.073,0.073,0.073,0.073,0.057999999999999996,0.057999999999999996,0.044000000000000004,0.044000000000000004,0.03,0.03,0.03,0.015,0.015,0.015,0.001,0.001,0.001,-0.013000000000000001,-0.013000000000000001,-0.027999999999999997,-0.027999999999999997,-0.055999999999999994,-0.055999999999999994,-0.071,-0.1,-0.1,-0.114,-0.114,-0.114,-0.114,-0.114,-0.114,-0.114,-0.114,-0.1,-0.1,-0.1,-0.085,-0.085,-0.1,-0.071,-0.085,-0.071,-0.085,-0.085,-0.085,-0.085,-0.071,-0.071,-0.085,-0.1,-0.085,-0.085,-0.071,-0.027999999999999997,0.001,0.015,0.057999999999999996,0.102,0.131,0.188,0.26,0.332,0.40399999999999997,0.47600000000000003,0.562,0.619,0.6629999999999999,0.706,0.72,0.677,0.5770000000000001,0.47600000000000003,0.361,0.245,0.145,0.044000000000000004,-0.013000000000000001,-0.085,-0.114,-0.14300000000000002,-0.172,-0.18600000000000003,-0.18600000000000003,-0.201,-0.18600000000000003,-0.18600000000000003,-0.157,-0.14300000000000002,-0.14300000000000002,-0.129,-0.129,-0.114,-0.114,-0.114,-0.114,-0.1,-0.1,-0.1,-0.1,-0.1,-0.1,-0.1,-0.1,-0.1,-0.1,-0.1,-0.1,-0.1,-0.1,-0.1,-0.1,-0.1,-0.1,-0.1,-0.1,-0.1,-0.1,-0.085,-0.085,-0.071,-0.071,-0.071,-0.085,-0.085,-0.085,-0.085,-0.085,-0.085,-0.071,-0.071,-0.071,-0.071,-0.071,-0.071,-0.071,-0.071,-0.055999999999999994,-0.055999999999999994,-0.055999999999999994,-0.042,-0.042,-0.027999999999999997,-0.027999999999999997,-0.027999999999999997,-0.027999999999999997,-0.027999999999999997,-0.027999999999999997,-0.027999999999999997,-0.027999999999999997,-0.013000000000000001,-0.013000000000000001,-0.013000000000000001,-0.013000000000000001,-0.013000000000000001,-0.013000000000000001,-0.013000000000000001,0.001,0.001,0.001,0.001,0.001,0.001,0.001,0.001,0.001,0.001,0.015,0.015,0.03,0.03,0.044000000000000004,0.044000000000000004,0.044000000000000004,0.044000000000000004,0.057999999999999996,0.044000000000000004,0.044000000000000004,0.057999999999999996,0.057999999999999996,0.057999999999999996,0.057999999999999996,0.057999999999999996,0.057999999999999996,0.057999999999999996,0.073,0.073,0.073,0.073,0.073,0.073,0.073,0.073,0.087,0.087,0.073,0.087,0.087,0.102,0.102,0.102,0.102,0.11599999999999999,0.11599999999999999,0.11599999999999999,0.11599999999999999,0.11599999999999999,0.11599999999999999,0.11599999999999999,0.11599999999999999,0.131,0.131,0.145,0.145,0.145,0.145,0.145,0.131,0.131,0.131,0.131,0.145,0.145,0.145,0.145,0.131,0.11599999999999999,0.11599999999999999,0.102,0.102,0.102,0.073,0.073,0.073,0.057999999999999996,0.057999999999999996,0.044000000000000004,0.044000000000000004,0.044000000000000004,0.03,0.03,0.03,0.015,0.015,0.001,0.001,0.001,0.001,0.001,0.001,0.001,0.001,0.001,0.001,0.001,0.001,0.001,0.001,0.001,0.001,0.001,0.001,0.001,0.001,0.001,0.001,0.001,0.001,0.001,0.001,0.001,0.001,0.001,0.001,0.001,0.001,0.001,0.001,0.001,0.001,0.001,0.001,0.001,-0.013000000000000001,-0.013000000000000001,-0.013000000000000001,-0.013000000000000001,-0.013000000000000001,-0.013000000000000001,0.001,-0.013000000000000001,-0.013000000000000001,0.001,0.001,0.001,0.001,0.001,0.001,0.001,0.001,0.001,0.001,0.001,-0.013000000000000001,-0.013000000000000001,0.001,-0.013000000000000001,-0.013000000000000001,-0.013000000000000001,-0.027999999999999997,-0.027999999999999997,-0.027999999999999997,-0.027999999999999997,-0.027999999999999997,-0.013000000000000001,-0.013000000000000001,0.001,0.001,0.001,0.001,0.001,0.001,0.001,0.001,0.001,0.001,0.001,0.001,0.001,0.001,0.015,0.03,0.044000000000000004,0.044000000000000004,0.057999999999999996,0.057999999999999996,0.057999999999999996,0.057999999999999996,0.057999999999999996,0.057999999999999996,0.057999999999999996,0.044000000000000004,0.044000000000000004,0.03,0.03,0.03,0.015,0.015,0.001,0.015,0.001,0.001,0.001,0.001,-0.013000000000000001,-0.013000000000000001,-0.027999999999999997,-0.042,-0.055999999999999994,-0.071,-0.085,-0.1,-0.1,-0.1,-0.1,-0.1,-0.1,-0.1,-0.1,-0.1,-0.085,-0.1,-0.085,-0.085,-0.071,-0.071,-0.071,-0.071,-0.071,-0.071,-0.071,-0.071,-0.085,-0.085,-0.085,-0.085,-0.071,-0.071,-0.055999999999999994,-0.042,-0.013000000000000001,0.015,0.057999999999999996,0.087,0.131,0.188,0.245,0.332,0.43200000000000005,0.519,0.606,0.6920000000000001,0.7490000000000001,0.7929999999999999,0.821,0.821,0.7490000000000001,0.634,0.505,0.361,0.245,0.131,0.03,-0.042,-0.1,-0.14300000000000002,N
7,-0.157,-0.14300000000000002,-0.14300000000000002,-0.14300000000000002,-0.14300000000000002,-0.129,-0.14300000000000002,-0.129,-0.129,-0.129,-0.129,-0.114,-0.114,-0.114,-0.129,-0.114,-0.114,-0.114,-0.114,-0.114,-0.114,-0.114,-0.114,-0.114,-0.114,-0.129,-0.129,-0.129,-0.114,-0.114,-0.114,-0.114,-0.114,-0.114,-0.114,-0.1,-0.1,-0.114,-0.1,-0.1,-0.1,-0.1,-0.1,-0.1,-0.1,-0.1,-0.085,-0.085,-0.085,-0.085,-0.085,-0.085,-0.071,-0.071,-0.071,-0.071,-0.071,-0.071,-0.071,-0.071,-0.055999999999999994,-0.055999999999999994,-0.055999999999999994,-0.055999999999999994,-0.055999999999999994,-0.055999999999999994,-0.042,-0.027999999999999997,-0.027999999999999997,-0.013000000000000001,-0.013000000000000001,-0.013000000000000001,-0.013000000000000001,-0.013000000000000001,-0.013000000000000001,-0.013000000000000001,0.001,0.001,0.001,0.001,0.001,0.001,0.001,0.001,0.015,0.015,0.015,0.03,0.015,0.03,0.03,0.03,0.044000000000000004,0.044000000000000004,0.057999999999999996,0.057999999999999996,0.057999999999999996,0.057999999999999996,0.057999999999999996,0.073,0.073,0.073,0.057999999999999996,0.073,0.073,0.073,0.073,0.073,0.073,0.073,0.087,0.073,0.073,0.073,0.073,0.087,0.087,0.102,0.11599999999999999,0.11599999999999999,0.11599999999999999,0.11599999999999999,0.131,0.131,0.131,0.131,0.145,0.131,0.131,0.131,0.11599999999999999,0.11599999999999999,0.11599999999999999,0.11599999999999999,0.11599999999999999,0.11599999999999999,0.11599999999999999,0.102,0.102,0.073,0.073,0.073,0.057999999999999996,0.057999999999999996,0.044000000000000004,0.044000000000000004,0.03,0.03,0.03,0.03,0.03,0.03,0.015,0.015,0.015,0.001,0.001,0.001,0.001,0.001,0.001,0.001,0.001,0.001,0.001,0.001,0.001,0.001,0.001,0.001,0.001,0.001,0.001,0.001,0.001,0.001,0.001,0.001,0.001,-0.013000000000000001,0.001,0.001,0.001,0.001,0.001,0.001,0.001,0.001,0.001,0.001,0.001,0.001,0.001,0.001,0.001,0.001,0.001,0.001,0.001,0.001,0.001,0.001,0.001,0.001,0.001,0.001,0.001,0.001,-0.013000000000000001,-0.013000000000000001,-0.013000000000000001,-0.027999999999999997,-0.027999999999999997,-0.027999999999999997,-0.013000000000000001,-0.013000000000000001,-0.027999999999999997,-0.027999999999999997,-0.013000000000000001,-0.027999999999999997,-0.027999999999999997,-0.027999999999999997,-0.027999999999999997,-0.027999999999999997,-0.027999999999999997,-0.027999999999999997,-0.027999999999999997,-0.013000000000000001,-0.013000000000000001,0.001,-0.013000000000000001,-0.013000000000000001,-0.013000000000000001,-0.013000000000000001,-0.013000000000000001,-0.013000000000000001,0.001,-0.013000000000000001,0.001,0.001,0.001,0.015,0.03,0.057999999999999996,0.057999999999999996,0.073,0.073,0.073,0.073,0.073,0.073,0.057999999999999996,0.057999999999999996,0.044000000000000004,0.044000000000000004,0.03,0.03,0.03,0.015,0.015,0.015,0.001,0.001,0.001,-0.013000000000000001,-0.013000000000000001,-0.027999999999999997,-0.027999999999999997,-0.055999999999999994,-0.055999999999999994,-0.071,-0.1,-0.1,-0.114,-0.114,-0.114,-0.114,-0.114,-0.114,-0.114,-0.114,-0.1,-0.1,-0.1,-0.085,-0.085,-0.1,-0.071,-0.085,-0.071,-0.085,-0.085,-0.085,-0.085,-0.071,-0.071,-0.085,-0.1,-0.085,-0.085,-0.071,-0.027999999999999997,0.001,0.015,0.057999999999999996,0.102,0.131,0.188,0.26,0.332,0.40399999999999997,0.47600000000000003,0.562,0.619,0.6629999999999999,0.706,0.72,0.677,0.5770000000000001,0.47600000000000003,0.361,0.245,0.145,0.044000000000000004,-0.013000000000000001,-0.085,-0.114,-0.14300000000000002,-0.172,-0.18600000000000003,-0.18600000000000003,-0.201,-0.18600000000000003,-0.18600000000000003,-0.157,-0.14300000000000002,-0.14300000000000002,-0.129,-0.129,-0.114,-0.114,-0.114,-0.114,-0.1,-0.1,-0.1,-0.1,-0.1,-0.1,-0.1,-0.1,-0.1,-0.1,-0.1,-0.1,-0.1,-0.1,-0.1,-0.1,-0.1,-0.1,-0.1,-0.1,-0.1,-0.1,-0.085,-0.085,-0.071,-0.071,-0.071,-0.085,-0.085,-0.085,-0.085,-0.085,-0.085,-0.071,-0.071,-0.071,-0.071,-0.071,-0.071,-0.071,-0.071,-0.055999999999999994,-0.055999999999999994,-0.055999999999999994,-0.042,-0.042,-0.027999999999999997,-0.027999999999999997,-0.027999999999999997,-0.027999999999999997,-0.027999999999999997,-0.027999999999999997,-0.027999999999999997,-0.027999999999999997,-0.013000000000000001,-0.013000000000000001,-0.013000000000000001,-0.013000000000000001,-0.013000000000000001,-0.013000000000000001,-0.013000000000000001,0.001,0.001,0.001,0.001,0.001,0.001,0.001,0.001,0.001,0.001,0.015,0.015,0.03,0.03,0.044000000000000004,0.044000000000000004,0.044000000000000004,0.044000000000000004,0.057999999999999996,0.044000000000000004,0.044000000000000004,0.057999999999999996,0.057999999999999996,0.057999999999999996,0.057999999999999996,0.057999999999999996,0.057999999999999996,0.057999999999999996,0.073,0.073,0.073,0.073,0.073,0.073,0.073,0.073,0.087,0.087,0.073,0.087,0.087,0.102,0.102,0.102,0.102,0.11599999999999999,0.11599999999999999,0.11599999999999999,0.11599999999999999,0.11599999999999999,0.11599999999999999,0.11599999999999999,0.11599999999999999,0.131,0.131,0.145,0.145,0.145,0.145,0.145,0.131,0.131,0.131,0.131,0.145,0.145,0.145,0.145,0.131,0.11599999999999999,0.11599999999999999,0.102,0.102,0.102,0.073,0.073,0.073,0.057999999999999996,0.057999999999999996,0.044000000000000004,0.044000000000000004,0.044000000000000004,0.03,0.03,0.03,0.015,0.015,0.001,0.001,0.001,0.001,0.001,0.001,0.001,0.001,0.001,0.001,0.001,0.001,0.001,0.001,0.001,0.001,0.001,0.001,0.001,0.001,0.001,0.001,0.001,0.001,0.001,0.001,0.001,0.001,0.001,0.001,0.001,0.001,0.001,0.001,0.001,0.001,0.001,0.001,0.001,-0.013000000000000001,-0.013000000000000001,-0.013000000000000001,-0.013000000000000001,-0.013000000000000001,-0.013000000000000001,0.001,-0.013000000000000001,-0.013000000000000001,0.001,0.001,0.001,0.001,0.001,0.001,0.001,0.001,0.001,0.001,0.001,-0.013000000000000001,-0.013000000000000001,0.001,-0.013000000000000001,-0.013000000000000001,-0.013000000000000001,-0.027999999999999997,-0.027999999999999997,-0.027999999999999997,-0.027999999999999997,-0.027999999999999997,-0.013000000000000001,-0.013000000000000001,0.001,0.001,0.001,0.001,0.001,0.001,0.001,0.001,0.001,0.001,0.001,0.001,0.001,0.001,0.015,0.03,0.044000000000000004,0.044000000000000004,0.057999999999999996,0.057999999999999996,0.057999999999999996,0.057999999999999996,0.057999999999999996,0.057999999999999996,0.057999999999999996,0.044000000000000004,0.044000000000000004,0.03,0.03,0.03,0.015,0.015,0.001,0.015,0.001,0.001,0.001,0.001,-0.013000000000000001,-0.013000000000000001,-0.027999999999999997,-0.042,-0.055999999999999994,-0.071,-0.085,-0.1,-0.1,-0.1,-0.1,-0.1,-0.1,-0.1,-0.1,-0.1,-0.085,-0.1,-0.085,-0.085,-0.071,-0.071,-0.071,-0.071,-0.071,-0.071,-0.071,-0.071,-0.085,-0.085,-0.085,-0.085,-0.071,-0.071,-0.055999999999999994,-0.042,-0.013000000000000001,0.015,0.057999999999999996,0.087,0.131,0.188,0.245,0.332,0.43200000000000005,0.519,0.606,0.6920000000000001,0.7490000000000001,0.7929999999999999,0.821,0.821,0.7490000000000001,0.634,0.505,0.361,0.245,0.131,0.03,-0.042,-0.1,-0.14300000000000002,-0.157,-0.18600000000000003,-0.18600000000000003,-0.201,-0.18600000000000003,-0.18600000000000003,-0.172,-0.157,-0.157,-0.14300000000000002,-0.129,-0.114,-0.114,-0.114,-0.114,-0.1,-0.1,-0.1,-0.114,-0.114,-0.1,-0.1,-0.1,-0.1,-0.1,-0.1,-0.1,-0.114,-0.1,-0.1,-0.1,-0.1,-0.1,-0.1,-0.1,-0.1,-0.1,-0.1,-0.1,-0.1,-0.1,-0.1,-0.1,-0.085,-0.085,-0.085,-0.071,-0.071,-0.071,-0.071,-0.071,-0.071,-0.071,-0.071,-0.071,-0.071,-0.071,-0.071,-0.071,-0.055999999999999994,-0.055999999999999994,-0.055999999999999994,-0.042,-0.055999999999999994,-0.042,-0.042,-0.055999999999999994,-0.042,-0.027999999999999997,-0.027999999999999997,-0.027999999999999997,-0.027999999999999997,-0.027999999999999997,-0.027999999999999997,-0.027999999999999997,-0.027999999999999997,-0.027999999999999997,-0.013000000000000001,-0.013000000000000001,-0.013000000000000001,-0.013000000000000001,-0.013000000000000001,0.001,-0.013000000000000001,0.001,0.001,0.001,0.001,0.015,0.001,0.001,0.001,0.001,0.015,0.015,0.015,0.03,0.03,0.03,0.03,0.03,0.044000000000000004,0.057999999999999996,0.057999999999999996,0.057999999999999996,0.057999999999999996,0.057999999999999996,0.057999999999999996,0.057999999999999996,0.044000000000000004,0.044000000000000004,0.057999999999999996,0.057999999999999996,0.057999999999999996,0.073,0.073,0.073,0.057999999999999996,0.073,0.057999999999999996,0.073,0.073,0.073,0.073,0.073,0.073,0.073,0.073,0.087,0.102,0.102,0.102,0.11599999999999999,0.11599999999999999,0.11599999999999999,0.11599999999999999,0.11599999999999999,0.11599999999999999,0.11599999999999999,0.11599999999999999,0.11599999999999999,0.102,0.102,0.102,0.102,0.087,0.073,0.073,0.073,0.057999999999999996,0.057999999999999996,0.044000000000000004,0.03,0.03,0.03,0.03,0.03,0.015,0.015,0.015,0.001,0.001,0.001,0.001,0.001,0.001,-0.013000000000000001,-0.013000000000000001,-0.027999999999999997,-0.027999999999999997,-0.027999999999999997,-0.027999999999999997,-0.027999999999999997,-0.027999999999999997,-0.027999999999999997,-0.027999999999999997,-0.027999999999999997,-0.027999999999999997,-0.027999999999999997,-0.013000000000000001,-0.013000000000000001,-0.013000000000000001,-0.013000000000000001,-0.013000000000000001,-0.013000000000000001,-0.013000000000000001,-0.013000000000000001,-0.013000000000000001,-0.013000000000000001,-0.013000000000000001,-0.013000000000000001,-0.013000000000000001,-0.013000000000000001,-0.013000000000000001,-0.013000000000000001,-0.013000000000000001,-0.013000000000000001,-0.013000000000000001,-0.013000000000000001,-0.013000000000000001,-0.013000000000000001,-0.013000000000000001,-0.013000000000000001,-0.013000000000000001,-0.013000000000000001,-0.013000000000000001,-0.013000000000000001,-0.013000000000000001,-0.013000000000000001,-0.013000000000000001,-0.027999999999999997,-0.013000000000000001,-0.013000000000000001,-0.013000000000000001,-0.013000000000000001,-0.013000000000000001,-0.027999999999999997,-0.027999999999999997,-0.027999999999999997,-0.027999999999999997,-0.027999999999999997,-0.027999999999999997,-0.027999999999999997,-0.013000000000000001,-0.027999999999999997,-0.013000000000000001,-0.027999999999999997,-0.027999999999999997,-0.027999999999999997,-0.027999999999999997,-0.042,-0.042,-0.042,-0.042,-0.042,-0.042,-0.027999999999999997,-0.027999999999999997,-0.013000000000000001,-0.013000000000000001,-0.013000000000000001,-0.013000000000000001,-0.013000000000000001,-0.013000000000000001,-0.013000000000000001,-0.013000000000000001,0.001,0.001,0.001,0.001,0.001,0.001,0.015,0.015,0.015,0.015,0.015,0.015,0.015,0.015,0.015,0.015,0.015,0.015,0.001,0.001,0.001,0.001,0.001,-0.027999999999999997,-0.013000000000000001,-0.027999999999999997,-0.027999999999999997,-0.042,-0.042,-0.055999999999999994,-0.055999999999999994,-0.071,-0.085,-0.1,-0.114,-0.114,-0.114,-0.129,-0.129,-0.14300000000000002,-0.14300000000000002,-0.129,-0.129,-0.114,-0.114,-0.114,-0.114,-0.114,-0.114,-0.114,-0.114,-0.114,-0.114,-0.114,-0.114,-0.114,-0.114,-0.114,-0.114,-0.1,-0.114,-0.114,-0.114,-0.1,-0.071,-0.055999999999999994,-0.013000000000000001,0.015,0.057999999999999996,0.102,0.159,0.245,0.332,0.43200000000000005,0.5329999999999999,0.619,0.6920000000000001,0.7490000000000001,0.778,0.778,0.7490000000000001,0.648,0.5329999999999999,0.40399999999999997,0.27399999999999997,0.159,0.044000000000000004,-0.027999999999999997,-0.114,-0.157,-0.18600000000000003,N
8,-0.14300000000000002,-0.14300000000000002,-0.129,-0.129,-0.114,-0.114,-0.114,-0.114,-0.1,-0.1,-0.1,-0.1,-0.1,-0.1,-0.1,-0.1,-0.1,-0.1,-0.1,-0.1,-0.1,-0.1,-0.1,-0.1,-0.1,-0.1,-0.1,-0.1,-0.1,-0.1,-0.085,-0.085,-0.071,-0.071,-0.071,-0.085,-0.085,-0.085,-0.085,-0.085,-0.085,-0.071,-0.071,-0.071,-0.071,-0.071,-0.071,-0.071,-0.071,-0.055999999999999994,-0.055999999999999994,-0.055999999999999994,-0.042,-0.042,-0.027999999999999997,-0.027999999999999997,-0.027999999999999997,-0.027999999999999997,-0.027999999999999997,-0.027999999999999997,-0.027999999999999997,-0.027999999999999997,-0.013000000000000001,-0.013000000000000001,-0.013000000000000001,-0.013000000000000001,-0.013000000000000001,-0.013000000000000001,-0.013000000000000001,0.001,0.001,0.001,0.001,0.001,0.001,0.001,0.001,0.001,0.001,0.015,0.015,0.03,0.03,0.044000000000000004,0.044000000000000004,0.044000000000000004,0.044000000000000004,0.057999999999999996,0.044000000000000004,0.044000000000000004,0.057999999999999996,0.057999999999999996,0.057999999999999996,0.057999999999999996,0.057999999999999996,0.057999999999999996,0.057999999999999996,0.073,0.073,0.073,0.073,0.073,0.073,0.073,0.073,0.087,0.087,0.073,0.087,0.087,0.102,0.102,0.102,0.102,0.11599999999999999,0.11599999999999999,0.11599999999999999,0.11599999999999999,0.11599999999999999,0.11599999999999999,0.11599999999999999,0.11599999999999999,0.131,0.131,0.145,0.145,0.145,0.145,0.145,0.131,0.131,0.131,0.131,0.145,0.145,0.145,0.145,0.131,0.11599999999999999,0.11599999999999999,0.102,0.102,0.102,0.073,0.073,0.073,0.057999999999999996,0.057999999999999996,0.044000000000000004,0.044000000000000004,0.044000000000000004,0.03,0.03,0.03,0.015,0.015,0.001,0.001,0.001,0.001,0.001,0.001,0.001,0.001,0.001,0.001,0.001,0.001,0.001,0.001,0.001,0.001,0.001,0.001,0.001,0.001,0.001,0.001,0.001,0.001,0.001,0.001,0.001,0.001,0.001,0.001,0.001,0.001,0.001,0.001,0.001,0.001,0.001,0.001,0.001,-0.013000000000000001,-0.013000000000000001,-0.013000000000000001,-0.013000000000000001,-0.013000000000000001,-0.013000000000000001,0.001,-0.013000000000000001,-0.013000000000000001,0.001,0.001,0.001,0.001,0.001,0.001,0.001,0.001,0.001,0.001,0.001,-0.013000000000000001,-0.013000000000000001,0.001,-0.013000000000000001,-0.013000000000000001,-0.013000000000000001,-0.027999999999999997,-0.027999999999999997,-0.027999999999999997,-0.027999999999999997,-0.027999999999999997,-0.013000000000000001,-0.013000000000000001,0.001,0.001,0.001,0.001,0.001,0.001,0.001,0.001,0.001,0.001,0.001,0.001,0.001,0.001,0.015,0.03,0.044000000000000004,0.044000000000000004,0.057999999999999996,0.057999999999999996,0.057999999999999996,0.057999999999999996,0.057999999999999996,0.057999999999999996,0.057999999999999996,0.044000000000000004,0.044000000000000004,0.03,0.03,0.03,0.015,0.015,0.001,0.015,0.001,0.001,0.001,0.001,-0.013000000000000001,-0.013000000000000001,-0.027999999999999997,-0.042,-0.055999999999999994,-0.071,-0.085,-0.1,-0.1,-0.1,-0.1,-0.1,-0.1,-0.1,-0.1,-0.1,-0.085,-0.1,-0.085,-0.085,-0.071,-0.071,-0.071,-0.071,-0.071,-0.071,-0.071,-0.071,-0.085,-0.085,-0.085,-0.085,-0.071,-0.071,-0.055999999999999994,-0.042,-0.013000000000000001,0.015,0.057999999999999996,0.087,0.131,0.188,0.245,0.332,0.43200000000000005,0.519,0.606,0.6920000000000001,0.7490000000000001,0.7929999999999999,0.821,0.821,0.7490000000000001,0.634,0.505,0.361,0.245,0.131,0.03,-0.042,-0.1,-0.14300000000000002,-0.157,-0.18600000000000003,-0.18600000000000003,-0.201,-0.18600000000000003,-0.18600000000000003,-0.172,-0.157,-0.157,-0.14300000000000002,-0.129,-0.114,-0.114,-0.114,-0.114,-0.1,-0.1,-0.1,-0.114,-0.114,-0.1,-0.1,-0.1,-0.1,-0.1,-0.1,-0.1,-0.114,-0.1,-0.1,-0.1,-0.1,-0.1,-0.1,-0.1,-0.1,-0.1,-0.1,-0.1,-0.1,-0.1,-0.1,-0.1,-0.085,-0.085,-0.085,-0.071,-0.071,-0.071,-0.071,-0.071,-0.071,-0.071,-0.071,-0.071,-0.071,-0.071,-0.071,-0.071,-0.055999999999999994,-0.055999999999999994,-0.055999999999999994,-0.042,-0.055999999999999994,-0.042,-0.042,-0.055999999999999994,-0.042,-0.027999999999999997,-0.027999999999999997,-0.027999999999999997,-0.027999999999999997,-0.027999999999999997,-0.027999999999999997,-0.027999999999999997,-0.027999999999999997,-0.027999999999999997,-0.013000000000000001,-0.013000000000000001,-0.013000000000000001,-0.013000000000000001,-0.013000000000000001,0.001,-0.013000000000000001,0.001,0.001,0.001,0.001,0.015,0.001,0.001,0.001,0.001,0.015,0.015,0.015,0.03,0.03,0.03,0.03,0.03,0.044000000000000004,0.057999999999999996,0.057999999999999996,0.057999999999999996,0.057999999999999996,0.057999999999999996,0.057999999999999996,0.057999999999999996,0.044000000000000004,0.044000000000000004,0.057999999999999996,0.057999999999999996,0.057999999999999996,0.073,0.073,0.073,0.057999999999999996,0.073,0.057999999999999996,0.073,0.073,0.073,0.073,0.073,0.073,0.073,0.073,0.087,0.102,0.102,0.102,0.11599999999999999,0.11599999999999999,0.11599999999999999,0.11599999999999999,0.11599999999999999,0.11599999999999999,0.11599999999999999,0.11599999999999999,0.11599999999999999,0.102,0.102,0.102,0.102,0.087,0.073,0.073,0.073,0.057999999999999996,0.057999999999999996,0.044000000000000004,0.03,0.03,0.03,0.03,0.03,0.015,0.015,0.015,0.001,0.001,0.001,0.001,0.001,0.001,-0.013000000000000001,-0.013000000000000001,-0.027999999999999997,-0.027999999999999997,-0.027999999999999997,-0.027999999999999997,-0.027999999999999997,-0.027999999999999997,-0.027999999999999997,-0.027999999999999997,-0.027999999999999997,-0.027999999999999997,-0.027999999999999997,-0.013000000000000001,-0.013000000000000001,-0.013000000000000001,-0.013000000000000001,-0.013000000000000001,-0.013000000000000001,-0.013000000000000001,-0.013000000000000001,-0.013000000000000001,-0.013000000000000001,-0.013000000000000001,-0.013000000000000001,-0.013000000000000001,-0.013000000000000001,-0.013000000000000001,-0.013000000000000001,-0.013000000000000001,-0.013000000000000001,-0.013000000000000001,-0.013000000000000001,-0.013000000000000001,-0.013000000000000001,-0.013000000000000001,-0.013000000000000001,-0.013000000000000001,-0.013000000000000001,-0.013000000000000001,-0.013000000000000001,-0.013000000000000001,-0.013000000000000001,-0.013000000000000001,-0.027999999999999997,-0.013000000000000001,-0.013000000000000001,-0.013000000000000001,-0.013000000000000001,-0.013000000000000001,-0.027999999999999997,-0.027999999999999997,-0.027999999999999997,-0.027999999999999997,-0.027999999999999997,-0.027999999999999997,-0.027999999999999997,-0.013000000000000001,-0.027999999999999997,-0.013000000000000001,-0.027999999999999997,-0.027999999999999997,-0.027999999999999997,-0.027999999999999997,-0.042,-0.042,-0.042,-0.042,-0.042,-0.042,-0.027999999999999997,-0.027999999999999997,-0.013000000000000001,-0.013000000000000001,-0.013000000000000001,-0.013000000000000001,-0.013000000000000001,-0.013000000000000001,-0.013000000000000001,-0.013000000000000001,0.001,0.001,0.001,0.001,0.001,0.001,0.015,0.015,0.015,0.015,0.015,0.015,0.015,0.015,0.015,0.015,0.015,0.015,0.001,0.001,0.001,0.001,0.001,-0.027999999999999997,-0.013000000000000001,-0.027999999999999997,-0.027999999999999997,-0.042,-0.042,-0.055999999999999994,-0.055999999999999994,-0.071,-0.085,-0.1,-0.114,-0.114,-0.114,-0.129,-0.129,-0.14300000000000002,-0.14300000000000002,-0.129,-0.129,-0.114,-0.114,-0.114,-0.114,-0.114,-0.114,-0.114,-0.114,-0.114,-0.114,-0.114,-0.114,-0.114,-0.114,-0.114,-0.114,-0.1,-0.114,-0.114,-0.114,-0.1,-0.071,-0.055999999999999994,-0.013000000000000001,0.015,0.057999999999999996,0.102,0.159,0.245,0.332,0.43200000000000005,0.5329999999999999,0.619,0.6920000000000001,0.7490000000000001,0.778,0.778,0.7490000000000001,0.648,0.5329999999999999,0.40399999999999997,0.27399999999999997,0.159,0.044000000000000004,-0.027999999999999997,-0.114,-0.157,-0.18600000000000003,-0.215,-0.22899999999999998,-0.22899999999999998,-0.22899999999999998,-0.22899999999999998,-0.22899999999999998,-0.215,-0.201,-0.201,-0.18600000000000003,-0.172,-0.157,-0.14300000000000002,-0.14300000000000002,-0.129,-0.129,-0.129,-0.14300000000000002,-0.14300000000000002,-0.129,-0.129,-0.129,-0.129,-0.14300000000000002,-0.14300000000000002,-0.14300000000000002,-0.14300000000000002,-0.14300000000000002,-0.129,-0.14300000000000002,-0.14300000000000002,-0.129,-0.129,-0.129,-0.129,-0.129,-0.129,-0.129,-0.114,-0.129,-0.114,-0.114,-0.114,-0.114,-0.114,-0.114,-0.129,-0.129,-0.129,-0.129,-0.114,-0.114,-0.1,-0.1,-0.1,-0.1,-0.1,-0.1,-0.1,-0.085,-0.085,-0.085,-0.1,-0.085,-0.085,-0.071,-0.071,-0.071,-0.071,-0.071,-0.071,-0.071,-0.071,-0.055999999999999994,-0.055999999999999994,-0.055999999999999994,-0.055999999999999994,-0.055999999999999994,-0.055999999999999994,-0.055999999999999994,-0.055999999999999994,-0.042,-0.042,-0.027999999999999997,-0.027999999999999997,-0.027999999999999997,-0.027999999999999997,-0.027999999999999997,-0.027999999999999997,-0.013000000000000001,-0.013000000000000001,0.001,0.001,0.001,0.001,0.001,0.001,0.001,0.001,0.001,0.015,0.015,0.015,0.03,0.03,0.03,0.015,0.03,0.03,0.044000000000000004,0.03,0.03,0.03,0.03,0.03,0.044000000000000004,0.057999999999999996,0.057999999999999996,0.057999999999999996,0.073,0.073,0.073,0.073,0.073,0.073,0.073,0.087,0.087,0.102,0.102,0.102,0.102,0.102,0.102,0.102,0.102,0.11599999999999999,0.11599999999999999,0.102,0.11599999999999999,0.102,0.102,0.102,0.102,0.102,0.102,0.087,0.073,0.057999999999999996,0.057999999999999996,0.044000000000000004,0.03,0.03,0.03,0.03,0.03,0.015,0.015,0.015,0.001,0.001,0.001,-0.013000000000000001,-0.013000000000000001,-0.013000000000000001,-0.013000000000000001,-0.013000000000000001,-0.013000000000000001,-0.013000000000000001,-0.013000000000000001,-0.013000000000000001,-0.013000000000000001,-0.013000000000000001,-0.013000000000000001,-0.013000000000000001,-0.013000000000000001,-0.013000000000000001,-0.013000000000000001,-0.013000000000000001,-0.027999999999999997,-0.013000000000000001,-0.013000000000000001,-0.013000000000000001,-0.027999999999999997,-0.013000000000000001,-0.013000000000000001,-0.013000000000000001,-0.013000000000000001,-0.013000000000000001,-0.013000000000000001,-0.013000000000000001,-0.013000000000000001,-0.013000000000000001,-0.013000000000000001,-0.013000000000000001,-0.013000000000000001,-0.013000000000000001,-0.013000000000000001,-0.013000000000000001,-0.027999999999999997,-0.013000000000000001,-0.013000000000000001,-0.027999999999999997,-0.027999999999999997,-0.027999999999999997,-0.027999999999999997,-0.027999999999999997,-0.027999999999999997,-0.027999999999999997,-0.027999999999999997,-0.027999999999999997,-0.027999999999999997,-0.013000000000000001,-0.027999999999999997,-0.013000000000000001,-0.027999999999999997,-0.027999999999999997,-0.027999999999999997,-0.027999999999999997,-0.027999999999999997,-0.027999999999999997,-0.027999999999999997,-0.027999999999999997,-0.042,-0.042,-0.042,-0.042,-0.055999999999999994,-0.055999999999999994,-0.055999999999999994,-0.055999999999999994,-0.055999999999999994,-0.055999999999999994,-0.055999999999999994,-0.055999999999999994,-0.055999999999999994,-0.055999999999999994,-0.042,-0.027999999999999997,-0.027999999999999997,-0.013000000000000001,-0.013000000000000001,-0.013000000000000001,-0.013000000000000001,-0.027999999999999997,-0.027999999999999997,-0.027999999999999997,-0.027999999999999997,-0.027999999999999997,-0.013000000000000001,-0.013000000000000001,0.001,0.015,0.015,0.03,0.03,0.03,0.03,0.03,0.03,0.03,0.015,0.015,0.015,0.015,0.001,0.001,0.001,0.001,-0.013000000000000001,-0.013000000000000001,-0.013000000000000001,-0.027999999999999997,-0.027999999999999997,-0.027999999999999997,-0.042,-0.055999999999999994,-0.071,-0.071,-0.1,-0.114,-0.114,-0.129,-0.129,-0.129,-0.129,-0.129,-0.14300000000000002,-0.14300000000000002,-0.129,-0.129,-0.114,-0.114,-0.114,-0.114,-0.114,-0.114,-0.114,-0.114,-0.114,-0.114,-0.114,-0.129,-0.129,-0.129,-0.14300000000000002,-0.14300000000000002,-0.14300000000000002,-0.14300000000000002,-0.129,-0.1,-0.071,-0.027999999999999997,0.001,0.03,0.073,0.131,0.203,0.289,0.375,0.461,0.5479999999999999,0.619,0.6920000000000001,0.72,0.735,0.706,0.619,0.519,0.40399999999999997,0.289,0.174,0.073,0.001,-0.071,N
9,-0.129,-0.114,-0.114,-0.114,-0.114,-0.1,-0.1,-0.1,-0.114,-0.114,-0.1,-0.1,-0.1,-0.1,-0.1,-0.1,-0.1,-0.114,-0.1,-0.1,-0.1,-0.1,-0.1,-0.1,-0.1,-0.1,-0.1,-0.1,-0.1,-0.1,-0.1,-0.1,-0.1,-0.085,-0.085,-0.085,-0.071,-0.071,-0.071,-0.071,-0.071,-0.071,-0.071,-0.071,-0.071,-0.071,-0.071,-0.071,-0.071,-0.055999999999999994,-0.055999999999999994,-0.055999999999999994,-0.042,-0.055999999999999994,-0.042,-0.042,-0.055999999999999994,-0.042,-0.027999999999999997,-0.027999999999999997,-0.027999999999999997,-0.027999999999999997,-0.027999999999999997,-0.027999999999999997,-0.027999999999999997,-0.027999999999999997,-0.027999999999999997,-0.013000000000000001,-0.013000000000000001,-0.013000000000000001,-0.013000000000000001,-0.013000000000000001,0.001,-0.013000000000000001,0.001,0.001,0.001,0.001,0.015,0.001,0.001,0.001,0.001,0.015,0.015,0.015,0.03,0.03,0.03,0.03,0.03,0.044000000000000004,0.057999999999999996,0.057999999999999996,0.057999999999999996,0.057999999999999996,0.057999999999999996,0.057999999999999996,0.057999999999999996,0.044000000000000004,0.044000000000000004,0.057999999999999996,0.057999999999999996,0.057999999999999996,0.073,0.073,0.073,0.057999999999999996,0.073,0.057999999999999996,0.073,0.073,0.073,0.073,0.073,0.073,0.073,0.073,0.087,0.102,0.102,0.102,0.11599999999999999,0.11599999999999999,0.11599999999999999,0.11599999999999999,0.11599999999999999,0.11599999999999999,0.11599999999999999,0.11599999999999999,0.11599999999999999,0.102,0.102,0.102,0.102,0.087,0.073,0.073,0.073,0.057999999999999996,0.057999999999999996,0.044000000000000004,0.03,0.03,0.03,0.03,0.03,0.015,0.015,0.015,0.001,0.001,0.001,0.001,0.001,0.001,-0.013000000000000001,-0.013000000000000001,-0.027999999999999997,-0.027999999999999997,-0.027999999999999997,-0.027999999999999997,-0.027999999999999997,-0.027999999999999997,-0.027999999999999997,-0.027999999999999997,-0.027999999999999997,-0.027999999999999997,-0.027999999999999997,-0.013000000000000001,-0.013000000000000001,-0.013000000000000001,-0.013000000000000001,-0.013000000000000001,-0.013000000000000001,-0.013000000000000001,-0.013000000000000001,-0.013000000000000001,-0.013000000000000001,-0.013000000000000001,-0.013000000000000001,-0.013000000000000001,-0.013000000000000001,-0.013000000000000001,-0.013000000000000001,-0.013000000000000001,-0.013000000000000001,-0.013000000000000001,-0.013000000000000001,-0.013000000000000001,-0.013000000000000001,-0.013000000000000001,-0.013000000000000001,-0.013000000000000001,-0.013000000000000001,-0.013000000000000001,-0.013000000000000001,-0.013000000000000001,-0.013000000000000001,-0.013000000000000001,-0.027999999999999997,-0.013000000000000001,-0.013000000000000001,-0.013000000000000001,-0.013000000000000001,-0.013000000000000001,-0.027999999999999997,-0.027999999999999997,-0.027999999999999997,-0.027999999999999997,-0.027999999999999997,-0.027999999999999997,-0.027999999999999997,-0.013000000000000001,-0.027999999999999997,-0.013000000000000001,-0.027999999999999997,-0.027999999999999997,-0.027999999999999997,-0.027999999999999997,-0.042,-0.042,-0.042,-0.042,-0.042,-0.042,-0.027999999999999997,-0.027999999999999997,-0.013000000000000001,-0.013000000000000001,-0.013000000000000001,-0.013000000000000001,-0.013000000000000001,-0.013000000000000001,-0.013000000000000001,-0.013000000000000001,0.001,0.001,0.001,0.001,0.001,0.001,0.015,0.015,0.015,0.015,0.015,0.015,0.015,0.015,0.015,0.015,0.015,0.015,0.001,0.001,0.001,0.001,0.001,-0.027999999999999997,-0.013000000000000001,-0.027999999999999997,-0.027999999999999997,-0.042,-0.042,-0.055999999999999994,-0.055999999999999994,-0.071,-0.085,-0.1,-0.114,-0.114,-0.114,-0.129,-0.129,-0.14300000000000002,-0.14300000000000002,-0.129,-0.129,-0.114,-0.114,-0.114,-0.114,-0.114,-0.114,-0.114,-0.114,-0.114,-0.114,-0.114,-0.114,-0.114,-0.114,-0.114,-0.114,-0.1,-0.114,-0.114,-0.114,-0.1,-0.071,-0.055999999999999994,-0.013000000000000001,0.015,0.057999999999999996,0.102,0.159,0.245,0.332,0.43200000000000005,0.5329999999999999,0.619,0.6920000000000001,0.7490000000000001,0.778,0.778,0.7490000000000001,0.648,0.5329999999999999,0.40399999999999997,0.27399999999999997,0.159,0.044000000000000004,-0.027999999999999997,-0.114,-0.157,-0.18600000000000003,-0.215,-0.22899999999999998,-0.22899999999999998,-0.22899999999999998,-0.22899999999999998,-0.22899999999999998,-0.215,-0.201,-0.201,-0.18600000000000003,-0.172,-0.157,-0.14300000000000002,-0.14300000000000002,-0.129,-0.129,-0.129,-0.14300000000000002,-0.14300000000000002,-0.129,-0.129,-0.129,-0.129,-0.14300000000000002,-0.14300000000000002,-0.14300000000000002,-0.14300000000000002,-0.14300000000000002,-0.129,-0.14300000000000002,-0.14300000000000002,-0.129,-0.129,-0.129,-0.129,-0.129,-0.129,-0.129,-0.114,-0.129,-0.114,-0.114,-0.114,-0.114,-0.114,-0.114,-0.129,-0.129,-0.129,-0.129,-0.114,-0.114,-0.1,-0.1,-0.1,-0.1,-0.1,-0.1,-0.1,-0.085,-0.085,-0.085,-0.1,-0.085,-0.085,-0.071,-0.071,-0.071,-0.071,-0.071,-0.071,-0.071,-0.071,-0.055999999999999994,-0.055999999999999994,-0.055999999999999994,-0.055999999999999994,-0.055999999999999994,-0.055999999999999994,-0.055999999999999994,-0.055999999999999994,-0.042,-0.042,-0.027999999999999997,-0.027999999999999997,-0.027999999999999997,-0.027999999999999997,-0.027999999999999997,-0.027999999999999997,-0.013000000000000001,-0.013000000000000001,0.001,0.001,0.001,0.001,0.001,0.001,0.001,0.001,0.001,0.015,0.015,0.015,0.03,0.03,0.03,0.015,0.03,0.03,0.044000000000000004,0.03,0.03,0.03,0.03,0.03,0.044000000000000004,0.057999999999999996,0.057999999999999996,0.057999999999999996,0.073,0.073,0.073,0.073,0.073,0.073,0.073,0.087,0.087,0.102,0.102,0.102,0.102,0.102,0.102,0.102,0.102,0.11599999999999999,0.11599999999999999,0.102,0.11599999999999999,0.102,0.102,0.102,0.102,0.102,0.102,0.087,0.073,0.057999999999999996,0.057999999999999996,0.044000000000000004,0.03,0.03,0.03,0.03,0.03,0.015,0.015,0.015,0.001,0.001,0.001,-0.013000000000000001,-0.013000000000000001,-0.013000000000000001,-0.013000000000000001,-0.013000000000000001,-0.013000000000000001,-0.013000000000000001,-0.013000000000000001,-0.013000000000000001,-0.013000000000000001,-0.013000000000000001,-0.013000000000000001,-0.013000000000000001,-0.013000000000000001,-0.013000000000000001,-0.013000000000000001,-0.013000000000000001,-0.027999999999999997,-0.013000000000000001,-0.013000000000000001,-0.013000000000000001,-0.027999999999999997,-0.013000000000000001,-0.013000000000000001,-0.013000000000000001,-0.013000000000000001,-0.013000000000000001,-0.013000000000000001,-0.013000000000000001,-0.013000000000000001,-0.013000000000000001,-0.013000000000000001,-0.013000000000000001,-0.013000000000000001,-0.013000000000000001,-0.013000000000000001,-0.013000000000000001,-0.027999999999999997,-0.013000000000000001,-0.013000000000000001,-0.027999999999999997,-0.027999999999999997,-0.027999999999999997,-0.027999999999999997,-0.027999999999999997,-0.027999999999999997,-0.027999999999999997,-0.027999999999999997,-0.027999999999999997,-0.027999999999999997,-0.013000000000000001,-0.027999999999999997,-0.013000000000000001,-0.027999999999999997,-0.027999999999999997,-0.027999999999999997,-0.027999999999999997,-0.027999999999999997,-0.027999999999999997,-0.027999999999999997,-0.027999999999999997,-0.042,-0.042,-0.042,-0.042,-0.055999999999999994,-0.055999999999999994,-0.055999999999999994,-0.055999999999999994,-0.055999999999999994,-0.055999999999999994,-0.055999999999999994,-0.055999999999999994,-0.055999999999999994,-0.055999999999999994,-0.042,-0.027999999999999997,-0.027999999999999997,-0.013000000000000001,-0.013000000000000001,-0.013000000000000001,-0.013000000000000001,-0.027999999999999997,-0.027999999999999997,-0.027999999999999997,-0.027999999999999997,-0.027999999999999997,-0.013000000000000001,-0.013000000000000001,0.001,0.015,0.015,0.03,0.03,0.03,0.03,0.03,0.03,0.03,0.015,0.015,0.015,0.015,0.001,0.001,0.001,0.001,-0.013000000000000001,-0.013000000000000001,-0.013000000000000001,-0.027999999999999997,-0.027999999999999997,-0.027999999999999997,-0.042,-0.055999999999999994,-0.071,-0.071,-0.1,-0.114,-0.114,-0.129,-0.129,-0.129,-0.129,-0.129,-0.14300000000000002,-0.14300000000000002,-0.129,-0.129,-0.114,-0.114,-0.114,-0.114,-0.114,-0.114,-0.114,-0.114,-0.114,-0.114,-0.114,-0.129,-0.129,-0.129,-0.14300000000000002,-0.14300000000000002,-0.14300000000000002,-0.14300000000000002,-0.129,-0.1,-0.071,-0.027999999999999997,0.001,0.03,0.073,0.131,0.203,0.289,0.375,0.461,0.5479999999999999,0.619,0.6920000000000001,0.72,0.735,0.706,0.619,0.519,0.40399999999999997,0.289,0.174,0.073,0.001,-0.071,-0.14300000000000002,-0.172,-0.18600000000000003,-0.201,-0.22899999999999998,-0.22899999999999998,-0.22899999999999998,-0.201,-0.201,-0.18600000000000003,-0.172,-0.172,-0.157,-0.157,-0.157,-0.157,-0.14300000000000002,-0.14300000000000002,-0.14300000000000002,-0.129,-0.129,-0.114,-0.129,-0.129,-0.129,-0.129,-0.14300000000000002,-0.14300000000000002,-0.14300000000000002,-0.14300000000000002,-0.14300000000000002,-0.129,-0.129,-0.114,-0.114,-0.114,-0.129,-0.129,-0.129,-0.129,-0.129,-0.114,-0.129,-0.14300000000000002,-0.129,-0.114,-0.114,-0.114,-0.114,-0.114,-0.114,-0.129,-0.114,-0.114,-0.114,-0.114,-0.114,-0.1,-0.1,-0.1,-0.1,-0.1,-0.1,-0.1,-0.1,-0.085,-0.085,-0.085,-0.085,-0.085,-0.071,-0.071,-0.055999999999999994,-0.055999999999999994,-0.055999999999999994,-0.042,-0.055999999999999994,-0.042,-0.055999999999999994,-0.055999999999999994,-0.042,-0.042,-0.027999999999999997,-0.027999999999999997,-0.027999999999999997,-0.027999999999999997,-0.027999999999999997,-0.027999999999999997,-0.027999999999999997,-0.013000000000000001,-0.013000000000000001,-0.013000000000000001,0.001,0.001,-0.013000000000000001,-0.013000000000000001,-0.013000000000000001,0.001,0.001,0.015,0.03,0.03,0.03,0.03,0.044000000000000004,0.03,0.044000000000000004,0.03,0.03,0.03,0.03,0.03,0.03,0.03,0.03,0.03,0.057999999999999996,0.057999999999999996,0.057999999999999996,0.057999999999999996,0.057999999999999996,0.057999999999999996,0.057999999999999996,0.057999999999999996,0.057999999999999996,0.073,0.073,0.073,0.073,0.073,0.073,0.087,0.102,0.102,0.102,0.11599999999999999,0.102,0.11599999999999999,0.11599999999999999,0.11599999999999999,0.102,0.102,0.102,0.087,0.087,0.087,0.087,0.073,0.073,0.073,0.073,0.057999999999999996,0.057999999999999996,0.057999999999999996,0.044000000000000004,0.03,0.015,0.015,0.001,0.001,0.001,0.001,0.001,0.001,0.001,0.001,0.001,0.001,0.001,0.001,-0.013000000000000001,-0.013000000000000001,-0.013000000000000001,-0.027999999999999997,-0.013000000000000001,-0.013000000000000001,-0.013000000000000001,-0.013000000000000001,-0.013000000000000001,-0.027999999999999997,-0.027999999999999997,-0.027999999999999997,-0.027999999999999997,-0.027999999999999997,-0.013000000000000001,-0.027999999999999997,-0.027999999999999997,-0.027999999999999997,-0.013000000000000001,-0.013000000000000001,-0.013000000000000001,-0.013000000000000001,0.001,-0.013000000000000001,0.001,0.001,0.001,0.001,0.001,0.001,-0.013000000000000001,-0.013000000000000001,-0.013000000000000001,-0.013000000000000001,-0.013000000000000001,-0.013000000000000001,-0.013000000000000001,-0.013000000000000001,-0.013000000000000001,-0.013000000000000001,-0.013000000000000001,-0.013000000000000001,-0.013000000000000001,-0.027999999999999997,-0.013000000000000001,-0.027999999999999997,-0.027999999999999997,-0.027999999999999997,-0.027999999999999997,-0.027999999999999997,-0.027999999999999997,-0.027999999999999997,-0.042,-0.027999999999999997,-0.042,-0.042,-0.042,-0.042,-0.027999999999999997,-0.027999999999999997,-0.027999999999999997,-0.027999999999999997,-0.027999999999999997,-0.027999999999999997,-0.027999999999999997,-0.027999999999999997,-0.027999999999999997,-0.027999999999999997,-0.027999999999999997,-0.027999999999999997,-0.027999999999999997,-0.027999999999999997,-0.027999999999999997,-0.027999999999999997,-0.027999999999999997,-0.027999999999999997,-0.027999999999999997,-0.027999999999999997,-0.027999999999999997,-0.013000000000000001,-0.013000000000000001,-0.013000000000000001,0.001,0.001,0.015,0.015,0.03,0.03,0.03,0.03,0.03,0.015,0.015,0.015,0.001,0.001,0.001,0.001,0.015,0.015,0.001,0.001,0.001,0.001,-0.013000000000000001,-0.013000000000000001,-0.027999999999999997,-0.042,-0.055999999999999994,-0.071,-0.085,-0.085,-0.1,-0.1,-0.114,-0.114,-0.114,-0.114,-0.114,-0.129,-0.114,-0.129,-0.114,-0.129,-0.129,-0.129,-0.114,-0.114,-0.114,-0.114,-0.114,-0.114,-0.114,-0.114,-0.114,-0.114,-0.129,-0.129,-0.129,-0.114,-0.114,-0.1,-0.085,-0.055999999999999994,-0.013000000000000001,0.015,0.044000000000000004,0.073,0.131,0.203,0.27399999999999997,0.361,0.447,0.5329999999999999,0.606,0.6629999999999999,0.6920000000000001,0.706,0.6920000000000001,0.619,0.519,0.40399999999999997,0.303,0.188,0.073,-0.013000000000000001,-0.085,-0.129,N
