0,0.426,0.413,0.40700000000000003,0.4,0.39399999999999996,0.39399999999999996,0.39399999999999996,0.39399999999999996,0.38799999999999996,0.375,0.36200000000000004,0.35600000000000004,0.34299999999999997,0.33,0.33,0.317,0.298,0.285,0.27899999999999997,0.259,0.253,0.253,0.247,0.23399999999999999,0.221,0.20199999999999999,0.20199999999999999,0.20199999999999999,0.20199999999999999,0.221,0.22699999999999998,0.23399999999999999,0.247,0.23399999999999999,0.23399999999999999,0.247,0.247,0.253,0.259,0.266,0.27899999999999997,0.285,0.285,0.285,0.27899999999999997,0.285,0.292,0.298,0.298,0.292,0.292,0.292,0.285,0.292,0.292,0.292,0.298,0.298,0.298,0.292,0.292,0.285,0.292,0.292,0.298,0.298,0.292,0.292,0.292,0.292,0.292,0.292,0.292,0.298,0.292,0.285,0.285,0.285,0.285,0.285,0.292,0.292,0.298,0.298,0.298,0.292,0.292,0.298,0.311,0.317,0.317,0.317,0.32299999999999995,0.32299999999999995,0.33,0.34299999999999997,0.35600000000000004,0.36200000000000004,0.375,0.375,0.381,0.38799999999999996,0.38799999999999996,0.39399999999999996,0.39399999999999996,0.40700000000000003,0.426,0.43200000000000005,0.43200000000000005,0.439,0.439,0.445,0.445,0.45799999999999996,0.45799999999999996,0.47100000000000003,0.47100000000000003,0.47100000000000003,0.47100000000000003,0.47100000000000003,0.47100000000000003,0.47700000000000004,0.47700000000000004,0.47700000000000004,0.49,0.47700000000000004,0.47700000000000004,0.47700000000000004,0.47100000000000003,0.47700000000000004,0.47100000000000003,0.47100000000000003,0.47100000000000003,0.46399999999999997,0.47100000000000003,0.46399999999999997,0.45799999999999996,0.45799999999999996,0.46399999999999997,0.45799999999999996,0.45799999999999996,0.45799999999999996,0.445,0.439,0.439,0.439,0.439,0.445,0.445,0.445,0.439,0.439,0.43200000000000005,0.43200000000000005,0.426,0.426,0.426,0.43200000000000005,0.43200000000000005,0.426,0.413,0.413,0.426,0.426,0.426,0.43200000000000005,0.426,0.426,0.426,0.426,0.426,0.413,0.426,0.426,0.413,0.413,0.413,0.40700000000000003,0.40700000000000003,0.413,0.426,0.43200000000000005,0.426,0.43200000000000005,0.426,0.426,0.413,0.413,0.40700000000000003,0.40700000000000003,0.4,0.39399999999999996,0.39399999999999996,0.381,0.375,0.375,0.375,0.375,0.375,0.375,0.375,0.375,0.375,0.375,0.375,0.375,0.381,0.381,0.375,0.381,0.375,0.375,0.375,0.381,0.381,0.381,0.381,0.381,0.375,0.381,0.381,0.381,0.381,0.38799999999999996,0.381,0.381,0.375,0.381,0.375,0.381,0.381,0.381,0.381,0.38799999999999996,0.381,0.381,0.381,0.381,0.381,0.38799999999999996,0.38799999999999996,0.38799999999999996,0.38799999999999996,0.38799999999999996,0.381,0.381,0.381,0.38799999999999996,0.38799999999999996,0.39399999999999996,0.39399999999999996,0.4,0.40700000000000003,0.426,0.445,0.47100000000000003,0.49,0.509,0.535,0.5539999999999999,0.56,0.573,0.586,0.605,0.624,0.637,0.65,0.65,0.65,0.65,0.6559999999999999,0.6629999999999999,0.6559999999999999,0.6559999999999999,0.65,0.631,0.599,0.573,0.5539999999999999,0.535,0.522,0.509,0.496,0.47700000000000004,0.47100000000000003,0.45799999999999996,0.445,0.445,0.445,0.445,0.445,0.445,0.439,0.43200000000000005,0.413,0.413,0.40700000000000003,0.40700000000000003,0.40700000000000003,0.4,0.38799999999999996,0.381,0.375,0.35600000000000004,0.349,0.34299999999999997,0.33,0.317,0.298,0.285,0.266,0.259,0.253,0.247,0.247,0.22699999999999998,0.221,0.215,0.215,0.215,0.221,0.22699999999999998,0.23399999999999999,0.247,0.247,0.247,0.247,0.247,0.253,0.259,0.259,0.27899999999999997,0.285,0.285,0.285,0.285,0.285,0.292,0.292,0.292,0.292,0.298,0.292,0.292,0.285,0.285,0.292,0.292,0.292,0.292,0.292,0.292,0.292,0.292,0.292,0.298,0.298,0.298,0.292,0.292,0.285,0.285,0.285,0.292,0.292,0.292,0.292,0.292,0.285,0.292,0.285,0.292,0.292,0.298,0.292,0.298,0.298,0.298,0.311,0.317,0.317,0.317,0.32299999999999995,0.33,0.33,0.34299999999999997,0.33,0.349,0.35600000000000004,0.375,0.375,0.381,0.381,0.38799999999999996,0.39399999999999996,0.4,0.4,0.413,0.43200000000000005,0.439,0.439,0.439,0.445,0.45799999999999996,0.46399999999999997,0.47100000000000003,0.47100000000000003,0.47700000000000004,0.47700000000000004,0.47100000000000003,0.47100000000000003,0.47700000000000004,0.47700000000000004,0.47700000000000004,0.47700000000000004,0.47700000000000004,0.47700000000000004,0.47100000000000003,0.47100000000000003,0.47100000000000003,0.46399999999999997,0.47100000000000003,0.47100000000000003,0.47100000000000003,0.46399999999999997,0.46399999999999997,0.45799999999999996,0.445,0.445,0.445,0.445,0.445,0.445,0.439,0.439,0.43200000000000005,0.43200000000000005,0.439,0.439,0.439,0.439,0.439,0.426,0.426,0.426,0.426,0.426,0.426,0.426,0.426,0.426,0.413,0.413,0.413,0.426,0.426,0.43200000000000005,0.426,0.426,0.426,0.426,0.413,0.413,0.413,0.426,0.426,0.413,0.413,0.40700000000000003,0.40700000000000003,0.413,N,,,,,,,,,,,,,,,,,,,,,,,,,,,,,,,,,,,,,,,,,,,,,,,,,,,,,,,,,,,,,,,,,,,,,,,,,,,,,,,,,,,,,,,,,,,,,,,,,,,,,,,,,,,,,,,,,,,,,,,,,,,,,,,,,,,,,,,,,,,,,,,,,,,,,,,,,,,,,,,,,,,,,,,,,,,,,,,,,,,,,,,,,,,,,,,,,,,,,,,,,,,,,,,,,,,,,,,,,,,,,,,,,,,,,,,,,,,,,,,,,,,,,,,,,,,,,,,,,,,,,,,,,,,,,,,,,,,,,,,,,,,,,,,,,,,,,,,,,,,,,,,,,,,,,,,,,,,,,,,,,,,,,,,,,,,,,,,,,,,,,,,,,,,,,,,,,,,,,,,,,,,,,,,,,,,,,,,,,,,,,,,,,,,,,,,,,,,,,,,,,,,,,,,,,,,,,,,,,,,,,,,,,,,,,,,,,,,,,,,,,,,,,,,,,,,,,,,,,,,,,,,,,,,,,,,,,,,,,,,,,,,,,,,,,,,,,,,,,,,,,,,,,,,,,,,,,,,,,,,,,,,,,,,,,
1,0.38799999999999996,0.39399999999999996,0.39399999999999996,0.38799999999999996,0.38799999999999996,0.375,0.375,0.36200000000000004,0.36200000000000004,0.35600000000000004,0.349,0.349,0.34299999999999997,0.32299999999999995,0.311,0.292,0.285,0.266,0.259,0.259,0.253,0.23399999999999999,0.22699999999999998,0.221,0.20199999999999999,0.20199999999999999,0.196,0.20199999999999999,0.215,0.221,0.221,0.22699999999999998,0.22699999999999998,0.22699999999999998,0.23399999999999999,0.247,0.253,0.253,0.253,0.247,0.253,0.259,0.27899999999999997,0.285,0.292,0.292,0.285,0.285,0.27899999999999997,0.27899999999999997,0.27899999999999997,0.285,0.292,0.292,0.292,0.285,0.285,0.27899999999999997,0.27899999999999997,0.285,0.285,0.292,0.285,0.285,0.285,0.27899999999999997,0.285,0.285,0.285,0.292,0.285,0.285,0.285,0.27899999999999997,0.27899999999999997,0.27899999999999997,0.27899999999999997,0.285,0.285,0.285,0.285,0.27899999999999997,0.285,0.285,0.285,0.292,0.292,0.298,0.298,0.298,0.298,0.311,0.317,0.317,0.32299999999999995,0.33,0.34299999999999997,0.34299999999999997,0.34299999999999997,0.349,0.349,0.36200000000000004,0.381,0.381,0.38799999999999996,0.39399999999999996,0.39399999999999996,0.39399999999999996,0.40700000000000003,0.413,0.413,0.43200000000000005,0.439,0.439,0.439,0.439,0.445,0.45799999999999996,0.45799999999999996,0.46399999999999997,0.46399999999999997,0.46399999999999997,0.46399999999999997,0.46399999999999997,0.46399999999999997,0.46399999999999997,0.46399999999999997,0.46399999999999997,0.46399999999999997,0.46399999999999997,0.45799999999999996,0.445,0.445,0.439,0.45799999999999996,0.45799999999999996,0.45799999999999996,0.439,0.439,0.439,0.426,0.426,0.426,0.426,0.43200000000000005,0.43200000000000005,0.426,0.413,0.413,0.413,0.413,0.413,0.413,0.426,0.426,0.426,0.40700000000000003,0.40700000000000003,0.40700000000000003,0.413,0.413,0.413,0.40700000000000003,0.413,0.40700000000000003,0.40700000000000003,0.413,0.413,0.413,0.426,0.413,0.413,0.40700000000000003,0.40700000000000003,0.40700000000000003,0.40700000000000003,0.40700000000000003,0.413,0.413,0.413,0.40700000000000003,0.40700000000000003,0.40700000000000003,0.40700000000000003,0.40700000000000003,0.40700000000000003,0.426,0.413,0.413,0.413,0.413,0.413,0.413,0.413,0.413,0.40700000000000003,0.4,0.39399999999999996,0.38799999999999996,0.381,0.381,0.375,0.375,0.375,0.375,0.375,0.375,0.375,0.375,0.375,0.381,0.381,0.381,0.375,0.375,0.375,0.36200000000000004,0.36200000000000004,0.375,0.381,0.375,0.381,0.375,0.375,0.36200000000000004,0.375,0.375,0.375,0.381,0.381,0.375,0.375,0.375,0.375,0.375,0.381,0.375,0.381,0.375,0.375,0.375,0.36200000000000004,0.375,0.381,0.381,0.381,0.375,0.381,0.381,0.375,0.381,0.381,0.381,0.38799999999999996,0.38799999999999996,0.381,0.38799999999999996,0.39399999999999996,0.40700000000000003,0.426,0.439,0.46399999999999997,0.49,0.503,0.522,0.535,0.56,0.573,0.586,0.599,0.624,0.631,0.637,0.65,0.65,0.6559999999999999,0.6559999999999999,0.6629999999999999,0.6559999999999999,0.65,0.637,0.624,0.599,0.573,0.5539999999999999,0.535,0.522,0.503,0.47700000000000004,0.47100000000000003,0.45799999999999996,0.445,0.439,0.439,0.439,0.439,0.439,0.43200000000000005,0.426,0.413,0.413,0.40700000000000003,0.40700000000000003,0.40700000000000003,0.4,0.4,0.38799999999999996,0.381,0.375,0.36200000000000004,0.35600000000000004,0.34299999999999997,0.33,0.317,0.298,0.285,0.27899999999999997,0.27899999999999997,0.266,0.259,0.253,0.23399999999999999,0.22699999999999998,0.221,0.22699999999999998,0.22699999999999998,0.22699999999999998,0.247,0.253,0.253,0.253,0.247,0.253,0.259,0.259,0.266,0.27899999999999997,0.285,0.292,0.292,0.292,0.298,0.298,0.311,0.298,0.298,0.298,0.292,0.292,0.292,0.292,0.311,0.311,0.298,0.298,0.298,0.298,0.298,0.298,0.298,0.317,0.311,0.298,0.298,0.298,0.298,0.298,0.298,0.298,0.311,0.311,0.298,0.292,0.298,0.298,0.311,0.311,0.311,0.298,0.311,0.311,0.298,0.298,0.311,0.311,0.317,0.32299999999999995,0.32299999999999995,0.33,0.33,0.34299999999999997,0.34299999999999997,0.349,0.36200000000000004,0.375,0.375,0.381,0.381,0.38799999999999996,0.39399999999999996,0.4,0.40700000000000003,0.426,0.43200000000000005,0.439,0.439,0.439,0.445,0.45799999999999996,0.46399999999999997,0.46399999999999997,0.47100000000000003,0.47100000000000003,0.47700000000000004,0.47100000000000003,0.47100000000000003,0.47700000000000004,0.47700000000000004,0.49,0.49,0.47700000000000004,0.49,0.49,0.49,0.47700000000000004,0.47700000000000004,0.47700000000000004,0.47700000000000004,0.47700000000000004,0.47100000000000003,0.47100000000000003,0.46399999999999997,0.46399999999999997,0.46399999999999997,0.46399999999999997,0.46399999999999997,0.46399999999999997,0.46399999999999997,0.45799999999999996,0.445,0.445,0.445,0.445,0.445,0.45799999999999996,0.45799999999999996,0.445,0.445,0.439,0.439,0.439,0.439,0.439,0.439,0.439,0.439,0.43200000000000005,0.43200000000000005,0.43200000000000005,0.43200000000000005,0.439,0.439,0.439,0.439,0.43200000000000005,0.43200000000000005,0.426,0.43200000000000005,0.43200000000000005,0.43200000000000005,0.43200000000000005,0.426,0.426,0.413,0.426,0.426,0.426,0.43200000000000005,0.439,0.439,0.43200000000000005,0.426,0.426,0.426,0.426,0.413,0.40700000000000003,0.4,0.4,0.39399999999999996,0.381,0.375,0.381,0.381,0.381,0.381,0.381,0.381,0.375,0.375,0.375,0.381,0.381,0.381,0.381,0.381,0.381,0.375,0.381,0.381,0.38799999999999996,0.38799999999999996,0.38799999999999996,0.38799999999999996,0.381,0.381,0.381,0.381,0.38799999999999996,0.38799999999999996,0.38799999999999996,0.381,0.381,0.375,0.381,0.381,0.381,0.38799999999999996,0.381,0.38799999999999996,0.38799999999999996,0.381,0.381,0.381,0.381,0.38799999999999996,0.38799999999999996,0.38799999999999996,0.38799999999999996,0.38799999999999996,0.381,0.38799999999999996,0.38799999999999996,0.39399999999999996,0.38799999999999996,0.39399999999999996,0.39399999999999996,0.39399999999999996,0.4,0.40700000000000003,0.426,0.445,0.47100000000000003,0.49,0.509,0.528,0.541,0.56,0.573,0.586,0.599,0.624,0.637,0.65,0.6559999999999999,0.65,0.6559999999999999,0.6629999999999999,0.6629999999999999,0.6629999999999999,0.6559999999999999,0.65,0.624,0.605,0.586,0.5539999999999999,0.535,0.522,0.503,0.49,0.47100000000000003,0.46399999999999997,0.445,0.445,0.445,0.439,0.445,0.439,0.439,0.43200000000000005,0.413,0.413,0.413,0.413,0.40700000000000003,0.40700000000000003,0.39399999999999996,0.38799999999999996,0.375,0.36200000000000004,0.349,0.349,0.34299999999999997,0.32299999999999995,0.311,0.292,0.266,0.259,0.253,0.253,0.247,0.247,0.22699999999999998,0.221,0.215,0.215,0.221,0.221,0.23399999999999999,0.23399999999999999,0.247,0.247,0.247,0.247,0.253,0.259,0.259,0.266,0.27899999999999997,0.285,0.292,0.292,0.292,0.292,0.298,0.298,0.292,0.292,0.292,0.292,0.285,0.292,0.298,0.298,0.311,0.298,0.298,0.298,0.292,0.292,0.298,0.298,0.311,0.311,0.298,0.298,0.292,0.298,0.298,0.298,0.311,0.311,0.298,0.298,0.298,0.292,0.292,0.298,0.298,0.311,0.311,0.311,0.311,0.311,0.311,0.317,0.317,0.32299999999999995,0.33,0.33,0.33,0.33,0.34299999999999997,0.349,0.35600000000000004,0.36200000000000004,0.375,0.381,0.381,0.38799999999999996,0.39399999999999996,0.4,0.40700000000000003,0.413,0.439,0.43200000000000005,0.439,0.439,0.445,0.45799999999999996,0.46399999999999997,0.46399999999999997,0.47100000000000003,0.47700000000000004,0.47700000000000004,0.49,0.47700000000000004,0.47700000000000004,0.49,0.49,0.496,0.496,0.496,0.496,0.49,0.47700000000000004,0.47700000000000004,0.49,0.496,0.496,0.49,0.47700000000000004,0.47100000000000003,0.47100000000000003,0.47100000000000003,0.47100000000000003,0.47100000000000003,0.47100000000000003,0.47100000000000003,0.46399999999999997,0.46399999999999997,0.45799999999999996,0.45799999999999996,0.46399999999999997,0.46399999999999997,0.46399999999999997,0.46399999999999997,0.46399999999999997,0.46399999999999997,0.45799999999999996,0.445,0.445,0.45799999999999996,0.45799999999999996,0.45799999999999996,0.45799999999999996,0.45799999999999996,0.45799999999999996,0.445,0.439,0.445,0.45799999999999996,0.46399999999999997,0.45799999999999996,0.45799999999999996,0.45799999999999996,0.445,0.445,0.439,0.439,0.445,0.445,0.439,0.439,0.439,0.439,0.439,0.445,0.445,0.45799999999999996,0.45799999999999996,0.45799999999999996,0.45799999999999996,0.445,0.445,0.45799999999999996,0.45799999999999996,0.445,0.439,0.426,0.413,0.40700000000000003,0.4,0.39399999999999996,0.39399999999999996,0.39399999999999996,0.39399999999999996,0.38799999999999996,0.38799999999999996,0.38799999999999996,0.38799999999999996,0.39399999999999996,0.39399999999999996,0.39399999999999996,0.4,0.39399999999999996,0.39399999999999996,0.39399999999999996,0.39399999999999996,0.39399999999999996,0.39399999999999996,0.39399999999999996,0.4,0.39399999999999996,0.39399999999999996,0.39399999999999996,0.38799999999999996,0.39399999999999996,0.38799999999999996,0.39399999999999996,0.4,0.39399999999999996,0.39399999999999996,0.39399999999999996,0.38799999999999996,0.38799999999999996,0.38799999999999996,0.38799999999999996,0.39399999999999996,0.39399999999999996,0.39399999999999996,0.39399999999999996,0.38799999999999996,0.38799999999999996,0.38799999999999996,0.39399999999999996,0.39399999999999996,0.39399999999999996,0.39399999999999996,0.38799999999999996,0.38799999999999996,0.38799999999999996,0.38799999999999996,0.38799999999999996,0.39399999999999996,0.39399999999999996,0.39399999999999996,0.38799999999999996,0.38799999999999996,0.39399999999999996,0.40700000000000003,0.413,0.426,0.439,0.46399999999999997,0.47100000000000003,0.496,0.522,0.535,0.56,0.573,0.5920000000000001,0.599,0.605,0.624,0.624,0.624,0.624,0.631,0.631,0.631,0.631,0.624,0.605,0.5920000000000001,0.573,0.5539999999999999,0.528,0.509,0.496,0.47100000000000003,0.45799999999999996,0.445,0.439,0.426,0.413,0.40700000000000003,0.40700000000000003,0.40700000000000003,0.413,0.40700000000000003,0.4,0.39399999999999996,0.39399999999999996,0.39399999999999996,0.38799999999999996,0.39399999999999996,0.39399999999999996,0.38799999999999996,0.381,0.36200000000000004,0.35600000000000004,0.35600000000000004,0.349,0.33,0.311,0.311,0.292,0.285,0.259,0.266,0.259,0.253,0.247,0.22699999999999998,0.215,0.215,0.20199999999999999,0.215,0.20199999999999999,0.221,0.23399999999999999,0.23399999999999999,0.23399999999999999,0.23399999999999999,0.247,0.259,0.259,0.266,0.27899999999999997,0.27899999999999997,0.285,0.292,0.292,0.298,0.298,0.298,0.311,0.298,0.298,0.298,0.292,0.292,0.292,0.298,0.311,0.317,0.298,0.298,0.298,0.298,0.298,0.311,0.311,0.317,0.311,0.298,0.298,0.311,0.298,0.298,0.311,0.311,0.311,0.311,0.298,0.298,0.298,0.298,0.311,0.311,0.311,0.311,0.311,0.311,0.311,0.311,0.317,0.32299999999999995,0.32299999999999995,0.33,0.33,0.34299999999999997,0.349,0.349,0.349,0.375,0.375,0.381,0.381,0.39399999999999996,0.39399999999999996,0.4,0.40700000000000003,0.40700000000000003,0.43200000000000005,0.439,0.439,0.439,0.439,0.445,0.45799999999999996,0.46399999999999997,0.47100000000000003,0.47700000000000004,0.49,0.47700000000000004,0.47700000000000004,0.47100000000000003,0.47700000000000004,N
2,0.426,0.413,0.413,0.40700000000000003,0.40700000000000003,0.40700000000000003,0.4,0.4,0.38799999999999996,0.381,0.375,0.36200000000000004,0.35600000000000004,0.34299999999999997,0.33,0.317,0.298,0.285,0.27899999999999997,0.27899999999999997,0.266,0.259,0.253,0.23399999999999999,0.22699999999999998,0.221,0.22699999999999998,0.22699999999999998,0.22699999999999998,0.247,0.253,0.253,0.253,0.247,0.253,0.259,0.259,0.266,0.27899999999999997,0.285,0.292,0.292,0.292,0.298,0.298,0.311,0.298,0.298,0.298,0.292,0.292,0.292,0.292,0.311,0.311,0.298,0.298,0.298,0.298,0.298,0.298,0.298,0.317,0.311,0.298,0.298,0.298,0.298,0.298,0.298,0.298,0.311,0.311,0.298,0.292,0.298,0.298,0.311,0.311,0.311,0.298,0.311,0.311,0.298,0.298,0.311,0.311,0.317,0.32299999999999995,0.32299999999999995,0.33,0.33,0.34299999999999997,0.34299999999999997,0.349,0.36200000000000004,0.375,0.375,0.381,0.381,0.38799999999999996,0.39399999999999996,0.4,0.40700000000000003,0.426,0.43200000000000005,0.439,0.439,0.439,0.445,0.45799999999999996,0.46399999999999997,0.46399999999999997,0.47100000000000003,0.47100000000000003,0.47700000000000004,0.47100000000000003,0.47100000000000003,0.47700000000000004,0.47700000000000004,0.49,0.49,0.47700000000000004,0.49,0.49,0.49,0.47700000000000004,0.47700000000000004,0.47700000000000004,0.47700000000000004,0.47700000000000004,0.47100000000000003,0.47100000000000003,0.46399999999999997,0.46399999999999997,0.46399999999999997,0.46399999999999997,0.46399999999999997,0.46399999999999997,0.46399999999999997,0.45799999999999996,0.445,0.445,0.445,0.445,0.445,0.45799999999999996,0.45799999999999996,0.445,0.445,0.439,0.439,0.439,0.439,0.439,0.439,0.439,0.439,0.43200000000000005,0.43200000000000005,0.43200000000000005,0.43200000000000005,0.439,0.439,0.439,0.439,0.43200000000000005,0.43200000000000005,0.426,0.43200000000000005,0.43200000000000005,0.43200000000000005,0.43200000000000005,0.426,0.426,0.413,0.426,0.426,0.426,0.43200000000000005,0.439,0.439,0.43200000000000005,0.426,0.426,0.426,0.426,0.413,0.40700000000000003,0.4,0.4,0.39399999999999996,0.381,0.375,0.381,0.381,0.381,0.381,0.381,0.381,0.375,0.375,0.375,0.381,0.381,0.381,0.381,0.381,0.381,0.375,0.381,0.381,0.38799999999999996,0.38799999999999996,0.38799999999999996,0.38799999999999996,0.381,0.381,0.381,0.381,0.38799999999999996,0.38799999999999996,0.38799999999999996,0.381,0.381,0.375,0.381,0.381,0.381,0.38799999999999996,0.381,0.38799999999999996,0.38799999999999996,0.381,0.381,0.381,0.381,0.38799999999999996,0.38799999999999996,0.38799999999999996,0.38799999999999996,0.38799999999999996,0.381,0.38799999999999996,0.38799999999999996,0.39399999999999996,0.38799999999999996,0.39399999999999996,0.39399999999999996,0.39399999999999996,0.4,0.40700000000000003,0.426,0.445,0.47100000000000003,0.49,0.509,0.528,0.541,0.56,0.573,0.586,0.599,0.624,0.637,0.65,0.6559999999999999,0.65,0.6559999999999999,0.6629999999999999,0.6629999999999999,0.6629999999999999,0.6559999999999999,0.65,0.624,0.605,0.586,0.5539999999999999,0.535,0.522,0.503,0.49,0.47100000000000003,0.46399999999999997,0.445,0.445,0.445,0.439,0.445,0.439,0.439,0.43200000000000005,0.413,0.413,0.413,0.413,0.40700000000000003,0.40700000000000003,0.39399999999999996,0.38799999999999996,0.375,0.36200000000000004,0.349,0.349,0.34299999999999997,0.32299999999999995,0.311,0.292,0.266,0.259,0.253,0.253,0.247,0.247,0.22699999999999998,0.221,0.215,0.215,0.221,0.221,0.23399999999999999,0.23399999999999999,0.247,0.247,0.247,0.247,0.253,0.259,0.259,0.266,0.27899999999999997,0.285,0.292,0.292,0.292,0.292,0.298,0.298,0.292,0.292,0.292,0.292,0.285,0.292,0.298,0.298,0.311,0.298,0.298,0.298,0.292,0.292,0.298,0.298,0.311,0.311,0.298,0.298,0.292,0.298,0.298,0.298,0.311,0.311,0.298,0.298,0.298,0.292,0.292,0.298,0.298,0.311,0.311,0.311,0.311,0.311,0.311,0.317,0.317,0.32299999999999995,0.33,0.33,0.33,0.33,0.34299999999999997,0.349,0.35600000000000004,0.36200000000000004,0.375,0.381,0.381,0.38799999999999996,0.39399999999999996,0.4,0.40700000000000003,0.413,0.439,0.43200000000000005,0.439,0.439,0.445,0.45799999999999996,0.46399999999999997,0.46399999999999997,0.47100000000000003,0.47700000000000004,0.47700000000000004,0.49,0.47700000000000004,0.47700000000000004,0.49,0.49,0.496,0.496,0.496,0.496,0.49,0.47700000000000004,0.47700000000000004,0.49,0.496,0.496,0.49,0.47700000000000004,0.47100000000000003,0.47100000000000003,0.47100000000000003,0.47100000000000003,0.47100000000000003,0.47100000000000003,0.47100000000000003,0.46399999999999997,0.46399999999999997,0.45799999999999996,0.45799999999999996,0.46399999999999997,0.46399999999999997,0.46399999999999997,0.46399999999999997,0.46399999999999997,0.46399999999999997,0.45799999999999996,0.445,0.445,0.45799999999999996,0.45799999999999996,0.45799999999999996,0.45799999999999996,0.45799999999999996,0.45799999999999996,0.445,0.439,0.445,0.45799999999999996,0.46399999999999997,0.45799999999999996,0.45799999999999996,0.45799999999999996,0.445,0.445,0.439,0.439,0.445,0.445,0.439,0.439,0.439,0.439,0.439,0.445,0.445,0.45799999999999996,0.45799999999999996,0.45799999999999996,0.45799999999999996,0.445,0.445,0.45799999999999996,0.45799999999999996,0.445,0.439,0.426,0.413,0.40700000000000003,0.4,0.39399999999999996,0.39399999999999996,0.39399999999999996,0.39399999999999996,0.38799999999999996,0.38799999999999996,0.38799999999999996,0.38799999999999996,0.39399999999999996,0.39399999999999996,0.39399999999999996,0.4,0.39399999999999996,0.39399999999999996,0.39399999999999996,0.39399999999999996,0.39399999999999996,0.39399999999999996,0.39399999999999996,0.4,0.39399999999999996,0.39399999999999996,0.39399999999999996,0.38799999999999996,0.39399999999999996,0.38799999999999996,0.39399999999999996,0.4,0.39399999999999996,0.39399999999999996,0.39399999999999996,0.38799999999999996,0.38799999999999996,0.38799999999999996,0.38799999999999996,0.39399999999999996,0.39399999999999996,0.39399999999999996,0.39399999999999996,0.38799999999999996,0.38799999999999996,0.38799999999999996,0.39399999999999996,0.39399999999999996,0.39399999999999996,0.39399999999999996,0.38799999999999996,0.38799999999999996,0.38799999999999996,0.38799999999999996,0.38799999999999996,0.39399999999999996,0.39399999999999996,0.39399999999999996,0.38799999999999996,0.38799999999999996,0.39399999999999996,0.40700000000000003,0.413,0.426,0.439,0.46399999999999997,0.47100000000000003,0.496,0.522,0.535,0.56,0.573,0.5920000000000001,0.599,0.605,0.624,0.624,0.624,0.624,0.631,0.631,0.631,0.631,0.624,0.605,0.5920000000000001,0.573,0.5539999999999999,0.528,0.509,0.496,0.47100000000000003,0.45799999999999996,0.445,0.439,0.426,0.413,0.40700000000000003,0.40700000000000003,0.40700000000000003,0.413,0.40700000000000003,0.4,0.39399999999999996,0.39399999999999996,0.39399999999999996,0.38799999999999996,0.39399999999999996,0.39399999999999996,0.38799999999999996,0.381,0.36200000000000004,0.35600000000000004,0.35600000000000004,0.349,0.33,0.311,0.311,0.292,0.285,0.259,0.266,0.259,0.253,0.247,0.22699999999999998,0.215,0.215,0.20199999999999999,0.215,0.20199999999999999,0.221,0.23399999999999999,0.23399999999999999,0.23399999999999999,0.23399999999999999,0.247,0.259,0.259,0.266,0.27899999999999997,0.27899999999999997,0.285,0.292,0.292,0.298,0.298,0.298,0.311,0.298,0.298,0.298,0.292,0.292,0.292,0.298,0.311,0.317,0.298,0.298,0.298,0.298,0.298,0.311,0.311,0.317,0.311,0.298,0.298,0.311,0.298,0.298,0.311,0.311,0.311,0.311,0.298,0.298,0.298,0.298,0.311,0.311,0.311,0.311,0.311,0.311,0.311,0.311,0.317,0.32299999999999995,0.32299999999999995,0.33,0.33,0.34299999999999997,0.349,0.349,0.349,0.375,0.375,0.381,0.381,0.39399999999999996,0.39399999999999996,0.4,0.40700000000000003,0.40700000000000003,0.43200000000000005,0.439,0.439,0.439,0.439,0.445,0.45799999999999996,0.46399999999999997,0.47100000000000003,0.47700000000000004,0.49,0.47700000000000004,0.47700000000000004,0.47100000000000003,0.47700000000000004,0.47700000000000004,0.49,0.496,0.49,0.49,0.49,0.49,0.47700000000000004,0.47700000000000004,0.47100000000000003,0.47700000000000004,0.47700000000000004,0.47700000000000004,0.47100000000000003,0.47100000000000003,0.46399999999999997,0.45799999999999996,0.45799999999999996,0.45799999999999996,0.45799999999999996,0.445,0.439,0.439,0.439,0.43200000000000005,0.43200000000000005,0.43200000000000005,0.439,0.43200000000000005,0.43200000000000005,0.43200000000000005,0.426,0.426,0.426,0.43200000000000005,0.43200000000000005,0.426,0.426,0.426,0.413,0.40700000000000003,0.413,0.413,0.413,0.413,0.413,0.413,0.40700000000000003,0.40700000000000003,0.40700000000000003,0.40700000000000003,0.40700000000000003,0.413,0.413,0.40700000000000003,0.40700000000000003,0.413,0.413,0.413,0.40700000000000003,0.413,0.413,0.413,0.413,0.40700000000000003,0.40700000000000003,0.413,0.413,0.426,0.426,0.426,0.426,0.413,0.40700000000000003,0.4,0.39399999999999996,0.39399999999999996,0.39399999999999996,0.381,0.381,0.375,0.36200000000000004,0.36200000000000004,0.35600000000000004,0.36200000000000004,0.36200000000000004,0.375,0.36200000000000004,0.375,0.36200000000000004,0.36200000000000004,0.36200000000000004,0.36200000000000004,0.375,0.375,0.375,0.36200000000000004,0.35600000000000004,0.35600000000000004,0.35600000000000004,0.36200000000000004,0.36200000000000004,0.375,0.36200000000000004,0.36200000000000004,0.36200000000000004,0.35600000000000004,0.35600000000000004,0.35600000000000004,0.35600000000000004,0.36200000000000004,0.36200000000000004,0.36200000000000004,0.36200000000000004,0.35600000000000004,0.349,0.349,0.35600000000000004,0.36200000000000004,0.36200000000000004,0.36200000000000004,0.36200000000000004,0.35600000000000004,0.35600000000000004,0.35600000000000004,0.35600000000000004,0.36200000000000004,0.36200000000000004,0.375,0.36200000000000004,0.36200000000000004,0.35600000000000004,0.35600000000000004,0.36200000000000004,0.36200000000000004,0.375,0.381,0.38799999999999996,0.39399999999999996,0.40700000000000003,0.426,0.445,0.47100000000000003,0.496,0.509,0.535,0.5539999999999999,0.56,0.56,0.586,0.599,0.605,0.624,0.624,0.624,0.624,0.624,0.624,0.624,0.605,0.605,0.586,0.56,0.535,0.509,0.496,0.47700000000000004,0.46399999999999997,0.45799999999999996,0.445,0.43200000000000005,0.426,0.40700000000000003,0.40700000000000003,0.4,0.40700000000000003,0.40700000000000003,0.4,0.4,0.39399999999999996,0.38799999999999996,0.381,0.375,0.381,0.375,0.375,0.36200000000000004,0.349,0.34299999999999997,0.32299999999999995,0.317,0.311,0.292,0.285,0.266,0.253,0.247,0.247,0.22699999999999998,0.22699999999999998,0.221,0.215,0.20199999999999999,0.20199999999999999,0.20199999999999999,0.20199999999999999,0.215,0.221,0.22699999999999998,0.22699999999999998,0.23399999999999999,0.23399999999999999,0.23399999999999999,0.247,0.247,0.247,0.253,0.259,0.27899999999999997,0.285,0.285,0.285,0.27899999999999997,0.285,0.27899999999999997,0.292,0.292,0.285,0.285,0.285,0.285,0.27899999999999997,0.285,0.285,0.285,0.292,0.292,0.285,0.285,0.285,0.285,0.285,0.285,0.292,0.285,0.292,0.285,0.285,0.27899999999999997,0.27899999999999997,0.285,0.285,0.285,0.285,0.285,0.285,0.285,0.285,0.285,0.292,0.292,0.292,0.292,0.292,0.298,0.298,0.298,0.317,0.32299999999999995,0.32299999999999995,0.33,0.33,0.34299999999999997,0.34299999999999997,0.349,0.35600000000000004,0.375,0.375,0.38799999999999996,0.38799999999999996,0.39399999999999996,0.39399999999999996,0.4,0.40700000000000003,0.426,0.426,0.439,0.439,0.439,0.445,0.445,0.45799999999999996,0.46399999999999997,0.47100000000000003,0.47100000000000003,0.47100000000000003,0.47100000000000003,0.47100000000000003,N
3,0.43200000000000005,0.413,0.413,0.413,0.413,0.40700000000000003,0.40700000000000003,0.39399999999999996,0.38799999999999996,0.375,0.36200000000000004,0.349,0.349,0.34299999999999997,0.32299999999999995,0.311,0.292,0.266,0.259,0.253,0.253,0.247,0.247,0.22699999999999998,0.221,0.215,0.215,0.221,0.221,0.23399999999999999,0.23399999999999999,0.247,0.247,0.247,0.247,0.253,0.259,0.259,0.266,0.27899999999999997,0.285,0.292,0.292,0.292,0.292,0.298,0.298,0.292,0.292,0.292,0.292,0.285,0.292,0.298,0.298,0.311,0.298,0.298,0.298,0.292,0.292,0.298,0.298,0.311,0.311,0.298,0.298,0.292,0.298,0.298,0.298,0.311,0.311,0.298,0.298,0.298,0.292,0.292,0.298,0.298,0.311,0.311,0.311,0.311,0.311,0.311,0.317,0.317,0.32299999999999995,0.33,0.33,0.33,0.33,0.34299999999999997,0.349,0.35600000000000004,0.36200000000000004,0.375,0.381,0.381,0.38799999999999996,0.39399999999999996,0.4,0.40700000000000003,0.413,0.439,0.43200000000000005,0.439,0.439,0.445,0.45799999999999996,0.46399999999999997,0.46399999999999997,0.47100000000000003,0.47700000000000004,0.47700000000000004,0.49,0.47700000000000004,0.47700000000000004,0.49,0.49,0.496,0.496,0.496,0.496,0.49,0.47700000000000004,0.47700000000000004,0.49,0.496,0.496,0.49,0.47700000000000004,0.47100000000000003,0.47100000000000003,0.47100000000000003,0.47100000000000003,0.47100000000000003,0.47100000000000003,0.47100000000000003,0.46399999999999997,0.46399999999999997,0.45799999999999996,0.45799999999999996,0.46399999999999997,0.46399999999999997,0.46399999999999997,0.46399999999999997,0.46399999999999997,0.46399999999999997,0.45799999999999996,0.445,0.445,0.45799999999999996,0.45799999999999996,0.45799999999999996,0.45799999999999996,0.45799999999999996,0.45799999999999996,0.445,0.439,0.445,0.45799999999999996,0.46399999999999997,0.45799999999999996,0.45799999999999996,0.45799999999999996,0.445,0.445,0.439,0.439,0.445,0.445,0.439,0.439,0.439,0.439,0.439,0.445,0.445,0.45799999999999996,0.45799999999999996,0.45799999999999996,0.45799999999999996,0.445,0.445,0.45799999999999996,0.45799999999999996,0.445,0.439,0.426,0.413,0.40700000000000003,0.4,0.39399999999999996,0.39399999999999996,0.39399999999999996,0.39399999999999996,0.38799999999999996,0.38799999999999996,0.38799999999999996,0.38799999999999996,0.39399999999999996,0.39399999999999996,0.39399999999999996,0.4,0.39399999999999996,0.39399999999999996,0.39399999999999996,0.39399999999999996,0.39399999999999996,0.39399999999999996,0.39399999999999996,0.4,0.39399999999999996,0.39399999999999996,0.39399999999999996,0.38799999999999996,0.39399999999999996,0.38799999999999996,0.39399999999999996,0.4,0.39399999999999996,0.39399999999999996,0.39399999999999996,0.38799999999999996,0.38799999999999996,0.38799999999999996,0.38799999999999996,0.39399999999999996,0.39399999999999996,0.39399999999999996,0.39399999999999996,0.38799999999999996,0.38799999999999996,0.38799999999999996,0.39399999999999996,0.39399999999999996,0.39399999999999996,0.39399999999999996,0.38799999999999996,0.38799999999999996,0.38799999999999996,0.38799999999999996,0.38799999999999996,0.39399999999999996,0.39399999999999996,0.39399999999999996,0.38799999999999996,0.38799999999999996,0.39399999999999996,0.40700000000000003,0.413,0.426,0.439,0.46399999999999997,0.47100000000000003,0.496,0.522,0.535,0.56,0.573,0.5920000000000001,0.599,0.605,0.624,0.624,0.624,0.624,0.631,0.631,0.631,0.631,0.624,0.605,0.5920000000000001,0.573,0.5539999999999999,0.528,0.509,0.496,0.47100000000000003,0.45799999999999996,0.445,0.439,0.426,0.413,0.40700000000000003,0.40700000000000003,0.40700000000000003,0.413,0.40700000000000003,0.4,0.39399999999999996,0.39399999999999996,0.39399999999999996,0.38799999999999996,0.39399999999999996,0.39399999999999996,0.38799999999999996,0.381,0.36200000000000004,0.35600000000000004,0.35600000000000004,0.349,0.33,0.311,0.311,0.292,0.285,0.259,0.266,0.259,0.253,0.247,0.22699999999999998,0.215,0.215,0.20199999999999999,0.215,0.20199999999999999,0.221,0.23399999999999999,0.23399999999999999,0.23399999999999999,0.23399999999999999,0.247,0.259,0.259,0.266,0.27899999999999997,0.27899999999999997,0.285,0.292,0.292,0.298,0.298,0.298,0.311,0.298,0.298,0.298,0.292,0.292,0.292,0.298,0.311,0.317,0.298,0.298,0.298,0.298,0.298,0.311,0.311,0.317,0.311,0.298,0.298,0.311,0.298,0.298,0.311,0.311,0.311,0.311,0.298,0.298,0.298,0.298,0.311,0.311,0.311,0.311,0.311,0.311,0.311,0.311,0.317,0.32299999999999995,0.32299999999999995,0.33,0.33,0.34299999999999997,0.349,0.349,0.349,0.375,0.375,0.381,0.381,0.39399999999999996,0.39399999999999996,0.4,0.40700000000000003,0.40700000000000003,0.43200000000000005,0.439,0.439,0.439,0.439,0.445,0.45799999999999996,0.46399999999999997,0.47100000000000003,0.47700000000000004,0.49,0.47700000000000004,0.47700000000000004,0.47100000000000003,0.47700000000000004,0.47700000000000004,0.49,0.496,0.49,0.49,0.49,0.49,0.47700000000000004,0.47700000000000004,0.47100000000000003,0.47700000000000004,0.47700000000000004,0.47700000000000004,0.47100000000000003,0.47100000000000003,0.46399999999999997,0.45799999999999996,0.45799999999999996,0.45799999999999996,0.45799999999999996,0.445,0.439,0.439,0.439,0.43200000000000005,0.43200000000000005,0.43200000000000005,0.439,0.43200000000000005,0.43200000000000005,0.43200000000000005,0.426,0.426,0.426,0.43200000000000005,0.43200000000000005,0.426,0.426,0.426,0.413,0.40700000000000003,0.413,0.413,0.413,0.413,0.413,0.413,0.40700000000000003,0.40700000000000003,0.40700000000000003,0.40700000000000003,0.40700000000000003,0.413,0.413,0.40700000000000003,0.40700000000000003,0.413,0.413,0.413,0.40700000000000003,0.413,0.413,0.413,0.413,0.40700000000000003,0.40700000000000003,0.413,0.413,0.426,0.426,0.426,0.426,0.413,0.40700000000000003,0.4,0.39399999999999996,0.39399999999999996,0.39399999999999996,0.381,0.381,0.375,0.36200000000000004,0.36200000000000004,0.35600000000000004,0.36200000000000004,0.36200000000000004,0.375,0.36200000000000004,0.375,0.36200000000000004,0.36200000000000004,0.36200000000000004,0.36200000000000004,0.375,0.375,0.375,0.36200000000000004,0.35600000000000004,0.35600000000000004,0.35600000000000004,0.36200000000000004,0.36200000000000004,0.375,0.36200000000000004,0.36200000000000004,0.36200000000000004,0.35600000000000004,0.35600000000000004,0.35600000000000004,0.35600000000000004,0.36200000000000004,0.36200000000000004,0.36200000000000004,0.36200000000000004,0.35600000000000004,0.349,0.349,0.35600000000000004,0.36200000000000004,0.36200000000000004,0.36200000000000004,0.36200000000000004,0.35600000000000004,0.35600000000000004,0.35600000000000004,0.35600000000000004,0.36200000000000004,0.36200000000000004,0.375,0.36200000000000004,0.36200000000000004,0.35600000000000004,0.35600000000000004,0.36200000000000004,0.36200000000000004,0.375,0.381,0.38799999999999996,0.39399999999999996,0.40700000000000003,0.426,0.445,0.47100000000000003,0.496,0.509,0.535,0.5539999999999999,0.56,0.56,0.586,0.599,0.605,0.624,0.624,0.624,0.624,0.624,0.624,0.624,0.605,0.605,0.586,0.56,0.535,0.509,0.496,0.47700000000000004,0.46399999999999997,0.45799999999999996,0.445,0.43200000000000005,0.426,0.40700000000000003,0.40700000000000003,0.4,0.40700000000000003,0.40700000000000003,0.4,0.4,0.39399999999999996,0.38799999999999996,0.381,0.375,0.381,0.375,0.375,0.36200000000000004,0.349,0.34299999999999997,0.32299999999999995,0.317,0.311,0.292,0.285,0.266,0.253,0.247,0.247,0.22699999999999998,0.22699999999999998,0.221,0.215,0.20199999999999999,0.20199999999999999,0.20199999999999999,0.20199999999999999,0.215,0.221,0.22699999999999998,0.22699999999999998,0.23399999999999999,0.23399999999999999,0.23399999999999999,0.247,0.247,0.247,0.253,0.259,0.27899999999999997,0.285,0.285,0.285,0.27899999999999997,0.285,0.27899999999999997,0.292,0.292,0.285,0.285,0.285,0.285,0.27899999999999997,0.285,0.285,0.285,0.292,0.292,0.285,0.285,0.285,0.285,0.285,0.285,0.292,0.285,0.292,0.285,0.285,0.27899999999999997,0.27899999999999997,0.285,0.285,0.285,0.285,0.285,0.285,0.285,0.285,0.285,0.292,0.292,0.292,0.292,0.292,0.298,0.298,0.298,0.317,0.32299999999999995,0.32299999999999995,0.33,0.33,0.34299999999999997,0.34299999999999997,0.349,0.35600000000000004,0.375,0.375,0.38799999999999996,0.38799999999999996,0.39399999999999996,0.39399999999999996,0.4,0.40700000000000003,0.426,0.426,0.439,0.439,0.439,0.445,0.445,0.45799999999999996,0.46399999999999997,0.47100000000000003,0.47100000000000003,0.47100000000000003,0.47100000000000003,0.47100000000000003,0.47100000000000003,0.47100000000000003,0.47700000000000004,0.47700000000000004,0.47700000000000004,0.47700000000000004,0.47100000000000003,0.47100000000000003,0.47100000000000003,0.46399999999999997,0.45799999999999996,0.46399999999999997,0.47100000000000003,0.46399999999999997,0.45799999999999996,0.445,0.445,0.439,0.439,0.439,0.439,0.445,0.445,0.439,0.43200000000000005,0.426,0.43200000000000005,0.439,0.439,0.439,0.439,0.43200000000000005,0.43200000000000005,0.426,0.426,0.426,0.43200000000000005,0.43200000000000005,0.43200000000000005,0.426,0.426,0.426,0.426,0.426,0.426,0.43200000000000005,0.43200000000000005,0.43200000000000005,0.413,0.413,0.426,0.426,0.413,0.413,0.426,0.413,0.413,0.413,0.413,0.413,0.426,0.43200000000000005,0.426,0.426,0.426,0.426,0.413,0.4,0.4,0.39399999999999996,0.39399999999999996,0.39399999999999996,0.38799999999999996,0.381,0.375,0.375,0.375,0.375,0.375,0.381,0.381,0.375,0.375,0.375,0.375,0.381,0.381,0.381,0.381,0.38799999999999996,0.381,0.381,0.381,0.375,0.381,0.381,0.381,0.381,0.381,0.381,0.375,0.38799999999999996,0.381,0.38799999999999996,0.38799999999999996,0.381,0.381,0.381,0.381,0.375,0.381,0.381,0.38799999999999996,0.38799999999999996,0.381,0.381,0.381,0.381,0.381,0.381,0.38799999999999996,0.38799999999999996,0.38799999999999996,0.38799999999999996,0.381,0.381,0.381,0.38799999999999996,0.38799999999999996,0.39399999999999996,0.4,0.40700000000000003,0.413,0.43200000000000005,0.445,0.46399999999999997,0.496,0.522,0.535,0.56,0.5670000000000001,0.573,0.5920000000000001,0.605,0.624,0.637,0.65,0.6559999999999999,0.6559999999999999,0.6559999999999999,0.6559999999999999,0.6559999999999999,0.6559999999999999,0.6559999999999999,0.637,0.624,0.586,0.5670000000000001,0.541,0.528,0.509,0.496,0.49,0.47700000000000004,0.46399999999999997,0.45799999999999996,0.439,0.439,0.439,0.439,0.43200000000000005,0.43200000000000005,0.426,0.413,0.413,0.4,0.40700000000000003,0.4,0.4,0.39399999999999996,0.381,0.375,0.35600000000000004,0.349,0.33,0.33,0.32299999999999995,0.311,0.292,0.285,0.27899999999999997,0.259,0.253,0.247,0.247,0.23399999999999999,0.221,0.221,0.221,0.221,0.22699999999999998,0.22699999999999998,0.23399999999999999,0.247,0.247,0.253,0.253,0.253,0.253,0.259,0.266,0.27899999999999997,0.285,0.292,0.292,0.292,0.292,0.292,0.292,0.292,0.298,0.298,0.292,0.292,0.292,0.292,0.292,0.292,0.298,0.298,0.298,0.292,0.292,0.292,0.292,0.292,0.292,0.298,0.298,0.292,0.292,0.292,0.285,0.292,0.292,0.292,0.292,0.292,0.292,0.285,0.285,0.292,0.292,0.298,0.311,0.298,0.298,0.311,0.311,0.311,0.317,0.33,0.34299999999999997,0.34299999999999997,0.34299999999999997,0.34299999999999997,0.349,0.35600000000000004,0.35600000000000004,0.36200000000000004,0.381,0.38799999999999996,0.39399999999999996,0.4,0.4,0.40700000000000003,0.413,0.426,0.439,0.445,0.445,0.45799999999999996,0.45799999999999996,0.45799999999999996,0.46399999999999997,0.47100000000000003,0.47700000000000004,0.47700000000000004,0.47700000000000004,0.47700000000000004,0.49,N
4,0.40700000000000003,0.4,0.39399999999999996,0.39399999999999996,0.39399999999999996,0.38799999999999996,0.39399999999999996,0.39399999999999996,0.38799999999999996,0.381,0.36200000000000004,0.35600000000000004,0.35600000000000004,0.349,0.33,0.311,0.311,0.292,0.285,0.259,0.266,0.259,0.253,0.247,0.22699999999999998,0.215,0.215,0.20199999999999999,0.215,0.20199999999999999,0.221,0.23399999999999999,0.23399999999999999,0.23399999999999999,0.23399999999999999,0.247,0.259,0.259,0.266,0.27899999999999997,0.27899999999999997,0.285,0.292,0.292,0.298,0.298,0.298,0.311,0.298,0.298,0.298,0.292,0.292,0.292,0.298,0.311,0.317,0.298,0.298,0.298,0.298,0.298,0.311,0.311,0.317,0.311,0.298,0.298,0.311,0.298,0.298,0.311,0.311,0.311,0.311,0.298,0.298,0.298,0.298,0.311,0.311,0.311,0.311,0.311,0.311,0.311,0.311,0.317,0.32299999999999995,0.32299999999999995,0.33,0.33,0.34299999999999997,0.349,0.349,0.349,0.375,0.375,0.381,0.381,0.39399999999999996,0.39399999999999996,0.4,0.40700000000000003,0.40700000000000003,0.43200000000000005,0.439,0.439,0.439,0.439,0.445,0.45799999999999996,0.46399999999999997,0.47100000000000003,0.47700000000000004,0.49,0.47700000000000004,0.47700000000000004,0.47100000000000003,0.47700000000000004,0.47700000000000004,0.49,0.496,0.49,0.49,0.49,0.49,0.47700000000000004,0.47700000000000004,0.47100000000000003,0.47700000000000004,0.47700000000000004,0.47700000000000004,0.47100000000000003,0.47100000000000003,0.46399999999999997,0.45799999999999996,0.45799999999999996,0.45799999999999996,0.45799999999999996,0.445,0.439,0.439,0.439,0.43200000000000005,0.43200000000000005,0.43200000000000005,0.439,0.43200000000000005,0.43200000000000005,0.43200000000000005,0.426,0.426,0.426,0.43200000000000005,0.43200000000000005,0.426,0.426,0.426,0.413,0.40700000000000003,0.413,0.413,0.413,0.413,0.413,0.413,0.40700000000000003,0.40700000000000003,0.40700000000000003,0.40700000000000003,0.40700000000000003,0.413,0.413,0.40700000000000003,0.40700000000000003,0.413,0.413,0.413,0.40700000000000003,0.413,0.413,0.413,0.413,0.40700000000000003,0.40700000000000003,0.413,0.413,0.426,0.426,0.426,0.426,0.413,0.40700000000000003,0.4,0.39399999999999996,0.39399999999999996,0.39399999999999996,0.381,0.381,0.375,0.36200000000000004,0.36200000000000004,0.35600000000000004,0.36200000000000004,0.36200000000000004,0.375,0.36200000000000004,0.375,0.36200000000000004,0.36200000000000004,0.36200000000000004,0.36200000000000004,0.375,0.375,0.375,0.36200000000000004,0.35600000000000004,0.35600000000000004,0.35600000000000004,0.36200000000000004,0.36200000000000004,0.375,0.36200000000000004,0.36200000000000004,0.36200000000000004,0.35600000000000004,0.35600000000000004,0.35600000000000004,0.35600000000000004,0.36200000000000004,0.36200000000000004,0.36200000000000004,0.36200000000000004,0.35600000000000004,0.349,0.349,0.35600000000000004,0.36200000000000004,0.36200000000000004,0.36200000000000004,0.36200000000000004,0.35600000000000004,0.35600000000000004,0.35600000000000004,0.35600000000000004,0.36200000000000004,0.36200000000000004,0.375,0.36200000000000004,0.36200000000000004,0.35600000000000004,0.35600000000000004,0.36200000000000004,0.36200000000000004,0.375,0.381,0.38799999999999996,0.39399999999999996,0.40700000000000003,0.426,0.445,0.47100000000000003,0.496,0.509,0.535,0.5539999999999999,0.56,0.56,0.586,0.599,0.605,0.624,0.624,0.624,0.624,0.624,0.624,0.624,0.605,0.605,0.586,0.56,0.535,0.509,0.496,0.47700000000000004,0.46399999999999997,0.45799999999999996,0.445,0.43200000000000005,0.426,0.40700000000000003,0.40700000000000003,0.4,0.40700000000000003,0.40700000000000003,0.4,0.4,0.39399999999999996,0.38799999999999996,0.381,0.375,0.381,0.375,0.375,0.36200000000000004,0.349,0.34299999999999997,0.32299999999999995,0.317,0.311,0.292,0.285,0.266,0.253,0.247,0.247,0.22699999999999998,0.22699999999999998,0.221,0.215,0.20199999999999999,0.20199999999999999,0.20199999999999999,0.20199999999999999,0.215,0.221,0.22699999999999998,0.22699999999999998,0.23399999999999999,0.23399999999999999,0.23399999999999999,0.247,0.247,0.247,0.253,0.259,0.27899999999999997,0.285,0.285,0.285,0.27899999999999997,0.285,0.27899999999999997,0.292,0.292,0.285,0.285,0.285,0.285,0.27899999999999997,0.285,0.285,0.285,0.292,0.292,0.285,0.285,0.285,0.285,0.285,0.285,0.292,0.285,0.292,0.285,0.285,0.27899999999999997,0.27899999999999997,0.285,0.285,0.285,0.285,0.285,0.285,0.285,0.285,0.285,0.292,0.292,0.292,0.292,0.292,0.298,0.298,0.298,0.317,0.32299999999999995,0.32299999999999995,0.33,0.33,0.34299999999999997,0.34299999999999997,0.349,0.35600000000000004,0.375,0.375,0.38799999999999996,0.38799999999999996,0.39399999999999996,0.39399999999999996,0.4,0.40700000000000003,0.426,0.426,0.439,0.439,0.439,0.445,0.445,0.45799999999999996,0.46399999999999997,0.47100000000000003,0.47100000000000003,0.47100000000000003,0.47100000000000003,0.47100000000000003,0.47100000000000003,0.47100000000000003,0.47700000000000004,0.47700000000000004,0.47700000000000004,0.47700000000000004,0.47100000000000003,0.47100000000000003,0.47100000000000003,0.46399999999999997,0.45799999999999996,0.46399999999999997,0.47100000000000003,0.46399999999999997,0.45799999999999996,0.445,0.445,0.439,0.439,0.439,0.439,0.445,0.445,0.439,0.43200000000000005,0.426,0.43200000000000005,0.439,0.439,0.439,0.439,0.43200000000000005,0.43200000000000005,0.426,0.426,0.426,0.43200000000000005,0.43200000000000005,0.43200000000000005,0.426,0.426,0.426,0.426,0.426,0.426,0.43200000000000005,0.43200000000000005,0.43200000000000005,0.413,0.413,0.426,0.426,0.413,0.413,0.426,0.413,0.413,0.413,0.413,0.413,0.426,0.43200000000000005,0.426,0.426,0.426,0.426,0.413,0.4,0.4,0.39399999999999996,0.39399999999999996,0.39399999999999996,0.38799999999999996,0.381,0.375,0.375,0.375,0.375,0.375,0.381,0.381,0.375,0.375,0.375,0.375,0.381,0.381,0.381,0.381,0.38799999999999996,0.381,0.381,0.381,0.375,0.381,0.381,0.381,0.381,0.381,0.381,0.375,0.38799999999999996,0.381,0.38799999999999996,0.38799999999999996,0.381,0.381,0.381,0.381,0.375,0.381,0.381,0.38799999999999996,0.38799999999999996,0.381,0.381,0.381,0.381,0.381,0.381,0.38799999999999996,0.38799999999999996,0.38799999999999996,0.38799999999999996,0.381,0.381,0.381,0.38799999999999996,0.38799999999999996,0.39399999999999996,0.4,0.40700000000000003,0.413,0.43200000000000005,0.445,0.46399999999999997,0.496,0.522,0.535,0.56,0.5670000000000001,0.573,0.5920000000000001,0.605,0.624,0.637,0.65,0.6559999999999999,0.6559999999999999,0.6559999999999999,0.6559999999999999,0.6559999999999999,0.6559999999999999,0.6559999999999999,0.637,0.624,0.586,0.5670000000000001,0.541,0.528,0.509,0.496,0.49,0.47700000000000004,0.46399999999999997,0.45799999999999996,0.439,0.439,0.439,0.439,0.43200000000000005,0.43200000000000005,0.426,0.413,0.413,0.4,0.40700000000000003,0.4,0.4,0.39399999999999996,0.381,0.375,0.35600000000000004,0.349,0.33,0.33,0.32299999999999995,0.311,0.292,0.285,0.27899999999999997,0.259,0.253,0.247,0.247,0.23399999999999999,0.221,0.221,0.221,0.221,0.22699999999999998,0.22699999999999998,0.23399999999999999,0.247,0.247,0.253,0.253,0.253,0.253,0.259,0.266,0.27899999999999997,0.285,0.292,0.292,0.292,0.292,0.292,0.292,0.292,0.298,0.298,0.292,0.292,0.292,0.292,0.292,0.292,0.298,0.298,0.298,0.292,0.292,0.292,0.292,0.292,0.292,0.298,0.298,0.292,0.292,0.292,0.285,0.292,0.292,0.292,0.292,0.292,0.292,0.285,0.285,0.292,0.292,0.298,0.311,0.298,0.298,0.311,0.311,0.311,0.317,0.33,0.34299999999999997,0.34299999999999997,0.34299999999999997,0.34299999999999997,0.349,0.35600000000000004,0.35600000000000004,0.36200000000000004,0.381,0.38799999999999996,0.39399999999999996,0.4,0.4,0.40700000000000003,0.413,0.426,0.439,0.445,0.445,0.45799999999999996,0.45799999999999996,0.45799999999999996,0.46399999999999997,0.47100000000000003,0.47700000000000004,0.47700000000000004,0.47700000000000004,0.47700000000000004,0.49,0.47700000000000004,0.47700000000000004,0.49,0.49,0.49,0.496,0.49,0.47700000000000004,0.47700000000000004,0.47700000000000004,0.47100000000000003,0.47100000000000003,0.47100000000000003,0.47100000000000003,0.47100000000000003,0.46399999999999997,0.45799999999999996,0.45799999999999996,0.45799999999999996,0.45799999999999996,0.45799999999999996,0.45799999999999996,0.445,0.445,0.445,0.439,0.439,0.445,0.445,0.445,0.439,0.439,0.43200000000000005,0.43200000000000005,0.43200000000000005,0.426,0.426,0.439,0.43200000000000005,0.43200000000000005,0.43200000000000005,0.426,0.426,0.426,0.426,0.43200000000000005,0.439,0.43200000000000005,0.426,0.426,0.413,0.426,0.413,0.426,0.426,0.413,0.413,0.413,0.40700000000000003,0.413,0.426,0.426,0.43200000000000005,0.43200000000000005,0.43200000000000005,0.426,0.426,0.426,0.40700000000000003,0.40700000000000003,0.4,0.4,0.39399999999999996,0.38799999999999996,0.381,0.375,0.36200000000000004,0.36200000000000004,0.375,0.375,0.375,0.375,0.375,0.36200000000000004,0.36200000000000004,0.375,0.375,0.381,0.381,0.381,0.375,0.375,0.375,0.375,0.375,0.375,0.375,0.381,0.375,0.375,0.375,0.375,0.375,0.375,0.381,0.381,0.381,0.381,0.375,0.375,0.375,0.375,0.381,0.381,0.381,0.375,0.375,0.375,0.375,0.375,0.38799999999999996,0.38799999999999996,0.38799999999999996,0.381,0.381,0.38799999999999996,0.381,0.381,0.38799999999999996,0.38799999999999996,0.39399999999999996,0.39399999999999996,0.4,0.40700000000000003,0.426,0.439,0.46399999999999997,0.49,0.509,0.535,0.5539999999999999,0.56,0.573,0.586,0.599,0.624,0.631,0.637,0.65,0.65,0.6559999999999999,0.65,0.65,0.65,0.6559999999999999,0.65,0.631,0.599,0.573,0.56,0.535,0.522,0.509,0.496,0.49,0.47100000000000003,0.45799999999999996,0.439,0.439,0.439,0.445,0.439,0.445,0.439,0.43200000000000005,0.426,0.413,0.426,0.413,0.413,0.4,0.39399999999999996,0.381,0.36200000000000004,0.35600000000000004,0.34299999999999997,0.34299999999999997,0.32299999999999995,0.317,0.298,0.292,0.285,0.27899999999999997,0.266,0.259,0.253,0.23399999999999999,0.22699999999999998,0.221,0.221,0.22699999999999998,0.23399999999999999,0.247,0.23399999999999999,0.253,0.253,0.253,0.259,0.259,0.259,0.266,0.27899999999999997,0.292,0.298,0.311,0.298,0.311,0.298,0.298,0.311,0.311,0.311,0.311,0.311,0.311,0.311,0.311,0.311,0.311,0.317,0.311,0.311,0.311,0.311,0.311,0.311,0.311,0.311,0.311,0.311,0.311,0.298,0.298,0.298,0.311,0.311,0.311,0.298,0.311,0.311,0.292,0.298,0.298,0.311,0.317,0.317,0.317,0.32299999999999995,0.317,0.32299999999999995,0.32299999999999995,0.34299999999999997,0.34299999999999997,0.349,0.349,0.349,0.35600000000000004,0.36200000000000004,0.375,0.36200000000000004,0.38799999999999996,0.39399999999999996,0.4,0.4,0.40700000000000003,0.40700000000000003,0.413,0.426,0.439,0.445,0.445,0.445,0.45799999999999996,0.46399999999999997,0.46399999999999997,0.47100000000000003,0.47100000000000003,0.47700000000000004,0.49,0.496,0.496,N
5,0.4,0.4,0.39399999999999996,0.38799999999999996,0.381,0.375,0.381,0.375,0.375,0.36200000000000004,0.349,0.34299999999999997,0.32299999999999995,0.317,0.311,0.292,0.285,0.266,0.253,0.247,0.247,0.22699999999999998,0.22699999999999998,0.221,0.215,0.20199999999999999,0.20199999999999999,0.20199999999999999,0.20199999999999999,0.215,0.221,0.22699999999999998,0.22699999999999998,0.23399999999999999,0.23399999999999999,0.23399999999999999,0.247,0.247,0.247,0.253,0.259,0.27899999999999997,0.285,0.285,0.285,0.27899999999999997,0.285,0.27899999999999997,0.292,0.292,0.285,0.285,0.285,0.285,0.27899999999999997,0.285,0.285,0.285,0.292,0.292,0.285,0.285,0.285,0.285,0.285,0.285,0.292,0.285,0.292,0.285,0.285,0.27899999999999997,0.27899999999999997,0.285,0.285,0.285,0.285,0.285,0.285,0.285,0.285,0.285,0.292,0.292,0.292,0.292,0.292,0.298,0.298,0.298,0.317,0.32299999999999995,0.32299999999999995,0.33,0.33,0.34299999999999997,0.34299999999999997,0.349,0.35600000000000004,0.375,0.375,0.38799999999999996,0.38799999999999996,0.39399999999999996,0.39399999999999996,0.4,0.40700000000000003,0.426,0.426,0.439,0.439,0.439,0.445,0.445,0.45799999999999996,0.46399999999999997,0.47100000000000003,0.47100000000000003,0.47100000000000003,0.47100000000000003,0.47100000000000003,0.47100000000000003,0.47100000000000003,0.47700000000000004,0.47700000000000004,0.47700000000000004,0.47700000000000004,0.47100000000000003,0.47100000000000003,0.47100000000000003,0.46399999999999997,0.45799999999999996,0.46399999999999997,0.47100000000000003,0.46399999999999997,0.45799999999999996,0.445,0.445,0.439,0.439,0.439,0.439,0.445,0.445,0.439,0.43200000000000005,0.426,0.43200000000000005,0.439,0.439,0.439,0.439,0.43200000000000005,0.43200000000000005,0.426,0.426,0.426,0.43200000000000005,0.43200000000000005,0.43200000000000005,0.426,0.426,0.426,0.426,0.426,0.426,0.43200000000000005,0.43200000000000005,0.43200000000000005,0.413,0.413,0.426,0.426,0.413,0.413,0.426,0.413,0.413,0.413,0.413,0.413,0.426,0.43200000000000005,0.426,0.426,0.426,0.426,0.413,0.4,0.4,0.39399999999999996,0.39399999999999996,0.39399999999999996,0.38799999999999996,0.381,0.375,0.375,0.375,0.375,0.375,0.381,0.381,0.375,0.375,0.375,0.375,0.381,0.381,0.381,0.381,0.38799999999999996,0.381,0.381,0.381,0.375,0.381,0.381,0.381,0.381,0.381,0.381,0.375,0.38799999999999996,0.381,0.38799999999999996,0.38799999999999996,0.381,0.381,0.381,0.381,0.375,0.381,0.381,0.38799999999999996,0.38799999999999996,0.381,0.381,0.381,0.381,0.381,0.381,0.38799999999999996,0.38799999999999996,0.38799999999999996,0.38799999999999996,0.381,0.381,0.381,0.38799999999999996,0.38799999999999996,0.39399999999999996,0.4,0.40700000000000003,0.413,0.43200000000000005,0.445,0.46399999999999997,0.496,0.522,0.535,0.56,0.5670000000000001,0.573,0.5920000000000001,0.605,0.624,0.637,0.65,0.6559999999999999,0.6559999999999999,0.6559999999999999,0.6559999999999999,0.6559999999999999,0.6559999999999999,0.6559999999999999,0.637,0.624,0.586,0.5670000000000001,0.541,0.528,0.509,0.496,0.49,0.47700000000000004,0.46399999999999997,0.45799999999999996,0.439,0.439,0.439,0.439,0.43200000000000005,0.43200000000000005,0.426,0.413,0.413,0.4,0.40700000000000003,0.4,0.4,0.39399999999999996,0.381,0.375,0.35600000000000004,0.349,0.33,0.33,0.32299999999999995,0.311,0.292,0.285,0.27899999999999997,0.259,0.253,0.247,0.247,0.23399999999999999,0.221,0.221,0.221,0.221,0.22699999999999998,0.22699999999999998,0.23399999999999999,0.247,0.247,0.253,0.253,0.253,0.253,0.259,0.266,0.27899999999999997,0.285,0.292,0.292,0.292,0.292,0.292,0.292,0.292,0.298,0.298,0.292,0.292,0.292,0.292,0.292,0.292,0.298,0.298,0.298,0.292,0.292,0.292,0.292,0.292,0.292,0.298,0.298,0.292,0.292,0.292,0.285,0.292,0.292,0.292,0.292,0.292,0.292,0.285,0.285,0.292,0.292,0.298,0.311,0.298,0.298,0.311,0.311,0.311,0.317,0.33,0.34299999999999997,0.34299999999999997,0.34299999999999997,0.34299999999999997,0.349,0.35600000000000004,0.35600000000000004,0.36200000000000004,0.381,0.38799999999999996,0.39399999999999996,0.4,0.4,0.40700000000000003,0.413,0.426,0.439,0.445,0.445,0.45799999999999996,0.45799999999999996,0.45799999999999996,0.46399999999999997,0.47100000000000003,0.47700000000000004,0.47700000000000004,0.47700000000000004,0.47700000000000004,0.49,0.47700000000000004,0.47700000000000004,0.49,0.49,0.49,0.496,0.49,0.47700000000000004,0.47700000000000004,0.47700000000000004,0.47100000000000003,0.47100000000000003,0.47100000000000003,0.47100000000000003,0.47100000000000003,0.46399999999999997,0.45799999999999996,0.45799999999999996,0.45799999999999996,0.45799999999999996,0.45799999999999996,0.45799999999999996,0.445,0.445,0.445,0.439,0.439,0.445,0.445,0.445,0.439,0.439,0.43200000000000005,0.43200000000000005,0.43200000000000005,0.426,0.426,0.439,0.43200000000000005,0.43200000000000005,0.43200000000000005,0.426,0.426,0.426,0.426,0.43200000000000005,0.439,0.43200000000000005,0.426,0.426,0.413,0.426,0.413,0.426,0.426,0.413,0.413,0.413,0.40700000000000003,0.413,0.426,0.426,0.43200000000000005,0.43200000000000005,0.43200000000000005,0.426,0.426,0.426,0.40700000000000003,0.40700000000000003,0.4,0.4,0.39399999999999996,0.38799999999999996,0.381,0.375,0.36200000000000004,0.36200000000000004,0.375,0.375,0.375,0.375,0.375,0.36200000000000004,0.36200000000000004,0.375,0.375,0.381,0.381,0.381,0.375,0.375,0.375,0.375,0.375,0.375,0.375,0.381,0.375,0.375,0.375,0.375,0.375,0.375,0.381,0.381,0.381,0.381,0.375,0.375,0.375,0.375,0.381,0.381,0.381,0.375,0.375,0.375,0.375,0.375,0.38799999999999996,0.38799999999999996,0.38799999999999996,0.381,0.381,0.38799999999999996,0.381,0.381,0.38799999999999996,0.38799999999999996,0.39399999999999996,0.39399999999999996,0.4,0.40700000000000003,0.426,0.439,0.46399999999999997,0.49,0.509,0.535,0.5539999999999999,0.56,0.573,0.586,0.599,0.624,0.631,0.637,0.65,0.65,0.6559999999999999,0.65,0.65,0.65,0.6559999999999999,0.65,0.631,0.599,0.573,0.56,0.535,0.522,0.509,0.496,0.49,0.47100000000000003,0.45799999999999996,0.439,0.439,0.439,0.445,0.439,0.445,0.439,0.43200000000000005,0.426,0.413,0.426,0.413,0.413,0.4,0.39399999999999996,0.381,0.36200000000000004,0.35600000000000004,0.34299999999999997,0.34299999999999997,0.32299999999999995,0.317,0.298,0.292,0.285,0.27899999999999997,0.266,0.259,0.253,0.23399999999999999,0.22699999999999998,0.221,0.221,0.22699999999999998,0.23399999999999999,0.247,0.23399999999999999,0.253,0.253,0.253,0.259,0.259,0.259,0.266,0.27899999999999997,0.292,0.298,0.311,0.298,0.311,0.298,0.298,0.311,0.311,0.311,0.311,0.311,0.311,0.311,0.311,0.311,0.311,0.317,0.311,0.311,0.311,0.311,0.311,0.311,0.311,0.311,0.311,0.311,0.311,0.298,0.298,0.298,0.311,0.311,0.311,0.298,0.311,0.311,0.292,0.298,0.298,0.311,0.317,0.317,0.317,0.32299999999999995,0.317,0.32299999999999995,0.32299999999999995,0.34299999999999997,0.34299999999999997,0.349,0.349,0.349,0.35600000000000004,0.36200000000000004,0.375,0.36200000000000004,0.38799999999999996,0.39399999999999996,0.4,0.4,0.40700000000000003,0.40700000000000003,0.413,0.426,0.439,0.445,0.445,0.445,0.45799999999999996,0.46399999999999997,0.46399999999999997,0.47100000000000003,0.47100000000000003,0.47700000000000004,0.49,0.496,0.496,0.496,0.496,0.49,0.49,0.496,0.496,0.496,0.49,0.49,0.49,0.49,0.49,0.49,0.49,0.47700000000000004,0.47700000000000004,0.47100000000000003,0.46399999999999997,0.46399999999999997,0.46399999999999997,0.45799999999999996,0.46399999999999997,0.46399999999999997,0.46399999999999997,0.45799999999999996,0.445,0.439,0.439,0.445,0.45799999999999996,0.445,0.445,0.445,0.439,0.43200000000000005,0.426,0.43200000000000005,0.43200000000000005,0.439,0.439,0.43200000000000005,0.43200000000000005,0.426,0.413,0.43200000000000005,0.43200000000000005,0.439,0.439,0.439,0.426,0.426,0.426,0.43200000000000005,0.426,0.426,0.43200000000000005,0.43200000000000005,0.426,0.426,0.413,0.426,0.426,0.43200000000000005,0.439,0.439,0.439,0.43200000000000005,0.426,0.413,0.426,0.426,0.426,0.40700000000000003,0.4,0.4,0.39399999999999996,0.381,0.375,0.36200000000000004,0.381,0.375,0.375,0.375,0.375,0.375,0.375,0.36200000000000004,0.375,0.381,0.381,0.381,0.375,0.375,0.375,0.375,0.375,0.381,0.381,0.381,0.381,0.375,0.375,0.375,0.381,0.381,0.381,0.375,0.375,0.375,0.375,0.375,0.375,0.381,0.381,0.381,0.375,0.381,0.375,0.375,0.375,0.381,0.38799999999999996,0.38799999999999996,0.381,0.381,0.381,0.375,0.381,0.381,0.381,0.381,0.38799999999999996,0.38799999999999996,0.38799999999999996,0.38799999999999996,0.4,0.426,0.439,0.45799999999999996,0.47100000000000003,0.49,0.509,0.528,0.541,0.5539999999999999,0.5670000000000001,0.586,0.599,0.599,0.618,0.618,0.618,0.624,0.624,0.624,0.624,0.605,0.5920000000000001,0.5670000000000001,0.541,0.528,0.509,0.49,0.47100000000000003,0.45799999999999996,0.445,0.43200000000000005,0.413,0.40700000000000003,0.4,0.40700000000000003,0.39399999999999996,0.4,0.4,0.39399999999999996,0.39399999999999996,0.38799999999999996,0.38799999999999996,0.381,0.381,0.381,0.375,0.36200000000000004,0.36200000000000004,0.35600000000000004,0.34299999999999997,0.34299999999999997,0.33,0.317,0.311,0.292,0.27899999999999997,0.259,0.259,0.259,0.247,0.23399999999999999,0.22699999999999998,0.22699999999999998,0.221,0.215,0.215,0.221,0.221,0.23399999999999999,0.247,0.247,0.247,0.247,0.247,0.247,0.253,0.259,0.266,0.266,0.27899999999999997,0.285,0.285,0.285,0.285,0.292,0.292,0.292,0.285,0.285,0.285,0.285,0.285,0.292,0.292,0.292,0.292,0.292,0.285,0.285,0.285,0.292,0.292,0.292,0.292,0.292,0.285,0.285,0.285,0.285,0.285,0.292,0.285,0.285,0.285,0.27899999999999997,0.285,0.285,0.285,0.292,0.292,0.285,0.292,0.292,0.292,0.292,0.292,0.311,0.317,0.317,0.317,0.317,0.33,0.32299999999999995,0.33,0.34299999999999997,0.35600000000000004,0.36200000000000004,0.375,0.375,0.375,0.381,0.38799999999999996,0.39399999999999996,0.4,0.40700000000000003,0.413,0.413,0.426,0.426,0.43200000000000005,0.439,0.445,0.445,0.45799999999999996,0.46399999999999997,0.46399999999999997,0.46399999999999997,0.46399999999999997,0.47100000000000003,0.47700000000000004,0.47700000000000004,N
6,0.43200000000000005,0.426,0.413,0.413,0.4,0.40700000000000003,0.4,0.4,0.39399999999999996,0.381,0.375,0.35600000000000004,0.349,0.33,0.33,0.32299999999999995,0.311,0.292,0.285,0.27899999999999997,0.259,0.253,0.247,0.247,0.23399999999999999,0.221,0.221,0.221,0.221,0.22699999999999998,0.22699999999999998,0.23399999999999999,0.247,0.247,0.253,0.253,0.253,0.253,0.259,0.266,0.27899999999999997,0.285,0.292,0.292,0.292,0.292,0.292,0.292,0.292,0.298,0.298,0.292,0.292,0.292,0.292,0.292,0.292,0.298,0.298,0.298,0.292,0.292,0.292,0.292,0.292,0.292,0.298,0.298,0.292,0.292,0.292,0.285,0.292,0.292,0.292,0.292,0.292,0.292,0.285,0.285,0.292,0.292,0.298,0.311,0.298,0.298,0.311,0.311,0.311,0.317,0.33,0.34299999999999997,0.34299999999999997,0.34299999999999997,0.34299999999999997,0.349,0.35600000000000004,0.35600000000000004,0.36200000000000004,0.381,0.38799999999999996,0.39399999999999996,0.4,0.4,0.40700000000000003,0.413,0.426,0.439,0.445,0.445,0.45799999999999996,0.45799999999999996,0.45799999999999996,0.46399999999999997,0.47100000000000003,0.47700000000000004,0.47700000000000004,0.47700000000000004,0.47700000000000004,0.49,0.47700000000000004,0.47700000000000004,0.49,0.49,0.49,0.496,0.49,0.47700000000000004,0.47700000000000004,0.47700000000000004,0.47100000000000003,0.47100000000000003,0.47100000000000003,0.47100000000000003,0.47100000000000003,0.46399999999999997,0.45799999999999996,0.45799999999999996,0.45799999999999996,0.45799999999999996,0.45799999999999996,0.45799999999999996,0.445,0.445,0.445,0.439,0.439,0.445,0.445,0.445,0.439,0.439,0.43200000000000005,0.43200000000000005,0.43200000000000005,0.426,0.426,0.439,0.43200000000000005,0.43200000000000005,0.43200000000000005,0.426,0.426,0.426,0.426,0.43200000000000005,0.439,0.43200000000000005,0.426,0.426,0.413,0.426,0.413,0.426,0.426,0.413,0.413,0.413,0.40700000000000003,0.413,0.426,0.426,0.43200000000000005,0.43200000000000005,0.43200000000000005,0.426,0.426,0.426,0.40700000000000003,0.40700000000000003,0.4,0.4,0.39399999999999996,0.38799999999999996,0.381,0.375,0.36200000000000004,0.36200000000000004,0.375,0.375,0.375,0.375,0.375,0.36200000000000004,0.36200000000000004,0.375,0.375,0.381,0.381,0.381,0.375,0.375,0.375,0.375,0.375,0.375,0.375,0.381,0.375,0.375,0.375,0.375,0.375,0.375,0.381,0.381,0.381,0.381,0.375,0.375,0.375,0.375,0.381,0.381,0.381,0.375,0.375,0.375,0.375,0.375,0.38799999999999996,0.38799999999999996,0.38799999999999996,0.381,0.381,0.38799999999999996,0.381,0.381,0.38799999999999996,0.38799999999999996,0.39399999999999996,0.39399999999999996,0.4,0.40700000000000003,0.426,0.439,0.46399999999999997,0.49,0.509,0.535,0.5539999999999999,0.56,0.573,0.586,0.599,0.624,0.631,0.637,0.65,0.65,0.6559999999999999,0.65,0.65,0.65,0.6559999999999999,0.65,0.631,0.599,0.573,0.56,0.535,0.522,0.509,0.496,0.49,0.47100000000000003,0.45799999999999996,0.439,0.439,0.439,0.445,0.439,0.445,0.439,0.43200000000000005,0.426,0.413,0.426,0.413,0.413,0.4,0.39399999999999996,0.381,0.36200000000000004,0.35600000000000004,0.34299999999999997,0.34299999999999997,0.32299999999999995,0.317,0.298,0.292,0.285,0.27899999999999997,0.266,0.259,0.253,0.23399999999999999,0.22699999999999998,0.221,0.221,0.22699999999999998,0.23399999999999999,0.247,0.23399999999999999,0.253,0.253,0.253,0.259,0.259,0.259,0.266,0.27899999999999997,0.292,0.298,0.311,0.298,0.311,0.298,0.298,0.311,0.311,0.311,0.311,0.311,0.311,0.311,0.311,0.311,0.311,0.317,0.311,0.311,0.311,0.311,0.311,0.311,0.311,0.311,0.311,0.311,0.311,0.298,0.298,0.298,0.311,0.311,0.311,0.298,0.311,0.311,0.292,0.298,0.298,0.311,0.317,0.317,0.317,0.32299999999999995,0.317,0.32299999999999995,0.32299999999999995,0.34299999999999997,0.34299999999999997,0.349,0.349,0.349,0.35600000000000004,0.36200000000000004,0.375,0.36200000000000004,0.38799999999999996,0.39399999999999996,0.4,0.4,0.40700000000000003,0.40700000000000003,0.413,0.426,0.439,0.445,0.445,0.445,0.45799999999999996,0.46399999999999997,0.46399999999999997,0.47100000000000003,0.47100000000000003,0.47700000000000004,0.49,0.496,0.496,0.496,0.496,0.49,0.49,0.496,0.496,0.496,0.49,0.49,0.49,0.49,0.49,0.49,0.49,0.47700000000000004,0.47700000000000004,0.47100000000000003,0.46399999999999997,0.46399999999999997,0.46399999999999997,0.45799999999999996,0.46399999999999997,0.46399999999999997,0.46399999999999997,0.45799999999999996,0.445,0.439,0.439,0.445,0.45799999999999996,0.445,0.445,0.445,0.439,0.43200000000000005,0.426,0.43200000000000005,0.43200000000000005,0.439,0.439,0.43200000000000005,0.43200000000000005,0.426,0.413,0.43200000000000005,0.43200000000000005,0.439,0.439,0.439,0.426,0.426,0.426,0.43200000000000005,0.426,0.426,0.43200000000000005,0.43200000000000005,0.426,0.426,0.413,0.426,0.426,0.43200000000000005,0.439,0.439,0.439,0.43200000000000005,0.426,0.413,0.426,0.426,0.426,0.40700000000000003,0.4,0.4,0.39399999999999996,0.381,0.375,0.36200000000000004,0.381,0.375,0.375,0.375,0.375,0.375,0.375,0.36200000000000004,0.375,0.381,0.381,0.381,0.375,0.375,0.375,0.375,0.375,0.381,0.381,0.381,0.381,0.375,0.375,0.375,0.381,0.381,0.381,0.375,0.375,0.375,0.375,0.375,0.375,0.381,0.381,0.381,0.375,0.381,0.375,0.375,0.375,0.381,0.38799999999999996,0.38799999999999996,0.381,0.381,0.381,0.375,0.381,0.381,0.381,0.381,0.38799999999999996,0.38799999999999996,0.38799999999999996,0.38799999999999996,0.4,0.426,0.439,0.45799999999999996,0.47100000000000003,0.49,0.509,0.528,0.541,0.5539999999999999,0.5670000000000001,0.586,0.599,0.599,0.618,0.618,0.618,0.624,0.624,0.624,0.624,0.605,0.5920000000000001,0.5670000000000001,0.541,0.528,0.509,0.49,0.47100000000000003,0.45799999999999996,0.445,0.43200000000000005,0.413,0.40700000000000003,0.4,0.40700000000000003,0.39399999999999996,0.4,0.4,0.39399999999999996,0.39399999999999996,0.38799999999999996,0.38799999999999996,0.381,0.381,0.381,0.375,0.36200000000000004,0.36200000000000004,0.35600000000000004,0.34299999999999997,0.34299999999999997,0.33,0.317,0.311,0.292,0.27899999999999997,0.259,0.259,0.259,0.247,0.23399999999999999,0.22699999999999998,0.22699999999999998,0.221,0.215,0.215,0.221,0.221,0.23399999999999999,0.247,0.247,0.247,0.247,0.247,0.247,0.253,0.259,0.266,0.266,0.27899999999999997,0.285,0.285,0.285,0.285,0.292,0.292,0.292,0.285,0.285,0.285,0.285,0.285,0.292,0.292,0.292,0.292,0.292,0.285,0.285,0.285,0.292,0.292,0.292,0.292,0.292,0.285,0.285,0.285,0.285,0.285,0.292,0.285,0.285,0.285,0.27899999999999997,0.285,0.285,0.285,0.292,0.292,0.285,0.292,0.292,0.292,0.292,0.292,0.311,0.317,0.317,0.317,0.317,0.33,0.32299999999999995,0.33,0.34299999999999997,0.35600000000000004,0.36200000000000004,0.375,0.375,0.375,0.381,0.38799999999999996,0.39399999999999996,0.4,0.40700000000000003,0.413,0.413,0.426,0.426,0.43200000000000005,0.439,0.445,0.445,0.45799999999999996,0.46399999999999997,0.46399999999999997,0.46399999999999997,0.46399999999999997,0.47100000000000003,0.47700000000000004,0.47700000000000004,0.47100000000000003,0.47100000000000003,0.47100000000000003,0.47100000000000003,0.46399999999999997,0.46399999999999997,0.46399999999999997,0.46399999999999997,0.46399999999999997,0.46399999999999997,0.45799999999999996,0.445,0.445,0.445,0.445,0.439,0.439,0.439,0.439,0.43200000000000005,0.426,0.426,0.413,0.426,0.426,0.426,0.413,0.413,0.413,0.413,0.413,0.426,0.413,0.426,0.413,0.413,0.413,0.40700000000000003,0.40700000000000003,0.413,0.413,0.426,0.413,0.413,0.413,0.40700000000000003,0.413,0.413,0.426,0.426,0.426,0.413,0.413,0.40700000000000003,0.413,0.413,0.413,0.426,0.413,0.413,0.413,0.413,0.413,0.413,0.413,0.426,0.43200000000000005,0.426,0.43200000000000005,0.426,0.413,0.40700000000000003,0.4,0.4,0.4,0.4,0.38799999999999996,0.381,0.375,0.375,0.375,0.375,0.375,0.381,0.375,0.375,0.375,0.375,0.375,0.375,0.381,0.381,0.381,0.375,0.375,0.375,0.375,0.375,0.375,0.381,0.375,0.375,0.375,0.375,0.375,0.381,0.381,0.381,0.381,0.381,0.381,0.381,0.381,0.38799999999999996,0.381,0.38799999999999996,0.381,0.381,0.381,0.381,0.381,0.381,0.381,0.381,0.38799999999999996,0.381,0.38799999999999996,0.38799999999999996,0.381,0.381,0.381,0.38799999999999996,0.39399999999999996,0.39399999999999996,0.4,0.40700000000000003,0.426,0.439,0.46399999999999997,0.47700000000000004,0.503,0.535,0.5539999999999999,0.5670000000000001,0.573,0.586,0.599,0.618,0.631,0.65,0.6559999999999999,0.6559999999999999,0.6559999999999999,0.6559999999999999,0.6559999999999999,0.6559999999999999,0.65,0.637,0.631,0.605,0.573,0.5539999999999999,0.528,0.509,0.503,0.49,0.47700000000000004,0.47100000000000003,0.45799999999999996,0.445,0.43200000000000005,0.43200000000000005,0.43200000000000005,0.439,0.439,0.43200000000000005,0.426,0.426,0.40700000000000003,0.40700000000000003,0.4,0.4,0.4,0.39399999999999996,0.381,0.36200000000000004,0.349,0.34299999999999997,0.33,0.317,0.317,0.311,0.292,0.27899999999999997,0.266,0.259,0.253,0.247,0.23399999999999999,0.22699999999999998,0.22699999999999998,0.22699999999999998,0.22699999999999998,0.22699999999999998,0.23399999999999999,0.247,0.253,0.253,0.253,0.253,0.259,0.259,0.259,0.266,0.27899999999999997,0.285,0.292,0.298,0.292,0.292,0.292,0.292,0.292,0.292,0.298,0.292,0.292,0.292,0.292,0.292,0.298,0.298,0.298,0.298,0.298,0.298,0.298,0.292,0.292,0.292,0.298,0.298,0.298,0.298,0.298,0.292,0.292,0.298,0.298,0.298,0.298,0.292,0.292,0.292,0.292,0.292,0.298,0.311,0.311,0.311,0.311,0.311,0.317,0.317,0.32299999999999995,0.33,0.33,0.34299999999999997,0.349,0.349,0.349,0.35600000000000004,0.375,0.381,0.381,0.39399999999999996,0.39399999999999996,0.4,0.4,0.4,0.413,0.426,0.439,0.439,0.445,0.45799999999999996,0.445,0.45799999999999996,0.46399999999999997,0.46399999999999997,0.47700000000000004,0.49,N
7,0.445,0.439,0.43200000000000005,0.426,0.413,0.426,0.413,0.413,0.4,0.39399999999999996,0.381,0.36200000000000004,0.35600000000000004,0.34299999999999997,0.34299999999999997,0.32299999999999995,0.317,0.298,0.292,0.285,0.27899999999999997,0.266,0.259,0.253,0.23399999999999999,0.22699999999999998,0.221,0.221,0.22699999999999998,0.23399999999999999,0.247,0.23399999999999999,0.253,0.253,0.253,0.259,0.259,0.259,0.266,0.27899999999999997,0.292,0.298,0.311,0.298,0.311,0.298,0.298,0.311,0.311,0.311,0.311,0.311,0.311,0.311,0.311,0.311,0.311,0.317,0.311,0.311,0.311,0.311,0.311,0.311,0.311,0.311,0.311,0.311,0.311,0.298,0.298,0.298,0.311,0.311,0.311,0.298,0.311,0.311,0.292,0.298,0.298,0.311,0.317,0.317,0.317,0.32299999999999995,0.317,0.32299999999999995,0.32299999999999995,0.34299999999999997,0.34299999999999997,0.349,0.349,0.349,0.35600000000000004,0.36200000000000004,0.375,0.36200000000000004,0.38799999999999996,0.39399999999999996,0.4,0.4,0.40700000000000003,0.40700000000000003,0.413,0.426,0.439,0.445,0.445,0.445,0.45799999999999996,0.46399999999999997,0.46399999999999997,0.47100000000000003,0.47100000000000003,0.47700000000000004,0.49,0.496,0.496,0.496,0.496,0.49,0.49,0.496,0.496,0.496,0.49,0.49,0.49,0.49,0.49,0.49,0.49,0.47700000000000004,0.47700000000000004,0.47100000000000003,0.46399999999999997,0.46399999999999997,0.46399999999999997,0.45799999999999996,0.46399999999999997,0.46399999999999997,0.46399999999999997,0.45799999999999996,0.445,0.439,0.439,0.445,0.45799999999999996,0.445,0.445,0.445,0.439,0.43200000000000005,0.426,0.43200000000000005,0.43200000000000005,0.439,0.439,0.43200000000000005,0.43200000000000005,0.426,0.413,0.43200000000000005,0.43200000000000005,0.439,0.439,0.439,0.426,0.426,0.426,0.43200000000000005,0.426,0.426,0.43200000000000005,0.43200000000000005,0.426,0.426,0.413,0.426,0.426,0.43200000000000005,0.439,0.439,0.439,0.43200000000000005,0.426,0.413,0.426,0.426,0.426,0.40700000000000003,0.4,0.4,0.39399999999999996,0.381,0.375,0.36200000000000004,0.381,0.375,0.375,0.375,0.375,0.375,0.375,0.36200000000000004,0.375,0.381,0.381,0.381,0.375,0.375,0.375,0.375,0.375,0.381,0.381,0.381,0.381,0.375,0.375,0.375,0.381,0.381,0.381,0.375,0.375,0.375,0.375,0.375,0.375,0.381,0.381,0.381,0.375,0.381,0.375,0.375,0.375,0.381,0.38799999999999996,0.38799999999999996,0.381,0.381,0.381,0.375,0.381,0.381,0.381,0.381,0.38799999999999996,0.38799999999999996,0.38799999999999996,0.38799999999999996,0.4,0.426,0.439,0.45799999999999996,0.47100000000000003,0.49,0.509,0.528,0.541,0.5539999999999999,0.5670000000000001,0.586,0.599,0.599,0.618,0.618,0.618,0.624,0.624,0.624,0.624,0.605,0.5920000000000001,0.5670000000000001,0.541,0.528,0.509,0.49,0.47100000000000003,0.45799999999999996,0.445,0.43200000000000005,0.413,0.40700000000000003,0.4,0.40700000000000003,0.39399999999999996,0.4,0.4,0.39399999999999996,0.39399999999999996,0.38799999999999996,0.38799999999999996,0.381,0.381,0.381,0.375,0.36200000000000004,0.36200000000000004,0.35600000000000004,0.34299999999999997,0.34299999999999997,0.33,0.317,0.311,0.292,0.27899999999999997,0.259,0.259,0.259,0.247,0.23399999999999999,0.22699999999999998,0.22699999999999998,0.221,0.215,0.215,0.221,0.221,0.23399999999999999,0.247,0.247,0.247,0.247,0.247,0.247,0.253,0.259,0.266,0.266,0.27899999999999997,0.285,0.285,0.285,0.285,0.292,0.292,0.292,0.285,0.285,0.285,0.285,0.285,0.292,0.292,0.292,0.292,0.292,0.285,0.285,0.285,0.292,0.292,0.292,0.292,0.292,0.285,0.285,0.285,0.285,0.285,0.292,0.285,0.285,0.285,0.27899999999999997,0.285,0.285,0.285,0.292,0.292,0.285,0.292,0.292,0.292,0.292,0.292,0.311,0.317,0.317,0.317,0.317,0.33,0.32299999999999995,0.33,0.34299999999999997,0.35600000000000004,0.36200000000000004,0.375,0.375,0.375,0.381,0.38799999999999996,0.39399999999999996,0.4,0.40700000000000003,0.413,0.413,0.426,0.426,0.43200000000000005,0.439,0.445,0.445,0.45799999999999996,0.46399999999999997,0.46399999999999997,0.46399999999999997,0.46399999999999997,0.47100000000000003,0.47700000000000004,0.47700000000000004,0.47100000000000003,0.47100000000000003,0.47100000000000003,0.47100000000000003,0.46399999999999997,0.46399999999999997,0.46399999999999997,0.46399999999999997,0.46399999999999997,0.46399999999999997,0.45799999999999996,0.445,0.445,0.445,0.445,0.439,0.439,0.439,0.439,0.43200000000000005,0.426,0.426,0.413,0.426,0.426,0.426,0.413,0.413,0.413,0.413,0.413,0.426,0.413,0.426,0.413,0.413,0.413,0.40700000000000003,0.40700000000000003,0.413,0.413,0.426,0.413,0.413,0.413,0.40700000000000003,0.413,0.413,0.426,0.426,0.426,0.413,0.413,0.40700000000000003,0.413,0.413,0.413,0.426,0.413,0.413,0.413,0.413,0.413,0.413,0.413,0.426,0.43200000000000005,0.426,0.43200000000000005,0.426,0.413,0.40700000000000003,0.4,0.4,0.4,0.4,0.38799999999999996,0.381,0.375,0.375,0.375,0.375,0.375,0.381,0.375,0.375,0.375,0.375,0.375,0.375,0.381,0.381,0.381,0.375,0.375,0.375,0.375,0.375,0.375,0.381,0.375,0.375,0.375,0.375,0.375,0.381,0.381,0.381,0.381,0.381,0.381,0.381,0.381,0.38799999999999996,0.381,0.38799999999999996,0.381,0.381,0.381,0.381,0.381,0.381,0.381,0.381,0.38799999999999996,0.381,0.38799999999999996,0.38799999999999996,0.381,0.381,0.381,0.38799999999999996,0.39399999999999996,0.39399999999999996,0.4,0.40700000000000003,0.426,0.439,0.46399999999999997,0.47700000000000004,0.503,0.535,0.5539999999999999,0.5670000000000001,0.573,0.586,0.599,0.618,0.631,0.65,0.6559999999999999,0.6559999999999999,0.6559999999999999,0.6559999999999999,0.6559999999999999,0.6559999999999999,0.65,0.637,0.631,0.605,0.573,0.5539999999999999,0.528,0.509,0.503,0.49,0.47700000000000004,0.47100000000000003,0.45799999999999996,0.445,0.43200000000000005,0.43200000000000005,0.43200000000000005,0.439,0.439,0.43200000000000005,0.426,0.426,0.40700000000000003,0.40700000000000003,0.4,0.4,0.4,0.39399999999999996,0.381,0.36200000000000004,0.349,0.34299999999999997,0.33,0.317,0.317,0.311,0.292,0.27899999999999997,0.266,0.259,0.253,0.247,0.23399999999999999,0.22699999999999998,0.22699999999999998,0.22699999999999998,0.22699999999999998,0.22699999999999998,0.23399999999999999,0.247,0.253,0.253,0.253,0.253,0.259,0.259,0.259,0.266,0.27899999999999997,0.285,0.292,0.298,0.292,0.292,0.292,0.292,0.292,0.292,0.298,0.292,0.292,0.292,0.292,0.292,0.298,0.298,0.298,0.298,0.298,0.298,0.298,0.292,0.292,0.292,0.298,0.298,0.298,0.298,0.298,0.292,0.292,0.298,0.298,0.298,0.298,0.292,0.292,0.292,0.292,0.292,0.298,0.311,0.311,0.311,0.311,0.311,0.317,0.317,0.32299999999999995,0.33,0.33,0.34299999999999997,0.349,0.349,0.349,0.35600000000000004,0.375,0.381,0.381,0.39399999999999996,0.39399999999999996,0.4,0.4,0.4,0.413,0.426,0.439,0.439,0.445,0.45799999999999996,0.445,0.45799999999999996,0.46399999999999997,0.46399999999999997,0.47700000000000004,0.49,0.47700000000000004,0.47700000000000004,0.47700000000000004,0.47700000000000004,0.47700000000000004,0.47700000000000004,0.47700000000000004,0.49,0.49,0.47700000000000004,0.47100000000000003,0.47100000000000003,0.47700000000000004,0.47100000000000003,0.47100000000000003,0.47100000000000003,0.47700000000000004,0.47100000000000003,0.46399999999999997,0.45799999999999996,0.45799999999999996,0.45799999999999996,0.45799999999999996,0.46399999999999997,0.45799999999999996,0.445,0.45799999999999996,0.445,0.445,0.445,0.445,0.445,0.445,0.445,0.439,0.439,0.43200000000000005,0.43200000000000005,0.43200000000000005,0.43200000000000005,0.439,0.439,0.439,0.43200000000000005,0.43200000000000005,0.43200000000000005,0.43200000000000005,0.426,0.43200000000000005,0.43200000000000005,0.439,0.426,0.426,0.413,0.413,0.426,0.426,0.43200000000000005,0.426,0.426,0.426,0.426,0.426,0.426,0.43200000000000005,0.439,0.43200000000000005,0.43200000000000005,0.426,0.40700000000000003,0.40700000000000003,0.39399999999999996,0.39399999999999996,0.39399999999999996,0.38799999999999996,0.381,0.381,0.375,0.375,0.36200000000000004,0.375,0.375,0.381,0.375,0.375,0.375,0.375,0.375,0.375,0.381,0.381,0.381,0.381,0.381,0.381,0.375,0.375,0.381,0.38799999999999996,0.38799999999999996,0.381,0.381,0.375,0.375,0.381,0.381,0.381,0.38799999999999996,0.381,0.381,0.381,0.375,0.381,0.381,0.381,0.38799999999999996,0.38799999999999996,0.38799999999999996,0.381,0.381,0.381,0.381,0.38799999999999996,0.38799999999999996,0.39399999999999996,0.38799999999999996,0.38799999999999996,0.38799999999999996,0.381,0.38799999999999996,0.38799999999999996,0.39399999999999996,0.39399999999999996,0.40700000000000003,0.413,0.43200000000000005,0.445,0.45799999999999996,0.49,0.509,0.535,0.5539999999999999,0.5670000000000001,0.573,0.586,0.599,0.618,0.631,0.65,0.6559999999999999,0.6559999999999999,0.6629999999999999,0.6629999999999999,0.6559999999999999,0.6559999999999999,0.65,0.631,0.631,0.605,0.573,0.5539999999999999,0.528,0.509,0.503,0.49,0.47700000000000004,0.47100000000000003,0.45799999999999996,0.445,0.445,0.43200000000000005,0.439,0.43200000000000005,0.43200000000000005,0.43200000000000005,0.426,0.413,0.40700000000000003,0.4,0.39399999999999996,0.39399999999999996,0.39399999999999996,0.381,0.375,0.36200000000000004,0.349,0.33,0.32299999999999995,0.317,0.298,0.292,0.285,0.27899999999999997,0.259,0.253,0.23399999999999999,0.22699999999999998,0.221,0.215,0.215,0.215,0.215,0.221,0.22699999999999998,0.22699999999999998,0.23399999999999999,0.23399999999999999,0.247,0.253,0.253,0.253,0.253,0.253,0.266,0.27899999999999997,0.285,0.292,0.292,0.292,0.292,0.292,0.292,0.292,0.292,0.298,0.292,0.292,0.292,0.292,0.292,0.298,0.298,0.311,0.298,0.298,0.292,0.292,0.292,0.298,0.298,0.298,0.292,0.298,0.298,0.292,0.292,0.292,0.292,0.292,0.298,0.298,0.292,0.292,0.292,0.292,0.292,0.298,0.311,0.311,0.311,0.311,0.311,0.311,0.317,0.32299999999999995,0.34299999999999997,0.34299999999999997,0.349,0.349,0.349,0.36200000000000004,0.36200000000000004,0.381,0.38799999999999996,0.39399999999999996,0.4,0.4,0.40700000000000003,0.40700000000000003,0.426,0.43200000000000005,0.439,0.45799999999999996,0.45799999999999996,0.46399999999999997,0.47100000000000003,0.47100000000000003,0.46399999999999997,0.47100000000000003,0.49,0.49,0.49,N
8,0.39399999999999996,0.4,0.4,0.39399999999999996,0.39399999999999996,0.38799999999999996,0.38799999999999996,0.381,0.381,0.381,0.375,0.36200000000000004,0.36200000000000004,0.35600000000000004,0.34299999999999997,0.34299999999999997,0.33,0.317,0.311,0.292,0.27899999999999997,0.259,0.259,0.259,0.247,0.23399999999999999,0.22699999999999998,0.22699999999999998,0.221,0.215,0.215,0.221,0.221,0.23399999999999999,0.247,0.247,0.247,0.247,0.247,0.247,0.253,0.259,0.266,0.266,0.27899999999999997,0.285,0.285,0.285,0.285,0.292,0.292,0.292,0.285,0.285,0.285,0.285,0.285,0.292,0.292,0.292,0.292,0.292,0.285,0.285,0.285,0.292,0.292,0.292,0.292,0.292,0.285,0.285,0.285,0.285,0.285,0.292,0.285,0.285,0.285,0.27899999999999997,0.285,0.285,0.285,0.292,0.292,0.285,0.292,0.292,0.292,0.292,0.292,0.311,0.317,0.317,0.317,0.317,0.33,0.32299999999999995,0.33,0.34299999999999997,0.35600000000000004,0.36200000000000004,0.375,0.375,0.375,0.381,0.38799999999999996,0.39399999999999996,0.4,0.40700000000000003,0.413,0.413,0.426,0.426,0.43200000000000005,0.439,0.445,0.445,0.45799999999999996,0.46399999999999997,0.46399999999999997,0.46399999999999997,0.46399999999999997,0.47100000000000003,0.47700000000000004,0.47700000000000004,0.47100000000000003,0.47100000000000003,0.47100000000000003,0.47100000000000003,0.46399999999999997,0.46399999999999997,0.46399999999999997,0.46399999999999997,0.46399999999999997,0.46399999999999997,0.45799999999999996,0.445,0.445,0.445,0.445,0.439,0.439,0.439,0.439,0.43200000000000005,0.426,0.426,0.413,0.426,0.426,0.426,0.413,0.413,0.413,0.413,0.413,0.426,0.413,0.426,0.413,0.413,0.413,0.40700000000000003,0.40700000000000003,0.413,0.413,0.426,0.413,0.413,0.413,0.40700000000000003,0.413,0.413,0.426,0.426,0.426,0.413,0.413,0.40700000000000003,0.413,0.413,0.413,0.426,0.413,0.413,0.413,0.413,0.413,0.413,0.413,0.426,0.43200000000000005,0.426,0.43200000000000005,0.426,0.413,0.40700000000000003,0.4,0.4,0.4,0.4,0.38799999999999996,0.381,0.375,0.375,0.375,0.375,0.375,0.381,0.375,0.375,0.375,0.375,0.375,0.375,0.381,0.381,0.381,0.375,0.375,0.375,0.375,0.375,0.375,0.381,0.375,0.375,0.375,0.375,0.375,0.381,0.381,0.381,0.381,0.381,0.381,0.381,0.381,0.38799999999999996,0.381,0.38799999999999996,0.381,0.381,0.381,0.381,0.381,0.381,0.381,0.381,0.38799999999999996,0.381,0.38799999999999996,0.38799999999999996,0.381,0.381,0.381,0.38799999999999996,0.39399999999999996,0.39399999999999996,0.4,0.40700000000000003,0.426,0.439,0.46399999999999997,0.47700000000000004,0.503,0.535,0.5539999999999999,0.5670000000000001,0.573,0.586,0.599,0.618,0.631,0.65,0.6559999999999999,0.6559999999999999,0.6559999999999999,0.6559999999999999,0.6559999999999999,0.6559999999999999,0.65,0.637,0.631,0.605,0.573,0.5539999999999999,0.528,0.509,0.503,0.49,0.47700000000000004,0.47100000000000003,0.45799999999999996,0.445,0.43200000000000005,0.43200000000000005,0.43200000000000005,0.439,0.439,0.43200000000000005,0.426,0.426,0.40700000000000003,0.40700000000000003,0.4,0.4,0.4,0.39399999999999996,0.381,0.36200000000000004,0.349,0.34299999999999997,0.33,0.317,0.317,0.311,0.292,0.27899999999999997,0.266,0.259,0.253,0.247,0.23399999999999999,0.22699999999999998,0.22699999999999998,0.22699999999999998,0.22699999999999998,0.22699999999999998,0.23399999999999999,0.247,0.253,0.253,0.253,0.253,0.259,0.259,0.259,0.266,0.27899999999999997,0.285,0.292,0.298,0.292,0.292,0.292,0.292,0.292,0.292,0.298,0.292,0.292,0.292,0.292,0.292,0.298,0.298,0.298,0.298,0.298,0.298,0.298,0.292,0.292,0.292,0.298,0.298,0.298,0.298,0.298,0.292,0.292,0.298,0.298,0.298,0.298,0.292,0.292,0.292,0.292,0.292,0.298,0.311,0.311,0.311,0.311,0.311,0.317,0.317,0.32299999999999995,0.33,0.33,0.34299999999999997,0.349,0.349,0.349,0.35600000000000004,0.375,0.381,0.381,0.39399999999999996,0.39399999999999996,0.4,0.4,0.4,0.413,0.426,0.439,0.439,0.445,0.45799999999999996,0.445,0.45799999999999996,0.46399999999999997,0.46399999999999997,0.47700000000000004,0.49,0.47700000000000004,0.47700000000000004,0.47700000000000004,0.47700000000000004,0.47700000000000004,0.47700000000000004,0.47700000000000004,0.49,0.49,0.47700000000000004,0.47100000000000003,0.47100000000000003,0.47700000000000004,0.47100000000000003,0.47100000000000003,0.47100000000000003,0.47700000000000004,0.47100000000000003,0.46399999999999997,0.45799999999999996,0.45799999999999996,0.45799999999999996,0.45799999999999996,0.46399999999999997,0.45799999999999996,0.445,0.45799999999999996,0.445,0.445,0.445,0.445,0.445,0.445,0.445,0.439,0.439,0.43200000000000005,0.43200000000000005,0.43200000000000005,0.43200000000000005,0.439,0.439,0.439,0.43200000000000005,0.43200000000000005,0.43200000000000005,0.43200000000000005,0.426,0.43200000000000005,0.43200000000000005,0.439,0.426,0.426,0.413,0.413,0.426,0.426,0.43200000000000005,0.426,0.426,0.426,0.426,0.426,0.426,0.43200000000000005,0.439,0.43200000000000005,0.43200000000000005,0.426,0.40700000000000003,0.40700000000000003,0.39399999999999996,0.39399999999999996,0.39399999999999996,0.38799999999999996,0.381,0.381,0.375,0.375,0.36200000000000004,0.375,0.375,0.381,0.375,0.375,0.375,0.375,0.375,0.375,0.381,0.381,0.381,0.381,0.381,0.381,0.375,0.375,0.381,0.38799999999999996,0.38799999999999996,0.381,0.381,0.375,0.375,0.381,0.381,0.381,0.38799999999999996,0.381,0.381,0.381,0.375,0.381,0.381,0.381,0.38799999999999996,0.38799999999999996,0.38799999999999996,0.381,0.381,0.381,0.381,0.38799999999999996,0.38799999999999996,0.39399999999999996,0.38799999999999996,0.38799999999999996,0.38799999999999996,0.381,0.38799999999999996,0.38799999999999996,0.39399999999999996,0.39399999999999996,0.40700000000000003,0.413,0.43200000000000005,0.445,0.45799999999999996,0.49,0.509,0.535,0.5539999999999999,0.5670000000000001,0.573,0.586,0.599,0.618,0.631,0.65,0.6559999999999999,0.6559999999999999,0.6629999999999999,0.6629999999999999,0.6559999999999999,0.6559999999999999,0.65,0.631,0.631,0.605,0.573,0.5539999999999999,0.528,0.509,0.503,0.49,0.47700000000000004,0.47100000000000003,0.45799999999999996,0.445,0.445,0.43200000000000005,0.439,0.43200000000000005,0.43200000000000005,0.43200000000000005,0.426,0.413,0.40700000000000003,0.4,0.39399999999999996,0.39399999999999996,0.39399999999999996,0.381,0.375,0.36200000000000004,0.349,0.33,0.32299999999999995,0.317,0.298,0.292,0.285,0.27899999999999997,0.259,0.253,0.23399999999999999,0.22699999999999998,0.221,0.215,0.215,0.215,0.215,0.221,0.22699999999999998,0.22699999999999998,0.23399999999999999,0.23399999999999999,0.247,0.253,0.253,0.253,0.253,0.253,0.266,0.27899999999999997,0.285,0.292,0.292,0.292,0.292,0.292,0.292,0.292,0.292,0.298,0.292,0.292,0.292,0.292,0.292,0.298,0.298,0.311,0.298,0.298,0.292,0.292,0.292,0.298,0.298,0.298,0.292,0.298,0.298,0.292,0.292,0.292,0.292,0.292,0.298,0.298,0.292,0.292,0.292,0.292,0.292,0.298,0.311,0.311,0.311,0.311,0.311,0.311,0.317,0.32299999999999995,0.34299999999999997,0.34299999999999997,0.349,0.349,0.349,0.36200000000000004,0.36200000000000004,0.381,0.38799999999999996,0.39399999999999996,0.4,0.4,0.40700000000000003,0.40700000000000003,0.426,0.43200000000000005,0.439,0.45799999999999996,0.45799999999999996,0.46399999999999997,0.47100000000000003,0.47100000000000003,0.46399999999999997,0.47100000000000003,0.49,0.49,0.49,0.49,0.47700000000000004,0.47700000000000004,0.496,0.496,0.496,0.496,0.503,0.496,0.496,0.49,0.49,0.49,0.49,0.49,0.49,0.49,0.49,0.47700000000000004,0.47100000000000003,0.46399999999999997,0.46399999999999997,0.47100000000000003,0.47100000000000003,0.47100000000000003,0.47100000000000003,0.47100000000000003,0.46399999999999997,0.46399999999999997,0.46399999999999997,0.47100000000000003,0.47100000000000003,0.47100000000000003,0.46399999999999997,0.45799999999999996,0.45799999999999996,0.45799999999999996,0.45799999999999996,0.439,0.445,0.45799999999999996,0.45799999999999996,0.445,0.439,0.439,0.445,0.45799999999999996,0.445,0.45799999999999996,0.45799999999999996,0.445,0.445,0.445,0.439,0.445,0.445,0.445,0.445,0.439,0.445,0.445,0.439,0.439,0.45799999999999996,0.45799999999999996,0.46399999999999997,0.45799999999999996,0.45799999999999996,0.45799999999999996,0.439,0.426,0.413,0.426,0.426,0.413,0.4,0.38799999999999996,0.38799999999999996,0.381,0.381,0.38799999999999996,0.39399999999999996,0.39399999999999996,0.39399999999999996,0.39399999999999996,0.38799999999999996,0.39399999999999996,0.39399999999999996,0.39399999999999996,0.39399999999999996,0.4,0.39399999999999996,0.39399999999999996,0.39399999999999996,0.38799999999999996,0.39399999999999996,0.39399999999999996,0.39399999999999996,0.38799999999999996,0.39399999999999996,0.39399999999999996,0.38799999999999996,0.38799999999999996,0.39399999999999996,0.38799999999999996,0.39399999999999996,0.39399999999999996,0.4,0.39399999999999996,0.38799999999999996,0.39399999999999996,0.39399999999999996,0.39399999999999996,0.38799999999999996,0.39399999999999996,0.39399999999999996,0.39399999999999996,0.39399999999999996,0.38799999999999996,0.39399999999999996,0.39399999999999996,0.39399999999999996,0.4,0.4,0.39399999999999996,0.39399999999999996,0.39399999999999996,0.39399999999999996,0.39399999999999996,0.39399999999999996,0.4,0.40700000000000003,0.40700000000000003,0.413,0.426,0.439,0.45799999999999996,0.47100000000000003,0.49,0.509,0.541,0.56,0.5670000000000001,0.573,0.586,0.5920000000000001,0.605,0.631,0.637,0.65,0.65,0.637,0.631,0.631,0.631,0.624,0.618,0.599,0.573,0.541,0.522,0.503,0.47700000000000004,0.46399999999999997,0.46399999999999997,0.445,0.43200000000000005,0.426,0.413,0.40700000000000003,0.40700000000000003,0.40700000000000003,0.40700000000000003,0.413,0.413,0.4,0.4,0.39399999999999996,0.38799999999999996,0.39399999999999996,0.39399999999999996,0.38799999999999996,0.375,0.375,0.36200000000000004,0.35600000000000004,0.33,0.32299999999999995,0.317,0.311,0.311,0.285,0.259,0.253,0.247,0.247,0.23399999999999999,0.221,0.20199999999999999,0.20199999999999999,0.215,0.221,0.23399999999999999,0.23399999999999999,0.247,0.253,0.259,0.259,0.259,0.266,0.266,0.266,0.27899999999999997,0.266,0.285,0.292,0.298,0.311,0.317,0.298,0.298,0.298,0.311,0.311,0.311,0.311,0.311,0.311,0.311,0.298,0.298,0.311,0.298,0.311,0.311,0.298,0.298,0.311,0.311,0.311,0.317,0.311,0.311,0.298,0.298,0.292,0.298,0.311,0.317,0.311,0.311,0.298,0.285,0.298,0.311,0.311,0.317,0.317,0.311,0.317,0.32299999999999995,0.32299999999999995,0.32299999999999995,0.33,0.34299999999999997,0.35600000000000004,0.35600000000000004,0.35600000000000004,0.35600000000000004,0.35600000000000004,0.36200000000000004,0.375,0.38799999999999996,0.39399999999999996,0.4,0.40700000000000003,0.413,0.413,0.413,0.426,0.43200000000000005,0.445,0.45799999999999996,0.45799999999999996,0.46399999999999997,0.46399999999999997,0.46399999999999997,0.47100000000000003,0.47100000000000003,0.47700000000000004,N
9,0.439,0.43200000000000005,0.426,0.426,0.40700000000000003,0.40700000000000003,0.4,0.4,0.4,0.39399999999999996,0.381,0.36200000000000004,0.349,0.34299999999999997,0.33,0.317,0.317,0.311,0.292,0.27899999999999997,0.266,0.259,0.253,0.247,0.23399999999999999,0.22699999999999998,0.22699999999999998,0.22699999999999998,0.22699999999999998,0.22699999999999998,0.23399999999999999,0.247,0.253,0.253,0.253,0.253,0.259,0.259,0.259,0.266,0.27899999999999997,0.285,0.292,0.298,0.292,0.292,0.292,0.292,0.292,0.292,0.298,0.292,0.292,0.292,0.292,0.292,0.298,0.298,0.298,0.298,0.298,0.298,0.298,0.292,0.292,0.292,0.298,0.298,0.298,0.298,0.298,0.292,0.292,0.298,0.298,0.298,0.298,0.292,0.292,0.292,0.292,0.292,0.298,0.311,0.311,0.311,0.311,0.311,0.317,0.317,0.32299999999999995,0.33,0.33,0.34299999999999997,0.349,0.349,0.349,0.35600000000000004,0.375,0.381,0.381,0.39399999999999996,0.39399999999999996,0.4,0.4,0.4,0.413,0.426,0.439,0.439,0.445,0.45799999999999996,0.445,0.45799999999999996,0.46399999999999997,0.46399999999999997,0.47700000000000004,0.49,0.47700000000000004,0.47700000000000004,0.47700000000000004,0.47700000000000004,0.47700000000000004,0.47700000000000004,0.47700000000000004,0.49,0.49,0.47700000000000004,0.47100000000000003,0.47100000000000003,0.47700000000000004,0.47100000000000003,0.47100000000000003,0.47100000000000003,0.47700000000000004,0.47100000000000003,0.46399999999999997,0.45799999999999996,0.45799999999999996,0.45799999999999996,0.45799999999999996,0.46399999999999997,0.45799999999999996,0.445,0.45799999999999996,0.445,0.445,0.445,0.445,0.445,0.445,0.445,0.439,0.439,0.43200000000000005,0.43200000000000005,0.43200000000000005,0.43200000000000005,0.439,0.439,0.439,0.43200000000000005,0.43200000000000005,0.43200000000000005,0.43200000000000005,0.426,0.43200000000000005,0.43200000000000005,0.439,0.426,0.426,0.413,0.413,0.426,0.426,0.43200000000000005,0.426,0.426,0.426,0.426,0.426,0.426,0.43200000000000005,0.439,0.43200000000000005,0.43200000000000005,0.426,0.40700000000000003,0.40700000000000003,0.39399999999999996,0.39399999999999996,0.39399999999999996,0.38799999999999996,0.381,0.381,0.375,0.375,0.36200000000000004,0.375,0.375,0.381,0.375,0.375,0.375,0.375,0.375,0.375,0.381,0.381,0.381,0.381,0.381,0.381,0.375,0.375,0.381,0.38799999999999996,0.38799999999999996,0.381,0.381,0.375,0.375,0.381,0.381,0.381,0.38799999999999996,0.381,0.381,0.381,0.375,0.381,0.381,0.381,0.38799999999999996,0.38799999999999996,0.38799999999999996,0.381,0.381,0.381,0.381,0.38799999999999996,0.38799999999999996,0.39399999999999996,0.38799999999999996,0.38799999999999996,0.38799999999999996,0.381,0.38799999999999996,0.38799999999999996,0.39399999999999996,0.39399999999999996,0.40700000000000003,0.413,0.43200000000000005,0.445,0.45799999999999996,0.49,0.509,0.535,0.5539999999999999,0.5670000000000001,0.573,0.586,0.599,0.618,0.631,0.65,0.6559999999999999,0.6559999999999999,0.6629999999999999,0.6629999999999999,0.6559999999999999,0.6559999999999999,0.65,0.631,0.631,0.605,0.573,0.5539999999999999,0.528,0.509,0.503,0.49,0.47700000000000004,0.47100000000000003,0.45799999999999996,0.445,0.445,0.43200000000000005,0.439,0.43200000000000005,0.43200000000000005,0.43200000000000005,0.426,0.413,0.40700000000000003,0.4,0.39399999999999996,0.39399999999999996,0.39399999999999996,0.381,0.375,0.36200000000000004,0.349,0.33,0.32299999999999995,0.317,0.298,0.292,0.285,0.27899999999999997,0.259,0.253,0.23399999999999999,0.22699999999999998,0.221,0.215,0.215,0.215,0.215,0.221,0.22699999999999998,0.22699999999999998,0.23399999999999999,0.23399999999999999,0.247,0.253,0.253,0.253,0.253,0.253,0.266,0.27899999999999997,0.285,0.292,0.292,0.292,0.292,0.292,0.292,0.292,0.292,0.298,0.292,0.292,0.292,0.292,0.292,0.298,0.298,0.311,0.298,0.298,0.292,0.292,0.292,0.298,0.298,0.298,0.292,0.298,0.298,0.292,0.292,0.292,0.292,0.292,0.298,0.298,0.292,0.292,0.292,0.292,0.292,0.298,0.311,0.311,0.311,0.311,0.311,0.311,0.317,0.32299999999999995,0.34299999999999997,0.34299999999999997,0.349,0.349,0.349,0.36200000000000004,0.36200000000000004,0.381,0.38799999999999996,0.39399999999999996,0.4,0.4,0.40700000000000003,0.40700000000000003,0.426,0.43200000000000005,0.439,0.45799999999999996,0.45799999999999996,0.46399999999999997,0.47100000000000003,0.47100000000000003,0.46399999999999997,0.47100000000000003,0.49,0.49,0.49,0.49,0.47700000000000004,0.47700000000000004,0.496,0.496,0.496,0.496,0.503,0.496,0.496,0.49,0.49,0.49,0.49,0.49,0.49,0.49,0.49,0.47700000000000004,0.47100000000000003,0.46399999999999997,0.46399999999999997,0.47100000000000003,0.47100000000000003,0.47100000000000003,0.47100000000000003,0.47100000000000003,0.46399999999999997,0.46399999999999997,0.46399999999999997,0.47100000000000003,0.47100000000000003,0.47100000000000003,0.46399999999999997,0.45799999999999996,0.45799999999999996,0.45799999999999996,0.45799999999999996,0.439,0.445,0.45799999999999996,0.45799999999999996,0.445,0.439,0.439,0.445,0.45799999999999996,0.445,0.45799999999999996,0.45799999999999996,0.445,0.445,0.445,0.439,0.445,0.445,0.445,0.445,0.439,0.445,0.445,0.439,0.439,0.45799999999999996,0.45799999999999996,0.46399999999999997,0.45799999999999996,0.45799999999999996,0.45799999999999996,0.439,0.426,0.413,0.426,0.426,0.413,0.4,0.38799999999999996,0.38799999999999996,0.381,0.381,0.38799999999999996,0.39399999999999996,0.39399999999999996,0.39399999999999996,0.39399999999999996,0.38799999999999996,0.39399999999999996,0.39399999999999996,0.39399999999999996,0.39399999999999996,0.4,0.39399999999999996,0.39399999999999996,0.39399999999999996,0.38799999999999996,0.39399999999999996,0.39399999999999996,0.39399999999999996,0.38799999999999996,0.39399999999999996,0.39399999999999996,0.38799999999999996,0.38799999999999996,0.39399999999999996,0.38799999999999996,0.39399999999999996,0.39399999999999996,0.4,0.39399999999999996,0.38799999999999996,0.39399999999999996,0.39399999999999996,0.39399999999999996,0.38799999999999996,0.39399999999999996,0.39399999999999996,0.39399999999999996,0.39399999999999996,0.38799999999999996,0.39399999999999996,0.39399999999999996,0.39399999999999996,0.4,0.4,0.39399999999999996,0.39399999999999996,0.39399999999999996,0.39399999999999996,0.39399999999999996,0.39399999999999996,0.4,0.40700000000000003,0.40700000000000003,0.413,0.426,0.439,0.45799999999999996,0.47100000000000003,0.49,0.509,0.541,0.56,0.5670000000000001,0.573,0.586,0.5920000000000001,0.605,0.631,0.637,0.65,0.65,0.637,0.631,0.631,0.631,0.624,0.618,0.599,0.573,0.541,0.522,0.503,0.47700000000000004,0.46399999999999997,0.46399999999999997,0.445,0.43200000000000005,0.426,0.413,0.40700000000000003,0.40700000000000003,0.40700000000000003,0.40700000000000003,0.413,0.413,0.4,0.4,0.39399999999999996,0.38799999999999996,0.39399999999999996,0.39399999999999996,0.38799999999999996,0.375,0.375,0.36200000000000004,0.35600000000000004,0.33,0.32299999999999995,0.317,0.311,0.311,0.285,0.259,0.253,0.247,0.247,0.23399999999999999,0.221,0.20199999999999999,0.20199999999999999,0.215,0.221,0.23399999999999999,0.23399999999999999,0.247,0.253,0.259,0.259,0.259,0.266,0.266,0.266,0.27899999999999997,0.266,0.285,0.292,0.298,0.311,0.317,0.298,0.298,0.298,0.311,0.311,0.311,0.311,0.311,0.311,0.311,0.298,0.298,0.311,0.298,0.311,0.311,0.298,0.298,0.311,0.311,0.311,0.317,0.311,0.311,0.298,0.298,0.292,0.298,0.311,0.317,0.311,0.311,0.298,0.285,0.298,0.311,0.311,0.317,0.317,0.311,0.317,0.32299999999999995,0.32299999999999995,0.32299999999999995,0.33,0.34299999999999997,0.35600000000000004,0.35600000000000004,0.35600000000000004,0.35600000000000004,0.35600000000000004,0.36200000000000004,0.375,0.38799999999999996,0.39399999999999996,0.4,0.40700000000000003,0.413,0.413,0.413,0.426,0.43200000000000005,0.445,0.45799999999999996,0.45799999999999996,0.46399999999999997,0.46399999999999997,0.46399999999999997,0.47100000000000003,0.47100000000000003,0.47700000000000004,0.47700000000000004,0.47700000000000004,0.47100000000000003,0.47100000000000003,0.47700000000000004,0.47700000000000004,0.47700000000000004,0.49,0.49,0.49,0.49,0.49,0.47100000000000003,0.47100000000000003,0.47100000000000003,0.46399999999999997,0.46399999999999997,0.46399999999999997,0.46399999999999997,0.45799999999999996,0.45799999999999996,0.445,0.445,0.439,0.445,0.445,0.439,0.43200000000000005,0.426,0.426,0.413,0.426,0.426,0.43200000000000005,0.43200000000000005,0.413,0.413,0.413,0.413,0.413,0.426,0.426,0.426,0.413,0.40700000000000003,0.40700000000000003,0.40700000000000003,0.4,0.4,0.40700000000000003,0.413,0.413,0.426,0.413,0.413,0.40700000000000003,0.40700000000000003,0.413,0.413,0.413,0.413,0.40700000000000003,0.40700000000000003,0.4,0.4,0.4,0.40700000000000003,0.40700000000000003,0.4,0.40700000000000003,0.40700000000000003,0.40700000000000003,0.40700000000000003,0.40700000000000003,0.426,0.413,0.413,0.39399999999999996,0.38799999999999996,0.381,0.381,0.375,0.36200000000000004,0.36200000000000004,0.36200000000000004,0.36200000000000004,0.35600000000000004,0.35600000000000004,0.35600000000000004,0.35600000000000004,0.35600000000000004,0.35600000000000004,0.35600000000000004,0.36200000000000004,0.36200000000000004,0.35600000000000004,0.35600000000000004,0.36200000000000004,0.36200000000000004,0.375,0.375,0.36200000000000004,0.36200000000000004,0.36200000000000004,0.35600000000000004,0.36200000000000004,0.36200000000000004,0.36200000000000004,0.375,0.36200000000000004,0.36200000000000004,0.35600000000000004,0.35600000000000004,0.35600000000000004,0.35600000000000004,0.36200000000000004,0.36200000000000004,0.36200000000000004,0.36200000000000004,0.36200000000000004,0.36200000000000004,0.36200000000000004,0.35600000000000004,0.36200000000000004,0.36200000000000004,0.375,0.36200000000000004,0.375,0.36200000000000004,0.35600000000000004,0.36200000000000004,0.375,0.375,0.36200000000000004,0.375,0.375,0.36200000000000004,0.375,0.36200000000000004,0.375,0.38799999999999996,0.40700000000000003,0.426,0.439,0.45799999999999996,0.47700000000000004,0.503,0.522,0.535,0.56,0.573,0.586,0.5920000000000001,0.605,0.618,0.624,0.631,0.631,0.637,0.637,0.637,0.631,0.618,0.605,0.5920000000000001,0.5670000000000001,0.541,0.528,0.503,0.49,0.46399999999999997,0.45799999999999996,0.45799999999999996,0.439,0.43200000000000005,0.43200000000000005,0.413,0.413,0.413,0.40700000000000003,0.40700000000000003,0.40700000000000003,0.4,0.4,0.39399999999999996,0.38799999999999996,0.38799999999999996,0.381,0.375,0.375,0.35600000000000004,0.349,0.34299999999999997,0.32299999999999995,0.311,0.298,0.285,0.266,0.259,0.266,0.259,0.253,0.23399999999999999,0.22699999999999998,0.215,0.215,0.20199999999999999,0.221,0.221,0.22699999999999998,0.22699999999999998,0.23399999999999999,0.23399999999999999,0.23399999999999999,0.247,0.253,0.253,0.259,0.266,0.27899999999999997,0.266,0.27899999999999997,0.285,0.292,0.292,0.298,0.298,0.292,0.285,0.285,0.285,0.292,0.292,0.298,0.292,0.292,0.292,0.285,0.292,0.292,0.292,0.292,0.292,0.292,0.292,0.292,0.285,0.285,0.292,0.292,0.298,0.292,0.292,0.292,0.292,0.285,0.285,0.292,0.298,0.292,0.285,0.285,0.292,0.285,0.292,0.298,0.311,0.311,0.311,0.311,0.317,0.32299999999999995,0.32299999999999995,0.33,0.34299999999999997,0.34299999999999997,0.349,0.35600000000000004,0.36200000000000004,0.36200000000000004,0.381,0.38799999999999996,0.39399999999999996,0.4,0.4,0.40700000000000003,0.413,0.426,0.426,0.43200000000000005,0.439,0.445,0.45799999999999996,0.45799999999999996,0.45799999999999996,0.46399999999999997,0.46399999999999997,0.47100000000000003,0.47700000000000004,0.47700000000000004,N
10,0.43200000000000005,0.43200000000000005,0.43200000000000005,0.426,0.413,0.40700000000000003,0.4,0.39399999999999996,0.39399999999999996,0.39399999999999996,0.381,0.375,0.36200000000000004,0.349,0.33,0.32299999999999995,0.317,0.298,0.292,0.285,0.27899999999999997,0.259,0.253,0.23399999999999999,0.22699999999999998,0.221,0.215,0.215,0.215,0.215,0.221,0.22699999999999998,0.22699999999999998,0.23399999999999999,0.23399999999999999,0.247,0.253,0.253,0.253,0.253,0.253,0.266,0.27899999999999997,0.285,0.292,0.292,0.292,0.292,0.292,0.292,0.292,0.292,0.298,0.292,0.292,0.292,0.292,0.292,0.298,0.298,0.311,0.298,0.298,0.292,0.292,0.292,0.298,0.298,0.298,0.292,0.298,0.298,0.292,0.292,0.292,0.292,0.292,0.298,0.298,0.292,0.292,0.292,0.292,0.292,0.298,0.311,0.311,0.311,0.311,0.311,0.311,0.317,0.32299999999999995,0.34299999999999997,0.34299999999999997,0.349,0.349,0.349,0.36200000000000004,0.36200000000000004,0.381,0.38799999999999996,0.39399999999999996,0.4,0.4,0.40700000000000003,0.40700000000000003,0.426,0.43200000000000005,0.439,0.45799999999999996,0.45799999999999996,0.46399999999999997,0.47100000000000003,0.47100000000000003,0.46399999999999997,0.47100000000000003,0.49,0.49,0.49,0.49,0.47700000000000004,0.47700000000000004,0.496,0.496,0.496,0.496,0.503,0.496,0.496,0.49,0.49,0.49,0.49,0.49,0.49,0.49,0.49,0.47700000000000004,0.47100000000000003,0.46399999999999997,0.46399999999999997,0.47100000000000003,0.47100000000000003,0.47100000000000003,0.47100000000000003,0.47100000000000003,0.46399999999999997,0.46399999999999997,0.46399999999999997,0.47100000000000003,0.47100000000000003,0.47100000000000003,0.46399999999999997,0.45799999999999996,0.45799999999999996,0.45799999999999996,0.45799999999999996,0.439,0.445,0.45799999999999996,0.45799999999999996,0.445,0.439,0.439,0.445,0.45799999999999996,0.445,0.45799999999999996,0.45799999999999996,0.445,0.445,0.445,0.439,0.445,0.445,0.445,0.445,0.439,0.445,0.445,0.439,0.439,0.45799999999999996,0.45799999999999996,0.46399999999999997,0.45799999999999996,0.45799999999999996,0.45799999999999996,0.439,0.426,0.413,0.426,0.426,0.413,0.4,0.38799999999999996,0.38799999999999996,0.381,0.381,0.38799999999999996,0.39399999999999996,0.39399999999999996,0.39399999999999996,0.39399999999999996,0.38799999999999996,0.39399999999999996,0.39399999999999996,0.39399999999999996,0.39399999999999996,0.4,0.39399999999999996,0.39399999999999996,0.39399999999999996,0.38799999999999996,0.39399999999999996,0.39399999999999996,0.39399999999999996,0.38799999999999996,0.39399999999999996,0.39399999999999996,0.38799999999999996,0.38799999999999996,0.39399999999999996,0.38799999999999996,0.39399999999999996,0.39399999999999996,0.4,0.39399999999999996,0.38799999999999996,0.39399999999999996,0.39399999999999996,0.39399999999999996,0.38799999999999996,0.39399999999999996,0.39399999999999996,0.39399999999999996,0.39399999999999996,0.38799999999999996,0.39399999999999996,0.39399999999999996,0.39399999999999996,0.4,0.4,0.39399999999999996,0.39399999999999996,0.39399999999999996,0.39399999999999996,0.39399999999999996,0.39399999999999996,0.4,0.40700000000000003,0.40700000000000003,0.413,0.426,0.439,0.45799999999999996,0.47100000000000003,0.49,0.509,0.541,0.56,0.5670000000000001,0.573,0.586,0.5920000000000001,0.605,0.631,0.637,0.65,0.65,0.637,0.631,0.631,0.631,0.624,0.618,0.599,0.573,0.541,0.522,0.503,0.47700000000000004,0.46399999999999997,0.46399999999999997,0.445,0.43200000000000005,0.426,0.413,0.40700000000000003,0.40700000000000003,0.40700000000000003,0.40700000000000003,0.413,0.413,0.4,0.4,0.39399999999999996,0.38799999999999996,0.39399999999999996,0.39399999999999996,0.38799999999999996,0.375,0.375,0.36200000000000004,0.35600000000000004,0.33,0.32299999999999995,0.317,0.311,0.311,0.285,0.259,0.253,0.247,0.247,0.23399999999999999,0.221,0.20199999999999999,0.20199999999999999,0.215,0.221,0.23399999999999999,0.23399999999999999,0.247,0.253,0.259,0.259,0.259,0.266,0.266,0.266,0.27899999999999997,0.266,0.285,0.292,0.298,0.311,0.317,0.298,0.298,0.298,0.311,0.311,0.311,0.311,0.311,0.311,0.311,0.298,0.298,0.311,0.298,0.311,0.311,0.298,0.298,0.311,0.311,0.311,0.317,0.311,0.311,0.298,0.298,0.292,0.298,0.311,0.317,0.311,0.311,0.298,0.285,0.298,0.311,0.311,0.317,0.317,0.311,0.317,0.32299999999999995,0.32299999999999995,0.32299999999999995,0.33,0.34299999999999997,0.35600000000000004,0.35600000000000004,0.35600000000000004,0.35600000000000004,0.35600000000000004,0.36200000000000004,0.375,0.38799999999999996,0.39399999999999996,0.4,0.40700000000000003,0.413,0.413,0.413,0.426,0.43200000000000005,0.445,0.45799999999999996,0.45799999999999996,0.46399999999999997,0.46399999999999997,0.46399999999999997,0.47100000000000003,0.47100000000000003,0.47700000000000004,0.47700000000000004,0.47700000000000004,0.47100000000000003,0.47100000000000003,0.47700000000000004,0.47700000000000004,0.47700000000000004,0.49,0.49,0.49,0.49,0.49,0.47100000000000003,0.47100000000000003,0.47100000000000003,0.46399999999999997,0.46399999999999997,0.46399999999999997,0.46399999999999997,0.45799999999999996,0.45799999999999996,0.445,0.445,0.439,0.445,0.445,0.439,0.43200000000000005,0.426,0.426,0.413,0.426,0.426,0.43200000000000005,0.43200000000000005,0.413,0.413,0.413,0.413,0.413,0.426,0.426,0.426,0.413,0.40700000000000003,0.40700000000000003,0.40700000000000003,0.4,0.4,0.40700000000000003,0.413,0.413,0.426,0.413,0.413,0.40700000000000003,0.40700000000000003,0.413,0.413,0.413,0.413,0.40700000000000003,0.40700000000000003,0.4,0.4,0.4,0.40700000000000003,0.40700000000000003,0.4,0.40700000000000003,0.40700000000000003,0.40700000000000003,0.40700000000000003,0.40700000000000003,0.426,0.413,0.413,0.39399999999999996,0.38799999999999996,0.381,0.381,0.375,0.36200000000000004,0.36200000000000004,0.36200000000000004,0.36200000000000004,0.35600000000000004,0.35600000000000004,0.35600000000000004,0.35600000000000004,0.35600000000000004,0.35600000000000004,0.35600000000000004,0.36200000000000004,0.36200000000000004,0.35600000000000004,0.35600000000000004,0.36200000000000004,0.36200000000000004,0.375,0.375,0.36200000000000004,0.36200000000000004,0.36200000000000004,0.35600000000000004,0.36200000000000004,0.36200000000000004,0.36200000000000004,0.375,0.36200000000000004,0.36200000000000004,0.35600000000000004,0.35600000000000004,0.35600000000000004,0.35600000000000004,0.36200000000000004,0.36200000000000004,0.36200000000000004,0.36200000000000004,0.36200000000000004,0.36200000000000004,0.36200000000000004,0.35600000000000004,0.36200000000000004,0.36200000000000004,0.375,0.36200000000000004,0.375,0.36200000000000004,0.35600000000000004,0.36200000000000004,0.375,0.375,0.36200000000000004,0.375,0.375,0.36200000000000004,0.375,0.36200000000000004,0.375,0.38799999999999996,0.40700000000000003,0.426,0.439,0.45799999999999996,0.47700000000000004,0.503,0.522,0.535,0.56,0.573,0.586,0.5920000000000001,0.605,0.618,0.624,0.631,0.631,0.637,0.637,0.637,0.631,0.618,0.605,0.5920000000000001,0.5670000000000001,0.541,0.528,0.503,0.49,0.46399999999999997,0.45799999999999996,0.45799999999999996,0.439,0.43200000000000005,0.43200000000000005,0.413,0.413,0.413,0.40700000000000003,0.40700000000000003,0.40700000000000003,0.4,0.4,0.39399999999999996,0.38799999999999996,0.38799999999999996,0.381,0.375,0.375,0.35600000000000004,0.349,0.34299999999999997,0.32299999999999995,0.311,0.298,0.285,0.266,0.259,0.266,0.259,0.253,0.23399999999999999,0.22699999999999998,0.215,0.215,0.20199999999999999,0.221,0.221,0.22699999999999998,0.22699999999999998,0.23399999999999999,0.23399999999999999,0.23399999999999999,0.247,0.253,0.253,0.259,0.266,0.27899999999999997,0.266,0.27899999999999997,0.285,0.292,0.292,0.298,0.298,0.292,0.285,0.285,0.285,0.292,0.292,0.298,0.292,0.292,0.292,0.285,0.292,0.292,0.292,0.292,0.292,0.292,0.292,0.292,0.285,0.285,0.292,0.292,0.298,0.292,0.292,0.292,0.292,0.285,0.285,0.292,0.298,0.292,0.285,0.285,0.292,0.285,0.292,0.298,0.311,0.311,0.311,0.311,0.317,0.32299999999999995,0.32299999999999995,0.33,0.34299999999999997,0.34299999999999997,0.349,0.35600000000000004,0.36200000000000004,0.36200000000000004,0.381,0.38799999999999996,0.39399999999999996,0.4,0.4,0.40700000000000003,0.413,0.426,0.426,0.43200000000000005,0.439,0.445,0.45799999999999996,0.45799999999999996,0.45799999999999996,0.46399999999999997,0.46399999999999997,0.47100000000000003,0.47700000000000004,0.47700000000000004,0.49,0.49,0.49,0.47700000000000004,0.47700000000000004,0.47700000000000004,0.47700000000000004,0.47700000000000004,0.49,0.47700000000000004,0.47700000000000004,0.47100000000000003,0.46399999999999997,0.46399999999999997,0.46399999999999997,0.46399999999999997,0.46399999999999997,0.45799999999999996,0.45799999999999996,0.445,0.445,0.439,0.439,0.439,0.445,0.445,0.439,0.439,0.439,0.43200000000000005,0.426,0.43200000000000005,0.439,0.439,0.439,0.43200000000000005,0.426,0.426,0.426,0.426,0.426,0.43200000000000005,0.43200000000000005,0.43200000000000005,0.426,0.426,0.426,0.426,0.426,0.426,0.426,0.426,0.426,0.413,0.413,0.413,0.413,0.413,0.426,0.43200000000000005,0.426,0.426,0.413,0.426,0.426,0.426,0.43200000000000005,0.426,0.40700000000000003,0.39399999999999996,0.39399999999999996,0.38799999999999996,0.38799999999999996,0.381,0.381,0.375,0.381,0.375,0.36200000000000004,0.36200000000000004,0.36200000000000004,0.375,0.375,0.375,0.381,0.375,0.375,0.36200000000000004,0.375,0.381,0.381,0.38799999999999996,0.381,0.381,0.381,0.375,0.375,0.375,0.381,0.381,0.381,0.381,0.381,0.375,0.375,0.381,0.381,0.381,0.38799999999999996,0.381,0.381,0.375,0.381,0.381,0.375,0.381,0.381,0.381,0.381,0.381,0.375,0.375,0.381,0.38799999999999996,0.38799999999999996,0.38799999999999996,0.38799999999999996,0.38799999999999996,0.38799999999999996,0.38799999999999996,0.38799999999999996,0.4,0.413,0.43200000000000005,0.445,0.46399999999999997,0.49,0.503,0.528,0.5539999999999999,0.5670000000000001,0.586,0.5920000000000001,0.605,0.618,0.631,0.637,0.65,0.6559999999999999,0.6559999999999999,0.6629999999999999,0.6629999999999999,0.6629999999999999,0.65,0.637,0.624,0.605,0.586,0.56,0.541,0.522,0.503,0.47700000000000004,0.47100000000000003,0.45799999999999996,0.45799999999999996,0.445,0.439,0.43200000000000005,0.43200000000000005,0.426,0.426,0.426,0.413,0.426,0.40700000000000003,0.413,0.39399999999999996,0.38799999999999996,0.38799999999999996,0.375,0.375,0.36200000000000004,0.349,0.34299999999999997,0.32299999999999995,0.311,0.311,0.285,0.285,0.266,0.266,0.259,0.247,0.22699999999999998,0.221,0.20199999999999999,0.20199999999999999,0.215,0.221,0.22699999999999998,0.22699999999999998,0.23399999999999999,0.22699999999999998,0.23399999999999999,0.23399999999999999,0.247,0.253,0.259,0.259,0.259,0.266,0.266,0.27899999999999997,0.285,0.285,0.292,0.292,0.292,0.285,0.285,0.285,0.292,0.292,0.292,0.292,0.292,0.292,0.292,0.285,0.292,0.285,0.292,0.292,0.292,0.292,0.292,0.285,0.285,0.292,0.292,0.298,0.292,0.285,0.285,0.285,0.285,0.285,0.285,0.292,0.292,0.292,0.285,0.292,0.292,0.292,0.298,0.311,0.311,0.311,0.311,0.317,0.311,0.317,0.32299999999999995,0.33,0.34299999999999997,0.349,0.35600000000000004,0.35600000000000004,0.36200000000000004,0.36200000000000004,0.381,0.38799999999999996,0.39399999999999996,0.4,0.4,0.40700000000000003,0.413,0.413,0.426,0.439,0.445,0.45799999999999996,0.45799999999999996,0.45799999999999996,0.45799999999999996,0.45799999999999996,0.46399999999999997,0.46399999999999997,N
