0,0.007,-0.013,-0.034,-0.054,-0.075,-0.082,-0.082,-0.082,-0.075,-0.075,-0.075,-0.075,-0.082,-0.075,-0.082,-0.075,-0.075,-0.075,-0.075,-0.075,-0.075,-0.075,-0.075,-0.075,-0.075,-0.075,-0.075,-0.075,-0.075,-0.075,-0.075,-0.075,-0.075,-0.075,-0.075,-0.075,-0.082,-0.075,-0.075,-0.082,-0.075,-0.082,-0.075,-0.082,-0.082,-0.082,-0.089,-0.082,-0.082,-0.082,-0.082,-0.082,-0.082,-0.082,-0.089,-0.089,-0.082,-0.082,-0.089,-0.089,-0.089,-0.082,-0.089,-0.089,-0.089,-0.089,-0.102,-0.089,-0.089,-0.089,-0.089,-0.082,-0.082,-0.082,-0.089,-0.089,-0.082,-0.082,-0.082,-0.089,-0.089,-0.082,-0.082,-0.082,-0.082,-0.082,-0.075,-0.075,-0.075,-0.075,-0.075,-0.061,-0.061,-0.061,-0.054,-0.054,-0.054,-0.041,-0.041,-0.041,-0.041,-0.034,-0.034,-0.034,-0.027,-0.027,-0.027,-0.013,-0.027,-0.027,-0.027,-0.013,-0.013,-0.013,-0.006,-0.006,-0.006,-0.006,0.001,-0.006,-0.006,0.001,0.001,0.001,0.001,0.001,0.001,0.007,0.007,0.007,0.007,0.007,0.007,0.007,0.007,0.007,0.007,0.007,0.007,0.001,0.007,0.007,0.007,0.007,0.007,0.007,0.001,0.007,0.007,0.001,0.001,0.001,0.001,0.001,0.001,0.001,0.001,0.001,-0.006,-0.006,0.001,-0.006,-0.006,-0.006,-0.006,-0.006,-0.006,-0.006,-0.006,-0.006,-0.006,-0.006,-0.006,-0.006,-0.006,-0.013,-0.006,-0.006,-0.006,-0.006,-0.013,-0.013,-0.013,-0.013,-0.013,-0.013,-0.013,-0.013,-0.027,-0.013,-0.013,-0.013,-0.013,-0.013,-0.013,-0.013,-0.013,-0.013,-0.013,-0.013,-0.013,-0.013,-0.013,-0.013,-0.006,-0.013,-0.013,-0.006,-0.013,-0.013,-0.013,-0.006,-0.013,-0.013,-0.006,-0.006,0.007,0.001,0.001,0.001,0.001,0.001,0.001,0.001,0.001,0.001,0.001,0.001,0.001,0.001,0.001,0.001,0.001,0.001,0.001,0.001,0.001,0.001,0.001,0.001,0.001,0.001,0.001,0.001,0.001,0.001,0.001,0.007,0.007,0.007,0.007,0.001,0.001,0.001,-0.006,0.001,0.001,0.001,0.001,0.001,0.001,0.001,0.001,0.001,-0.006,-0.013,-0.013,-0.027,-0.027,-0.034,-0.041,-0.041,-0.041,-0.034,-0.041,-0.034,-0.034,-0.034,-0.034,-0.034,-0.041,-0.041,-0.034,-0.041,-0.041,-0.034,-0.034,-0.034,-0.027,-0.006,-0.006,-0.006,0.001,0.007,0.014,0.007,0.014,0.014,0.014,0.014,0.014,0.014,0.014,0.007,0.007,0.007,0.014,0.014,0.007,0.007,0.014,0.014,0.007,0.014,0.007,0.014,0.014,0.007,0.007,0.007,0.007,0.007,0.014,0.014,0.014,0.014,0.014,0.014,0.014,0.014,0.014,0.007,0.014,0.014,0.035,0.042,0.083,0.117,0.179,0.233,0.302,0.378,0.432,0.467,0.487,0.494,0.494,0.487,0.467,0.418,0.378,0.378,0.364,0.364,0.343,0.329,0.302,0.268,0.254,0.233,0.206,0.165,0.117,0.083,0.042,0.014,-0.006,-0.034,-0.041,-0.061,-0.075,-0.082,-0.082,-0.082,-0.082,-0.075,-0.075,-0.075,-0.075,-0.075,-0.075,-0.075,-0.075,-0.075,-0.075,-0.075,-0.075,-0.075,-0.075,-0.082,-0.075,-0.075,-0.075,-0.075,-0.075,-0.082,-0.082,-0.075,-0.082,-0.075,-0.075,-0.082,-0.082,-0.082,-0.075,-0.082,-0.082,-0.082,-0.089,-0.082,-0.082,-0.082,-0.089,-0.082,-0.082,-0.089,-0.082,-0.082,-0.082,-0.082,-0.082,-0.089,-0.089,-0.082,-0.089,-0.089,-0.089,-0.089,-0.089,-0.089,-0.089,-0.089,-0.089,-0.089,-0.089,-0.082,-0.089,-0.089,-0.089,-0.089,-0.089,-0.082,-0.082,-0.089,-0.089,-0.082,-0.082,-0.082,-0.082,-0.075,-0.075,-0.075,-0.075,-0.075,-0.075,-0.061,-0.061,-0.054,-0.054,-0.061,-0.054,-0.054,-0.041,-0.041,-0.041,-0.041,-0.034,-0.034,-0.034,-0.027,-0.034,-0.027,-0.027,-0.027,-0.027,-0.027,-0.013,-0.013,-0.013,-0.013,-0.006,-0.006,-0.006,-0.013,-0.006,0.001,-0.006,-0.006,-0.006,0.001,0.001,0.001,0.001,0.001,0.001,0.001,0.001,-0.006,0.001,0.001,0.001,0.001,0.001,0.001,0.001,0.001,0.001,0.001,0.001,0.001,-0.006,0.001,0.001,0.001,0.001,-0.006,0.001,0.001,-0.006,0.001,-0.006,-0.006,-0.006,-0.013,-0.006,-0.006,-0.006,-0.006,-0.006,-0.006,-0.006,-0.006,-0.006,-0.006,-0.006,-0.006,-0.006,-0.006,-0.006,-0.006,-0.006,-0.006,-0.006,-0.006,-0.013,-0.006,-0.006,-0.006,-0.013,-0.013,-0.006,-0.006,-0.006,-0.006,-0.006,0.001,-0.006,-0.006,-0.006,-0.006,-0.006,-0.006,-0.006,-0.006,-0.006,-0.006,-0.006,0.001,-0.006,0.001,-0.006,-0.006,-0.006,0.001,0.001,0.001,0.001,N,,,,,,,,,,,,,,,,,,,,,,,,,,,,,,,,,,,,,,,,,,,,,,,,,,,,,,,,,,,,,,,,,,,,,,,,,,,,,,,,,,,,,,,,,,,,,,,,,,,,,,,,,,,,,,,,,,,,,,,,,,,,,,,,,,,,,,,,,,,,,,,,,,,,,,,,,,,,,,,,,,,,,,,,,,,,,,,,,,,,,,,,,,,,,,,,,,,,,,,,,,,,,,,,,,,,,,,,,,,,,,,,,,,,,,,,,,,,,,,,,,,,,,,,,,,,,,,,,,,,,,,,,,,,,,,,,,,,,,,,,,,,,,,,,,,,,,,,,,,,,,,,,,,,,,,,,,,,,,,,,,,,,,,,,,,,,,,,,,,,,,,,,,,,,,,,,,,,,,,,,,,,,,,,,,,,,,,,,,,,,,,,,,,,,,,,,,,,,,,,,,,,,,,,,,,,,,,,,,,,,,,
1,0.001,-0.013,-0.041,-0.061,-0.075,-0.082,-0.075,-0.075,-0.075,-0.075,-0.075,-0.075,-0.075,-0.075,-0.075,-0.075,-0.075,-0.075,-0.075,-0.075,-0.075,-0.075,-0.075,-0.075,-0.075,-0.075,-0.082,-0.082,-0.075,-0.075,-0.082,-0.075,-0.075,-0.075,-0.075,-0.075,-0.082,-0.082,-0.082,-0.082,-0.082,-0.082,-0.082,-0.082,-0.082,-0.082,-0.089,-0.082,-0.089,-0.089,-0.089,-0.082,-0.082,-0.082,-0.082,-0.082,-0.082,-0.089,-0.082,-0.082,-0.082,-0.089,-0.089,-0.089,-0.089,-0.089,-0.089,-0.089,-0.089,-0.089,-0.082,-0.089,-0.089,-0.089,-0.082,-0.082,-0.089,-0.089,-0.089,-0.089,-0.089,-0.082,-0.082,-0.082,-0.082,-0.082,-0.075,-0.075,-0.075,-0.061,-0.075,-0.061,-0.061,-0.054,-0.054,-0.054,-0.054,-0.054,-0.041,-0.041,-0.034,-0.034,-0.034,-0.034,-0.034,-0.027,-0.027,-0.027,-0.013,-0.013,-0.013,-0.013,-0.013,-0.006,-0.006,-0.006,-0.006,-0.006,0.001,0.001,0.001,0.001,0.007,0.007,0.007,0.007,0.001,0.007,0.007,0.007,0.014,0.014,0.014,0.014,0.007,0.014,0.007,0.007,0.007,0.007,0.014,0.007,0.007,0.007,0.007,0.007,0.007,0.014,0.007,0.007,0.007,0.007,0.007,0.001,0.007,0.007,0.001,0.001,0.001,0.001,0.001,0.001,0.001,0.001,0.001,0.001,0.001,0.001,-0.006,-0.006,-0.006,-0.006,-0.006,-0.006,-0.006,-0.006,-0.013,-0.006,-0.006,-0.006,-0.013,-0.006,-0.006,-0.013,-0.013,-0.006,-0.013,-0.013,-0.006,-0.013,-0.013,-0.013,-0.006,-0.006,-0.006,-0.006,-0.006,-0.006,-0.013,-0.013,-0.013,-0.013,-0.013,-0.013,-0.006,-0.013,-0.013,-0.006,-0.013,-0.006,-0.006,-0.006,-0.006,-0.006,-0.006,-0.006,-0.006,-0.006,0.001,-0.006,0.001,-0.006,0.001,0.001,0.001,0.001,-0.006,0.001,0.001,0.001,0.007,0.001,0.001,0.007,0.001,0.001,0.001,0.001,0.001,0.007,0.001,0.007,0.007,0.007,0.007,0.007,0.007,0.007,0.014,0.007,0.007,0.007,0.001,0.001,0.001,0.007,0.001,0.007,0.007,0.007,0.001,0.001,0.001,-0.006,-0.013,-0.027,-0.027,-0.034,-0.034,-0.041,-0.054,-0.041,-0.041,-0.041,-0.041,-0.041,-0.041,-0.041,-0.041,-0.041,-0.041,-0.054,-0.054,-0.041,-0.041,-0.041,-0.034,-0.027,-0.013,-0.013,-0.006,0.001,0.001,0.007,0.007,0.007,0.007,0.014,0.007,0.014,0.007,0.007,0.007,0.007,0.007,0.007,0.007,0.007,0.007,0.007,0.007,0.001,0.007,0.007,0.007,0.007,0.007,0.007,0.001,0.007,0.007,0.014,0.007,0.007,0.007,0.007,0.007,0.007,0.007,0.007,0.007,0.007,0.007,0.014,0.035,0.062,0.103,0.158,0.213,0.282,0.343,0.405,0.453,0.48,0.494,0.494,0.494,0.487,0.453,0.391,0.384,0.384,0.378,0.378,0.357,0.329,0.288,0.268,0.254,0.233,0.206,0.158,0.117,0.083,0.042,0.014,-0.006,-0.027,-0.041,-0.061,-0.075,-0.082,-0.075,-0.075,-0.075,-0.075,-0.075,-0.075,-0.075,-0.075,-0.075,-0.075,-0.075,-0.075,-0.075,-0.082,-0.075,-0.075,-0.075,-0.075,-0.075,-0.075,-0.075,-0.082,-0.075,-0.075,-0.075,-0.075,-0.075,-0.075,-0.082,-0.082,-0.082,-0.082,-0.082,-0.075,-0.082,-0.082,-0.082,-0.082,-0.082,-0.089,-0.082,-0.082,-0.082,-0.082,-0.082,-0.082,-0.089,-0.089,-0.089,-0.082,-0.082,-0.082,-0.082,-0.082,-0.089,-0.089,-0.089,-0.089,-0.102,-0.089,-0.089,-0.089,-0.089,-0.089,-0.089,-0.089,-0.089,-0.082,-0.089,-0.082,-0.082,-0.089,-0.082,-0.089,-0.082,-0.082,-0.082,-0.082,-0.075,-0.075,-0.075,-0.075,-0.061,-0.061,-0.061,-0.061,-0.054,-0.054,-0.054,-0.054,-0.041,-0.041,-0.041,-0.041,-0.034,-0.034,-0.034,-0.034,-0.027,-0.027,-0.027,-0.013,-0.013,-0.013,-0.013,-0.013,-0.013,-0.006,-0.006,-0.006,-0.006,0.001,0.001,0.001,0.001,0.001,0.001,0.007,0.007,0.007,0.007,0.007,0.007,0.007,0.007,0.007,0.007,0.014,0.014,0.014,0.014,0.014,0.007,0.007,0.007,0.007,0.007,0.007,0.007,0.007,0.007,0.007,0.007,0.001,0.007,0.007,0.001,0.001,0.001,0.001,0.001,0.001,0.001,0.001,-0.006,-0.006,-0.006,-0.006,0.001,0.001,-0.006,-0.006,-0.006,0.001,-0.006,-0.006,-0.006,-0.013,-0.006,-0.013,-0.006,-0.006,-0.013,-0.006,-0.013,-0.006,-0.006,-0.006,-0.006,-0.013,-0.013,-0.013,-0.013,-0.013,-0.006,-0.013,-0.013,-0.006,-0.013,-0.013,-0.013,-0.006,-0.013,-0.006,-0.006,-0.006,-0.013,-0.006,-0.013,-0.006,-0.006,-0.013,-0.006,-0.006,-0.006,-0.006,-0.006,-0.006,-0.006,-0.006,0.001,-0.006,-0.006,-0.006,-0.006,0.001,-0.006,-0.006,-0.006,0.001,0.001,0.001,0.001,0.001,0.001,0.001,0.001,0.001,-0.006,0.001,0.001,0.001,0.001,0.001,0.001,0.001,0.001,0.007,0.007,0.007,0.007,0.007,0.007,0.007,0.007,0.001,0.001,0.001,0.001,0.001,0.001,0.007,0.001,0.007,0.001,0.001,-0.006,-0.013,-0.027,-0.034,-0.041,-0.041,-0.041,-0.041,-0.054,-0.054,-0.054,-0.054,-0.054,-0.041,-0.041,-0.041,-0.041,-0.054,-0.054,-0.054,-0.041,-0.041,-0.041,-0.034,-0.027,-0.027,-0.013,-0.013,-0.006,0.001,0.007,0.007,0.007,0.007,0.007,0.007,0.007,0.007,0.007,0.007,0.007,0.007,0.007,0.007,0.007,0.007,0.007,0.007,0.007,0.007,0.007,0.007,0.007,0.007,0.007,0.007,0.001,0.001,0.007,0.007,0.007,0.007,0.014,0.007,0.007,0.007,0.007,0.007,0.007,0.014,0.007,0.028,0.055,0.083,0.131,0.186,0.254,0.316,0.384,0.439,0.467,0.487,0.494,0.487,0.487,0.467,0.418,0.378,0.384,0.378,0.378,0.364,0.336,0.309,0.282,0.261,0.254,0.227,0.186,0.138,0.103,0.062,0.028,0.001,-0.027,-0.041,-0.054,-0.061,-0.082,-0.082,-0.075,-0.075,-0.075,-0.075,-0.075,-0.082,-0.082,-0.082,-0.082,-0.075,-0.082,-0.075,-0.075,-0.075,-0.075,-0.075,-0.075,-0.075,-0.075,-0.075,-0.075,-0.082,-0.082,-0.082,-0.082,-0.075,-0.075,-0.075,-0.082,-0.082,-0.082,-0.082,-0.082,-0.082,-0.082,-0.082,-0.089,-0.089,-0.089,-0.089,-0.089,-0.089,-0.089,-0.089,-0.089,-0.089,-0.089,-0.089,-0.089,-0.089,-0.089,-0.089,-0.089,-0.089,-0.089,-0.089,-0.089,-0.089,-0.089,-0.089,-0.089,-0.082,-0.089,-0.082,-0.089,-0.089,-0.082,-0.089,-0.089,-0.082,-0.082,-0.089,-0.089,-0.082,-0.082,-0.082,-0.082,-0.082,-0.082,-0.075,-0.075,-0.075,-0.075,-0.061,-0.061,-0.061,-0.054,-0.054,-0.054,-0.041,-0.041,-0.041,-0.041,-0.034,-0.034,-0.034,-0.034,-0.034,-0.027,-0.027,-0.027,-0.027,-0.027,-0.013,-0.013,-0.013,-0.013,-0.013,-0.006,-0.006,-0.006,-0.006,0.001,0.001,0.001,0.001,0.001,0.001,0.001,0.007,0.007,0.007,0.007,0.007,0.007,0.007,0.007,0.007,0.007,0.007,0.007,0.007,0.007,0.014,0.007,0.007,0.007,0.007,0.007,0.007,0.007,0.007,0.007,0.007,0.007,0.001,0.001,0.001,0.001,0.001,0.001,0.001,0.001,0.001,0.001,-0.006,-0.006,0.001,-0.006,0.001,0.001,-0.006,-0.006,-0.006,-0.006,-0.006,-0.006,-0.006,-0.006,-0.006,-0.006,-0.006,-0.006,-0.006,-0.006,-0.006,-0.006,-0.013,-0.013,-0.013,-0.013,-0.013,-0.013,-0.013,-0.013,-0.006,-0.013,-0.013,-0.013,-0.013,-0.013,-0.013,-0.006,-0.013,-0.013,-0.006,-0.013,-0.013,-0.013,-0.013,-0.006,-0.006,-0.013,-0.013,-0.006,-0.006,-0.006,-0.006,-0.006,-0.006,-0.006,-0.006,0.001,-0.006,0.001,0.001,0.001,0.001,0.001,0.001,0.001,0.001,0.001,0.001,0.001,0.001,0.001,0.001,0.001,0.001,0.001,-0.006,0.001,0.001,0.001,0.007,0.001,0.007,0.007,0.014,0.014,0.007,0.007,0.001,0.007,0.007,0.001,0.001,0.001,0.001,0.001,0.001,0.001,0.007,0.001,-0.006,-0.006,-0.013,-0.027,-0.027,-0.034,-0.041,N
2,-0.006,-0.027,-0.041,-0.061,-0.075,-0.082,-0.075,-0.075,-0.075,-0.075,-0.075,-0.075,-0.075,-0.075,-0.075,-0.075,-0.075,-0.075,-0.075,-0.082,-0.075,-0.075,-0.075,-0.075,-0.075,-0.075,-0.075,-0.082,-0.075,-0.075,-0.075,-0.075,-0.075,-0.075,-0.082,-0.082,-0.082,-0.082,-0.082,-0.075,-0.082,-0.082,-0.082,-0.082,-0.082,-0.089,-0.082,-0.082,-0.082,-0.082,-0.082,-0.082,-0.089,-0.089,-0.089,-0.082,-0.082,-0.082,-0.082,-0.082,-0.089,-0.089,-0.089,-0.089,-0.102,-0.089,-0.089,-0.089,-0.089,-0.089,-0.089,-0.089,-0.089,-0.082,-0.089,-0.082,-0.082,-0.089,-0.082,-0.089,-0.082,-0.082,-0.082,-0.082,-0.075,-0.075,-0.075,-0.075,-0.061,-0.061,-0.061,-0.061,-0.054,-0.054,-0.054,-0.054,-0.041,-0.041,-0.041,-0.041,-0.034,-0.034,-0.034,-0.034,-0.027,-0.027,-0.027,-0.013,-0.013,-0.013,-0.013,-0.013,-0.013,-0.006,-0.006,-0.006,-0.006,0.001,0.001,0.001,0.001,0.001,0.001,0.007,0.007,0.007,0.007,0.007,0.007,0.007,0.007,0.007,0.007,0.014,0.014,0.014,0.014,0.014,0.007,0.007,0.007,0.007,0.007,0.007,0.007,0.007,0.007,0.007,0.007,0.001,0.007,0.007,0.001,0.001,0.001,0.001,0.001,0.001,0.001,0.001,-0.006,-0.006,-0.006,-0.006,0.001,0.001,-0.006,-0.006,-0.006,0.001,-0.006,-0.006,-0.006,-0.013,-0.006,-0.013,-0.006,-0.006,-0.013,-0.006,-0.013,-0.006,-0.006,-0.006,-0.006,-0.013,-0.013,-0.013,-0.013,-0.013,-0.006,-0.013,-0.013,-0.006,-0.013,-0.013,-0.013,-0.006,-0.013,-0.006,-0.006,-0.006,-0.013,-0.006,-0.013,-0.006,-0.006,-0.013,-0.006,-0.006,-0.006,-0.006,-0.006,-0.006,-0.006,-0.006,0.001,-0.006,-0.006,-0.006,-0.006,0.001,-0.006,-0.006,-0.006,0.001,0.001,0.001,0.001,0.001,0.001,0.001,0.001,0.001,-0.006,0.001,0.001,0.001,0.001,0.001,0.001,0.001,0.001,0.007,0.007,0.007,0.007,0.007,0.007,0.007,0.007,0.001,0.001,0.001,0.001,0.001,0.001,0.007,0.001,0.007,0.001,0.001,-0.006,-0.013,-0.027,-0.034,-0.041,-0.041,-0.041,-0.041,-0.054,-0.054,-0.054,-0.054,-0.054,-0.041,-0.041,-0.041,-0.041,-0.054,-0.054,-0.054,-0.041,-0.041,-0.041,-0.034,-0.027,-0.027,-0.013,-0.013,-0.006,0.001,0.007,0.007,0.007,0.007,0.007,0.007,0.007,0.007,0.007,0.007,0.007,0.007,0.007,0.007,0.007,0.007,0.007,0.007,0.007,0.007,0.007,0.007,0.007,0.007,0.007,0.007,0.001,0.001,0.007,0.007,0.007,0.007,0.014,0.007,0.007,0.007,0.007,0.007,0.007,0.014,0.007,0.028,0.055,0.083,0.131,0.186,0.254,0.316,0.384,0.439,0.467,0.487,0.494,0.487,0.487,0.467,0.418,0.378,0.384,0.378,0.378,0.364,0.336,0.309,0.282,0.261,0.254,0.227,0.186,0.138,0.103,0.062,0.028,0.001,-0.027,-0.041,-0.054,-0.061,-0.082,-0.082,-0.075,-0.075,-0.075,-0.075,-0.075,-0.082,-0.082,-0.082,-0.082,-0.075,-0.082,-0.075,-0.075,-0.075,-0.075,-0.075,-0.075,-0.075,-0.075,-0.075,-0.075,-0.082,-0.082,-0.082,-0.082,-0.075,-0.075,-0.075,-0.082,-0.082,-0.082,-0.082,-0.082,-0.082,-0.082,-0.082,-0.089,-0.089,-0.089,-0.089,-0.089,-0.089,-0.089,-0.089,-0.089,-0.089,-0.089,-0.089,-0.089,-0.089,-0.089,-0.089,-0.089,-0.089,-0.089,-0.089,-0.089,-0.089,-0.089,-0.089,-0.089,-0.082,-0.089,-0.082,-0.089,-0.089,-0.082,-0.089,-0.089,-0.082,-0.082,-0.089,-0.089,-0.082,-0.082,-0.082,-0.082,-0.082,-0.082,-0.075,-0.075,-0.075,-0.075,-0.061,-0.061,-0.061,-0.054,-0.054,-0.054,-0.041,-0.041,-0.041,-0.041,-0.034,-0.034,-0.034,-0.034,-0.034,-0.027,-0.027,-0.027,-0.027,-0.027,-0.013,-0.013,-0.013,-0.013,-0.013,-0.006,-0.006,-0.006,-0.006,0.001,0.001,0.001,0.001,0.001,0.001,0.001,0.007,0.007,0.007,0.007,0.007,0.007,0.007,0.007,0.007,0.007,0.007,0.007,0.007,0.007,0.014,0.007,0.007,0.007,0.007,0.007,0.007,0.007,0.007,0.007,0.007,0.007,0.001,0.001,0.001,0.001,0.001,0.001,0.001,0.001,0.001,0.001,-0.006,-0.006,0.001,-0.006,0.001,0.001,-0.006,-0.006,-0.006,-0.006,-0.006,-0.006,-0.006,-0.006,-0.006,-0.006,-0.006,-0.006,-0.006,-0.006,-0.006,-0.006,-0.013,-0.013,-0.013,-0.013,-0.013,-0.013,-0.013,-0.013,-0.006,-0.013,-0.013,-0.013,-0.013,-0.013,-0.013,-0.006,-0.013,-0.013,-0.006,-0.013,-0.013,-0.013,-0.013,-0.006,-0.006,-0.013,-0.013,-0.006,-0.006,-0.006,-0.006,-0.006,-0.006,-0.006,-0.006,0.001,-0.006,0.001,0.001,0.001,0.001,0.001,0.001,0.001,0.001,0.001,0.001,0.001,0.001,0.001,0.001,0.001,0.001,0.001,-0.006,0.001,0.001,0.001,0.007,0.001,0.007,0.007,0.014,0.014,0.007,0.007,0.001,0.007,0.007,0.001,0.001,0.001,0.001,0.001,0.001,0.001,0.007,0.001,-0.006,-0.006,-0.013,-0.027,-0.027,-0.034,-0.041,-0.041,-0.041,-0.041,-0.041,-0.041,-0.041,-0.041,-0.041,-0.041,-0.041,-0.054,-0.041,-0.041,-0.054,-0.054,-0.041,-0.034,-0.034,-0.027,-0.006,-0.006,0.001,0.007,0.001,0.007,0.007,0.007,0.007,0.007,0.007,0.007,0.014,0.007,0.007,0.007,0.007,0.007,0.007,0.007,0.007,0.007,0.007,0.001,0.007,0.007,0.007,0.007,0.001,0.007,0.007,0.007,0.007,0.007,0.001,0.007,0.007,0.007,0.007,0.007,0.007,0.007,0.007,0.007,0.007,0.014,0.028,0.062,0.103,0.151,0.206,0.268,0.343,0.405,0.453,0.48,0.487,0.494,0.487,0.48,0.453,0.405,0.378,0.378,0.378,0.378,0.357,0.329,0.302,0.268,0.254,0.24,0.213,0.179,0.131,0.09,0.042,0.014,0.001,-0.027,-0.041,-0.061,-0.082,-0.082,-0.089,-0.075,-0.075,-0.075,-0.075,-0.075,-0.082,-0.075,-0.075,-0.075,-0.075,-0.075,-0.075,-0.075,-0.082,-0.075,-0.075,-0.075,-0.075,-0.075,-0.075,-0.075,-0.075,-0.075,-0.082,-0.075,-0.075,-0.082,-0.082,-0.075,-0.082,-0.082,-0.082,-0.082,-0.082,-0.082,-0.082,-0.082,-0.082,-0.082,-0.089,-0.089,-0.089,-0.089,-0.089,-0.082,-0.089,-0.089,-0.089,-0.089,-0.089,-0.089,-0.089,-0.089,-0.089,-0.089,-0.089,-0.089,-0.089,-0.089,-0.089,-0.089,-0.089,-0.089,-0.089,-0.102,-0.089,-0.082,-0.089,-0.089,-0.089,-0.089,-0.089,-0.082,-0.082,-0.082,-0.082,-0.082,-0.082,-0.082,-0.075,-0.075,-0.075,-0.061,-0.075,-0.061,-0.061,-0.054,-0.054,-0.054,-0.054,-0.041,-0.041,-0.041,-0.041,-0.034,-0.034,-0.034,-0.034,-0.034,-0.027,-0.027,-0.013,-0.013,-0.013,-0.013,-0.013,-0.013,-0.006,-0.006,-0.006,-0.006,-0.006,-0.006,-0.006,0.001,0.001,0.007,0.007,0.007,0.001,0.007,0.007,0.007,0.007,0.007,0.007,0.007,0.014,0.007,0.007,0.007,0.007,0.007,0.007,0.007,0.007,0.007,0.007,0.007,0.007,0.001,0.001,0.001,0.001,0.001,0.001,0.001,0.001,0.001,0.001,0.001,0.001,0.001,0.001,0.001,-0.006,-0.006,-0.006,-0.006,-0.006,-0.006,-0.006,-0.006,-0.006,-0.006,-0.006,-0.006,-0.006,-0.006,-0.006,-0.006,-0.006,-0.006,-0.013,-0.013,-0.006,-0.013,-0.013,-0.013,-0.013,-0.013,-0.013,-0.013,-0.013,-0.013,-0.013,-0.027,-0.013,-0.027,-0.027,-0.027,-0.013,-0.013,-0.013,-0.013,-0.013,-0.013,-0.013,-0.013,-0.013,-0.006,-0.013,-0.013,-0.013,-0.013,-0.013,-0.013,-0.013,-0.013,-0.006,-0.006,-0.013,-0.006,-0.013,-0.013,-0.006,-0.006,-0.006,-0.006,-0.013,-0.006,-0.006,-0.006,-0.006,-0.006,-0.006,-0.006,-0.006,0.001,0.001,-0.006,-0.006,-0.006,0.001,0.001,0.001,0.001,0.001,0.007,0.001,0.007,0.007,0.001,0.001,0.001,0.001,0.001,-0.006,-0.006,0.001,0.001,0.001,0.001,0.001,0.001,-0.006,-0.013,-0.027,-0.034,-0.034,-0.034,-0.041,N
3,0.001,-0.027,-0.041,-0.054,-0.061,-0.082,-0.082,-0.075,-0.075,-0.075,-0.075,-0.075,-0.082,-0.082,-0.082,-0.082,-0.075,-0.082,-0.075,-0.075,-0.075,-0.075,-0.075,-0.075,-0.075,-0.075,-0.075,-0.075,-0.082,-0.082,-0.082,-0.082,-0.075,-0.075,-0.075,-0.082,-0.082,-0.082,-0.082,-0.082,-0.082,-0.082,-0.082,-0.089,-0.089,-0.089,-0.089,-0.089,-0.089,-0.089,-0.089,-0.089,-0.089,-0.089,-0.089,-0.089,-0.089,-0.089,-0.089,-0.089,-0.089,-0.089,-0.089,-0.089,-0.089,-0.089,-0.089,-0.089,-0.082,-0.089,-0.082,-0.089,-0.089,-0.082,-0.089,-0.089,-0.082,-0.082,-0.089,-0.089,-0.082,-0.082,-0.082,-0.082,-0.082,-0.082,-0.075,-0.075,-0.075,-0.075,-0.061,-0.061,-0.061,-0.054,-0.054,-0.054,-0.041,-0.041,-0.041,-0.041,-0.034,-0.034,-0.034,-0.034,-0.034,-0.027,-0.027,-0.027,-0.027,-0.027,-0.013,-0.013,-0.013,-0.013,-0.013,-0.006,-0.006,-0.006,-0.006,0.001,0.001,0.001,0.001,0.001,0.001,0.001,0.007,0.007,0.007,0.007,0.007,0.007,0.007,0.007,0.007,0.007,0.007,0.007,0.007,0.007,0.014,0.007,0.007,0.007,0.007,0.007,0.007,0.007,0.007,0.007,0.007,0.007,0.001,0.001,0.001,0.001,0.001,0.001,0.001,0.001,0.001,0.001,-0.006,-0.006,0.001,-0.006,0.001,0.001,-0.006,-0.006,-0.006,-0.006,-0.006,-0.006,-0.006,-0.006,-0.006,-0.006,-0.006,-0.006,-0.006,-0.006,-0.006,-0.006,-0.013,-0.013,-0.013,-0.013,-0.013,-0.013,-0.013,-0.013,-0.006,-0.013,-0.013,-0.013,-0.013,-0.013,-0.013,-0.006,-0.013,-0.013,-0.006,-0.013,-0.013,-0.013,-0.013,-0.006,-0.006,-0.013,-0.013,-0.006,-0.006,-0.006,-0.006,-0.006,-0.006,-0.006,-0.006,0.001,-0.006,0.001,0.001,0.001,0.001,0.001,0.001,0.001,0.001,0.001,0.001,0.001,0.001,0.001,0.001,0.001,0.001,0.001,-0.006,0.001,0.001,0.001,0.007,0.001,0.007,0.007,0.014,0.014,0.007,0.007,0.001,0.007,0.007,0.001,0.001,0.001,0.001,0.001,0.001,0.001,0.007,0.001,-0.006,-0.006,-0.013,-0.027,-0.027,-0.034,-0.041,-0.041,-0.041,-0.041,-0.041,-0.041,-0.041,-0.041,-0.041,-0.041,-0.041,-0.054,-0.041,-0.041,-0.054,-0.054,-0.041,-0.034,-0.034,-0.027,-0.006,-0.006,0.001,0.007,0.001,0.007,0.007,0.007,0.007,0.007,0.007,0.007,0.014,0.007,0.007,0.007,0.007,0.007,0.007,0.007,0.007,0.007,0.007,0.001,0.007,0.007,0.007,0.007,0.001,0.007,0.007,0.007,0.007,0.007,0.001,0.007,0.007,0.007,0.007,0.007,0.007,0.007,0.007,0.007,0.007,0.014,0.028,0.062,0.103,0.151,0.206,0.268,0.343,0.405,0.453,0.48,0.487,0.494,0.487,0.48,0.453,0.405,0.378,0.378,0.378,0.378,0.357,0.329,0.302,0.268,0.254,0.24,0.213,0.179,0.131,0.09,0.042,0.014,0.001,-0.027,-0.041,-0.061,-0.082,-0.082,-0.089,-0.075,-0.075,-0.075,-0.075,-0.075,-0.082,-0.075,-0.075,-0.075,-0.075,-0.075,-0.075,-0.075,-0.082,-0.075,-0.075,-0.075,-0.075,-0.075,-0.075,-0.075,-0.075,-0.075,-0.082,-0.075,-0.075,-0.082,-0.082,-0.075,-0.082,-0.082,-0.082,-0.082,-0.082,-0.082,-0.082,-0.082,-0.082,-0.082,-0.089,-0.089,-0.089,-0.089,-0.089,-0.082,-0.089,-0.089,-0.089,-0.089,-0.089,-0.089,-0.089,-0.089,-0.089,-0.089,-0.089,-0.089,-0.089,-0.089,-0.089,-0.089,-0.089,-0.089,-0.089,-0.102,-0.089,-0.082,-0.089,-0.089,-0.089,-0.089,-0.089,-0.082,-0.082,-0.082,-0.082,-0.082,-0.082,-0.082,-0.075,-0.075,-0.075,-0.061,-0.075,-0.061,-0.061,-0.054,-0.054,-0.054,-0.054,-0.041,-0.041,-0.041,-0.041,-0.034,-0.034,-0.034,-0.034,-0.034,-0.027,-0.027,-0.013,-0.013,-0.013,-0.013,-0.013,-0.013,-0.006,-0.006,-0.006,-0.006,-0.006,-0.006,-0.006,0.001,0.001,0.007,0.007,0.007,0.001,0.007,0.007,0.007,0.007,0.007,0.007,0.007,0.014,0.007,0.007,0.007,0.007,0.007,0.007,0.007,0.007,0.007,0.007,0.007,0.007,0.001,0.001,0.001,0.001,0.001,0.001,0.001,0.001,0.001,0.001,0.001,0.001,0.001,0.001,0.001,-0.006,-0.006,-0.006,-0.006,-0.006,-0.006,-0.006,-0.006,-0.006,-0.006,-0.006,-0.006,-0.006,-0.006,-0.006,-0.006,-0.006,-0.006,-0.013,-0.013,-0.006,-0.013,-0.013,-0.013,-0.013,-0.013,-0.013,-0.013,-0.013,-0.013,-0.013,-0.027,-0.013,-0.027,-0.027,-0.027,-0.013,-0.013,-0.013,-0.013,-0.013,-0.013,-0.013,-0.013,-0.013,-0.006,-0.013,-0.013,-0.013,-0.013,-0.013,-0.013,-0.013,-0.013,-0.006,-0.006,-0.013,-0.006,-0.013,-0.013,-0.006,-0.006,-0.006,-0.006,-0.013,-0.006,-0.006,-0.006,-0.006,-0.006,-0.006,-0.006,-0.006,0.001,0.001,-0.006,-0.006,-0.006,0.001,0.001,0.001,0.001,0.001,0.007,0.001,0.007,0.007,0.001,0.001,0.001,0.001,0.001,-0.006,-0.006,0.001,0.001,0.001,0.001,0.001,0.001,-0.006,-0.013,-0.027,-0.034,-0.034,-0.034,-0.041,-0.041,-0.041,-0.034,-0.041,-0.034,-0.041,-0.027,-0.034,-0.034,-0.034,-0.041,-0.034,-0.041,-0.041,-0.041,-0.034,-0.027,-0.027,-0.013,-0.013,-0.006,0.001,0.001,0.007,0.007,0.014,0.007,0.014,0.014,0.014,0.014,0.007,0.014,0.014,0.014,0.014,0.007,0.007,0.014,0.014,0.007,0.014,0.014,0.014,0.007,0.007,0.014,0.014,0.007,0.007,0.007,0.014,0.007,0.007,0.007,0.007,0.014,0.007,0.007,0.014,0.014,0.014,0.014,0.014,0.028,0.055,0.083,0.131,0.186,0.254,0.316,0.378,0.432,0.46,0.48,0.48,0.48,0.467,0.439,0.405,0.357,0.357,0.357,0.357,0.329,0.302,0.268,0.24,0.227,0.206,0.186,0.138,0.103,0.062,0.028,0.001,-0.013,-0.041,-0.061,-0.075,-0.082,-0.082,-0.082,-0.082,-0.075,-0.075,-0.082,-0.075,-0.082,-0.075,-0.075,-0.075,-0.075,-0.075,-0.075,-0.075,-0.075,-0.075,-0.075,-0.075,-0.075,-0.075,-0.075,-0.075,-0.075,-0.075,-0.075,-0.075,-0.075,-0.075,-0.075,-0.075,-0.075,-0.075,-0.082,-0.082,-0.082,-0.082,-0.082,-0.082,-0.082,-0.082,-0.082,-0.082,-0.089,-0.082,-0.082,-0.082,-0.082,-0.082,-0.089,-0.089,-0.089,-0.089,-0.089,-0.082,-0.082,-0.089,-0.089,-0.089,-0.089,-0.089,-0.089,-0.089,-0.089,-0.089,-0.082,-0.089,-0.089,-0.089,-0.089,-0.082,-0.089,-0.082,-0.082,-0.082,-0.082,-0.082,-0.082,-0.082,-0.075,-0.075,-0.075,-0.075,-0.075,-0.061,-0.075,-0.061,-0.054,-0.054,-0.054,-0.054,-0.041,-0.041,-0.041,-0.041,-0.041,-0.034,-0.034,-0.034,-0.027,-0.027,-0.027,-0.027,-0.006,-0.013,-0.013,-0.013,-0.013,-0.006,-0.006,-0.006,0.001,0.001,0.001,0.001,0.001,0.001,0.001,0.001,0.007,0.007,0.007,0.014,0.014,0.014,0.007,0.014,0.014,0.014,0.007,0.007,0.007,0.014,0.007,0.007,0.014,0.014,0.007,0.014,0.014,0.007,0.007,0.007,0.007,0.007,0.007,0.001,0.007,0.001,0.001,0.001,0.001,0.001,0.001,0.001,0.007,0.001,0.001,0.001,0.001,-0.006,0.001,-0.006,0.001,0.001,-0.006,-0.006,-0.006,-0.006,-0.006,-0.006,-0.013,-0.006,-0.006,-0.006,-0.006,-0.006,-0.006,-0.006,-0.013,0.001,-0.006,-0.006,-0.006,-0.013,-0.013,-0.006,-0.006,-0.006,-0.013,-0.006,-0.013,-0.006,-0.013,-0.013,-0.013,-0.006,-0.006,-0.006,-0.006,-0.006,-0.006,-0.006,-0.006,-0.006,-0.013,-0.006,-0.006,-0.006,-0.006,-0.006,-0.006,-0.006,-0.006,-0.006,-0.006,-0.006,-0.006,0.001,0.001,0.001,0.001,0.001,0.001,0.001,0.001,0.001,0.001,0.001,0.001,0.001,0.001,0.001,0.001,0.001,0.001,0.001,0.001,0.001,0.001,0.007,0.007,0.007,0.007,0.007,0.007,0.001,0.001,0.001,0.001,0.007,0.007,0.001,0.007,0.001,0.007,0.007,0.001,-0.006,-0.006,-0.013,-0.027,-0.027,-0.013,N
4,0.001,-0.027,-0.041,-0.061,-0.082,-0.082,-0.089,-0.075,-0.075,-0.075,-0.075,-0.075,-0.082,-0.075,-0.075,-0.075,-0.075,-0.075,-0.075,-0.075,-0.082,-0.075,-0.075,-0.075,-0.075,-0.075,-0.075,-0.075,-0.075,-0.075,-0.082,-0.075,-0.075,-0.082,-0.082,-0.075,-0.082,-0.082,-0.082,-0.082,-0.082,-0.082,-0.082,-0.082,-0.082,-0.082,-0.089,-0.089,-0.089,-0.089,-0.089,-0.082,-0.089,-0.089,-0.089,-0.089,-0.089,-0.089,-0.089,-0.089,-0.089,-0.089,-0.089,-0.089,-0.089,-0.089,-0.089,-0.089,-0.089,-0.089,-0.089,-0.102,-0.089,-0.082,-0.089,-0.089,-0.089,-0.089,-0.089,-0.082,-0.082,-0.082,-0.082,-0.082,-0.082,-0.082,-0.075,-0.075,-0.075,-0.061,-0.075,-0.061,-0.061,-0.054,-0.054,-0.054,-0.054,-0.041,-0.041,-0.041,-0.041,-0.034,-0.034,-0.034,-0.034,-0.034,-0.027,-0.027,-0.013,-0.013,-0.013,-0.013,-0.013,-0.013,-0.006,-0.006,-0.006,-0.006,-0.006,-0.006,-0.006,0.001,0.001,0.007,0.007,0.007,0.001,0.007,0.007,0.007,0.007,0.007,0.007,0.007,0.014,0.007,0.007,0.007,0.007,0.007,0.007,0.007,0.007,0.007,0.007,0.007,0.007,0.001,0.001,0.001,0.001,0.001,0.001,0.001,0.001,0.001,0.001,0.001,0.001,0.001,0.001,0.001,-0.006,-0.006,-0.006,-0.006,-0.006,-0.006,-0.006,-0.006,-0.006,-0.006,-0.006,-0.006,-0.006,-0.006,-0.006,-0.006,-0.006,-0.006,-0.013,-0.013,-0.006,-0.013,-0.013,-0.013,-0.013,-0.013,-0.013,-0.013,-0.013,-0.013,-0.013,-0.027,-0.013,-0.027,-0.027,-0.027,-0.013,-0.013,-0.013,-0.013,-0.013,-0.013,-0.013,-0.013,-0.013,-0.006,-0.013,-0.013,-0.013,-0.013,-0.013,-0.013,-0.013,-0.013,-0.006,-0.006,-0.013,-0.006,-0.013,-0.013,-0.006,-0.006,-0.006,-0.006,-0.013,-0.006,-0.006,-0.006,-0.006,-0.006,-0.006,-0.006,-0.006,0.001,0.001,-0.006,-0.006,-0.006,0.001,0.001,0.001,0.001,0.001,0.007,0.001,0.007,0.007,0.001,0.001,0.001,0.001,0.001,-0.006,-0.006,0.001,0.001,0.001,0.001,0.001,0.001,-0.006,-0.013,-0.027,-0.034,-0.034,-0.034,-0.041,-0.041,-0.041,-0.034,-0.041,-0.034,-0.041,-0.027,-0.034,-0.034,-0.034,-0.041,-0.034,-0.041,-0.041,-0.041,-0.034,-0.027,-0.027,-0.013,-0.013,-0.006,0.001,0.001,0.007,0.007,0.014,0.007,0.014,0.014,0.014,0.014,0.007,0.014,0.014,0.014,0.014,0.007,0.007,0.014,0.014,0.007,0.014,0.014,0.014,0.007,0.007,0.014,0.014,0.007,0.007,0.007,0.014,0.007,0.007,0.007,0.007,0.014,0.007,0.007,0.014,0.014,0.014,0.014,0.014,0.028,0.055,0.083,0.131,0.186,0.254,0.316,0.378,0.432,0.46,0.48,0.48,0.48,0.467,0.439,0.405,0.357,0.357,0.357,0.357,0.329,0.302,0.268,0.24,0.227,0.206,0.186,0.138,0.103,0.062,0.028,0.001,-0.013,-0.041,-0.061,-0.075,-0.082,-0.082,-0.082,-0.082,-0.075,-0.075,-0.082,-0.075,-0.082,-0.075,-0.075,-0.075,-0.075,-0.075,-0.075,-0.075,-0.075,-0.075,-0.075,-0.075,-0.075,-0.075,-0.075,-0.075,-0.075,-0.075,-0.075,-0.075,-0.075,-0.075,-0.075,-0.075,-0.075,-0.075,-0.082,-0.082,-0.082,-0.082,-0.082,-0.082,-0.082,-0.082,-0.082,-0.082,-0.089,-0.082,-0.082,-0.082,-0.082,-0.082,-0.089,-0.089,-0.089,-0.089,-0.089,-0.082,-0.082,-0.089,-0.089,-0.089,-0.089,-0.089,-0.089,-0.089,-0.089,-0.089,-0.082,-0.089,-0.089,-0.089,-0.089,-0.082,-0.089,-0.082,-0.082,-0.082,-0.082,-0.082,-0.082,-0.082,-0.075,-0.075,-0.075,-0.075,-0.075,-0.061,-0.075,-0.061,-0.054,-0.054,-0.054,-0.054,-0.041,-0.041,-0.041,-0.041,-0.041,-0.034,-0.034,-0.034,-0.027,-0.027,-0.027,-0.027,-0.006,-0.013,-0.013,-0.013,-0.013,-0.006,-0.006,-0.006,0.001,0.001,0.001,0.001,0.001,0.001,0.001,0.001,0.007,0.007,0.007,0.014,0.014,0.014,0.007,0.014,0.014,0.014,0.007,0.007,0.007,0.014,0.007,0.007,0.014,0.014,0.007,0.014,0.014,0.007,0.007,0.007,0.007,0.007,0.007,0.001,0.007,0.001,0.001,0.001,0.001,0.001,0.001,0.001,0.007,0.001,0.001,0.001,0.001,-0.006,0.001,-0.006,0.001,0.001,-0.006,-0.006,-0.006,-0.006,-0.006,-0.006,-0.013,-0.006,-0.006,-0.006,-0.006,-0.006,-0.006,-0.006,-0.013,0.001,-0.006,-0.006,-0.006,-0.013,-0.013,-0.006,-0.006,-0.006,-0.013,-0.006,-0.013,-0.006,-0.013,-0.013,-0.013,-0.006,-0.006,-0.006,-0.006,-0.006,-0.006,-0.006,-0.006,-0.006,-0.013,-0.006,-0.006,-0.006,-0.006,-0.006,-0.006,-0.006,-0.006,-0.006,-0.006,-0.006,-0.006,0.001,0.001,0.001,0.001,0.001,0.001,0.001,0.001,0.001,0.001,0.001,0.001,0.001,0.001,0.001,0.001,0.001,0.001,0.001,0.001,0.001,0.001,0.007,0.007,0.007,0.007,0.007,0.007,0.001,0.001,0.001,0.001,0.007,0.007,0.001,0.007,0.001,0.007,0.007,0.001,-0.006,-0.006,-0.013,-0.027,-0.027,-0.013,-0.027,-0.027,-0.034,-0.034,-0.034,-0.034,-0.034,-0.041,-0.034,-0.034,-0.034,-0.034,-0.041,-0.041,-0.041,-0.034,-0.034,-0.027,-0.027,-0.013,-0.013,-0.006,0.001,0.001,0.007,0.014,0.014,0.014,0.007,0.014,0.014,0.014,0.028,0.014,0.014,0.014,0.014,0.014,0.014,0.014,0.014,0.014,0.014,0.014,0.014,0.014,0.014,0.014,0.014,0.014,0.014,0.014,0.014,0.014,0.014,0.014,0.014,0.014,0.014,0.014,0.014,0.014,0.014,0.028,0.014,0.035,0.055,0.083,0.131,0.186,0.233,0.302,0.364,0.412,0.453,0.46,0.467,0.467,0.46,0.432,0.384,0.343,0.336,0.329,0.316,0.288,0.261,0.233,0.206,0.186,0.165,0.138,0.103,0.062,0.035,0.007,-0.013,-0.027,-0.041,-0.061,-0.075,-0.082,-0.082,-0.075,-0.075,-0.075,-0.061,-0.075,-0.061,-0.061,-0.061,-0.061,-0.061,-0.061,-0.061,-0.061,-0.061,-0.061,-0.054,-0.061,-0.061,-0.061,-0.061,-0.061,-0.061,-0.061,-0.061,-0.061,-0.061,-0.061,-0.061,-0.061,-0.061,-0.061,-0.061,-0.061,-0.061,-0.075,-0.075,-0.075,-0.061,-0.075,-0.061,-0.075,-0.075,-0.075,-0.075,-0.075,-0.075,-0.075,-0.082,-0.075,-0.075,-0.075,-0.061,-0.075,-0.075,-0.082,-0.075,-0.075,-0.075,-0.075,-0.075,-0.082,-0.075,-0.075,-0.075,-0.075,-0.075,-0.075,-0.075,-0.082,-0.082,-0.082,-0.075,-0.075,-0.075,-0.075,-0.061,-0.075,-0.061,-0.061,-0.061,-0.061,-0.061,-0.054,-0.054,-0.054,-0.041,-0.041,-0.041,-0.041,-0.041,-0.041,-0.034,-0.034,-0.027,-0.027,-0.027,-0.027,-0.027,-0.013,-0.027,-0.027,-0.013,-0.013,-0.013,-0.006,-0.006,-0.006,0.001,0.001,-0.006,0.001,0.001,0.001,0.007,0.007,0.007,0.007,0.007,0.007,0.007,0.014,0.007,0.014,0.014,0.014,0.014,0.014,0.014,0.014,0.007,0.014,0.014,0.014,0.014,0.007,0.014,0.007,0.007,0.007,0.007,0.007,0.007,0.007,0.007,0.007,0.001,0.007,0.007,0.007,0.001,0.001,0.001,0.001,0.001,0.001,0.001,0.001,0.001,-0.006,-0.006,0.001,0.001,-0.006,-0.006,-0.006,-0.006,-0.006,-0.006,-0.006,-0.006,-0.006,-0.006,-0.006,-0.006,-0.006,-0.006,-0.006,-0.006,-0.006,-0.006,-0.006,-0.006,-0.006,-0.006,-0.006,-0.006,-0.006,-0.006,-0.006,-0.006,-0.006,-0.006,-0.006,-0.006,0.001,-0.006,-0.006,-0.006,-0.006,-0.006,0.001,0.001,-0.006,0.001,0.001,0.001,0.001,0.001,0.001,0.001,-0.006,-0.006,-0.006,0.001,0.001,0.001,0.001,0.001,0.001,0.001,0.007,0.007,0.001,0.001,0.001,0.001,0.001,0.001,0.001,0.007,0.001,0.001,0.001,0.001,0.007,0.001,0.007,0.001,0.001,0.001,0.001,0.007,0.007,0.007,0.007,0.007,0.007,0.001,0.007,0.001,0.001,0.007,0.001,0.001,0.001,0.001,0.001,0.001,0.001,-0.006,-0.006,-0.006,-0.006,N
5,-0.013,-0.041,-0.061,-0.075,-0.082,-0.082,-0.082,-0.082,-0.075,-0.075,-0.082,-0.075,-0.082,-0.075,-0.075,-0.075,-0.075,-0.075,-0.075,-0.075,-0.075,-0.075,-0.075,-0.075,-0.075,-0.075,-0.075,-0.075,-0.075,-0.075,-0.075,-0.075,-0.075,-0.075,-0.075,-0.075,-0.075,-0.075,-0.082,-0.082,-0.082,-0.082,-0.082,-0.082,-0.082,-0.082,-0.082,-0.082,-0.089,-0.082,-0.082,-0.082,-0.082,-0.082,-0.089,-0.089,-0.089,-0.089,-0.089,-0.082,-0.082,-0.089,-0.089,-0.089,-0.089,-0.089,-0.089,-0.089,-0.089,-0.089,-0.082,-0.089,-0.089,-0.089,-0.089,-0.082,-0.089,-0.082,-0.082,-0.082,-0.082,-0.082,-0.082,-0.082,-0.075,-0.075,-0.075,-0.075,-0.075,-0.061,-0.075,-0.061,-0.054,-0.054,-0.054,-0.054,-0.041,-0.041,-0.041,-0.041,-0.041,-0.034,-0.034,-0.034,-0.027,-0.027,-0.027,-0.027,-0.006,-0.013,-0.013,-0.013,-0.013,-0.006,-0.006,-0.006,0.001,0.001,0.001,0.001,0.001,0.001,0.001,0.001,0.007,0.007,0.007,0.014,0.014,0.014,0.007,0.014,0.014,0.014,0.007,0.007,0.007,0.014,0.007,0.007,0.014,0.014,0.007,0.014,0.014,0.007,0.007,0.007,0.007,0.007,0.007,0.001,0.007,0.001,0.001,0.001,0.001,0.001,0.001,0.001,0.007,0.001,0.001,0.001,0.001,-0.006,0.001,-0.006,0.001,0.001,-0.006,-0.006,-0.006,-0.006,-0.006,-0.006,-0.013,-0.006,-0.006,-0.006,-0.006,-0.006,-0.006,-0.006,-0.013,0.001,-0.006,-0.006,-0.006,-0.013,-0.013,-0.006,-0.006,-0.006,-0.013,-0.006,-0.013,-0.006,-0.013,-0.013,-0.013,-0.006,-0.006,-0.006,-0.006,-0.006,-0.006,-0.006,-0.006,-0.006,-0.013,-0.006,-0.006,-0.006,-0.006,-0.006,-0.006,-0.006,-0.006,-0.006,-0.006,-0.006,-0.006,0.001,0.001,0.001,0.001,0.001,0.001,0.001,0.001,0.001,0.001,0.001,0.001,0.001,0.001,0.001,0.001,0.001,0.001,0.001,0.001,0.001,0.001,0.007,0.007,0.007,0.007,0.007,0.007,0.001,0.001,0.001,0.001,0.007,0.007,0.001,0.007,0.001,0.007,0.007,0.001,-0.006,-0.006,-0.013,-0.027,-0.027,-0.013,-0.027,-0.027,-0.034,-0.034,-0.034,-0.034,-0.034,-0.041,-0.034,-0.034,-0.034,-0.034,-0.041,-0.041,-0.041,-0.034,-0.034,-0.027,-0.027,-0.013,-0.013,-0.006,0.001,0.001,0.007,0.014,0.014,0.014,0.007,0.014,0.014,0.014,0.028,0.014,0.014,0.014,0.014,0.014,0.014,0.014,0.014,0.014,0.014,0.014,0.014,0.014,0.014,0.014,0.014,0.014,0.014,0.014,0.014,0.014,0.014,0.014,0.014,0.014,0.014,0.014,0.014,0.014,0.014,0.028,0.014,0.035,0.055,0.083,0.131,0.186,0.233,0.302,0.364,0.412,0.453,0.46,0.467,0.467,0.46,0.432,0.384,0.343,0.336,0.329,0.316,0.288,0.261,0.233,0.206,0.186,0.165,0.138,0.103,0.062,0.035,0.007,-0.013,-0.027,-0.041,-0.061,-0.075,-0.082,-0.082,-0.075,-0.075,-0.075,-0.061,-0.075,-0.061,-0.061,-0.061,-0.061,-0.061,-0.061,-0.061,-0.061,-0.061,-0.061,-0.054,-0.061,-0.061,-0.061,-0.061,-0.061,-0.061,-0.061,-0.061,-0.061,-0.061,-0.061,-0.061,-0.061,-0.061,-0.061,-0.061,-0.061,-0.061,-0.075,-0.075,-0.075,-0.061,-0.075,-0.061,-0.075,-0.075,-0.075,-0.075,-0.075,-0.075,-0.075,-0.082,-0.075,-0.075,-0.075,-0.061,-0.075,-0.075,-0.082,-0.075,-0.075,-0.075,-0.075,-0.075,-0.082,-0.075,-0.075,-0.075,-0.075,-0.075,-0.075,-0.075,-0.082,-0.082,-0.082,-0.075,-0.075,-0.075,-0.075,-0.061,-0.075,-0.061,-0.061,-0.061,-0.061,-0.061,-0.054,-0.054,-0.054,-0.041,-0.041,-0.041,-0.041,-0.041,-0.041,-0.034,-0.034,-0.027,-0.027,-0.027,-0.027,-0.027,-0.013,-0.027,-0.027,-0.013,-0.013,-0.013,-0.006,-0.006,-0.006,0.001,0.001,-0.006,0.001,0.001,0.001,0.007,0.007,0.007,0.007,0.007,0.007,0.007,0.014,0.007,0.014,0.014,0.014,0.014,0.014,0.014,0.014,0.007,0.014,0.014,0.014,0.014,0.007,0.014,0.007,0.007,0.007,0.007,0.007,0.007,0.007,0.007,0.007,0.001,0.007,0.007,0.007,0.001,0.001,0.001,0.001,0.001,0.001,0.001,0.001,0.001,-0.006,-0.006,0.001,0.001,-0.006,-0.006,-0.006,-0.006,-0.006,-0.006,-0.006,-0.006,-0.006,-0.006,-0.006,-0.006,-0.006,-0.006,-0.006,-0.006,-0.006,-0.006,-0.006,-0.006,-0.006,-0.006,-0.006,-0.006,-0.006,-0.006,-0.006,-0.006,-0.006,-0.006,-0.006,-0.006,0.001,-0.006,-0.006,-0.006,-0.006,-0.006,0.001,0.001,-0.006,0.001,0.001,0.001,0.001,0.001,0.001,0.001,-0.006,-0.006,-0.006,0.001,0.001,0.001,0.001,0.001,0.001,0.001,0.007,0.007,0.001,0.001,0.001,0.001,0.001,0.001,0.001,0.007,0.001,0.001,0.001,0.001,0.007,0.001,0.007,0.001,0.001,0.001,0.001,0.007,0.007,0.007,0.007,0.007,0.007,0.001,0.007,0.001,0.001,0.007,0.001,0.001,0.001,0.001,0.001,0.001,0.001,-0.006,-0.006,-0.006,-0.006,-0.013,-0.027,-0.034,-0.034,-0.041,-0.041,-0.041,-0.041,-0.041,-0.041,-0.041,-0.041,-0.041,-0.054,-0.041,-0.041,-0.041,-0.054,-0.041,-0.041,-0.034,-0.034,-0.013,-0.013,-0.013,-0.006,0.001,0.007,0.007,0.007,0.014,0.014,0.014,0.007,0.014,0.007,0.007,0.007,0.007,0.007,0.007,0.007,0.007,0.007,0.007,0.007,0.014,0.007,0.007,0.007,0.007,0.007,0.007,0.007,0.007,0.007,0.007,0.007,0.007,0.007,0.007,0.007,0.007,0.007,0.007,0.014,0.028,0.042,0.076,0.11,0.165,0.227,0.302,0.357,0.412,0.46,0.467,0.48,0.48,0.48,0.46,0.418,0.378,0.364,0.364,0.357,0.336,0.316,0.282,0.254,0.233,0.227,0.193,0.165,0.131,0.083,0.042,0.014,-0.006,-0.027,-0.041,-0.061,-0.075,-0.082,-0.082,-0.075,-0.075,-0.075,-0.075,-0.075,-0.075,-0.075,-0.075,-0.075,-0.075,-0.075,-0.075,-0.061,-0.075,-0.075,-0.075,-0.075,-0.075,-0.075,-0.075,-0.082,-0.075,-0.082,-0.075,-0.075,-0.075,-0.075,-0.082,-0.075,-0.075,-0.075,-0.075,-0.082,-0.082,-0.082,-0.082,-0.082,-0.082,-0.089,-0.089,-0.082,-0.082,-0.089,-0.082,-0.082,-0.082,-0.082,-0.082,-0.089,-0.082,-0.082,-0.089,-0.082,-0.089,-0.089,-0.089,-0.089,-0.089,-0.089,-0.089,-0.089,-0.089,-0.089,-0.089,-0.089,-0.082,-0.089,-0.089,-0.082,-0.082,-0.089,-0.082,-0.082,-0.082,-0.082,-0.082,-0.075,-0.082,-0.082,-0.075,-0.075,-0.075,-0.075,-0.075,-0.061,-0.061,-0.061,-0.054,-0.054,-0.054,-0.054,-0.041,-0.041,-0.041,-0.041,-0.034,-0.034,-0.034,-0.027,-0.027,-0.027,-0.013,-0.013,-0.013,-0.013,-0.013,-0.013,-0.013,-0.013,-0.006,-0.006,-0.006,0.001,0.001,-0.006,0.001,0.001,0.001,0.001,0.007,0.007,0.007,0.007,0.007,0.007,0.014,0.007,0.007,0.007,0.007,0.007,0.007,0.007,0.007,0.007,0.007,0.007,0.007,0.007,0.007,0.007,0.007,0.007,0.007,0.007,0.001,0.001,0.001,0.001,0.001,0.001,0.001,0.001,0.001,0.001,0.001,0.001,0.001,0.001,-0.006,-0.006,-0.006,-0.006,-0.006,-0.006,-0.006,-0.006,-0.006,-0.006,-0.006,-0.006,-0.006,-0.006,-0.006,-0.006,-0.013,-0.006,-0.006,-0.006,-0.013,-0.013,-0.013,-0.013,-0.013,-0.013,-0.013,-0.006,-0.006,-0.013,-0.013,-0.013,-0.013,-0.013,-0.013,-0.006,-0.006,-0.013,-0.013,-0.013,-0.013,-0.013,-0.006,-0.006,-0.006,-0.006,-0.006,-0.006,-0.006,-0.006,0.001,-0.006,-0.006,-0.006,-0.013,-0.006,-0.006,-0.006,-0.006,0.001,0.001,0.001,0.001,-0.006,-0.006,-0.006,-0.006,-0.006,-0.006,0.001,0.001,-0.006,-0.006,-0.006,0.001,0.001,0.001,0.001,0.001,0.001,0.001,0.007,0.001,0.007,0.007,0.001,0.007,0.001,0.001,0.001,0.001,0.001,0.001,0.001,0.001,0.001,0.001,0.001,-0.006,-0.006,-0.013,N
6,-0.027,-0.041,-0.061,-0.075,-0.082,-0.082,-0.075,-0.075,-0.075,-0.061,-0.075,-0.061,-0.061,-0.061,-0.061,-0.061,-0.061,-0.061,-0.061,-0.061,-0.061,-0.054,-0.061,-0.061,-0.061,-0.061,-0.061,-0.061,-0.061,-0.061,-0.061,-0.061,-0.061,-0.061,-0.061,-0.061,-0.061,-0.061,-0.061,-0.061,-0.075,-0.075,-0.075,-0.061,-0.075,-0.061,-0.075,-0.075,-0.075,-0.075,-0.075,-0.075,-0.075,-0.082,-0.075,-0.075,-0.075,-0.061,-0.075,-0.075,-0.082,-0.075,-0.075,-0.075,-0.075,-0.075,-0.082,-0.075,-0.075,-0.075,-0.075,-0.075,-0.075,-0.075,-0.082,-0.082,-0.082,-0.075,-0.075,-0.075,-0.075,-0.061,-0.075,-0.061,-0.061,-0.061,-0.061,-0.061,-0.054,-0.054,-0.054,-0.041,-0.041,-0.041,-0.041,-0.041,-0.041,-0.034,-0.034,-0.027,-0.027,-0.027,-0.027,-0.027,-0.013,-0.027,-0.027,-0.013,-0.013,-0.013,-0.006,-0.006,-0.006,0.001,0.001,-0.006,0.001,0.001,0.001,0.007,0.007,0.007,0.007,0.007,0.007,0.007,0.014,0.007,0.014,0.014,0.014,0.014,0.014,0.014,0.014,0.007,0.014,0.014,0.014,0.014,0.007,0.014,0.007,0.007,0.007,0.007,0.007,0.007,0.007,0.007,0.007,0.001,0.007,0.007,0.007,0.001,0.001,0.001,0.001,0.001,0.001,0.001,0.001,0.001,-0.006,-0.006,0.001,0.001,-0.006,-0.006,-0.006,-0.006,-0.006,-0.006,-0.006,-0.006,-0.006,-0.006,-0.006,-0.006,-0.006,-0.006,-0.006,-0.006,-0.006,-0.006,-0.006,-0.006,-0.006,-0.006,-0.006,-0.006,-0.006,-0.006,-0.006,-0.006,-0.006,-0.006,-0.006,-0.006,0.001,-0.006,-0.006,-0.006,-0.006,-0.006,0.001,0.001,-0.006,0.001,0.001,0.001,0.001,0.001,0.001,0.001,-0.006,-0.006,-0.006,0.001,0.001,0.001,0.001,0.001,0.001,0.001,0.007,0.007,0.001,0.001,0.001,0.001,0.001,0.001,0.001,0.007,0.001,0.001,0.001,0.001,0.007,0.001,0.007,0.001,0.001,0.001,0.001,0.007,0.007,0.007,0.007,0.007,0.007,0.001,0.007,0.001,0.001,0.007,0.001,0.001,0.001,0.001,0.001,0.001,0.001,-0.006,-0.006,-0.006,-0.006,-0.013,-0.027,-0.034,-0.034,-0.041,-0.041,-0.041,-0.041,-0.041,-0.041,-0.041,-0.041,-0.041,-0.054,-0.041,-0.041,-0.041,-0.054,-0.041,-0.041,-0.034,-0.034,-0.013,-0.013,-0.013,-0.006,0.001,0.007,0.007,0.007,0.014,0.014,0.014,0.007,0.014,0.007,0.007,0.007,0.007,0.007,0.007,0.007,0.007,0.007,0.007,0.007,0.014,0.007,0.007,0.007,0.007,0.007,0.007,0.007,0.007,0.007,0.007,0.007,0.007,0.007,0.007,0.007,0.007,0.007,0.007,0.014,0.028,0.042,0.076,0.11,0.165,0.227,0.302,0.357,0.412,0.46,0.467,0.48,0.48,0.48,0.46,0.418,0.378,0.364,0.364,0.357,0.336,0.316,0.282,0.254,0.233,0.227,0.193,0.165,0.131,0.083,0.042,0.014,-0.006,-0.027,-0.041,-0.061,-0.075,-0.082,-0.082,-0.075,-0.075,-0.075,-0.075,-0.075,-0.075,-0.075,-0.075,-0.075,-0.075,-0.075,-0.075,-0.061,-0.075,-0.075,-0.075,-0.075,-0.075,-0.075,-0.075,-0.082,-0.075,-0.082,-0.075,-0.075,-0.075,-0.075,-0.082,-0.075,-0.075,-0.075,-0.075,-0.082,-0.082,-0.082,-0.082,-0.082,-0.082,-0.089,-0.089,-0.082,-0.082,-0.089,-0.082,-0.082,-0.082,-0.082,-0.082,-0.089,-0.082,-0.082,-0.089,-0.082,-0.089,-0.089,-0.089,-0.089,-0.089,-0.089,-0.089,-0.089,-0.089,-0.089,-0.089,-0.089,-0.082,-0.089,-0.089,-0.082,-0.082,-0.089,-0.082,-0.082,-0.082,-0.082,-0.082,-0.075,-0.082,-0.082,-0.075,-0.075,-0.075,-0.075,-0.075,-0.061,-0.061,-0.061,-0.054,-0.054,-0.054,-0.054,-0.041,-0.041,-0.041,-0.041,-0.034,-0.034,-0.034,-0.027,-0.027,-0.027,-0.013,-0.013,-0.013,-0.013,-0.013,-0.013,-0.013,-0.013,-0.006,-0.006,-0.006,0.001,0.001,-0.006,0.001,0.001,0.001,0.001,0.007,0.007,0.007,0.007,0.007,0.007,0.014,0.007,0.007,0.007,0.007,0.007,0.007,0.007,0.007,0.007,0.007,0.007,0.007,0.007,0.007,0.007,0.007,0.007,0.007,0.007,0.001,0.001,0.001,0.001,0.001,0.001,0.001,0.001,0.001,0.001,0.001,0.001,0.001,0.001,-0.006,-0.006,-0.006,-0.006,-0.006,-0.006,-0.006,-0.006,-0.006,-0.006,-0.006,-0.006,-0.006,-0.006,-0.006,-0.006,-0.013,-0.006,-0.006,-0.006,-0.013,-0.013,-0.013,-0.013,-0.013,-0.013,-0.013,-0.006,-0.006,-0.013,-0.013,-0.013,-0.013,-0.013,-0.013,-0.006,-0.006,-0.013,-0.013,-0.013,-0.013,-0.013,-0.006,-0.006,-0.006,-0.006,-0.006,-0.006,-0.006,-0.006,0.001,-0.006,-0.006,-0.006,-0.013,-0.006,-0.006,-0.006,-0.006,0.001,0.001,0.001,0.001,-0.006,-0.006,-0.006,-0.006,-0.006,-0.006,0.001,0.001,-0.006,-0.006,-0.006,0.001,0.001,0.001,0.001,0.001,0.001,0.001,0.007,0.001,0.007,0.007,0.001,0.007,0.001,0.001,0.001,0.001,0.001,0.001,0.001,0.001,0.001,0.001,0.001,-0.006,-0.006,-0.013,-0.013,-0.013,-0.027,-0.027,-0.034,-0.034,-0.041,-0.041,-0.034,-0.034,-0.034,-0.034,-0.034,-0.034,-0.034,-0.041,-0.041,-0.041,-0.041,-0.041,-0.034,-0.034,-0.027,-0.013,-0.013,-0.006,0.001,0.001,0.007,0.014,0.014,0.014,0.014,0.014,0.014,0.014,0.014,0.014,0.014,0.014,0.014,0.014,0.014,0.014,0.014,0.014,0.007,0.007,0.007,0.007,0.007,0.007,0.014,0.014,0.014,0.007,0.014,0.014,0.014,0.014,0.007,0.007,0.014,0.007,0.007,0.014,0.007,0.014,0.028,0.055,0.083,0.138,0.193,0.254,0.329,0.391,0.439,0.46,0.48,0.48,0.48,0.48,0.439,0.405,0.378,0.378,0.378,0.364,0.343,0.316,0.288,0.261,0.24,0.233,0.206,0.158,0.117,0.083,0.035,0.007,-0.006,-0.034,-0.054,-0.061,-0.075,-0.082,-0.082,-0.082,-0.075,-0.075,-0.075,-0.082,-0.082,-0.082,-0.075,-0.075,-0.075,-0.075,-0.075,-0.075,-0.075,-0.075,-0.075,-0.075,-0.075,-0.075,-0.075,-0.075,-0.075,-0.075,-0.082,-0.082,-0.082,-0.075,-0.082,-0.075,-0.082,-0.082,-0.082,-0.082,-0.082,-0.082,-0.082,-0.082,-0.082,-0.082,-0.082,-0.089,-0.082,-0.082,-0.082,-0.082,-0.082,-0.082,-0.082,-0.082,-0.089,-0.089,-0.089,-0.089,-0.089,-0.089,-0.089,-0.089,-0.089,-0.089,-0.102,-0.089,-0.089,-0.089,-0.089,-0.089,-0.089,-0.089,-0.089,-0.089,-0.089,-0.089,-0.089,-0.082,-0.082,-0.089,-0.082,-0.082,-0.082,-0.082,-0.075,-0.075,-0.075,-0.075,-0.061,-0.061,-0.061,-0.054,-0.054,-0.054,-0.054,-0.041,-0.041,-0.041,-0.034,-0.034,-0.034,-0.034,-0.027,-0.027,-0.034,-0.027,-0.027,-0.027,-0.027,-0.013,-0.013,-0.013,-0.013,-0.006,-0.006,-0.006,-0.006,0.001,0.007,0.001,0.001,0.001,0.001,0.007,0.007,0.007,0.007,0.007,0.007,0.007,0.007,0.007,0.014,0.014,0.014,0.007,0.007,0.007,0.007,0.007,0.007,0.007,0.007,0.007,0.007,0.001,0.007,0.001,0.001,0.001,0.001,0.001,0.001,0.001,0.001,0.001,0.001,0.001,0.001,0.001,-0.006,-0.006,0.001,-0.006,-0.006,-0.006,-0.006,-0.006,-0.006,-0.006,-0.006,-0.006,-0.006,-0.013,-0.006,-0.006,-0.006,-0.006,-0.006,-0.006,-0.013,-0.006,-0.006,-0.006,-0.006,-0.013,-0.013,-0.013,-0.006,-0.013,-0.013,-0.013,-0.027,-0.013,-0.013,-0.013,-0.013,-0.013,-0.006,-0.013,-0.013,-0.013,-0.013,-0.006,-0.013,-0.006,-0.013,-0.006,-0.006,-0.006,-0.006,-0.006,-0.006,-0.006,-0.006,-0.006,-0.006,0.001,0.001,0.001,0.001,0.001,0.001,0.001,0.001,0.001,0.001,0.001,0.001,0.001,0.001,0.001,0.001,0.007,0.001,0.001,-0.006,0.001,0.001,0.001,0.001,0.001,0.001,0.001,0.001,0.001,0.001,0.007,0.007,0.001,0.001,0.001,0.001,0.001,0.001,0.001,0.001,0.001,0.001,0.001,-0.006,-0.006,0.001,-0.006,N
7,-0.041,-0.061,-0.075,-0.082,-0.082,-0.075,-0.075,-0.075,-0.075,-0.075,-0.075,-0.075,-0.075,-0.075,-0.075,-0.075,-0.075,-0.061,-0.075,-0.075,-0.075,-0.075,-0.075,-0.075,-0.075,-0.082,-0.075,-0.082,-0.075,-0.075,-0.075,-0.075,-0.082,-0.075,-0.075,-0.075,-0.075,-0.082,-0.082,-0.082,-0.082,-0.082,-0.082,-0.089,-0.089,-0.082,-0.082,-0.089,-0.082,-0.082,-0.082,-0.082,-0.082,-0.089,-0.082,-0.082,-0.089,-0.082,-0.089,-0.089,-0.089,-0.089,-0.089,-0.089,-0.089,-0.089,-0.089,-0.089,-0.089,-0.089,-0.082,-0.089,-0.089,-0.082,-0.082,-0.089,-0.082,-0.082,-0.082,-0.082,-0.082,-0.075,-0.082,-0.082,-0.075,-0.075,-0.075,-0.075,-0.075,-0.061,-0.061,-0.061,-0.054,-0.054,-0.054,-0.054,-0.041,-0.041,-0.041,-0.041,-0.034,-0.034,-0.034,-0.027,-0.027,-0.027,-0.013,-0.013,-0.013,-0.013,-0.013,-0.013,-0.013,-0.013,-0.006,-0.006,-0.006,0.001,0.001,-0.006,0.001,0.001,0.001,0.001,0.007,0.007,0.007,0.007,0.007,0.007,0.014,0.007,0.007,0.007,0.007,0.007,0.007,0.007,0.007,0.007,0.007,0.007,0.007,0.007,0.007,0.007,0.007,0.007,0.007,0.007,0.001,0.001,0.001,0.001,0.001,0.001,0.001,0.001,0.001,0.001,0.001,0.001,0.001,0.001,-0.006,-0.006,-0.006,-0.006,-0.006,-0.006,-0.006,-0.006,-0.006,-0.006,-0.006,-0.006,-0.006,-0.006,-0.006,-0.006,-0.013,-0.006,-0.006,-0.006,-0.013,-0.013,-0.013,-0.013,-0.013,-0.013,-0.013,-0.006,-0.006,-0.013,-0.013,-0.013,-0.013,-0.013,-0.013,-0.006,-0.006,-0.013,-0.013,-0.013,-0.013,-0.013,-0.006,-0.006,-0.006,-0.006,-0.006,-0.006,-0.006,-0.006,0.001,-0.006,-0.006,-0.006,-0.013,-0.006,-0.006,-0.006,-0.006,0.001,0.001,0.001,0.001,-0.006,-0.006,-0.006,-0.006,-0.006,-0.006,0.001,0.001,-0.006,-0.006,-0.006,0.001,0.001,0.001,0.001,0.001,0.001,0.001,0.007,0.001,0.007,0.007,0.001,0.007,0.001,0.001,0.001,0.001,0.001,0.001,0.001,0.001,0.001,0.001,0.001,-0.006,-0.006,-0.013,-0.013,-0.013,-0.027,-0.027,-0.034,-0.034,-0.041,-0.041,-0.034,-0.034,-0.034,-0.034,-0.034,-0.034,-0.034,-0.041,-0.041,-0.041,-0.041,-0.041,-0.034,-0.034,-0.027,-0.013,-0.013,-0.006,0.001,0.001,0.007,0.014,0.014,0.014,0.014,0.014,0.014,0.014,0.014,0.014,0.014,0.014,0.014,0.014,0.014,0.014,0.014,0.014,0.007,0.007,0.007,0.007,0.007,0.007,0.014,0.014,0.014,0.007,0.014,0.014,0.014,0.014,0.007,0.007,0.014,0.007,0.007,0.014,0.007,0.014,0.028,0.055,0.083,0.138,0.193,0.254,0.329,0.391,0.439,0.46,0.48,0.48,0.48,0.48,0.439,0.405,0.378,0.378,0.378,0.364,0.343,0.316,0.288,0.261,0.24,0.233,0.206,0.158,0.117,0.083,0.035,0.007,-0.006,-0.034,-0.054,-0.061,-0.075,-0.082,-0.082,-0.082,-0.075,-0.075,-0.075,-0.082,-0.082,-0.082,-0.075,-0.075,-0.075,-0.075,-0.075,-0.075,-0.075,-0.075,-0.075,-0.075,-0.075,-0.075,-0.075,-0.075,-0.075,-0.075,-0.082,-0.082,-0.082,-0.075,-0.082,-0.075,-0.082,-0.082,-0.082,-0.082,-0.082,-0.082,-0.082,-0.082,-0.082,-0.082,-0.082,-0.089,-0.082,-0.082,-0.082,-0.082,-0.082,-0.082,-0.082,-0.082,-0.089,-0.089,-0.089,-0.089,-0.089,-0.089,-0.089,-0.089,-0.089,-0.089,-0.102,-0.089,-0.089,-0.089,-0.089,-0.089,-0.089,-0.089,-0.089,-0.089,-0.089,-0.089,-0.089,-0.082,-0.082,-0.089,-0.082,-0.082,-0.082,-0.082,-0.075,-0.075,-0.075,-0.075,-0.061,-0.061,-0.061,-0.054,-0.054,-0.054,-0.054,-0.041,-0.041,-0.041,-0.034,-0.034,-0.034,-0.034,-0.027,-0.027,-0.034,-0.027,-0.027,-0.027,-0.027,-0.013,-0.013,-0.013,-0.013,-0.006,-0.006,-0.006,-0.006,0.001,0.007,0.001,0.001,0.001,0.001,0.007,0.007,0.007,0.007,0.007,0.007,0.007,0.007,0.007,0.014,0.014,0.014,0.007,0.007,0.007,0.007,0.007,0.007,0.007,0.007,0.007,0.007,0.001,0.007,0.001,0.001,0.001,0.001,0.001,0.001,0.001,0.001,0.001,0.001,0.001,0.001,0.001,-0.006,-0.006,0.001,-0.006,-0.006,-0.006,-0.006,-0.006,-0.006,-0.006,-0.006,-0.006,-0.006,-0.013,-0.006,-0.006,-0.006,-0.006,-0.006,-0.006,-0.013,-0.006,-0.006,-0.006,-0.006,-0.013,-0.013,-0.013,-0.006,-0.013,-0.013,-0.013,-0.027,-0.013,-0.013,-0.013,-0.013,-0.013,-0.006,-0.013,-0.013,-0.013,-0.013,-0.006,-0.013,-0.006,-0.013,-0.006,-0.006,-0.006,-0.006,-0.006,-0.006,-0.006,-0.006,-0.006,-0.006,0.001,0.001,0.001,0.001,0.001,0.001,0.001,0.001,0.001,0.001,0.001,0.001,0.001,0.001,0.001,0.001,0.007,0.001,0.001,-0.006,0.001,0.001,0.001,0.001,0.001,0.001,0.001,0.001,0.001,0.001,0.007,0.007,0.001,0.001,0.001,0.001,0.001,0.001,0.001,0.001,0.001,0.001,0.001,-0.006,-0.006,0.001,-0.006,-0.006,-0.006,-0.013,-0.013,-0.027,-0.034,-0.034,-0.034,-0.034,-0.034,-0.041,-0.034,-0.034,-0.034,-0.034,-0.041,-0.034,-0.041,-0.041,-0.034,-0.041,-0.034,-0.027,-0.027,-0.013,-0.006,-0.006,0.001,0.007,0.007,0.014,0.014,0.014,0.014,0.014,0.028,0.014,0.014,0.014,0.014,0.014,0.014,0.007,0.007,0.014,0.014,0.007,0.007,0.007,0.007,0.007,0.007,0.007,0.014,0.014,0.014,0.014,0.014,0.014,0.014,0.014,0.014,0.014,0.007,0.014,0.007,0.014,0.028,0.035,0.062,0.09,0.131,0.186,0.254,0.316,0.384,0.432,0.467,0.48,0.487,0.487,0.48,0.453,0.405,0.378,0.378,0.378,0.378,0.357,0.329,0.302,0.268,0.254,0.233,0.213,0.179,0.131,0.083,0.042,0.014,-0.006,-0.027,-0.054,-0.061,-0.075,-0.075,-0.082,-0.082,-0.075,-0.082,-0.075,-0.082,-0.082,-0.082,-0.082,-0.082,-0.082,-0.082,-0.075,-0.075,-0.075,-0.075,-0.075,-0.075,-0.082,-0.075,-0.075,-0.075,-0.075,-0.082,-0.082,-0.082,-0.082,-0.075,-0.075,-0.082,-0.075,-0.089,-0.082,-0.082,-0.082,-0.082,-0.082,-0.082,-0.082,-0.082,-0.089,-0.089,-0.102,-0.089,-0.089,-0.089,-0.089,-0.089,-0.089,-0.082,-0.089,-0.082,-0.089,-0.082,-0.089,-0.089,-0.102,-0.089,-0.089,-0.089,-0.089,-0.089,-0.089,-0.102,-0.089,-0.089,-0.089,-0.089,-0.089,-0.089,-0.089,-0.089,-0.089,-0.089,-0.082,-0.082,-0.082,-0.082,-0.082,-0.082,-0.082,-0.075,-0.075,-0.075,-0.061,-0.061,-0.061,-0.061,-0.054,-0.054,-0.054,-0.041,-0.041,-0.034,-0.034,-0.034,-0.034,-0.034,-0.027,-0.027,-0.027,-0.027,-0.027,-0.013,-0.013,-0.006,-0.013,-0.006,-0.006,-0.006,-0.006,-0.006,-0.006,0.001,0.001,0.001,0.001,0.001,0.007,0.001,0.007,0.007,0.007,0.007,0.007,0.007,0.007,0.007,0.007,0.007,0.007,0.007,0.007,0.007,0.007,0.001,0.007,0.007,0.007,0.007,0.007,0.007,0.007,0.007,0.001,0.001,-0.006,0.001,0.001,0.001,0.001,0.001,0.001,-0.006,0.001,0.001,-0.006,-0.006,-0.006,-0.006,-0.006,-0.006,-0.006,-0.006,-0.006,-0.006,-0.006,-0.013,-0.013,-0.006,-0.013,-0.013,-0.013,-0.013,-0.013,-0.013,-0.013,-0.013,-0.006,-0.006,-0.013,-0.013,-0.013,-0.013,-0.013,-0.013,-0.013,-0.013,-0.013,-0.013,-0.013,-0.006,-0.006,-0.006,-0.006,-0.006,-0.006,-0.006,-0.006,-0.006,-0.006,-0.006,-0.006,-0.006,0.001,0.001,0.007,0.001,0.001,0.001,0.001,0.001,0.001,0.001,0.001,0.001,0.001,0.007,0.001,0.007,0.007,0.001,0.007,0.001,0.001,0.007,0.007,0.007,0.007,0.007,0.007,0.007,0.001,0.001,0.001,0.007,0.001,0.001,0.001,0.007,0.001,0.007,0.007,0.007,0.001,0.007,0.001,0.001,0.001,0.001,-0.006,0.001,0.001,0.007,0.001,0.001,-0.006,-0.006,-0.013,-0.006,-0.006,-0.013,-0.013,N
8,-0.006,-0.034,-0.054,-0.061,-0.075,-0.082,-0.082,-0.082,-0.075,-0.075,-0.075,-0.082,-0.082,-0.082,-0.075,-0.075,-0.075,-0.075,-0.075,-0.075,-0.075,-0.075,-0.075,-0.075,-0.075,-0.075,-0.075,-0.075,-0.075,-0.075,-0.082,-0.082,-0.082,-0.075,-0.082,-0.075,-0.082,-0.082,-0.082,-0.082,-0.082,-0.082,-0.082,-0.082,-0.082,-0.082,-0.082,-0.089,-0.082,-0.082,-0.082,-0.082,-0.082,-0.082,-0.082,-0.082,-0.089,-0.089,-0.089,-0.089,-0.089,-0.089,-0.089,-0.089,-0.089,-0.089,-0.102,-0.089,-0.089,-0.089,-0.089,-0.089,-0.089,-0.089,-0.089,-0.089,-0.089,-0.089,-0.089,-0.082,-0.082,-0.089,-0.082,-0.082,-0.082,-0.082,-0.075,-0.075,-0.075,-0.075,-0.061,-0.061,-0.061,-0.054,-0.054,-0.054,-0.054,-0.041,-0.041,-0.041,-0.034,-0.034,-0.034,-0.034,-0.027,-0.027,-0.034,-0.027,-0.027,-0.027,-0.027,-0.013,-0.013,-0.013,-0.013,-0.006,-0.006,-0.006,-0.006,0.001,0.007,0.001,0.001,0.001,0.001,0.007,0.007,0.007,0.007,0.007,0.007,0.007,0.007,0.007,0.014,0.014,0.014,0.007,0.007,0.007,0.007,0.007,0.007,0.007,0.007,0.007,0.007,0.001,0.007,0.001,0.001,0.001,0.001,0.001,0.001,0.001,0.001,0.001,0.001,0.001,0.001,0.001,-0.006,-0.006,0.001,-0.006,-0.006,-0.006,-0.006,-0.006,-0.006,-0.006,-0.006,-0.006,-0.006,-0.013,-0.006,-0.006,-0.006,-0.006,-0.006,-0.006,-0.013,-0.006,-0.006,-0.006,-0.006,-0.013,-0.013,-0.013,-0.006,-0.013,-0.013,-0.013,-0.027,-0.013,-0.013,-0.013,-0.013,-0.013,-0.006,-0.013,-0.013,-0.013,-0.013,-0.006,-0.013,-0.006,-0.013,-0.006,-0.006,-0.006,-0.006,-0.006,-0.006,-0.006,-0.006,-0.006,-0.006,0.001,0.001,0.001,0.001,0.001,0.001,0.001,0.001,0.001,0.001,0.001,0.001,0.001,0.001,0.001,0.001,0.007,0.001,0.001,-0.006,0.001,0.001,0.001,0.001,0.001,0.001,0.001,0.001,0.001,0.001,0.007,0.007,0.001,0.001,0.001,0.001,0.001,0.001,0.001,0.001,0.001,0.001,0.001,-0.006,-0.006,0.001,-0.006,-0.006,-0.006,-0.013,-0.013,-0.027,-0.034,-0.034,-0.034,-0.034,-0.034,-0.041,-0.034,-0.034,-0.034,-0.034,-0.041,-0.034,-0.041,-0.041,-0.034,-0.041,-0.034,-0.027,-0.027,-0.013,-0.006,-0.006,0.001,0.007,0.007,0.014,0.014,0.014,0.014,0.014,0.028,0.014,0.014,0.014,0.014,0.014,0.014,0.007,0.007,0.014,0.014,0.007,0.007,0.007,0.007,0.007,0.007,0.007,0.014,0.014,0.014,0.014,0.014,0.014,0.014,0.014,0.014,0.014,0.007,0.014,0.007,0.014,0.028,0.035,0.062,0.09,0.131,0.186,0.254,0.316,0.384,0.432,0.467,0.48,0.487,0.487,0.48,0.453,0.405,0.378,0.378,0.378,0.378,0.357,0.329,0.302,0.268,0.254,0.233,0.213,0.179,0.131,0.083,0.042,0.014,-0.006,-0.027,-0.054,-0.061,-0.075,-0.075,-0.082,-0.082,-0.075,-0.082,-0.075,-0.082,-0.082,-0.082,-0.082,-0.082,-0.082,-0.082,-0.075,-0.075,-0.075,-0.075,-0.075,-0.075,-0.082,-0.075,-0.075,-0.075,-0.075,-0.082,-0.082,-0.082,-0.082,-0.075,-0.075,-0.082,-0.075,-0.089,-0.082,-0.082,-0.082,-0.082,-0.082,-0.082,-0.082,-0.082,-0.089,-0.089,-0.102,-0.089,-0.089,-0.089,-0.089,-0.089,-0.089,-0.082,-0.089,-0.082,-0.089,-0.082,-0.089,-0.089,-0.102,-0.089,-0.089,-0.089,-0.089,-0.089,-0.089,-0.102,-0.089,-0.089,-0.089,-0.089,-0.089,-0.089,-0.089,-0.089,-0.089,-0.089,-0.082,-0.082,-0.082,-0.082,-0.082,-0.082,-0.082,-0.075,-0.075,-0.075,-0.061,-0.061,-0.061,-0.061,-0.054,-0.054,-0.054,-0.041,-0.041,-0.034,-0.034,-0.034,-0.034,-0.034,-0.027,-0.027,-0.027,-0.027,-0.027,-0.013,-0.013,-0.006,-0.013,-0.006,-0.006,-0.006,-0.006,-0.006,-0.006,0.001,0.001,0.001,0.001,0.001,0.007,0.001,0.007,0.007,0.007,0.007,0.007,0.007,0.007,0.007,0.007,0.007,0.007,0.007,0.007,0.007,0.007,0.001,0.007,0.007,0.007,0.007,0.007,0.007,0.007,0.007,0.001,0.001,-0.006,0.001,0.001,0.001,0.001,0.001,0.001,-0.006,0.001,0.001,-0.006,-0.006,-0.006,-0.006,-0.006,-0.006,-0.006,-0.006,-0.006,-0.006,-0.006,-0.013,-0.013,-0.006,-0.013,-0.013,-0.013,-0.013,-0.013,-0.013,-0.013,-0.013,-0.006,-0.006,-0.013,-0.013,-0.013,-0.013,-0.013,-0.013,-0.013,-0.013,-0.013,-0.013,-0.013,-0.006,-0.006,-0.006,-0.006,-0.006,-0.006,-0.006,-0.006,-0.006,-0.006,-0.006,-0.006,-0.006,0.001,0.001,0.007,0.001,0.001,0.001,0.001,0.001,0.001,0.001,0.001,0.001,0.001,0.007,0.001,0.007,0.007,0.001,0.007,0.001,0.001,0.007,0.007,0.007,0.007,0.007,0.007,0.007,0.001,0.001,0.001,0.007,0.001,0.001,0.001,0.007,0.001,0.007,0.007,0.007,0.001,0.007,0.001,0.001,0.001,0.001,-0.006,0.001,0.001,0.007,0.001,0.001,-0.006,-0.006,-0.013,-0.006,-0.006,-0.013,-0.013,-0.027,-0.034,-0.034,-0.041,-0.041,-0.041,-0.041,-0.041,-0.034,-0.041,-0.034,-0.034,-0.041,-0.041,-0.034,-0.041,-0.041,-0.041,-0.034,-0.027,-0.027,-0.013,-0.006,-0.006,0.001,0.007,0.007,0.014,0.014,0.007,0.014,0.014,0.014,0.014,0.014,0.014,0.014,0.014,0.007,0.007,0.007,0.007,0.007,0.007,0.007,0.007,0.007,0.014,0.007,0.014,0.007,0.007,0.014,0.007,0.014,0.014,0.014,0.014,0.014,0.014,0.014,0.014,0.014,0.014,0.014,0.028,0.055,0.09,0.138,0.179,0.24,0.316,0.378,0.432,0.467,0.487,0.487,0.487,0.487,0.467,0.418,0.378,0.378,0.378,0.378,0.364,0.336,0.309,0.282,0.261,0.24,0.227,0.186,0.138,0.103,0.055,0.014,0.001,-0.027,-0.041,-0.061,-0.075,-0.082,-0.082,-0.082,-0.075,-0.075,-0.082,-0.082,-0.082,-0.082,-0.082,-0.082,-0.082,-0.075,-0.075,-0.075,-0.075,-0.082,-0.075,-0.075,-0.075,-0.075,-0.075,-0.082,-0.075,-0.075,-0.075,-0.082,-0.082,-0.082,-0.082,-0.082,-0.082,-0.082,-0.082,-0.082,-0.089,-0.082,-0.089,-0.089,-0.082,-0.082,-0.082,-0.082,-0.082,-0.082,-0.089,-0.089,-0.089,-0.089,-0.089,-0.089,-0.089,-0.089,-0.089,-0.089,-0.089,-0.089,-0.089,-0.089,-0.102,-0.102,-0.102,-0.089,-0.089,-0.089,-0.089,-0.089,-0.082,-0.089,-0.089,-0.089,-0.089,-0.089,-0.089,-0.082,-0.089,-0.089,-0.089,-0.082,-0.082,-0.082,-0.082,-0.075,-0.075,-0.075,-0.075,-0.061,-0.061,-0.061,-0.054,-0.054,-0.054,-0.054,-0.054,-0.054,-0.041,-0.041,-0.034,-0.034,-0.034,-0.027,-0.034,-0.027,-0.027,-0.027,-0.013,-0.013,-0.027,-0.013,-0.013,-0.006,-0.013,-0.006,-0.006,-0.006,0.001,0.001,0.001,0.001,0.001,0.001,0.007,0.001,0.007,0.007,0.007,0.007,0.001,0.007,0.007,0.014,0.007,0.007,0.007,0.007,0.007,0.007,0.007,0.007,0.001,0.007,0.001,0.001,0.001,0.007,0.001,0.001,0.001,0.001,0.001,-0.006,0.001,0.001,0.001,-0.006,-0.006,0.001,0.001,0.001,-0.006,-0.006,0.001,0.001,-0.006,-0.006,-0.006,-0.006,-0.006,-0.006,-0.006,-0.006,-0.006,-0.006,-0.006,-0.013,-0.006,-0.013,-0.013,-0.013,-0.013,-0.013,-0.013,-0.013,-0.006,-0.013,-0.006,-0.006,-0.013,-0.006,-0.006,-0.006,-0.006,-0.006,-0.006,-0.006,-0.006,-0.006,-0.006,-0.006,-0.006,-0.006,0.001,-0.006,-0.006,0.001,-0.006,0.001,0.001,-0.006,0.001,0.001,0.001,0.001,0.001,0.001,0.001,0.001,0.001,0.001,0.001,0.001,0.001,0.001,0.001,0.001,0.001,0.001,0.001,0.001,0.001,0.001,0.007,0.007,0.001,0.001,0.001,0.007,0.001,0.007,0.007,0.007,0.014,0.007,0.014,0.014,0.014,0.014,0.007,0.007,0.007,0.001,0.007,0.001,0.001,0.001,0.001,0.001,0.001,0.001,0.001,0.001,-0.006,-0.013,N
9,-0.006,-0.027,-0.054,-0.061,-0.075,-0.075,-0.082,-0.082,-0.075,-0.082,-0.075,-0.082,-0.082,-0.082,-0.082,-0.082,-0.082,-0.082,-0.075,-0.075,-0.075,-0.075,-0.075,-0.075,-0.082,-0.075,-0.075,-0.075,-0.075,-0.082,-0.082,-0.082,-0.082,-0.075,-0.075,-0.082,-0.075,-0.089,-0.082,-0.082,-0.082,-0.082,-0.082,-0.082,-0.082,-0.082,-0.089,-0.089,-0.102,-0.089,-0.089,-0.089,-0.089,-0.089,-0.089,-0.082,-0.089,-0.082,-0.089,-0.082,-0.089,-0.089,-0.102,-0.089,-0.089,-0.089,-0.089,-0.089,-0.089,-0.102,-0.089,-0.089,-0.089,-0.089,-0.089,-0.089,-0.089,-0.089,-0.089,-0.089,-0.082,-0.082,-0.082,-0.082,-0.082,-0.082,-0.082,-0.075,-0.075,-0.075,-0.061,-0.061,-0.061,-0.061,-0.054,-0.054,-0.054,-0.041,-0.041,-0.034,-0.034,-0.034,-0.034,-0.034,-0.027,-0.027,-0.027,-0.027,-0.027,-0.013,-0.013,-0.006,-0.013,-0.006,-0.006,-0.006,-0.006,-0.006,-0.006,0.001,0.001,0.001,0.001,0.001,0.007,0.001,0.007,0.007,0.007,0.007,0.007,0.007,0.007,0.007,0.007,0.007,0.007,0.007,0.007,0.007,0.007,0.001,0.007,0.007,0.007,0.007,0.007,0.007,0.007,0.007,0.001,0.001,-0.006,0.001,0.001,0.001,0.001,0.001,0.001,-0.006,0.001,0.001,-0.006,-0.006,-0.006,-0.006,-0.006,-0.006,-0.006,-0.006,-0.006,-0.006,-0.006,-0.013,-0.013,-0.006,-0.013,-0.013,-0.013,-0.013,-0.013,-0.013,-0.013,-0.013,-0.006,-0.006,-0.013,-0.013,-0.013,-0.013,-0.013,-0.013,-0.013,-0.013,-0.013,-0.013,-0.013,-0.006,-0.006,-0.006,-0.006,-0.006,-0.006,-0.006,-0.006,-0.006,-0.006,-0.006,-0.006,-0.006,0.001,0.001,0.007,0.001,0.001,0.001,0.001,0.001,0.001,0.001,0.001,0.001,0.001,0.007,0.001,0.007,0.007,0.001,0.007,0.001,0.001,0.007,0.007,0.007,0.007,0.007,0.007,0.007,0.001,0.001,0.001,0.007,0.001,0.001,0.001,0.007,0.001,0.007,0.007,0.007,0.001,0.007,0.001,0.001,0.001,0.001,-0.006,0.001,0.001,0.007,0.001,0.001,-0.006,-0.006,-0.013,-0.006,-0.006,-0.013,-0.013,-0.027,-0.034,-0.034,-0.041,-0.041,-0.041,-0.041,-0.041,-0.034,-0.041,-0.034,-0.034,-0.041,-0.041,-0.034,-0.041,-0.041,-0.041,-0.034,-0.027,-0.027,-0.013,-0.006,-0.006,0.001,0.007,0.007,0.014,0.014,0.007,0.014,0.014,0.014,0.014,0.014,0.014,0.014,0.014,0.007,0.007,0.007,0.007,0.007,0.007,0.007,0.007,0.007,0.014,0.007,0.014,0.007,0.007,0.014,0.007,0.014,0.014,0.014,0.014,0.014,0.014,0.014,0.014,0.014,0.014,0.014,0.028,0.055,0.09,0.138,0.179,0.24,0.316,0.378,0.432,0.467,0.487,0.487,0.487,0.487,0.467,0.418,0.378,0.378,0.378,0.378,0.364,0.336,0.309,0.282,0.261,0.24,0.227,0.186,0.138,0.103,0.055,0.014,0.001,-0.027,-0.041,-0.061,-0.075,-0.082,-0.082,-0.082,-0.075,-0.075,-0.082,-0.082,-0.082,-0.082,-0.082,-0.082,-0.082,-0.075,-0.075,-0.075,-0.075,-0.082,-0.075,-0.075,-0.075,-0.075,-0.075,-0.082,-0.075,-0.075,-0.075,-0.082,-0.082,-0.082,-0.082,-0.082,-0.082,-0.082,-0.082,-0.082,-0.089,-0.082,-0.089,-0.089,-0.082,-0.082,-0.082,-0.082,-0.082,-0.082,-0.089,-0.089,-0.089,-0.089,-0.089,-0.089,-0.089,-0.089,-0.089,-0.089,-0.089,-0.089,-0.089,-0.089,-0.102,-0.102,-0.102,-0.089,-0.089,-0.089,-0.089,-0.089,-0.082,-0.089,-0.089,-0.089,-0.089,-0.089,-0.089,-0.082,-0.089,-0.089,-0.089,-0.082,-0.082,-0.082,-0.082,-0.075,-0.075,-0.075,-0.075,-0.061,-0.061,-0.061,-0.054,-0.054,-0.054,-0.054,-0.054,-0.054,-0.041,-0.041,-0.034,-0.034,-0.034,-0.027,-0.034,-0.027,-0.027,-0.027,-0.013,-0.013,-0.027,-0.013,-0.013,-0.006,-0.013,-0.006,-0.006,-0.006,0.001,0.001,0.001,0.001,0.001,0.001,0.007,0.001,0.007,0.007,0.007,0.007,0.001,0.007,0.007,0.014,0.007,0.007,0.007,0.007,0.007,0.007,0.007,0.007,0.001,0.007,0.001,0.001,0.001,0.007,0.001,0.001,0.001,0.001,0.001,-0.006,0.001,0.001,0.001,-0.006,-0.006,0.001,0.001,0.001,-0.006,-0.006,0.001,0.001,-0.006,-0.006,-0.006,-0.006,-0.006,-0.006,-0.006,-0.006,-0.006,-0.006,-0.006,-0.013,-0.006,-0.013,-0.013,-0.013,-0.013,-0.013,-0.013,-0.013,-0.006,-0.013,-0.006,-0.006,-0.013,-0.006,-0.006,-0.006,-0.006,-0.006,-0.006,-0.006,-0.006,-0.006,-0.006,-0.006,-0.006,-0.006,0.001,-0.006,-0.006,0.001,-0.006,0.001,0.001,-0.006,0.001,0.001,0.001,0.001,0.001,0.001,0.001,0.001,0.001,0.001,0.001,0.001,0.001,0.001,0.001,0.001,0.001,0.001,0.001,0.001,0.001,0.001,0.007,0.007,0.001,0.001,0.001,0.007,0.001,0.007,0.007,0.007,0.014,0.007,0.014,0.014,0.014,0.014,0.007,0.007,0.007,0.001,0.007,0.001,0.001,0.001,0.001,0.001,0.001,0.001,0.001,0.001,-0.006,-0.013,-0.027,-0.027,-0.034,-0.034,-0.034,-0.041,-0.034,-0.034,-0.034,-0.034,-0.034,-0.034,-0.034,-0.041,-0.041,-0.041,-0.041,-0.041,-0.034,-0.034,-0.027,-0.013,-0.013,-0.006,0.001,0.001,0.007,0.014,0.014,0.014,0.014,0.014,0.014,0.014,0.014,0.014,0.028,0.014,0.014,0.014,0.014,0.014,0.014,0.014,0.014,0.007,0.014,0.007,0.007,0.014,0.007,0.007,0.007,0.014,0.007,0.014,0.014,0.014,0.014,0.007,0.014,0.014,0.014,0.014,0.014,0.014,0.035,0.055,0.09,0.131,0.186,0.24,0.316,0.384,0.432,0.467,0.487,0.494,0.494,0.48,0.46,0.412,0.378,0.378,0.378,0.378,0.364,0.336,0.309,0.288,0.268,0.254,0.227,0.186,0.138,0.103,0.055,0.028,0.001,-0.013,-0.041,-0.054,-0.075,-0.082,-0.082,-0.075,-0.082,-0.082,-0.082,-0.075,-0.075,-0.075,-0.082,-0.082,-0.075,-0.082,-0.075,-0.075,-0.082,-0.061,-0.075,-0.075,-0.075,-0.075,-0.075,-0.075,-0.075,-0.075,-0.075,-0.075,-0.075,-0.082,-0.082,-0.082,-0.075,-0.075,-0.082,-0.082,-0.082,-0.082,-0.082,-0.082,-0.082,-0.082,-0.089,-0.089,-0.089,-0.082,-0.089,-0.089,-0.089,-0.082,-0.082,-0.082,-0.089,-0.089,-0.089,-0.089,-0.089,-0.089,-0.089,-0.089,-0.089,-0.102,-0.089,-0.089,-0.089,-0.089,-0.089,-0.089,-0.089,-0.089,-0.089,-0.089,-0.082,-0.082,-0.082,-0.089,-0.082,-0.089,-0.082,-0.082,-0.082,-0.082,-0.075,-0.075,-0.075,-0.061,-0.075,-0.061,-0.061,-0.054,-0.054,-0.054,-0.041,-0.041,-0.041,-0.041,-0.041,-0.034,-0.034,-0.027,-0.027,-0.027,-0.027,-0.027,-0.027,-0.013,-0.013,-0.013,-0.006,-0.013,-0.006,-0.006,0.001,-0.006,0.001,0.001,0.001,0.007,0.007,0.001,0.007,0.007,0.014,0.007,0.007,0.007,0.007,0.007,0.007,0.007,0.014,0.014,0.014,0.014,0.014,0.007,0.007,0.007,0.007,0.007,0.007,0.007,0.001,0.007,0.001,0.001,0.007,0.007,0.007,0.001,0.007,0.001,0.001,0.001,0.001,0.001,-0.006,-0.006,0.001,0.001,0.001,-0.006,-0.006,-0.006,-0.006,-0.006,-0.006,-0.006,-0.006,-0.006,-0.006,-0.006,-0.006,-0.013,-0.013,-0.006,-0.013,-0.013,-0.013,-0.013,-0.013,-0.013,-0.013,-0.013,-0.013,-0.013,-0.013,-0.013,-0.013,-0.013,-0.013,-0.013,-0.013,-0.013,-0.013,-0.013,-0.013,-0.013,-0.013,-0.013,-0.006,-0.013,-0.013,-0.013,-0.013,-0.013,-0.013,-0.006,-0.013,-0.006,-0.006,-0.006,-0.006,-0.006,-0.006,-0.006,-0.006,-0.006,-0.013,-0.006,-0.006,-0.006,-0.006,-0.006,-0.006,0.001,0.001,0.001,0.001,0.001,0.001,0.001,-0.006,0.001,-0.006,0.001,0.001,0.001,0.001,0.001,0.001,0.007,0.001,0.007,0.007,0.007,0.001,0.001,0.001,0.001,0.001,0.001,0.001,0.001,0.001,0.001,0.001,0.001,-0.006,-0.006,-0.006,-0.013,-0.027,-0.013,N
10,-0.041,-0.061,-0.075,-0.082,-0.082,-0.082,-0.075,-0.075,-0.082,-0.082,-0.082,-0.082,-0.082,-0.082,-0.082,-0.075,-0.075,-0.075,-0.075,-0.082,-0.075,-0.075,-0.075,-0.075,-0.075,-0.082,-0.075,-0.075,-0.075,-0.082,-0.082,-0.082,-0.082,-0.082,-0.082,-0.082,-0.082,-0.082,-0.089,-0.082,-0.089,-0.089,-0.082,-0.082,-0.082,-0.082,-0.082,-0.082,-0.089,-0.089,-0.089,-0.089,-0.089,-0.089,-0.089,-0.089,-0.089,-0.089,-0.089,-0.089,-0.089,-0.089,-0.102,-0.102,-0.102,-0.089,-0.089,-0.089,-0.089,-0.089,-0.082,-0.089,-0.089,-0.089,-0.089,-0.089,-0.089,-0.082,-0.089,-0.089,-0.089,-0.082,-0.082,-0.082,-0.082,-0.075,-0.075,-0.075,-0.075,-0.061,-0.061,-0.061,-0.054,-0.054,-0.054,-0.054,-0.054,-0.054,-0.041,-0.041,-0.034,-0.034,-0.034,-0.027,-0.034,-0.027,-0.027,-0.027,-0.013,-0.013,-0.027,-0.013,-0.013,-0.006,-0.013,-0.006,-0.006,-0.006,0.001,0.001,0.001,0.001,0.001,0.001,0.007,0.001,0.007,0.007,0.007,0.007,0.001,0.007,0.007,0.014,0.007,0.007,0.007,0.007,0.007,0.007,0.007,0.007,0.001,0.007,0.001,0.001,0.001,0.007,0.001,0.001,0.001,0.001,0.001,-0.006,0.001,0.001,0.001,-0.006,-0.006,0.001,0.001,0.001,-0.006,-0.006,0.001,0.001,-0.006,-0.006,-0.006,-0.006,-0.006,-0.006,-0.006,-0.006,-0.006,-0.006,-0.006,-0.013,-0.006,-0.013,-0.013,-0.013,-0.013,-0.013,-0.013,-0.013,-0.006,-0.013,-0.006,-0.006,-0.013,-0.006,-0.006,-0.006,-0.006,-0.006,-0.006,-0.006,-0.006,-0.006,-0.006,-0.006,-0.006,-0.006,0.001,-0.006,-0.006,0.001,-0.006,0.001,0.001,-0.006,0.001,0.001,0.001,0.001,0.001,0.001,0.001,0.001,0.001,0.001,0.001,0.001,0.001,0.001,0.001,0.001,0.001,0.001,0.001,0.001,0.001,0.001,0.007,0.007,0.001,0.001,0.001,0.007,0.001,0.007,0.007,0.007,0.014,0.007,0.014,0.014,0.014,0.014,0.007,0.007,0.007,0.001,0.007,0.001,0.001,0.001,0.001,0.001,0.001,0.001,0.001,0.001,-0.006,-0.013,-0.027,-0.027,-0.034,-0.034,-0.034,-0.041,-0.034,-0.034,-0.034,-0.034,-0.034,-0.034,-0.034,-0.041,-0.041,-0.041,-0.041,-0.041,-0.034,-0.034,-0.027,-0.013,-0.013,-0.006,0.001,0.001,0.007,0.014,0.014,0.014,0.014,0.014,0.014,0.014,0.014,0.014,0.028,0.014,0.014,0.014,0.014,0.014,0.014,0.014,0.014,0.007,0.014,0.007,0.007,0.014,0.007,0.007,0.007,0.014,0.007,0.014,0.014,0.014,0.014,0.007,0.014,0.014,0.014,0.014,0.014,0.014,0.035,0.055,0.09,0.131,0.186,0.24,0.316,0.384,0.432,0.467,0.487,0.494,0.494,0.48,0.46,0.412,0.378,0.378,0.378,0.378,0.364,0.336,0.309,0.288,0.268,0.254,0.227,0.186,0.138,0.103,0.055,0.028,0.001,-0.013,-0.041,-0.054,-0.075,-0.082,-0.082,-0.075,-0.082,-0.082,-0.082,-0.075,-0.075,-0.075,-0.082,-0.082,-0.075,-0.082,-0.075,-0.075,-0.082,-0.061,-0.075,-0.075,-0.075,-0.075,-0.075,-0.075,-0.075,-0.075,-0.075,-0.075,-0.075,-0.082,-0.082,-0.082,-0.075,-0.075,-0.082,-0.082,-0.082,-0.082,-0.082,-0.082,-0.082,-0.082,-0.089,-0.089,-0.089,-0.082,-0.089,-0.089,-0.089,-0.082,-0.082,-0.082,-0.089,-0.089,-0.089,-0.089,-0.089,-0.089,-0.089,-0.089,-0.089,-0.102,-0.089,-0.089,-0.089,-0.089,-0.089,-0.089,-0.089,-0.089,-0.089,-0.089,-0.082,-0.082,-0.082,-0.089,-0.082,-0.089,-0.082,-0.082,-0.082,-0.082,-0.075,-0.075,-0.075,-0.061,-0.075,-0.061,-0.061,-0.054,-0.054,-0.054,-0.041,-0.041,-0.041,-0.041,-0.041,-0.034,-0.034,-0.027,-0.027,-0.027,-0.027,-0.027,-0.027,-0.013,-0.013,-0.013,-0.006,-0.013,-0.006,-0.006,0.001,-0.006,0.001,0.001,0.001,0.007,0.007,0.001,0.007,0.007,0.014,0.007,0.007,0.007,0.007,0.007,0.007,0.007,0.014,0.014,0.014,0.014,0.014,0.007,0.007,0.007,0.007,0.007,0.007,0.007,0.001,0.007,0.001,0.001,0.007,0.007,0.007,0.001,0.007,0.001,0.001,0.001,0.001,0.001,-0.006,-0.006,0.001,0.001,0.001,-0.006,-0.006,-0.006,-0.006,-0.006,-0.006,-0.006,-0.006,-0.006,-0.006,-0.006,-0.006,-0.013,-0.013,-0.006,-0.013,-0.013,-0.013,-0.013,-0.013,-0.013,-0.013,-0.013,-0.013,-0.013,-0.013,-0.013,-0.013,-0.013,-0.013,-0.013,-0.013,-0.013,-0.013,-0.013,-0.013,-0.013,-0.013,-0.013,-0.006,-0.013,-0.013,-0.013,-0.013,-0.013,-0.013,-0.006,-0.013,-0.006,-0.006,-0.006,-0.006,-0.006,-0.006,-0.006,-0.006,-0.006,-0.013,-0.006,-0.006,-0.006,-0.006,-0.006,-0.006,0.001,0.001,0.001,0.001,0.001,0.001,0.001,-0.006,0.001,-0.006,0.001,0.001,0.001,0.001,0.001,0.001,0.007,0.001,0.007,0.007,0.007,0.001,0.001,0.001,0.001,0.001,0.001,0.001,0.001,0.001,0.001,0.001,0.001,-0.006,-0.006,-0.006,-0.013,-0.027,-0.013,-0.027,-0.027,-0.034,-0.034,-0.034,-0.041,-0.041,-0.034,-0.041,-0.034,-0.034,-0.034,-0.041,-0.041,-0.041,-0.041,-0.041,-0.041,-0.034,-0.027,-0.027,-0.013,-0.013,-0.006,-0.006,0.007,0.014,0.014,0.014,0.014,0.014,0.014,0.014,0.014,0.014,0.014,0.014,0.007,0.007,0.014,0.007,0.007,0.014,0.007,0.014,0.014,0.014,0.014,0.007,0.014,0.014,0.014,0.007,0.014,0.014,0.007,0.014,0.014,0.014,0.014,0.007,0.014,0.007,0.014,0.014,0.014,0.035,0.055,0.09,0.131,0.186,0.24,0.309,0.378,0.432,0.46,0.48,0.487,0.487,0.487,0.46,0.412,0.378,0.378,0.378,0.378,0.364,0.343,0.309,0.288,0.268,0.254,0.227,0.193,0.138,0.103,0.076,0.028,0.007,-0.013,-0.041,-0.054,-0.075,-0.075,-0.082,-0.082,-0.075,-0.082,-0.082,-0.075,-0.075,-0.082,-0.082,-0.082,-0.075,-0.075,-0.075,-0.075,-0.075,-0.075,-0.075,-0.082,-0.082,-0.075,-0.075,-0.075,-0.075,-0.075,-0.075,-0.075,-0.075,-0.075,-0.082,-0.082,-0.082,-0.082,-0.082,-0.082,-0.082,-0.082,-0.082,-0.082,-0.082,-0.082,-0.082,-0.089,-0.089,-0.089,-0.089,-0.089,-0.089,-0.089,-0.089,-0.102,-0.089,-0.089,-0.089,-0.089,-0.089,-0.089,-0.102,-0.089,-0.089,-0.089,-0.089,-0.102,-0.102,-0.089,-0.089,-0.089,-0.089,-0.089,-0.089,-0.089,-0.089,-0.089,-0.089,-0.082,-0.082,-0.082,-0.082,-0.082,-0.089,-0.075,-0.082,-0.075,-0.075,-0.075,-0.075,-0.075,-0.061,-0.061,-0.061,-0.054,-0.054,-0.041,-0.054,-0.041,-0.041,-0.034,-0.034,-0.034,-0.027,-0.034,-0.027,-0.027,-0.027,-0.027,-0.013,-0.006,-0.013,-0.013,-0.013,-0.006,-0.006,-0.006,-0.006,0.001,0.001,0.001,0.001,0.001,0.001,0.001,0.001,0.001,0.007,0.007,0.007,0.007,0.007,0.007,0.007,0.014,0.007,0.007,0.007,0.007,0.007,0.001,0.001,0.001,0.007,0.007,0.001,0.001,0.001,0.001,0.001,0.001,0.001,0.001,0.001,0.001,0.001,-0.006,-0.006,-0.006,0.001,-0.006,-0.006,-0.006,-0.013,-0.006,-0.006,-0.006,-0.006,-0.006,-0.006,-0.013,-0.006,-0.013,-0.013,-0.013,-0.013,-0.013,-0.013,-0.013,-0.013,-0.013,-0.013,-0.013,-0.013,-0.013,-0.027,-0.013,-0.013,-0.013,-0.013,-0.027,-0.013,-0.013,-0.013,-0.027,-0.006,-0.006,-0.013,-0.013,-0.013,-0.013,-0.006,-0.006,-0.006,-0.013,-0.006,-0.006,-0.013,-0.006,-0.006,-0.006,-0.006,-0.006,-0.006,-0.006,-0.006,-0.006,-0.006,0.001,0.001,0.001,0.001,0.001,-0.006,0.001,0.007,-0.006,-0.006,0.001,-0.006,0.001,-0.006,0.001,0.001,0.001,0.001,0.001,0.001,-0.006,0.001,0.001,0.001,0.001,0.001,0.007,0.007,0.007,0.007,0.007,0.007,0.001,0.007,0.001,0.007,0.007,0.001,0.001,0.007,0.001,0.001,0.001,0.001,-0.006,-0.013,-0.013,-0.013,-0.027,-0.027,-0.034,N
11,0.001,-0.013,-0.041,-0.054,-0.075,-0.082,-0.082,-0.075,-0.082,-0.082,-0.082,-0.075,-0.075,-0.075,-0.082,-0.082,-0.075,-0.082,-0.075,-0.075,-0.082,-0.061,-0.075,-0.075,-0.075,-0.075,-0.075,-0.075,-0.075,-0.075,-0.075,-0.075,-0.075,-0.082,-0.082,-0.082,-0.075,-0.075,-0.082,-0.082,-0.082,-0.082,-0.082,-0.082,-0.082,-0.082,-0.089,-0.089,-0.089,-0.082,-0.089,-0.089,-0.089,-0.082,-0.082,-0.082,-0.089,-0.089,-0.089,-0.089,-0.089,-0.089,-0.089,-0.089,-0.089,-0.102,-0.089,-0.089,-0.089,-0.089,-0.089,-0.089,-0.089,-0.089,-0.089,-0.089,-0.082,-0.082,-0.082,-0.089,-0.082,-0.089,-0.082,-0.082,-0.082,-0.082,-0.075,-0.075,-0.075,-0.061,-0.075,-0.061,-0.061,-0.054,-0.054,-0.054,-0.041,-0.041,-0.041,-0.041,-0.041,-0.034,-0.034,-0.027,-0.027,-0.027,-0.027,-0.027,-0.027,-0.013,-0.013,-0.013,-0.006,-0.013,-0.006,-0.006,0.001,-0.006,0.001,0.001,0.001,0.007,0.007,0.001,0.007,0.007,0.014,0.007,0.007,0.007,0.007,0.007,0.007,0.007,0.014,0.014,0.014,0.014,0.014,0.007,0.007,0.007,0.007,0.007,0.007,0.007,0.001,0.007,0.001,0.001,0.007,0.007,0.007,0.001,0.007,0.001,0.001,0.001,0.001,0.001,-0.006,-0.006,0.001,0.001,0.001,-0.006,-0.006,-0.006,-0.006,-0.006,-0.006,-0.006,-0.006,-0.006,-0.006,-0.006,-0.006,-0.013,-0.013,-0.006,-0.013,-0.013,-0.013,-0.013,-0.013,-0.013,-0.013,-0.013,-0.013,-0.013,-0.013,-0.013,-0.013,-0.013,-0.013,-0.013,-0.013,-0.013,-0.013,-0.013,-0.013,-0.013,-0.013,-0.013,-0.006,-0.013,-0.013,-0.013,-0.013,-0.013,-0.013,-0.006,-0.013,-0.006,-0.006,-0.006,-0.006,-0.006,-0.006,-0.006,-0.006,-0.006,-0.013,-0.006,-0.006,-0.006,-0.006,-0.006,-0.006,0.001,0.001,0.001,0.001,0.001,0.001,0.001,-0.006,0.001,-0.006,0.001,0.001,0.001,0.001,0.001,0.001,0.007,0.001,0.007,0.007,0.007,0.001,0.001,0.001,0.001,0.001,0.001,0.001,0.001,0.001,0.001,0.001,0.001,-0.006,-0.006,-0.006,-0.013,-0.027,-0.013,-0.027,-0.027,-0.034,-0.034,-0.034,-0.041,-0.041,-0.034,-0.041,-0.034,-0.034,-0.034,-0.041,-0.041,-0.041,-0.041,-0.041,-0.041,-0.034,-0.027,-0.027,-0.013,-0.013,-0.006,-0.006,0.007,0.014,0.014,0.014,0.014,0.014,0.014,0.014,0.014,0.014,0.014,0.014,0.007,0.007,0.014,0.007,0.007,0.014,0.007,0.014,0.014,0.014,0.014,0.007,0.014,0.014,0.014,0.007,0.014,0.014,0.007,0.014,0.014,0.014,0.014,0.007,0.014,0.007,0.014,0.014,0.014,0.035,0.055,0.09,0.131,0.186,0.24,0.309,0.378,0.432,0.46,0.48,0.487,0.487,0.487,0.46,0.412,0.378,0.378,0.378,0.378,0.364,0.343,0.309,0.288,0.268,0.254,0.227,0.193,0.138,0.103,0.076,0.028,0.007,-0.013,-0.041,-0.054,-0.075,-0.075,-0.082,-0.082,-0.075,-0.082,-0.082,-0.075,-0.075,-0.082,-0.082,-0.082,-0.075,-0.075,-0.075,-0.075,-0.075,-0.075,-0.075,-0.082,-0.082,-0.075,-0.075,-0.075,-0.075,-0.075,-0.075,-0.075,-0.075,-0.075,-0.082,-0.082,-0.082,-0.082,-0.082,-0.082,-0.082,-0.082,-0.082,-0.082,-0.082,-0.082,-0.082,-0.089,-0.089,-0.089,-0.089,-0.089,-0.089,-0.089,-0.089,-0.102,-0.089,-0.089,-0.089,-0.089,-0.089,-0.089,-0.102,-0.089,-0.089,-0.089,-0.089,-0.102,-0.102,-0.089,-0.089,-0.089,-0.089,-0.089,-0.089,-0.089,-0.089,-0.089,-0.089,-0.082,-0.082,-0.082,-0.082,-0.082,-0.089,-0.075,-0.082,-0.075,-0.075,-0.075,-0.075,-0.075,-0.061,-0.061,-0.061,-0.054,-0.054,-0.041,-0.054,-0.041,-0.041,-0.034,-0.034,-0.034,-0.027,-0.034,-0.027,-0.027,-0.027,-0.027,-0.013,-0.006,-0.013,-0.013,-0.013,-0.006,-0.006,-0.006,-0.006,0.001,0.001,0.001,0.001,0.001,0.001,0.001,0.001,0.001,0.007,0.007,0.007,0.007,0.007,0.007,0.007,0.014,0.007,0.007,0.007,0.007,0.007,0.001,0.001,0.001,0.007,0.007,0.001,0.001,0.001,0.001,0.001,0.001,0.001,0.001,0.001,0.001,0.001,-0.006,-0.006,-0.006,0.001,-0.006,-0.006,-0.006,-0.013,-0.006,-0.006,-0.006,-0.006,-0.006,-0.006,-0.013,-0.006,-0.013,-0.013,-0.013,-0.013,-0.013,-0.013,-0.013,-0.013,-0.013,-0.013,-0.013,-0.013,-0.013,-0.027,-0.013,-0.013,-0.013,-0.013,-0.027,-0.013,-0.013,-0.013,-0.027,-0.006,-0.006,-0.013,-0.013,-0.013,-0.013,-0.006,-0.006,-0.006,-0.013,-0.006,-0.006,-0.013,-0.006,-0.006,-0.006,-0.006,-0.006,-0.006,-0.006,-0.006,-0.006,-0.006,0.001,0.001,0.001,0.001,0.001,-0.006,0.001,0.007,-0.006,-0.006,0.001,-0.006,0.001,-0.006,0.001,0.001,0.001,0.001,0.001,0.001,-0.006,0.001,0.001,0.001,0.001,0.001,0.007,0.007,0.007,0.007,0.007,0.007,0.001,0.007,0.001,0.007,0.007,0.001,0.001,0.007,0.001,0.001,0.001,0.001,-0.006,-0.013,-0.013,-0.013,-0.027,-0.027,-0.034,-0.041,-0.041,-0.041,-0.054,-0.041,-0.054,-0.054,-0.041,-0.041,-0.041,-0.041,-0.054,-0.054,-0.054,-0.041,-0.034,-0.034,-0.034,-0.027,-0.013,-0.013,-0.006,-0.013,0.001,0.001,0.007,0.007,0.007,0.007,0.014,0.007,0.007,0.007,0.007,0.007,0.007,0.007,0.001,0.001,0.007,0.001,0.014,0.007,0.007,0.001,0.001,0.001,0.001,0.001,0.007,0.007,0.007,0.007,0.001,0.001,0.007,0.007,0.007,0.001,0.007,0.007,0.007,0.014,0.014,0.035,0.062,0.11,0.158,0.213,0.282,0.336,0.391,0.439,0.467,0.48,0.48,0.48,0.46,0.418,0.378,0.357,0.357,0.343,0.336,0.316,0.282,0.24,0.227,0.206,0.186,0.158,0.117,0.083,0.042,0.007,-0.013,-0.034,-0.054,-0.075,-0.082,-0.082,-0.089,-0.082,-0.082,-0.082,-0.082,-0.082,-0.082,-0.082,-0.082,-0.082,-0.082,-0.082,-0.075,-0.075,-0.082,-0.082,-0.082,-0.075,-0.075,-0.082,-0.075,-0.082,-0.082,-0.082,-0.075,-0.082,-0.082,-0.082,-0.075,-0.075,-0.082,-0.082,-0.082,-0.082,-0.082,-0.089,-0.082,-0.082,-0.082,-0.089,-0.082,-0.089,-0.089,-0.082,-0.089,-0.089,-0.089,-0.089,-0.089,-0.089,-0.089,-0.089,-0.089,-0.102,-0.102,-0.082,-0.089,-0.089,-0.089,-0.089,-0.102,-0.089,-0.089,-0.089,-0.089,-0.089,-0.089,-0.102,-0.089,-0.082,-0.089,-0.089,-0.089,-0.089,-0.089,-0.082,-0.082,-0.089,-0.089,-0.082,-0.075,-0.075,-0.075,-0.061,-0.061,-0.061,-0.061,-0.054,-0.054,-0.041,-0.054,-0.041,-0.041,-0.041,-0.034,-0.034,-0.034,-0.034,-0.034,-0.034,-0.027,-0.027,-0.013,-0.013,-0.013,-0.013,-0.013,-0.006,-0.006,-0.006,-0.006,-0.006,-0.006,0.001,0.001,0.001,0.007,0.007,0.007,0.007,0.007,0.007,0.014,0.014,0.014,0.014,0.014,0.014,0.014,0.007,0.014,0.014,0.014,0.014,0.014,0.014,0.007,0.014,0.014,0.014,0.014,0.014,0.014,0.007,0.007,0.007,0.007,0.007,0.007,0.007,0.007,0.007,0.001,0.001,0.007,0.001,0.001,0.001,0.007,0.007,0.001,0.001,0.001,0.001,0.001,0.001,0.001,0.001,0.001,-0.006,0.001,0.001,0.001,0.001,0.001,0.001,-0.006,-0.006,-0.006,-0.006,-0.006,-0.006,-0.006,-0.006,-0.006,-0.006,-0.006,-0.006,-0.006,-0.006,-0.006,-0.006,-0.006,-0.006,-0.006,-0.013,0.001,-0.006,-0.006,-0.006,-0.006,-0.006,0.001,-0.006,-0.006,0.001,0.001,0.001,-0.006,-0.006,-0.006,-0.006,0.001,-0.006,-0.006,0.001,0.001,0.001,0.001,0.001,0.001,0.001,0.001,0.001,0.001,0.001,0.001,0.001,0.001,0.001,0.001,0.001,0.001,0.001,0.007,0.001,0.007,0.001,0.001,0.001,0.001,0.007,0.007,0.014,0.007,0.007,0.007,0.007,0.007,0.007,0.007,0.001,0.001,0.007,0.007,0.001,0.001,0.001,0.001,-0.006,-0.006,-0.013,-0.013,N
12,0.007,-0.013,-0.041,-0.054,-0.075,-0.075,-0.082,-0.082,-0.075,-0.082,-0.082,-0.075,-0.075,-0.082,-0.082,-0.082,-0.075,-0.075,-0.075,-0.075,-0.075,-0.075,-0.075,-0.082,-0.082,-0.075,-0.075,-0.075,-0.075,-0.075,-0.075,-0.075,-0.075,-0.075,-0.082,-0.082,-0.082,-0.082,-0.082,-0.082,-0.082,-0.082,-0.082,-0.082,-0.082,-0.082,-0.082,-0.089,-0.089,-0.089,-0.089,-0.089,-0.089,-0.089,-0.089,-0.102,-0.089,-0.089,-0.089,-0.089,-0.089,-0.089,-0.102,-0.089,-0.089,-0.089,-0.089,-0.102,-0.102,-0.089,-0.089,-0.089,-0.089,-0.089,-0.089,-0.089,-0.089,-0.089,-0.089,-0.082,-0.082,-0.082,-0.082,-0.082,-0.089,-0.075,-0.082,-0.075,-0.075,-0.075,-0.075,-0.075,-0.061,-0.061,-0.061,-0.054,-0.054,-0.041,-0.054,-0.041,-0.041,-0.034,-0.034,-0.034,-0.027,-0.034,-0.027,-0.027,-0.027,-0.027,-0.013,-0.006,-0.013,-0.013,-0.013,-0.006,-0.006,-0.006,-0.006,0.001,0.001,0.001,0.001,0.001,0.001,0.001,0.001,0.001,0.007,0.007,0.007,0.007,0.007,0.007,0.007,0.014,0.007,0.007,0.007,0.007,0.007,0.001,0.001,0.001,0.007,0.007,0.001,0.001,0.001,0.001,0.001,0.001,0.001,0.001,0.001,0.001,0.001,-0.006,-0.006,-0.006,0.001,-0.006,-0.006,-0.006,-0.013,-0.006,-0.006,-0.006,-0.006,-0.006,-0.006,-0.013,-0.006,-0.013,-0.013,-0.013,-0.013,-0.013,-0.013,-0.013,-0.013,-0.013,-0.013,-0.013,-0.013,-0.013,-0.027,-0.013,-0.013,-0.013,-0.013,-0.027,-0.013,-0.013,-0.013,-0.027,-0.006,-0.006,-0.013,-0.013,-0.013,-0.013,-0.006,-0.006,-0.006,-0.013,-0.006,-0.006,-0.013,-0.006,-0.006,-0.006,-0.006,-0.006,-0.006,-0.006,-0.006,-0.006,-0.006,0.001,0.001,0.001,0.001,0.001,-0.006,0.001,0.007,-0.006,-0.006,0.001,-0.006,0.001,-0.006,0.001,0.001,0.001,0.001,0.001,0.001,-0.006,0.001,0.001,0.001,0.001,0.001,0.007,0.007,0.007,0.007,0.007,0.007,0.001,0.007,0.001,0.007,0.007,0.001,0.001,0.007,0.001,0.001,0.001,0.001,-0.006,-0.013,-0.013,-0.013,-0.027,-0.027,-0.034,-0.041,-0.041,-0.041,-0.054,-0.041,-0.054,-0.054,-0.041,-0.041,-0.041,-0.041,-0.054,-0.054,-0.054,-0.041,-0.034,-0.034,-0.034,-0.027,-0.013,-0.013,-0.006,-0.013,0.001,0.001,0.007,0.007,0.007,0.007,0.014,0.007,0.007,0.007,0.007,0.007,0.007,0.007,0.001,0.001,0.007,0.001,0.014,0.007,0.007,0.001,0.001,0.001,0.001,0.001,0.007,0.007,0.007,0.007,0.001,0.001,0.007,0.007,0.007,0.001,0.007,0.007,0.007,0.014,0.014,0.035,0.062,0.11,0.158,0.213,0.282,0.336,0.391,0.439,0.467,0.48,0.48,0.48,0.46,0.418,0.378,0.357,0.357,0.343,0.336,0.316,0.282,0.24,0.227,0.206,0.186,0.158,0.117,0.083,0.042,0.007,-0.013,-0.034,-0.054,-0.075,-0.082,-0.082,-0.089,-0.082,-0.082,-0.082,-0.082,-0.082,-0.082,-0.082,-0.082,-0.082,-0.082,-0.082,-0.075,-0.075,-0.082,-0.082,-0.082,-0.075,-0.075,-0.082,-0.075,-0.082,-0.082,-0.082,-0.075,-0.082,-0.082,-0.082,-0.075,-0.075,-0.082,-0.082,-0.082,-0.082,-0.082,-0.089,-0.082,-0.082,-0.082,-0.089,-0.082,-0.089,-0.089,-0.082,-0.089,-0.089,-0.089,-0.089,-0.089,-0.089,-0.089,-0.089,-0.089,-0.102,-0.102,-0.082,-0.089,-0.089,-0.089,-0.089,-0.102,-0.089,-0.089,-0.089,-0.089,-0.089,-0.089,-0.102,-0.089,-0.082,-0.089,-0.089,-0.089,-0.089,-0.089,-0.082,-0.082,-0.089,-0.089,-0.082,-0.075,-0.075,-0.075,-0.061,-0.061,-0.061,-0.061,-0.054,-0.054,-0.041,-0.054,-0.041,-0.041,-0.041,-0.034,-0.034,-0.034,-0.034,-0.034,-0.034,-0.027,-0.027,-0.013,-0.013,-0.013,-0.013,-0.013,-0.006,-0.006,-0.006,-0.006,-0.006,-0.006,0.001,0.001,0.001,0.007,0.007,0.007,0.007,0.007,0.007,0.014,0.014,0.014,0.014,0.014,0.014,0.014,0.007,0.014,0.014,0.014,0.014,0.014,0.014,0.007,0.014,0.014,0.014,0.014,0.014,0.014,0.007,0.007,0.007,0.007,0.007,0.007,0.007,0.007,0.007,0.001,0.001,0.007,0.001,0.001,0.001,0.007,0.007,0.001,0.001,0.001,0.001,0.001,0.001,0.001,0.001,0.001,-0.006,0.001,0.001,0.001,0.001,0.001,0.001,-0.006,-0.006,-0.006,-0.006,-0.006,-0.006,-0.006,-0.006,-0.006,-0.006,-0.006,-0.006,-0.006,-0.006,-0.006,-0.006,-0.006,-0.006,-0.006,-0.013,0.001,-0.006,-0.006,-0.006,-0.006,-0.006,0.001,-0.006,-0.006,0.001,0.001,0.001,-0.006,-0.006,-0.006,-0.006,0.001,-0.006,-0.006,0.001,0.001,0.001,0.001,0.001,0.001,0.001,0.001,0.001,0.001,0.001,0.001,0.001,0.001,0.001,0.001,0.001,0.001,0.001,0.007,0.001,0.007,0.001,0.001,0.001,0.001,0.007,0.007,0.014,0.007,0.007,0.007,0.007,0.007,0.007,0.007,0.001,0.001,0.007,0.007,0.001,0.001,0.001,0.001,-0.006,-0.006,-0.013,-0.013,-0.027,-0.027,-0.034,-0.034,-0.034,-0.034,-0.041,-0.041,-0.034,-0.034,-0.034,-0.034,-0.041,-0.034,-0.041,-0.041,-0.041,-0.034,-0.034,-0.027,-0.013,-0.013,-0.013,-0.006,-0.006,0.001,0.007,0.014,0.007,0.014,0.014,0.014,0.014,0.014,0.014,0.014,0.007,0.014,0.007,0.007,0.007,0.007,0.007,0.007,0.007,0.007,0.007,0.014,0.007,0.007,0.007,0.007,0.007,0.014,0.007,0.014,0.007,0.007,0.007,0.014,0.007,0.007,0.007,0.007,0.014,0.014,0.035,0.062,0.09,0.138,0.193,0.254,0.316,0.364,0.418,0.439,0.46,0.46,0.46,0.453,0.418,0.364,0.336,0.329,0.316,0.309,0.282,0.254,0.213,0.193,0.179,0.158,0.131,0.09,0.055,0.028,0.001,-0.013,-0.034,-0.061,-0.075,-0.089,-0.089,-0.089,-0.082,-0.082,-0.082,-0.075,-0.082,-0.075,-0.075,-0.075,-0.075,-0.075,-0.075,-0.075,-0.075,-0.061,-0.061,-0.061,-0.061,-0.061,-0.075,-0.075,-0.061,-0.061,-0.061,-0.075,-0.061,-0.061,-0.075,-0.075,-0.075,-0.075,-0.075,-0.075,-0.075,-0.075,-0.082,-0.082,-0.082,-0.082,-0.075,-0.082,-0.075,-0.075,-0.082,-0.082,-0.082,-0.082,-0.082,-0.075,-0.075,-0.082,-0.082,-0.082,-0.082,-0.082,-0.082,-0.082,-0.082,-0.082,-0.082,-0.075,-0.082,-0.082,-0.082,-0.082,-0.082,-0.082,-0.082,-0.082,-0.082,-0.082,-0.082,-0.082,-0.082,-0.075,-0.082,-0.075,-0.075,-0.061,-0.061,-0.061,-0.054,-0.054,-0.054,-0.054,-0.054,-0.054,-0.054,-0.041,-0.041,-0.034,-0.034,-0.034,-0.034,-0.027,-0.027,-0.027,-0.013,-0.027,-0.013,-0.013,-0.013,-0.006,-0.006,-0.013,-0.006,-0.006,-0.006,0.001,0.001,0.001,-0.006,0.001,0.001,0.007,0.007,0.014,0.014,0.007,0.014,0.014,0.014,0.014,0.014,0.028,0.028,0.028,0.028,0.014,0.028,0.014,0.028,0.028,0.014,0.014,0.028,0.014,0.014,0.014,0.014,0.014,0.014,0.014,0.014,0.014,0.014,0.014,0.014,0.014,0.014,0.014,0.014,0.007,0.007,0.007,0.007,0.007,0.007,0.007,0.007,0.007,0.001,0.001,0.001,0.001,0.001,0.001,0.007,0.007,0.001,0.001,0.001,0.001,0.001,0.001,0.001,0.001,0.001,0.001,0.001,0.001,0.001,0.001,0.001,0.001,0.001,0.001,0.001,0.001,0.001,0.001,0.001,0.001,0.001,0.001,0.001,0.001,0.001,0.001,0.001,0.001,0.007,0.007,0.007,0.001,0.001,0.007,0.007,0.007,0.007,0.001,0.007,0.007,0.001,0.007,0.007,0.007,0.014,0.007,0.007,0.007,0.007,0.007,0.007,0.007,0.001,0.001,0.001,0.007,0.007,0.007,0.001,0.007,0.001,0.007,0.001,0.001,0.001,0.001,0.007,0.007,0.007,0.007,0.007,0.007,0.007,0.007,0.007,0.007,0.007,0.007,0.007,0.007,0.007,0.007,0.001,0.001,0.001,0.007,-0.006,0.001,-0.006,-0.006,N
13,-0.034,-0.054,-0.075,-0.082,-0.082,-0.089,-0.082,-0.082,-0.082,-0.082,-0.082,-0.082,-0.082,-0.082,-0.082,-0.082,-0.082,-0.075,-0.075,-0.082,-0.082,-0.082,-0.075,-0.075,-0.082,-0.075,-0.082,-0.082,-0.082,-0.075,-0.082,-0.082,-0.082,-0.075,-0.075,-0.082,-0.082,-0.082,-0.082,-0.082,-0.089,-0.082,-0.082,-0.082,-0.089,-0.082,-0.089,-0.089,-0.082,-0.089,-0.089,-0.089,-0.089,-0.089,-0.089,-0.089,-0.089,-0.089,-0.102,-0.102,-0.082,-0.089,-0.089,-0.089,-0.089,-0.102,-0.089,-0.089,-0.089,-0.089,-0.089,-0.089,-0.102,-0.089,-0.082,-0.089,-0.089,-0.089,-0.089,-0.089,-0.082,-0.082,-0.089,-0.089,-0.082,-0.075,-0.075,-0.075,-0.061,-0.061,-0.061,-0.061,-0.054,-0.054,-0.041,-0.054,-0.041,-0.041,-0.041,-0.034,-0.034,-0.034,-0.034,-0.034,-0.034,-0.027,-0.027,-0.013,-0.013,-0.013,-0.013,-0.013,-0.006,-0.006,-0.006,-0.006,-0.006,-0.006,0.001,0.001,0.001,0.007,0.007,0.007,0.007,0.007,0.007,0.014,0.014,0.014,0.014,0.014,0.014,0.014,0.007,0.014,0.014,0.014,0.014,0.014,0.014,0.007,0.014,0.014,0.014,0.014,0.014,0.014,0.007,0.007,0.007,0.007,0.007,0.007,0.007,0.007,0.007,0.001,0.001,0.007,0.001,0.001,0.001,0.007,0.007,0.001,0.001,0.001,0.001,0.001,0.001,0.001,0.001,0.001,-0.006,0.001,0.001,0.001,0.001,0.001,0.001,-0.006,-0.006,-0.006,-0.006,-0.006,-0.006,-0.006,-0.006,-0.006,-0.006,-0.006,-0.006,-0.006,-0.006,-0.006,-0.006,-0.006,-0.006,-0.006,-0.013,0.001,-0.006,-0.006,-0.006,-0.006,-0.006,0.001,-0.006,-0.006,0.001,0.001,0.001,-0.006,-0.006,-0.006,-0.006,0.001,-0.006,-0.006,0.001,0.001,0.001,0.001,0.001,0.001,0.001,0.001,0.001,0.001,0.001,0.001,0.001,0.001,0.001,0.001,0.001,0.001,0.001,0.007,0.001,0.007,0.001,0.001,0.001,0.001,0.007,0.007,0.014,0.007,0.007,0.007,0.007,0.007,0.007,0.007,0.001,0.001,0.007,0.007,0.001,0.001,0.001,0.001,-0.006,-0.006,-0.013,-0.013,-0.027,-0.027,-0.034,-0.034,-0.034,-0.034,-0.041,-0.041,-0.034,-0.034,-0.034,-0.034,-0.041,-0.034,-0.041,-0.041,-0.041,-0.034,-0.034,-0.027,-0.013,-0.013,-0.013,-0.006,-0.006,0.001,0.007,0.014,0.007,0.014,0.014,0.014,0.014,0.014,0.014,0.014,0.007,0.014,0.007,0.007,0.007,0.007,0.007,0.007,0.007,0.007,0.007,0.014,0.007,0.007,0.007,0.007,0.007,0.014,0.007,0.014,0.007,0.007,0.007,0.014,0.007,0.007,0.007,0.007,0.014,0.014,0.035,0.062,0.09,0.138,0.193,0.254,0.316,0.364,0.418,0.439,0.46,0.46,0.46,0.453,0.418,0.364,0.336,0.329,0.316,0.309,0.282,0.254,0.213,0.193,0.179,0.158,0.131,0.09,0.055,0.028,0.001,-0.013,-0.034,-0.061,-0.075,-0.089,-0.089,-0.089,-0.082,-0.082,-0.082,-0.075,-0.082,-0.075,-0.075,-0.075,-0.075,-0.075,-0.075,-0.075,-0.075,-0.061,-0.061,-0.061,-0.061,-0.061,-0.075,-0.075,-0.061,-0.061,-0.061,-0.075,-0.061,-0.061,-0.075,-0.075,-0.075,-0.075,-0.075,-0.075,-0.075,-0.075,-0.082,-0.082,-0.082,-0.082,-0.075,-0.082,-0.075,-0.075,-0.082,-0.082,-0.082,-0.082,-0.082,-0.075,-0.075,-0.082,-0.082,-0.082,-0.082,-0.082,-0.082,-0.082,-0.082,-0.082,-0.082,-0.075,-0.082,-0.082,-0.082,-0.082,-0.082,-0.082,-0.082,-0.082,-0.082,-0.082,-0.082,-0.082,-0.082,-0.075,-0.082,-0.075,-0.075,-0.061,-0.061,-0.061,-0.054,-0.054,-0.054,-0.054,-0.054,-0.054,-0.054,-0.041,-0.041,-0.034,-0.034,-0.034,-0.034,-0.027,-0.027,-0.027,-0.013,-0.027,-0.013,-0.013,-0.013,-0.006,-0.006,-0.013,-0.006,-0.006,-0.006,0.001,0.001,0.001,-0.006,0.001,0.001,0.007,0.007,0.014,0.014,0.007,0.014,0.014,0.014,0.014,0.014,0.028,0.028,0.028,0.028,0.014,0.028,0.014,0.028,0.028,0.014,0.014,0.028,0.014,0.014,0.014,0.014,0.014,0.014,0.014,0.014,0.014,0.014,0.014,0.014,0.014,0.014,0.014,0.014,0.007,0.007,0.007,0.007,0.007,0.007,0.007,0.007,0.007,0.001,0.001,0.001,0.001,0.001,0.001,0.007,0.007,0.001,0.001,0.001,0.001,0.001,0.001,0.001,0.001,0.001,0.001,0.001,0.001,0.001,0.001,0.001,0.001,0.001,0.001,0.001,0.001,0.001,0.001,0.001,0.001,0.001,0.001,0.001,0.001,0.001,0.001,0.001,0.001,0.007,0.007,0.007,0.001,0.001,0.007,0.007,0.007,0.007,0.001,0.007,0.007,0.001,0.007,0.007,0.007,0.014,0.007,0.007,0.007,0.007,0.007,0.007,0.007,0.001,0.001,0.001,0.007,0.007,0.007,0.001,0.007,0.001,0.007,0.001,0.001,0.001,0.001,0.007,0.007,0.007,0.007,0.007,0.007,0.007,0.007,0.007,0.007,0.007,0.007,0.007,0.007,0.007,0.007,0.001,0.001,0.001,0.007,-0.006,0.001,-0.006,-0.006,-0.013,-0.013,-0.027,-0.034,-0.034,-0.034,-0.034,-0.034,-0.034,-0.034,-0.034,-0.034,-0.034,-0.034,-0.034,-0.034,-0.034,-0.041,-0.034,-0.034,-0.034,-0.027,-0.013,-0.006,-0.006,0.007,0.001,0.007,0.014,0.014,0.014,0.014,0.028,0.028,0.014,0.028,0.028,0.028,0.028,0.014,0.014,0.014,0.014,0.014,0.014,0.014,0.014,0.014,0.014,0.014,0.007,0.014,0.014,0.014,0.014,0.014,0.014,0.014,0.007,0.007,0.007,0.007,0.007,0.007,0.007,0.007,0.007,0.028,0.042,0.083,0.131,0.186,0.24,0.309,0.378,0.432,0.453,0.48,0.48,0.48,0.48,0.453,0.405,0.357,0.364,0.357,0.357,0.336,0.309,0.268,0.254,0.233,0.213,0.186,0.151,0.11,0.076,0.035,0.007,-0.006,-0.034,-0.054,-0.061,-0.061,-0.075,-0.075,-0.075,-0.075,-0.075,-0.075,-0.061,-0.075,-0.075,-0.075,-0.075,-0.075,-0.061,-0.061,-0.075,-0.061,-0.061,-0.061,-0.061,-0.075,-0.075,-0.075,-0.075,-0.075,-0.061,-0.061,-0.061,-0.075,-0.075,-0.075,-0.075,-0.075,-0.061,-0.075,-0.075,-0.075,-0.075,-0.082,-0.082,-0.082,-0.075,-0.075,-0.082,-0.082,-0.082,-0.082,-0.082,-0.089,-0.082,-0.082,-0.082,-0.082,-0.082,-0.082,-0.082,-0.082,-0.082,-0.082,-0.082,-0.089,-0.082,-0.082,-0.082,-0.089,-0.082,-0.082,-0.082,-0.089,-0.089,-0.082,-0.089,-0.082,-0.082,-0.082,-0.082,-0.082,-0.075,-0.075,-0.075,-0.075,-0.075,-0.075,-0.075,-0.075,-0.061,-0.061,-0.061,-0.061,-0.054,-0.054,-0.041,-0.041,-0.041,-0.041,-0.041,-0.041,-0.034,-0.034,-0.034,-0.034,-0.034,-0.027,-0.027,-0.027,-0.027,-0.013,-0.013,-0.006,-0.006,-0.006,-0.006,-0.006,-0.006,-0.006,0.001,-0.006,0.001,0.001,0.001,0.007,0.001,0.007,0.007,0.014,0.007,0.014,0.014,0.014,0.014,0.014,0.014,0.007,0.007,0.014,0.007,0.007,0.007,0.007,0.007,0.007,0.007,0.007,0.007,0.007,0.007,0.007,0.001,0.007,0.001,0.007,0.001,0.001,0.007,0.001,0.001,0.001,0.001,0.001,0.001,0.001,0.001,-0.006,0.001,0.001,0.001,-0.006,-0.006,-0.006,0.001,-0.006,-0.006,-0.006,-0.006,-0.006,-0.006,-0.006,-0.006,-0.013,-0.006,-0.013,-0.013,-0.006,-0.013,-0.013,-0.013,-0.013,-0.013,-0.013,-0.013,-0.013,-0.013,-0.013,-0.013,-0.013,-0.006,-0.013,-0.013,-0.006,-0.013,-0.006,-0.013,-0.013,-0.013,-0.006,-0.006,-0.006,-0.006,-0.006,0.001,-0.006,-0.006,-0.006,-0.006,-0.006,-0.006,-0.006,-0.006,-0.006,0.001,-0.006,0.001,-0.006,0.001,-0.006,0.001,0.001,0.001,0.001,0.001,0.001,0.001,0.001,-0.006,-0.006,0.001,0.001,0.001,0.001,0.001,0.007,0.001,0.007,0.007,0.007,0.007,0.007,0.001,0.001,0.007,0.001,0.001,0.001,0.001,0.001,0.001,0.001,0.001,0.001,0.001,-0.006,-0.006,-0.006,N
14,-0.034,-0.061,-0.075,-0.089,-0.089,-0.089,-0.082,-0.082,-0.082,-0.075,-0.082,-0.075,-0.075,-0.075,-0.075,-0.075,-0.075,-0.075,-0.075,-0.061,-0.061,-0.061,-0.061,-0.061,-0.075,-0.075,-0.061,-0.061,-0.061,-0.075,-0.061,-0.061,-0.075,-0.075,-0.075,-0.075,-0.075,-0.075,-0.075,-0.075,-0.082,-0.082,-0.082,-0.082,-0.075,-0.082,-0.075,-0.075,-0.082,-0.082,-0.082,-0.082,-0.082,-0.075,-0.075,-0.082,-0.082,-0.082,-0.082,-0.082,-0.082,-0.082,-0.082,-0.082,-0.082,-0.075,-0.082,-0.082,-0.082,-0.082,-0.082,-0.082,-0.082,-0.082,-0.082,-0.082,-0.082,-0.082,-0.082,-0.075,-0.082,-0.075,-0.075,-0.061,-0.061,-0.061,-0.054,-0.054,-0.054,-0.054,-0.054,-0.054,-0.054,-0.041,-0.041,-0.034,-0.034,-0.034,-0.034,-0.027,-0.027,-0.027,-0.013,-0.027,-0.013,-0.013,-0.013,-0.006,-0.006,-0.013,-0.006,-0.006,-0.006,0.001,0.001,0.001,-0.006,0.001,0.001,0.007,0.007,0.014,0.014,0.007,0.014,0.014,0.014,0.014,0.014,0.028,0.028,0.028,0.028,0.014,0.028,0.014,0.028,0.028,0.014,0.014,0.028,0.014,0.014,0.014,0.014,0.014,0.014,0.014,0.014,0.014,0.014,0.014,0.014,0.014,0.014,0.014,0.014,0.007,0.007,0.007,0.007,0.007,0.007,0.007,0.007,0.007,0.001,0.001,0.001,0.001,0.001,0.001,0.007,0.007,0.001,0.001,0.001,0.001,0.001,0.001,0.001,0.001,0.001,0.001,0.001,0.001,0.001,0.001,0.001,0.001,0.001,0.001,0.001,0.001,0.001,0.001,0.001,0.001,0.001,0.001,0.001,0.001,0.001,0.001,0.001,0.001,0.007,0.007,0.007,0.001,0.001,0.007,0.007,0.007,0.007,0.001,0.007,0.007,0.001,0.007,0.007,0.007,0.014,0.007,0.007,0.007,0.007,0.007,0.007,0.007,0.001,0.001,0.001,0.007,0.007,0.007,0.001,0.007,0.001,0.007,0.001,0.001,0.001,0.001,0.007,0.007,0.007,0.007,0.007,0.007,0.007,0.007,0.007,0.007,0.007,0.007,0.007,0.007,0.007,0.007,0.001,0.001,0.001,0.007,-0.006,0.001,-0.006,-0.006,-0.013,-0.013,-0.027,-0.034,-0.034,-0.034,-0.034,-0.034,-0.034,-0.034,-0.034,-0.034,-0.034,-0.034,-0.034,-0.034,-0.034,-0.041,-0.034,-0.034,-0.034,-0.027,-0.013,-0.006,-0.006,0.007,0.001,0.007,0.014,0.014,0.014,0.014,0.028,0.028,0.014,0.028,0.028,0.028,0.028,0.014,0.014,0.014,0.014,0.014,0.014,0.014,0.014,0.014,0.014,0.014,0.007,0.014,0.014,0.014,0.014,0.014,0.014,0.014,0.007,0.007,0.007,0.007,0.007,0.007,0.007,0.007,0.007,0.028,0.042,0.083,0.131,0.186,0.24,0.309,0.378,0.432,0.453,0.48,0.48,0.48,0.48,0.453,0.405,0.357,0.364,0.357,0.357,0.336,0.309,0.268,0.254,0.233,0.213,0.186,0.151,0.11,0.076,0.035,0.007,-0.006,-0.034,-0.054,-0.061,-0.061,-0.075,-0.075,-0.075,-0.075,-0.075,-0.075,-0.061,-0.075,-0.075,-0.075,-0.075,-0.075,-0.061,-0.061,-0.075,-0.061,-0.061,-0.061,-0.061,-0.075,-0.075,-0.075,-0.075,-0.075,-0.061,-0.061,-0.061,-0.075,-0.075,-0.075,-0.075,-0.075,-0.061,-0.075,-0.075,-0.075,-0.075,-0.082,-0.082,-0.082,-0.075,-0.075,-0.082,-0.082,-0.082,-0.082,-0.082,-0.089,-0.082,-0.082,-0.082,-0.082,-0.082,-0.082,-0.082,-0.082,-0.082,-0.082,-0.082,-0.089,-0.082,-0.082,-0.082,-0.089,-0.082,-0.082,-0.082,-0.089,-0.089,-0.082,-0.089,-0.082,-0.082,-0.082,-0.082,-0.082,-0.075,-0.075,-0.075,-0.075,-0.075,-0.075,-0.075,-0.075,-0.061,-0.061,-0.061,-0.061,-0.054,-0.054,-0.041,-0.041,-0.041,-0.041,-0.041,-0.041,-0.034,-0.034,-0.034,-0.034,-0.034,-0.027,-0.027,-0.027,-0.027,-0.013,-0.013,-0.006,-0.006,-0.006,-0.006,-0.006,-0.006,-0.006,0.001,-0.006,0.001,0.001,0.001,0.007,0.001,0.007,0.007,0.014,0.007,0.014,0.014,0.014,0.014,0.014,0.014,0.007,0.007,0.014,0.007,0.007,0.007,0.007,0.007,0.007,0.007,0.007,0.007,0.007,0.007,0.007,0.001,0.007,0.001,0.007,0.001,0.001,0.007,0.001,0.001,0.001,0.001,0.001,0.001,0.001,0.001,-0.006,0.001,0.001,0.001,-0.006,-0.006,-0.006,0.001,-0.006,-0.006,-0.006,-0.006,-0.006,-0.006,-0.006,-0.006,-0.013,-0.006,-0.013,-0.013,-0.006,-0.013,-0.013,-0.013,-0.013,-0.013,-0.013,-0.013,-0.013,-0.013,-0.013,-0.013,-0.013,-0.006,-0.013,-0.013,-0.006,-0.013,-0.006,-0.013,-0.013,-0.013,-0.006,-0.006,-0.006,-0.006,-0.006,0.001,-0.006,-0.006,-0.006,-0.006,-0.006,-0.006,-0.006,-0.006,-0.006,0.001,-0.006,0.001,-0.006,0.001,-0.006,0.001,0.001,0.001,0.001,0.001,0.001,0.001,0.001,-0.006,-0.006,0.001,0.001,0.001,0.001,0.001,0.007,0.001,0.007,0.007,0.007,0.007,0.007,0.001,0.001,0.007,0.001,0.001,0.001,0.001,0.001,0.001,0.001,0.001,0.001,0.001,-0.006,-0.006,-0.006,-0.013,-0.013,-0.027,-0.027,-0.034,-0.034,-0.041,-0.041,-0.054,-0.041,-0.041,-0.041,-0.041,-0.041,-0.034,-0.034,-0.041,-0.041,-0.041,-0.041,-0.034,-0.027,-0.027,-0.013,-0.006,-0.006,0.001,0.001,0.007,0.014,0.014,0.014,0.014,0.014,0.014,0.028,0.014,0.014,0.028,0.014,0.014,0.014,0.014,0.014,0.014,0.014,0.007,0.014,0.007,0.014,0.014,0.014,0.001,0.001,0.007,0.007,0.007,0.007,0.007,0.007,0.007,0.007,0.007,0.007,0.007,0.007,0.007,0.028,0.042,0.083,0.131,0.179,0.24,0.309,0.364,0.418,0.46,0.48,0.487,0.487,0.487,0.467,0.418,0.378,0.378,0.384,0.378,0.357,0.336,0.309,0.268,0.254,0.233,0.213,0.179,0.138,0.09,0.055,0.028,-0.006,-0.027,-0.041,-0.061,-0.061,-0.075,-0.075,-0.075,-0.075,-0.075,-0.075,-0.075,-0.075,-0.075,-0.075,-0.075,-0.075,-0.075,-0.075,-0.075,-0.075,-0.075,-0.075,-0.075,-0.075,-0.075,-0.075,-0.075,-0.075,-0.075,-0.075,-0.075,-0.075,-0.075,-0.075,-0.075,-0.082,-0.082,-0.075,-0.082,-0.082,-0.082,-0.082,-0.082,-0.082,-0.082,-0.089,-0.082,-0.082,-0.082,-0.082,-0.089,-0.089,-0.089,-0.082,-0.089,-0.089,-0.089,-0.089,-0.089,-0.089,-0.089,-0.089,-0.089,-0.089,-0.089,-0.102,-0.089,-0.089,-0.089,-0.089,-0.089,-0.089,-0.082,-0.089,-0.089,-0.089,-0.089,-0.089,-0.082,-0.082,-0.082,-0.082,-0.082,-0.082,-0.082,-0.075,-0.075,-0.075,-0.075,-0.075,-0.075,-0.061,-0.061,-0.054,-0.054,-0.054,-0.054,-0.054,-0.041,-0.041,-0.041,-0.034,-0.034,-0.034,-0.034,-0.027,-0.013,-0.027,-0.027,-0.013,-0.027,-0.013,-0.013,-0.013,-0.006,-0.006,-0.006,-0.006,0.001,0.001,0.001,0.001,0.001,0.007,0.001,0.007,0.007,0.007,0.007,0.007,0.014,0.007,0.007,0.014,0.014,0.014,0.014,0.014,0.007,0.014,0.007,0.007,0.007,0.007,0.007,0.007,0.007,0.007,0.007,0.007,0.007,0.007,0.007,0.001,0.001,-0.006,0.001,0.001,0.001,0.001,0.001,0.001,0.001,0.001,0.001,-0.006,0.001,0.001,0.001,-0.006,-0.006,-0.006,-0.006,-0.006,-0.013,0.001,-0.006,-0.006,-0.006,-0.006,-0.006,-0.006,-0.006,-0.006,-0.013,-0.013,-0.013,-0.013,-0.013,-0.013,-0.013,-0.013,-0.006,-0.006,-0.006,-0.006,-0.006,-0.013,-0.013,-0.013,-0.013,-0.006,-0.013,-0.013,-0.006,-0.006,-0.006,-0.013,-0.006,-0.006,-0.006,-0.006,-0.013,-0.006,-0.006,0.001,-0.006,-0.006,-0.006,-0.006,-0.006,-0.006,-0.006,-0.006,-0.006,-0.006,-0.006,-0.006,0.001,0.001,-0.006,0.001,0.001,0.001,0.001,0.001,0.001,0.001,0.001,0.001,0.001,0.007,0.001,0.001,0.001,0.007,0.007,0.007,0.007,0.001,0.007,0.007,0.001,0.001,0.001,0.001,0.001,0.001,0.001,0.001,0.001,-0.006,0.001,-0.006,-0.006,-0.013,N
15,-0.054,-0.061,-0.061,-0.075,-0.075,-0.075,-0.075,-0.075,-0.075,-0.061,-0.075,-0.075,-0.075,-0.075,-0.075,-0.061,-0.061,-0.075,-0.061,-0.061,-0.061,-0.061,-0.075,-0.075,-0.075,-0.075,-0.075,-0.061,-0.061,-0.061,-0.075,-0.075,-0.075,-0.075,-0.075,-0.061,-0.075,-0.075,-0.075,-0.075,-0.082,-0.082,-0.082,-0.075,-0.075,-0.082,-0.082,-0.082,-0.082,-0.082,-0.089,-0.082,-0.082,-0.082,-0.082,-0.082,-0.082,-0.082,-0.082,-0.082,-0.082,-0.082,-0.089,-0.082,-0.082,-0.082,-0.089,-0.082,-0.082,-0.082,-0.089,-0.089,-0.082,-0.089,-0.082,-0.082,-0.082,-0.082,-0.082,-0.075,-0.075,-0.075,-0.075,-0.075,-0.075,-0.075,-0.075,-0.061,-0.061,-0.061,-0.061,-0.054,-0.054,-0.041,-0.041,-0.041,-0.041,-0.041,-0.041,-0.034,-0.034,-0.034,-0.034,-0.034,-0.027,-0.027,-0.027,-0.027,-0.013,-0.013,-0.006,-0.006,-0.006,-0.006,-0.006,-0.006,-0.006,0.001,-0.006,0.001,0.001,0.001,0.007,0.001,0.007,0.007,0.014,0.007,0.014,0.014,0.014,0.014,0.014,0.014,0.007,0.007,0.014,0.007,0.007,0.007,0.007,0.007,0.007,0.007,0.007,0.007,0.007,0.007,0.007,0.001,0.007,0.001,0.007,0.001,0.001,0.007,0.001,0.001,0.001,0.001,0.001,0.001,0.001,0.001,-0.006,0.001,0.001,0.001,-0.006,-0.006,-0.006,0.001,-0.006,-0.006,-0.006,-0.006,-0.006,-0.006,-0.006,-0.006,-0.013,-0.006,-0.013,-0.013,-0.006,-0.013,-0.013,-0.013,-0.013,-0.013,-0.013,-0.013,-0.013,-0.013,-0.013,-0.013,-0.013,-0.006,-0.013,-0.013,-0.006,-0.013,-0.006,-0.013,-0.013,-0.013,-0.006,-0.006,-0.006,-0.006,-0.006,0.001,-0.006,-0.006,-0.006,-0.006,-0.006,-0.006,-0.006,-0.006,-0.006,0.001,-0.006,0.001,-0.006,0.001,-0.006,0.001,0.001,0.001,0.001,0.001,0.001,0.001,0.001,-0.006,-0.006,0.001,0.001,0.001,0.001,0.001,0.007,0.001,0.007,0.007,0.007,0.007,0.007,0.001,0.001,0.007,0.001,0.001,0.001,0.001,0.001,0.001,0.001,0.001,0.001,0.001,-0.006,-0.006,-0.006,-0.013,-0.013,-0.027,-0.027,-0.034,-0.034,-0.041,-0.041,-0.054,-0.041,-0.041,-0.041,-0.041,-0.041,-0.034,-0.034,-0.041,-0.041,-0.041,-0.041,-0.034,-0.027,-0.027,-0.013,-0.006,-0.006,0.001,0.001,0.007,0.014,0.014,0.014,0.014,0.014,0.014,0.028,0.014,0.014,0.028,0.014,0.014,0.014,0.014,0.014,0.014,0.014,0.007,0.014,0.007,0.014,0.014,0.014,0.001,0.001,0.007,0.007,0.007,0.007,0.007,0.007,0.007,0.007,0.007,0.007,0.007,0.007,0.007,0.028,0.042,0.083,0.131,0.179,0.24,0.309,0.364,0.418,0.46,0.48,0.487,0.487,0.487,0.467,0.418,0.378,0.378,0.384,0.378,0.357,0.336,0.309,0.268,0.254,0.233,0.213,0.179,0.138,0.09,0.055,0.028,-0.006,-0.027,-0.041,-0.061,-0.061,-0.075,-0.075,-0.075,-0.075,-0.075,-0.075,-0.075,-0.075,-0.075,-0.075,-0.075,-0.075,-0.075,-0.075,-0.075,-0.075,-0.075,-0.075,-0.075,-0.075,-0.075,-0.075,-0.075,-0.075,-0.075,-0.075,-0.075,-0.075,-0.075,-0.075,-0.075,-0.082,-0.082,-0.075,-0.082,-0.082,-0.082,-0.082,-0.082,-0.082,-0.082,-0.089,-0.082,-0.082,-0.082,-0.082,-0.089,-0.089,-0.089,-0.082,-0.089,-0.089,-0.089,-0.089,-0.089,-0.089,-0.089,-0.089,-0.089,-0.089,-0.089,-0.102,-0.089,-0.089,-0.089,-0.089,-0.089,-0.089,-0.082,-0.089,-0.089,-0.089,-0.089,-0.089,-0.082,-0.082,-0.082,-0.082,-0.082,-0.082,-0.082,-0.075,-0.075,-0.075,-0.075,-0.075,-0.075,-0.061,-0.061,-0.054,-0.054,-0.054,-0.054,-0.054,-0.041,-0.041,-0.041,-0.034,-0.034,-0.034,-0.034,-0.027,-0.013,-0.027,-0.027,-0.013,-0.027,-0.013,-0.013,-0.013,-0.006,-0.006,-0.006,-0.006,0.001,0.001,0.001,0.001,0.001,0.007,0.001,0.007,0.007,0.007,0.007,0.007,0.014,0.007,0.007,0.014,0.014,0.014,0.014,0.014,0.007,0.014,0.007,0.007,0.007,0.007,0.007,0.007,0.007,0.007,0.007,0.007,0.007,0.007,0.007,0.001,0.001,-0.006,0.001,0.001,0.001,0.001,0.001,0.001,0.001,0.001,0.001,-0.006,0.001,0.001,0.001,-0.006,-0.006,-0.006,-0.006,-0.006,-0.013,0.001,-0.006,-0.006,-0.006,-0.006,-0.006,-0.006,-0.006,-0.006,-0.013,-0.013,-0.013,-0.013,-0.013,-0.013,-0.013,-0.013,-0.006,-0.006,-0.006,-0.006,-0.006,-0.013,-0.013,-0.013,-0.013,-0.006,-0.013,-0.013,-0.006,-0.006,-0.006,-0.013,-0.006,-0.006,-0.006,-0.006,-0.013,-0.006,-0.006,0.001,-0.006,-0.006,-0.006,-0.006,-0.006,-0.006,-0.006,-0.006,-0.006,-0.006,-0.006,-0.006,0.001,0.001,-0.006,0.001,0.001,0.001,0.001,0.001,0.001,0.001,0.001,0.001,0.001,0.007,0.001,0.001,0.001,0.007,0.007,0.007,0.007,0.001,0.007,0.007,0.001,0.001,0.001,0.001,0.001,0.001,0.001,0.001,0.001,-0.006,0.001,-0.006,-0.006,-0.013,-0.013,-0.027,-0.034,-0.034,-0.034,-0.034,-0.041,-0.054,-0.054,-0.041,-0.034,-0.034,-0.034,-0.034,-0.034,-0.034,-0.041,-0.034,-0.041,-0.034,-0.034,-0.027,-0.013,-0.013,-0.006,-0.006,0.001,0.007,0.007,0.014,0.014,0.014,0.014,0.014,0.014,0.014,0.014,0.014,0.028,0.014,0.014,0.014,0.014,0.007,0.014,0.014,0.014,0.014,0.014,0.007,0.007,0.007,0.014,0.014,0.014,0.007,0.007,0.007,0.007,0.001,0.001,0.007,0.007,0.007,0.001,0.007,0.007,0.028,0.055,0.09,0.138,0.193,0.261,0.329,0.391,0.439,0.467,0.48,0.487,0.487,0.48,0.46,0.405,0.378,0.378,0.378,0.378,0.357,0.329,0.288,0.268,0.254,0.233,0.206,0.165,0.117,0.083,0.042,0.014,-0.006,-0.034,-0.041,-0.061,-0.082,-0.082,-0.082,-0.082,-0.082,-0.082,-0.075,-0.082,-0.082,-0.082,-0.075,-0.075,-0.075,-0.082,-0.082,-0.075,-0.075,-0.075,-0.075,-0.075,-0.075,-0.075,-0.075,-0.075,-0.075,-0.075,-0.075,-0.075,-0.075,-0.075,-0.075,-0.082,-0.082,-0.082,-0.075,-0.075,-0.082,-0.082,-0.089,-0.089,-0.082,-0.089,-0.082,-0.082,-0.082,-0.089,-0.075,-0.089,-0.089,-0.089,-0.089,-0.089,-0.089,-0.082,-0.089,-0.089,-0.089,-0.089,-0.089,-0.089,-0.089,-0.089,-0.089,-0.089,-0.089,-0.089,-0.089,-0.089,-0.089,-0.089,-0.089,-0.089,-0.082,-0.089,-0.089,-0.089,-0.089,-0.089,-0.082,-0.082,-0.082,-0.082,-0.075,-0.075,-0.075,-0.075,-0.061,-0.061,-0.061,-0.061,-0.061,-0.054,-0.054,-0.041,-0.041,-0.041,-0.041,-0.041,-0.034,-0.034,-0.034,-0.034,-0.027,-0.027,-0.027,-0.027,-0.027,-0.027,-0.013,-0.013,-0.013,-0.013,-0.013,-0.013,-0.006,-0.006,0.001,0.001,0.001,0.001,0.001,0.001,0.001,0.007,0.007,0.007,0.007,0.007,0.007,0.007,0.007,0.007,0.007,0.007,0.007,0.014,0.007,0.007,0.007,0.007,0.007,0.007,0.001,0.001,0.001,0.007,0.001,0.007,0.001,0.001,0.001,0.001,0.001,0.001,0.001,-0.006,-0.006,-0.006,-0.006,-0.006,-0.006,0.001,-0.006,-0.006,-0.006,-0.006,0.001,-0.006,-0.006,-0.013,-0.006,-0.013,-0.006,-0.006,-0.006,-0.013,-0.013,-0.013,-0.006,-0.006,-0.013,-0.013,-0.013,-0.013,-0.013,-0.013,-0.006,-0.013,-0.013,-0.013,-0.013,-0.013,-0.013,-0.013,-0.013,-0.013,-0.013,-0.013,-0.013,-0.013,-0.013,-0.013,-0.013,-0.013,-0.013,-0.013,-0.006,-0.013,0.001,0.001,0.001,0.001,-0.006,0.001,0.001,0.001,0.001,0.001,0.001,0.001,0.001,0.001,0.007,0.001,0.001,0.001,0.001,0.001,0.001,0.001,0.001,0.001,0.001,0.001,0.001,0.001,0.001,0.001,0.001,0.001,0.001,0.001,0.007,0.007,0.007,0.001,0.007,0.001,0.001,0.001,0.001,0.001,0.001,0.001,0.001,0.001,0.001,-0.006,-0.006,-0.006,-0.006,-0.006,-0.006,-0.006,-0.013,-0.027,N
16,-0.006,-0.027,-0.041,-0.061,-0.061,-0.075,-0.075,-0.075,-0.075,-0.075,-0.075,-0.075,-0.075,-0.075,-0.075,-0.075,-0.075,-0.075,-0.075,-0.075,-0.075,-0.075,-0.075,-0.075,-0.075,-0.075,-0.075,-0.075,-0.075,-0.075,-0.075,-0.075,-0.075,-0.075,-0.075,-0.075,-0.082,-0.082,-0.075,-0.082,-0.082,-0.082,-0.082,-0.082,-0.082,-0.082,-0.089,-0.082,-0.082,-0.082,-0.082,-0.089,-0.089,-0.089,-0.082,-0.089,-0.089,-0.089,-0.089,-0.089,-0.089,-0.089,-0.089,-0.089,-0.089,-0.089,-0.102,-0.089,-0.089,-0.089,-0.089,-0.089,-0.089,-0.082,-0.089,-0.089,-0.089,-0.089,-0.089,-0.082,-0.082,-0.082,-0.082,-0.082,-0.082,-0.082,-0.075,-0.075,-0.075,-0.075,-0.075,-0.075,-0.061,-0.061,-0.054,-0.054,-0.054,-0.054,-0.054,-0.041,-0.041,-0.041,-0.034,-0.034,-0.034,-0.034,-0.027,-0.013,-0.027,-0.027,-0.013,-0.027,-0.013,-0.013,-0.013,-0.006,-0.006,-0.006,-0.006,0.001,0.001,0.001,0.001,0.001,0.007,0.001,0.007,0.007,0.007,0.007,0.007,0.014,0.007,0.007,0.014,0.014,0.014,0.014,0.014,0.007,0.014,0.007,0.007,0.007,0.007,0.007,0.007,0.007,0.007,0.007,0.007,0.007,0.007,0.007,0.001,0.001,-0.006,0.001,0.001,0.001,0.001,0.001,0.001,0.001,0.001,0.001,-0.006,0.001,0.001,0.001,-0.006,-0.006,-0.006,-0.006,-0.006,-0.013,0.001,-0.006,-0.006,-0.006,-0.006,-0.006,-0.006,-0.006,-0.006,-0.013,-0.013,-0.013,-0.013,-0.013,-0.013,-0.013,-0.013,-0.006,-0.006,-0.006,-0.006,-0.006,-0.013,-0.013,-0.013,-0.013,-0.006,-0.013,-0.013,-0.006,-0.006,-0.006,-0.013,-0.006,-0.006,-0.006,-0.006,-0.013,-0.006,-0.006,0.001,-0.006,-0.006,-0.006,-0.006,-0.006,-0.006,-0.006,-0.006,-0.006,-0.006,-0.006,-0.006,0.001,0.001,-0.006,0.001,0.001,0.001,0.001,0.001,0.001,0.001,0.001,0.001,0.001,0.007,0.001,0.001,0.001,0.007,0.007,0.007,0.007,0.001,0.007,0.007,0.001,0.001,0.001,0.001,0.001,0.001,0.001,0.001,0.001,-0.006,0.001,-0.006,-0.006,-0.013,-0.013,-0.027,-0.034,-0.034,-0.034,-0.034,-0.041,-0.054,-0.054,-0.041,-0.034,-0.034,-0.034,-0.034,-0.034,-0.034,-0.041,-0.034,-0.041,-0.034,-0.034,-0.027,-0.013,-0.013,-0.006,-0.006,0.001,0.007,0.007,0.014,0.014,0.014,0.014,0.014,0.014,0.014,0.014,0.014,0.028,0.014,0.014,0.014,0.014,0.007,0.014,0.014,0.014,0.014,0.014,0.007,0.007,0.007,0.014,0.014,0.014,0.007,0.007,0.007,0.007,0.001,0.001,0.007,0.007,0.007,0.001,0.007,0.007,0.028,0.055,0.09,0.138,0.193,0.261,0.329,0.391,0.439,0.467,0.48,0.487,0.487,0.48,0.46,0.405,0.378,0.378,0.378,0.378,0.357,0.329,0.288,0.268,0.254,0.233,0.206,0.165,0.117,0.083,0.042,0.014,-0.006,-0.034,-0.041,-0.061,-0.082,-0.082,-0.082,-0.082,-0.082,-0.082,-0.075,-0.082,-0.082,-0.082,-0.075,-0.075,-0.075,-0.082,-0.082,-0.075,-0.075,-0.075,-0.075,-0.075,-0.075,-0.075,-0.075,-0.075,-0.075,-0.075,-0.075,-0.075,-0.075,-0.075,-0.075,-0.082,-0.082,-0.082,-0.075,-0.075,-0.082,-0.082,-0.089,-0.089,-0.082,-0.089,-0.082,-0.082,-0.082,-0.089,-0.075,-0.089,-0.089,-0.089,-0.089,-0.089,-0.089,-0.082,-0.089,-0.089,-0.089,-0.089,-0.089,-0.089,-0.089,-0.089,-0.089,-0.089,-0.089,-0.089,-0.089,-0.089,-0.089,-0.089,-0.089,-0.089,-0.082,-0.089,-0.089,-0.089,-0.089,-0.089,-0.082,-0.082,-0.082,-0.082,-0.075,-0.075,-0.075,-0.075,-0.061,-0.061,-0.061,-0.061,-0.061,-0.054,-0.054,-0.041,-0.041,-0.041,-0.041,-0.041,-0.034,-0.034,-0.034,-0.034,-0.027,-0.027,-0.027,-0.027,-0.027,-0.027,-0.013,-0.013,-0.013,-0.013,-0.013,-0.013,-0.006,-0.006,0.001,0.001,0.001,0.001,0.001,0.001,0.001,0.007,0.007,0.007,0.007,0.007,0.007,0.007,0.007,0.007,0.007,0.007,0.007,0.014,0.007,0.007,0.007,0.007,0.007,0.007,0.001,0.001,0.001,0.007,0.001,0.007,0.001,0.001,0.001,0.001,0.001,0.001,0.001,-0.006,-0.006,-0.006,-0.006,-0.006,-0.006,0.001,-0.006,-0.006,-0.006,-0.006,0.001,-0.006,-0.006,-0.013,-0.006,-0.013,-0.006,-0.006,-0.006,-0.013,-0.013,-0.013,-0.006,-0.006,-0.013,-0.013,-0.013,-0.013,-0.013,-0.013,-0.006,-0.013,-0.013,-0.013,-0.013,-0.013,-0.013,-0.013,-0.013,-0.013,-0.013,-0.013,-0.013,-0.013,-0.013,-0.013,-0.013,-0.013,-0.013,-0.013,-0.006,-0.013,0.001,0.001,0.001,0.001,-0.006,0.001,0.001,0.001,0.001,0.001,0.001,0.001,0.001,0.001,0.007,0.001,0.001,0.001,0.001,0.001,0.001,0.001,0.001,0.001,0.001,0.001,0.001,0.001,0.001,0.001,0.001,0.001,0.001,0.001,0.007,0.007,0.007,0.001,0.007,0.001,0.001,0.001,0.001,0.001,0.001,0.001,0.001,0.001,0.001,-0.006,-0.006,-0.006,-0.006,-0.006,-0.006,-0.006,-0.013,-0.027,-0.027,-0.034,-0.034,-0.034,-0.034,-0.041,-0.034,-0.041,-0.027,-0.034,-0.034,-0.034,-0.041,-0.034,-0.041,-0.041,-0.034,-0.027,-0.027,-0.013,-0.006,-0.006,-0.006,0.001,0.007,0.014,0.014,0.014,0.014,0.014,0.014,0.014,0.014,0.007,0.014,0.014,0.014,0.014,0.007,0.007,0.014,0.007,0.007,0.007,0.007,0.014,0.007,0.007,0.007,0.007,0.014,0.014,0.007,0.007,0.007,0.014,0.007,0.007,0.007,0.007,0.014,0.014,0.014,0.014,0.055,0.083,0.117,0.179,0.233,0.302,0.364,0.418,0.46,0.48,0.487,0.487,0.487,0.46,0.418,0.378,0.378,0.378,0.378,0.378,0.343,0.309,0.282,0.261,0.24,0.213,0.186,0.151,0.103,0.076,0.028,0.001,-0.013,-0.041,-0.061,-0.075,-0.082,-0.082,-0.082,-0.082,-0.075,-0.075,-0.082,-0.075,-0.082,-0.075,-0.082,-0.082,-0.075,-0.082,-0.082,-0.082,-0.075,-0.075,-0.075,-0.075,-0.075,-0.082,-0.075,-0.075,-0.082,-0.082,-0.082,-0.082,-0.075,-0.075,-0.082,-0.082,-0.082,-0.082,-0.082,-0.082,-0.082,-0.089,-0.089,-0.089,-0.082,-0.082,-0.082,-0.089,-0.089,-0.089,-0.089,-0.089,-0.089,-0.089,-0.089,-0.089,-0.089,-0.089,-0.082,-0.089,-0.089,-0.089,-0.089,-0.089,-0.089,-0.102,-0.089,-0.089,-0.089,-0.102,-0.102,-0.089,-0.089,-0.089,-0.089,-0.089,-0.089,-0.089,-0.089,-0.089,-0.089,-0.089,-0.082,-0.082,-0.082,-0.082,-0.075,-0.075,-0.075,-0.075,-0.075,-0.075,-0.061,-0.061,-0.061,-0.054,-0.054,-0.054,-0.041,-0.054,-0.041,-0.041,-0.034,-0.034,-0.034,-0.027,-0.013,-0.027,-0.027,-0.027,-0.027,-0.013,-0.027,-0.013,-0.006,-0.006,-0.006,-0.006,-0.006,0.001,0.001,0.001,0.001,0.001,0.001,0.007,0.007,0.001,0.007,0.007,0.007,0.007,0.007,0.007,0.007,0.007,0.007,0.007,0.014,0.007,0.007,0.007,0.014,0.007,0.007,0.007,0.007,0.007,0.001,0.001,0.001,0.001,0.001,0.001,0.001,0.001,0.001,0.001,0.001,-0.006,0.001,0.001,0.001,-0.006,-0.006,-0.006,-0.006,-0.006,-0.006,-0.006,-0.006,-0.006,-0.006,-0.006,-0.006,-0.006,-0.006,-0.013,-0.013,-0.013,-0.006,-0.013,-0.013,-0.013,-0.013,-0.013,-0.006,-0.006,-0.006,-0.006,-0.006,-0.006,-0.013,-0.006,-0.006,-0.006,-0.006,-0.006,-0.006,-0.013,-0.006,-0.006,-0.006,-0.006,-0.006,-0.006,-0.006,-0.006,-0.006,-0.006,-0.006,-0.006,-0.006,-0.006,0.001,0.001,0.001,0.001,0.001,0.001,0.007,0.001,0.001,0.001,0.001,0.001,0.001,0.007,0.001,0.001,0.001,0.007,0.007,0.007,0.001,0.007,0.007,0.007,0.007,0.007,0.007,0.007,0.001,0.007,0.007,0.007,0.014,0.014,0.014,0.014,0.007,0.007,0.007,0.007,0.007,0.007,0.001,0.001,0.001,0.001,0.001,0.001,0.001,0.001,-0.006,-0.006,-0.006,-0.013,N
17,-0.006,-0.034,-0.041,-0.061,-0.082,-0.082,-0.082,-0.082,-0.082,-0.082,-0.075,-0.082,-0.082,-0.082,-0.075,-0.075,-0.075,-0.082,-0.082,-0.075,-0.075,-0.075,-0.075,-0.075,-0.075,-0.075,-0.075,-0.075,-0.075,-0.075,-0.075,-0.075,-0.075,-0.075,-0.075,-0.082,-0.082,-0.082,-0.075,-0.075,-0.082,-0.082,-0.089,-0.089,-0.082,-0.089,-0.082,-0.082,-0.082,-0.089,-0.075,-0.089,-0.089,-0.089,-0.089,-0.089,-0.089,-0.082,-0.089,-0.089,-0.089,-0.089,-0.089,-0.089,-0.089,-0.089,-0.089,-0.089,-0.089,-0.089,-0.089,-0.089,-0.089,-0.089,-0.089,-0.089,-0.082,-0.089,-0.089,-0.089,-0.089,-0.089,-0.082,-0.082,-0.082,-0.082,-0.075,-0.075,-0.075,-0.075,-0.061,-0.061,-0.061,-0.061,-0.061,-0.054,-0.054,-0.041,-0.041,-0.041,-0.041,-0.041,-0.034,-0.034,-0.034,-0.034,-0.027,-0.027,-0.027,-0.027,-0.027,-0.027,-0.013,-0.013,-0.013,-0.013,-0.013,-0.013,-0.006,-0.006,0.001,0.001,0.001,0.001,0.001,0.001,0.001,0.007,0.007,0.007,0.007,0.007,0.007,0.007,0.007,0.007,0.007,0.007,0.007,0.014,0.007,0.007,0.007,0.007,0.007,0.007,0.001,0.001,0.001,0.007,0.001,0.007,0.001,0.001,0.001,0.001,0.001,0.001,0.001,-0.006,-0.006,-0.006,-0.006,-0.006,-0.006,0.001,-0.006,-0.006,-0.006,-0.006,0.001,-0.006,-0.006,-0.013,-0.006,-0.013,-0.006,-0.006,-0.006,-0.013,-0.013,-0.013,-0.006,-0.006,-0.013,-0.013,-0.013,-0.013,-0.013,-0.013,-0.006,-0.013,-0.013,-0.013,-0.013,-0.013,-0.013,-0.013,-0.013,-0.013,-0.013,-0.013,-0.013,-0.013,-0.013,-0.013,-0.013,-0.013,-0.013,-0.013,-0.006,-0.013,0.001,0.001,0.001,0.001,-0.006,0.001,0.001,0.001,0.001,0.001,0.001,0.001,0.001,0.001,0.007,0.001,0.001,0.001,0.001,0.001,0.001,0.001,0.001,0.001,0.001,0.001,0.001,0.001,0.001,0.001,0.001,0.001,0.001,0.001,0.007,0.007,0.007,0.001,0.007,0.001,0.001,0.001,0.001,0.001,0.001,0.001,0.001,0.001,0.001,-0.006,-0.006,-0.006,-0.006,-0.006,-0.006,-0.006,-0.013,-0.027,-0.027,-0.034,-0.034,-0.034,-0.034,-0.041,-0.034,-0.041,-0.027,-0.034,-0.034,-0.034,-0.041,-0.034,-0.041,-0.041,-0.034,-0.027,-0.027,-0.013,-0.006,-0.006,-0.006,0.001,0.007,0.014,0.014,0.014,0.014,0.014,0.014,0.014,0.014,0.007,0.014,0.014,0.014,0.014,0.007,0.007,0.014,0.007,0.007,0.007,0.007,0.014,0.007,0.007,0.007,0.007,0.014,0.014,0.007,0.007,0.007,0.014,0.007,0.007,0.007,0.007,0.014,0.014,0.014,0.014,0.055,0.083,0.117,0.179,0.233,0.302,0.364,0.418,0.46,0.48,0.487,0.487,0.487,0.46,0.418,0.378,0.378,0.378,0.378,0.378,0.343,0.309,0.282,0.261,0.24,0.213,0.186,0.151,0.103,0.076,0.028,0.001,-0.013,-0.041,-0.061,-0.075,-0.082,-0.082,-0.082,-0.082,-0.075,-0.075,-0.082,-0.075,-0.082,-0.075,-0.082,-0.082,-0.075,-0.082,-0.082,-0.082,-0.075,-0.075,-0.075,-0.075,-0.075,-0.082,-0.075,-0.075,-0.082,-0.082,-0.082,-0.082,-0.075,-0.075,-0.082,-0.082,-0.082,-0.082,-0.082,-0.082,-0.082,-0.089,-0.089,-0.089,-0.082,-0.082,-0.082,-0.089,-0.089,-0.089,-0.089,-0.089,-0.089,-0.089,-0.089,-0.089,-0.089,-0.089,-0.082,-0.089,-0.089,-0.089,-0.089,-0.089,-0.089,-0.102,-0.089,-0.089,-0.089,-0.102,-0.102,-0.089,-0.089,-0.089,-0.089,-0.089,-0.089,-0.089,-0.089,-0.089,-0.089,-0.089,-0.082,-0.082,-0.082,-0.082,-0.075,-0.075,-0.075,-0.075,-0.075,-0.075,-0.061,-0.061,-0.061,-0.054,-0.054,-0.054,-0.041,-0.054,-0.041,-0.041,-0.034,-0.034,-0.034,-0.027,-0.013,-0.027,-0.027,-0.027,-0.027,-0.013,-0.027,-0.013,-0.006,-0.006,-0.006,-0.006,-0.006,0.001,0.001,0.001,0.001,0.001,0.001,0.007,0.007,0.001,0.007,0.007,0.007,0.007,0.007,0.007,0.007,0.007,0.007,0.007,0.014,0.007,0.007,0.007,0.014,0.007,0.007,0.007,0.007,0.007,0.001,0.001,0.001,0.001,0.001,0.001,0.001,0.001,0.001,0.001,0.001,-0.006,0.001,0.001,0.001,-0.006,-0.006,-0.006,-0.006,-0.006,-0.006,-0.006,-0.006,-0.006,-0.006,-0.006,-0.006,-0.006,-0.006,-0.013,-0.013,-0.013,-0.006,-0.013,-0.013,-0.013,-0.013,-0.013,-0.006,-0.006,-0.006,-0.006,-0.006,-0.006,-0.013,-0.006,-0.006,-0.006,-0.006,-0.006,-0.006,-0.013,-0.006,-0.006,-0.006,-0.006,-0.006,-0.006,-0.006,-0.006,-0.006,-0.006,-0.006,-0.006,-0.006,-0.006,0.001,0.001,0.001,0.001,0.001,0.001,0.007,0.001,0.001,0.001,0.001,0.001,0.001,0.007,0.001,0.001,0.001,0.007,0.007,0.007,0.001,0.007,0.007,0.007,0.007,0.007,0.007,0.007,0.001,0.007,0.007,0.007,0.014,0.014,0.014,0.014,0.007,0.007,0.007,0.007,0.007,0.007,0.001,0.001,0.001,0.001,0.001,0.001,0.001,0.001,-0.006,-0.006,-0.006,-0.013,-0.027,-0.034,-0.034,-0.034,-0.034,-0.034,-0.034,-0.034,-0.034,-0.034,-0.034,-0.034,-0.034,-0.034,-0.041,-0.041,-0.041,-0.034,-0.034,-0.027,-0.013,-0.013,-0.006,0.001,0.001,0.001,0.007,0.014,0.014,0.014,0.014,0.014,0.014,0.014,0.014,0.014,0.014,0.007,0.007,0.014,0.014,0.014,0.007,0.007,0.014,0.007,0.014,0.014,0.014,0.014,0.007,0.007,0.007,0.014,0.014,0.014,0.014,0.014,0.014,0.007,0.014,0.014,0.014,0.028,0.028,0.042,0.062,0.103,0.158,0.213,0.282,0.343,0.412,0.453,0.48,0.487,0.487,0.487,0.48,0.439,0.391,0.378,0.378,0.378,0.378,0.357,0.329,0.302,0.282,0.261,0.24,0.206,0.165,0.117,0.083,0.042,0.007,-0.006,-0.027,-0.054,-0.061,-0.082,-0.082,-0.075,-0.075,-0.075,-0.075,-0.075,-0.082,-0.082,-0.082,-0.082,-0.082,-0.082,-0.082,-0.075,-0.082,-0.082,-0.075,-0.082,-0.075,-0.075,-0.075,-0.075,-0.082,-0.082,-0.075,-0.082,-0.075,-0.075,-0.082,-0.082,-0.082,-0.082,-0.082,-0.082,-0.082,-0.082,-0.082,-0.089,-0.082,-0.089,-0.082,-0.082,-0.089,-0.082,-0.089,-0.089,-0.089,-0.089,-0.089,-0.089,-0.089,-0.089,-0.089,-0.089,-0.089,-0.102,-0.089,-0.089,-0.089,-0.089,-0.102,-0.089,-0.089,-0.089,-0.089,-0.102,-0.089,-0.089,-0.102,-0.089,-0.089,-0.089,-0.089,-0.089,-0.082,-0.089,-0.089,-0.089,-0.082,-0.082,-0.082,-0.075,-0.075,-0.061,-0.075,-0.061,-0.061,-0.061,-0.061,-0.061,-0.054,-0.054,-0.054,-0.041,-0.041,-0.041,-0.034,-0.034,-0.034,-0.034,-0.027,-0.027,-0.027,-0.027,-0.027,-0.013,-0.013,-0.013,-0.013,-0.013,-0.006,-0.006,0.001,-0.006,-0.006,0.001,0.001,0.001,0.007,0.007,0.007,0.007,0.007,0.007,0.001,0.007,0.007,0.007,0.007,0.007,0.007,0.007,0.007,0.007,0.007,0.007,0.007,0.007,0.001,0.001,0.001,0.001,0.001,0.001,0.001,0.001,0.001,0.001,0.001,0.001,0.001,-0.006,-0.006,0.001,-0.006,-0.006,-0.006,-0.013,-0.006,-0.006,-0.006,-0.006,-0.006,-0.006,-0.013,-0.006,-0.006,-0.006,-0.013,-0.013,-0.006,-0.013,-0.013,-0.013,-0.013,-0.013,-0.013,-0.013,-0.013,-0.013,-0.013,-0.013,-0.013,-0.013,-0.013,-0.013,-0.013,-0.013,-0.013,-0.013,-0.006,-0.013,-0.006,-0.006,-0.006,-0.006,-0.006,-0.006,0.001,-0.006,-0.006,-0.006,-0.006,-0.006,-0.006,-0.006,-0.006,-0.006,-0.006,0.001,0.001,0.001,0.001,0.001,0.001,0.001,0.001,0.001,0.001,0.007,0.001,0.001,0.001,0.001,0.001,0.001,0.007,0.001,0.007,0.007,0.007,0.001,0.001,0.001,0.007,0.007,0.007,0.007,0.007,0.007,0.007,0.007,0.007,0.014,0.007,0.014,0.007,0.007,0.001,0.001,0.001,0.001,0.001,0.001,0.001,0.001,0.001,0.001,0.001,0.001,0.001,-0.006,-0.006,-0.013,N
