0,0.10400000000000001,0.125,0.125,0.10400000000000001,0.10400000000000001,0.10400000000000001,0.10400000000000001,0.10400000000000001,0.10400000000000001,0.10400000000000001,0.125,0.10400000000000001,0.125,0.125,0.125,0.125,0.10400000000000001,0.10400000000000001,0.10400000000000001,0.10400000000000001,0.10400000000000001,0.10400000000000001,0.10400000000000001,0.10400000000000001,0.10400000000000001,0.10400000000000001,0.10400000000000001,0.125,0.125,0.125,0.125,0.10400000000000001,0.125,0.125,0.125,0.125,0.125,0.125,0.145,0.125,0.125,0.125,0.125,0.125,0.145,0.145,0.145,0.145,0.145,0.145,0.145,0.145,0.145,0.145,0.145,0.145,0.145,0.145,0.166,0.166,0.166,0.166,0.166,0.166,0.166,0.145,0.145,0.145,0.145,0.145,0.145,0.145,0.125,0.125,0.145,0.125,0.125,0.125,0.125,0.10400000000000001,0.10400000000000001,0.10400000000000001,0.10400000000000001,0.10400000000000001,0.083,0.083,0.083,0.083,0.083,0.083,0.083,0.063,0.063,0.063,0.063,0.063,0.063,0.042,0.042,0.042,0.042,0.042,0.022000000000000002,0.022000000000000002,0.022000000000000002,0.022000000000000002,0.022000000000000002,0.022000000000000002,0.022000000000000002,0.022000000000000002,0.022000000000000002,0.022000000000000002,0.022000000000000002,0.002,0.002,0.002,0.002,0.002,0.022000000000000002,0.022000000000000002,0.002,0.002,0.002,0.002,0.002,0.002,0.002,0.002,0.002,0.002,0.002,0.002,0.002,0.002,0.002,0.002,0.002,0.002,0.002,0.002,0.002,0.002,0.002,0.002,0.002,0.002,0.002,0.002,0.002,0.002,0.002,0.002,0.002,0.002,0.002,0.002,0.002,0.002,0.002,0.002,0.002,0.002,0.002,0.002,0.002,0.002,0.002,0.002,0.002,0.002,0.002,0.002,0.002,0.002,0.002,0.002,0.002,0.002,0.002,0.002,0.002,0.002,0.002,0.002,0.002,0.002,0.002,0.002,0.002,0.002,0.002,0.002,0.002,0.002,0.002,0.002,0.002,0.002,0.002,0.002,0.002,-0.019,-0.019,-0.019,-0.039,-0.039,-0.039,-0.039,-0.039,-0.039,-0.06,-0.039,-0.039,-0.039,-0.039,-0.039,-0.019,-0.019,-0.019,0.002,0.002,-0.019,-0.019,-0.019,-0.019,-0.039,-0.039,-0.039,-0.039,-0.039,-0.06,-0.06,-0.039,-0.039,-0.019,-0.019,0.002,0.002,0.002,0.002,0.002,0.002,0.002,0.002,0.002,0.002,0.002,0.002,0.002,0.002,0.002,0.002,0.002,0.002,0.002,0.002,0.002,0.002,0.002,0.002,0.002,0.002,0.022000000000000002,0.022000000000000002,0.042,0.083,0.10400000000000001,0.125,0.145,0.125,0.10400000000000001,0.083,0.042,0.002,-0.081,-0.184,-0.327,-0.47100000000000003,-0.635,-0.779,-0.922,-1.025,-1.1079999999999999,-1.149,-1.189,-1.21,-1.169,-1.128,-1.0659999999999998,-0.9840000000000001,-0.8809999999999999,-0.758,-0.614,-0.49200000000000005,-0.409,-0.34700000000000003,-0.287,-0.245,-0.204,-0.163,-0.142,-0.10099999999999999,-0.081,-0.039,-0.019,0.002,0.022000000000000002,0.042,0.063,0.10400000000000001,0.10400000000000001,0.10400000000000001,0.125,0.125,0.125,0.125,0.125,0.125,0.125,0.125,0.125,0.145,0.145,0.125,0.125,0.125,0.125,0.145,0.125,0.125,0.125,0.125,0.125,0.125,0.125,0.125,0.125,0.125,0.125,0.125,0.125,0.125,0.125,0.125,0.125,0.125,0.125,0.125,0.125,0.125,0.125,0.125,0.125,0.125,0.125,0.125,0.125,0.125,0.125,0.125,0.125,0.125,0.125,0.145,0.145,0.125,0.125,0.125,0.125,0.125,0.125,0.10400000000000001,0.125,0.125,0.125,0.145,0.125,0.145,0.145,0.125,0.125,0.145,0.145,0.145,0.145,0.145,0.145,0.145,0.145,0.166,0.166,0.145,0.145,0.166,0.145,0.145,0.166,0.166,0.166,0.166,0.166,0.166,0.166,0.166,0.166,0.166,0.166,0.166,0.145,0.145,0.145,0.145,0.145,0.145,0.145,0.125,0.125,0.10400000000000001,0.125,0.10400000000000001,0.125,0.10400000000000001,0.10400000000000001,0.10400000000000001,0.10400000000000001,0.10400000000000001,0.083,0.083,0.083,0.083,0.083,0.083,0.083,0.063,0.083,0.063,0.063,0.063,0.042,0.042,0.042,0.042,0.042,0.042,0.042,0.022000000000000002,0.042,0.022000000000000002,0.042,0.022000000000000002,0.042,0.022000000000000002,0.022000000000000002,0.022000000000000002,0.022000000000000002,0.022000000000000002,0.022000000000000002,0.022000000000000002,0.022000000000000002,0.022000000000000002,0.002,0.002,0.002,0.002,0.002,0.022000000000000002,0.002,0.002,0.002,0.002,0.002,0.002,0.002,0.002,0.002,0.002,0.002,0.002,0.002,0.002,0.002,0.002,0.022000000000000002,0.022000000000000002,0.022000000000000002,0.022000000000000002,0.002,0.022000000000000002,0.022000000000000002,0.002,0.002,0.002,0.002,0.002,0.002,0.002,0.022000000000000002,0.002,0.002,0.002,0.002,0.002,0.002,0.002,0.002,0.002,0.002,0.002,0.002,0.002,0.002,0.002,0.002,0.002,0.002,0.002,0.002,0.002,0.002,0.002,0.002,0.002,0.002,0.002,0.002,0.002,0.002,0.002,0.002,0.002,0.002,0.002,0.002,0.002,0.002,0.002,0.002,0.002,0.002,0.002,0.002,0.002,-0.019,-0.019,-0.019,-0.019,-0.039,-0.039,-0.039,-0.039,-0.039,-0.039,-0.039,-0.039,-0.039,-0.019,-0.019,-0.019,-0.019,-0.019,-0.019,-0.019,-0.019,-0.019,-0.019,-0.039,-0.039,-0.039,-0.039,-0.039,-0.039,-0.039,-0.039,-0.019,-0.019,0.002,0.002,0.002,0.002,0.002,0.002,0.002,0.002,0.002,0.002,0.002,0.002,0.002,0.002,0.002,0.002,0.002,0.002,0.002,0.002,0.002,0.002,0.002,0.002,0.002,0.002,0.002,0.022000000000000002,0.042,0.063,0.083,0.10400000000000001,0.125,0.125,0.125,0.10400000000000001,0.083,0.022000000000000002,-0.019,-0.10099999999999999,-0.204,-0.327,-0.49200000000000005,-0.655,-0.8,-0.922,-1.046,-1.1079999999999999,-1.149,-1.189,-1.189,-1.149,-1.1079999999999999,-1.046,-0.963,-0.841,-0.7170000000000001,-0.574,-0.47100000000000003,-0.389,-0.327,-0.287,-0.245,-0.204,-0.163,-0.142,-0.122,-0.081,-0.039,-0.019,0.002,0.022000000000000002,0.063,0.083,0.10400000000000001,0.10400000000000001,0.10400000000000001,0.125,0.125,0.125,0.125,0.125,0.145,0.145,0.145,0.125,0.145,0.145,0.145,0.145,0.145,0.125,0.125,0.125,0.125,0.125,0.125,0.125,0.125,0.125,0.125,0.125,0.125,0.125,0.125,0.125,0.125,0.125,0.125,0.125,0.125,0.125,0.125,0.125,0.125,0.125,0.125,0.125,0.125,0.125,0.125,0.125,0.125,0.125,0.125,0.125,0.125,0.125,0.125,0.125,0.145,0.125,0.125,0.125,0.125,0.125,0.145,0.145,0.125,0.125,0.125,0.145,0.125,0.145,0.145,0.145,0.145,0.145,0.145,0.145,0.145,0.145,0.145,0.145,0.166,0.166,0.166,0.166,0.166,0.145,0.166,0.166,0.166,0.166,0.166,0.166,0.166,0.145,0.145,0.145,0.145,0.145,0.145,0.145,0.145,0.145,0.145,0.125,0.125,0.125,0.125,0.125,0.125,0.10400000000000001,0.10400000000000001,0.10400000000000001,0.10400000000000001,0.10400000000000001,0.10400000000000001,0.083,0.083,0.083,0.083,0.083,0.083,0.063,0.063,0.063,0.063,0.042,0.042,0.042,0.042,0.042,0.042,0.042,0.042,0.042,0.042,0.042,0.022000000000000002,0.022000000000000002,0.022000000000000002,0.022000000000000002,0.022000000000000002,0.002,0.022000000000000002,0.022000000000000002,0.002,0.002,0.002,0.002,0.002,0.002,0.002,0.002,0.002,0.002,0.002,0.002,0.002,0.002,0.002,0.002,0.002,0.002,0.002,0.002,0.002,0.002,0.002,0.002,0.002,0.002,0.002,0.002,0.002,0.002,0.002,0.002,0.002,0.002,0.002,0.002,0.022000000000000002,0.002,0.002,0.002,0.002,0.022000000000000002,0.002,0.002,0.002,0.002,0.002,0.002,N,,,,,,,,,,,,,,,,,,,,,,,,,,,,,,,,,,,,,,,,,,,,,,,,,,,,,,,,,,,,,,,,,,,,,,,,,,,,,,,,,,,,,,,,,,,,,,,,,,,,,,,,,,,,,,,,,,,,,,,,,,,,,,,,,,,,,,,,,,,,,,,,,,,,,,,,,,,,,,,
1,0.10400000000000001,0.10400000000000001,0.10400000000000001,0.10400000000000001,0.10400000000000001,0.083,0.083,0.083,0.083,0.083,0.063,0.063,0.063,0.042,0.042,0.042,0.042,0.042,0.042,0.042,0.042,0.042,0.022000000000000002,0.022000000000000002,0.022000000000000002,0.022000000000000002,0.022000000000000002,0.022000000000000002,0.022000000000000002,0.022000000000000002,0.022000000000000002,0.002,0.002,0.002,0.022000000000000002,0.002,0.002,0.002,0.002,0.002,0.002,0.002,0.002,0.002,0.002,0.002,0.002,0.002,0.002,0.002,0.002,0.002,0.002,0.002,0.002,0.002,0.002,0.002,0.002,0.002,0.002,0.002,0.002,0.002,0.002,0.002,0.002,0.002,0.002,0.002,0.002,0.002,0.002,0.002,0.002,0.022000000000000002,0.002,0.002,0.022000000000000002,0.002,0.002,0.002,0.002,0.002,0.002,0.022000000000000002,0.002,0.002,0.002,0.002,0.002,0.002,0.002,0.002,0.002,0.002,0.002,0.002,0.002,0.002,0.002,0.002,0.002,0.002,0.002,0.002,0.002,0.002,0.002,0.002,0.002,0.002,0.002,0.002,0.002,0.002,0.002,0.002,-0.019,-0.019,-0.019,-0.039,-0.039,-0.039,-0.039,-0.039,-0.039,-0.039,-0.039,-0.039,-0.039,-0.039,-0.039,-0.039,-0.019,-0.019,-0.019,-0.019,-0.019,-0.019,-0.039,-0.039,-0.039,-0.039,-0.039,-0.06,-0.06,-0.06,-0.039,-0.039,-0.019,-0.019,0.002,0.002,0.002,0.002,0.002,0.002,0.002,0.002,0.002,0.002,0.002,0.002,0.002,0.002,0.002,0.002,0.002,0.002,0.002,0.002,0.002,0.002,0.002,0.002,0.002,0.002,0.002,0.022000000000000002,0.042,0.083,0.10400000000000001,0.10400000000000001,0.125,0.10400000000000001,0.083,0.063,0.002,-0.039,-0.10099999999999999,-0.225,-0.368,-0.512,-0.655,-0.82,-0.922,-1.025,-1.087,-1.128,-1.149,-1.149,-1.1079999999999999,-1.046,-0.9840000000000001,-0.902,-0.758,-0.635,-0.512,-0.409,-0.34700000000000003,-0.306,-0.266,-0.225,-0.184,-0.163,-0.142,-0.10099999999999999,-0.081,-0.039,-0.019,0.002,0.022000000000000002,0.042,0.083,0.10400000000000001,0.10400000000000001,0.10400000000000001,0.10400000000000001,0.125,0.125,0.125,0.125,0.125,0.125,0.125,0.125,0.125,0.125,0.125,0.125,0.125,0.125,0.125,0.125,0.125,0.125,0.125,0.125,0.125,0.125,0.125,0.125,0.125,0.125,0.125,0.125,0.125,0.125,0.125,0.125,0.125,0.125,0.10400000000000001,0.125,0.125,0.125,0.125,0.125,0.10400000000000001,0.125,0.10400000000000001,0.125,0.125,0.125,0.125,0.125,0.125,0.125,0.10400000000000001,0.10400000000000001,0.10400000000000001,0.10400000000000001,0.125,0.10400000000000001,0.10400000000000001,0.10400000000000001,0.125,0.10400000000000001,0.125,0.125,0.125,0.125,0.125,0.125,0.125,0.125,0.125,0.125,0.125,0.125,0.125,0.145,0.145,0.145,0.145,0.145,0.145,0.145,0.145,0.145,0.145,0.145,0.145,0.166,0.145,0.145,0.145,0.145,0.145,0.145,0.145,0.145,0.145,0.145,0.145,0.145,0.145,0.145,0.125,0.125,0.125,0.125,0.10400000000000001,0.125,0.10400000000000001,0.10400000000000001,0.10400000000000001,0.10400000000000001,0.10400000000000001,0.10400000000000001,0.083,0.083,0.083,0.083,0.083,0.063,0.063,0.042,0.063,0.063,0.042,0.042,0.042,0.042,0.042,0.042,0.042,0.042,0.042,0.022000000000000002,0.022000000000000002,0.022000000000000002,0.022000000000000002,0.022000000000000002,0.002,0.022000000000000002,0.022000000000000002,0.022000000000000002,0.022000000000000002,0.002,0.002,0.002,0.002,0.002,0.002,0.002,0.002,0.002,0.002,0.002,0.002,0.002,0.002,0.002,0.002,0.002,0.002,0.002,0.002,0.002,0.002,0.002,0.002,0.002,0.002,0.002,0.002,0.002,0.002,0.002,0.002,0.002,0.002,0.002,0.002,0.002,0.002,0.002,0.002,0.002,0.002,0.002,0.002,0.002,0.002,0.002,0.022000000000000002,0.022000000000000002,0.002,0.002,0.022000000000000002,0.002,0.002,0.002,0.002,0.002,0.002,0.002,0.002,0.002,0.002,0.002,0.002,0.002,0.002,0.002,0.002,0.002,0.002,0.002,0.002,0.002,0.002,0.002,0.002,0.002,0.002,0.002,0.002,0.002,0.002,0.002,0.002,0.002,-0.019,-0.019,-0.039,-0.039,-0.039,-0.039,-0.039,-0.039,-0.06,-0.039,-0.039,-0.039,-0.039,-0.019,-0.019,-0.019,-0.019,-0.019,-0.019,-0.019,-0.019,-0.019,-0.019,-0.019,-0.039,-0.039,-0.039,-0.06,-0.06,-0.06,-0.039,-0.039,-0.019,0.002,0.002,0.002,0.002,0.002,0.002,0.002,0.002,0.002,0.002,0.002,0.002,0.002,0.002,0.002,0.002,0.002,0.002,0.002,0.002,0.002,0.002,0.002,0.002,0.002,0.002,0.002,0.022000000000000002,0.042,0.063,0.083,0.10400000000000001,0.125,0.125,0.10400000000000001,0.083,0.063,0.002,-0.019,-0.10099999999999999,-0.225,-0.368,-0.512,-0.6759999999999999,-0.8,-0.922,-1.025,-1.087,-1.1079999999999999,-1.128,-1.128,-1.087,-1.046,-0.9840000000000001,-0.8809999999999999,-0.758,-0.635,-0.512,-0.409,-0.34700000000000003,-0.306,-0.266,-0.225,-0.163,-0.142,-0.122,-0.10099999999999999,-0.06,-0.039,-0.019,0.002,0.042,0.063,0.083,0.10400000000000001,0.10400000000000001,0.10400000000000001,0.125,0.125,0.125,0.125,0.125,0.125,0.125,0.125,0.125,0.125,0.125,0.125,0.125,0.125,0.125,0.125,0.125,0.125,0.125,0.125,0.125,0.10400000000000001,0.125,0.125,0.10400000000000001,0.125,0.125,0.125,0.125,0.125,0.125,0.125,0.125,0.125,0.10400000000000001,0.10400000000000001,0.10400000000000001,0.125,0.10400000000000001,0.10400000000000001,0.10400000000000001,0.10400000000000001,0.10400000000000001,0.10400000000000001,0.10400000000000001,0.10400000000000001,0.125,0.125,0.125,0.125,0.125,0.125,0.125,0.125,0.125,0.10400000000000001,0.10400000000000001,0.10400000000000001,0.10400000000000001,0.10400000000000001,0.10400000000000001,0.10400000000000001,0.10400000000000001,0.125,0.125,0.125,0.10400000000000001,0.125,0.125,0.125,0.125,0.125,0.125,0.125,0.125,0.125,0.125,0.125,0.145,0.145,0.145,0.145,0.145,0.145,0.145,0.145,0.145,0.145,0.145,0.145,0.145,0.166,0.166,0.145,0.145,0.145,0.145,0.145,0.125,0.125,0.125,0.125,0.125,0.125,0.10400000000000001,0.10400000000000001,0.10400000000000001,0.10400000000000001,0.10400000000000001,0.10400000000000001,0.10400000000000001,0.10400000000000001,0.083,0.083,0.083,0.083,0.083,0.083,0.063,0.063,0.063,0.063,0.042,0.042,0.042,0.042,0.042,0.042,0.042,0.042,0.022000000000000002,0.022000000000000002,0.022000000000000002,0.022000000000000002,0.022000000000000002,0.022000000000000002,0.022000000000000002,0.022000000000000002,0.022000000000000002,0.022000000000000002,0.002,0.002,0.022000000000000002,0.022000000000000002,0.022000000000000002,0.002,0.002,0.002,0.002,0.002,0.002,0.002,0.002,0.002,0.002,0.002,0.002,0.002,0.002,0.002,0.002,0.002,0.002,0.002,0.002,0.002,0.002,0.002,0.002,0.002,0.002,0.002,0.002,0.002,0.002,0.002,0.002,0.002,0.002,0.002,0.002,0.002,0.002,0.002,0.002,0.002,0.002,0.002,0.002,0.002,0.002,0.002,0.002,0.002,0.002,0.002,0.002,0.002,0.022000000000000002,0.002,0.002,0.002,0.022000000000000002,0.022000000000000002,0.002,0.002,0.002,0.002,0.002,0.002,0.002,0.002,0.002,0.002,0.002,0.002,0.002,0.002,0.002,0.002,0.002,0.002,0.002,0.002,0.002,0.002,-0.019,-0.019,-0.019,-0.039,-0.039,-0.039,-0.06,-0.039,-0.06,-0.039,-0.039,-0.039,-0.039,-0.039,-0.019,-0.019,-0.019,-0.019,-0.019,-0.019,-0.019,-0.019,-0.019,-0.019,-0.039,-0.039,-0.039,-0.06,-0.06,-0.06,-0.039,-0.039,-0.019,0.002,0.002,0.002,0.002,0.002,0.002,0.002,0.002,0.002,0.002,0.002,0.002,0.002,0.002,0.002,0.002,0.002,0.002,0.002,0.002,0.002,0.002,0.002,0.002,0.002,0.002,0.002,0.002,0.022000000000000002,0.042,0.083,0.10400000000000001,0.125,0.125,0.125,0.10400000000000001,0.083,0.042,0.002,-0.081,-0.184,-0.327,-0.47100000000000003,-0.614,-0.758,-0.902,-1.025,-1.1079999999999999,-1.149,-1.189,-1.21,-1.149,-1.128,-1.0659999999999998,-0.9840000000000001,-0.861,-0.738,-0.594,-0.49200000000000005,-0.389,-0.327,-0.287,-0.245,-0.204,-0.163,-0.142,-0.122,-0.081,-0.06,-0.019,0.002,0.022000000000000002,0.042,0.083,0.10400000000000001,0.10400000000000001,0.10400000000000001,0.125,0.125,0.125,0.125,0.125,0.125,0.125,0.125,0.125,0.125,0.125,0.125,0.125,0.125,0.125,0.125,0.125,0.125,0.125,0.125,0.125,0.125,0.125,0.125,0.125,0.125,0.125,0.125,0.125,0.125,0.10400000000000001,0.10400000000000001,0.10400000000000001,0.125,0.125,0.125,0.10400000000000001,0.125,0.125,0.10400000000000001,0.10400000000000001,0.125,0.125,0.125,0.125,0.125,0.125,0.125,0.125,0.125,0.125,0.125,0.125,0.125,0.125,0.125,0.125,0.125,0.125,0.125,0.125,0.125,0.125,0.125,0.125,0.125,0.125,0.125,0.125,0.125,0.125,0.125,0.145,0.145,0.145,0.145,0.145,0.145,0.125,0.125,0.145,0.145,0.166,0.166,0.145,0.166,0.166,0.145,0.166,0.166,0.166,0.166,0.166,0.166,0.166,0.166,0.145,0.145,0.145,N
2,0.063,0.042,0.063,0.063,0.042,0.042,0.042,0.042,0.042,0.042,0.042,0.042,0.042,0.022000000000000002,0.022000000000000002,0.022000000000000002,0.022000000000000002,0.022000000000000002,0.002,0.022000000000000002,0.022000000000000002,0.022000000000000002,0.022000000000000002,0.002,0.002,0.002,0.002,0.002,0.002,0.002,0.002,0.002,0.002,0.002,0.002,0.002,0.002,0.002,0.002,0.002,0.002,0.002,0.002,0.002,0.002,0.002,0.002,0.002,0.002,0.002,0.002,0.002,0.002,0.002,0.002,0.002,0.002,0.002,0.002,0.002,0.002,0.002,0.002,0.002,0.002,0.002,0.002,0.002,0.002,0.002,0.022000000000000002,0.022000000000000002,0.002,0.002,0.022000000000000002,0.002,0.002,0.002,0.002,0.002,0.002,0.002,0.002,0.002,0.002,0.002,0.002,0.002,0.002,0.002,0.002,0.002,0.002,0.002,0.002,0.002,0.002,0.002,0.002,0.002,0.002,0.002,0.002,0.002,0.002,0.002,0.002,0.002,-0.019,-0.019,-0.039,-0.039,-0.039,-0.039,-0.039,-0.039,-0.06,-0.039,-0.039,-0.039,-0.039,-0.019,-0.019,-0.019,-0.019,-0.019,-0.019,-0.019,-0.019,-0.019,-0.019,-0.019,-0.039,-0.039,-0.039,-0.06,-0.06,-0.06,-0.039,-0.039,-0.019,0.002,0.002,0.002,0.002,0.002,0.002,0.002,0.002,0.002,0.002,0.002,0.002,0.002,0.002,0.002,0.002,0.002,0.002,0.002,0.002,0.002,0.002,0.002,0.002,0.002,0.002,0.002,0.022000000000000002,0.042,0.063,0.083,0.10400000000000001,0.125,0.125,0.10400000000000001,0.083,0.063,0.002,-0.019,-0.10099999999999999,-0.225,-0.368,-0.512,-0.6759999999999999,-0.8,-0.922,-1.025,-1.087,-1.1079999999999999,-1.128,-1.128,-1.087,-1.046,-0.9840000000000001,-0.8809999999999999,-0.758,-0.635,-0.512,-0.409,-0.34700000000000003,-0.306,-0.266,-0.225,-0.163,-0.142,-0.122,-0.10099999999999999,-0.06,-0.039,-0.019,0.002,0.042,0.063,0.083,0.10400000000000001,0.10400000000000001,0.10400000000000001,0.125,0.125,0.125,0.125,0.125,0.125,0.125,0.125,0.125,0.125,0.125,0.125,0.125,0.125,0.125,0.125,0.125,0.125,0.125,0.125,0.125,0.10400000000000001,0.125,0.125,0.10400000000000001,0.125,0.125,0.125,0.125,0.125,0.125,0.125,0.125,0.125,0.10400000000000001,0.10400000000000001,0.10400000000000001,0.125,0.10400000000000001,0.10400000000000001,0.10400000000000001,0.10400000000000001,0.10400000000000001,0.10400000000000001,0.10400000000000001,0.10400000000000001,0.125,0.125,0.125,0.125,0.125,0.125,0.125,0.125,0.125,0.10400000000000001,0.10400000000000001,0.10400000000000001,0.10400000000000001,0.10400000000000001,0.10400000000000001,0.10400000000000001,0.10400000000000001,0.125,0.125,0.125,0.10400000000000001,0.125,0.125,0.125,0.125,0.125,0.125,0.125,0.125,0.125,0.125,0.125,0.145,0.145,0.145,0.145,0.145,0.145,0.145,0.145,0.145,0.145,0.145,0.145,0.145,0.166,0.166,0.145,0.145,0.145,0.145,0.145,0.125,0.125,0.125,0.125,0.125,0.125,0.10400000000000001,0.10400000000000001,0.10400000000000001,0.10400000000000001,0.10400000000000001,0.10400000000000001,0.10400000000000001,0.10400000000000001,0.083,0.083,0.083,0.083,0.083,0.083,0.063,0.063,0.063,0.063,0.042,0.042,0.042,0.042,0.042,0.042,0.042,0.042,0.022000000000000002,0.022000000000000002,0.022000000000000002,0.022000000000000002,0.022000000000000002,0.022000000000000002,0.022000000000000002,0.022000000000000002,0.022000000000000002,0.022000000000000002,0.002,0.002,0.022000000000000002,0.022000000000000002,0.022000000000000002,0.002,0.002,0.002,0.002,0.002,0.002,0.002,0.002,0.002,0.002,0.002,0.002,0.002,0.002,0.002,0.002,0.002,0.002,0.002,0.002,0.002,0.002,0.002,0.002,0.002,0.002,0.002,0.002,0.002,0.002,0.002,0.002,0.002,0.002,0.002,0.002,0.002,0.002,0.002,0.002,0.002,0.002,0.002,0.002,0.002,0.002,0.002,0.002,0.002,0.002,0.002,0.002,0.002,0.022000000000000002,0.002,0.002,0.002,0.022000000000000002,0.022000000000000002,0.002,0.002,0.002,0.002,0.002,0.002,0.002,0.002,0.002,0.002,0.002,0.002,0.002,0.002,0.002,0.002,0.002,0.002,0.002,0.002,0.002,0.002,-0.019,-0.019,-0.019,-0.039,-0.039,-0.039,-0.06,-0.039,-0.06,-0.039,-0.039,-0.039,-0.039,-0.039,-0.019,-0.019,-0.019,-0.019,-0.019,-0.019,-0.019,-0.019,-0.019,-0.019,-0.039,-0.039,-0.039,-0.06,-0.06,-0.06,-0.039,-0.039,-0.019,0.002,0.002,0.002,0.002,0.002,0.002,0.002,0.002,0.002,0.002,0.002,0.002,0.002,0.002,0.002,0.002,0.002,0.002,0.002,0.002,0.002,0.002,0.002,0.002,0.002,0.002,0.002,0.002,0.022000000000000002,0.042,0.083,0.10400000000000001,0.125,0.125,0.125,0.10400000000000001,0.083,0.042,0.002,-0.081,-0.184,-0.327,-0.47100000000000003,-0.614,-0.758,-0.902,-1.025,-1.1079999999999999,-1.149,-1.189,-1.21,-1.149,-1.128,-1.0659999999999998,-0.9840000000000001,-0.861,-0.738,-0.594,-0.49200000000000005,-0.389,-0.327,-0.287,-0.245,-0.204,-0.163,-0.142,-0.122,-0.081,-0.06,-0.019,0.002,0.022000000000000002,0.042,0.083,0.10400000000000001,0.10400000000000001,0.10400000000000001,0.125,0.125,0.125,0.125,0.125,0.125,0.125,0.125,0.125,0.125,0.125,0.125,0.125,0.125,0.125,0.125,0.125,0.125,0.125,0.125,0.125,0.125,0.125,0.125,0.125,0.125,0.125,0.125,0.125,0.125,0.10400000000000001,0.10400000000000001,0.10400000000000001,0.125,0.125,0.125,0.10400000000000001,0.125,0.125,0.10400000000000001,0.10400000000000001,0.125,0.125,0.125,0.125,0.125,0.125,0.125,0.125,0.125,0.125,0.125,0.125,0.125,0.125,0.125,0.125,0.125,0.125,0.125,0.125,0.125,0.125,0.125,0.125,0.125,0.125,0.125,0.125,0.125,0.125,0.125,0.145,0.145,0.145,0.145,0.145,0.145,0.125,0.125,0.145,0.145,0.166,0.166,0.145,0.166,0.166,0.145,0.166,0.166,0.166,0.166,0.166,0.166,0.166,0.166,0.145,0.145,0.145,0.145,0.145,0.145,0.145,0.145,0.125,0.125,0.125,0.125,0.10400000000000001,0.10400000000000001,0.10400000000000001,0.10400000000000001,0.10400000000000001,0.10400000000000001,0.083,0.083,0.083,0.083,0.063,0.063,0.063,0.063,0.063,0.063,0.063,0.042,0.042,0.042,0.042,0.042,0.042,0.042,0.042,0.042,0.042,0.042,0.042,0.022000000000000002,0.022000000000000002,0.022000000000000002,0.022000000000000002,0.022000000000000002,0.022000000000000002,0.022000000000000002,0.022000000000000002,0.022000000000000002,0.022000000000000002,0.022000000000000002,0.002,0.022000000000000002,0.022000000000000002,0.002,0.002,0.022000000000000002,0.002,0.022000000000000002,0.022000000000000002,0.002,0.022000000000000002,0.002,0.022000000000000002,0.002,0.002,0.002,0.002,0.002,0.022000000000000002,0.002,0.002,0.002,0.022000000000000002,0.022000000000000002,0.022000000000000002,0.002,0.002,0.002,0.002,0.002,0.022000000000000002,0.022000000000000002,0.022000000000000002,0.002,0.002,0.002,0.002,0.002,0.002,0.002,0.002,0.002,0.022000000000000002,0.002,0.002,0.002,0.002,0.002,0.002,0.002,0.002,0.002,0.002,0.002,0.002,0.002,0.002,0.002,0.002,0.002,0.002,0.002,0.002,0.002,0.002,0.002,0.002,0.002,0.002,0.002,0.002,0.002,0.002,0.002,0.002,0.002,0.002,0.002,0.002,-0.019,-0.019,-0.019,-0.039,-0.039,-0.039,-0.039,-0.039,-0.039,-0.039,-0.039,-0.039,-0.039,-0.039,-0.019,-0.019,-0.019,-0.019,-0.019,-0.019,-0.019,-0.019,-0.019,-0.019,-0.019,-0.039,-0.039,-0.039,-0.06,-0.039,-0.039,-0.039,-0.019,0.002,0.002,0.002,0.002,0.002,0.002,0.002,0.002,0.002,0.002,0.002,0.002,0.002,0.002,0.002,0.002,0.002,0.002,0.002,0.002,0.002,0.002,0.002,0.002,0.002,0.002,0.002,0.022000000000000002,0.042,0.063,0.083,0.10400000000000001,0.125,0.125,0.125,0.10400000000000001,0.063,0.022000000000000002,-0.019,-0.10099999999999999,-0.204,-0.34700000000000003,-0.49200000000000005,-0.655,-0.8,-0.922,-1.025,-1.1079999999999999,-1.128,-1.149,-1.149,-1.128,-1.0659999999999998,-1.005,-0.902,-0.779,-0.655,-0.5329999999999999,-0.43,-0.368,-0.306,-0.266,-0.225,-0.184,-0.163,-0.122,-0.10099999999999999,-0.081,-0.039,-0.019,0.002,0.022000000000000002,0.063,0.083,0.10400000000000001,0.10400000000000001,0.125,0.125,0.125,0.125,0.125,0.145,0.125,0.125,0.145,0.125,0.125,0.145,0.145,0.145,0.125,0.125,0.125,0.125,0.125,0.125,0.125,0.125,0.125,0.125,0.125,0.125,0.125,0.125,0.125,0.125,0.125,0.125,0.125,0.125,0.125,0.125,0.125,0.125,0.125,0.125,0.125,0.125,0.125,0.125,0.125,0.125,0.125,0.125,0.125,0.125,0.125,0.125,0.125,0.125,0.125,0.125,0.125,0.125,0.125,0.125,0.125,0.125,0.125,0.125,0.125,0.125,0.125,0.125,0.125,0.125,0.145,0.125,0.125,0.145,0.145,0.145,0.145,0.145,0.145,0.145,0.145,0.145,0.145,0.166,0.145,0.145,0.166,0.166,0.166,0.166,0.166,0.166,0.166,0.166,0.145,0.166,0.166,0.166,0.145,0.145,0.145,0.145,0.145,0.125,0.125,0.125,0.125,0.125,0.10400000000000001,0.10400000000000001,N
3,0.166,0.145,0.145,0.145,0.145,0.145,0.125,0.125,0.125,0.125,0.125,0.125,0.10400000000000001,0.10400000000000001,0.10400000000000001,0.10400000000000001,0.10400000000000001,0.10400000000000001,0.10400000000000001,0.10400000000000001,0.083,0.083,0.083,0.083,0.083,0.083,0.063,0.063,0.063,0.063,0.042,0.042,0.042,0.042,0.042,0.042,0.042,0.042,0.022000000000000002,0.022000000000000002,0.022000000000000002,0.022000000000000002,0.022000000000000002,0.022000000000000002,0.022000000000000002,0.022000000000000002,0.022000000000000002,0.022000000000000002,0.002,0.002,0.022000000000000002,0.022000000000000002,0.022000000000000002,0.002,0.002,0.002,0.002,0.002,0.002,0.002,0.002,0.002,0.002,0.002,0.002,0.002,0.002,0.002,0.002,0.002,0.002,0.002,0.002,0.002,0.002,0.002,0.002,0.002,0.002,0.002,0.002,0.002,0.002,0.002,0.002,0.002,0.002,0.002,0.002,0.002,0.002,0.002,0.002,0.002,0.002,0.002,0.002,0.002,0.002,0.002,0.002,0.002,0.002,0.002,0.002,0.002,0.022000000000000002,0.002,0.002,0.002,0.022000000000000002,0.022000000000000002,0.002,0.002,0.002,0.002,0.002,0.002,0.002,0.002,0.002,0.002,0.002,0.002,0.002,0.002,0.002,0.002,0.002,0.002,0.002,0.002,0.002,0.002,-0.019,-0.019,-0.019,-0.039,-0.039,-0.039,-0.06,-0.039,-0.06,-0.039,-0.039,-0.039,-0.039,-0.039,-0.019,-0.019,-0.019,-0.019,-0.019,-0.019,-0.019,-0.019,-0.019,-0.019,-0.039,-0.039,-0.039,-0.06,-0.06,-0.06,-0.039,-0.039,-0.019,0.002,0.002,0.002,0.002,0.002,0.002,0.002,0.002,0.002,0.002,0.002,0.002,0.002,0.002,0.002,0.002,0.002,0.002,0.002,0.002,0.002,0.002,0.002,0.002,0.002,0.002,0.002,0.002,0.022000000000000002,0.042,0.083,0.10400000000000001,0.125,0.125,0.125,0.10400000000000001,0.083,0.042,0.002,-0.081,-0.184,-0.327,-0.47100000000000003,-0.614,-0.758,-0.902,-1.025,-1.1079999999999999,-1.149,-1.189,-1.21,-1.149,-1.128,-1.0659999999999998,-0.9840000000000001,-0.861,-0.738,-0.594,-0.49200000000000005,-0.389,-0.327,-0.287,-0.245,-0.204,-0.163,-0.142,-0.122,-0.081,-0.06,-0.019,0.002,0.022000000000000002,0.042,0.083,0.10400000000000001,0.10400000000000001,0.10400000000000001,0.125,0.125,0.125,0.125,0.125,0.125,0.125,0.125,0.125,0.125,0.125,0.125,0.125,0.125,0.125,0.125,0.125,0.125,0.125,0.125,0.125,0.125,0.125,0.125,0.125,0.125,0.125,0.125,0.125,0.125,0.10400000000000001,0.10400000000000001,0.10400000000000001,0.125,0.125,0.125,0.10400000000000001,0.125,0.125,0.10400000000000001,0.10400000000000001,0.125,0.125,0.125,0.125,0.125,0.125,0.125,0.125,0.125,0.125,0.125,0.125,0.125,0.125,0.125,0.125,0.125,0.125,0.125,0.125,0.125,0.125,0.125,0.125,0.125,0.125,0.125,0.125,0.125,0.125,0.125,0.145,0.145,0.145,0.145,0.145,0.145,0.125,0.125,0.145,0.145,0.166,0.166,0.145,0.166,0.166,0.145,0.166,0.166,0.166,0.166,0.166,0.166,0.166,0.166,0.145,0.145,0.145,0.145,0.145,0.145,0.145,0.145,0.125,0.125,0.125,0.125,0.10400000000000001,0.10400000000000001,0.10400000000000001,0.10400000000000001,0.10400000000000001,0.10400000000000001,0.083,0.083,0.083,0.083,0.063,0.063,0.063,0.063,0.063,0.063,0.063,0.042,0.042,0.042,0.042,0.042,0.042,0.042,0.042,0.042,0.042,0.042,0.042,0.022000000000000002,0.022000000000000002,0.022000000000000002,0.022000000000000002,0.022000000000000002,0.022000000000000002,0.022000000000000002,0.022000000000000002,0.022000000000000002,0.022000000000000002,0.022000000000000002,0.002,0.022000000000000002,0.022000000000000002,0.002,0.002,0.022000000000000002,0.002,0.022000000000000002,0.022000000000000002,0.002,0.022000000000000002,0.002,0.022000000000000002,0.002,0.002,0.002,0.002,0.002,0.022000000000000002,0.002,0.002,0.002,0.022000000000000002,0.022000000000000002,0.022000000000000002,0.002,0.002,0.002,0.002,0.002,0.022000000000000002,0.022000000000000002,0.022000000000000002,0.002,0.002,0.002,0.002,0.002,0.002,0.002,0.002,0.002,0.022000000000000002,0.002,0.002,0.002,0.002,0.002,0.002,0.002,0.002,0.002,0.002,0.002,0.002,0.002,0.002,0.002,0.002,0.002,0.002,0.002,0.002,0.002,0.002,0.002,0.002,0.002,0.002,0.002,0.002,0.002,0.002,0.002,0.002,0.002,0.002,0.002,0.002,-0.019,-0.019,-0.019,-0.039,-0.039,-0.039,-0.039,-0.039,-0.039,-0.039,-0.039,-0.039,-0.039,-0.039,-0.019,-0.019,-0.019,-0.019,-0.019,-0.019,-0.019,-0.019,-0.019,-0.019,-0.019,-0.039,-0.039,-0.039,-0.06,-0.039,-0.039,-0.039,-0.019,0.002,0.002,0.002,0.002,0.002,0.002,0.002,0.002,0.002,0.002,0.002,0.002,0.002,0.002,0.002,0.002,0.002,0.002,0.002,0.002,0.002,0.002,0.002,0.002,0.002,0.002,0.002,0.022000000000000002,0.042,0.063,0.083,0.10400000000000001,0.125,0.125,0.125,0.10400000000000001,0.063,0.022000000000000002,-0.019,-0.10099999999999999,-0.204,-0.34700000000000003,-0.49200000000000005,-0.655,-0.8,-0.922,-1.025,-1.1079999999999999,-1.128,-1.149,-1.149,-1.128,-1.0659999999999998,-1.005,-0.902,-0.779,-0.655,-0.5329999999999999,-0.43,-0.368,-0.306,-0.266,-0.225,-0.184,-0.163,-0.122,-0.10099999999999999,-0.081,-0.039,-0.019,0.002,0.022000000000000002,0.063,0.083,0.10400000000000001,0.10400000000000001,0.125,0.125,0.125,0.125,0.125,0.145,0.125,0.125,0.145,0.125,0.125,0.145,0.145,0.145,0.125,0.125,0.125,0.125,0.125,0.125,0.125,0.125,0.125,0.125,0.125,0.125,0.125,0.125,0.125,0.125,0.125,0.125,0.125,0.125,0.125,0.125,0.125,0.125,0.125,0.125,0.125,0.125,0.125,0.125,0.125,0.125,0.125,0.125,0.125,0.125,0.125,0.125,0.125,0.125,0.125,0.125,0.125,0.125,0.125,0.125,0.125,0.125,0.125,0.125,0.125,0.125,0.125,0.125,0.125,0.125,0.145,0.125,0.125,0.145,0.145,0.145,0.145,0.145,0.145,0.145,0.145,0.145,0.145,0.166,0.145,0.145,0.166,0.166,0.166,0.166,0.166,0.166,0.166,0.166,0.145,0.166,0.166,0.166,0.145,0.145,0.145,0.145,0.145,0.125,0.125,0.125,0.125,0.125,0.10400000000000001,0.10400000000000001,0.10400000000000001,0.10400000000000001,0.10400000000000001,0.10400000000000001,0.083,0.083,0.083,0.083,0.083,0.063,0.063,0.063,0.063,0.063,0.063,0.042,0.042,0.042,0.042,0.042,0.042,0.042,0.042,0.022000000000000002,0.022000000000000002,0.022000000000000002,0.022000000000000002,0.022000000000000002,0.022000000000000002,0.022000000000000002,0.022000000000000002,0.022000000000000002,0.022000000000000002,0.002,0.022000000000000002,0.022000000000000002,0.002,0.002,0.002,0.002,0.002,0.002,0.002,0.002,0.002,0.002,0.002,0.002,0.002,0.002,0.002,0.002,0.002,0.002,0.002,0.002,0.002,0.002,0.002,0.002,0.002,0.002,0.002,0.002,0.002,0.002,0.002,0.002,0.002,0.022000000000000002,0.022000000000000002,0.002,0.002,0.002,0.002,0.002,0.002,0.022000000000000002,0.022000000000000002,0.002,0.002,0.022000000000000002,0.022000000000000002,0.022000000000000002,0.022000000000000002,0.002,0.002,0.002,0.002,0.002,0.002,0.002,0.002,0.002,0.002,0.002,0.002,0.002,0.002,0.002,0.002,0.002,0.002,0.002,0.002,0.002,0.002,0.002,0.002,0.002,0.002,0.002,0.002,0.002,0.002,0.002,0.002,-0.019,-0.019,-0.019,-0.039,-0.039,-0.039,-0.039,-0.039,-0.039,-0.039,-0.039,-0.039,-0.039,-0.039,-0.019,-0.019,-0.039,-0.019,-0.019,-0.019,-0.019,-0.019,-0.019,-0.039,-0.039,-0.039,-0.039,-0.06,-0.06,-0.039,-0.039,-0.039,-0.019,0.002,0.002,0.002,0.002,0.002,0.002,0.002,0.002,0.002,0.002,0.002,0.002,0.002,0.002,0.002,0.002,0.002,0.002,0.002,0.002,0.002,0.002,0.002,0.002,0.002,0.002,0.002,0.022000000000000002,0.042,0.063,0.083,0.10400000000000001,0.125,0.125,0.10400000000000001,0.083,0.042,0.002,-0.039,-0.142,-0.245,-0.389,-0.5529999999999999,-0.6970000000000001,-0.841,-0.943,-1.046,-1.1079999999999999,-1.128,-1.149,-1.128,-1.1079999999999999,-1.046,-0.963,-0.861,-0.738,-0.614,-0.49200000000000005,-0.409,-0.327,-0.306,-0.266,-0.204,-0.184,-0.142,-0.122,-0.10099999999999999,-0.081,-0.039,0.002,0.002,0.022000000000000002,0.063,0.083,0.10400000000000001,0.10400000000000001,0.10400000000000001,0.125,0.125,0.10400000000000001,0.125,0.125,0.125,0.125,0.125,0.125,0.125,0.125,0.10400000000000001,0.10400000000000001,0.10400000000000001,0.125,0.10400000000000001,0.10400000000000001,0.10400000000000001,0.125,0.125,0.125,0.125,0.125,0.125,0.125,0.125,0.125,0.125,0.125,0.125,0.125,0.125,0.125,0.125,0.125,0.125,0.125,0.10400000000000001,0.10400000000000001,0.10400000000000001,0.125,0.10400000000000001,0.125,0.10400000000000001,0.125,0.125,0.125,0.125,0.125,0.125,0.125,0.125,0.10400000000000001,0.10400000000000001,0.10400000000000001,0.10400000000000001,0.10400000000000001,0.125,0.125,0.125,0.125,0.125,0.125,0.125,0.125,0.125,0.125,0.125,0.125,0.125,0.125,0.125,0.125,0.125,0.125,0.145,0.145,0.145,0.145,0.145,0.145,0.145,0.145,N
4,0.10400000000000001,0.10400000000000001,0.083,0.083,0.083,0.083,0.063,0.063,0.063,0.063,0.063,0.063,0.063,0.042,0.042,0.042,0.042,0.042,0.042,0.042,0.042,0.042,0.042,0.042,0.042,0.022000000000000002,0.022000000000000002,0.022000000000000002,0.022000000000000002,0.022000000000000002,0.022000000000000002,0.022000000000000002,0.022000000000000002,0.022000000000000002,0.022000000000000002,0.022000000000000002,0.002,0.022000000000000002,0.022000000000000002,0.002,0.002,0.022000000000000002,0.002,0.022000000000000002,0.022000000000000002,0.002,0.022000000000000002,0.002,0.022000000000000002,0.002,0.002,0.002,0.002,0.002,0.022000000000000002,0.002,0.002,0.002,0.022000000000000002,0.022000000000000002,0.022000000000000002,0.002,0.002,0.002,0.002,0.002,0.022000000000000002,0.022000000000000002,0.022000000000000002,0.002,0.002,0.002,0.002,0.002,0.002,0.002,0.002,0.002,0.022000000000000002,0.002,0.002,0.002,0.002,0.002,0.002,0.002,0.002,0.002,0.002,0.002,0.002,0.002,0.002,0.002,0.002,0.002,0.002,0.002,0.002,0.002,0.002,0.002,0.002,0.002,0.002,0.002,0.002,0.002,0.002,0.002,0.002,0.002,0.002,0.002,0.002,-0.019,-0.019,-0.019,-0.039,-0.039,-0.039,-0.039,-0.039,-0.039,-0.039,-0.039,-0.039,-0.039,-0.039,-0.019,-0.019,-0.019,-0.019,-0.019,-0.019,-0.019,-0.019,-0.019,-0.019,-0.019,-0.039,-0.039,-0.039,-0.06,-0.039,-0.039,-0.039,-0.019,0.002,0.002,0.002,0.002,0.002,0.002,0.002,0.002,0.002,0.002,0.002,0.002,0.002,0.002,0.002,0.002,0.002,0.002,0.002,0.002,0.002,0.002,0.002,0.002,0.002,0.002,0.002,0.022000000000000002,0.042,0.063,0.083,0.10400000000000001,0.125,0.125,0.125,0.10400000000000001,0.063,0.022000000000000002,-0.019,-0.10099999999999999,-0.204,-0.34700000000000003,-0.49200000000000005,-0.655,-0.8,-0.922,-1.025,-1.1079999999999999,-1.128,-1.149,-1.149,-1.128,-1.0659999999999998,-1.005,-0.902,-0.779,-0.655,-0.5329999999999999,-0.43,-0.368,-0.306,-0.266,-0.225,-0.184,-0.163,-0.122,-0.10099999999999999,-0.081,-0.039,-0.019,0.002,0.022000000000000002,0.063,0.083,0.10400000000000001,0.10400000000000001,0.125,0.125,0.125,0.125,0.125,0.145,0.125,0.125,0.145,0.125,0.125,0.145,0.145,0.145,0.125,0.125,0.125,0.125,0.125,0.125,0.125,0.125,0.125,0.125,0.125,0.125,0.125,0.125,0.125,0.125,0.125,0.125,0.125,0.125,0.125,0.125,0.125,0.125,0.125,0.125,0.125,0.125,0.125,0.125,0.125,0.125,0.125,0.125,0.125,0.125,0.125,0.125,0.125,0.125,0.125,0.125,0.125,0.125,0.125,0.125,0.125,0.125,0.125,0.125,0.125,0.125,0.125,0.125,0.125,0.125,0.145,0.125,0.125,0.145,0.145,0.145,0.145,0.145,0.145,0.145,0.145,0.145,0.145,0.166,0.145,0.145,0.166,0.166,0.166,0.166,0.166,0.166,0.166,0.166,0.145,0.166,0.166,0.166,0.145,0.145,0.145,0.145,0.145,0.125,0.125,0.125,0.125,0.125,0.10400000000000001,0.10400000000000001,0.10400000000000001,0.10400000000000001,0.10400000000000001,0.10400000000000001,0.083,0.083,0.083,0.083,0.083,0.063,0.063,0.063,0.063,0.063,0.063,0.042,0.042,0.042,0.042,0.042,0.042,0.042,0.042,0.022000000000000002,0.022000000000000002,0.022000000000000002,0.022000000000000002,0.022000000000000002,0.022000000000000002,0.022000000000000002,0.022000000000000002,0.022000000000000002,0.022000000000000002,0.002,0.022000000000000002,0.022000000000000002,0.002,0.002,0.002,0.002,0.002,0.002,0.002,0.002,0.002,0.002,0.002,0.002,0.002,0.002,0.002,0.002,0.002,0.002,0.002,0.002,0.002,0.002,0.002,0.002,0.002,0.002,0.002,0.002,0.002,0.002,0.002,0.002,0.002,0.022000000000000002,0.022000000000000002,0.002,0.002,0.002,0.002,0.002,0.002,0.022000000000000002,0.022000000000000002,0.002,0.002,0.022000000000000002,0.022000000000000002,0.022000000000000002,0.022000000000000002,0.002,0.002,0.002,0.002,0.002,0.002,0.002,0.002,0.002,0.002,0.002,0.002,0.002,0.002,0.002,0.002,0.002,0.002,0.002,0.002,0.002,0.002,0.002,0.002,0.002,0.002,0.002,0.002,0.002,0.002,0.002,0.002,-0.019,-0.019,-0.019,-0.039,-0.039,-0.039,-0.039,-0.039,-0.039,-0.039,-0.039,-0.039,-0.039,-0.039,-0.019,-0.019,-0.039,-0.019,-0.019,-0.019,-0.019,-0.019,-0.019,-0.039,-0.039,-0.039,-0.039,-0.06,-0.06,-0.039,-0.039,-0.039,-0.019,0.002,0.002,0.002,0.002,0.002,0.002,0.002,0.002,0.002,0.002,0.002,0.002,0.002,0.002,0.002,0.002,0.002,0.002,0.002,0.002,0.002,0.002,0.002,0.002,0.002,0.002,0.002,0.022000000000000002,0.042,0.063,0.083,0.10400000000000001,0.125,0.125,0.10400000000000001,0.083,0.042,0.002,-0.039,-0.142,-0.245,-0.389,-0.5529999999999999,-0.6970000000000001,-0.841,-0.943,-1.046,-1.1079999999999999,-1.128,-1.149,-1.128,-1.1079999999999999,-1.046,-0.963,-0.861,-0.738,-0.614,-0.49200000000000005,-0.409,-0.327,-0.306,-0.266,-0.204,-0.184,-0.142,-0.122,-0.10099999999999999,-0.081,-0.039,0.002,0.002,0.022000000000000002,0.063,0.083,0.10400000000000001,0.10400000000000001,0.10400000000000001,0.125,0.125,0.10400000000000001,0.125,0.125,0.125,0.125,0.125,0.125,0.125,0.125,0.10400000000000001,0.10400000000000001,0.10400000000000001,0.125,0.10400000000000001,0.10400000000000001,0.10400000000000001,0.125,0.125,0.125,0.125,0.125,0.125,0.125,0.125,0.125,0.125,0.125,0.125,0.125,0.125,0.125,0.125,0.125,0.125,0.125,0.10400000000000001,0.10400000000000001,0.10400000000000001,0.125,0.10400000000000001,0.125,0.10400000000000001,0.125,0.125,0.125,0.125,0.125,0.125,0.125,0.125,0.10400000000000001,0.10400000000000001,0.10400000000000001,0.10400000000000001,0.10400000000000001,0.125,0.125,0.125,0.125,0.125,0.125,0.125,0.125,0.125,0.125,0.125,0.125,0.125,0.125,0.125,0.125,0.125,0.125,0.145,0.145,0.145,0.145,0.145,0.145,0.145,0.145,0.166,0.166,0.166,0.166,0.145,0.145,0.145,0.145,0.145,0.145,0.166,0.145,0.145,0.145,0.145,0.145,0.125,0.125,0.125,0.125,0.125,0.125,0.10400000000000001,0.10400000000000001,0.10400000000000001,0.10400000000000001,0.10400000000000001,0.10400000000000001,0.10400000000000001,0.083,0.083,0.083,0.083,0.063,0.063,0.063,0.063,0.063,0.042,0.042,0.042,0.042,0.042,0.042,0.042,0.042,0.042,0.042,0.042,0.022000000000000002,0.022000000000000002,0.022000000000000002,0.022000000000000002,0.022000000000000002,0.002,0.002,0.002,0.002,0.002,0.002,0.002,0.002,0.002,0.002,0.002,0.002,0.002,0.002,0.002,0.002,0.002,0.002,0.002,0.002,0.002,0.002,0.002,0.002,0.002,0.002,0.002,0.002,0.002,0.002,0.002,0.002,0.002,0.002,0.002,0.002,0.002,0.002,0.002,0.002,0.002,0.002,0.002,0.002,0.002,0.002,0.002,0.002,0.002,0.002,0.002,0.002,0.002,0.002,0.002,0.002,0.002,0.002,0.002,0.002,0.002,0.002,0.002,0.002,0.002,0.002,0.002,0.002,0.002,0.002,0.002,0.002,0.002,0.002,0.002,0.002,0.002,0.002,0.002,0.002,0.002,0.002,0.002,0.002,0.002,0.002,0.002,0.002,-0.019,-0.019,-0.019,-0.039,-0.039,-0.039,-0.039,-0.039,-0.06,-0.06,-0.039,-0.06,-0.039,-0.039,-0.039,-0.039,-0.019,-0.019,-0.019,-0.019,-0.019,-0.019,-0.039,-0.039,-0.039,-0.039,-0.039,-0.06,-0.06,-0.06,-0.06,-0.039,-0.039,-0.019,-0.019,0.002,0.002,0.002,0.002,0.002,0.002,0.002,0.002,0.002,0.002,0.002,0.002,0.002,0.002,0.002,0.002,0.002,0.002,0.002,-0.019,0.002,0.002,0.002,0.002,0.002,0.002,0.002,0.022000000000000002,0.042,0.083,0.10400000000000001,0.125,0.125,0.125,0.10400000000000001,0.063,0.022000000000000002,-0.019,-0.10099999999999999,-0.204,-0.327,-0.49200000000000005,-0.655,-0.779,-0.922,-1.005,-1.087,-1.1079999999999999,-1.149,-1.149,-1.1079999999999999,-1.046,-0.9840000000000001,-0.902,-0.8,-0.655,-0.5329999999999999,-0.43,-0.34700000000000003,-0.306,-0.266,-0.225,-0.184,-0.163,-0.122,-0.10099999999999999,-0.081,-0.039,-0.019,0.002,0.022000000000000002,0.042,0.063,0.10400000000000001,0.10400000000000001,0.10400000000000001,0.10400000000000001,0.125,0.125,0.125,0.125,0.125,0.125,0.125,0.125,0.125,0.125,0.125,0.10400000000000001,0.125,0.125,0.125,0.125,0.125,0.125,0.125,0.125,0.125,0.10400000000000001,0.10400000000000001,0.10400000000000001,0.10400000000000001,0.10400000000000001,0.125,0.125,0.125,0.125,0.125,0.125,0.10400000000000001,0.10400000000000001,0.10400000000000001,0.10400000000000001,0.10400000000000001,0.10400000000000001,0.10400000000000001,0.10400000000000001,0.10400000000000001,0.10400000000000001,0.10400000000000001,0.10400000000000001,0.10400000000000001,0.125,0.10400000000000001,0.10400000000000001,0.10400000000000001,0.10400000000000001,0.10400000000000001,0.125,0.10400000000000001,0.10400000000000001,0.125,0.125,0.10400000000000001,0.125,0.125,0.125,0.125,0.10400000000000001,0.10400000000000001,0.125,0.125,0.10400000000000001,0.10400000000000001,0.10400000000000001,0.10400000000000001,0.10400000000000001,0.125,0.10400000000000001,0.125,0.125,0.125,0.125,0.145,0.125,0.145,0.145,0.145,0.145,0.145,0.145,0.145,0.145,0.145,0.145,0.145,0.166,0.145,0.145,0.145,0.145,0.145,0.145,0.125,0.125,0.125,0.125,0.125,0.125,N
5,0.10400000000000001,0.10400000000000001,0.10400000000000001,0.10400000000000001,0.10400000000000001,0.10400000000000001,0.083,0.083,0.083,0.083,0.083,0.063,0.063,0.063,0.063,0.063,0.063,0.042,0.042,0.042,0.042,0.042,0.042,0.042,0.042,0.022000000000000002,0.022000000000000002,0.022000000000000002,0.022000000000000002,0.022000000000000002,0.022000000000000002,0.022000000000000002,0.022000000000000002,0.022000000000000002,0.022000000000000002,0.002,0.022000000000000002,0.022000000000000002,0.002,0.002,0.002,0.002,0.002,0.002,0.002,0.002,0.002,0.002,0.002,0.002,0.002,0.002,0.002,0.002,0.002,0.002,0.002,0.002,0.002,0.002,0.002,0.002,0.002,0.002,0.002,0.002,0.002,0.002,0.002,0.002,0.002,0.022000000000000002,0.022000000000000002,0.002,0.002,0.002,0.002,0.002,0.002,0.022000000000000002,0.022000000000000002,0.002,0.002,0.022000000000000002,0.022000000000000002,0.022000000000000002,0.022000000000000002,0.002,0.002,0.002,0.002,0.002,0.002,0.002,0.002,0.002,0.002,0.002,0.002,0.002,0.002,0.002,0.002,0.002,0.002,0.002,0.002,0.002,0.002,0.002,0.002,0.002,0.002,0.002,0.002,0.002,0.002,0.002,0.002,-0.019,-0.019,-0.019,-0.039,-0.039,-0.039,-0.039,-0.039,-0.039,-0.039,-0.039,-0.039,-0.039,-0.039,-0.019,-0.019,-0.039,-0.019,-0.019,-0.019,-0.019,-0.019,-0.019,-0.039,-0.039,-0.039,-0.039,-0.06,-0.06,-0.039,-0.039,-0.039,-0.019,0.002,0.002,0.002,0.002,0.002,0.002,0.002,0.002,0.002,0.002,0.002,0.002,0.002,0.002,0.002,0.002,0.002,0.002,0.002,0.002,0.002,0.002,0.002,0.002,0.002,0.002,0.002,0.022000000000000002,0.042,0.063,0.083,0.10400000000000001,0.125,0.125,0.10400000000000001,0.083,0.042,0.002,-0.039,-0.142,-0.245,-0.389,-0.5529999999999999,-0.6970000000000001,-0.841,-0.943,-1.046,-1.1079999999999999,-1.128,-1.149,-1.128,-1.1079999999999999,-1.046,-0.963,-0.861,-0.738,-0.614,-0.49200000000000005,-0.409,-0.327,-0.306,-0.266,-0.204,-0.184,-0.142,-0.122,-0.10099999999999999,-0.081,-0.039,0.002,0.002,0.022000000000000002,0.063,0.083,0.10400000000000001,0.10400000000000001,0.10400000000000001,0.125,0.125,0.10400000000000001,0.125,0.125,0.125,0.125,0.125,0.125,0.125,0.125,0.10400000000000001,0.10400000000000001,0.10400000000000001,0.125,0.10400000000000001,0.10400000000000001,0.10400000000000001,0.125,0.125,0.125,0.125,0.125,0.125,0.125,0.125,0.125,0.125,0.125,0.125,0.125,0.125,0.125,0.125,0.125,0.125,0.125,0.10400000000000001,0.10400000000000001,0.10400000000000001,0.125,0.10400000000000001,0.125,0.10400000000000001,0.125,0.125,0.125,0.125,0.125,0.125,0.125,0.125,0.10400000000000001,0.10400000000000001,0.10400000000000001,0.10400000000000001,0.10400000000000001,0.125,0.125,0.125,0.125,0.125,0.125,0.125,0.125,0.125,0.125,0.125,0.125,0.125,0.125,0.125,0.125,0.125,0.125,0.145,0.145,0.145,0.145,0.145,0.145,0.145,0.145,0.166,0.166,0.166,0.166,0.145,0.145,0.145,0.145,0.145,0.145,0.166,0.145,0.145,0.145,0.145,0.145,0.125,0.125,0.125,0.125,0.125,0.125,0.10400000000000001,0.10400000000000001,0.10400000000000001,0.10400000000000001,0.10400000000000001,0.10400000000000001,0.10400000000000001,0.083,0.083,0.083,0.083,0.063,0.063,0.063,0.063,0.063,0.042,0.042,0.042,0.042,0.042,0.042,0.042,0.042,0.042,0.042,0.042,0.022000000000000002,0.022000000000000002,0.022000000000000002,0.022000000000000002,0.022000000000000002,0.002,0.002,0.002,0.002,0.002,0.002,0.002,0.002,0.002,0.002,0.002,0.002,0.002,0.002,0.002,0.002,0.002,0.002,0.002,0.002,0.002,0.002,0.002,0.002,0.002,0.002,0.002,0.002,0.002,0.002,0.002,0.002,0.002,0.002,0.002,0.002,0.002,0.002,0.002,0.002,0.002,0.002,0.002,0.002,0.002,0.002,0.002,0.002,0.002,0.002,0.002,0.002,0.002,0.002,0.002,0.002,0.002,0.002,0.002,0.002,0.002,0.002,0.002,0.002,0.002,0.002,0.002,0.002,0.002,0.002,0.002,0.002,0.002,0.002,0.002,0.002,0.002,0.002,0.002,0.002,0.002,0.002,0.002,0.002,0.002,0.002,0.002,0.002,-0.019,-0.019,-0.019,-0.039,-0.039,-0.039,-0.039,-0.039,-0.06,-0.06,-0.039,-0.06,-0.039,-0.039,-0.039,-0.039,-0.019,-0.019,-0.019,-0.019,-0.019,-0.019,-0.039,-0.039,-0.039,-0.039,-0.039,-0.06,-0.06,-0.06,-0.06,-0.039,-0.039,-0.019,-0.019,0.002,0.002,0.002,0.002,0.002,0.002,0.002,0.002,0.002,0.002,0.002,0.002,0.002,0.002,0.002,0.002,0.002,0.002,0.002,-0.019,0.002,0.002,0.002,0.002,0.002,0.002,0.002,0.022000000000000002,0.042,0.083,0.10400000000000001,0.125,0.125,0.125,0.10400000000000001,0.063,0.022000000000000002,-0.019,-0.10099999999999999,-0.204,-0.327,-0.49200000000000005,-0.655,-0.779,-0.922,-1.005,-1.087,-1.1079999999999999,-1.149,-1.149,-1.1079999999999999,-1.046,-0.9840000000000001,-0.902,-0.8,-0.655,-0.5329999999999999,-0.43,-0.34700000000000003,-0.306,-0.266,-0.225,-0.184,-0.163,-0.122,-0.10099999999999999,-0.081,-0.039,-0.019,0.002,0.022000000000000002,0.042,0.063,0.10400000000000001,0.10400000000000001,0.10400000000000001,0.10400000000000001,0.125,0.125,0.125,0.125,0.125,0.125,0.125,0.125,0.125,0.125,0.125,0.10400000000000001,0.125,0.125,0.125,0.125,0.125,0.125,0.125,0.125,0.125,0.10400000000000001,0.10400000000000001,0.10400000000000001,0.10400000000000001,0.10400000000000001,0.125,0.125,0.125,0.125,0.125,0.125,0.10400000000000001,0.10400000000000001,0.10400000000000001,0.10400000000000001,0.10400000000000001,0.10400000000000001,0.10400000000000001,0.10400000000000001,0.10400000000000001,0.10400000000000001,0.10400000000000001,0.10400000000000001,0.10400000000000001,0.125,0.10400000000000001,0.10400000000000001,0.10400000000000001,0.10400000000000001,0.10400000000000001,0.125,0.10400000000000001,0.10400000000000001,0.125,0.125,0.10400000000000001,0.125,0.125,0.125,0.125,0.10400000000000001,0.10400000000000001,0.125,0.125,0.10400000000000001,0.10400000000000001,0.10400000000000001,0.10400000000000001,0.10400000000000001,0.125,0.10400000000000001,0.125,0.125,0.125,0.125,0.145,0.125,0.145,0.145,0.145,0.145,0.145,0.145,0.145,0.145,0.145,0.145,0.145,0.166,0.145,0.145,0.145,0.145,0.145,0.145,0.125,0.125,0.125,0.125,0.125,0.125,0.125,0.125,0.10400000000000001,0.10400000000000001,0.10400000000000001,0.10400000000000001,0.10400000000000001,0.10400000000000001,0.10400000000000001,0.083,0.083,0.083,0.083,0.083,0.083,0.063,0.063,0.063,0.063,0.042,0.042,0.042,0.042,0.042,0.042,0.042,0.042,0.042,0.022000000000000002,0.042,0.022000000000000002,0.022000000000000002,0.022000000000000002,0.022000000000000002,0.022000000000000002,0.002,0.022000000000000002,0.002,0.022000000000000002,0.002,0.002,0.002,0.002,0.002,0.002,0.002,0.002,0.002,0.002,0.002,0.002,0.002,0.002,0.002,0.002,0.002,0.002,0.002,0.002,0.002,0.002,0.002,0.002,0.002,0.002,0.002,0.002,0.002,0.002,0.002,0.002,0.002,0.002,0.002,0.002,0.002,0.002,0.002,0.002,0.002,0.002,0.002,0.002,0.002,0.002,0.002,0.002,0.002,0.002,0.002,0.002,0.002,0.002,0.002,0.002,0.002,0.002,0.002,0.002,0.002,0.002,0.002,0.002,0.002,0.002,0.002,0.002,0.002,0.002,0.002,0.002,0.002,0.002,0.002,0.002,0.002,0.002,0.002,0.002,0.002,0.002,0.002,0.002,-0.019,-0.019,-0.039,-0.039,-0.039,-0.039,-0.039,-0.039,-0.039,-0.039,-0.039,-0.039,-0.039,-0.039,-0.019,-0.019,-0.019,-0.019,-0.019,-0.019,-0.019,-0.019,-0.019,-0.019,-0.039,-0.039,-0.039,-0.039,-0.06,-0.039,-0.039,-0.039,-0.019,0.002,0.002,0.002,0.002,0.002,0.002,0.002,0.002,0.002,0.002,0.002,0.002,0.002,0.002,0.002,0.002,0.002,0.002,0.002,0.002,0.002,0.002,0.002,0.002,0.002,0.002,0.002,0.002,0.042,0.063,0.083,0.10400000000000001,0.125,0.125,0.125,0.10400000000000001,0.063,0.022000000000000002,-0.019,-0.10099999999999999,-0.225,-0.34700000000000003,-0.512,-0.6759999999999999,-0.82,-0.943,-1.046,-1.1079999999999999,-1.169,-1.189,-1.189,-1.149,-1.1079999999999999,-1.046,-0.963,-0.82,-0.6970000000000001,-0.574,-0.47100000000000003,-0.368,-0.327,-0.266,-0.225,-0.184,-0.163,-0.122,-0.10099999999999999,-0.081,-0.039,-0.019,0.002,0.022000000000000002,0.063,0.083,0.10400000000000001,0.10400000000000001,0.125,0.125,0.125,0.125,0.125,0.125,0.125,0.125,0.125,0.125,0.125,0.145,0.125,0.125,0.125,0.125,0.125,0.125,0.125,0.125,0.125,0.125,0.125,0.125,0.125,0.125,0.125,0.125,0.125,0.125,0.125,0.145,0.125,0.125,0.125,0.125,0.125,0.125,0.125,0.125,0.125,0.125,0.10400000000000001,0.125,0.125,0.125,0.125,0.125,0.125,0.125,0.125,0.125,0.125,0.125,0.125,0.125,0.125,0.125,0.125,0.125,0.125,0.125,0.125,0.145,0.145,0.145,0.145,0.145,0.145,0.125,0.125,0.125,0.145,0.145,0.145,0.145,0.145,0.145,0.145,0.145,0.145,0.166,0.166,0.166,0.166,0.166,0.166,0.166,0.166,0.166,0.166,0.166,0.166,0.166,0.166,0.166,0.166,0.166,0.145,0.145,V
6,0.125,0.125,0.125,0.125,0.125,0.125,0.125,0.125,0.125,0.125,0.10400000000000001,0.10400000000000001,0.10400000000000001,0.125,0.10400000000000001,0.125,0.10400000000000001,0.125,0.125,0.125,0.125,0.125,0.125,0.125,0.125,0.10400000000000001,0.10400000000000001,0.10400000000000001,0.10400000000000001,0.10400000000000001,0.125,0.125,0.125,0.125,0.125,0.125,0.125,0.125,0.125,0.125,0.125,0.125,0.125,0.125,0.125,0.125,0.125,0.125,0.145,0.145,0.145,0.145,0.145,0.145,0.145,0.145,0.166,0.166,0.166,0.166,0.145,0.145,0.145,0.145,0.145,0.145,0.166,0.145,0.145,0.145,0.145,0.145,0.125,0.125,0.125,0.125,0.125,0.125,0.10400000000000001,0.10400000000000001,0.10400000000000001,0.10400000000000001,0.10400000000000001,0.10400000000000001,0.10400000000000001,0.083,0.083,0.083,0.083,0.063,0.063,0.063,0.063,0.063,0.042,0.042,0.042,0.042,0.042,0.042,0.042,0.042,0.042,0.042,0.042,0.022000000000000002,0.022000000000000002,0.022000000000000002,0.022000000000000002,0.022000000000000002,0.002,0.002,0.002,0.002,0.002,0.002,0.002,0.002,0.002,0.002,0.002,0.002,0.002,0.002,0.002,0.002,0.002,0.002,0.002,0.002,0.002,0.002,0.002,0.002,0.002,0.002,0.002,0.002,0.002,0.002,0.002,0.002,0.002,0.002,0.002,0.002,0.002,0.002,0.002,0.002,0.002,0.002,0.002,0.002,0.002,0.002,0.002,0.002,0.002,0.002,0.002,0.002,0.002,0.002,0.002,0.002,0.002,0.002,0.002,0.002,0.002,0.002,0.002,0.002,0.002,0.002,0.002,0.002,0.002,0.002,0.002,0.002,0.002,0.002,0.002,0.002,0.002,0.002,0.002,0.002,0.002,0.002,0.002,0.002,0.002,0.002,0.002,0.002,-0.019,-0.019,-0.019,-0.039,-0.039,-0.039,-0.039,-0.039,-0.06,-0.06,-0.039,-0.06,-0.039,-0.039,-0.039,-0.039,-0.019,-0.019,-0.019,-0.019,-0.019,-0.019,-0.039,-0.039,-0.039,-0.039,-0.039,-0.06,-0.06,-0.06,-0.06,-0.039,-0.039,-0.019,-0.019,0.002,0.002,0.002,0.002,0.002,0.002,0.002,0.002,0.002,0.002,0.002,0.002,0.002,0.002,0.002,0.002,0.002,0.002,0.002,-0.019,0.002,0.002,0.002,0.002,0.002,0.002,0.002,0.022000000000000002,0.042,0.083,0.10400000000000001,0.125,0.125,0.125,0.10400000000000001,0.063,0.022000000000000002,-0.019,-0.10099999999999999,-0.204,-0.327,-0.49200000000000005,-0.655,-0.779,-0.922,-1.005,-1.087,-1.1079999999999999,-1.149,-1.149,-1.1079999999999999,-1.046,-0.9840000000000001,-0.902,-0.8,-0.655,-0.5329999999999999,-0.43,-0.34700000000000003,-0.306,-0.266,-0.225,-0.184,-0.163,-0.122,-0.10099999999999999,-0.081,-0.039,-0.019,0.002,0.022000000000000002,0.042,0.063,0.10400000000000001,0.10400000000000001,0.10400000000000001,0.10400000000000001,0.125,0.125,0.125,0.125,0.125,0.125,0.125,0.125,0.125,0.125,0.125,0.10400000000000001,0.125,0.125,0.125,0.125,0.125,0.125,0.125,0.125,0.125,0.10400000000000001,0.10400000000000001,0.10400000000000001,0.10400000000000001,0.10400000000000001,0.125,0.125,0.125,0.125,0.125,0.125,0.10400000000000001,0.10400000000000001,0.10400000000000001,0.10400000000000001,0.10400000000000001,0.10400000000000001,0.10400000000000001,0.10400000000000001,0.10400000000000001,0.10400000000000001,0.10400000000000001,0.10400000000000001,0.10400000000000001,0.125,0.10400000000000001,0.10400000000000001,0.10400000000000001,0.10400000000000001,0.10400000000000001,0.125,0.10400000000000001,0.10400000000000001,0.125,0.125,0.10400000000000001,0.125,0.125,0.125,0.125,0.10400000000000001,0.10400000000000001,0.125,0.125,0.10400000000000001,0.10400000000000001,0.10400000000000001,0.10400000000000001,0.10400000000000001,0.125,0.10400000000000001,0.125,0.125,0.125,0.125,0.145,0.125,0.145,0.145,0.145,0.145,0.145,0.145,0.145,0.145,0.145,0.145,0.145,0.166,0.145,0.145,0.145,0.145,0.145,0.145,0.125,0.125,0.125,0.125,0.125,0.125,0.125,0.125,0.10400000000000001,0.10400000000000001,0.10400000000000001,0.10400000000000001,0.10400000000000001,0.10400000000000001,0.10400000000000001,0.083,0.083,0.083,0.083,0.083,0.083,0.063,0.063,0.063,0.063,0.042,0.042,0.042,0.042,0.042,0.042,0.042,0.042,0.042,0.022000000000000002,0.042,0.022000000000000002,0.022000000000000002,0.022000000000000002,0.022000000000000002,0.022000000000000002,0.002,0.022000000000000002,0.002,0.022000000000000002,0.002,0.002,0.002,0.002,0.002,0.002,0.002,0.002,0.002,0.002,0.002,0.002,0.002,0.002,0.002,0.002,0.002,0.002,0.002,0.002,0.002,0.002,0.002,0.002,0.002,0.002,0.002,0.002,0.002,0.002,0.002,0.002,0.002,0.002,0.002,0.002,0.002,0.002,0.002,0.002,0.002,0.002,0.002,0.002,0.002,0.002,0.002,0.002,0.002,0.002,0.002,0.002,0.002,0.002,0.002,0.002,0.002,0.002,0.002,0.002,0.002,0.002,0.002,0.002,0.002,0.002,0.002,0.002,0.002,0.002,0.002,0.002,0.002,0.002,0.002,0.002,0.002,0.002,0.002,0.002,0.002,0.002,0.002,0.002,-0.019,-0.019,-0.039,-0.039,-0.039,-0.039,-0.039,-0.039,-0.039,-0.039,-0.039,-0.039,-0.039,-0.039,-0.019,-0.019,-0.019,-0.019,-0.019,-0.019,-0.019,-0.019,-0.019,-0.019,-0.039,-0.039,-0.039,-0.039,-0.06,-0.039,-0.039,-0.039,-0.019,0.002,0.002,0.002,0.002,0.002,0.002,0.002,0.002,0.002,0.002,0.002,0.002,0.002,0.002,0.002,0.002,0.002,0.002,0.002,0.002,0.002,0.002,0.002,0.002,0.002,0.002,0.002,0.002,0.042,0.063,0.083,0.10400000000000001,0.125,0.125,0.125,0.10400000000000001,0.063,0.022000000000000002,-0.019,-0.10099999999999999,-0.225,-0.34700000000000003,-0.512,-0.6759999999999999,-0.82,-0.943,-1.046,-1.1079999999999999,-1.169,-1.189,-1.189,-1.149,-1.1079999999999999,-1.046,-0.963,-0.82,-0.6970000000000001,-0.574,-0.47100000000000003,-0.368,-0.327,-0.266,-0.225,-0.184,-0.163,-0.122,-0.10099999999999999,-0.081,-0.039,-0.019,0.002,0.022000000000000002,0.063,0.083,0.10400000000000001,0.10400000000000001,0.125,0.125,0.125,0.125,0.125,0.125,0.125,0.125,0.125,0.125,0.125,0.145,0.125,0.125,0.125,0.125,0.125,0.125,0.125,0.125,0.125,0.125,0.125,0.125,0.125,0.125,0.125,0.125,0.125,0.125,0.125,0.145,0.125,0.125,0.125,0.125,0.125,0.125,0.125,0.125,0.125,0.125,0.10400000000000001,0.125,0.125,0.125,0.125,0.125,0.125,0.125,0.125,0.125,0.125,0.125,0.125,0.125,0.125,0.125,0.125,0.125,0.125,0.125,0.125,0.145,0.145,0.145,0.145,0.145,0.145,0.125,0.125,0.125,0.145,0.145,0.145,0.145,0.145,0.145,0.145,0.145,0.145,0.166,0.166,0.166,0.166,0.166,0.166,0.166,0.166,0.166,0.166,0.166,0.166,0.166,0.166,0.166,0.166,0.166,0.145,0.145,0.145,0.145,0.145,0.125,0.125,0.125,0.125,0.125,0.125,0.10400000000000001,0.10400000000000001,0.10400000000000001,0.10400000000000001,0.10400000000000001,0.10400000000000001,0.10400000000000001,0.083,0.083,0.083,0.083,0.063,0.063,0.063,0.063,0.063,0.063,0.063,0.063,0.042,0.042,0.042,0.042,0.042,0.042,0.042,0.042,0.022000000000000002,0.022000000000000002,0.042,0.022000000000000002,0.022000000000000002,0.022000000000000002,0.022000000000000002,0.022000000000000002,0.022000000000000002,0.022000000000000002,0.022000000000000002,0.022000000000000002,0.022000000000000002,0.022000000000000002,0.002,0.002,0.022000000000000002,0.022000000000000002,0.002,0.022000000000000002,0.002,0.022000000000000002,0.022000000000000002,0.022000000000000002,0.022000000000000002,0.022000000000000002,0.002,0.002,0.002,0.022000000000000002,0.002,0.002,0.002,0.002,0.002,0.002,0.022000000000000002,0.022000000000000002,0.022000000000000002,0.022000000000000002,0.022000000000000002,0.002,0.002,0.022000000000000002,0.002,0.022000000000000002,0.022000000000000002,0.022000000000000002,0.022000000000000002,0.022000000000000002,0.022000000000000002,0.022000000000000002,0.022000000000000002,0.022000000000000002,0.022000000000000002,0.002,0.002,0.002,0.002,0.002,0.022000000000000002,0.022000000000000002,0.022000000000000002,0.022000000000000002,0.002,0.002,0.022000000000000002,0.022000000000000002,0.002,0.002,0.022000000000000002,0.002,0.002,0.002,0.002,0.002,0.022000000000000002,0.002,0.002,0.002,0.002,0.002,0.002,0.002,0.002,0.002,0.002,0.002,0.002,0.002,0.002,0.002,0.002,-0.019,-0.019,-0.019,-0.039,-0.039,-0.039,-0.039,-0.039,-0.039,-0.039,-0.039,-0.039,-0.039,-0.039,-0.019,-0.019,-0.019,0.002,0.002,0.002,0.002,-0.019,-0.019,-0.019,-0.039,-0.039,-0.039,-0.039,-0.039,-0.039,-0.039,-0.019,0.002,0.002,0.002,0.002,0.002,0.002,0.002,0.002,0.002,0.002,0.002,0.002,0.002,0.002,0.002,0.002,0.002,0.002,0.002,0.002,0.002,0.002,0.002,0.002,0.002,0.002,0.002,0.022000000000000002,0.042,0.063,0.083,0.10400000000000001,0.125,0.145,0.125,0.10400000000000001,0.083,0.022000000000000002,0.002,-0.081,-0.204,-0.327,-0.47100000000000003,-0.635,-0.779,-0.902,-1.025,-1.1079999999999999,-1.128,-1.149,-1.149,-1.128,-1.0659999999999998,-1.025,-0.922,-0.82,-0.6759999999999999,-0.5529999999999999,-0.45,-0.368,-0.327,-0.266,-0.225,-0.184,-0.163,-0.122,-0.10099999999999999,-0.081,-0.039,-0.019,0.002,0.022000000000000002,0.042,0.083,0.10400000000000001,0.10400000000000001,0.10400000000000001,0.125,0.125,0.125,0.125,0.125,0.125,0.125,0.125,0.125,0.125,0.125,0.125,0.125,0.125,0.125,0.125,0.125,0.125,N
7,0.083,0.083,0.083,0.083,0.083,0.083,0.063,0.063,0.063,0.063,0.042,0.042,0.042,0.042,0.042,0.042,0.042,0.042,0.042,0.022000000000000002,0.042,0.022000000000000002,0.022000000000000002,0.022000000000000002,0.022000000000000002,0.022000000000000002,0.002,0.022000000000000002,0.002,0.022000000000000002,0.002,0.002,0.002,0.002,0.002,0.002,0.002,0.002,0.002,0.002,0.002,0.002,0.002,0.002,0.002,0.002,0.002,0.002,0.002,0.002,0.002,0.002,0.002,0.002,0.002,0.002,0.002,0.002,0.002,0.002,0.002,0.002,0.002,0.002,0.002,0.002,0.002,0.002,0.002,0.002,0.002,0.002,0.002,0.002,0.002,0.002,0.002,0.002,0.002,0.002,0.002,0.002,0.002,0.002,0.002,0.002,0.002,0.002,0.002,0.002,0.002,0.002,0.002,0.002,0.002,0.002,0.002,0.002,0.002,0.002,0.002,0.002,0.002,0.002,0.002,0.002,0.002,0.002,0.002,0.002,0.002,0.002,0.002,0.002,-0.019,-0.019,-0.039,-0.039,-0.039,-0.039,-0.039,-0.039,-0.039,-0.039,-0.039,-0.039,-0.039,-0.039,-0.019,-0.019,-0.019,-0.019,-0.019,-0.019,-0.019,-0.019,-0.019,-0.019,-0.039,-0.039,-0.039,-0.039,-0.06,-0.039,-0.039,-0.039,-0.019,0.002,0.002,0.002,0.002,0.002,0.002,0.002,0.002,0.002,0.002,0.002,0.002,0.002,0.002,0.002,0.002,0.002,0.002,0.002,0.002,0.002,0.002,0.002,0.002,0.002,0.002,0.002,0.002,0.042,0.063,0.083,0.10400000000000001,0.125,0.125,0.125,0.10400000000000001,0.063,0.022000000000000002,-0.019,-0.10099999999999999,-0.225,-0.34700000000000003,-0.512,-0.6759999999999999,-0.82,-0.943,-1.046,-1.1079999999999999,-1.169,-1.189,-1.189,-1.149,-1.1079999999999999,-1.046,-0.963,-0.82,-0.6970000000000001,-0.574,-0.47100000000000003,-0.368,-0.327,-0.266,-0.225,-0.184,-0.163,-0.122,-0.10099999999999999,-0.081,-0.039,-0.019,0.002,0.022000000000000002,0.063,0.083,0.10400000000000001,0.10400000000000001,0.125,0.125,0.125,0.125,0.125,0.125,0.125,0.125,0.125,0.125,0.125,0.145,0.125,0.125,0.125,0.125,0.125,0.125,0.125,0.125,0.125,0.125,0.125,0.125,0.125,0.125,0.125,0.125,0.125,0.125,0.125,0.145,0.125,0.125,0.125,0.125,0.125,0.125,0.125,0.125,0.125,0.125,0.10400000000000001,0.125,0.125,0.125,0.125,0.125,0.125,0.125,0.125,0.125,0.125,0.125,0.125,0.125,0.125,0.125,0.125,0.125,0.125,0.125,0.125,0.145,0.145,0.145,0.145,0.145,0.145,0.125,0.125,0.125,0.145,0.145,0.145,0.145,0.145,0.145,0.145,0.145,0.145,0.166,0.166,0.166,0.166,0.166,0.166,0.166,0.166,0.166,0.166,0.166,0.166,0.166,0.166,0.166,0.166,0.166,0.145,0.145,0.145,0.145,0.145,0.125,0.125,0.125,0.125,0.125,0.125,0.10400000000000001,0.10400000000000001,0.10400000000000001,0.10400000000000001,0.10400000000000001,0.10400000000000001,0.10400000000000001,0.083,0.083,0.083,0.083,0.063,0.063,0.063,0.063,0.063,0.063,0.063,0.063,0.042,0.042,0.042,0.042,0.042,0.042,0.042,0.042,0.022000000000000002,0.022000000000000002,0.042,0.022000000000000002,0.022000000000000002,0.022000000000000002,0.022000000000000002,0.022000000000000002,0.022000000000000002,0.022000000000000002,0.022000000000000002,0.022000000000000002,0.022000000000000002,0.022000000000000002,0.002,0.002,0.022000000000000002,0.022000000000000002,0.002,0.022000000000000002,0.002,0.022000000000000002,0.022000000000000002,0.022000000000000002,0.022000000000000002,0.022000000000000002,0.002,0.002,0.002,0.022000000000000002,0.002,0.002,0.002,0.002,0.002,0.002,0.022000000000000002,0.022000000000000002,0.022000000000000002,0.022000000000000002,0.022000000000000002,0.002,0.002,0.022000000000000002,0.002,0.022000000000000002,0.022000000000000002,0.022000000000000002,0.022000000000000002,0.022000000000000002,0.022000000000000002,0.022000000000000002,0.022000000000000002,0.022000000000000002,0.022000000000000002,0.002,0.002,0.002,0.002,0.002,0.022000000000000002,0.022000000000000002,0.022000000000000002,0.022000000000000002,0.002,0.002,0.022000000000000002,0.022000000000000002,0.002,0.002,0.022000000000000002,0.002,0.002,0.002,0.002,0.002,0.022000000000000002,0.002,0.002,0.002,0.002,0.002,0.002,0.002,0.002,0.002,0.002,0.002,0.002,0.002,0.002,0.002,0.002,-0.019,-0.019,-0.019,-0.039,-0.039,-0.039,-0.039,-0.039,-0.039,-0.039,-0.039,-0.039,-0.039,-0.039,-0.019,-0.019,-0.019,0.002,0.002,0.002,0.002,-0.019,-0.019,-0.019,-0.039,-0.039,-0.039,-0.039,-0.039,-0.039,-0.039,-0.019,0.002,0.002,0.002,0.002,0.002,0.002,0.002,0.002,0.002,0.002,0.002,0.002,0.002,0.002,0.002,0.002,0.002,0.002,0.002,0.002,0.002,0.002,0.002,0.002,0.002,0.002,0.002,0.022000000000000002,0.042,0.063,0.083,0.10400000000000001,0.125,0.145,0.125,0.10400000000000001,0.083,0.022000000000000002,0.002,-0.081,-0.204,-0.327,-0.47100000000000003,-0.635,-0.779,-0.902,-1.025,-1.1079999999999999,-1.128,-1.149,-1.149,-1.128,-1.0659999999999998,-1.025,-0.922,-0.82,-0.6759999999999999,-0.5529999999999999,-0.45,-0.368,-0.327,-0.266,-0.225,-0.184,-0.163,-0.122,-0.10099999999999999,-0.081,-0.039,-0.019,0.002,0.022000000000000002,0.042,0.083,0.10400000000000001,0.10400000000000001,0.10400000000000001,0.125,0.125,0.125,0.125,0.125,0.125,0.125,0.125,0.125,0.125,0.125,0.125,0.125,0.125,0.125,0.125,0.125,0.125,0.125,0.125,0.125,0.125,0.125,0.125,0.125,0.125,0.125,0.125,0.125,0.125,0.10400000000000001,0.125,0.125,0.125,0.125,0.125,0.125,0.10400000000000001,0.10400000000000001,0.125,0.125,0.125,0.125,0.125,0.125,0.125,0.125,0.125,0.125,0.125,0.125,0.125,0.125,0.125,0.125,0.125,0.125,0.10400000000000001,0.10400000000000001,0.10400000000000001,0.10400000000000001,0.10400000000000001,0.10400000000000001,0.10400000000000001,0.10400000000000001,0.125,0.125,0.125,0.125,0.125,0.125,0.125,0.125,0.125,0.125,0.125,0.125,0.125,0.125,0.145,0.145,0.145,0.145,0.145,0.145,0.145,0.145,0.145,0.145,0.145,0.145,0.145,0.145,0.145,0.145,0.145,0.145,0.145,0.145,0.125,0.145,0.125,0.125,0.10400000000000001,0.10400000000000001,0.10400000000000001,0.10400000000000001,0.10400000000000001,0.10400000000000001,0.10400000000000001,0.10400000000000001,0.083,0.083,0.083,0.083,0.063,0.063,0.063,0.063,0.063,0.063,0.063,0.063,0.042,0.042,0.042,0.042,0.042,0.042,0.022000000000000002,0.022000000000000002,0.022000000000000002,0.022000000000000002,0.022000000000000002,0.022000000000000002,0.022000000000000002,0.022000000000000002,0.022000000000000002,0.002,0.002,0.002,0.002,0.002,0.002,0.002,0.002,0.002,0.002,0.002,0.002,0.002,0.002,0.002,0.002,0.002,0.002,0.002,0.002,0.002,0.002,0.002,0.002,0.002,0.002,0.002,0.002,0.002,0.002,0.002,0.002,0.002,0.002,0.002,0.002,0.002,0.002,0.002,0.002,0.002,0.002,0.002,0.002,0.002,0.002,0.002,0.002,0.002,0.002,0.002,0.002,0.002,0.002,0.002,0.002,0.002,0.002,0.002,0.002,0.002,0.002,0.002,0.002,0.002,0.002,0.002,0.002,0.002,0.002,0.002,0.002,0.002,0.002,0.002,0.002,0.002,0.002,0.002,0.002,0.002,0.002,0.002,0.002,0.002,0.002,-0.019,-0.019,-0.019,-0.039,-0.039,-0.039,-0.039,-0.039,-0.06,-0.06,-0.06,-0.039,-0.039,-0.039,-0.039,-0.039,-0.039,-0.039,-0.019,-0.019,-0.019,-0.019,-0.019,-0.019,-0.019,-0.039,-0.039,-0.039,-0.039,-0.06,-0.06,-0.06,-0.06,-0.039,-0.039,-0.019,0.002,0.002,0.002,0.002,0.002,0.002,0.002,0.002,0.002,0.002,0.002,0.002,0.002,0.002,0.002,0.002,0.002,0.002,-0.019,-0.019,-0.019,0.002,0.002,0.002,0.002,0.002,0.002,0.022000000000000002,0.042,0.083,0.083,0.10400000000000001,0.125,0.10400000000000001,0.10400000000000001,0.063,0.022000000000000002,0.002,-0.081,-0.184,-0.327,-0.47100000000000003,-0.635,-0.779,-0.902,-1.005,-1.087,-1.128,-1.149,-1.149,-1.149,-1.087,-1.025,-0.943,-0.841,-0.7170000000000001,-0.574,-0.47100000000000003,-0.389,-0.327,-0.287,-0.245,-0.204,-0.163,-0.142,-0.122,-0.10099999999999999,-0.06,-0.039,0.002,0.002,0.042,0.063,0.10400000000000001,0.10400000000000001,0.10400000000000001,0.125,0.125,0.125,0.125,0.125,0.125,0.125,0.125,0.10400000000000001,0.125,0.125,0.125,0.10400000000000001,0.125,0.125,0.125,0.125,0.10400000000000001,0.10400000000000001,0.125,0.125,0.10400000000000001,0.125,0.125,0.10400000000000001,0.10400000000000001,0.10400000000000001,0.125,0.125,0.125,0.125,0.125,0.125,0.10400000000000001,0.10400000000000001,0.10400000000000001,0.10400000000000001,0.10400000000000001,0.10400000000000001,0.10400000000000001,0.10400000000000001,0.10400000000000001,0.125,0.125,0.125,0.10400000000000001,0.10400000000000001,0.10400000000000001,0.125,0.125,0.125,0.125,0.125,0.125,0.10400000000000001,0.125,0.10400000000000001,0.125,0.125,0.10400000000000001,0.125,0.125,0.125,0.125,0.125,0.125,0.125,0.125,0.125,0.125,0.145,0.145,0.145,0.145,0.145,0.125,0.125,0.125,0.125,0.125,0.125,0.145,0.145,0.145,0.145,0.145,0.145,0.145,0.145,0.145,0.145,0.145,0.145,0.145,0.145,0.145,0.145,0.145,0.145,0.125,0.125,0.125,0.125,N
8,0.10400000000000001,0.10400000000000001,0.083,0.083,0.083,0.083,0.063,0.063,0.063,0.063,0.063,0.063,0.063,0.063,0.042,0.042,0.042,0.042,0.042,0.042,0.042,0.042,0.022000000000000002,0.022000000000000002,0.042,0.022000000000000002,0.022000000000000002,0.022000000000000002,0.022000000000000002,0.022000000000000002,0.022000000000000002,0.022000000000000002,0.022000000000000002,0.022000000000000002,0.022000000000000002,0.022000000000000002,0.002,0.002,0.022000000000000002,0.022000000000000002,0.002,0.022000000000000002,0.002,0.022000000000000002,0.022000000000000002,0.022000000000000002,0.022000000000000002,0.022000000000000002,0.002,0.002,0.002,0.022000000000000002,0.002,0.002,0.002,0.002,0.002,0.002,0.022000000000000002,0.022000000000000002,0.022000000000000002,0.022000000000000002,0.022000000000000002,0.002,0.002,0.022000000000000002,0.002,0.022000000000000002,0.022000000000000002,0.022000000000000002,0.022000000000000002,0.022000000000000002,0.022000000000000002,0.022000000000000002,0.022000000000000002,0.022000000000000002,0.022000000000000002,0.002,0.002,0.002,0.002,0.002,0.022000000000000002,0.022000000000000002,0.022000000000000002,0.022000000000000002,0.002,0.002,0.022000000000000002,0.022000000000000002,0.002,0.002,0.022000000000000002,0.002,0.002,0.002,0.002,0.002,0.022000000000000002,0.002,0.002,0.002,0.002,0.002,0.002,0.002,0.002,0.002,0.002,0.002,0.002,0.002,0.002,0.002,0.002,-0.019,-0.019,-0.019,-0.039,-0.039,-0.039,-0.039,-0.039,-0.039,-0.039,-0.039,-0.039,-0.039,-0.039,-0.019,-0.019,-0.019,0.002,0.002,0.002,0.002,-0.019,-0.019,-0.019,-0.039,-0.039,-0.039,-0.039,-0.039,-0.039,-0.039,-0.019,0.002,0.002,0.002,0.002,0.002,0.002,0.002,0.002,0.002,0.002,0.002,0.002,0.002,0.002,0.002,0.002,0.002,0.002,0.002,0.002,0.002,0.002,0.002,0.002,0.002,0.002,0.002,0.022000000000000002,0.042,0.063,0.083,0.10400000000000001,0.125,0.145,0.125,0.10400000000000001,0.083,0.022000000000000002,0.002,-0.081,-0.204,-0.327,-0.47100000000000003,-0.635,-0.779,-0.902,-1.025,-1.1079999999999999,-1.128,-1.149,-1.149,-1.128,-1.0659999999999998,-1.025,-0.922,-0.82,-0.6759999999999999,-0.5529999999999999,-0.45,-0.368,-0.327,-0.266,-0.225,-0.184,-0.163,-0.122,-0.10099999999999999,-0.081,-0.039,-0.019,0.002,0.022000000000000002,0.042,0.083,0.10400000000000001,0.10400000000000001,0.10400000000000001,0.125,0.125,0.125,0.125,0.125,0.125,0.125,0.125,0.125,0.125,0.125,0.125,0.125,0.125,0.125,0.125,0.125,0.125,0.125,0.125,0.125,0.125,0.125,0.125,0.125,0.125,0.125,0.125,0.125,0.125,0.10400000000000001,0.125,0.125,0.125,0.125,0.125,0.125,0.10400000000000001,0.10400000000000001,0.125,0.125,0.125,0.125,0.125,0.125,0.125,0.125,0.125,0.125,0.125,0.125,0.125,0.125,0.125,0.125,0.125,0.125,0.10400000000000001,0.10400000000000001,0.10400000000000001,0.10400000000000001,0.10400000000000001,0.10400000000000001,0.10400000000000001,0.10400000000000001,0.125,0.125,0.125,0.125,0.125,0.125,0.125,0.125,0.125,0.125,0.125,0.125,0.125,0.125,0.145,0.145,0.145,0.145,0.145,0.145,0.145,0.145,0.145,0.145,0.145,0.145,0.145,0.145,0.145,0.145,0.145,0.145,0.145,0.145,0.125,0.145,0.125,0.125,0.10400000000000001,0.10400000000000001,0.10400000000000001,0.10400000000000001,0.10400000000000001,0.10400000000000001,0.10400000000000001,0.10400000000000001,0.083,0.083,0.083,0.083,0.063,0.063,0.063,0.063,0.063,0.063,0.063,0.063,0.042,0.042,0.042,0.042,0.042,0.042,0.022000000000000002,0.022000000000000002,0.022000000000000002,0.022000000000000002,0.022000000000000002,0.022000000000000002,0.022000000000000002,0.022000000000000002,0.022000000000000002,0.002,0.002,0.002,0.002,0.002,0.002,0.002,0.002,0.002,0.002,0.002,0.002,0.002,0.002,0.002,0.002,0.002,0.002,0.002,0.002,0.002,0.002,0.002,0.002,0.002,0.002,0.002,0.002,0.002,0.002,0.002,0.002,0.002,0.002,0.002,0.002,0.002,0.002,0.002,0.002,0.002,0.002,0.002,0.002,0.002,0.002,0.002,0.002,0.002,0.002,0.002,0.002,0.002,0.002,0.002,0.002,0.002,0.002,0.002,0.002,0.002,0.002,0.002,0.002,0.002,0.002,0.002,0.002,0.002,0.002,0.002,0.002,0.002,0.002,0.002,0.002,0.002,0.002,0.002,0.002,0.002,0.002,0.002,0.002,0.002,0.002,-0.019,-0.019,-0.019,-0.039,-0.039,-0.039,-0.039,-0.039,-0.06,-0.06,-0.06,-0.039,-0.039,-0.039,-0.039,-0.039,-0.039,-0.039,-0.019,-0.019,-0.019,-0.019,-0.019,-0.019,-0.019,-0.039,-0.039,-0.039,-0.039,-0.06,-0.06,-0.06,-0.06,-0.039,-0.039,-0.019,0.002,0.002,0.002,0.002,0.002,0.002,0.002,0.002,0.002,0.002,0.002,0.002,0.002,0.002,0.002,0.002,0.002,0.002,-0.019,-0.019,-0.019,0.002,0.002,0.002,0.002,0.002,0.002,0.022000000000000002,0.042,0.083,0.083,0.10400000000000001,0.125,0.10400000000000001,0.10400000000000001,0.063,0.022000000000000002,0.002,-0.081,-0.184,-0.327,-0.47100000000000003,-0.635,-0.779,-0.902,-1.005,-1.087,-1.128,-1.149,-1.149,-1.149,-1.087,-1.025,-0.943,-0.841,-0.7170000000000001,-0.574,-0.47100000000000003,-0.389,-0.327,-0.287,-0.245,-0.204,-0.163,-0.142,-0.122,-0.10099999999999999,-0.06,-0.039,0.002,0.002,0.042,0.063,0.10400000000000001,0.10400000000000001,0.10400000000000001,0.125,0.125,0.125,0.125,0.125,0.125,0.125,0.125,0.10400000000000001,0.125,0.125,0.125,0.10400000000000001,0.125,0.125,0.125,0.125,0.10400000000000001,0.10400000000000001,0.125,0.125,0.10400000000000001,0.125,0.125,0.10400000000000001,0.10400000000000001,0.10400000000000001,0.125,0.125,0.125,0.125,0.125,0.125,0.10400000000000001,0.10400000000000001,0.10400000000000001,0.10400000000000001,0.10400000000000001,0.10400000000000001,0.10400000000000001,0.10400000000000001,0.10400000000000001,0.125,0.125,0.125,0.10400000000000001,0.10400000000000001,0.10400000000000001,0.125,0.125,0.125,0.125,0.125,0.125,0.10400000000000001,0.125,0.10400000000000001,0.125,0.125,0.10400000000000001,0.125,0.125,0.125,0.125,0.125,0.125,0.125,0.125,0.125,0.125,0.145,0.145,0.145,0.145,0.145,0.125,0.125,0.125,0.125,0.125,0.125,0.145,0.145,0.145,0.145,0.145,0.145,0.145,0.145,0.145,0.145,0.145,0.145,0.145,0.145,0.145,0.145,0.145,0.145,0.125,0.125,0.125,0.125,0.10400000000000001,0.10400000000000001,0.10400000000000001,0.10400000000000001,0.10400000000000001,0.10400000000000001,0.10400000000000001,0.10400000000000001,0.10400000000000001,0.083,0.083,0.083,0.083,0.083,0.063,0.063,0.063,0.063,0.042,0.042,0.042,0.042,0.042,0.042,0.042,0.042,0.042,0.042,0.042,0.022000000000000002,0.022000000000000002,0.042,0.022000000000000002,0.022000000000000002,0.022000000000000002,0.022000000000000002,0.022000000000000002,0.002,0.002,0.002,0.002,0.002,0.002,0.002,0.002,0.002,0.002,0.002,0.002,0.002,0.002,0.002,0.002,0.002,0.002,0.002,0.002,0.002,0.002,0.002,0.002,0.002,0.002,0.002,0.002,0.002,0.002,0.002,0.002,0.002,0.002,0.002,0.002,0.002,0.002,0.002,0.002,0.002,0.002,0.002,0.002,0.002,0.002,0.002,0.002,0.002,0.002,0.002,0.002,0.002,0.002,0.002,0.002,0.002,0.002,0.002,0.002,0.002,0.002,0.002,0.002,0.002,0.002,0.002,0.002,0.002,0.002,0.002,0.002,0.002,0.002,0.002,0.002,0.002,0.002,0.002,0.002,0.002,0.002,0.002,0.002,0.002,0.002,-0.019,-0.019,-0.019,-0.039,-0.039,-0.039,-0.039,-0.039,-0.039,-0.039,-0.039,-0.039,-0.039,-0.039,-0.039,-0.039,-0.019,-0.019,-0.019,-0.019,-0.019,-0.019,-0.019,-0.039,-0.039,-0.039,-0.039,-0.06,-0.06,-0.06,-0.039,-0.039,-0.019,-0.019,0.002,0.002,0.002,0.002,0.002,0.002,0.002,0.002,0.002,0.002,0.002,0.002,0.002,0.002,0.002,0.002,0.002,0.002,0.002,0.002,0.002,0.002,0.002,0.002,0.002,0.002,0.002,0.022000000000000002,0.042,0.083,0.10400000000000001,0.125,0.125,0.125,0.10400000000000001,0.083,0.042,0.002,-0.06,-0.184,-0.306,-0.47100000000000003,-0.635,-0.779,-0.902,-1.025,-1.1079999999999999,-1.149,-1.189,-1.189,-1.169,-1.128,-1.0659999999999998,-0.9840000000000001,-0.8809999999999999,-0.738,-0.594,-0.49200000000000005,-0.409,-0.34700000000000003,-0.287,-0.245,-0.204,-0.163,-0.142,-0.122,-0.10099999999999999,-0.06,-0.019,0.002,0.022000000000000002,0.042,0.063,0.10400000000000001,0.10400000000000001,0.125,0.125,0.125,0.125,0.125,0.125,0.125,0.125,0.125,0.125,0.125,0.125,0.125,0.125,0.125,0.125,0.125,0.125,0.125,0.125,0.125,0.125,0.125,0.125,0.125,0.125,0.125,0.125,0.125,0.125,0.125,0.125,0.145,0.125,0.125,0.10400000000000001,0.125,0.125,0.125,0.125,0.125,0.10400000000000001,0.125,0.125,0.125,0.125,0.125,0.10400000000000001,0.125,0.125,0.125,0.125,0.125,0.125,0.125,0.145,0.125,0.125,0.125,0.145,0.125,0.125,0.125,0.125,0.125,0.145,0.145,0.145,0.145,0.145,0.145,0.145,0.145,0.145,0.145,0.145,0.166,0.145,0.166,0.166,0.166,0.166,0.166,0.166,0.145,0.145,0.145,0.145,0.145,0.145,0.166,0.166,0.166,0.166,0.166,0.145,0.145,0.145,0.145,0.145,0.145,0.145,0.145,0.125,0.125,N
9,0.063,0.063,0.063,0.063,0.042,0.042,0.042,0.042,0.042,0.042,0.022000000000000002,0.022000000000000002,0.022000000000000002,0.022000000000000002,0.022000000000000002,0.022000000000000002,0.022000000000000002,0.022000000000000002,0.022000000000000002,0.002,0.002,0.002,0.002,0.002,0.002,0.002,0.002,0.002,0.002,0.002,0.002,0.002,0.002,0.002,0.002,0.002,0.002,0.002,0.002,0.002,0.002,0.002,0.002,0.002,0.002,0.002,0.002,0.002,0.002,0.002,0.002,0.002,0.002,0.002,0.002,0.002,0.002,0.002,0.002,0.002,0.002,0.002,0.002,0.002,0.002,0.002,0.002,0.002,0.002,0.002,0.002,0.002,0.002,0.002,0.002,0.002,0.002,0.002,0.002,0.002,0.002,0.002,0.002,0.002,0.002,0.002,0.002,0.002,0.002,0.002,0.002,0.002,0.002,0.002,0.002,0.002,0.002,0.002,0.002,0.002,0.002,0.002,0.002,0.002,0.002,-0.019,-0.019,-0.019,-0.039,-0.039,-0.039,-0.039,-0.039,-0.06,-0.06,-0.06,-0.039,-0.039,-0.039,-0.039,-0.039,-0.039,-0.039,-0.019,-0.019,-0.019,-0.019,-0.019,-0.019,-0.019,-0.039,-0.039,-0.039,-0.039,-0.06,-0.06,-0.06,-0.06,-0.039,-0.039,-0.019,0.002,0.002,0.002,0.002,0.002,0.002,0.002,0.002,0.002,0.002,0.002,0.002,0.002,0.002,0.002,0.002,0.002,0.002,-0.019,-0.019,-0.019,0.002,0.002,0.002,0.002,0.002,0.002,0.022000000000000002,0.042,0.083,0.083,0.10400000000000001,0.125,0.10400000000000001,0.10400000000000001,0.063,0.022000000000000002,0.002,-0.081,-0.184,-0.327,-0.47100000000000003,-0.635,-0.779,-0.902,-1.005,-1.087,-1.128,-1.149,-1.149,-1.149,-1.087,-1.025,-0.943,-0.841,-0.7170000000000001,-0.574,-0.47100000000000003,-0.389,-0.327,-0.287,-0.245,-0.204,-0.163,-0.142,-0.122,-0.10099999999999999,-0.06,-0.039,0.002,0.002,0.042,0.063,0.10400000000000001,0.10400000000000001,0.10400000000000001,0.125,0.125,0.125,0.125,0.125,0.125,0.125,0.125,0.10400000000000001,0.125,0.125,0.125,0.10400000000000001,0.125,0.125,0.125,0.125,0.10400000000000001,0.10400000000000001,0.125,0.125,0.10400000000000001,0.125,0.125,0.10400000000000001,0.10400000000000001,0.10400000000000001,0.125,0.125,0.125,0.125,0.125,0.125,0.10400000000000001,0.10400000000000001,0.10400000000000001,0.10400000000000001,0.10400000000000001,0.10400000000000001,0.10400000000000001,0.10400000000000001,0.10400000000000001,0.125,0.125,0.125,0.10400000000000001,0.10400000000000001,0.10400000000000001,0.125,0.125,0.125,0.125,0.125,0.125,0.10400000000000001,0.125,0.10400000000000001,0.125,0.125,0.10400000000000001,0.125,0.125,0.125,0.125,0.125,0.125,0.125,0.125,0.125,0.125,0.145,0.145,0.145,0.145,0.145,0.125,0.125,0.125,0.125,0.125,0.125,0.145,0.145,0.145,0.145,0.145,0.145,0.145,0.145,0.145,0.145,0.145,0.145,0.145,0.145,0.145,0.145,0.145,0.145,0.125,0.125,0.125,0.125,0.10400000000000001,0.10400000000000001,0.10400000000000001,0.10400000000000001,0.10400000000000001,0.10400000000000001,0.10400000000000001,0.10400000000000001,0.10400000000000001,0.083,0.083,0.083,0.083,0.083,0.063,0.063,0.063,0.063,0.042,0.042,0.042,0.042,0.042,0.042,0.042,0.042,0.042,0.042,0.042,0.022000000000000002,0.022000000000000002,0.042,0.022000000000000002,0.022000000000000002,0.022000000000000002,0.022000000000000002,0.022000000000000002,0.002,0.002,0.002,0.002,0.002,0.002,0.002,0.002,0.002,0.002,0.002,0.002,0.002,0.002,0.002,0.002,0.002,0.002,0.002,0.002,0.002,0.002,0.002,0.002,0.002,0.002,0.002,0.002,0.002,0.002,0.002,0.002,0.002,0.002,0.002,0.002,0.002,0.002,0.002,0.002,0.002,0.002,0.002,0.002,0.002,0.002,0.002,0.002,0.002,0.002,0.002,0.002,0.002,0.002,0.002,0.002,0.002,0.002,0.002,0.002,0.002,0.002,0.002,0.002,0.002,0.002,0.002,0.002,0.002,0.002,0.002,0.002,0.002,0.002,0.002,0.002,0.002,0.002,0.002,0.002,0.002,0.002,0.002,0.002,0.002,0.002,-0.019,-0.019,-0.019,-0.039,-0.039,-0.039,-0.039,-0.039,-0.039,-0.039,-0.039,-0.039,-0.039,-0.039,-0.039,-0.039,-0.019,-0.019,-0.019,-0.019,-0.019,-0.019,-0.019,-0.039,-0.039,-0.039,-0.039,-0.06,-0.06,-0.06,-0.039,-0.039,-0.019,-0.019,0.002,0.002,0.002,0.002,0.002,0.002,0.002,0.002,0.002,0.002,0.002,0.002,0.002,0.002,0.002,0.002,0.002,0.002,0.002,0.002,0.002,0.002,0.002,0.002,0.002,0.002,0.002,0.022000000000000002,0.042,0.083,0.10400000000000001,0.125,0.125,0.125,0.10400000000000001,0.083,0.042,0.002,-0.06,-0.184,-0.306,-0.47100000000000003,-0.635,-0.779,-0.902,-1.025,-1.1079999999999999,-1.149,-1.189,-1.189,-1.169,-1.128,-1.0659999999999998,-0.9840000000000001,-0.8809999999999999,-0.738,-0.594,-0.49200000000000005,-0.409,-0.34700000000000003,-0.287,-0.245,-0.204,-0.163,-0.142,-0.122,-0.10099999999999999,-0.06,-0.019,0.002,0.022000000000000002,0.042,0.063,0.10400000000000001,0.10400000000000001,0.125,0.125,0.125,0.125,0.125,0.125,0.125,0.125,0.125,0.125,0.125,0.125,0.125,0.125,0.125,0.125,0.125,0.125,0.125,0.125,0.125,0.125,0.125,0.125,0.125,0.125,0.125,0.125,0.125,0.125,0.125,0.125,0.145,0.125,0.125,0.10400000000000001,0.125,0.125,0.125,0.125,0.125,0.10400000000000001,0.125,0.125,0.125,0.125,0.125,0.10400000000000001,0.125,0.125,0.125,0.125,0.125,0.125,0.125,0.145,0.125,0.125,0.125,0.145,0.125,0.125,0.125,0.125,0.125,0.145,0.145,0.145,0.145,0.145,0.145,0.145,0.145,0.145,0.145,0.145,0.166,0.145,0.166,0.166,0.166,0.166,0.166,0.166,0.145,0.145,0.145,0.145,0.145,0.145,0.166,0.166,0.166,0.166,0.166,0.145,0.145,0.145,0.145,0.145,0.145,0.145,0.145,0.125,0.125,0.125,0.125,0.125,0.10400000000000001,0.10400000000000001,0.10400000000000001,0.10400000000000001,0.10400000000000001,0.10400000000000001,0.10400000000000001,0.083,0.083,0.083,0.083,0.083,0.063,0.063,0.063,0.063,0.042,0.063,0.063,0.042,0.042,0.042,0.042,0.042,0.042,0.042,0.042,0.042,0.022000000000000002,0.022000000000000002,0.022000000000000002,0.022000000000000002,0.022000000000000002,0.002,0.002,0.022000000000000002,0.022000000000000002,0.022000000000000002,0.002,0.002,0.002,0.002,0.002,0.002,0.002,0.002,0.002,0.002,0.002,0.002,0.002,0.002,0.002,0.002,0.002,0.002,0.002,0.002,0.002,0.002,0.002,0.002,0.002,0.002,0.002,0.002,0.002,0.002,0.002,0.002,0.002,0.002,0.022000000000000002,0.002,0.002,0.002,0.002,0.002,0.002,0.002,0.002,0.002,0.002,0.002,0.002,0.002,0.002,0.002,0.002,0.002,0.002,0.002,0.002,0.002,0.002,0.002,0.002,0.002,0.002,0.002,0.002,0.002,0.002,0.002,0.002,0.002,0.002,0.002,0.002,0.002,0.002,0.002,0.002,0.002,0.002,0.002,0.002,-0.019,-0.019,-0.019,-0.019,-0.019,-0.039,-0.039,-0.039,-0.039,-0.039,-0.039,-0.039,-0.039,-0.039,-0.039,-0.039,-0.039,-0.039,-0.039,-0.039,-0.039,-0.039,-0.019,-0.019,-0.019,-0.019,-0.019,-0.039,-0.039,-0.039,-0.039,-0.06,-0.039,-0.039,-0.039,-0.019,-0.019,0.002,0.002,0.002,0.002,0.002,0.002,0.002,0.002,0.002,0.002,0.002,0.002,0.002,0.002,0.002,0.002,0.002,0.002,0.002,0.002,0.002,0.002,0.002,0.002,0.002,0.002,0.022000000000000002,0.042,0.083,0.10400000000000001,0.10400000000000001,0.125,0.145,0.125,0.10400000000000001,0.063,0.022000000000000002,-0.039,-0.10099999999999999,-0.245,-0.368,-0.5329999999999999,-0.6970000000000001,-0.841,-0.9840000000000001,-1.087,-1.128,-1.169,-1.189,-1.189,-1.149,-1.1079999999999999,-1.025,-0.922,-0.8,-0.655,-0.5529999999999999,-0.43,-0.368,-0.327,-0.266,-0.225,-0.204,-0.163,-0.142,-0.122,-0.081,-0.039,-0.019,0.002,0.022000000000000002,0.063,0.083,0.10400000000000001,0.10400000000000001,0.10400000000000001,0.125,0.125,0.125,0.145,0.125,0.125,0.125,0.145,0.125,0.145,0.125,0.125,0.125,0.125,0.125,0.125,0.125,0.125,0.125,0.125,0.125,0.125,0.125,0.125,0.145,0.125,0.145,0.125,0.125,0.125,0.125,0.125,0.125,0.125,0.125,0.125,0.125,0.125,0.125,0.125,0.125,0.125,0.125,0.125,0.125,0.145,0.125,0.145,0.145,0.145,0.125,0.125,0.125,0.125,0.125,0.125,0.125,0.125,0.145,0.145,0.125,0.145,0.145,0.145,0.145,0.145,0.145,0.145,0.145,0.145,0.145,0.145,0.145,0.166,0.166,0.166,0.166,0.166,0.166,0.166,0.145,0.166,0.166,0.166,0.166,0.166,0.145,0.145,0.166,0.166,0.166,0.166,0.166,0.166,0.166,0.166,0.166,0.145,0.145,0.145,0.145,0.145,0.145,0.125,0.125,0.125,0.125,0.10400000000000001,0.10400000000000001,0.10400000000000001,A
10,0.10400000000000001,0.10400000000000001,0.10400000000000001,0.125,0.125,0.125,0.125,0.125,0.125,0.10400000000000001,0.10400000000000001,0.10400000000000001,0.10400000000000001,0.10400000000000001,0.10400000000000001,0.10400000000000001,0.10400000000000001,0.10400000000000001,0.125,0.125,0.125,0.10400000000000001,0.10400000000000001,0.10400000000000001,0.125,0.125,0.125,0.125,0.125,0.125,0.10400000000000001,0.125,0.10400000000000001,0.125,0.125,0.10400000000000001,0.125,0.125,0.125,0.125,0.125,0.125,0.125,0.125,0.125,0.125,0.145,0.145,0.145,0.145,0.145,0.125,0.125,0.125,0.125,0.125,0.125,0.145,0.145,0.145,0.145,0.145,0.145,0.145,0.145,0.145,0.145,0.145,0.145,0.145,0.145,0.145,0.145,0.145,0.145,0.125,0.125,0.125,0.125,0.10400000000000001,0.10400000000000001,0.10400000000000001,0.10400000000000001,0.10400000000000001,0.10400000000000001,0.10400000000000001,0.10400000000000001,0.10400000000000001,0.083,0.083,0.083,0.083,0.083,0.063,0.063,0.063,0.063,0.042,0.042,0.042,0.042,0.042,0.042,0.042,0.042,0.042,0.042,0.042,0.022000000000000002,0.022000000000000002,0.042,0.022000000000000002,0.022000000000000002,0.022000000000000002,0.022000000000000002,0.022000000000000002,0.002,0.002,0.002,0.002,0.002,0.002,0.002,0.002,0.002,0.002,0.002,0.002,0.002,0.002,0.002,0.002,0.002,0.002,0.002,0.002,0.002,0.002,0.002,0.002,0.002,0.002,0.002,0.002,0.002,0.002,0.002,0.002,0.002,0.002,0.002,0.002,0.002,0.002,0.002,0.002,0.002,0.002,0.002,0.002,0.002,0.002,0.002,0.002,0.002,0.002,0.002,0.002,0.002,0.002,0.002,0.002,0.002,0.002,0.002,0.002,0.002,0.002,0.002,0.002,0.002,0.002,0.002,0.002,0.002,0.002,0.002,0.002,0.002,0.002,0.002,0.002,0.002,0.002,0.002,0.002,0.002,0.002,0.002,0.002,0.002,0.002,-0.019,-0.019,-0.019,-0.039,-0.039,-0.039,-0.039,-0.039,-0.039,-0.039,-0.039,-0.039,-0.039,-0.039,-0.039,-0.039,-0.019,-0.019,-0.019,-0.019,-0.019,-0.019,-0.019,-0.039,-0.039,-0.039,-0.039,-0.06,-0.06,-0.06,-0.039,-0.039,-0.019,-0.019,0.002,0.002,0.002,0.002,0.002,0.002,0.002,0.002,0.002,0.002,0.002,0.002,0.002,0.002,0.002,0.002,0.002,0.002,0.002,0.002,0.002,0.002,0.002,0.002,0.002,0.002,0.002,0.022000000000000002,0.042,0.083,0.10400000000000001,0.125,0.125,0.125,0.10400000000000001,0.083,0.042,0.002,-0.06,-0.184,-0.306,-0.47100000000000003,-0.635,-0.779,-0.902,-1.025,-1.1079999999999999,-1.149,-1.189,-1.189,-1.169,-1.128,-1.0659999999999998,-0.9840000000000001,-0.8809999999999999,-0.738,-0.594,-0.49200000000000005,-0.409,-0.34700000000000003,-0.287,-0.245,-0.204,-0.163,-0.142,-0.122,-0.10099999999999999,-0.06,-0.019,0.002,0.022000000000000002,0.042,0.063,0.10400000000000001,0.10400000000000001,0.125,0.125,0.125,0.125,0.125,0.125,0.125,0.125,0.125,0.125,0.125,0.125,0.125,0.125,0.125,0.125,0.125,0.125,0.125,0.125,0.125,0.125,0.125,0.125,0.125,0.125,0.125,0.125,0.125,0.125,0.125,0.125,0.145,0.125,0.125,0.10400000000000001,0.125,0.125,0.125,0.125,0.125,0.10400000000000001,0.125,0.125,0.125,0.125,0.125,0.10400000000000001,0.125,0.125,0.125,0.125,0.125,0.125,0.125,0.145,0.125,0.125,0.125,0.145,0.125,0.125,0.125,0.125,0.125,0.145,0.145,0.145,0.145,0.145,0.145,0.145,0.145,0.145,0.145,0.145,0.166,0.145,0.166,0.166,0.166,0.166,0.166,0.166,0.145,0.145,0.145,0.145,0.145,0.145,0.166,0.166,0.166,0.166,0.166,0.145,0.145,0.145,0.145,0.145,0.145,0.145,0.145,0.125,0.125,0.125,0.125,0.125,0.10400000000000001,0.10400000000000001,0.10400000000000001,0.10400000000000001,0.10400000000000001,0.10400000000000001,0.10400000000000001,0.083,0.083,0.083,0.083,0.083,0.063,0.063,0.063,0.063,0.042,0.063,0.063,0.042,0.042,0.042,0.042,0.042,0.042,0.042,0.042,0.042,0.022000000000000002,0.022000000000000002,0.022000000000000002,0.022000000000000002,0.022000000000000002,0.002,0.002,0.022000000000000002,0.022000000000000002,0.022000000000000002,0.002,0.002,0.002,0.002,0.002,0.002,0.002,0.002,0.002,0.002,0.002,0.002,0.002,0.002,0.002,0.002,0.002,0.002,0.002,0.002,0.002,0.002,0.002,0.002,0.002,0.002,0.002,0.002,0.002,0.002,0.002,0.002,0.002,0.002,0.022000000000000002,0.002,0.002,0.002,0.002,0.002,0.002,0.002,0.002,0.002,0.002,0.002,0.002,0.002,0.002,0.002,0.002,0.002,0.002,0.002,0.002,0.002,0.002,0.002,0.002,0.002,0.002,0.002,0.002,0.002,0.002,0.002,0.002,0.002,0.002,0.002,0.002,0.002,0.002,0.002,0.002,0.002,0.002,0.002,0.002,-0.019,-0.019,-0.019,-0.019,-0.019,-0.039,-0.039,-0.039,-0.039,-0.039,-0.039,-0.039,-0.039,-0.039,-0.039,-0.039,-0.039,-0.039,-0.039,-0.039,-0.039,-0.039,-0.019,-0.019,-0.019,-0.019,-0.019,-0.039,-0.039,-0.039,-0.039,-0.06,-0.039,-0.039,-0.039,-0.019,-0.019,0.002,0.002,0.002,0.002,0.002,0.002,0.002,0.002,0.002,0.002,0.002,0.002,0.002,0.002,0.002,0.002,0.002,0.002,0.002,0.002,0.002,0.002,0.002,0.002,0.002,0.002,0.022000000000000002,0.042,0.083,0.10400000000000001,0.10400000000000001,0.125,0.145,0.125,0.10400000000000001,0.063,0.022000000000000002,-0.039,-0.10099999999999999,-0.245,-0.368,-0.5329999999999999,-0.6970000000000001,-0.841,-0.9840000000000001,-1.087,-1.128,-1.169,-1.189,-1.189,-1.149,-1.1079999999999999,-1.025,-0.922,-0.8,-0.655,-0.5529999999999999,-0.43,-0.368,-0.327,-0.266,-0.225,-0.204,-0.163,-0.142,-0.122,-0.081,-0.039,-0.019,0.002,0.022000000000000002,0.063,0.083,0.10400000000000001,0.10400000000000001,0.10400000000000001,0.125,0.125,0.125,0.145,0.125,0.125,0.125,0.145,0.125,0.145,0.125,0.125,0.125,0.125,0.125,0.125,0.125,0.125,0.125,0.125,0.125,0.125,0.125,0.125,0.145,0.125,0.145,0.125,0.125,0.125,0.125,0.125,0.125,0.125,0.125,0.125,0.125,0.125,0.125,0.125,0.125,0.125,0.125,0.125,0.125,0.145,0.125,0.145,0.145,0.145,0.125,0.125,0.125,0.125,0.125,0.125,0.125,0.125,0.145,0.145,0.125,0.145,0.145,0.145,0.145,0.145,0.145,0.145,0.145,0.145,0.145,0.145,0.145,0.166,0.166,0.166,0.166,0.166,0.166,0.166,0.145,0.166,0.166,0.166,0.166,0.166,0.145,0.145,0.166,0.166,0.166,0.166,0.166,0.166,0.166,0.166,0.166,0.145,0.145,0.145,0.145,0.145,0.145,0.125,0.125,0.125,0.125,0.10400000000000001,0.10400000000000001,0.10400000000000001,0.10400000000000001,0.10400000000000001,0.10400000000000001,0.10400000000000001,0.083,0.083,0.083,0.083,0.063,0.063,0.063,0.063,0.063,0.042,0.042,0.042,0.042,0.042,0.042,0.042,0.042,0.042,0.042,0.042,0.042,0.022000000000000002,0.022000000000000002,0.022000000000000002,0.022000000000000002,0.022000000000000002,0.022000000000000002,0.022000000000000002,0.022000000000000002,0.022000000000000002,0.002,0.002,0.002,0.022000000000000002,0.002,0.002,0.002,0.002,0.002,0.002,0.002,0.022000000000000002,0.002,0.022000000000000002,0.002,0.002,0.002,0.002,0.002,0.002,0.002,0.002,0.022000000000000002,0.002,0.022000000000000002,0.022000000000000002,0.002,0.002,0.002,0.002,0.002,0.002,0.002,0.022000000000000002,0.022000000000000002,0.022000000000000002,0.022000000000000002,0.022000000000000002,0.022000000000000002,0.022000000000000002,0.022000000000000002,0.022000000000000002,0.022000000000000002,0.022000000000000002,0.022000000000000002,0.022000000000000002,0.002,0.002,0.022000000000000002,0.022000000000000002,0.002,0.022000000000000002,0.022000000000000002,0.002,0.022000000000000002,0.002,0.002,0.002,0.002,0.022000000000000002,0.002,0.002,0.002,0.002,0.002,0.002,0.002,0.002,0.002,0.002,0.002,0.002,0.002,0.002,0.002,0.002,0.002,0.002,0.002,0.002,0.002,0.002,0.002,-0.019,-0.039,-0.039,-0.039,-0.039,-0.039,-0.039,-0.039,-0.039,-0.039,-0.039,-0.039,-0.039,-0.019,-0.019,-0.019,-0.019,-0.019,-0.019,-0.019,-0.019,-0.019,-0.019,-0.039,-0.039,-0.039,-0.039,-0.06,-0.039,-0.039,-0.019,-0.019,0.002,0.002,0.002,0.002,0.002,0.002,0.002,0.002,0.002,0.002,0.002,0.002,0.002,0.002,0.002,0.002,0.002,0.002,0.002,0.002,0.002,0.002,0.002,0.002,0.002,0.002,0.002,0.022000000000000002,0.042,0.063,0.083,0.10400000000000001,0.125,0.125,0.10400000000000001,0.10400000000000001,0.042,0.002,-0.039,-0.122,-0.266,-0.389,-0.5529999999999999,-0.7170000000000001,-0.841,-0.963,-1.046,-1.1079999999999999,-1.1079999999999999,-1.149,-1.128,-1.1079999999999999,-1.046,-0.9840000000000001,-0.861,-0.738,-0.614,-0.49200000000000005,-0.409,-0.34700000000000003,-0.306,-0.266,-0.225,-0.184,-0.163,-0.142,-0.10099999999999999,-0.081,-0.039,-0.019,0.002,0.042,0.063,0.083,0.10400000000000001,0.10400000000000001,0.10400000000000001,0.10400000000000001,0.125,0.125,0.125,0.125,0.125,0.125,0.125,0.125,0.125,0.125,0.125,0.125,0.125,0.125,N
11,0.083,0.083,0.063,0.063,0.063,0.063,0.042,0.063,0.063,0.042,0.042,0.042,0.042,0.042,0.042,0.042,0.042,0.042,0.022000000000000002,0.022000000000000002,0.022000000000000002,0.022000000000000002,0.022000000000000002,0.002,0.002,0.022000000000000002,0.022000000000000002,0.022000000000000002,0.002,0.002,0.002,0.002,0.002,0.002,0.002,0.002,0.002,0.002,0.002,0.002,0.002,0.002,0.002,0.002,0.002,0.002,0.002,0.002,0.002,0.002,0.002,0.002,0.002,0.002,0.002,0.002,0.002,0.002,0.002,0.002,0.002,0.002,0.022000000000000002,0.002,0.002,0.002,0.002,0.002,0.002,0.002,0.002,0.002,0.002,0.002,0.002,0.002,0.002,0.002,0.002,0.002,0.002,0.002,0.002,0.002,0.002,0.002,0.002,0.002,0.002,0.002,0.002,0.002,0.002,0.002,0.002,0.002,0.002,0.002,0.002,0.002,0.002,0.002,0.002,0.002,0.002,0.002,0.002,-0.019,-0.019,-0.019,-0.019,-0.019,-0.039,-0.039,-0.039,-0.039,-0.039,-0.039,-0.039,-0.039,-0.039,-0.039,-0.039,-0.039,-0.039,-0.039,-0.039,-0.039,-0.039,-0.019,-0.019,-0.019,-0.019,-0.019,-0.039,-0.039,-0.039,-0.039,-0.06,-0.039,-0.039,-0.039,-0.019,-0.019,0.002,0.002,0.002,0.002,0.002,0.002,0.002,0.002,0.002,0.002,0.002,0.002,0.002,0.002,0.002,0.002,0.002,0.002,0.002,0.002,0.002,0.002,0.002,0.002,0.002,0.002,0.022000000000000002,0.042,0.083,0.10400000000000001,0.10400000000000001,0.125,0.145,0.125,0.10400000000000001,0.063,0.022000000000000002,-0.039,-0.10099999999999999,-0.245,-0.368,-0.5329999999999999,-0.6970000000000001,-0.841,-0.9840000000000001,-1.087,-1.128,-1.169,-1.189,-1.189,-1.149,-1.1079999999999999,-1.025,-0.922,-0.8,-0.655,-0.5529999999999999,-0.43,-0.368,-0.327,-0.266,-0.225,-0.204,-0.163,-0.142,-0.122,-0.081,-0.039,-0.019,0.002,0.022000000000000002,0.063,0.083,0.10400000000000001,0.10400000000000001,0.10400000000000001,0.125,0.125,0.125,0.145,0.125,0.125,0.125,0.145,0.125,0.145,0.125,0.125,0.125,0.125,0.125,0.125,0.125,0.125,0.125,0.125,0.125,0.125,0.125,0.125,0.145,0.125,0.145,0.125,0.125,0.125,0.125,0.125,0.125,0.125,0.125,0.125,0.125,0.125,0.125,0.125,0.125,0.125,0.125,0.125,0.125,0.145,0.125,0.145,0.145,0.145,0.125,0.125,0.125,0.125,0.125,0.125,0.125,0.125,0.145,0.145,0.125,0.145,0.145,0.145,0.145,0.145,0.145,0.145,0.145,0.145,0.145,0.145,0.145,0.166,0.166,0.166,0.166,0.166,0.166,0.166,0.145,0.166,0.166,0.166,0.166,0.166,0.145,0.145,0.166,0.166,0.166,0.166,0.166,0.166,0.166,0.166,0.166,0.145,0.145,0.145,0.145,0.145,0.145,0.125,0.125,0.125,0.125,0.10400000000000001,0.10400000000000001,0.10400000000000001,0.10400000000000001,0.10400000000000001,0.10400000000000001,0.10400000000000001,0.083,0.083,0.083,0.083,0.063,0.063,0.063,0.063,0.063,0.042,0.042,0.042,0.042,0.042,0.042,0.042,0.042,0.042,0.042,0.042,0.042,0.022000000000000002,0.022000000000000002,0.022000000000000002,0.022000000000000002,0.022000000000000002,0.022000000000000002,0.022000000000000002,0.022000000000000002,0.022000000000000002,0.002,0.002,0.002,0.022000000000000002,0.002,0.002,0.002,0.002,0.002,0.002,0.002,0.022000000000000002,0.002,0.022000000000000002,0.002,0.002,0.002,0.002,0.002,0.002,0.002,0.002,0.022000000000000002,0.002,0.022000000000000002,0.022000000000000002,0.002,0.002,0.002,0.002,0.002,0.002,0.002,0.022000000000000002,0.022000000000000002,0.022000000000000002,0.022000000000000002,0.022000000000000002,0.022000000000000002,0.022000000000000002,0.022000000000000002,0.022000000000000002,0.022000000000000002,0.022000000000000002,0.022000000000000002,0.022000000000000002,0.002,0.002,0.022000000000000002,0.022000000000000002,0.002,0.022000000000000002,0.022000000000000002,0.002,0.022000000000000002,0.002,0.002,0.002,0.002,0.022000000000000002,0.002,0.002,0.002,0.002,0.002,0.002,0.002,0.002,0.002,0.002,0.002,0.002,0.002,0.002,0.002,0.002,0.002,0.002,0.002,0.002,0.002,0.002,0.002,-0.019,-0.039,-0.039,-0.039,-0.039,-0.039,-0.039,-0.039,-0.039,-0.039,-0.039,-0.039,-0.039,-0.019,-0.019,-0.019,-0.019,-0.019,-0.019,-0.019,-0.019,-0.019,-0.019,-0.039,-0.039,-0.039,-0.039,-0.06,-0.039,-0.039,-0.019,-0.019,0.002,0.002,0.002,0.002,0.002,0.002,0.002,0.002,0.002,0.002,0.002,0.002,0.002,0.002,0.002,0.002,0.002,0.002,0.002,0.002,0.002,0.002,0.002,0.002,0.002,0.002,0.002,0.022000000000000002,0.042,0.063,0.083,0.10400000000000001,0.125,0.125,0.10400000000000001,0.10400000000000001,0.042,0.002,-0.039,-0.122,-0.266,-0.389,-0.5529999999999999,-0.7170000000000001,-0.841,-0.963,-1.046,-1.1079999999999999,-1.1079999999999999,-1.149,-1.128,-1.1079999999999999,-1.046,-0.9840000000000001,-0.861,-0.738,-0.614,-0.49200000000000005,-0.409,-0.34700000000000003,-0.306,-0.266,-0.225,-0.184,-0.163,-0.142,-0.10099999999999999,-0.081,-0.039,-0.019,0.002,0.042,0.063,0.083,0.10400000000000001,0.10400000000000001,0.10400000000000001,0.10400000000000001,0.125,0.125,0.125,0.125,0.125,0.125,0.125,0.125,0.125,0.125,0.125,0.125,0.125,0.125,0.125,0.125,0.125,0.125,0.125,0.125,0.125,0.125,0.125,0.125,0.125,0.125,0.125,0.125,0.125,0.125,0.125,0.125,0.125,0.125,0.125,0.10400000000000001,0.125,0.125,0.125,0.125,0.125,0.125,0.125,0.10400000000000001,0.125,0.125,0.125,0.125,0.125,0.125,0.125,0.125,0.125,0.125,0.125,0.125,0.125,0.125,0.125,0.125,0.145,0.145,0.145,0.145,0.145,0.145,0.145,0.145,0.145,0.145,0.145,0.145,0.145,0.145,0.166,0.145,0.145,0.145,0.145,0.166,0.166,0.166,0.166,0.166,0.166,0.166,0.166,0.166,0.166,0.166,0.166,0.166,0.166,0.166,0.145,0.145,0.145,0.145,0.145,0.145,0.125,0.125,0.125,0.125,0.125,0.10400000000000001,0.10400000000000001,0.10400000000000001,0.10400000000000001,0.10400000000000001,0.10400000000000001,0.10400000000000001,0.083,0.083,0.083,0.083,0.083,0.063,0.063,0.063,0.063,0.042,0.042,0.042,0.042,0.042,0.042,0.042,0.042,0.022000000000000002,0.022000000000000002,0.022000000000000002,0.022000000000000002,0.022000000000000002,0.002,0.022000000000000002,0.002,0.022000000000000002,0.002,0.002,0.002,0.002,0.002,0.002,0.002,0.002,0.002,0.002,0.002,0.002,0.002,0.002,0.002,0.002,0.002,0.002,0.002,0.002,0.002,0.002,0.002,0.002,0.002,0.002,0.002,0.002,0.002,0.002,0.002,0.002,0.002,0.002,0.002,0.002,0.002,0.002,0.002,0.022000000000000002,0.022000000000000002,0.022000000000000002,0.022000000000000002,0.022000000000000002,0.022000000000000002,0.022000000000000002,0.002,0.022000000000000002,0.022000000000000002,0.022000000000000002,0.022000000000000002,0.022000000000000002,0.022000000000000002,0.022000000000000002,0.022000000000000002,0.022000000000000002,0.022000000000000002,0.022000000000000002,0.022000000000000002,0.022000000000000002,0.022000000000000002,0.022000000000000002,0.022000000000000002,0.022000000000000002,0.022000000000000002,0.022000000000000002,0.002,0.002,0.002,0.022000000000000002,0.002,0.002,0.002,0.002,0.002,0.002,0.002,0.002,0.002,0.002,0.002,0.002,0.002,0.002,0.002,0.002,-0.019,-0.019,-0.019,-0.039,-0.039,-0.039,-0.039,-0.039,-0.039,-0.039,-0.039,-0.039,-0.039,-0.039,-0.039,-0.019,-0.019,-0.019,-0.019,-0.019,-0.019,-0.019,-0.039,-0.039,-0.039,-0.039,-0.06,-0.06,-0.06,-0.06,-0.039,-0.039,-0.019,0.002,0.002,0.002,0.002,0.002,0.002,0.002,0.002,0.002,0.002,0.002,0.002,0.002,0.002,0.002,0.002,0.002,0.002,0.002,0.002,0.002,0.002,0.002,0.002,0.002,0.002,0.002,0.002,0.022000000000000002,0.042,0.083,0.10400000000000001,0.10400000000000001,0.125,0.125,0.10400000000000001,0.063,0.022000000000000002,-0.019,-0.081,-0.204,-0.327,-0.47100000000000003,-0.635,-0.779,-0.902,-1.005,-1.0659999999999998,-1.1079999999999999,-1.128,-1.128,-1.1079999999999999,-1.046,-1.005,-0.902,-0.8,-0.655,-0.5329999999999999,-0.43,-0.368,-0.306,-0.266,-0.225,-0.184,-0.163,-0.122,-0.10099999999999999,-0.10099999999999999,-0.06,-0.019,0.002,0.022000000000000002,0.042,0.083,0.10400000000000001,0.10400000000000001,0.10400000000000001,0.10400000000000001,0.10400000000000001,0.125,0.125,0.125,0.125,0.125,0.125,0.125,0.125,0.125,0.125,0.125,0.125,0.125,0.125,0.125,0.125,0.125,0.125,0.125,0.125,0.10400000000000001,0.125,0.125,0.10400000000000001,0.125,0.125,0.125,0.125,0.125,0.125,0.10400000000000001,0.10400000000000001,0.125,0.125,0.125,0.125,0.10400000000000001,0.125,0.10400000000000001,0.10400000000000001,0.10400000000000001,0.10400000000000001,0.125,0.10400000000000001,0.10400000000000001,0.125,0.10400000000000001,0.10400000000000001,0.10400000000000001,0.10400000000000001,0.125,0.10400000000000001,0.10400000000000001,0.125,0.125,0.125,0.125,0.125,0.125,0.125,0.125,0.125,0.125,0.125,0.125,0.145,0.125,0.125,0.125,0.125,0.125,0.145,0.145,0.145,0.145,0.145,0.145,0.145,0.145,0.145,0.145,0.145,0.145,0.145,0.145,0.145,0.166,0.145,0.145,0.166,0.145,0.145,0.145,0.145,0.145,0.145,0.145,0.145,0.145,0.125,0.125,0.125,0.125,0.10400000000000001,0.10400000000000001,0.10400000000000001,0.10400000000000001,N
12,0.125,0.125,0.125,0.125,0.10400000000000001,0.10400000000000001,0.10400000000000001,0.10400000000000001,0.10400000000000001,0.10400000000000001,0.10400000000000001,0.083,0.083,0.083,0.083,0.063,0.063,0.063,0.063,0.063,0.042,0.042,0.042,0.042,0.042,0.042,0.042,0.042,0.042,0.042,0.042,0.042,0.022000000000000002,0.022000000000000002,0.022000000000000002,0.022000000000000002,0.022000000000000002,0.022000000000000002,0.022000000000000002,0.022000000000000002,0.022000000000000002,0.002,0.002,0.002,0.022000000000000002,0.002,0.002,0.002,0.002,0.002,0.002,0.002,0.022000000000000002,0.002,0.022000000000000002,0.002,0.002,0.002,0.002,0.002,0.002,0.002,0.002,0.022000000000000002,0.002,0.022000000000000002,0.022000000000000002,0.002,0.002,0.002,0.002,0.002,0.002,0.002,0.022000000000000002,0.022000000000000002,0.022000000000000002,0.022000000000000002,0.022000000000000002,0.022000000000000002,0.022000000000000002,0.022000000000000002,0.022000000000000002,0.022000000000000002,0.022000000000000002,0.022000000000000002,0.022000000000000002,0.002,0.002,0.022000000000000002,0.022000000000000002,0.002,0.022000000000000002,0.022000000000000002,0.002,0.022000000000000002,0.002,0.002,0.002,0.002,0.022000000000000002,0.002,0.002,0.002,0.002,0.002,0.002,0.002,0.002,0.002,0.002,0.002,0.002,0.002,0.002,0.002,0.002,0.002,0.002,0.002,0.002,0.002,0.002,0.002,-0.019,-0.039,-0.039,-0.039,-0.039,-0.039,-0.039,-0.039,-0.039,-0.039,-0.039,-0.039,-0.039,-0.019,-0.019,-0.019,-0.019,-0.019,-0.019,-0.019,-0.019,-0.019,-0.019,-0.039,-0.039,-0.039,-0.039,-0.06,-0.039,-0.039,-0.019,-0.019,0.002,0.002,0.002,0.002,0.002,0.002,0.002,0.002,0.002,0.002,0.002,0.002,0.002,0.002,0.002,0.002,0.002,0.002,0.002,0.002,0.002,0.002,0.002,0.002,0.002,0.002,0.002,0.022000000000000002,0.042,0.063,0.083,0.10400000000000001,0.125,0.125,0.10400000000000001,0.10400000000000001,0.042,0.002,-0.039,-0.122,-0.266,-0.389,-0.5529999999999999,-0.7170000000000001,-0.841,-0.963,-1.046,-1.1079999999999999,-1.1079999999999999,-1.149,-1.128,-1.1079999999999999,-1.046,-0.9840000000000001,-0.861,-0.738,-0.614,-0.49200000000000005,-0.409,-0.34700000000000003,-0.306,-0.266,-0.225,-0.184,-0.163,-0.142,-0.10099999999999999,-0.081,-0.039,-0.019,0.002,0.042,0.063,0.083,0.10400000000000001,0.10400000000000001,0.10400000000000001,0.10400000000000001,0.125,0.125,0.125,0.125,0.125,0.125,0.125,0.125,0.125,0.125,0.125,0.125,0.125,0.125,0.125,0.125,0.125,0.125,0.125,0.125,0.125,0.125,0.125,0.125,0.125,0.125,0.125,0.125,0.125,0.125,0.125,0.125,0.125,0.125,0.125,0.10400000000000001,0.125,0.125,0.125,0.125,0.125,0.125,0.125,0.10400000000000001,0.125,0.125,0.125,0.125,0.125,0.125,0.125,0.125,0.125,0.125,0.125,0.125,0.125,0.125,0.125,0.125,0.145,0.145,0.145,0.145,0.145,0.145,0.145,0.145,0.145,0.145,0.145,0.145,0.145,0.145,0.166,0.145,0.145,0.145,0.145,0.166,0.166,0.166,0.166,0.166,0.166,0.166,0.166,0.166,0.166,0.166,0.166,0.166,0.166,0.166,0.145,0.145,0.145,0.145,0.145,0.145,0.125,0.125,0.125,0.125,0.125,0.10400000000000001,0.10400000000000001,0.10400000000000001,0.10400000000000001,0.10400000000000001,0.10400000000000001,0.10400000000000001,0.083,0.083,0.083,0.083,0.083,0.063,0.063,0.063,0.063,0.042,0.042,0.042,0.042,0.042,0.042,0.042,0.042,0.022000000000000002,0.022000000000000002,0.022000000000000002,0.022000000000000002,0.022000000000000002,0.002,0.022000000000000002,0.002,0.022000000000000002,0.002,0.002,0.002,0.002,0.002,0.002,0.002,0.002,0.002,0.002,0.002,0.002,0.002,0.002,0.002,0.002,0.002,0.002,0.002,0.002,0.002,0.002,0.002,0.002,0.002,0.002,0.002,0.002,0.002,0.002,0.002,0.002,0.002,0.002,0.002,0.002,0.002,0.002,0.002,0.022000000000000002,0.022000000000000002,0.022000000000000002,0.022000000000000002,0.022000000000000002,0.022000000000000002,0.022000000000000002,0.002,0.022000000000000002,0.022000000000000002,0.022000000000000002,0.022000000000000002,0.022000000000000002,0.022000000000000002,0.022000000000000002,0.022000000000000002,0.022000000000000002,0.022000000000000002,0.022000000000000002,0.022000000000000002,0.022000000000000002,0.022000000000000002,0.022000000000000002,0.022000000000000002,0.022000000000000002,0.022000000000000002,0.022000000000000002,0.002,0.002,0.002,0.022000000000000002,0.002,0.002,0.002,0.002,0.002,0.002,0.002,0.002,0.002,0.002,0.002,0.002,0.002,0.002,0.002,0.002,-0.019,-0.019,-0.019,-0.039,-0.039,-0.039,-0.039,-0.039,-0.039,-0.039,-0.039,-0.039,-0.039,-0.039,-0.039,-0.019,-0.019,-0.019,-0.019,-0.019,-0.019,-0.019,-0.039,-0.039,-0.039,-0.039,-0.06,-0.06,-0.06,-0.06,-0.039,-0.039,-0.019,0.002,0.002,0.002,0.002,0.002,0.002,0.002,0.002,0.002,0.002,0.002,0.002,0.002,0.002,0.002,0.002,0.002,0.002,0.002,0.002,0.002,0.002,0.002,0.002,0.002,0.002,0.002,0.002,0.022000000000000002,0.042,0.083,0.10400000000000001,0.10400000000000001,0.125,0.125,0.10400000000000001,0.063,0.022000000000000002,-0.019,-0.081,-0.204,-0.327,-0.47100000000000003,-0.635,-0.779,-0.902,-1.005,-1.0659999999999998,-1.1079999999999999,-1.128,-1.128,-1.1079999999999999,-1.046,-1.005,-0.902,-0.8,-0.655,-0.5329999999999999,-0.43,-0.368,-0.306,-0.266,-0.225,-0.184,-0.163,-0.122,-0.10099999999999999,-0.10099999999999999,-0.06,-0.019,0.002,0.022000000000000002,0.042,0.083,0.10400000000000001,0.10400000000000001,0.10400000000000001,0.10400000000000001,0.10400000000000001,0.125,0.125,0.125,0.125,0.125,0.125,0.125,0.125,0.125,0.125,0.125,0.125,0.125,0.125,0.125,0.125,0.125,0.125,0.125,0.125,0.10400000000000001,0.125,0.125,0.10400000000000001,0.125,0.125,0.125,0.125,0.125,0.125,0.10400000000000001,0.10400000000000001,0.125,0.125,0.125,0.125,0.10400000000000001,0.125,0.10400000000000001,0.10400000000000001,0.10400000000000001,0.10400000000000001,0.125,0.10400000000000001,0.10400000000000001,0.125,0.10400000000000001,0.10400000000000001,0.10400000000000001,0.10400000000000001,0.125,0.10400000000000001,0.10400000000000001,0.125,0.125,0.125,0.125,0.125,0.125,0.125,0.125,0.125,0.125,0.125,0.125,0.145,0.125,0.125,0.125,0.125,0.125,0.145,0.145,0.145,0.145,0.145,0.145,0.145,0.145,0.145,0.145,0.145,0.145,0.145,0.145,0.145,0.166,0.145,0.145,0.166,0.145,0.145,0.145,0.145,0.145,0.145,0.145,0.145,0.145,0.125,0.125,0.125,0.125,0.10400000000000001,0.10400000000000001,0.10400000000000001,0.10400000000000001,0.10400000000000001,0.10400000000000001,0.10400000000000001,0.083,0.083,0.083,0.083,0.083,0.063,0.063,0.063,0.063,0.063,0.063,0.042,0.042,0.042,0.042,0.042,0.042,0.042,0.042,0.042,0.022000000000000002,0.022000000000000002,0.022000000000000002,0.022000000000000002,0.022000000000000002,0.022000000000000002,0.022000000000000002,0.022000000000000002,0.002,0.002,0.002,0.002,0.002,0.002,0.002,0.002,0.002,0.002,0.002,0.002,0.002,0.002,0.002,0.002,0.002,0.002,0.002,0.002,0.002,0.002,0.002,0.002,0.002,0.002,0.002,0.002,0.002,0.002,0.002,0.002,0.002,0.002,0.002,0.002,0.002,0.002,0.002,0.002,0.002,0.002,0.002,0.002,0.002,0.002,0.002,0.002,0.002,0.002,0.002,0.002,0.002,0.002,0.002,0.002,0.002,0.002,0.002,0.002,0.002,0.002,0.002,0.002,0.002,0.002,0.002,0.002,0.002,0.002,0.002,0.002,0.002,0.002,0.002,0.002,0.002,0.002,0.002,0.002,0.002,0.002,0.002,0.002,0.002,-0.019,-0.019,-0.019,-0.039,-0.039,-0.039,-0.039,-0.039,-0.06,-0.06,-0.039,-0.039,-0.039,-0.039,-0.039,-0.039,-0.019,-0.019,-0.019,-0.019,-0.019,-0.019,-0.019,-0.039,-0.039,-0.039,-0.039,-0.06,-0.06,-0.06,-0.06,-0.039,-0.039,-0.039,-0.019,0.002,0.002,0.002,0.002,0.002,0.002,0.002,0.002,0.002,0.002,0.002,0.002,0.002,0.002,0.002,0.002,0.002,0.002,0.002,0.002,0.002,0.002,0.002,0.002,0.002,0.002,0.002,0.022000000000000002,0.042,0.083,0.10400000000000001,0.125,0.125,0.125,0.10400000000000001,0.063,0.002,-0.039,-0.122,-0.245,-0.368,-0.5329999999999999,-0.6970000000000001,-0.82,-0.943,-1.046,-1.1079999999999999,-1.128,-1.149,-1.128,-1.1079999999999999,-1.046,-0.9840000000000001,-0.8809999999999999,-0.758,-0.635,-0.5329999999999999,-0.43,-0.34700000000000003,-0.306,-0.266,-0.204,-0.184,-0.163,-0.122,-0.10099999999999999,-0.081,-0.039,-0.019,0.002,0.022000000000000002,0.063,0.083,0.10400000000000001,0.10400000000000001,0.10400000000000001,0.10400000000000001,0.125,0.125,0.125,0.125,0.125,0.125,0.10400000000000001,0.10400000000000001,0.125,0.125,0.125,0.125,0.125,0.125,0.125,0.125,0.125,0.125,0.125,0.125,0.10400000000000001,0.125,0.125,0.10400000000000001,0.125,0.125,0.10400000000000001,0.10400000000000001,0.10400000000000001,0.10400000000000001,0.10400000000000001,0.10400000000000001,0.10400000000000001,0.10400000000000001,0.10400000000000001,0.10400000000000001,0.10400000000000001,0.10400000000000001,0.125,0.10400000000000001,0.10400000000000001,0.10400000000000001,0.10400000000000001,0.10400000000000001,0.10400000000000001,0.10400000000000001,0.10400000000000001,0.10400000000000001,0.10400000000000001,0.125,0.125,0.10400000000000001,0.10400000000000001,0.125,0.125,0.125,0.125,0.125,0.125,0.125,0.125,0.125,0.125,0.125,0.125,0.125,0.125,0.125,0.125,0.125,0.125,0.145,0.145,0.145,0.145,0.145,0.145,0.145,0.145,0.145,0.145,0.166,0.145,0.145,0.145,0.145,0.145,0.145,0.145,0.145,0.145,0.145,0.166,0.145,0.145,N
13,0.125,0.10400000000000001,0.10400000000000001,0.10400000000000001,0.10400000000000001,0.10400000000000001,0.10400000000000001,0.10400000000000001,0.083,0.083,0.083,0.083,0.083,0.063,0.063,0.063,0.063,0.042,0.042,0.042,0.042,0.042,0.042,0.042,0.042,0.022000000000000002,0.022000000000000002,0.022000000000000002,0.022000000000000002,0.022000000000000002,0.002,0.022000000000000002,0.002,0.022000000000000002,0.002,0.002,0.002,0.002,0.002,0.002,0.002,0.002,0.002,0.002,0.002,0.002,0.002,0.002,0.002,0.002,0.002,0.002,0.002,0.002,0.002,0.002,0.002,0.002,0.002,0.002,0.002,0.002,0.002,0.002,0.002,0.002,0.002,0.002,0.002,0.002,0.002,0.002,0.002,0.022000000000000002,0.022000000000000002,0.022000000000000002,0.022000000000000002,0.022000000000000002,0.022000000000000002,0.022000000000000002,0.002,0.022000000000000002,0.022000000000000002,0.022000000000000002,0.022000000000000002,0.022000000000000002,0.022000000000000002,0.022000000000000002,0.022000000000000002,0.022000000000000002,0.022000000000000002,0.022000000000000002,0.022000000000000002,0.022000000000000002,0.022000000000000002,0.022000000000000002,0.022000000000000002,0.022000000000000002,0.022000000000000002,0.022000000000000002,0.002,0.002,0.002,0.022000000000000002,0.002,0.002,0.002,0.002,0.002,0.002,0.002,0.002,0.002,0.002,0.002,0.002,0.002,0.002,0.002,0.002,-0.019,-0.019,-0.019,-0.039,-0.039,-0.039,-0.039,-0.039,-0.039,-0.039,-0.039,-0.039,-0.039,-0.039,-0.039,-0.019,-0.019,-0.019,-0.019,-0.019,-0.019,-0.019,-0.039,-0.039,-0.039,-0.039,-0.06,-0.06,-0.06,-0.06,-0.039,-0.039,-0.019,0.002,0.002,0.002,0.002,0.002,0.002,0.002,0.002,0.002,0.002,0.002,0.002,0.002,0.002,0.002,0.002,0.002,0.002,0.002,0.002,0.002,0.002,0.002,0.002,0.002,0.002,0.002,0.002,0.022000000000000002,0.042,0.083,0.10400000000000001,0.10400000000000001,0.125,0.125,0.10400000000000001,0.063,0.022000000000000002,-0.019,-0.081,-0.204,-0.327,-0.47100000000000003,-0.635,-0.779,-0.902,-1.005,-1.0659999999999998,-1.1079999999999999,-1.128,-1.128,-1.1079999999999999,-1.046,-1.005,-0.902,-0.8,-0.655,-0.5329999999999999,-0.43,-0.368,-0.306,-0.266,-0.225,-0.184,-0.163,-0.122,-0.10099999999999999,-0.10099999999999999,-0.06,-0.019,0.002,0.022000000000000002,0.042,0.083,0.10400000000000001,0.10400000000000001,0.10400000000000001,0.10400000000000001,0.10400000000000001,0.125,0.125,0.125,0.125,0.125,0.125,0.125,0.125,0.125,0.125,0.125,0.125,0.125,0.125,0.125,0.125,0.125,0.125,0.125,0.125,0.10400000000000001,0.125,0.125,0.10400000000000001,0.125,0.125,0.125,0.125,0.125,0.125,0.10400000000000001,0.10400000000000001,0.125,0.125,0.125,0.125,0.10400000000000001,0.125,0.10400000000000001,0.10400000000000001,0.10400000000000001,0.10400000000000001,0.125,0.10400000000000001,0.10400000000000001,0.125,0.10400000000000001,0.10400000000000001,0.10400000000000001,0.10400000000000001,0.125,0.10400000000000001,0.10400000000000001,0.125,0.125,0.125,0.125,0.125,0.125,0.125,0.125,0.125,0.125,0.125,0.125,0.145,0.125,0.125,0.125,0.125,0.125,0.145,0.145,0.145,0.145,0.145,0.145,0.145,0.145,0.145,0.145,0.145,0.145,0.145,0.145,0.145,0.166,0.145,0.145,0.166,0.145,0.145,0.145,0.145,0.145,0.145,0.145,0.145,0.145,0.125,0.125,0.125,0.125,0.10400000000000001,0.10400000000000001,0.10400000000000001,0.10400000000000001,0.10400000000000001,0.10400000000000001,0.10400000000000001,0.083,0.083,0.083,0.083,0.083,0.063,0.063,0.063,0.063,0.063,0.063,0.042,0.042,0.042,0.042,0.042,0.042,0.042,0.042,0.042,0.022000000000000002,0.022000000000000002,0.022000000000000002,0.022000000000000002,0.022000000000000002,0.022000000000000002,0.022000000000000002,0.022000000000000002,0.002,0.002,0.002,0.002,0.002,0.002,0.002,0.002,0.002,0.002,0.002,0.002,0.002,0.002,0.002,0.002,0.002,0.002,0.002,0.002,0.002,0.002,0.002,0.002,0.002,0.002,0.002,0.002,0.002,0.002,0.002,0.002,0.002,0.002,0.002,0.002,0.002,0.002,0.002,0.002,0.002,0.002,0.002,0.002,0.002,0.002,0.002,0.002,0.002,0.002,0.002,0.002,0.002,0.002,0.002,0.002,0.002,0.002,0.002,0.002,0.002,0.002,0.002,0.002,0.002,0.002,0.002,0.002,0.002,0.002,0.002,0.002,0.002,0.002,0.002,0.002,0.002,0.002,0.002,0.002,0.002,0.002,0.002,0.002,0.002,-0.019,-0.019,-0.019,-0.039,-0.039,-0.039,-0.039,-0.039,-0.06,-0.06,-0.039,-0.039,-0.039,-0.039,-0.039,-0.039,-0.019,-0.019,-0.019,-0.019,-0.019,-0.019,-0.019,-0.039,-0.039,-0.039,-0.039,-0.06,-0.06,-0.06,-0.06,-0.039,-0.039,-0.039,-0.019,0.002,0.002,0.002,0.002,0.002,0.002,0.002,0.002,0.002,0.002,0.002,0.002,0.002,0.002,0.002,0.002,0.002,0.002,0.002,0.002,0.002,0.002,0.002,0.002,0.002,0.002,0.002,0.022000000000000002,0.042,0.083,0.10400000000000001,0.125,0.125,0.125,0.10400000000000001,0.063,0.002,-0.039,-0.122,-0.245,-0.368,-0.5329999999999999,-0.6970000000000001,-0.82,-0.943,-1.046,-1.1079999999999999,-1.128,-1.149,-1.128,-1.1079999999999999,-1.046,-0.9840000000000001,-0.8809999999999999,-0.758,-0.635,-0.5329999999999999,-0.43,-0.34700000000000003,-0.306,-0.266,-0.204,-0.184,-0.163,-0.122,-0.10099999999999999,-0.081,-0.039,-0.019,0.002,0.022000000000000002,0.063,0.083,0.10400000000000001,0.10400000000000001,0.10400000000000001,0.10400000000000001,0.125,0.125,0.125,0.125,0.125,0.125,0.10400000000000001,0.10400000000000001,0.125,0.125,0.125,0.125,0.125,0.125,0.125,0.125,0.125,0.125,0.125,0.125,0.10400000000000001,0.125,0.125,0.10400000000000001,0.125,0.125,0.10400000000000001,0.10400000000000001,0.10400000000000001,0.10400000000000001,0.10400000000000001,0.10400000000000001,0.10400000000000001,0.10400000000000001,0.10400000000000001,0.10400000000000001,0.10400000000000001,0.10400000000000001,0.125,0.10400000000000001,0.10400000000000001,0.10400000000000001,0.10400000000000001,0.10400000000000001,0.10400000000000001,0.10400000000000001,0.10400000000000001,0.10400000000000001,0.10400000000000001,0.125,0.125,0.10400000000000001,0.10400000000000001,0.125,0.125,0.125,0.125,0.125,0.125,0.125,0.125,0.125,0.125,0.125,0.125,0.125,0.125,0.125,0.125,0.125,0.125,0.145,0.145,0.145,0.145,0.145,0.145,0.145,0.145,0.145,0.145,0.166,0.145,0.145,0.145,0.145,0.145,0.145,0.145,0.145,0.145,0.145,0.166,0.145,0.145,0.145,0.145,0.145,0.145,0.145,0.125,0.125,0.125,0.10400000000000001,0.10400000000000001,0.10400000000000001,0.10400000000000001,0.10400000000000001,0.10400000000000001,0.10400000000000001,0.10400000000000001,0.10400000000000001,0.10400000000000001,0.083,0.083,0.083,0.063,0.063,0.042,0.042,0.063,0.042,0.063,0.063,0.063,0.042,0.042,0.042,0.042,0.042,0.042,0.042,0.022000000000000002,0.022000000000000002,0.022000000000000002,0.022000000000000002,0.022000000000000002,0.022000000000000002,0.022000000000000002,0.022000000000000002,0.002,0.002,0.002,0.002,0.002,0.002,0.002,0.002,0.002,0.002,0.002,0.002,0.002,0.002,0.002,0.002,0.002,0.002,0.002,0.002,0.002,0.002,0.002,0.002,0.002,0.002,0.002,0.002,0.002,0.002,0.002,0.002,0.002,0.002,0.002,0.002,0.002,0.002,0.002,0.002,0.002,0.002,0.002,0.002,0.002,0.002,0.002,0.002,0.002,0.002,0.002,0.002,0.002,0.002,0.002,0.002,0.002,0.002,0.002,0.002,0.002,0.002,0.002,0.002,0.002,0.002,0.002,0.002,0.002,0.002,0.002,0.002,0.002,0.002,0.002,0.002,0.002,0.002,0.002,0.002,0.002,0.002,-0.019,-0.019,-0.019,-0.019,-0.039,-0.039,-0.039,-0.039,-0.039,-0.039,-0.039,-0.039,-0.039,-0.039,-0.039,-0.019,-0.019,-0.019,-0.019,-0.019,-0.019,-0.019,-0.019,-0.019,-0.019,-0.039,-0.039,-0.039,-0.039,-0.06,-0.06,-0.039,-0.039,-0.019,0.002,0.002,0.002,0.002,0.002,0.002,0.002,0.002,0.002,0.002,0.002,0.002,0.002,0.002,0.002,0.002,0.002,0.002,0.002,0.002,0.002,0.002,0.002,0.002,0.002,0.002,0.002,0.022000000000000002,0.042,0.042,0.083,0.10400000000000001,0.125,0.145,0.145,0.125,0.083,0.042,0.002,-0.06,-0.163,-0.287,-0.43,-0.594,-0.758,-0.902,-1.025,-1.1079999999999999,-1.149,-1.189,-1.21,-1.189,-1.149,-1.087,-0.9840000000000001,-0.8809999999999999,-0.758,-0.614,-0.512,-0.409,-0.34700000000000003,-0.287,-0.245,-0.204,-0.163,-0.142,-0.10099999999999999,-0.081,-0.039,-0.019,0.002,0.022000000000000002,0.042,0.063,0.10400000000000001,0.10400000000000001,0.125,0.125,0.125,0.125,0.125,0.125,0.125,0.125,0.125,0.125,0.125,0.125,0.145,0.125,0.125,0.125,0.145,0.145,0.145,0.145,0.145,0.145,0.125,0.125,0.125,0.125,0.125,0.125,0.125,0.125,0.125,0.125,0.125,0.125,0.125,0.125,0.125,0.125,0.125,0.125,0.125,0.125,0.125,0.125,0.125,0.125,0.125,0.125,0.125,0.125,0.125,0.125,0.125,0.125,0.125,0.125,0.125,0.125,0.125,0.125,0.145,0.125,0.145,0.145,0.145,0.125,0.125,0.145,0.145,0.145,0.145,0.145,0.145,0.145,0.145,0.145,0.166,0.145,0.145,0.145,0.166,0.166,0.166,0.166,0.166,0.166,0.166,0.166,0.166,0.166,0.166,0.166,0.166,0.166,0.166,0.145,0.166,0.166,0.166,0.145,0.145,N
