0,-0.182,-0.185,-0.187,-0.184,-0.18100000000000002,-0.174,-0.166,-0.156,-0.146,-0.135,-0.124,-0.113,-0.10099999999999999,-0.092,-0.083,-0.076,-0.069,-0.063,-0.055999999999999994,-0.051,-0.047,-0.044000000000000004,-0.040999999999999995,-0.04,-0.04,-0.040999999999999995,-0.042,-0.043,-0.045,-0.047,-0.049,-0.05,-0.05,-0.05,-0.049,-0.047,-0.044000000000000004,-0.040999999999999995,-0.038,-0.035,-0.032,-0.03,-0.027000000000000003,-0.026000000000000002,-0.025,-0.025,-0.024,-0.023,-0.022000000000000002,-0.021,-0.02,-0.019,-0.018000000000000002,-0.018000000000000002,-0.017,-0.016,-0.013999999999999999,-0.013999999999999999,-0.013999999999999999,-0.013999999999999999,-0.013999999999999999,-0.013999999999999999,-0.013999999999999999,-0.013999999999999999,-0.013000000000000001,-0.011000000000000001,-0.008,-0.005,-0.001,0.002,0.005,0.008,0.01,0.011000000000000001,0.013000000000000001,0.013000000000000001,0.012,0.011000000000000001,0.01,0.009000000000000001,0.008,0.008,0.006999999999999999,0.006,0.005,0.004,0.003,0.004,0.005,0.008,0.01,0.013000000000000001,0.015,0.018000000000000002,0.021,0.024,0.027000000000000003,0.028999999999999998,0.031,0.031,0.031,0.027999999999999997,0.026000000000000002,0.023,0.021,0.017,0.013000000000000001,0.01,0.008,0.006,0.004,0.003,0.002,0.002,0.002,0.002,0.002,0.002,0.001,-0.002,-0.004,-0.006,-0.009000000000000001,-0.011000000000000001,-0.013000000000000001,-0.015,-0.017,-0.018000000000000002,-0.02,-0.021,-0.021,-0.021,-0.021,-0.021,-0.02,-0.018000000000000002,-0.016,-0.013999999999999999,-0.011000000000000001,-0.006999999999999999,-0.002,0.003,0.008,0.011000000000000001,0.013999999999999999,0.016,0.017,0.016,0.016,0.015,0.013999999999999999,0.013999999999999999,0.013000000000000001,0.013999999999999999,0.013999999999999999,0.015,0.016,0.016,0.017,0.017,0.017,0.017,0.018000000000000002,0.019,0.021,0.023,0.025,0.027000000000000003,0.03,0.032,0.034,0.037000000000000005,0.04,0.042,0.043,0.046,0.048,0.051,0.053,0.055999999999999994,0.059000000000000004,0.061,0.063,0.063,0.064,0.063,0.063,0.06,0.057,0.053,0.048,0.044000000000000004,0.04,0.036000000000000004,0.033,0.032,0.031,0.032,0.034,0.036000000000000004,0.039,0.040999999999999995,0.043,0.043,0.043,0.043,0.042,0.04,0.037000000000000005,0.035,0.033,0.031,0.028999999999999998,0.027999999999999997,0.027000000000000003,0.027999999999999997,0.027999999999999997,0.028999999999999998,0.031,0.031,0.031,0.03,0.03,0.028999999999999998,0.027999999999999997,0.027999999999999997,0.027999999999999997,0.03,0.032,0.036000000000000004,0.04,0.045,0.05,0.055,0.06,0.065,0.069,0.07400000000000001,0.079,0.08199999999999999,0.086,0.08900000000000001,0.092,0.09300000000000001,0.095,0.095,0.096,0.098,0.10099999999999999,0.10300000000000001,0.106,0.10800000000000001,0.109,0.109,0.10800000000000001,0.106,0.105,0.102,0.1,0.098,0.09699999999999999,0.098,0.098,0.1,0.102,0.10300000000000001,0.105,0.10400000000000001,0.10400000000000001,0.102,0.1,0.098,0.095,0.092,0.08800000000000001,0.084,0.079,0.076,0.07200000000000001,0.068,0.064,0.057,0.05,0.040999999999999995,0.032,0.022000000000000002,0.012,0.003,-0.006,-0.012,-0.018000000000000002,-0.02,-0.022000000000000002,-0.021,-0.02,-0.018000000000000002,-0.016,-0.016,-0.015,-0.016,-0.017,-0.018000000000000002,-0.02,-0.021,-0.022000000000000002,-0.021,-0.019,-0.017,-0.013999999999999999,-0.013999999999999999,-0.013999999999999999,-0.016,-0.018000000000000002,-0.021,-0.023,-0.022000000000000002,-0.021,-0.013999999999999999,-0.006,0.012,0.031,0.057999999999999996,0.086,0.121,0.156,0.192,0.228,0.262,0.295,0.319,0.342,0.35100000000000003,0.359,0.349,0.33899999999999997,0.312,0.285,0.245,0.205,0.163,0.121,0.083,0.045,0.013999999999999999,-0.016,-0.042,-0.067,-0.08800000000000001,-0.10800000000000001,-0.12300000000000001,-0.13699999999999998,-0.147,-0.156,-0.16,-0.163,-0.162,-0.162,-0.158,-0.155,-0.15,-0.146,-0.14,-0.134,-0.127,-0.12,-0.111,-0.10300000000000001,-0.096,-0.08800000000000001,-0.08199999999999999,-0.076,-0.07,-0.064,-0.059000000000000004,-0.055,-0.052000000000000005,-0.049,-0.047,-0.045,-0.045,-0.045,-0.047,-0.048,-0.049,-0.05,-0.05,-0.05,-0.048,-0.046,-0.042,-0.038,-0.034,-0.03,-0.026000000000000002,-0.023,-0.019,-0.016,-0.013000000000000001,-0.011000000000000001,-0.01,-0.008,-0.009000000000000001,-0.009000000000000001,-0.011000000000000001,-0.012,-0.013000000000000001,-0.013000000000000001,-0.013000000000000001,-0.012,-0.011000000000000001,-0.01,-0.008,-0.005,-0.003,-0.002,0.001,0.003,0.006,0.008,0.01,0.011000000000000001,0.011000000000000001,0.011000000000000001,0.009000000000000001,0.008,0.006,0.005,0.005,0.005,0.006999999999999999,0.009000000000000001,0.012,0.013999999999999999,0.018000000000000002,0.021,0.023,0.024,0.025,0.025,0.025,0.024,0.023,0.021,0.019,0.018000000000000002,0.017,0.017,0.019,0.021,0.023,0.024,0.025,0.025,0.024,0.024,0.021,0.019,0.018000000000000002,0.018000000000000002,0.018000000000000002,0.019,0.021,0.023,0.024,0.024,0.024,0.024,0.021,0.019,0.016,0.012,0.008,0.004,0.001,-0.002,-0.004,-0.006,-0.008,-0.01,-0.01,-0.011000000000000001,-0.01,-0.008,-0.006999999999999999,-0.006,-0.006,-0.005,-0.006,-0.006999999999999999,-0.01,-0.012,-0.015,-0.018000000000000002,-0.018000000000000002,-0.019,-0.018000000000000002,-0.016,-0.011000000000000001,-0.006999999999999999,-0.002,0.004,0.009000000000000001,0.013999999999999999,0.016,0.019,0.02,0.021,0.021,0.022000000000000002,0.024,0.025,0.027000000000000003,0.028999999999999998,0.031,0.034,0.035,0.037000000000000005,0.038,0.039,0.039,0.039,0.037000000000000005,0.036000000000000004,0.035,0.035,0.037000000000000005,0.039,0.043,0.047,0.051,0.055,0.057999999999999996,0.06,0.06,0.06,0.055,0.05,0.044000000000000004,0.037000000000000005,0.031,0.025,0.022000000000000002,0.019,0.019,0.02,0.023,0.026000000000000002,0.031,0.035,0.039,0.043,0.045,0.047,0.047,0.047,0.046,0.044000000000000004,0.043,0.042,0.040999999999999995,0.04,0.039,0.038,0.034,0.031,0.026000000000000002,0.022000000000000002,0.021,0.019,0.02,0.021,0.023,0.026000000000000002,0.031,0.035,N,,,,,,,,,,,,,,,,,,,,,,,,,,,,,,,,,,,,,,,,,,,,,,,,,,,,,,,,,,,,,,,,,,,,,,,,,,,,,,,,,,,,,,,,,,,,,,,,,,,,,,,,,,,,,,,,,,,,,,,,,,,,,,,,,,,,,,,,,,,,,,,,,,,,,,,,,,,,,,,,,,,,,,,,,,,,,,,,,,,,,,,,,,,,,,,,,,,,,,,,,,,,,,,,,,,,,,,,,,,,,,,,,,,,,,,,,,,,,,,,,,,,,,,,,,,,,,,,,,,,,,,,,,,,,,,,,,,,,,,,,,,,,,,,,,,,,,,,,,,,,,,,,,,,,,,,,,,,,,,,,,,,,,,,,,,,,,,,,,,,,,,,,,,,,,,,,,,,,,,,,,,,,,,,,,,,,,,,,,,,,,,,,,,,,,,,,,,,,,,,,,,,,,,,,,,,,,,,,,,,,,,,,
1,-0.17300000000000001,-0.171,-0.16899999999999998,-0.16399999999999998,-0.159,-0.15,-0.142,-0.132,-0.122,-0.113,-0.105,-0.09699999999999999,-0.08900000000000001,-0.08199999999999999,-0.076,-0.07,-0.064,-0.059000000000000004,-0.054000000000000006,-0.05,-0.045,-0.042,-0.039,-0.037000000000000005,-0.035,-0.034,-0.034,-0.034,-0.034,-0.035,-0.037000000000000005,-0.038,-0.039,-0.039,-0.04,-0.04,-0.04,-0.039,-0.038,-0.037000000000000005,-0.037000000000000005,-0.036000000000000004,-0.036000000000000004,-0.034,-0.033,-0.032,-0.031,-0.028999999999999998,-0.027000000000000003,-0.024,-0.021,-0.019,-0.016,-0.013000000000000001,-0.009000000000000001,-0.006,-0.003,-0.001,0.001,0.002,0.002,0.002,0.001,0.002,0.002,0.004,0.005,0.006999999999999999,0.008,0.008,0.008,0.008,0.008,0.009000000000000001,0.009000000000000001,0.011000000000000001,0.012,0.013999999999999999,0.016,0.017,0.018000000000000002,0.018000000000000002,0.018000000000000002,0.018000000000000002,0.018000000000000002,0.017,0.017,0.017,0.017,0.016,0.016,0.016,0.015,0.015,0.015,0.017,0.018000000000000002,0.02,0.021,0.022000000000000002,0.023,0.022000000000000002,0.021,0.018000000000000002,0.016,0.013000000000000001,0.011000000000000001,0.008,0.006,0.004,0.002,0.002,0.001,0.002,0.002,0.004,0.005,0.006,0.008,0.006,0.005,0.003,0.0,-0.003,-0.006,-0.009000000000000001,-0.012,-0.013000000000000001,-0.013999999999999999,-0.013999999999999999,-0.013999999999999999,-0.013000000000000001,-0.012,-0.011000000000000001,-0.011000000000000001,-0.009000000000000001,-0.008,-0.006,-0.005,-0.004,-0.002,-0.001,0.0,0.002,0.004,0.006,0.008,0.008,0.009000000000000001,0.01,0.011000000000000001,0.013000000000000001,0.015,0.018000000000000002,0.021,0.023,0.026000000000000002,0.028999999999999998,0.031,0.033,0.034,0.035,0.036000000000000004,0.036000000000000004,0.037000000000000005,0.037000000000000005,0.038,0.039,0.04,0.039,0.039,0.039,0.04,0.040999999999999995,0.042,0.043,0.045,0.046,0.047,0.047,0.047,0.047,0.047,0.047,0.047,0.045,0.044000000000000004,0.042,0.04,0.037000000000000005,0.034,0.031,0.027000000000000003,0.026000000000000002,0.024,0.023,0.022000000000000002,0.022000000000000002,0.022000000000000002,0.023,0.024,0.026000000000000002,0.027000000000000003,0.028999999999999998,0.031,0.031,0.031,0.031,0.031,0.03,0.03,0.03,0.031,0.031,0.031,0.032,0.034,0.035,0.037000000000000005,0.038,0.039,0.039,0.04,0.039,0.038,0.037000000000000005,0.035,0.032,0.03,0.027999999999999997,0.027000000000000003,0.028999999999999998,0.031,0.036000000000000004,0.040999999999999995,0.047,0.053,0.059000000000000004,0.066,0.071,0.076,0.079,0.08199999999999999,0.085,0.08800000000000001,0.091,0.094,0.098,0.10099999999999999,0.105,0.109,0.11,0.111,0.109,0.10800000000000001,0.10300000000000001,0.099,0.095,0.09,0.087,0.084,0.084,0.083,0.085,0.087,0.09,0.092,0.09300000000000001,0.09300000000000001,0.091,0.08800000000000001,0.085,0.08199999999999999,0.077,0.07200000000000001,0.067,0.062,0.055999999999999994,0.051,0.046,0.04,0.034,0.027000000000000003,0.019,0.01,0.002,-0.006,-0.013000000000000001,-0.019,-0.023,-0.027000000000000003,-0.028999999999999998,-0.031,-0.033,-0.034,-0.035,-0.035,-0.035,-0.036000000000000004,-0.037000000000000005,-0.037000000000000005,-0.038,-0.038,-0.038,-0.037000000000000005,-0.037000000000000005,-0.037000000000000005,-0.037000000000000005,-0.037000000000000005,-0.036000000000000004,-0.035,-0.033,-0.031,-0.027999999999999997,-0.025,-0.019,-0.013000000000000001,-0.002,0.009000000000000001,0.026000000000000002,0.043,0.069,0.094,0.125,0.156,0.18899999999999997,0.223,0.253,0.284,0.305,0.326,0.33299999999999996,0.33899999999999997,0.32899999999999996,0.319,0.29100000000000004,0.262,0.223,0.183,0.141,0.098,0.061,0.024,-0.006,-0.036000000000000004,-0.059000000000000004,-0.083,-0.10300000000000001,-0.12300000000000001,-0.138,-0.154,-0.166,-0.177,-0.182,-0.188,-0.187,-0.18600000000000003,-0.18100000000000002,-0.175,-0.166,-0.157,-0.146,-0.136,-0.125,-0.114,-0.105,-0.095,-0.08800000000000001,-0.081,-0.075,-0.069,-0.065,-0.061,-0.059000000000000004,-0.057,-0.055999999999999994,-0.055999999999999994,-0.055999999999999994,-0.055999999999999994,-0.055999999999999994,-0.055999999999999994,-0.055,-0.054000000000000006,-0.052000000000000005,-0.05,-0.047,-0.044000000000000004,-0.042,-0.039,-0.037000000000000005,-0.036000000000000004,-0.036000000000000004,-0.036000000000000004,-0.036000000000000004,-0.037000000000000005,-0.036000000000000004,-0.036000000000000004,-0.034,-0.033,-0.032,-0.031,-0.028999999999999998,-0.027000000000000003,-0.024,-0.022000000000000002,-0.021,-0.019,-0.018000000000000002,-0.017,-0.016,-0.016,-0.015,-0.013999999999999999,-0.013999999999999999,-0.013000000000000001,-0.012,-0.011000000000000001,-0.01,-0.008,-0.006,-0.005,-0.002,0.0,0.002,0.004,0.006,0.008,0.008,0.008,0.009000000000000001,0.009000000000000001,0.01,0.011000000000000001,0.013000000000000001,0.013999999999999999,0.016,0.018000000000000002,0.018000000000000002,0.019,0.019,0.02,0.019,0.019,0.019,0.019,0.019,0.019,0.019,0.02,0.021,0.021,0.022000000000000002,0.022000000000000002,0.022000000000000002,0.021,0.02,0.018000000000000002,0.016,0.013999999999999999,0.012,0.01,0.009000000000000001,0.008,0.006,0.005,0.005,0.005,0.005,0.005,0.005,0.005,0.003,0.002,-0.001,-0.004,-0.006,-0.008,-0.009000000000000001,-0.009000000000000001,-0.009000000000000001,-0.009000000000000001,-0.008,-0.008,-0.006999999999999999,-0.006,-0.006,-0.005,-0.005,-0.005,-0.005,-0.005,-0.004,-0.003,-0.002,0.0,0.001,0.002,0.003,0.003,0.003,0.003,0.004,0.005,0.006999999999999999,0.009000000000000001,0.011000000000000001,0.012,0.013999999999999999,0.017,0.019,0.021,0.022000000000000002,0.024,0.026000000000000002,0.027999999999999997,0.031,0.034,0.035,0.037000000000000005,0.039,0.040999999999999995,0.042,0.042,0.042,0.040999999999999995,0.04,0.038,0.035,0.032,0.028999999999999998,0.027000000000000003,0.026000000000000002,0.024,0.025,0.026000000000000002,0.027999999999999997,0.031,0.032,0.034,0.034,0.034,0.035,0.036000000000000004,0.035,0.035,0.034,0.034,0.033,0.032,0.031,0.031,0.028999999999999998,0.027000000000000003,0.027999999999999997,0.027999999999999997,0.028999999999999998,0.031,0.031,0.031,0.032,0.033,0.033,0.034,0.033,0.032,0.03,0.027000000000000003,0.024,0.021,0.02,0.019,0.019,0.019,0.019,0.019,0.019,0.02,0.021,0.021,0.022000000000000002,0.022000000000000002,0.022000000000000002,0.022000000000000002,0.023,0.023,0.024,0.026000000000000002,0.03,0.034,0.04,0.047,0.055,0.063,0.069,0.076,0.081,0.085,0.08800000000000001,0.091,0.09300000000000001,0.095,0.09699999999999999,0.099,0.10099999999999999,0.10400000000000001,0.106,0.10800000000000001,0.10800000000000001,0.10800000000000001,0.10300000000000001,0.099,0.095,0.09,0.086,0.08199999999999999,0.08,0.077,0.077,0.076,0.079,0.081,0.084,0.087,0.08800000000000001,0.08800000000000001,0.087,0.085,0.08,0.076,0.071,0.065,0.059000000000000004,0.053,0.047,0.040999999999999995,0.034,0.027000000000000003,0.018000000000000002,0.01,0.002,-0.005,-0.011000000000000001,-0.017,-0.02,-0.024,-0.025,-0.026000000000000002,-0.026000000000000002,-0.026000000000000002,-0.026000000000000002,-0.027000000000000003,-0.027999999999999997,-0.03,-0.031,-0.032,-0.033,-0.034,-0.034,-0.034,-0.034,-0.033,-0.032,-0.031,-0.031,-0.03,-0.027999999999999997,-0.027000000000000003,-0.024,-0.021,-0.013999999999999999,-0.008,0.002,0.011000000000000001,0.027000000000000003,0.042,0.065,0.08800000000000001,0.11699999999999999,0.146,0.18,0.213,0.244,0.275,0.299,0.322,0.33,0.33799999999999997,0.327,0.317,0.28800000000000003,0.259,0.21899999999999997,0.179,0.136,0.092,0.053,0.013999999999999999,-0.017,-0.049,-0.073,-0.098,-0.11599999999999999,-0.135,-0.14800000000000002,-0.162,-0.17,-0.17800000000000002,-0.18,-0.182,-0.17800000000000002,-0.175,-0.16899999999999998,-0.162,-0.154,-0.146,-0.13699999999999998,-0.127,-0.11699999999999999,-0.107,-0.098,-0.08800000000000001,-0.081,-0.07400000000000001,-0.069,-0.064,-0.061,-0.059000000000000004,-0.057999999999999996,-0.057,-0.057,-0.055999999999999994,-0.055999999999999994,-0.055,-0.054000000000000006,-0.053,-0.051,-0.05,-0.048,-0.047,-0.046,-0.045,-0.044000000000000004,-0.043,-0.043,-0.043,-0.042,-0.040999999999999995,-0.04,-0.039,-0.037000000000000005,-0.035,-0.033,-0.031,-0.028999999999999998,-0.027000000000000003,-0.024,-0.021,-0.019,-0.017,-0.013999999999999999,-0.012,-0.01,-0.008,-0.006999999999999999,-0.005,-0.006,-0.006,-0.006999999999999999,-0.008,-0.008,-0.008,-0.006,-0.004,-0.0,0.003,0.006,0.009000000000000001,0.01,0.011000000000000001,0.011000000000000001,0.011000000000000001,0.01,0.008,0.008,0.008,0.01,0.011000000000000001,0.011000000000000001,0.011000000000000001,0.011000000000000001,0.011000000000000001,0.012,0.013000000000000001,0.013999999999999999,0.015,0.016,0.017,0.018000000000000002,0.019,0.019,0.02,0.019,0.019,0.019,0.019,0.019,0.02,0.021,0.021,0.022000000000000002,0.023,0.024,0.024,0.025,0.025,0.025,0.024,0.023,0.021,0.02,0.018000000000000002,0.015,0.012,0.008,0.005,0.002,-0.001,-0.002,-0.004,-0.005,-0.006,-0.006999999999999999,-0.008,-0.009000000000000001,-0.009000000000000001,-0.01,-0.011000000000000001,-0.011000000000000001,-0.011000000000000001,-0.011000000000000001,-0.011000000000000001,-0.011000000000000001,-0.011000000000000001,-0.01,-0.008,-0.006999999999999999,-0.005,-0.003,-0.002,0.0,0.002,0.005,0.006999999999999999,0.009000000000000001,0.011000000000000001,0.011000000000000001,0.012,0.013000000000000001,0.013000000000000001,0.013999999999999999,0.015,0.016,0.018000000000000002,0.02,0.023,0.026000000000000002,0.028999999999999998,0.032,0.034,0.037000000000000005,0.04,0.04,0.040999999999999995,0.04,0.039,0.037000000000000005,0.035,0.034,0.034,0.034,0.034,0.035,0.037000000000000005,0.04,0.042,0.043,0.044000000000000004,0.044000000000000004,0.044000000000000004,0.043,0.042,0.040999999999999995,0.04,0.04,0.039,0.037000000000000005,0.036000000000000004,0.036000000000000004,0.036000000000000004,0.035,0.035,0.034,0.034,0.032,0.031,0.03,0.028999999999999998,0.027000000000000003,0.026000000000000002,0.026000000000000002,0.025,0.025,0.025,0.026000000000000002,0.027000000000000003,0.027000000000000003,0.027000000000000003,0.027000000000000003,0.027000000000000003,0.027000000000000003,0.027000000000000003,0.026000000000000002,0.025,0.025,0.024,0.025,0.025,0.027000000000000003,0.027999999999999997,0.028999999999999998,0.031,0.03,0.03,0.028999999999999998,0.027000000000000003,0.026000000000000002,0.025,0.025,0.025,0.027000000000000003,0.027999999999999997,0.032,0.036000000000000004,0.040999999999999995,0.047,0.052000000000000005,0.057999999999999996,0.063,0.069,0.073,0.077,0.08,0.08199999999999999,0.085,0.087,0.09,0.09300000000000001,0.096,0.099,0.10300000000000001,0.106,0.107,0.10800000000000001,0.107,0.105,0.102,0.099,0.096,0.094,0.09300000000000001,0.092,0.092,0.092,0.092,0.09300000000000001,0.09300000000000001,0.094,0.092,0.09,0.086,0.08199999999999999,0.077,0.07200000000000001,0.067,0.061,0.055,0.049,0.043,0.038,0.033,0.027000000000000003,0.021,0.013999999999999999,0.006999999999999999,0.0,-0.006,-0.011000000000000001,-0.016,-0.021,-0.025,N
2,-0.177,-0.182,-0.188,-0.187,-0.18600000000000003,-0.18100000000000002,-0.175,-0.166,-0.157,-0.146,-0.136,-0.125,-0.114,-0.105,-0.095,-0.08800000000000001,-0.081,-0.075,-0.069,-0.065,-0.061,-0.059000000000000004,-0.057,-0.055999999999999994,-0.055999999999999994,-0.055999999999999994,-0.055999999999999994,-0.055999999999999994,-0.055999999999999994,-0.055,-0.054000000000000006,-0.052000000000000005,-0.05,-0.047,-0.044000000000000004,-0.042,-0.039,-0.037000000000000005,-0.036000000000000004,-0.036000000000000004,-0.036000000000000004,-0.036000000000000004,-0.037000000000000005,-0.036000000000000004,-0.036000000000000004,-0.034,-0.033,-0.032,-0.031,-0.028999999999999998,-0.027000000000000003,-0.024,-0.022000000000000002,-0.021,-0.019,-0.018000000000000002,-0.017,-0.016,-0.016,-0.015,-0.013999999999999999,-0.013999999999999999,-0.013000000000000001,-0.012,-0.011000000000000001,-0.01,-0.008,-0.006,-0.005,-0.002,0.0,0.002,0.004,0.006,0.008,0.008,0.008,0.009000000000000001,0.009000000000000001,0.01,0.011000000000000001,0.013000000000000001,0.013999999999999999,0.016,0.018000000000000002,0.018000000000000002,0.019,0.019,0.02,0.019,0.019,0.019,0.019,0.019,0.019,0.019,0.02,0.021,0.021,0.022000000000000002,0.022000000000000002,0.022000000000000002,0.021,0.02,0.018000000000000002,0.016,0.013999999999999999,0.012,0.01,0.009000000000000001,0.008,0.006,0.005,0.005,0.005,0.005,0.005,0.005,0.005,0.003,0.002,-0.001,-0.004,-0.006,-0.008,-0.009000000000000001,-0.009000000000000001,-0.009000000000000001,-0.009000000000000001,-0.008,-0.008,-0.006999999999999999,-0.006,-0.006,-0.005,-0.005,-0.005,-0.005,-0.005,-0.004,-0.003,-0.002,0.0,0.001,0.002,0.003,0.003,0.003,0.003,0.004,0.005,0.006999999999999999,0.009000000000000001,0.011000000000000001,0.012,0.013999999999999999,0.017,0.019,0.021,0.022000000000000002,0.024,0.026000000000000002,0.027999999999999997,0.031,0.034,0.035,0.037000000000000005,0.039,0.040999999999999995,0.042,0.042,0.042,0.040999999999999995,0.04,0.038,0.035,0.032,0.028999999999999998,0.027000000000000003,0.026000000000000002,0.024,0.025,0.026000000000000002,0.027999999999999997,0.031,0.032,0.034,0.034,0.034,0.035,0.036000000000000004,0.035,0.035,0.034,0.034,0.033,0.032,0.031,0.031,0.028999999999999998,0.027000000000000003,0.027999999999999997,0.027999999999999997,0.028999999999999998,0.031,0.031,0.031,0.032,0.033,0.033,0.034,0.033,0.032,0.03,0.027000000000000003,0.024,0.021,0.02,0.019,0.019,0.019,0.019,0.019,0.019,0.02,0.021,0.021,0.022000000000000002,0.022000000000000002,0.022000000000000002,0.022000000000000002,0.023,0.023,0.024,0.026000000000000002,0.03,0.034,0.04,0.047,0.055,0.063,0.069,0.076,0.081,0.085,0.08800000000000001,0.091,0.09300000000000001,0.095,0.09699999999999999,0.099,0.10099999999999999,0.10400000000000001,0.106,0.10800000000000001,0.10800000000000001,0.10800000000000001,0.10300000000000001,0.099,0.095,0.09,0.086,0.08199999999999999,0.08,0.077,0.077,0.076,0.079,0.081,0.084,0.087,0.08800000000000001,0.08800000000000001,0.087,0.085,0.08,0.076,0.071,0.065,0.059000000000000004,0.053,0.047,0.040999999999999995,0.034,0.027000000000000003,0.018000000000000002,0.01,0.002,-0.005,-0.011000000000000001,-0.017,-0.02,-0.024,-0.025,-0.026000000000000002,-0.026000000000000002,-0.026000000000000002,-0.026000000000000002,-0.027000000000000003,-0.027999999999999997,-0.03,-0.031,-0.032,-0.033,-0.034,-0.034,-0.034,-0.034,-0.033,-0.032,-0.031,-0.031,-0.03,-0.027999999999999997,-0.027000000000000003,-0.024,-0.021,-0.013999999999999999,-0.008,0.002,0.011000000000000001,0.027000000000000003,0.042,0.065,0.08800000000000001,0.11699999999999999,0.146,0.18,0.213,0.244,0.275,0.299,0.322,0.33,0.33799999999999997,0.327,0.317,0.28800000000000003,0.259,0.21899999999999997,0.179,0.136,0.092,0.053,0.013999999999999999,-0.017,-0.049,-0.073,-0.098,-0.11599999999999999,-0.135,-0.14800000000000002,-0.162,-0.17,-0.17800000000000002,-0.18,-0.182,-0.17800000000000002,-0.175,-0.16899999999999998,-0.162,-0.154,-0.146,-0.13699999999999998,-0.127,-0.11699999999999999,-0.107,-0.098,-0.08800000000000001,-0.081,-0.07400000000000001,-0.069,-0.064,-0.061,-0.059000000000000004,-0.057999999999999996,-0.057,-0.057,-0.055999999999999994,-0.055999999999999994,-0.055,-0.054000000000000006,-0.053,-0.051,-0.05,-0.048,-0.047,-0.046,-0.045,-0.044000000000000004,-0.043,-0.043,-0.043,-0.042,-0.040999999999999995,-0.04,-0.039,-0.037000000000000005,-0.035,-0.033,-0.031,-0.028999999999999998,-0.027000000000000003,-0.024,-0.021,-0.019,-0.017,-0.013999999999999999,-0.012,-0.01,-0.008,-0.006999999999999999,-0.005,-0.006,-0.006,-0.006999999999999999,-0.008,-0.008,-0.008,-0.006,-0.004,-0.0,0.003,0.006,0.009000000000000001,0.01,0.011000000000000001,0.011000000000000001,0.011000000000000001,0.01,0.008,0.008,0.008,0.01,0.011000000000000001,0.011000000000000001,0.011000000000000001,0.011000000000000001,0.011000000000000001,0.012,0.013000000000000001,0.013999999999999999,0.015,0.016,0.017,0.018000000000000002,0.019,0.019,0.02,0.019,0.019,0.019,0.019,0.019,0.02,0.021,0.021,0.022000000000000002,0.023,0.024,0.024,0.025,0.025,0.025,0.024,0.023,0.021,0.02,0.018000000000000002,0.015,0.012,0.008,0.005,0.002,-0.001,-0.002,-0.004,-0.005,-0.006,-0.006999999999999999,-0.008,-0.009000000000000001,-0.009000000000000001,-0.01,-0.011000000000000001,-0.011000000000000001,-0.011000000000000001,-0.011000000000000001,-0.011000000000000001,-0.011000000000000001,-0.011000000000000001,-0.01,-0.008,-0.006999999999999999,-0.005,-0.003,-0.002,0.0,0.002,0.005,0.006999999999999999,0.009000000000000001,0.011000000000000001,0.011000000000000001,0.012,0.013000000000000001,0.013000000000000001,0.013999999999999999,0.015,0.016,0.018000000000000002,0.02,0.023,0.026000000000000002,0.028999999999999998,0.032,0.034,0.037000000000000005,0.04,0.04,0.040999999999999995,0.04,0.039,0.037000000000000005,0.035,0.034,0.034,0.034,0.034,0.035,0.037000000000000005,0.04,0.042,0.043,0.044000000000000004,0.044000000000000004,0.044000000000000004,0.043,0.042,0.040999999999999995,0.04,0.04,0.039,0.037000000000000005,0.036000000000000004,0.036000000000000004,0.036000000000000004,0.035,0.035,0.034,0.034,0.032,0.031,0.03,0.028999999999999998,0.027000000000000003,0.026000000000000002,0.026000000000000002,0.025,0.025,0.025,0.026000000000000002,0.027000000000000003,0.027000000000000003,0.027000000000000003,0.027000000000000003,0.027000000000000003,0.027000000000000003,0.027000000000000003,0.026000000000000002,0.025,0.025,0.024,0.025,0.025,0.027000000000000003,0.027999999999999997,0.028999999999999998,0.031,0.03,0.03,0.028999999999999998,0.027000000000000003,0.026000000000000002,0.025,0.025,0.025,0.027000000000000003,0.027999999999999997,0.032,0.036000000000000004,0.040999999999999995,0.047,0.052000000000000005,0.057999999999999996,0.063,0.069,0.073,0.077,0.08,0.08199999999999999,0.085,0.087,0.09,0.09300000000000001,0.096,0.099,0.10300000000000001,0.106,0.107,0.10800000000000001,0.107,0.105,0.102,0.099,0.096,0.094,0.09300000000000001,0.092,0.092,0.092,0.092,0.09300000000000001,0.09300000000000001,0.094,0.092,0.09,0.086,0.08199999999999999,0.077,0.07200000000000001,0.067,0.061,0.055,0.049,0.043,0.038,0.033,0.027000000000000003,0.021,0.013999999999999999,0.006999999999999999,0.0,-0.006,-0.011000000000000001,-0.016,-0.021,-0.025,-0.028999999999999998,-0.031,-0.032,-0.032,-0.033,-0.032,-0.031,-0.031,-0.03,-0.028999999999999998,-0.027999999999999997,-0.028999999999999998,-0.028999999999999998,-0.03,-0.031,-0.033,-0.034,-0.035,-0.037000000000000005,-0.035,-0.034,-0.031,-0.027000000000000003,-0.021,-0.016,-0.008,-0.001,0.012,0.024,0.044000000000000004,0.064,0.092,0.11900000000000001,0.151,0.184,0.217,0.251,0.278,0.306,0.321,0.336,0.33399999999999996,0.332,0.312,0.29100000000000004,0.257,0.222,0.18,0.138,0.098,0.057999999999999996,0.024,-0.009000000000000001,-0.036000000000000004,-0.063,-0.085,-0.10800000000000001,-0.127,-0.147,-0.162,-0.17800000000000002,-0.18600000000000003,-0.195,-0.19699999999999998,-0.198,-0.19399999999999998,-0.18899999999999997,-0.18100000000000002,-0.172,-0.161,-0.15,-0.138,-0.127,-0.115,-0.10400000000000001,-0.094,-0.084,-0.077,-0.069,-0.065,-0.06,-0.057999999999999996,-0.055,-0.054000000000000006,-0.053,-0.051,-0.05,-0.05,-0.05,-0.05,-0.05,-0.048,-0.047,-0.046,-0.044000000000000004,-0.042,-0.04,-0.038,-0.036000000000000004,-0.033,-0.031,-0.028999999999999998,-0.027000000000000003,-0.026000000000000002,-0.024,-0.024,-0.023,-0.023,-0.022000000000000002,-0.023,-0.023,-0.023,-0.023,-0.023,-0.023,-0.022000000000000002,-0.021,-0.019,-0.016,-0.012,-0.008,-0.005,-0.002,-0.001,0.001,0.002,0.003,0.004,0.005,0.008,0.01,0.012,0.013999999999999999,0.016,0.018000000000000002,0.018000000000000002,0.019,0.019,0.02,0.019,0.019,0.019,0.02,0.021,0.021,0.022000000000000002,0.022000000000000002,0.022000000000000002,0.022000000000000002,0.022000000000000002,0.022000000000000002,0.022000000000000002,0.022000000000000002,0.023,0.023,0.024,0.024,0.025,0.025,0.025,0.025,0.025,0.025,0.026000000000000002,0.027000000000000003,0.027999999999999997,0.028999999999999998,0.028999999999999998,0.027999999999999997,0.026000000000000002,0.024,0.023,0.021,0.019,0.017,0.015,0.013000000000000001,0.011000000000000001,0.009000000000000001,0.006999999999999999,0.005,0.003,0.001,-0.001,-0.003,-0.005,-0.006,-0.006,-0.006,-0.006,-0.005,-0.005,-0.005,-0.005,-0.005,-0.004,-0.003,-0.002,0.0,0.002,0.003,0.005,0.006,0.006999999999999999,0.008,0.009000000000000001,0.009000000000000001,0.01,0.011000000000000001,0.013000000000000001,0.013999999999999999,0.016,0.017,0.017,0.018000000000000002,0.019,0.02,0.022000000000000002,0.024,0.027000000000000003,0.031,0.034,0.037000000000000005,0.039,0.04,0.040999999999999995,0.040999999999999995,0.04,0.039,0.037000000000000005,0.036000000000000004,0.036000000000000004,0.036000000000000004,0.036000000000000004,0.037000000000000005,0.038,0.039,0.040999999999999995,0.043,0.043,0.044000000000000004,0.045,0.045,0.044000000000000004,0.043,0.043,0.042,0.040999999999999995,0.04,0.04,0.04,0.039,0.037000000000000005,0.037000000000000005,0.037000000000000005,0.037000000000000005,0.037000000000000005,0.037000000000000005,0.038,0.039,0.04,0.039,0.038,0.037000000000000005,0.036000000000000004,0.035,0.034,0.033,0.033,0.033,0.034,0.034,0.034,0.035,0.035,0.034,0.033,0.031,0.028999999999999998,0.027000000000000003,0.024,0.023,0.021,0.021,0.021,0.021,0.021,0.022000000000000002,0.023,0.024,0.026000000000000002,0.028999999999999998,0.031,0.035,0.038,0.042,0.046,0.05,0.054000000000000006,0.057999999999999996,0.063,0.066,0.069,0.07200000000000001,0.076,0.079,0.08199999999999999,0.084,0.085,0.08800000000000001,0.09,0.09300000000000001,0.095,0.096,0.098,0.098,0.098,0.09699999999999999,0.096,0.094,0.092,0.08800000000000001,0.085,0.083,0.081,0.081,0.081,0.08199999999999999,0.084,0.085,0.086,0.086,0.086,0.084,0.08199999999999999,0.077,0.07200000000000001,0.067,0.062,0.055999999999999994,0.051,0.047,0.042,0.038,0.034,0.028999999999999998,0.024,0.016,0.008,-0.0,-0.008,-0.016,N
3,-0.18,-0.182,-0.17800000000000002,-0.175,-0.16899999999999998,-0.162,-0.154,-0.146,-0.13699999999999998,-0.127,-0.11699999999999999,-0.107,-0.098,-0.08800000000000001,-0.081,-0.07400000000000001,-0.069,-0.064,-0.061,-0.059000000000000004,-0.057999999999999996,-0.057,-0.057,-0.055999999999999994,-0.055999999999999994,-0.055,-0.054000000000000006,-0.053,-0.051,-0.05,-0.048,-0.047,-0.046,-0.045,-0.044000000000000004,-0.043,-0.043,-0.043,-0.042,-0.040999999999999995,-0.04,-0.039,-0.037000000000000005,-0.035,-0.033,-0.031,-0.028999999999999998,-0.027000000000000003,-0.024,-0.021,-0.019,-0.017,-0.013999999999999999,-0.012,-0.01,-0.008,-0.006999999999999999,-0.005,-0.006,-0.006,-0.006999999999999999,-0.008,-0.008,-0.008,-0.006,-0.004,-0.0,0.003,0.006,0.009000000000000001,0.01,0.011000000000000001,0.011000000000000001,0.011000000000000001,0.01,0.008,0.008,0.008,0.01,0.011000000000000001,0.011000000000000001,0.011000000000000001,0.011000000000000001,0.011000000000000001,0.012,0.013000000000000001,0.013999999999999999,0.015,0.016,0.017,0.018000000000000002,0.019,0.019,0.02,0.019,0.019,0.019,0.019,0.019,0.02,0.021,0.021,0.022000000000000002,0.023,0.024,0.024,0.025,0.025,0.025,0.024,0.023,0.021,0.02,0.018000000000000002,0.015,0.012,0.008,0.005,0.002,-0.001,-0.002,-0.004,-0.005,-0.006,-0.006999999999999999,-0.008,-0.009000000000000001,-0.009000000000000001,-0.01,-0.011000000000000001,-0.011000000000000001,-0.011000000000000001,-0.011000000000000001,-0.011000000000000001,-0.011000000000000001,-0.011000000000000001,-0.01,-0.008,-0.006999999999999999,-0.005,-0.003,-0.002,0.0,0.002,0.005,0.006999999999999999,0.009000000000000001,0.011000000000000001,0.011000000000000001,0.012,0.013000000000000001,0.013000000000000001,0.013999999999999999,0.015,0.016,0.018000000000000002,0.02,0.023,0.026000000000000002,0.028999999999999998,0.032,0.034,0.037000000000000005,0.04,0.04,0.040999999999999995,0.04,0.039,0.037000000000000005,0.035,0.034,0.034,0.034,0.034,0.035,0.037000000000000005,0.04,0.042,0.043,0.044000000000000004,0.044000000000000004,0.044000000000000004,0.043,0.042,0.040999999999999995,0.04,0.04,0.039,0.037000000000000005,0.036000000000000004,0.036000000000000004,0.036000000000000004,0.035,0.035,0.034,0.034,0.032,0.031,0.03,0.028999999999999998,0.027000000000000003,0.026000000000000002,0.026000000000000002,0.025,0.025,0.025,0.026000000000000002,0.027000000000000003,0.027000000000000003,0.027000000000000003,0.027000000000000003,0.027000000000000003,0.027000000000000003,0.027000000000000003,0.026000000000000002,0.025,0.025,0.024,0.025,0.025,0.027000000000000003,0.027999999999999997,0.028999999999999998,0.031,0.03,0.03,0.028999999999999998,0.027000000000000003,0.026000000000000002,0.025,0.025,0.025,0.027000000000000003,0.027999999999999997,0.032,0.036000000000000004,0.040999999999999995,0.047,0.052000000000000005,0.057999999999999996,0.063,0.069,0.073,0.077,0.08,0.08199999999999999,0.085,0.087,0.09,0.09300000000000001,0.096,0.099,0.10300000000000001,0.106,0.107,0.10800000000000001,0.107,0.105,0.102,0.099,0.096,0.094,0.09300000000000001,0.092,0.092,0.092,0.092,0.09300000000000001,0.09300000000000001,0.094,0.092,0.09,0.086,0.08199999999999999,0.077,0.07200000000000001,0.067,0.061,0.055,0.049,0.043,0.038,0.033,0.027000000000000003,0.021,0.013999999999999999,0.006999999999999999,0.0,-0.006,-0.011000000000000001,-0.016,-0.021,-0.025,-0.028999999999999998,-0.031,-0.032,-0.032,-0.033,-0.032,-0.031,-0.031,-0.03,-0.028999999999999998,-0.027999999999999997,-0.028999999999999998,-0.028999999999999998,-0.03,-0.031,-0.033,-0.034,-0.035,-0.037000000000000005,-0.035,-0.034,-0.031,-0.027000000000000003,-0.021,-0.016,-0.008,-0.001,0.012,0.024,0.044000000000000004,0.064,0.092,0.11900000000000001,0.151,0.184,0.217,0.251,0.278,0.306,0.321,0.336,0.33399999999999996,0.332,0.312,0.29100000000000004,0.257,0.222,0.18,0.138,0.098,0.057999999999999996,0.024,-0.009000000000000001,-0.036000000000000004,-0.063,-0.085,-0.10800000000000001,-0.127,-0.147,-0.162,-0.17800000000000002,-0.18600000000000003,-0.195,-0.19699999999999998,-0.198,-0.19399999999999998,-0.18899999999999997,-0.18100000000000002,-0.172,-0.161,-0.15,-0.138,-0.127,-0.115,-0.10400000000000001,-0.094,-0.084,-0.077,-0.069,-0.065,-0.06,-0.057999999999999996,-0.055,-0.054000000000000006,-0.053,-0.051,-0.05,-0.05,-0.05,-0.05,-0.05,-0.048,-0.047,-0.046,-0.044000000000000004,-0.042,-0.04,-0.038,-0.036000000000000004,-0.033,-0.031,-0.028999999999999998,-0.027000000000000003,-0.026000000000000002,-0.024,-0.024,-0.023,-0.023,-0.022000000000000002,-0.023,-0.023,-0.023,-0.023,-0.023,-0.023,-0.022000000000000002,-0.021,-0.019,-0.016,-0.012,-0.008,-0.005,-0.002,-0.001,0.001,0.002,0.003,0.004,0.005,0.008,0.01,0.012,0.013999999999999999,0.016,0.018000000000000002,0.018000000000000002,0.019,0.019,0.02,0.019,0.019,0.019,0.02,0.021,0.021,0.022000000000000002,0.022000000000000002,0.022000000000000002,0.022000000000000002,0.022000000000000002,0.022000000000000002,0.022000000000000002,0.022000000000000002,0.023,0.023,0.024,0.024,0.025,0.025,0.025,0.025,0.025,0.025,0.026000000000000002,0.027000000000000003,0.027999999999999997,0.028999999999999998,0.028999999999999998,0.027999999999999997,0.026000000000000002,0.024,0.023,0.021,0.019,0.017,0.015,0.013000000000000001,0.011000000000000001,0.009000000000000001,0.006999999999999999,0.005,0.003,0.001,-0.001,-0.003,-0.005,-0.006,-0.006,-0.006,-0.006,-0.005,-0.005,-0.005,-0.005,-0.005,-0.004,-0.003,-0.002,0.0,0.002,0.003,0.005,0.006,0.006999999999999999,0.008,0.009000000000000001,0.009000000000000001,0.01,0.011000000000000001,0.013000000000000001,0.013999999999999999,0.016,0.017,0.017,0.018000000000000002,0.019,0.02,0.022000000000000002,0.024,0.027000000000000003,0.031,0.034,0.037000000000000005,0.039,0.04,0.040999999999999995,0.040999999999999995,0.04,0.039,0.037000000000000005,0.036000000000000004,0.036000000000000004,0.036000000000000004,0.036000000000000004,0.037000000000000005,0.038,0.039,0.040999999999999995,0.043,0.043,0.044000000000000004,0.045,0.045,0.044000000000000004,0.043,0.043,0.042,0.040999999999999995,0.04,0.04,0.04,0.039,0.037000000000000005,0.037000000000000005,0.037000000000000005,0.037000000000000005,0.037000000000000005,0.037000000000000005,0.038,0.039,0.04,0.039,0.038,0.037000000000000005,0.036000000000000004,0.035,0.034,0.033,0.033,0.033,0.034,0.034,0.034,0.035,0.035,0.034,0.033,0.031,0.028999999999999998,0.027000000000000003,0.024,0.023,0.021,0.021,0.021,0.021,0.021,0.022000000000000002,0.023,0.024,0.026000000000000002,0.028999999999999998,0.031,0.035,0.038,0.042,0.046,0.05,0.054000000000000006,0.057999999999999996,0.063,0.066,0.069,0.07200000000000001,0.076,0.079,0.08199999999999999,0.084,0.085,0.08800000000000001,0.09,0.09300000000000001,0.095,0.096,0.098,0.098,0.098,0.09699999999999999,0.096,0.094,0.092,0.08800000000000001,0.085,0.083,0.081,0.081,0.081,0.08199999999999999,0.084,0.085,0.086,0.086,0.086,0.084,0.08199999999999999,0.077,0.07200000000000001,0.067,0.062,0.055999999999999994,0.051,0.047,0.042,0.038,0.034,0.028999999999999998,0.024,0.016,0.008,-0.0,-0.008,-0.016,-0.023,-0.027999999999999997,-0.033,-0.035,-0.037000000000000005,-0.037000000000000005,-0.037000000000000005,-0.037000000000000005,-0.037000000000000005,-0.037000000000000005,-0.037000000000000005,-0.037000000000000005,-0.037000000000000005,-0.037000000000000005,-0.037000000000000005,-0.037000000000000005,-0.037000000000000005,-0.036000000000000004,-0.036000000000000004,-0.034,-0.033,-0.031,-0.03,-0.027000000000000003,-0.025,-0.023,-0.02,-0.013000000000000001,-0.006999999999999999,0.005,0.018000000000000002,0.037000000000000005,0.057,0.085,0.11199999999999999,0.145,0.177,0.21,0.243,0.272,0.3,0.316,0.332,0.331,0.33,0.312,0.294,0.259,0.225,0.183,0.142,0.102,0.062,0.027999999999999997,-0.006,-0.034,-0.063,-0.085,-0.10800000000000001,-0.125,-0.14300000000000002,-0.156,-0.16899999999999998,-0.174,-0.18,-0.18,-0.179,-0.175,-0.17,-0.163,-0.156,-0.14800000000000002,-0.14,-0.133,-0.125,-0.11800000000000001,-0.111,-0.105,-0.098,-0.092,-0.085,-0.08,-0.075,-0.071,-0.066,-0.063,-0.059000000000000004,-0.057999999999999996,-0.055999999999999994,-0.054000000000000006,-0.053,-0.051,-0.05,-0.05,-0.05,-0.049,-0.048,-0.047,-0.047,-0.046,-0.046,-0.045,-0.044000000000000004,-0.042,-0.04,-0.038,-0.036000000000000004,-0.033,-0.031,-0.028999999999999998,-0.027000000000000003,-0.026000000000000002,-0.024,-0.023,-0.022000000000000002,-0.021,-0.019,-0.017,-0.015,-0.013999999999999999,-0.012,-0.011000000000000001,-0.01,-0.009000000000000001,-0.008,-0.008,-0.008,-0.008,-0.008,-0.008,-0.008,-0.006,-0.005,-0.002,0.001,0.004,0.008,0.011000000000000001,0.013999999999999999,0.017,0.02,0.021,0.022000000000000002,0.022000000000000002,0.022000000000000002,0.023,0.023,0.024,0.025,0.026000000000000002,0.027000000000000003,0.027000000000000003,0.027000000000000003,0.027000000000000003,0.027000000000000003,0.025,0.024,0.021,0.018000000000000002,0.016,0.013999999999999999,0.013000000000000001,0.013000000000000001,0.013999999999999999,0.013999999999999999,0.016,0.017,0.018000000000000002,0.02,0.021,0.021,0.02,0.018000000000000002,0.016,0.013000000000000001,0.01,0.008,0.006,0.004,0.003,0.002,0.002,0.002,0.001,0.0,-0.001,-0.002,-0.003,-0.005,-0.005,-0.006,-0.006,-0.006,-0.005,-0.004,-0.002,0.0,0.002,0.003,0.004,0.005,0.006,0.006,0.006,0.005,0.005,0.005,0.006,0.006999999999999999,0.008,0.01,0.011000000000000001,0.012,0.013000000000000001,0.013000000000000001,0.013999999999999999,0.015,0.016,0.016,0.017,0.018000000000000002,0.019,0.02,0.021,0.023,0.024,0.025,0.027000000000000003,0.027999999999999997,0.028999999999999998,0.031,0.031,0.031,0.031,0.031,0.032,0.033,0.033,0.033,0.032,0.031,0.031,0.031,0.03,0.028999999999999998,0.028999999999999998,0.027999999999999997,0.027999999999999997,0.027000000000000003,0.027000000000000003,0.027000000000000003,0.026000000000000002,0.025,0.024,0.024,0.023,0.021,0.021,0.02,0.019,0.018000000000000002,0.018000000000000002,0.017,0.017,0.017,0.016,0.016,0.015,0.013999999999999999,0.012,0.011000000000000001,0.011000000000000001,0.011000000000000001,0.013000000000000001,0.013999999999999999,0.017,0.02,0.021,0.022000000000000002,0.022000000000000002,0.021,0.02,0.019,0.018000000000000002,0.016,0.015,0.013999999999999999,0.013999999999999999,0.013999999999999999,0.015,0.017,0.018000000000000002,0.019,0.02,0.021,0.023,0.025,0.028999999999999998,0.032,0.035,0.037000000000000005,0.040999999999999995,0.044000000000000004,0.049,0.054000000000000006,0.06,0.066,0.07,0.07400000000000001,0.076,0.079,0.08,0.081,0.08199999999999999,0.08199999999999999,0.084,0.086,0.08800000000000001,0.091,0.092,0.09300000000000001,0.09300000000000001,0.092,0.09,0.08800000000000001,0.087,0.086,0.086,0.086,0.087,0.087,0.08800000000000001,0.08800000000000001,0.08800000000000001,0.08800000000000001,0.087,0.085,0.08199999999999999,0.079,0.075,0.07,0.065,0.059000000000000004,0.055,0.05,0.045,0.04,0.033,0.027000000000000003,0.02,0.013999999999999999,0.006999999999999999,0.0,-0.006,-0.011000000000000001,N
4,-0.195,-0.19699999999999998,-0.198,-0.19399999999999998,-0.18899999999999997,-0.18100000000000002,-0.172,-0.161,-0.15,-0.138,-0.127,-0.115,-0.10400000000000001,-0.094,-0.084,-0.077,-0.069,-0.065,-0.06,-0.057999999999999996,-0.055,-0.054000000000000006,-0.053,-0.051,-0.05,-0.05,-0.05,-0.05,-0.05,-0.048,-0.047,-0.046,-0.044000000000000004,-0.042,-0.04,-0.038,-0.036000000000000004,-0.033,-0.031,-0.028999999999999998,-0.027000000000000003,-0.026000000000000002,-0.024,-0.024,-0.023,-0.023,-0.022000000000000002,-0.023,-0.023,-0.023,-0.023,-0.023,-0.023,-0.022000000000000002,-0.021,-0.019,-0.016,-0.012,-0.008,-0.005,-0.002,-0.001,0.001,0.002,0.003,0.004,0.005,0.008,0.01,0.012,0.013999999999999999,0.016,0.018000000000000002,0.018000000000000002,0.019,0.019,0.02,0.019,0.019,0.019,0.02,0.021,0.021,0.022000000000000002,0.022000000000000002,0.022000000000000002,0.022000000000000002,0.022000000000000002,0.022000000000000002,0.022000000000000002,0.022000000000000002,0.023,0.023,0.024,0.024,0.025,0.025,0.025,0.025,0.025,0.025,0.026000000000000002,0.027000000000000003,0.027999999999999997,0.028999999999999998,0.028999999999999998,0.027999999999999997,0.026000000000000002,0.024,0.023,0.021,0.019,0.017,0.015,0.013000000000000001,0.011000000000000001,0.009000000000000001,0.006999999999999999,0.005,0.003,0.001,-0.001,-0.003,-0.005,-0.006,-0.006,-0.006,-0.006,-0.005,-0.005,-0.005,-0.005,-0.005,-0.004,-0.003,-0.002,0.0,0.002,0.003,0.005,0.006,0.006999999999999999,0.008,0.009000000000000001,0.009000000000000001,0.01,0.011000000000000001,0.013000000000000001,0.013999999999999999,0.016,0.017,0.017,0.018000000000000002,0.019,0.02,0.022000000000000002,0.024,0.027000000000000003,0.031,0.034,0.037000000000000005,0.039,0.04,0.040999999999999995,0.040999999999999995,0.04,0.039,0.037000000000000005,0.036000000000000004,0.036000000000000004,0.036000000000000004,0.036000000000000004,0.037000000000000005,0.038,0.039,0.040999999999999995,0.043,0.043,0.044000000000000004,0.045,0.045,0.044000000000000004,0.043,0.043,0.042,0.040999999999999995,0.04,0.04,0.04,0.039,0.037000000000000005,0.037000000000000005,0.037000000000000005,0.037000000000000005,0.037000000000000005,0.037000000000000005,0.038,0.039,0.04,0.039,0.038,0.037000000000000005,0.036000000000000004,0.035,0.034,0.033,0.033,0.033,0.034,0.034,0.034,0.035,0.035,0.034,0.033,0.031,0.028999999999999998,0.027000000000000003,0.024,0.023,0.021,0.021,0.021,0.021,0.021,0.022000000000000002,0.023,0.024,0.026000000000000002,0.028999999999999998,0.031,0.035,0.038,0.042,0.046,0.05,0.054000000000000006,0.057999999999999996,0.063,0.066,0.069,0.07200000000000001,0.076,0.079,0.08199999999999999,0.084,0.085,0.08800000000000001,0.09,0.09300000000000001,0.095,0.096,0.098,0.098,0.098,0.09699999999999999,0.096,0.094,0.092,0.08800000000000001,0.085,0.083,0.081,0.081,0.081,0.08199999999999999,0.084,0.085,0.086,0.086,0.086,0.084,0.08199999999999999,0.077,0.07200000000000001,0.067,0.062,0.055999999999999994,0.051,0.047,0.042,0.038,0.034,0.028999999999999998,0.024,0.016,0.008,-0.0,-0.008,-0.016,-0.023,-0.027999999999999997,-0.033,-0.035,-0.037000000000000005,-0.037000000000000005,-0.037000000000000005,-0.037000000000000005,-0.037000000000000005,-0.037000000000000005,-0.037000000000000005,-0.037000000000000005,-0.037000000000000005,-0.037000000000000005,-0.037000000000000005,-0.037000000000000005,-0.037000000000000005,-0.036000000000000004,-0.036000000000000004,-0.034,-0.033,-0.031,-0.03,-0.027000000000000003,-0.025,-0.023,-0.02,-0.013000000000000001,-0.006999999999999999,0.005,0.018000000000000002,0.037000000000000005,0.057,0.085,0.11199999999999999,0.145,0.177,0.21,0.243,0.272,0.3,0.316,0.332,0.331,0.33,0.312,0.294,0.259,0.225,0.183,0.142,0.102,0.062,0.027999999999999997,-0.006,-0.034,-0.063,-0.085,-0.10800000000000001,-0.125,-0.14300000000000002,-0.156,-0.16899999999999998,-0.174,-0.18,-0.18,-0.179,-0.175,-0.17,-0.163,-0.156,-0.14800000000000002,-0.14,-0.133,-0.125,-0.11800000000000001,-0.111,-0.105,-0.098,-0.092,-0.085,-0.08,-0.075,-0.071,-0.066,-0.063,-0.059000000000000004,-0.057999999999999996,-0.055999999999999994,-0.054000000000000006,-0.053,-0.051,-0.05,-0.05,-0.05,-0.049,-0.048,-0.047,-0.047,-0.046,-0.046,-0.045,-0.044000000000000004,-0.042,-0.04,-0.038,-0.036000000000000004,-0.033,-0.031,-0.028999999999999998,-0.027000000000000003,-0.026000000000000002,-0.024,-0.023,-0.022000000000000002,-0.021,-0.019,-0.017,-0.015,-0.013999999999999999,-0.012,-0.011000000000000001,-0.01,-0.009000000000000001,-0.008,-0.008,-0.008,-0.008,-0.008,-0.008,-0.008,-0.006,-0.005,-0.002,0.001,0.004,0.008,0.011000000000000001,0.013999999999999999,0.017,0.02,0.021,0.022000000000000002,0.022000000000000002,0.022000000000000002,0.023,0.023,0.024,0.025,0.026000000000000002,0.027000000000000003,0.027000000000000003,0.027000000000000003,0.027000000000000003,0.027000000000000003,0.025,0.024,0.021,0.018000000000000002,0.016,0.013999999999999999,0.013000000000000001,0.013000000000000001,0.013999999999999999,0.013999999999999999,0.016,0.017,0.018000000000000002,0.02,0.021,0.021,0.02,0.018000000000000002,0.016,0.013000000000000001,0.01,0.008,0.006,0.004,0.003,0.002,0.002,0.002,0.001,0.0,-0.001,-0.002,-0.003,-0.005,-0.005,-0.006,-0.006,-0.006,-0.005,-0.004,-0.002,0.0,0.002,0.003,0.004,0.005,0.006,0.006,0.006,0.005,0.005,0.005,0.006,0.006999999999999999,0.008,0.01,0.011000000000000001,0.012,0.013000000000000001,0.013000000000000001,0.013999999999999999,0.015,0.016,0.016,0.017,0.018000000000000002,0.019,0.02,0.021,0.023,0.024,0.025,0.027000000000000003,0.027999999999999997,0.028999999999999998,0.031,0.031,0.031,0.031,0.031,0.032,0.033,0.033,0.033,0.032,0.031,0.031,0.031,0.03,0.028999999999999998,0.028999999999999998,0.027999999999999997,0.027999999999999997,0.027000000000000003,0.027000000000000003,0.027000000000000003,0.026000000000000002,0.025,0.024,0.024,0.023,0.021,0.021,0.02,0.019,0.018000000000000002,0.018000000000000002,0.017,0.017,0.017,0.016,0.016,0.015,0.013999999999999999,0.012,0.011000000000000001,0.011000000000000001,0.011000000000000001,0.013000000000000001,0.013999999999999999,0.017,0.02,0.021,0.022000000000000002,0.022000000000000002,0.021,0.02,0.019,0.018000000000000002,0.016,0.015,0.013999999999999999,0.013999999999999999,0.013999999999999999,0.015,0.017,0.018000000000000002,0.019,0.02,0.021,0.023,0.025,0.028999999999999998,0.032,0.035,0.037000000000000005,0.040999999999999995,0.044000000000000004,0.049,0.054000000000000006,0.06,0.066,0.07,0.07400000000000001,0.076,0.079,0.08,0.081,0.08199999999999999,0.08199999999999999,0.084,0.086,0.08800000000000001,0.091,0.092,0.09300000000000001,0.09300000000000001,0.092,0.09,0.08800000000000001,0.087,0.086,0.086,0.086,0.087,0.087,0.08800000000000001,0.08800000000000001,0.08800000000000001,0.08800000000000001,0.087,0.085,0.08199999999999999,0.079,0.075,0.07,0.065,0.059000000000000004,0.055,0.05,0.045,0.04,0.033,0.027000000000000003,0.02,0.013999999999999999,0.006999999999999999,0.0,-0.006,-0.011000000000000001,-0.016,-0.02,-0.022000000000000002,-0.024,-0.025,-0.025,-0.026000000000000002,-0.026000000000000002,-0.027000000000000003,-0.027999999999999997,-0.028999999999999998,-0.031,-0.031,-0.031,-0.031,-0.031,-0.03,-0.03,-0.028999999999999998,-0.028999999999999998,-0.03,-0.031,-0.03,-0.03,-0.027000000000000003,-0.024,-0.021,-0.017,-0.008,0.0,0.013999999999999999,0.027999999999999997,0.05,0.07200000000000001,0.1,0.129,0.162,0.196,0.22899999999999998,0.262,0.287,0.313,0.326,0.33899999999999997,0.33399999999999996,0.33,0.308,0.28600000000000003,0.249,0.212,0.17,0.127,0.087,0.047,0.013000000000000001,-0.02,-0.047,-0.07400000000000001,-0.096,-0.11800000000000001,-0.136,-0.154,-0.166,-0.17800000000000002,-0.182,-0.187,-0.185,-0.183,-0.177,-0.17,-0.161,-0.152,-0.14300000000000002,-0.133,-0.125,-0.11599999999999999,-0.10800000000000001,-0.10099999999999999,-0.094,-0.087,-0.08199999999999999,-0.077,-0.07400000000000001,-0.07200000000000001,-0.07,-0.068,-0.066,-0.064,-0.063,-0.061,-0.059000000000000004,-0.057999999999999996,-0.055999999999999994,-0.054000000000000006,-0.053,-0.051,-0.05,-0.049,-0.047,-0.045,-0.043,-0.040999999999999995,-0.04,-0.039,-0.038,-0.037000000000000005,-0.037000000000000005,-0.037000000000000005,-0.038,-0.039,-0.039,-0.04,-0.039,-0.039,-0.037000000000000005,-0.035,-0.033,-0.031,-0.028999999999999998,-0.027000000000000003,-0.026000000000000002,-0.025,-0.026000000000000002,-0.026000000000000002,-0.027000000000000003,-0.027000000000000003,-0.027999999999999997,-0.027999999999999997,-0.027999999999999997,-0.027999999999999997,-0.027999999999999997,-0.027999999999999997,-0.027999999999999997,-0.027000000000000003,-0.027000000000000003,-0.026000000000000002,-0.026000000000000002,-0.025,-0.024,-0.024,-0.022000000000000002,-0.02,-0.018000000000000002,-0.015,-0.013000000000000001,-0.011000000000000001,-0.01,-0.008,-0.006,-0.005,-0.003,-0.002,0.0,0.002,0.002,0.003,0.002,0.002,0.001,0.0,-0.0,-0.001,0.0,0.002,0.003,0.005,0.005,0.005,0.003,0.002,-0.0,-0.002,-0.003,-0.005,-0.005,-0.005,-0.006,-0.006,-0.006,-0.005,-0.005,-0.004,-0.005,-0.005,-0.006,-0.006999999999999999,-0.008,-0.008,-0.009000000000000001,-0.009000000000000001,-0.011000000000000001,-0.012,-0.013000000000000001,-0.013999999999999999,-0.016,-0.017,-0.017,-0.018000000000000002,-0.017,-0.016,-0.016,-0.015,-0.016,-0.016,-0.016,-0.017,-0.016,-0.016,-0.015,-0.013999999999999999,-0.013000000000000001,-0.011000000000000001,-0.011000000000000001,-0.01,-0.01,-0.009000000000000001,-0.008,-0.008,-0.006,-0.005,-0.002,0.001,0.003,0.006,0.008,0.01,0.013000000000000001,0.015,0.017,0.019,0.019,0.02,0.019,0.019,0.019,0.02,0.021,0.022000000000000002,0.024,0.025,0.026000000000000002,0.027000000000000003,0.027000000000000003,0.027000000000000003,0.027000000000000003,0.027000000000000003,0.027000000000000003,0.027000000000000003,0.027000000000000003,0.027000000000000003,0.027999999999999997,0.027999999999999997,0.028999999999999998,0.031,0.031,0.031,0.032,0.033,0.033,0.034,0.034,0.034,0.034,0.034,0.034,0.034,0.034,0.034,0.034,0.034,0.034,0.034,0.034,0.034,0.034,0.034,0.034,0.034,0.033,0.033,0.032,0.031,0.027999999999999997,0.026000000000000002,0.024,0.021,0.019,0.017,0.016,0.016,0.017,0.018000000000000002,0.02,0.021,0.022000000000000002,0.023,0.023,0.022000000000000002,0.022000000000000002,0.021,0.021,0.021,0.023,0.025,0.028999999999999998,0.034,0.039,0.043,0.05,0.055999999999999994,0.06,0.065,0.068,0.07,0.07200000000000001,0.073,0.075,0.077,0.081,0.085,0.08900000000000001,0.094,0.098,0.10099999999999999,0.10300000000000001,0.105,0.10400000000000001,0.102,0.098,0.095,0.09,0.085,0.081,0.078,0.078,0.078,0.08,0.08199999999999999,0.084,0.086,0.087,0.08800000000000001,0.085,0.08199999999999999,0.077,0.07200000000000001,0.066,0.059000000000000004,0.054000000000000006,0.048,0.044000000000000004,0.04,0.036000000000000004,0.033,0.027000000000000003,N
5,-0.174,-0.18,-0.18,-0.179,-0.175,-0.17,-0.163,-0.156,-0.14800000000000002,-0.14,-0.133,-0.125,-0.11800000000000001,-0.111,-0.105,-0.098,-0.092,-0.085,-0.08,-0.075,-0.071,-0.066,-0.063,-0.059000000000000004,-0.057999999999999996,-0.055999999999999994,-0.054000000000000006,-0.053,-0.051,-0.05,-0.05,-0.05,-0.049,-0.048,-0.047,-0.047,-0.046,-0.046,-0.045,-0.044000000000000004,-0.042,-0.04,-0.038,-0.036000000000000004,-0.033,-0.031,-0.028999999999999998,-0.027000000000000003,-0.026000000000000002,-0.024,-0.023,-0.022000000000000002,-0.021,-0.019,-0.017,-0.015,-0.013999999999999999,-0.012,-0.011000000000000001,-0.01,-0.009000000000000001,-0.008,-0.008,-0.008,-0.008,-0.008,-0.008,-0.008,-0.006,-0.005,-0.002,0.001,0.004,0.008,0.011000000000000001,0.013999999999999999,0.017,0.02,0.021,0.022000000000000002,0.022000000000000002,0.022000000000000002,0.023,0.023,0.024,0.025,0.026000000000000002,0.027000000000000003,0.027000000000000003,0.027000000000000003,0.027000000000000003,0.027000000000000003,0.025,0.024,0.021,0.018000000000000002,0.016,0.013999999999999999,0.013000000000000001,0.013000000000000001,0.013999999999999999,0.013999999999999999,0.016,0.017,0.018000000000000002,0.02,0.021,0.021,0.02,0.018000000000000002,0.016,0.013000000000000001,0.01,0.008,0.006,0.004,0.003,0.002,0.002,0.002,0.001,0.0,-0.001,-0.002,-0.003,-0.005,-0.005,-0.006,-0.006,-0.006,-0.005,-0.004,-0.002,0.0,0.002,0.003,0.004,0.005,0.006,0.006,0.006,0.005,0.005,0.005,0.006,0.006999999999999999,0.008,0.01,0.011000000000000001,0.012,0.013000000000000001,0.013000000000000001,0.013999999999999999,0.015,0.016,0.016,0.017,0.018000000000000002,0.019,0.02,0.021,0.023,0.024,0.025,0.027000000000000003,0.027999999999999997,0.028999999999999998,0.031,0.031,0.031,0.031,0.031,0.032,0.033,0.033,0.033,0.032,0.031,0.031,0.031,0.03,0.028999999999999998,0.028999999999999998,0.027999999999999997,0.027999999999999997,0.027000000000000003,0.027000000000000003,0.027000000000000003,0.026000000000000002,0.025,0.024,0.024,0.023,0.021,0.021,0.02,0.019,0.018000000000000002,0.018000000000000002,0.017,0.017,0.017,0.016,0.016,0.015,0.013999999999999999,0.012,0.011000000000000001,0.011000000000000001,0.011000000000000001,0.013000000000000001,0.013999999999999999,0.017,0.02,0.021,0.022000000000000002,0.022000000000000002,0.021,0.02,0.019,0.018000000000000002,0.016,0.015,0.013999999999999999,0.013999999999999999,0.013999999999999999,0.015,0.017,0.018000000000000002,0.019,0.02,0.021,0.023,0.025,0.028999999999999998,0.032,0.035,0.037000000000000005,0.040999999999999995,0.044000000000000004,0.049,0.054000000000000006,0.06,0.066,0.07,0.07400000000000001,0.076,0.079,0.08,0.081,0.08199999999999999,0.08199999999999999,0.084,0.086,0.08800000000000001,0.091,0.092,0.09300000000000001,0.09300000000000001,0.092,0.09,0.08800000000000001,0.087,0.086,0.086,0.086,0.087,0.087,0.08800000000000001,0.08800000000000001,0.08800000000000001,0.08800000000000001,0.087,0.085,0.08199999999999999,0.079,0.075,0.07,0.065,0.059000000000000004,0.055,0.05,0.045,0.04,0.033,0.027000000000000003,0.02,0.013999999999999999,0.006999999999999999,0.0,-0.006,-0.011000000000000001,-0.016,-0.02,-0.022000000000000002,-0.024,-0.025,-0.025,-0.026000000000000002,-0.026000000000000002,-0.027000000000000003,-0.027999999999999997,-0.028999999999999998,-0.031,-0.031,-0.031,-0.031,-0.031,-0.03,-0.03,-0.028999999999999998,-0.028999999999999998,-0.03,-0.031,-0.03,-0.03,-0.027000000000000003,-0.024,-0.021,-0.017,-0.008,0.0,0.013999999999999999,0.027999999999999997,0.05,0.07200000000000001,0.1,0.129,0.162,0.196,0.22899999999999998,0.262,0.287,0.313,0.326,0.33899999999999997,0.33399999999999996,0.33,0.308,0.28600000000000003,0.249,0.212,0.17,0.127,0.087,0.047,0.013000000000000001,-0.02,-0.047,-0.07400000000000001,-0.096,-0.11800000000000001,-0.136,-0.154,-0.166,-0.17800000000000002,-0.182,-0.187,-0.185,-0.183,-0.177,-0.17,-0.161,-0.152,-0.14300000000000002,-0.133,-0.125,-0.11599999999999999,-0.10800000000000001,-0.10099999999999999,-0.094,-0.087,-0.08199999999999999,-0.077,-0.07400000000000001,-0.07200000000000001,-0.07,-0.068,-0.066,-0.064,-0.063,-0.061,-0.059000000000000004,-0.057999999999999996,-0.055999999999999994,-0.054000000000000006,-0.053,-0.051,-0.05,-0.049,-0.047,-0.045,-0.043,-0.040999999999999995,-0.04,-0.039,-0.038,-0.037000000000000005,-0.037000000000000005,-0.037000000000000005,-0.038,-0.039,-0.039,-0.04,-0.039,-0.039,-0.037000000000000005,-0.035,-0.033,-0.031,-0.028999999999999998,-0.027000000000000003,-0.026000000000000002,-0.025,-0.026000000000000002,-0.026000000000000002,-0.027000000000000003,-0.027000000000000003,-0.027999999999999997,-0.027999999999999997,-0.027999999999999997,-0.027999999999999997,-0.027999999999999997,-0.027999999999999997,-0.027999999999999997,-0.027000000000000003,-0.027000000000000003,-0.026000000000000002,-0.026000000000000002,-0.025,-0.024,-0.024,-0.022000000000000002,-0.02,-0.018000000000000002,-0.015,-0.013000000000000001,-0.011000000000000001,-0.01,-0.008,-0.006,-0.005,-0.003,-0.002,0.0,0.002,0.002,0.003,0.002,0.002,0.001,0.0,-0.0,-0.001,0.0,0.002,0.003,0.005,0.005,0.005,0.003,0.002,-0.0,-0.002,-0.003,-0.005,-0.005,-0.005,-0.006,-0.006,-0.006,-0.005,-0.005,-0.004,-0.005,-0.005,-0.006,-0.006999999999999999,-0.008,-0.008,-0.009000000000000001,-0.009000000000000001,-0.011000000000000001,-0.012,-0.013000000000000001,-0.013999999999999999,-0.016,-0.017,-0.017,-0.018000000000000002,-0.017,-0.016,-0.016,-0.015,-0.016,-0.016,-0.016,-0.017,-0.016,-0.016,-0.015,-0.013999999999999999,-0.013000000000000001,-0.011000000000000001,-0.011000000000000001,-0.01,-0.01,-0.009000000000000001,-0.008,-0.008,-0.006,-0.005,-0.002,0.001,0.003,0.006,0.008,0.01,0.013000000000000001,0.015,0.017,0.019,0.019,0.02,0.019,0.019,0.019,0.02,0.021,0.022000000000000002,0.024,0.025,0.026000000000000002,0.027000000000000003,0.027000000000000003,0.027000000000000003,0.027000000000000003,0.027000000000000003,0.027000000000000003,0.027000000000000003,0.027000000000000003,0.027000000000000003,0.027999999999999997,0.027999999999999997,0.028999999999999998,0.031,0.031,0.031,0.032,0.033,0.033,0.034,0.034,0.034,0.034,0.034,0.034,0.034,0.034,0.034,0.034,0.034,0.034,0.034,0.034,0.034,0.034,0.034,0.034,0.034,0.033,0.033,0.032,0.031,0.027999999999999997,0.026000000000000002,0.024,0.021,0.019,0.017,0.016,0.016,0.017,0.018000000000000002,0.02,0.021,0.022000000000000002,0.023,0.023,0.022000000000000002,0.022000000000000002,0.021,0.021,0.021,0.023,0.025,0.028999999999999998,0.034,0.039,0.043,0.05,0.055999999999999994,0.06,0.065,0.068,0.07,0.07200000000000001,0.073,0.075,0.077,0.081,0.085,0.08900000000000001,0.094,0.098,0.10099999999999999,0.10300000000000001,0.105,0.10400000000000001,0.102,0.098,0.095,0.09,0.085,0.081,0.078,0.078,0.078,0.08,0.08199999999999999,0.084,0.086,0.087,0.08800000000000001,0.085,0.08199999999999999,0.077,0.07200000000000001,0.066,0.059000000000000004,0.054000000000000006,0.048,0.044000000000000004,0.04,0.036000000000000004,0.033,0.027000000000000003,0.022000000000000002,0.015,0.008,0.001,-0.006,-0.013000000000000001,-0.019,-0.023,-0.027000000000000003,-0.028999999999999998,-0.032,-0.035,-0.037000000000000005,-0.039,-0.04,-0.039,-0.039,-0.038,-0.037000000000000005,-0.036000000000000004,-0.036000000000000004,-0.035,-0.034,-0.034,-0.034,-0.033,-0.033,-0.032,-0.031,-0.028999999999999998,-0.027000000000000003,-0.023,-0.018000000000000002,-0.009000000000000001,0.0,0.018000000000000002,0.035,0.06,0.085,0.11699999999999999,0.14800000000000002,0.183,0.21899999999999997,0.252,0.285,0.31,0.336,0.34600000000000003,0.35700000000000004,0.348,0.33899999999999997,0.31,0.282,0.243,0.203,0.159,0.11599999999999999,0.076,0.037000000000000005,0.004,-0.027999999999999997,-0.055,-0.08199999999999999,-0.10400000000000001,-0.127,-0.145,-0.163,-0.17600000000000002,-0.188,-0.19399999999999998,-0.2,-0.19899999999999998,-0.19899999999999998,-0.193,-0.187,-0.177,-0.16699999999999998,-0.157,-0.146,-0.13699999999999998,-0.128,-0.122,-0.115,-0.111,-0.107,-0.105,-0.10400000000000001,-0.10300000000000001,-0.10099999999999999,-0.1,-0.098,-0.096,-0.094,-0.091,-0.08800000000000001,-0.086,-0.084,-0.08199999999999999,-0.08,-0.079,-0.079,-0.078,-0.077,-0.077,-0.076,-0.076,-0.075,-0.07400000000000001,-0.073,-0.073,-0.07200000000000001,-0.07200000000000001,-0.07200000000000001,-0.071,-0.07,-0.068,-0.066,-0.064,-0.061,-0.06,-0.059000000000000004,-0.057999999999999996,-0.057999999999999996,-0.057999999999999996,-0.057999999999999996,-0.057,-0.055999999999999994,-0.055999999999999994,-0.055,-0.054000000000000006,-0.053,-0.053,-0.053,-0.053,-0.053,-0.053,-0.053,-0.053,-0.053,-0.053,-0.053,-0.053,-0.053,-0.051,-0.05,-0.049,-0.047,-0.046,-0.044000000000000004,-0.043,-0.040999999999999995,-0.04,-0.039,-0.037000000000000005,-0.036000000000000004,-0.034,-0.033,-0.032,-0.031,-0.028999999999999998,-0.027999999999999997,-0.027999999999999997,-0.027000000000000003,-0.027999999999999997,-0.028999999999999998,-0.03,-0.031,-0.033,-0.035,-0.037000000000000005,-0.04,-0.042,-0.044000000000000004,-0.046,-0.048,-0.049,-0.05,-0.051,-0.051,-0.05,-0.05,-0.049,-0.048,-0.048,-0.048,-0.05,-0.051,-0.053,-0.054000000000000006,-0.055,-0.055999999999999994,-0.055999999999999994,-0.055999999999999994,-0.055999999999999994,-0.055,-0.054000000000000006,-0.053,-0.053,-0.053,-0.053,-0.054000000000000006,-0.055,-0.055999999999999994,-0.057999999999999996,-0.059000000000000004,-0.061,-0.062,-0.061,-0.061,-0.06,-0.059000000000000004,-0.057,-0.055,-0.054000000000000006,-0.053,-0.051,-0.05,-0.049,-0.048,-0.048,-0.047,-0.047,-0.047,-0.046,-0.045,-0.043,-0.04,-0.038,-0.036000000000000004,-0.033,-0.03,-0.027000000000000003,-0.025,-0.024,-0.022000000000000002,-0.021,-0.019,-0.018000000000000002,-0.017,-0.016,-0.016,-0.015,-0.013999999999999999,-0.012,-0.011000000000000001,-0.009000000000000001,-0.006999999999999999,-0.005,-0.004,-0.003,-0.002,-0.001,0.0,0.002,0.004,0.006,0.009000000000000001,0.011000000000000001,0.013999999999999999,0.015,0.017,0.016,0.016,0.015,0.013999999999999999,0.011000000000000001,0.008,0.005,0.002,0.001,-0.001,-0.001,-0.001,-0.0,0.0,0.0,0.0,-0.0,-0.001,-0.002,-0.003,-0.004,-0.005,-0.005,-0.005,-0.004,-0.003,-0.002,0.0,0.002,0.003,0.004,0.005,0.005,0.005,0.005,0.004,0.005,0.005,0.006999999999999999,0.009000000000000001,0.012,0.015,0.02,0.024,0.03,0.035,0.04,0.044000000000000004,0.048,0.052000000000000005,0.055,0.059000000000000004,0.061,0.063,0.065,0.067,0.069,0.07200000000000001,0.075,0.078,0.08,0.08199999999999999,0.08199999999999999,0.08199999999999999,0.08,0.078,0.07400000000000001,0.07,0.067,0.063,0.062,0.061,0.062,0.063,0.064,0.066,0.066,0.066,0.064,0.063,0.057999999999999996,0.053,0.048,0.043,0.038,0.033,0.027999999999999997,0.023,0.016,0.01,0.002,-0.006,N
6,-0.187,-0.185,-0.183,-0.177,-0.17,-0.161,-0.152,-0.14300000000000002,-0.133,-0.125,-0.11599999999999999,-0.10800000000000001,-0.10099999999999999,-0.094,-0.087,-0.08199999999999999,-0.077,-0.07400000000000001,-0.07200000000000001,-0.07,-0.068,-0.066,-0.064,-0.063,-0.061,-0.059000000000000004,-0.057999999999999996,-0.055999999999999994,-0.054000000000000006,-0.053,-0.051,-0.05,-0.049,-0.047,-0.045,-0.043,-0.040999999999999995,-0.04,-0.039,-0.038,-0.037000000000000005,-0.037000000000000005,-0.037000000000000005,-0.038,-0.039,-0.039,-0.04,-0.039,-0.039,-0.037000000000000005,-0.035,-0.033,-0.031,-0.028999999999999998,-0.027000000000000003,-0.026000000000000002,-0.025,-0.026000000000000002,-0.026000000000000002,-0.027000000000000003,-0.027000000000000003,-0.027999999999999997,-0.027999999999999997,-0.027999999999999997,-0.027999999999999997,-0.027999999999999997,-0.027999999999999997,-0.027999999999999997,-0.027000000000000003,-0.027000000000000003,-0.026000000000000002,-0.026000000000000002,-0.025,-0.024,-0.024,-0.022000000000000002,-0.02,-0.018000000000000002,-0.015,-0.013000000000000001,-0.011000000000000001,-0.01,-0.008,-0.006,-0.005,-0.003,-0.002,0.0,0.002,0.002,0.003,0.002,0.002,0.001,0.0,-0.0,-0.001,0.0,0.002,0.003,0.005,0.005,0.005,0.003,0.002,-0.0,-0.002,-0.003,-0.005,-0.005,-0.005,-0.006,-0.006,-0.006,-0.005,-0.005,-0.004,-0.005,-0.005,-0.006,-0.006999999999999999,-0.008,-0.008,-0.009000000000000001,-0.009000000000000001,-0.011000000000000001,-0.012,-0.013000000000000001,-0.013999999999999999,-0.016,-0.017,-0.017,-0.018000000000000002,-0.017,-0.016,-0.016,-0.015,-0.016,-0.016,-0.016,-0.017,-0.016,-0.016,-0.015,-0.013999999999999999,-0.013000000000000001,-0.011000000000000001,-0.011000000000000001,-0.01,-0.01,-0.009000000000000001,-0.008,-0.008,-0.006,-0.005,-0.002,0.001,0.003,0.006,0.008,0.01,0.013000000000000001,0.015,0.017,0.019,0.019,0.02,0.019,0.019,0.019,0.02,0.021,0.022000000000000002,0.024,0.025,0.026000000000000002,0.027000000000000003,0.027000000000000003,0.027000000000000003,0.027000000000000003,0.027000000000000003,0.027000000000000003,0.027000000000000003,0.027000000000000003,0.027000000000000003,0.027999999999999997,0.027999999999999997,0.028999999999999998,0.031,0.031,0.031,0.032,0.033,0.033,0.034,0.034,0.034,0.034,0.034,0.034,0.034,0.034,0.034,0.034,0.034,0.034,0.034,0.034,0.034,0.034,0.034,0.034,0.034,0.033,0.033,0.032,0.031,0.027999999999999997,0.026000000000000002,0.024,0.021,0.019,0.017,0.016,0.016,0.017,0.018000000000000002,0.02,0.021,0.022000000000000002,0.023,0.023,0.022000000000000002,0.022000000000000002,0.021,0.021,0.021,0.023,0.025,0.028999999999999998,0.034,0.039,0.043,0.05,0.055999999999999994,0.06,0.065,0.068,0.07,0.07200000000000001,0.073,0.075,0.077,0.081,0.085,0.08900000000000001,0.094,0.098,0.10099999999999999,0.10300000000000001,0.105,0.10400000000000001,0.102,0.098,0.095,0.09,0.085,0.081,0.078,0.078,0.078,0.08,0.08199999999999999,0.084,0.086,0.087,0.08800000000000001,0.085,0.08199999999999999,0.077,0.07200000000000001,0.066,0.059000000000000004,0.054000000000000006,0.048,0.044000000000000004,0.04,0.036000000000000004,0.033,0.027000000000000003,0.022000000000000002,0.015,0.008,0.001,-0.006,-0.013000000000000001,-0.019,-0.023,-0.027000000000000003,-0.028999999999999998,-0.032,-0.035,-0.037000000000000005,-0.039,-0.04,-0.039,-0.039,-0.038,-0.037000000000000005,-0.036000000000000004,-0.036000000000000004,-0.035,-0.034,-0.034,-0.034,-0.033,-0.033,-0.032,-0.031,-0.028999999999999998,-0.027000000000000003,-0.023,-0.018000000000000002,-0.009000000000000001,0.0,0.018000000000000002,0.035,0.06,0.085,0.11699999999999999,0.14800000000000002,0.183,0.21899999999999997,0.252,0.285,0.31,0.336,0.34600000000000003,0.35700000000000004,0.348,0.33899999999999997,0.31,0.282,0.243,0.203,0.159,0.11599999999999999,0.076,0.037000000000000005,0.004,-0.027999999999999997,-0.055,-0.08199999999999999,-0.10400000000000001,-0.127,-0.145,-0.163,-0.17600000000000002,-0.188,-0.19399999999999998,-0.2,-0.19899999999999998,-0.19899999999999998,-0.193,-0.187,-0.177,-0.16699999999999998,-0.157,-0.146,-0.13699999999999998,-0.128,-0.122,-0.115,-0.111,-0.107,-0.105,-0.10400000000000001,-0.10300000000000001,-0.10099999999999999,-0.1,-0.098,-0.096,-0.094,-0.091,-0.08800000000000001,-0.086,-0.084,-0.08199999999999999,-0.08,-0.079,-0.079,-0.078,-0.077,-0.077,-0.076,-0.076,-0.075,-0.07400000000000001,-0.073,-0.073,-0.07200000000000001,-0.07200000000000001,-0.07200000000000001,-0.071,-0.07,-0.068,-0.066,-0.064,-0.061,-0.06,-0.059000000000000004,-0.057999999999999996,-0.057999999999999996,-0.057999999999999996,-0.057999999999999996,-0.057,-0.055999999999999994,-0.055999999999999994,-0.055,-0.054000000000000006,-0.053,-0.053,-0.053,-0.053,-0.053,-0.053,-0.053,-0.053,-0.053,-0.053,-0.053,-0.053,-0.053,-0.051,-0.05,-0.049,-0.047,-0.046,-0.044000000000000004,-0.043,-0.040999999999999995,-0.04,-0.039,-0.037000000000000005,-0.036000000000000004,-0.034,-0.033,-0.032,-0.031,-0.028999999999999998,-0.027999999999999997,-0.027999999999999997,-0.027000000000000003,-0.027999999999999997,-0.028999999999999998,-0.03,-0.031,-0.033,-0.035,-0.037000000000000005,-0.04,-0.042,-0.044000000000000004,-0.046,-0.048,-0.049,-0.05,-0.051,-0.051,-0.05,-0.05,-0.049,-0.048,-0.048,-0.048,-0.05,-0.051,-0.053,-0.054000000000000006,-0.055,-0.055999999999999994,-0.055999999999999994,-0.055999999999999994,-0.055999999999999994,-0.055,-0.054000000000000006,-0.053,-0.053,-0.053,-0.053,-0.054000000000000006,-0.055,-0.055999999999999994,-0.057999999999999996,-0.059000000000000004,-0.061,-0.062,-0.061,-0.061,-0.06,-0.059000000000000004,-0.057,-0.055,-0.054000000000000006,-0.053,-0.051,-0.05,-0.049,-0.048,-0.048,-0.047,-0.047,-0.047,-0.046,-0.045,-0.043,-0.04,-0.038,-0.036000000000000004,-0.033,-0.03,-0.027000000000000003,-0.025,-0.024,-0.022000000000000002,-0.021,-0.019,-0.018000000000000002,-0.017,-0.016,-0.016,-0.015,-0.013999999999999999,-0.012,-0.011000000000000001,-0.009000000000000001,-0.006999999999999999,-0.005,-0.004,-0.003,-0.002,-0.001,0.0,0.002,0.004,0.006,0.009000000000000001,0.011000000000000001,0.013999999999999999,0.015,0.017,0.016,0.016,0.015,0.013999999999999999,0.011000000000000001,0.008,0.005,0.002,0.001,-0.001,-0.001,-0.001,-0.0,0.0,0.0,0.0,-0.0,-0.001,-0.002,-0.003,-0.004,-0.005,-0.005,-0.005,-0.004,-0.003,-0.002,0.0,0.002,0.003,0.004,0.005,0.005,0.005,0.005,0.004,0.005,0.005,0.006999999999999999,0.009000000000000001,0.012,0.015,0.02,0.024,0.03,0.035,0.04,0.044000000000000004,0.048,0.052000000000000005,0.055,0.059000000000000004,0.061,0.063,0.065,0.067,0.069,0.07200000000000001,0.075,0.078,0.08,0.08199999999999999,0.08199999999999999,0.08199999999999999,0.08,0.078,0.07400000000000001,0.07,0.067,0.063,0.062,0.061,0.062,0.063,0.064,0.066,0.066,0.066,0.064,0.063,0.057999999999999996,0.053,0.048,0.043,0.038,0.033,0.027999999999999997,0.023,0.016,0.01,0.002,-0.006,-0.013999999999999999,-0.022000000000000002,-0.027999999999999997,-0.034,-0.037000000000000005,-0.04,-0.042,-0.043,-0.045,-0.047,-0.049,-0.051,-0.054000000000000006,-0.057,-0.06,-0.063,-0.064,-0.065,-0.065,-0.065,-0.064,-0.064,-0.064,-0.063,-0.062,-0.06,-0.057999999999999996,-0.055,-0.052000000000000005,-0.05,-0.045,-0.040999999999999995,-0.033,-0.025,-0.011000000000000001,0.003,0.025,0.047,0.077,0.107,0.141,0.175,0.207,0.239,0.264,0.28800000000000003,0.301,0.313,0.307,0.302,0.27899999999999997,0.256,0.22,0.185,0.146,0.106,0.068,0.03,-0.002,-0.034,-0.06,-0.085,-0.106,-0.127,-0.145,-0.162,-0.17600000000000002,-0.18899999999999997,-0.196,-0.203,-0.203,-0.204,-0.19899999999999998,-0.195,-0.18600000000000003,-0.17800000000000002,-0.168,-0.158,-0.14800000000000002,-0.138,-0.129,-0.121,-0.114,-0.107,-0.10300000000000001,-0.099,-0.096,-0.09300000000000001,-0.091,-0.08900000000000001,-0.087,-0.085,-0.083,-0.08,-0.077,-0.07400000000000001,-0.071,-0.068,-0.064,-0.061,-0.057999999999999996,-0.055,-0.053,-0.052000000000000005,-0.051,-0.05,-0.049,-0.048,-0.048,-0.047,-0.047,-0.047,-0.047,-0.046,-0.045,-0.045,-0.044000000000000004,-0.043,-0.043,-0.043,-0.042,-0.040999999999999995,-0.04,-0.039,-0.038,-0.037000000000000005,-0.036000000000000004,-0.036000000000000004,-0.034,-0.032,-0.03,-0.027000000000000003,-0.024,-0.021,-0.018000000000000002,-0.015,-0.013000000000000001,-0.011000000000000001,-0.011000000000000001,-0.011000000000000001,-0.013000000000000001,-0.013999999999999999,-0.013999999999999999,-0.013999999999999999,-0.013999999999999999,-0.013000000000000001,-0.011000000000000001,-0.009000000000000001,-0.006,-0.004,-0.002,0.0,0.001,0.002,0.003,0.004,0.005,0.005,0.006,0.006,0.006999999999999999,0.008,0.008,0.008,0.008,0.008,0.008,0.008,0.008,0.008,0.006,0.005,0.003,0.0,-0.003,-0.006,-0.009000000000000001,-0.012,-0.013999999999999999,-0.015,-0.016,-0.017,-0.017,-0.017,-0.017,-0.017,-0.017,-0.018000000000000002,-0.019,-0.02,-0.022000000000000002,-0.024,-0.024,-0.025,-0.026000000000000002,-0.026000000000000002,-0.025,-0.024,-0.023,-0.022000000000000002,-0.021,-0.02,-0.019,-0.019,-0.019,-0.019,-0.018000000000000002,-0.018000000000000002,-0.017,-0.017,-0.017,-0.017,-0.016,-0.016,-0.015,-0.013999999999999999,-0.012,-0.011000000000000001,-0.009000000000000001,-0.008,-0.006,-0.005,-0.002,0.0,0.002,0.003,0.005,0.008,0.011000000000000001,0.013999999999999999,0.016,0.019,0.021,0.024,0.025,0.027000000000000003,0.027999999999999997,0.03,0.031,0.032,0.033,0.034,0.035,0.036000000000000004,0.036000000000000004,0.037000000000000005,0.036000000000000004,0.035,0.034,0.033,0.032,0.031,0.032,0.034,0.035,0.037000000000000005,0.037000000000000005,0.038,0.037000000000000005,0.037000000000000005,0.035,0.033,0.031,0.03,0.028999999999999998,0.027000000000000003,0.027000000000000003,0.027000000000000003,0.026000000000000002,0.024,0.023,0.021,0.019,0.017,0.015,0.013999999999999999,0.013999999999999999,0.013999999999999999,0.015,0.017,0.018000000000000002,0.02,0.021,0.023,0.023,0.024,0.023,0.022000000000000002,0.021,0.02,0.019,0.019,0.019,0.02,0.021,0.022000000000000002,0.024,0.025,0.027000000000000003,0.028999999999999998,0.032,0.034,0.038,0.040999999999999995,0.045,0.05,0.055,0.06,0.065,0.069,0.07200000000000001,0.075,0.077,0.079,0.08199999999999999,0.085,0.08900000000000001,0.09300000000000001,0.096,0.098,0.1,0.10099999999999999,0.102,0.102,0.10099999999999999,0.099,0.096,0.092,0.08800000000000001,0.083,0.08,0.076,0.076,0.076,0.077,0.078,0.08,0.08199999999999999,0.08199999999999999,0.08199999999999999,0.081,0.079,0.075,0.07,0.064,0.059000000000000004,0.053,0.047,0.040999999999999995,0.035,0.028999999999999998,0.022000000000000002,0.013999999999999999,0.006999999999999999,-0.0,-0.008,-0.013000000000000001,N
7,-0.2,-0.19899999999999998,-0.19899999999999998,-0.193,-0.187,-0.177,-0.16699999999999998,-0.157,-0.146,-0.13699999999999998,-0.128,-0.122,-0.115,-0.111,-0.107,-0.105,-0.10400000000000001,-0.10300000000000001,-0.10099999999999999,-0.1,-0.098,-0.096,-0.094,-0.091,-0.08800000000000001,-0.086,-0.084,-0.08199999999999999,-0.08,-0.079,-0.079,-0.078,-0.077,-0.077,-0.076,-0.076,-0.075,-0.07400000000000001,-0.073,-0.073,-0.07200000000000001,-0.07200000000000001,-0.07200000000000001,-0.071,-0.07,-0.068,-0.066,-0.064,-0.061,-0.06,-0.059000000000000004,-0.057999999999999996,-0.057999999999999996,-0.057999999999999996,-0.057999999999999996,-0.057,-0.055999999999999994,-0.055999999999999994,-0.055,-0.054000000000000006,-0.053,-0.053,-0.053,-0.053,-0.053,-0.053,-0.053,-0.053,-0.053,-0.053,-0.053,-0.053,-0.053,-0.051,-0.05,-0.049,-0.047,-0.046,-0.044000000000000004,-0.043,-0.040999999999999995,-0.04,-0.039,-0.037000000000000005,-0.036000000000000004,-0.034,-0.033,-0.032,-0.031,-0.028999999999999998,-0.027999999999999997,-0.027999999999999997,-0.027000000000000003,-0.027999999999999997,-0.028999999999999998,-0.03,-0.031,-0.033,-0.035,-0.037000000000000005,-0.04,-0.042,-0.044000000000000004,-0.046,-0.048,-0.049,-0.05,-0.051,-0.051,-0.05,-0.05,-0.049,-0.048,-0.048,-0.048,-0.05,-0.051,-0.053,-0.054000000000000006,-0.055,-0.055999999999999994,-0.055999999999999994,-0.055999999999999994,-0.055999999999999994,-0.055,-0.054000000000000006,-0.053,-0.053,-0.053,-0.053,-0.054000000000000006,-0.055,-0.055999999999999994,-0.057999999999999996,-0.059000000000000004,-0.061,-0.062,-0.061,-0.061,-0.06,-0.059000000000000004,-0.057,-0.055,-0.054000000000000006,-0.053,-0.051,-0.05,-0.049,-0.048,-0.048,-0.047,-0.047,-0.047,-0.046,-0.045,-0.043,-0.04,-0.038,-0.036000000000000004,-0.033,-0.03,-0.027000000000000003,-0.025,-0.024,-0.022000000000000002,-0.021,-0.019,-0.018000000000000002,-0.017,-0.016,-0.016,-0.015,-0.013999999999999999,-0.012,-0.011000000000000001,-0.009000000000000001,-0.006999999999999999,-0.005,-0.004,-0.003,-0.002,-0.001,0.0,0.002,0.004,0.006,0.009000000000000001,0.011000000000000001,0.013999999999999999,0.015,0.017,0.016,0.016,0.015,0.013999999999999999,0.011000000000000001,0.008,0.005,0.002,0.001,-0.001,-0.001,-0.001,-0.0,0.0,0.0,0.0,-0.0,-0.001,-0.002,-0.003,-0.004,-0.005,-0.005,-0.005,-0.004,-0.003,-0.002,0.0,0.002,0.003,0.004,0.005,0.005,0.005,0.005,0.004,0.005,0.005,0.006999999999999999,0.009000000000000001,0.012,0.015,0.02,0.024,0.03,0.035,0.04,0.044000000000000004,0.048,0.052000000000000005,0.055,0.059000000000000004,0.061,0.063,0.065,0.067,0.069,0.07200000000000001,0.075,0.078,0.08,0.08199999999999999,0.08199999999999999,0.08199999999999999,0.08,0.078,0.07400000000000001,0.07,0.067,0.063,0.062,0.061,0.062,0.063,0.064,0.066,0.066,0.066,0.064,0.063,0.057999999999999996,0.053,0.048,0.043,0.038,0.033,0.027999999999999997,0.023,0.016,0.01,0.002,-0.006,-0.013999999999999999,-0.022000000000000002,-0.027999999999999997,-0.034,-0.037000000000000005,-0.04,-0.042,-0.043,-0.045,-0.047,-0.049,-0.051,-0.054000000000000006,-0.057,-0.06,-0.063,-0.064,-0.065,-0.065,-0.065,-0.064,-0.064,-0.064,-0.063,-0.062,-0.06,-0.057999999999999996,-0.055,-0.052000000000000005,-0.05,-0.045,-0.040999999999999995,-0.033,-0.025,-0.011000000000000001,0.003,0.025,0.047,0.077,0.107,0.141,0.175,0.207,0.239,0.264,0.28800000000000003,0.301,0.313,0.307,0.302,0.27899999999999997,0.256,0.22,0.185,0.146,0.106,0.068,0.03,-0.002,-0.034,-0.06,-0.085,-0.106,-0.127,-0.145,-0.162,-0.17600000000000002,-0.18899999999999997,-0.196,-0.203,-0.203,-0.204,-0.19899999999999998,-0.195,-0.18600000000000003,-0.17800000000000002,-0.168,-0.158,-0.14800000000000002,-0.138,-0.129,-0.121,-0.114,-0.107,-0.10300000000000001,-0.099,-0.096,-0.09300000000000001,-0.091,-0.08900000000000001,-0.087,-0.085,-0.083,-0.08,-0.077,-0.07400000000000001,-0.071,-0.068,-0.064,-0.061,-0.057999999999999996,-0.055,-0.053,-0.052000000000000005,-0.051,-0.05,-0.049,-0.048,-0.048,-0.047,-0.047,-0.047,-0.047,-0.046,-0.045,-0.045,-0.044000000000000004,-0.043,-0.043,-0.043,-0.042,-0.040999999999999995,-0.04,-0.039,-0.038,-0.037000000000000005,-0.036000000000000004,-0.036000000000000004,-0.034,-0.032,-0.03,-0.027000000000000003,-0.024,-0.021,-0.018000000000000002,-0.015,-0.013000000000000001,-0.011000000000000001,-0.011000000000000001,-0.011000000000000001,-0.013000000000000001,-0.013999999999999999,-0.013999999999999999,-0.013999999999999999,-0.013999999999999999,-0.013000000000000001,-0.011000000000000001,-0.009000000000000001,-0.006,-0.004,-0.002,0.0,0.001,0.002,0.003,0.004,0.005,0.005,0.006,0.006,0.006999999999999999,0.008,0.008,0.008,0.008,0.008,0.008,0.008,0.008,0.008,0.006,0.005,0.003,0.0,-0.003,-0.006,-0.009000000000000001,-0.012,-0.013999999999999999,-0.015,-0.016,-0.017,-0.017,-0.017,-0.017,-0.017,-0.017,-0.018000000000000002,-0.019,-0.02,-0.022000000000000002,-0.024,-0.024,-0.025,-0.026000000000000002,-0.026000000000000002,-0.025,-0.024,-0.023,-0.022000000000000002,-0.021,-0.02,-0.019,-0.019,-0.019,-0.019,-0.018000000000000002,-0.018000000000000002,-0.017,-0.017,-0.017,-0.017,-0.016,-0.016,-0.015,-0.013999999999999999,-0.012,-0.011000000000000001,-0.009000000000000001,-0.008,-0.006,-0.005,-0.002,0.0,0.002,0.003,0.005,0.008,0.011000000000000001,0.013999999999999999,0.016,0.019,0.021,0.024,0.025,0.027000000000000003,0.027999999999999997,0.03,0.031,0.032,0.033,0.034,0.035,0.036000000000000004,0.036000000000000004,0.037000000000000005,0.036000000000000004,0.035,0.034,0.033,0.032,0.031,0.032,0.034,0.035,0.037000000000000005,0.037000000000000005,0.038,0.037000000000000005,0.037000000000000005,0.035,0.033,0.031,0.03,0.028999999999999998,0.027000000000000003,0.027000000000000003,0.027000000000000003,0.026000000000000002,0.024,0.023,0.021,0.019,0.017,0.015,0.013999999999999999,0.013999999999999999,0.013999999999999999,0.015,0.017,0.018000000000000002,0.02,0.021,0.023,0.023,0.024,0.023,0.022000000000000002,0.021,0.02,0.019,0.019,0.019,0.02,0.021,0.022000000000000002,0.024,0.025,0.027000000000000003,0.028999999999999998,0.032,0.034,0.038,0.040999999999999995,0.045,0.05,0.055,0.06,0.065,0.069,0.07200000000000001,0.075,0.077,0.079,0.08199999999999999,0.085,0.08900000000000001,0.09300000000000001,0.096,0.098,0.1,0.10099999999999999,0.102,0.102,0.10099999999999999,0.099,0.096,0.092,0.08800000000000001,0.083,0.08,0.076,0.076,0.076,0.077,0.078,0.08,0.08199999999999999,0.08199999999999999,0.08199999999999999,0.081,0.079,0.075,0.07,0.064,0.059000000000000004,0.053,0.047,0.040999999999999995,0.035,0.028999999999999998,0.022000000000000002,0.013999999999999999,0.006999999999999999,-0.0,-0.008,-0.013000000000000001,-0.019,-0.021,-0.024,-0.025,-0.026000000000000002,-0.027000000000000003,-0.028999999999999998,-0.03,-0.031,-0.033,-0.034,-0.035,-0.037000000000000005,-0.037000000000000005,-0.037000000000000005,-0.037000000000000005,-0.037000000000000005,-0.037000000000000005,-0.037000000000000005,-0.037000000000000005,-0.037000000000000005,-0.037000000000000005,-0.037000000000000005,-0.036000000000000004,-0.035,-0.032,-0.028999999999999998,-0.024,-0.018000000000000002,-0.006999999999999999,0.004,0.022000000000000002,0.04,0.066,0.091,0.122,0.154,0.188,0.223,0.253,0.28300000000000003,0.303,0.32299999999999995,0.327,0.332,0.318,0.304,0.273,0.243,0.201,0.16,0.11800000000000001,0.076,0.039,0.002,-0.026000000000000002,-0.054000000000000006,-0.075,-0.096,-0.113,-0.13,-0.14400000000000002,-0.158,-0.16699999999999998,-0.17600000000000002,-0.179,-0.182,-0.17800000000000002,-0.175,-0.168,-0.162,-0.153,-0.14400000000000002,-0.135,-0.125,-0.11699999999999999,-0.10800000000000001,-0.10099999999999999,-0.094,-0.08800000000000001,-0.083,-0.08,-0.076,-0.07400000000000001,-0.07200000000000001,-0.07,-0.068,-0.066,-0.064,-0.063,-0.061,-0.059000000000000004,-0.057,-0.055,-0.052000000000000005,-0.05,-0.047,-0.045,-0.043,-0.042,-0.040999999999999995,-0.04,-0.039,-0.037000000000000005,-0.035,-0.033,-0.031,-0.031,-0.031,-0.031,-0.031,-0.032,-0.033,-0.033,-0.034,-0.033,-0.033,-0.03,-0.027000000000000003,-0.024,-0.021,-0.019,-0.016,-0.015,-0.013999999999999999,-0.013999999999999999,-0.013999999999999999,-0.013999999999999999,-0.013999999999999999,-0.013000000000000001,-0.011000000000000001,-0.01,-0.008,-0.006,-0.005,-0.003,-0.001,0.0,0.001,0.002,0.002,0.002,0.002,0.003,0.003,0.004,0.005,0.006,0.006999999999999999,0.008,0.008,0.01,0.011000000000000001,0.011000000000000001,0.012,0.013000000000000001,0.013000000000000001,0.013999999999999999,0.013999999999999999,0.013999999999999999,0.013999999999999999,0.016,0.017,0.018000000000000002,0.019,0.019,0.02,0.019,0.018000000000000002,0.017,0.016,0.013999999999999999,0.013000000000000001,0.01,0.006999999999999999,0.004,0.001,-0.002,-0.005,-0.006999999999999999,-0.009000000000000001,-0.01,-0.011000000000000001,-0.011000000000000001,-0.011000000000000001,-0.011000000000000001,-0.011000000000000001,-0.011000000000000001,-0.011000000000000001,-0.012,-0.012,-0.013000000000000001,-0.013999999999999999,-0.013999999999999999,-0.015,-0.016,-0.017,-0.016,-0.016,-0.015,-0.013999999999999999,-0.012,-0.011000000000000001,-0.008,-0.006,-0.003,0.0,0.003,0.006,0.006999999999999999,0.008,0.008,0.008,0.006,0.005,0.004,0.002,0.003,0.003,0.005,0.006,0.009000000000000001,0.012,0.015,0.018000000000000002,0.02,0.022000000000000002,0.023,0.024,0.024,0.025,0.027000000000000003,0.027999999999999997,0.03,0.031,0.032,0.034,0.035,0.037000000000000005,0.039,0.040999999999999995,0.042,0.042,0.042,0.040999999999999995,0.04,0.04,0.039,0.037000000000000005,0.037000000000000005,0.037000000000000005,0.036000000000000004,0.036000000000000004,0.036000000000000004,0.036000000000000004,0.035,0.035,0.034,0.033,0.031,0.027999999999999997,0.026000000000000002,0.023,0.022000000000000002,0.021,0.02,0.02,0.02,0.02,0.021,0.021,0.022000000000000002,0.022000000000000002,0.022000000000000002,0.022000000000000002,0.022000000000000002,0.022000000000000002,0.022000000000000002,0.022000000000000002,0.023,0.023,0.024,0.024,0.025,0.026000000000000002,0.026000000000000002,0.027000000000000003,0.026000000000000002,0.025,0.024,0.023,0.021,0.02,0.019,0.019,0.02,0.021,0.024,0.027000000000000003,0.032,0.038,0.044000000000000004,0.05,0.057,0.063,0.068,0.073,0.077,0.08,0.083,0.085,0.08800000000000001,0.09,0.09300000000000001,0.09699999999999999,0.1,0.10300000000000001,0.105,0.106,0.105,0.105,0.10099999999999999,0.098,0.09300000000000001,0.08800000000000001,0.083,0.079,0.077,0.076,0.077,0.079,0.08199999999999999,0.085,0.08800000000000001,0.092,0.092,0.092,0.09,0.087,0.08199999999999999,0.077,0.071,0.066,0.059000000000000004,0.052000000000000005,0.043,0.035,0.027000000000000003,0.019,0.012,0.005,-0.002,-0.008,-0.013999999999999999,-0.019,-0.023,-0.026000000000000002,-0.027000000000000003,-0.028999999999999998,-0.031,N
8,-0.196,-0.203,-0.203,-0.204,-0.19899999999999998,-0.195,-0.18600000000000003,-0.17800000000000002,-0.168,-0.158,-0.14800000000000002,-0.138,-0.129,-0.121,-0.114,-0.107,-0.10300000000000001,-0.099,-0.096,-0.09300000000000001,-0.091,-0.08900000000000001,-0.087,-0.085,-0.083,-0.08,-0.077,-0.07400000000000001,-0.071,-0.068,-0.064,-0.061,-0.057999999999999996,-0.055,-0.053,-0.052000000000000005,-0.051,-0.05,-0.049,-0.048,-0.048,-0.047,-0.047,-0.047,-0.047,-0.046,-0.045,-0.045,-0.044000000000000004,-0.043,-0.043,-0.043,-0.042,-0.040999999999999995,-0.04,-0.039,-0.038,-0.037000000000000005,-0.036000000000000004,-0.036000000000000004,-0.034,-0.032,-0.03,-0.027000000000000003,-0.024,-0.021,-0.018000000000000002,-0.015,-0.013000000000000001,-0.011000000000000001,-0.011000000000000001,-0.011000000000000001,-0.013000000000000001,-0.013999999999999999,-0.013999999999999999,-0.013999999999999999,-0.013999999999999999,-0.013000000000000001,-0.011000000000000001,-0.009000000000000001,-0.006,-0.004,-0.002,0.0,0.001,0.002,0.003,0.004,0.005,0.005,0.006,0.006,0.006999999999999999,0.008,0.008,0.008,0.008,0.008,0.008,0.008,0.008,0.008,0.006,0.005,0.003,0.0,-0.003,-0.006,-0.009000000000000001,-0.012,-0.013999999999999999,-0.015,-0.016,-0.017,-0.017,-0.017,-0.017,-0.017,-0.017,-0.018000000000000002,-0.019,-0.02,-0.022000000000000002,-0.024,-0.024,-0.025,-0.026000000000000002,-0.026000000000000002,-0.025,-0.024,-0.023,-0.022000000000000002,-0.021,-0.02,-0.019,-0.019,-0.019,-0.019,-0.018000000000000002,-0.018000000000000002,-0.017,-0.017,-0.017,-0.017,-0.016,-0.016,-0.015,-0.013999999999999999,-0.012,-0.011000000000000001,-0.009000000000000001,-0.008,-0.006,-0.005,-0.002,0.0,0.002,0.003,0.005,0.008,0.011000000000000001,0.013999999999999999,0.016,0.019,0.021,0.024,0.025,0.027000000000000003,0.027999999999999997,0.03,0.031,0.032,0.033,0.034,0.035,0.036000000000000004,0.036000000000000004,0.037000000000000005,0.036000000000000004,0.035,0.034,0.033,0.032,0.031,0.032,0.034,0.035,0.037000000000000005,0.037000000000000005,0.038,0.037000000000000005,0.037000000000000005,0.035,0.033,0.031,0.03,0.028999999999999998,0.027000000000000003,0.027000000000000003,0.027000000000000003,0.026000000000000002,0.024,0.023,0.021,0.019,0.017,0.015,0.013999999999999999,0.013999999999999999,0.013999999999999999,0.015,0.017,0.018000000000000002,0.02,0.021,0.023,0.023,0.024,0.023,0.022000000000000002,0.021,0.02,0.019,0.019,0.019,0.02,0.021,0.022000000000000002,0.024,0.025,0.027000000000000003,0.028999999999999998,0.032,0.034,0.038,0.040999999999999995,0.045,0.05,0.055,0.06,0.065,0.069,0.07200000000000001,0.075,0.077,0.079,0.08199999999999999,0.085,0.08900000000000001,0.09300000000000001,0.096,0.098,0.1,0.10099999999999999,0.102,0.102,0.10099999999999999,0.099,0.096,0.092,0.08800000000000001,0.083,0.08,0.076,0.076,0.076,0.077,0.078,0.08,0.08199999999999999,0.08199999999999999,0.08199999999999999,0.081,0.079,0.075,0.07,0.064,0.059000000000000004,0.053,0.047,0.040999999999999995,0.035,0.028999999999999998,0.022000000000000002,0.013999999999999999,0.006999999999999999,-0.0,-0.008,-0.013000000000000001,-0.019,-0.021,-0.024,-0.025,-0.026000000000000002,-0.027000000000000003,-0.028999999999999998,-0.03,-0.031,-0.033,-0.034,-0.035,-0.037000000000000005,-0.037000000000000005,-0.037000000000000005,-0.037000000000000005,-0.037000000000000005,-0.037000000000000005,-0.037000000000000005,-0.037000000000000005,-0.037000000000000005,-0.037000000000000005,-0.037000000000000005,-0.036000000000000004,-0.035,-0.032,-0.028999999999999998,-0.024,-0.018000000000000002,-0.006999999999999999,0.004,0.022000000000000002,0.04,0.066,0.091,0.122,0.154,0.188,0.223,0.253,0.28300000000000003,0.303,0.32299999999999995,0.327,0.332,0.318,0.304,0.273,0.243,0.201,0.16,0.11800000000000001,0.076,0.039,0.002,-0.026000000000000002,-0.054000000000000006,-0.075,-0.096,-0.113,-0.13,-0.14400000000000002,-0.158,-0.16699999999999998,-0.17600000000000002,-0.179,-0.182,-0.17800000000000002,-0.175,-0.168,-0.162,-0.153,-0.14400000000000002,-0.135,-0.125,-0.11699999999999999,-0.10800000000000001,-0.10099999999999999,-0.094,-0.08800000000000001,-0.083,-0.08,-0.076,-0.07400000000000001,-0.07200000000000001,-0.07,-0.068,-0.066,-0.064,-0.063,-0.061,-0.059000000000000004,-0.057,-0.055,-0.052000000000000005,-0.05,-0.047,-0.045,-0.043,-0.042,-0.040999999999999995,-0.04,-0.039,-0.037000000000000005,-0.035,-0.033,-0.031,-0.031,-0.031,-0.031,-0.031,-0.032,-0.033,-0.033,-0.034,-0.033,-0.033,-0.03,-0.027000000000000003,-0.024,-0.021,-0.019,-0.016,-0.015,-0.013999999999999999,-0.013999999999999999,-0.013999999999999999,-0.013999999999999999,-0.013999999999999999,-0.013000000000000001,-0.011000000000000001,-0.01,-0.008,-0.006,-0.005,-0.003,-0.001,0.0,0.001,0.002,0.002,0.002,0.002,0.003,0.003,0.004,0.005,0.006,0.006999999999999999,0.008,0.008,0.01,0.011000000000000001,0.011000000000000001,0.012,0.013000000000000001,0.013000000000000001,0.013999999999999999,0.013999999999999999,0.013999999999999999,0.013999999999999999,0.016,0.017,0.018000000000000002,0.019,0.019,0.02,0.019,0.018000000000000002,0.017,0.016,0.013999999999999999,0.013000000000000001,0.01,0.006999999999999999,0.004,0.001,-0.002,-0.005,-0.006999999999999999,-0.009000000000000001,-0.01,-0.011000000000000001,-0.011000000000000001,-0.011000000000000001,-0.011000000000000001,-0.011000000000000001,-0.011000000000000001,-0.011000000000000001,-0.012,-0.012,-0.013000000000000001,-0.013999999999999999,-0.013999999999999999,-0.015,-0.016,-0.017,-0.016,-0.016,-0.015,-0.013999999999999999,-0.012,-0.011000000000000001,-0.008,-0.006,-0.003,0.0,0.003,0.006,0.006999999999999999,0.008,0.008,0.008,0.006,0.005,0.004,0.002,0.003,0.003,0.005,0.006,0.009000000000000001,0.012,0.015,0.018000000000000002,0.02,0.022000000000000002,0.023,0.024,0.024,0.025,0.027000000000000003,0.027999999999999997,0.03,0.031,0.032,0.034,0.035,0.037000000000000005,0.039,0.040999999999999995,0.042,0.042,0.042,0.040999999999999995,0.04,0.04,0.039,0.037000000000000005,0.037000000000000005,0.037000000000000005,0.036000000000000004,0.036000000000000004,0.036000000000000004,0.036000000000000004,0.035,0.035,0.034,0.033,0.031,0.027999999999999997,0.026000000000000002,0.023,0.022000000000000002,0.021,0.02,0.02,0.02,0.02,0.021,0.021,0.022000000000000002,0.022000000000000002,0.022000000000000002,0.022000000000000002,0.022000000000000002,0.022000000000000002,0.022000000000000002,0.022000000000000002,0.023,0.023,0.024,0.024,0.025,0.026000000000000002,0.026000000000000002,0.027000000000000003,0.026000000000000002,0.025,0.024,0.023,0.021,0.02,0.019,0.019,0.02,0.021,0.024,0.027000000000000003,0.032,0.038,0.044000000000000004,0.05,0.057,0.063,0.068,0.073,0.077,0.08,0.083,0.085,0.08800000000000001,0.09,0.09300000000000001,0.09699999999999999,0.1,0.10300000000000001,0.105,0.106,0.105,0.105,0.10099999999999999,0.098,0.09300000000000001,0.08800000000000001,0.083,0.079,0.077,0.076,0.077,0.079,0.08199999999999999,0.085,0.08800000000000001,0.092,0.092,0.092,0.09,0.087,0.08199999999999999,0.077,0.071,0.066,0.059000000000000004,0.052000000000000005,0.043,0.035,0.027000000000000003,0.019,0.012,0.005,-0.002,-0.008,-0.013999999999999999,-0.019,-0.023,-0.026000000000000002,-0.027000000000000003,-0.028999999999999998,-0.031,-0.032,-0.034,-0.037000000000000005,-0.038,-0.04,-0.039,-0.039,-0.037000000000000005,-0.036000000000000004,-0.034,-0.032,-0.031,-0.028999999999999998,-0.027999999999999997,-0.027000000000000003,-0.027999999999999997,-0.027999999999999997,-0.027999999999999997,-0.027000000000000003,-0.026000000000000002,-0.024,-0.018000000000000002,-0.012,-0.002,0.008,0.026000000000000002,0.043,0.067,0.091,0.12300000000000001,0.155,0.19,0.226,0.257,0.289,0.31,0.331,0.336,0.341,0.327,0.313,0.282,0.252,0.212,0.172,0.131,0.09,0.054000000000000006,0.018000000000000002,-0.011000000000000001,-0.04,-0.065,-0.08900000000000001,-0.11,-0.131,-0.14800000000000002,-0.165,-0.175,-0.185,-0.18600000000000003,-0.188,-0.184,-0.18,-0.172,-0.16399999999999998,-0.154,-0.14400000000000002,-0.134,-0.124,-0.113,-0.10300000000000001,-0.094,-0.085,-0.08,-0.07400000000000001,-0.07,-0.066,-0.063,-0.06,-0.059000000000000004,-0.057999999999999996,-0.057,-0.055999999999999994,-0.055999999999999994,-0.055999999999999994,-0.055999999999999994,-0.055999999999999994,-0.055,-0.055,-0.054000000000000006,-0.053,-0.051,-0.049,-0.047,-0.045,-0.043,-0.040999999999999995,-0.04,-0.039,-0.037000000000000005,-0.035,-0.033,-0.031,-0.028999999999999998,-0.027000000000000003,-0.026000000000000002,-0.024,-0.024,-0.023,-0.022000000000000002,-0.021,-0.021,-0.021,-0.019,-0.018000000000000002,-0.016,-0.015,-0.013999999999999999,-0.012,-0.011000000000000001,-0.009000000000000001,-0.008,-0.006999999999999999,-0.006,-0.005,-0.004,-0.002,-0.001,0.0,0.001,0.002,0.003,0.004,0.005,0.005,0.006,0.006,0.008,0.009000000000000001,0.011000000000000001,0.013999999999999999,0.016,0.018000000000000002,0.018000000000000002,0.019,0.019,0.02,0.019,0.019,0.019,0.019,0.019,0.018000000000000002,0.018000000000000002,0.018000000000000002,0.018000000000000002,0.019,0.019,0.02,0.019,0.019,0.019,0.018000000000000002,0.017,0.015,0.013000000000000001,0.011000000000000001,0.009000000000000001,0.006999999999999999,0.005,0.003,0.002,0.001,0.0,-0.001,-0.002,-0.004,-0.005,-0.005,-0.006,-0.006999999999999999,-0.008,-0.008,-0.009000000000000001,-0.009000000000000001,-0.01,-0.011000000000000001,-0.012,-0.012,-0.013000000000000001,-0.013999999999999999,-0.013999999999999999,-0.013999999999999999,-0.013000000000000001,-0.011000000000000001,-0.009000000000000001,-0.006999999999999999,-0.005,-0.002,0.0,0.003,0.005,0.006999999999999999,0.009000000000000001,0.011000000000000001,0.013000000000000001,0.013999999999999999,0.016,0.018000000000000002,0.018000000000000002,0.018000000000000002,0.018000000000000002,0.017,0.015,0.013999999999999999,0.013000000000000001,0.011000000000000001,0.013000000000000001,0.013999999999999999,0.018000000000000002,0.021,0.023,0.026000000000000002,0.028999999999999998,0.032,0.034,0.036000000000000004,0.036000000000000004,0.037000000000000005,0.036000000000000004,0.036000000000000004,0.036000000000000004,0.037000000000000005,0.037000000000000005,0.038,0.039,0.04,0.04,0.04,0.040999999999999995,0.042,0.043,0.045,0.046,0.047,0.047,0.046,0.043,0.040999999999999995,0.038,0.035,0.032,0.03,0.027999999999999997,0.027000000000000003,0.026000000000000002,0.025,0.024,0.024,0.023,0.022000000000000002,0.022000000000000002,0.021,0.02,0.019,0.018000000000000002,0.017,0.017,0.017,0.018000000000000002,0.02,0.021,0.023,0.024,0.026000000000000002,0.027999999999999997,0.03,0.03,0.031,0.028999999999999998,0.027000000000000003,0.026000000000000002,0.024,0.023,0.022000000000000002,0.023,0.023,0.024,0.026000000000000002,0.027999999999999997,0.031,0.033,0.036000000000000004,0.04,0.044000000000000004,0.05,0.055,0.06,0.066,0.07,0.07400000000000001,0.076,0.079,0.08,0.08199999999999999,0.083,0.085,0.087,0.09,0.09300000000000001,0.09699999999999999,0.1,0.102,0.102,0.102,0.1,0.09699999999999999,0.09300000000000001,0.08900000000000001,0.085,0.081,0.079,0.077,0.078,0.079,0.083,0.087,0.091,0.095,0.094,0.09300000000000001,0.08800000000000001,0.084,0.077,0.07,0.064,0.057999999999999996,0.053,0.047,0.042,0.036000000000000004,0.028999999999999998,0.021,0.013000000000000001,0.005,-0.003,-0.011000000000000001,-0.016,-0.022000000000000002,-0.026000000000000002,-0.028999999999999998,N
9,-0.17600000000000002,-0.179,-0.182,-0.17800000000000002,-0.175,-0.168,-0.162,-0.153,-0.14400000000000002,-0.135,-0.125,-0.11699999999999999,-0.10800000000000001,-0.10099999999999999,-0.094,-0.08800000000000001,-0.083,-0.08,-0.076,-0.07400000000000001,-0.07200000000000001,-0.07,-0.068,-0.066,-0.064,-0.063,-0.061,-0.059000000000000004,-0.057,-0.055,-0.052000000000000005,-0.05,-0.047,-0.045,-0.043,-0.042,-0.040999999999999995,-0.04,-0.039,-0.037000000000000005,-0.035,-0.033,-0.031,-0.031,-0.031,-0.031,-0.031,-0.032,-0.033,-0.033,-0.034,-0.033,-0.033,-0.03,-0.027000000000000003,-0.024,-0.021,-0.019,-0.016,-0.015,-0.013999999999999999,-0.013999999999999999,-0.013999999999999999,-0.013999999999999999,-0.013999999999999999,-0.013000000000000001,-0.011000000000000001,-0.01,-0.008,-0.006,-0.005,-0.003,-0.001,0.0,0.001,0.002,0.002,0.002,0.002,0.003,0.003,0.004,0.005,0.006,0.006999999999999999,0.008,0.008,0.01,0.011000000000000001,0.011000000000000001,0.012,0.013000000000000001,0.013000000000000001,0.013999999999999999,0.013999999999999999,0.013999999999999999,0.013999999999999999,0.016,0.017,0.018000000000000002,0.019,0.019,0.02,0.019,0.018000000000000002,0.017,0.016,0.013999999999999999,0.013000000000000001,0.01,0.006999999999999999,0.004,0.001,-0.002,-0.005,-0.006999999999999999,-0.009000000000000001,-0.01,-0.011000000000000001,-0.011000000000000001,-0.011000000000000001,-0.011000000000000001,-0.011000000000000001,-0.011000000000000001,-0.011000000000000001,-0.012,-0.012,-0.013000000000000001,-0.013999999999999999,-0.013999999999999999,-0.015,-0.016,-0.017,-0.016,-0.016,-0.015,-0.013999999999999999,-0.012,-0.011000000000000001,-0.008,-0.006,-0.003,0.0,0.003,0.006,0.006999999999999999,0.008,0.008,0.008,0.006,0.005,0.004,0.002,0.003,0.003,0.005,0.006,0.009000000000000001,0.012,0.015,0.018000000000000002,0.02,0.022000000000000002,0.023,0.024,0.024,0.025,0.027000000000000003,0.027999999999999997,0.03,0.031,0.032,0.034,0.035,0.037000000000000005,0.039,0.040999999999999995,0.042,0.042,0.042,0.040999999999999995,0.04,0.04,0.039,0.037000000000000005,0.037000000000000005,0.037000000000000005,0.036000000000000004,0.036000000000000004,0.036000000000000004,0.036000000000000004,0.035,0.035,0.034,0.033,0.031,0.027999999999999997,0.026000000000000002,0.023,0.022000000000000002,0.021,0.02,0.02,0.02,0.02,0.021,0.021,0.022000000000000002,0.022000000000000002,0.022000000000000002,0.022000000000000002,0.022000000000000002,0.022000000000000002,0.022000000000000002,0.022000000000000002,0.023,0.023,0.024,0.024,0.025,0.026000000000000002,0.026000000000000002,0.027000000000000003,0.026000000000000002,0.025,0.024,0.023,0.021,0.02,0.019,0.019,0.02,0.021,0.024,0.027000000000000003,0.032,0.038,0.044000000000000004,0.05,0.057,0.063,0.068,0.073,0.077,0.08,0.083,0.085,0.08800000000000001,0.09,0.09300000000000001,0.09699999999999999,0.1,0.10300000000000001,0.105,0.106,0.105,0.105,0.10099999999999999,0.098,0.09300000000000001,0.08800000000000001,0.083,0.079,0.077,0.076,0.077,0.079,0.08199999999999999,0.085,0.08800000000000001,0.092,0.092,0.092,0.09,0.087,0.08199999999999999,0.077,0.071,0.066,0.059000000000000004,0.052000000000000005,0.043,0.035,0.027000000000000003,0.019,0.012,0.005,-0.002,-0.008,-0.013999999999999999,-0.019,-0.023,-0.026000000000000002,-0.027000000000000003,-0.028999999999999998,-0.031,-0.032,-0.034,-0.037000000000000005,-0.038,-0.04,-0.039,-0.039,-0.037000000000000005,-0.036000000000000004,-0.034,-0.032,-0.031,-0.028999999999999998,-0.027999999999999997,-0.027000000000000003,-0.027999999999999997,-0.027999999999999997,-0.027999999999999997,-0.027000000000000003,-0.026000000000000002,-0.024,-0.018000000000000002,-0.012,-0.002,0.008,0.026000000000000002,0.043,0.067,0.091,0.12300000000000001,0.155,0.19,0.226,0.257,0.289,0.31,0.331,0.336,0.341,0.327,0.313,0.282,0.252,0.212,0.172,0.131,0.09,0.054000000000000006,0.018000000000000002,-0.011000000000000001,-0.04,-0.065,-0.08900000000000001,-0.11,-0.131,-0.14800000000000002,-0.165,-0.175,-0.185,-0.18600000000000003,-0.188,-0.184,-0.18,-0.172,-0.16399999999999998,-0.154,-0.14400000000000002,-0.134,-0.124,-0.113,-0.10300000000000001,-0.094,-0.085,-0.08,-0.07400000000000001,-0.07,-0.066,-0.063,-0.06,-0.059000000000000004,-0.057999999999999996,-0.057,-0.055999999999999994,-0.055999999999999994,-0.055999999999999994,-0.055999999999999994,-0.055999999999999994,-0.055,-0.055,-0.054000000000000006,-0.053,-0.051,-0.049,-0.047,-0.045,-0.043,-0.040999999999999995,-0.04,-0.039,-0.037000000000000005,-0.035,-0.033,-0.031,-0.028999999999999998,-0.027000000000000003,-0.026000000000000002,-0.024,-0.024,-0.023,-0.022000000000000002,-0.021,-0.021,-0.021,-0.019,-0.018000000000000002,-0.016,-0.015,-0.013999999999999999,-0.012,-0.011000000000000001,-0.009000000000000001,-0.008,-0.006999999999999999,-0.006,-0.005,-0.004,-0.002,-0.001,0.0,0.001,0.002,0.003,0.004,0.005,0.005,0.006,0.006,0.008,0.009000000000000001,0.011000000000000001,0.013999999999999999,0.016,0.018000000000000002,0.018000000000000002,0.019,0.019,0.02,0.019,0.019,0.019,0.019,0.019,0.018000000000000002,0.018000000000000002,0.018000000000000002,0.018000000000000002,0.019,0.019,0.02,0.019,0.019,0.019,0.018000000000000002,0.017,0.015,0.013000000000000001,0.011000000000000001,0.009000000000000001,0.006999999999999999,0.005,0.003,0.002,0.001,0.0,-0.001,-0.002,-0.004,-0.005,-0.005,-0.006,-0.006999999999999999,-0.008,-0.008,-0.009000000000000001,-0.009000000000000001,-0.01,-0.011000000000000001,-0.012,-0.012,-0.013000000000000001,-0.013999999999999999,-0.013999999999999999,-0.013999999999999999,-0.013000000000000001,-0.011000000000000001,-0.009000000000000001,-0.006999999999999999,-0.005,-0.002,0.0,0.003,0.005,0.006999999999999999,0.009000000000000001,0.011000000000000001,0.013000000000000001,0.013999999999999999,0.016,0.018000000000000002,0.018000000000000002,0.018000000000000002,0.018000000000000002,0.017,0.015,0.013999999999999999,0.013000000000000001,0.011000000000000001,0.013000000000000001,0.013999999999999999,0.018000000000000002,0.021,0.023,0.026000000000000002,0.028999999999999998,0.032,0.034,0.036000000000000004,0.036000000000000004,0.037000000000000005,0.036000000000000004,0.036000000000000004,0.036000000000000004,0.037000000000000005,0.037000000000000005,0.038,0.039,0.04,0.04,0.04,0.040999999999999995,0.042,0.043,0.045,0.046,0.047,0.047,0.046,0.043,0.040999999999999995,0.038,0.035,0.032,0.03,0.027999999999999997,0.027000000000000003,0.026000000000000002,0.025,0.024,0.024,0.023,0.022000000000000002,0.022000000000000002,0.021,0.02,0.019,0.018000000000000002,0.017,0.017,0.017,0.018000000000000002,0.02,0.021,0.023,0.024,0.026000000000000002,0.027999999999999997,0.03,0.03,0.031,0.028999999999999998,0.027000000000000003,0.026000000000000002,0.024,0.023,0.022000000000000002,0.023,0.023,0.024,0.026000000000000002,0.027999999999999997,0.031,0.033,0.036000000000000004,0.04,0.044000000000000004,0.05,0.055,0.06,0.066,0.07,0.07400000000000001,0.076,0.079,0.08,0.08199999999999999,0.083,0.085,0.087,0.09,0.09300000000000001,0.09699999999999999,0.1,0.102,0.102,0.102,0.1,0.09699999999999999,0.09300000000000001,0.08900000000000001,0.085,0.081,0.079,0.077,0.078,0.079,0.083,0.087,0.091,0.095,0.094,0.09300000000000001,0.08800000000000001,0.084,0.077,0.07,0.064,0.057999999999999996,0.053,0.047,0.042,0.036000000000000004,0.028999999999999998,0.021,0.013000000000000001,0.005,-0.003,-0.011000000000000001,-0.016,-0.022000000000000002,-0.026000000000000002,-0.028999999999999998,-0.031,-0.033,-0.035,-0.037000000000000005,-0.038,-0.04,-0.04,-0.04,-0.039,-0.039,-0.039,-0.039,-0.04,-0.04,-0.040999999999999995,-0.042,-0.042,-0.042,-0.040999999999999995,-0.04,-0.038,-0.036000000000000004,-0.032,-0.028999999999999998,-0.024,-0.018000000000000002,-0.006999999999999999,0.004,0.022000000000000002,0.04,0.066,0.092,0.124,0.156,0.18899999999999997,0.223,0.251,0.28,0.298,0.317,0.32,0.32299999999999995,0.309,0.295,0.265,0.235,0.195,0.155,0.114,0.07400000000000001,0.039,0.004,-0.025,-0.053,-0.077,-0.10099999999999999,-0.12,-0.14,-0.155,-0.17,-0.18,-0.191,-0.195,-0.19899999999999998,-0.198,-0.19699999999999998,-0.191,-0.185,-0.175,-0.166,-0.154,-0.14300000000000002,-0.132,-0.121,-0.11199999999999999,-0.102,-0.095,-0.087,-0.08199999999999999,-0.076,-0.07200000000000001,-0.069,-0.066,-0.063,-0.062,-0.061,-0.061,-0.061,-0.059000000000000004,-0.057999999999999996,-0.055,-0.052000000000000005,-0.05,-0.047,-0.046,-0.044000000000000004,-0.045,-0.045,-0.047,-0.048,-0.049,-0.05,-0.051,-0.051,-0.05,-0.05,-0.048,-0.047,-0.046,-0.044000000000000004,-0.043,-0.040999999999999995,-0.04,-0.038,-0.036000000000000004,-0.034,-0.032,-0.031,-0.03,-0.03,-0.028999999999999998,-0.027000000000000003,-0.026000000000000002,-0.024,-0.022000000000000002,-0.02,-0.017,-0.013999999999999999,-0.011000000000000001,-0.008,-0.005,-0.002,-0.001,0.0,-0.0,-0.001,-0.002,-0.002,-0.003,-0.003,-0.003,-0.002,-0.001,0.0,0.002,0.003,0.005,0.006,0.006999999999999999,0.008,0.008,0.008,0.008,0.008,0.008,0.008,0.009000000000000001,0.009000000000000001,0.01,0.011000000000000001,0.011000000000000001,0.011000000000000001,0.011000000000000001,0.01,0.009000000000000001,0.008,0.008,0.008,0.008,0.008,0.006,0.005,0.003,0.001,-0.002,-0.004,-0.006999999999999999,-0.011000000000000001,-0.013999999999999999,-0.018000000000000002,-0.021,-0.024,-0.025,-0.026000000000000002,-0.026000000000000002,-0.025,-0.024,-0.022000000000000002,-0.021,-0.019,-0.018000000000000002,-0.017,-0.016,-0.016,-0.015,-0.013999999999999999,-0.012,-0.01,-0.008,-0.005,-0.004,-0.002,-0.002,-0.001,-0.0,0.0,0.0,0.0,0.0,0.001,0.002,0.003,0.005,0.006,0.009000000000000001,0.012,0.015,0.018000000000000002,0.021,0.023,0.024,0.025,0.025,0.025,0.025,0.024,0.024,0.024,0.026000000000000002,0.027000000000000003,0.028999999999999998,0.031,0.032,0.034,0.034,0.034,0.034,0.034,0.033,0.033,0.032,0.031,0.028999999999999998,0.027999999999999997,0.028999999999999998,0.03,0.03,0.031,0.031,0.031,0.03,0.03,0.028999999999999998,0.027000000000000003,0.026000000000000002,0.024,0.023,0.022000000000000002,0.023,0.023,0.024,0.025,0.027000000000000003,0.027999999999999997,0.028999999999999998,0.031,0.03,0.03,0.027999999999999997,0.027000000000000003,0.024,0.022000000000000002,0.02,0.018000000000000002,0.015,0.013000000000000001,0.012,0.011000000000000001,0.011000000000000001,0.011000000000000001,0.011000000000000001,0.011000000000000001,0.013000000000000001,0.013999999999999999,0.016,0.018000000000000002,0.02,0.021,0.023,0.024,0.024,0.025,0.027000000000000003,0.028999999999999998,0.032,0.035,0.04,0.044000000000000004,0.05,0.055,0.061,0.066,0.07200000000000001,0.077,0.081,0.085,0.08800000000000001,0.09,0.092,0.094,0.096,0.098,0.099,0.10099999999999999,0.102,0.10300000000000001,0.102,0.10099999999999999,0.098,0.094,0.08800000000000001,0.083,0.079,0.075,0.07400000000000001,0.07200000000000001,0.07400000000000001,0.076,0.078,0.081,0.08199999999999999,0.083,0.08199999999999999,0.08,0.077,0.073,0.069,0.065,0.06,0.055999999999999994,0.05,0.045,0.039,0.033,0.026000000000000002,0.019,0.012,0.005,-0.001,-0.008,-0.012,-0.017,-0.02,N
10,-0.18600000000000003,-0.188,-0.184,-0.18,-0.172,-0.16399999999999998,-0.154,-0.14400000000000002,-0.134,-0.124,-0.113,-0.10300000000000001,-0.094,-0.085,-0.08,-0.07400000000000001,-0.07,-0.066,-0.063,-0.06,-0.059000000000000004,-0.057999999999999996,-0.057,-0.055999999999999994,-0.055999999999999994,-0.055999999999999994,-0.055999999999999994,-0.055999999999999994,-0.055,-0.055,-0.054000000000000006,-0.053,-0.051,-0.049,-0.047,-0.045,-0.043,-0.040999999999999995,-0.04,-0.039,-0.037000000000000005,-0.035,-0.033,-0.031,-0.028999999999999998,-0.027000000000000003,-0.026000000000000002,-0.024,-0.024,-0.023,-0.022000000000000002,-0.021,-0.021,-0.021,-0.019,-0.018000000000000002,-0.016,-0.015,-0.013999999999999999,-0.012,-0.011000000000000001,-0.009000000000000001,-0.008,-0.006999999999999999,-0.006,-0.005,-0.004,-0.002,-0.001,0.0,0.001,0.002,0.003,0.004,0.005,0.005,0.006,0.006,0.008,0.009000000000000001,0.011000000000000001,0.013999999999999999,0.016,0.018000000000000002,0.018000000000000002,0.019,0.019,0.02,0.019,0.019,0.019,0.019,0.019,0.018000000000000002,0.018000000000000002,0.018000000000000002,0.018000000000000002,0.019,0.019,0.02,0.019,0.019,0.019,0.018000000000000002,0.017,0.015,0.013000000000000001,0.011000000000000001,0.009000000000000001,0.006999999999999999,0.005,0.003,0.002,0.001,0.0,-0.001,-0.002,-0.004,-0.005,-0.005,-0.006,-0.006999999999999999,-0.008,-0.008,-0.009000000000000001,-0.009000000000000001,-0.01,-0.011000000000000001,-0.012,-0.012,-0.013000000000000001,-0.013999999999999999,-0.013999999999999999,-0.013999999999999999,-0.013000000000000001,-0.011000000000000001,-0.009000000000000001,-0.006999999999999999,-0.005,-0.002,0.0,0.003,0.005,0.006999999999999999,0.009000000000000001,0.011000000000000001,0.013000000000000001,0.013999999999999999,0.016,0.018000000000000002,0.018000000000000002,0.018000000000000002,0.018000000000000002,0.017,0.015,0.013999999999999999,0.013000000000000001,0.011000000000000001,0.013000000000000001,0.013999999999999999,0.018000000000000002,0.021,0.023,0.026000000000000002,0.028999999999999998,0.032,0.034,0.036000000000000004,0.036000000000000004,0.037000000000000005,0.036000000000000004,0.036000000000000004,0.036000000000000004,0.037000000000000005,0.037000000000000005,0.038,0.039,0.04,0.04,0.04,0.040999999999999995,0.042,0.043,0.045,0.046,0.047,0.047,0.046,0.043,0.040999999999999995,0.038,0.035,0.032,0.03,0.027999999999999997,0.027000000000000003,0.026000000000000002,0.025,0.024,0.024,0.023,0.022000000000000002,0.022000000000000002,0.021,0.02,0.019,0.018000000000000002,0.017,0.017,0.017,0.018000000000000002,0.02,0.021,0.023,0.024,0.026000000000000002,0.027999999999999997,0.03,0.03,0.031,0.028999999999999998,0.027000000000000003,0.026000000000000002,0.024,0.023,0.022000000000000002,0.023,0.023,0.024,0.026000000000000002,0.027999999999999997,0.031,0.033,0.036000000000000004,0.04,0.044000000000000004,0.05,0.055,0.06,0.066,0.07,0.07400000000000001,0.076,0.079,0.08,0.08199999999999999,0.083,0.085,0.087,0.09,0.09300000000000001,0.09699999999999999,0.1,0.102,0.102,0.102,0.1,0.09699999999999999,0.09300000000000001,0.08900000000000001,0.085,0.081,0.079,0.077,0.078,0.079,0.083,0.087,0.091,0.095,0.094,0.09300000000000001,0.08800000000000001,0.084,0.077,0.07,0.064,0.057999999999999996,0.053,0.047,0.042,0.036000000000000004,0.028999999999999998,0.021,0.013000000000000001,0.005,-0.003,-0.011000000000000001,-0.016,-0.022000000000000002,-0.026000000000000002,-0.028999999999999998,-0.031,-0.033,-0.035,-0.037000000000000005,-0.038,-0.04,-0.04,-0.04,-0.039,-0.039,-0.039,-0.039,-0.04,-0.04,-0.040999999999999995,-0.042,-0.042,-0.042,-0.040999999999999995,-0.04,-0.038,-0.036000000000000004,-0.032,-0.028999999999999998,-0.024,-0.018000000000000002,-0.006999999999999999,0.004,0.022000000000000002,0.04,0.066,0.092,0.124,0.156,0.18899999999999997,0.223,0.251,0.28,0.298,0.317,0.32,0.32299999999999995,0.309,0.295,0.265,0.235,0.195,0.155,0.114,0.07400000000000001,0.039,0.004,-0.025,-0.053,-0.077,-0.10099999999999999,-0.12,-0.14,-0.155,-0.17,-0.18,-0.191,-0.195,-0.19899999999999998,-0.198,-0.19699999999999998,-0.191,-0.185,-0.175,-0.166,-0.154,-0.14300000000000002,-0.132,-0.121,-0.11199999999999999,-0.102,-0.095,-0.087,-0.08199999999999999,-0.076,-0.07200000000000001,-0.069,-0.066,-0.063,-0.062,-0.061,-0.061,-0.061,-0.059000000000000004,-0.057999999999999996,-0.055,-0.052000000000000005,-0.05,-0.047,-0.046,-0.044000000000000004,-0.045,-0.045,-0.047,-0.048,-0.049,-0.05,-0.051,-0.051,-0.05,-0.05,-0.048,-0.047,-0.046,-0.044000000000000004,-0.043,-0.040999999999999995,-0.04,-0.038,-0.036000000000000004,-0.034,-0.032,-0.031,-0.03,-0.03,-0.028999999999999998,-0.027000000000000003,-0.026000000000000002,-0.024,-0.022000000000000002,-0.02,-0.017,-0.013999999999999999,-0.011000000000000001,-0.008,-0.005,-0.002,-0.001,0.0,-0.0,-0.001,-0.002,-0.002,-0.003,-0.003,-0.003,-0.002,-0.001,0.0,0.002,0.003,0.005,0.006,0.006999999999999999,0.008,0.008,0.008,0.008,0.008,0.008,0.008,0.009000000000000001,0.009000000000000001,0.01,0.011000000000000001,0.011000000000000001,0.011000000000000001,0.011000000000000001,0.01,0.009000000000000001,0.008,0.008,0.008,0.008,0.008,0.006,0.005,0.003,0.001,-0.002,-0.004,-0.006999999999999999,-0.011000000000000001,-0.013999999999999999,-0.018000000000000002,-0.021,-0.024,-0.025,-0.026000000000000002,-0.026000000000000002,-0.025,-0.024,-0.022000000000000002,-0.021,-0.019,-0.018000000000000002,-0.017,-0.016,-0.016,-0.015,-0.013999999999999999,-0.012,-0.01,-0.008,-0.005,-0.004,-0.002,-0.002,-0.001,-0.0,0.0,0.0,0.0,0.0,0.001,0.002,0.003,0.005,0.006,0.009000000000000001,0.012,0.015,0.018000000000000002,0.021,0.023,0.024,0.025,0.025,0.025,0.025,0.024,0.024,0.024,0.026000000000000002,0.027000000000000003,0.028999999999999998,0.031,0.032,0.034,0.034,0.034,0.034,0.034,0.033,0.033,0.032,0.031,0.028999999999999998,0.027999999999999997,0.028999999999999998,0.03,0.03,0.031,0.031,0.031,0.03,0.03,0.028999999999999998,0.027000000000000003,0.026000000000000002,0.024,0.023,0.022000000000000002,0.023,0.023,0.024,0.025,0.027000000000000003,0.027999999999999997,0.028999999999999998,0.031,0.03,0.03,0.027999999999999997,0.027000000000000003,0.024,0.022000000000000002,0.02,0.018000000000000002,0.015,0.013000000000000001,0.012,0.011000000000000001,0.011000000000000001,0.011000000000000001,0.011000000000000001,0.011000000000000001,0.013000000000000001,0.013999999999999999,0.016,0.018000000000000002,0.02,0.021,0.023,0.024,0.024,0.025,0.027000000000000003,0.028999999999999998,0.032,0.035,0.04,0.044000000000000004,0.05,0.055,0.061,0.066,0.07200000000000001,0.077,0.081,0.085,0.08800000000000001,0.09,0.092,0.094,0.096,0.098,0.099,0.10099999999999999,0.102,0.10300000000000001,0.102,0.10099999999999999,0.098,0.094,0.08800000000000001,0.083,0.079,0.075,0.07400000000000001,0.07200000000000001,0.07400000000000001,0.076,0.078,0.081,0.08199999999999999,0.083,0.08199999999999999,0.08,0.077,0.073,0.069,0.065,0.06,0.055999999999999994,0.05,0.045,0.039,0.033,0.026000000000000002,0.019,0.012,0.005,-0.001,-0.008,-0.012,-0.017,-0.02,-0.024,-0.027000000000000003,-0.03,-0.032,-0.035,-0.037000000000000005,-0.04,-0.040999999999999995,-0.043,-0.042,-0.042,-0.040999999999999995,-0.04,-0.039,-0.039,-0.039,-0.039,-0.039,-0.04,-0.039,-0.038,-0.035,-0.033,-0.028999999999999998,-0.025,-0.019,-0.012,0.0,0.013000000000000001,0.033,0.053,0.08,0.107,0.138,0.17,0.203,0.235,0.262,0.28800000000000003,0.304,0.32,0.319,0.319,0.3,0.281,0.24600000000000002,0.212,0.17,0.129,0.08800000000000001,0.048,0.015,-0.018000000000000002,-0.043,-0.069,-0.08900000000000001,-0.11,-0.128,-0.146,-0.161,-0.17600000000000002,-0.185,-0.195,-0.19699999999999998,-0.2,-0.195,-0.191,-0.18100000000000002,-0.171,-0.158,-0.146,-0.133,-0.121,-0.11,-0.1,-0.092,-0.084,-0.079,-0.073,-0.069,-0.066,-0.063,-0.059000000000000004,-0.057,-0.055,-0.052000000000000005,-0.05,-0.047,-0.044000000000000004,-0.043,-0.040999999999999995,-0.04,-0.039,-0.038,-0.037000000000000005,-0.036000000000000004,-0.036000000000000004,-0.034,-0.033,-0.032,-0.031,-0.028999999999999998,-0.027000000000000003,-0.026000000000000002,-0.024,-0.021,-0.019,-0.018000000000000002,-0.017,-0.017,-0.017,-0.017,-0.017,-0.016,-0.016,-0.015,-0.013999999999999999,-0.013999999999999999,-0.013000000000000001,-0.012,-0.011000000000000001,-0.006999999999999999,-0.004,-0.0,0.003,0.006,0.009000000000000001,0.01,0.011000000000000001,0.011000000000000001,0.011000000000000001,0.009000000000000001,0.008,0.006,0.005,0.005,0.005,0.006999999999999999,0.009000000000000001,0.011000000000000001,0.013999999999999999,0.016,0.018000000000000002,0.02,0.021,0.023,0.024,0.024,0.024,0.025,0.026000000000000002,0.027000000000000003,0.027000000000000003,0.027999999999999997,0.027999999999999997,0.028999999999999998,0.031,0.031,0.031,0.031,0.031,0.031,0.031,0.03,0.03,0.028999999999999998,0.027000000000000003,0.026000000000000002,0.024,0.021,0.019,0.017,0.015,0.013000000000000001,0.011000000000000001,0.01,0.008,0.008,0.008,0.008,0.008,0.008,0.008,0.008,0.008,0.008,0.008,0.006999999999999999,0.006,0.005,0.005,0.005,0.005,0.006,0.006,0.006999999999999999,0.008,0.01,0.011000000000000001,0.013000000000000001,0.013999999999999999,0.013999999999999999,0.015,0.016,0.016,0.016,0.017,0.016,0.016,0.015,0.013999999999999999,0.013999999999999999,0.013999999999999999,0.016,0.018000000000000002,0.02,0.023,0.026000000000000002,0.028999999999999998,0.032,0.034,0.037000000000000005,0.04,0.040999999999999995,0.043,0.044000000000000004,0.045,0.047,0.048,0.049,0.05,0.051,0.053,0.053,0.053,0.053,0.053,0.054000000000000006,0.055,0.055,0.055999999999999994,0.055999999999999994,0.055999999999999994,0.055999999999999994,0.055999999999999994,0.057,0.057999999999999996,0.059000000000000004,0.059000000000000004,0.06,0.061,0.061,0.06,0.059000000000000004,0.059000000000000004,0.057999999999999996,0.057,0.055999999999999994,0.055,0.054000000000000006,0.053,0.052000000000000005,0.052000000000000005,0.051,0.05,0.05,0.05,0.049,0.049,0.048,0.047,0.045,0.044000000000000004,0.043,0.040999999999999995,0.04,0.038,0.037000000000000005,0.036000000000000004,0.036000000000000004,0.036000000000000004,0.036000000000000004,0.036000000000000004,0.036000000000000004,0.037000000000000005,0.038,0.039,0.040999999999999995,0.043,0.044000000000000004,0.045,0.047,0.049,0.051,0.054000000000000006,0.057999999999999996,0.063,0.067,0.07200000000000001,0.076,0.079,0.08199999999999999,0.084,0.086,0.08800000000000001,0.09,0.092,0.094,0.096,0.098,0.1,0.10099999999999999,0.10300000000000001,0.10300000000000001,0.102,0.099,0.096,0.092,0.08800000000000001,0.084,0.08,0.079,0.077,0.077,0.078,0.079,0.081,0.08199999999999999,0.08199999999999999,0.08199999999999999,0.081,0.078,0.076,0.07,0.064,0.057,0.05,0.043,0.036000000000000004,0.028999999999999998,0.021,0.013999999999999999,0.008,0.001,-0.006,-0.013000000000000001,-0.021,-0.027000000000000003,-0.033,-0.039,-0.044000000000000004,-0.048,-0.052000000000000005,-0.055,-0.057,N
