0,0.191,0.177,0.16399999999999998,0.138,0.113,0.083,0.053,0.03,0.006,-0.012,-0.03,-0.04,-0.05,-0.055,-0.059000000000000004,-0.06,-0.061,-0.065,-0.069,-0.073,-0.077,-0.078,-0.08,-0.081,-0.081,-0.081,-0.08,-0.077,-0.075,-0.07400000000000001,-0.073,-0.071,-0.069,-0.069,-0.069,-0.069,-0.069,-0.068,-0.067,-0.065,-0.063,-0.059000000000000004,-0.055999999999999994,-0.054000000000000006,-0.052000000000000005,-0.051,-0.05,-0.048,-0.045,-0.042,-0.039,-0.037000000000000005,-0.034,-0.034,-0.034,-0.034,-0.034,-0.034,-0.034,-0.034,-0.033,-0.031,-0.03,-0.027999999999999997,-0.027000000000000003,-0.026000000000000002,-0.025,-0.023,-0.022000000000000002,-0.019,-0.016,-0.013000000000000001,-0.011000000000000001,-0.008,-0.005,-0.003,-0.002,0.0,0.002,0.004,0.006,0.008,0.009000000000000001,0.012,0.013999999999999999,0.016,0.017,0.02,0.022000000000000002,0.023,0.023,0.023,0.022000000000000002,0.022000000000000002,0.022000000000000002,0.022000000000000002,0.022000000000000002,0.022000000000000002,0.022000000000000002,0.022000000000000002,0.022000000000000002,0.022000000000000002,0.022000000000000002,0.022000000000000002,0.022000000000000002,0.022000000000000002,0.022000000000000002,0.022000000000000002,0.022000000000000002,0.022000000000000002,0.022000000000000002,0.022000000000000002,0.022000000000000002,0.022000000000000002,0.022000000000000002,0.022000000000000002,0.022000000000000002,0.022000000000000002,0.022000000000000002,0.022000000000000002,0.022000000000000002,0.022000000000000002,0.022000000000000002,0.022000000000000002,0.022000000000000002,0.022000000000000002,0.022000000000000002,0.022000000000000002,0.022000000000000002,0.022000000000000002,0.022000000000000002,0.022000000000000002,0.022000000000000002,0.022000000000000002,0.022000000000000002,0.022000000000000002,0.022000000000000002,0.022000000000000002,0.022000000000000002,0.022000000000000002,0.022000000000000002,0.023,0.023,0.025,0.027000000000000003,0.027999999999999997,0.03,0.028999999999999998,0.027999999999999997,0.027999999999999997,0.027999999999999997,0.027000000000000003,0.027000000000000003,0.025,0.023,0.023,0.022000000000000002,0.021,0.02,0.018000000000000002,0.016,0.013000000000000001,0.009000000000000001,0.006,0.003,0.001,-0.002,-0.005,-0.008,-0.009000000000000001,-0.011000000000000001,-0.012,-0.013000000000000001,-0.013000000000000001,-0.013000000000000001,-0.013000000000000001,-0.013000000000000001,-0.013999999999999999,-0.016,-0.016,-0.017,-0.016,-0.016,-0.015,-0.013999999999999999,-0.015,-0.016,-0.017,-0.019,-0.021,-0.023,-0.023,-0.023,-0.023,-0.022000000000000002,-0.02,-0.019,-0.017,-0.016,-0.013999999999999999,-0.013000000000000001,-0.012,-0.011000000000000001,-0.01,-0.009000000000000001,-0.009000000000000001,-0.008,-0.006,-0.005,-0.002,0.0,0.002,0.005,0.005,0.006,0.005,0.005,0.005,0.005,0.005,0.005,0.005,0.005,0.004,0.003,0.002,0.002,0.002,0.002,0.002,0.002,0.002,0.002,0.001,0.0,-0.001,-0.002,0.0,0.002,0.003,0.005,0.005,0.005,0.005,0.005,0.005,0.005,0.005,0.005,0.005,0.005,0.005,0.005,0.005,0.006,0.008,0.009000000000000001,0.011000000000000001,0.013000000000000001,0.012,0.011000000000000001,0.012,0.013000000000000001,0.013999999999999999,0.016,0.016,0.017,0.017,0.017,0.016,0.016,0.013000000000000001,0.011000000000000001,0.008,0.005,0.005,0.005,0.005,0.006,0.008,0.009000000000000001,0.012,0.013999999999999999,0.015,0.016,0.016,0.017,0.017,0.017,0.016,0.016,0.013999999999999999,0.013000000000000001,0.011000000000000001,0.009000000000000001,0.011000000000000001,0.013000000000000001,0.015,0.017,0.021,0.025,0.031,0.038,0.046,0.055,0.063,0.07200000000000001,0.079,0.086,0.09,0.094,0.096,0.099,0.10099999999999999,0.10300000000000001,0.106,0.109,0.113,0.11699999999999999,0.12,0.124,0.125,0.127,0.126,0.125,0.121,0.11699999999999999,0.113,0.10800000000000001,0.10300000000000001,0.099,0.094,0.08900000000000001,0.084,0.078,0.07200000000000001,0.066,0.059000000000000004,0.053,0.047,0.040999999999999995,0.034,0.027000000000000003,0.02,0.013999999999999999,0.009000000000000001,0.003,-0.001,-0.005,-0.009000000000000001,-0.013999999999999999,-0.02,-0.025,-0.028999999999999998,-0.033,-0.037000000000000005,-0.040999999999999995,-0.044000000000000004,-0.047,-0.048,-0.048,-0.05,-0.052000000000000005,-0.052000000000000005,-0.053,-0.052000000000000005,-0.052000000000000005,-0.052000000000000005,-0.052000000000000005,-0.05,-0.048,-0.042,-0.036000000000000004,-0.022000000000000002,-0.008,0.015,0.038,0.067,0.09699999999999999,0.132,0.16699999999999998,0.20600000000000002,0.244,0.285,0.327,0.373,0.419,0.467,0.514,0.557,0.599,0.615,0.63,0.611,0.591,0.539,0.488,0.42,0.35200000000000004,0.289,0.22699999999999998,0.188,0.15,0.142,0.134,0.146,0.158,0.174,0.18899999999999997,0.192,0.19399999999999998,0.177,0.161,0.131,0.102,0.067,0.033,0.003,-0.027000000000000003,-0.047,-0.067,-0.077,-0.08800000000000001,-0.091,-0.095,-0.095,-0.095,-0.095,-0.094,N,,,,,,,,,,,,,,,,,,,,,,,,,,,,,,,,,,,,,,,,,,,,,,,,,,,,,,,,,,,,,,,,,,,,,,,,,,,,,,,,,,,,,,,,,,,,,,,,,,,,,,,,,,,,,,,,,,,,,,,,,,,,,,,,,,,,,,,,,,,,,,,,,,,,,,,,,,,,,,,,,,,,,,,,,,,,,,,,,,,,,,,,,,,,,,,,,,,,,,,,,,,,,,,,,,,,,,,,,,,,,,,,,,,,,,,,,,,,,,,,,,,,,,,,,,,,,,,,,,,,,,,,,,,,,,,,,,,,,,,,,,,,,,,,,,,,,,,,,,,,,,,,,,,,,,,,,,,,,,,,,,,,,,,,,,,,,,,,,,,,,,,,,,,,,,,,,,,,,,,,,,,,,,,,,,,,,,,,,,,,,,,,,,,,,,,,,,,,,,,,,,,,,,,,,,,,,,,,,,,,,,,,,,,,,,,,,,,,,,,,,,,,,,,,,,,,,,,,,,,,,,,,,,,,,,,,,,,,,,,,,,,,,,,,,,,,,,,,,,,,,,,,,,,,,,,,,,,,,,,,,,,,,,,,,,,,,,,,,,,,,,,,,,,,,,,,,,,,,,,,,,,,,,,,,,,
1,0.17800000000000002,0.149,0.12,0.08800000000000001,0.055,0.025,-0.005,-0.027000000000000003,-0.048,-0.061,-0.073,-0.079,-0.084,-0.086,-0.08800000000000001,-0.08800000000000001,-0.08900000000000001,-0.09,-0.091,-0.091,-0.092,-0.091,-0.091,-0.08900000000000001,-0.08800000000000001,-0.086,-0.084,-0.083,-0.081,-0.08,-0.078,-0.077,-0.075,-0.073,-0.07200000000000001,-0.067,-0.063,-0.059000000000000004,-0.055999999999999994,-0.053,-0.05,-0.048,-0.045,-0.043,-0.040999999999999995,-0.04,-0.039,-0.039,-0.039,-0.038,-0.036000000000000004,-0.035,-0.034,-0.034,-0.033,-0.031,-0.03,-0.028999999999999998,-0.027999999999999997,-0.027999999999999997,-0.027999999999999997,-0.026000000000000002,-0.023,-0.02,-0.016,-0.013000000000000001,-0.009000000000000001,-0.005,0.0,0.004,0.008,0.012,0.016,0.017,0.019,0.02,0.022000000000000002,0.023,0.023,0.023,0.023,0.025,0.027000000000000003,0.027999999999999997,0.03,0.03,0.03,0.032,0.034,0.038,0.040999999999999995,0.044000000000000004,0.047,0.049,0.052000000000000005,0.055999999999999994,0.059000000000000004,0.063,0.066,0.066,0.067,0.069,0.07,0.071,0.07200000000000001,0.07200000000000001,0.07200000000000001,0.073,0.075,0.077,0.078,0.081,0.083,0.084,0.084,0.085,0.086,0.086,0.086,0.085,0.084,0.08199999999999999,0.08,0.077,0.073,0.073,0.07200000000000001,0.069,0.066,0.061,0.055999999999999994,0.052000000000000005,0.048,0.046,0.044000000000000004,0.042,0.040999999999999995,0.04,0.039,0.038,0.038,0.036000000000000004,0.034,0.034,0.033,0.031,0.03,0.027000000000000003,0.025,0.023,0.022000000000000002,0.02,0.017,0.015,0.013000000000000001,0.009000000000000001,0.006,0.004,0.002,-0.003,-0.008,-0.013000000000000001,-0.019,-0.023,-0.027000000000000003,-0.03,-0.034,-0.038,-0.042,-0.045,-0.047,-0.047,-0.047,-0.048,-0.048,-0.049,-0.05,-0.05,-0.05,-0.05,-0.05,-0.051,-0.052000000000000005,-0.052000000000000005,-0.053,-0.055,-0.055999999999999994,-0.057,-0.057999999999999996,-0.057,-0.055999999999999994,-0.054000000000000006,-0.052000000000000005,-0.049,-0.047,-0.046,-0.045,-0.046,-0.047,-0.046,-0.045,-0.044000000000000004,-0.042,-0.04,-0.038,-0.037000000000000005,-0.036000000000000004,-0.036000000000000004,-0.036000000000000004,-0.038,-0.039,-0.040999999999999995,-0.044000000000000004,-0.045,-0.045,-0.046,-0.047,-0.047,-0.047,-0.046,-0.045,-0.044000000000000004,-0.042,-0.040999999999999995,-0.039,-0.04,-0.040999999999999995,-0.04,-0.039,-0.038,-0.036000000000000004,-0.034,-0.033,-0.031,-0.03,-0.028999999999999998,-0.027999999999999997,-0.028999999999999998,-0.03,-0.03,-0.03,-0.03,-0.03,-0.03,-0.03,-0.028999999999999998,-0.027999999999999997,-0.027000000000000003,-0.025,-0.025,-0.025,-0.027000000000000003,-0.027999999999999997,-0.028999999999999998,-0.03,-0.028999999999999998,-0.027999999999999997,-0.026000000000000002,-0.023,-0.02,-0.017,-0.017,-0.017,-0.018000000000000002,-0.019,-0.021,-0.023,-0.023,-0.023,-0.023,-0.022000000000000002,-0.02,-0.019,-0.018000000000000002,-0.017,-0.018000000000000002,-0.019,-0.022000000000000002,-0.025,-0.027000000000000003,-0.027999999999999997,-0.028999999999999998,-0.03,-0.03,-0.03,-0.028999999999999998,-0.027999999999999997,-0.027000000000000003,-0.027000000000000003,-0.027000000000000003,-0.027999999999999997,-0.028999999999999998,-0.03,-0.028999999999999998,-0.027999999999999997,-0.026000000000000002,-0.023,-0.02,-0.017,-0.017,-0.017,-0.017,-0.017,-0.018000000000000002,-0.019,-0.021,-0.023,-0.023,-0.023,-0.023,-0.022000000000000002,-0.02,-0.017,-0.013000000000000001,-0.009000000000000001,-0.005,0.0,0.005,0.009000000000000001,0.016,0.023,0.03,0.038,0.044000000000000004,0.05,0.057,0.064,0.07,0.077,0.079,0.081,0.084,0.086,0.09,0.094,0.098,0.102,0.10300000000000001,0.105,0.10300000000000001,0.102,0.1,0.099,0.095,0.091,0.087,0.083,0.077,0.07200000000000001,0.066,0.059000000000000004,0.055,0.05,0.046,0.042,0.038,0.034,0.03,0.025,0.02,0.013999999999999999,0.008,0.002,-0.006,-0.013999999999999999,-0.02,-0.027000000000000003,-0.031,-0.036000000000000004,-0.039,-0.042,-0.045,-0.047,-0.048,-0.048,-0.05,-0.052000000000000005,-0.052000000000000005,-0.053,-0.053,-0.053,-0.055,-0.055999999999999994,-0.057,-0.057999999999999996,-0.057,-0.055999999999999994,-0.052000000000000005,-0.048,-0.038,-0.027000000000000003,-0.009000000000000001,0.008,0.034,0.059000000000000004,0.091,0.124,0.161,0.19899999999999998,0.23600000000000002,0.27399999999999997,0.313,0.35200000000000004,0.39399999999999996,0.436,0.475,0.514,0.5379999999999999,0.561,0.5539999999999999,0.547,0.509,0.47100000000000003,0.408,0.34600000000000003,0.28,0.214,0.17,0.125,0.109,0.094,0.10400000000000001,0.114,0.138,0.163,0.185,0.20600000000000002,0.214,0.222,0.21,0.19699999999999998,0.17,0.14400000000000002,0.113,0.083,0.055,0.027000000000000003,0.005,-0.016,-0.027000000000000003,-0.039,-0.045,-0.05,-0.054000000000000006,-0.057999999999999996,-0.062,-0.066,-0.071,-0.077,-0.081,-0.086,-0.087,-0.08800000000000001,-0.087,-0.086,-0.084,-0.081,-0.08,-0.078,-0.077,-0.075,-0.07400000000000001,-0.073,-0.07,-0.067,-0.065,-0.063,-0.06,-0.057999999999999996,-0.055999999999999994,-0.055,-0.053,-0.052000000000000005,-0.048,-0.045,-0.043,-0.040999999999999995,-0.039,-0.038,-0.036000000000000004,-0.034,-0.032,-0.03,-0.027999999999999997,-0.027000000000000003,-0.026000000000000002,-0.025,-0.023,-0.022000000000000002,-0.02,-0.017,-0.017,-0.017,-0.017,-0.017,-0.016,-0.016,-0.013999999999999999,-0.013000000000000001,-0.011000000000000001,-0.009000000000000001,-0.006999999999999999,-0.005,-0.003,-0.002,0.0,0.002,0.004,0.006,0.009000000000000001,0.011000000000000001,0.015,0.019,0.02,0.022000000000000002,0.023,0.023,0.023,0.022000000000000002,0.022000000000000002,0.022000000000000002,0.022000000000000002,0.022000000000000002,0.022000000000000002,0.022000000000000002,0.022000000000000002,0.022000000000000002,0.023,0.023,0.025,0.027000000000000003,0.028999999999999998,0.031,0.032,0.033,0.034,0.034,0.034,0.033,0.031,0.03,0.027000000000000003,0.025,0.024,0.023,0.023,0.022000000000000002,0.022000000000000002,0.022000000000000002,0.022000000000000002,0.022000000000000002,0.022000000000000002,0.022000000000000002,0.022000000000000002,0.022000000000000002,0.022000000000000002,0.022000000000000002,0.022000000000000002,0.022000000000000002,0.022000000000000002,0.022000000000000002,0.022000000000000002,0.022000000000000002,0.022000000000000002,0.022000000000000002,0.022000000000000002,0.022000000000000002,0.022000000000000002,0.022000000000000002,0.022000000000000002,0.022000000000000002,0.021,0.02,0.019,0.017,0.016,0.013999999999999999,0.013000000000000001,0.013000000000000001,0.011000000000000001,0.009000000000000001,0.009000000000000001,0.009000000000000001,0.006999999999999999,0.005,0.002,-0.002,-0.005,-0.008,-0.009000000000000001,-0.011000000000000001,-0.013000000000000001,-0.013999999999999999,-0.016,-0.017,-0.018000000000000002,-0.019,-0.022000000000000002,-0.025,-0.027000000000000003,-0.03,-0.033,-0.036000000000000004,-0.038,-0.040999999999999995,-0.042,-0.044000000000000004,-0.045,-0.045,-0.046,-0.047,-0.047,-0.047,-0.047,-0.047,-0.047,-0.047,-0.046,-0.045,-0.044000000000000004,-0.042,-0.04,-0.038,-0.036000000000000004,-0.034,-0.032,-0.03,-0.027999999999999997,-0.027000000000000003,-0.027000000000000003,-0.027000000000000003,-0.027000000000000003,-0.027000000000000003,-0.027000000000000003,-0.027000000000000003,-0.027000000000000003,-0.027000000000000003,-0.027000000000000003,-0.027000000000000003,-0.027000000000000003,-0.027000000000000003,-0.026000000000000002,-0.025,-0.023,-0.022000000000000002,-0.019,-0.016,-0.013999999999999999,-0.013000000000000001,-0.011000000000000001,-0.009000000000000001,-0.008,-0.006,-0.006999999999999999,-0.008,-0.009000000000000001,-0.011000000000000001,-0.012,-0.013000000000000001,-0.013000000000000001,-0.013000000000000001,-0.012,-0.011000000000000001,-0.011000000000000001,-0.011000000000000001,-0.012,-0.013000000000000001,-0.013000000000000001,-0.013000000000000001,-0.012,-0.011000000000000001,-0.011000000000000001,-0.011000000000000001,-0.012,-0.013000000000000001,-0.013000000000000001,-0.013000000000000001,-0.012,-0.011000000000000001,-0.01,-0.009000000000000001,-0.008,-0.006,-0.004,-0.002,0.0,0.002,0.002,0.003,0.002,0.0,-0.002,-0.003,-0.004,-0.005,-0.005,-0.006,-0.005,-0.005,-0.002,0.0,0.003,0.006,0.009000000000000001,0.011000000000000001,0.012,0.013000000000000001,0.012,0.011000000000000001,0.01,0.009000000000000001,0.006999999999999999,0.005,0.002,0.0,-0.001,-0.002,-0.001,0.0,0.0,0.0,0.0,0.0,-0.001,-0.002,-0.004,-0.006,-0.008,-0.009000000000000001,-0.008,-0.006,-0.004,-0.002,0.0,0.002,0.003,0.005,0.005,0.006,0.008,0.009000000000000001,0.011000000000000001,0.013000000000000001,0.013000000000000001,0.013000000000000001,0.016,0.019,0.024,0.03,0.037000000000000005,0.044000000000000004,0.051,0.057999999999999996,0.065,0.07200000000000001,0.077,0.081,0.084,0.08800000000000001,0.09,0.092,0.096,0.1,0.10300000000000001,0.106,0.109,0.113,0.115,0.11699999999999999,0.11699999999999999,0.11699999999999999,0.11599999999999999,0.11599999999999999,0.113,0.109,0.10400000000000001,0.099,0.09300000000000001,0.08800000000000001,0.079,0.07,0.063,0.055,0.048,0.042,0.037000000000000005,0.031,0.026000000000000002,0.02,0.015,0.009000000000000001,0.004,-0.002,-0.006,-0.011000000000000001,-0.016,-0.022000000000000002,-0.027000000000000003,-0.031,-0.034,-0.038,-0.04,-0.042,-0.043,-0.044000000000000004,-0.043,-0.042,-0.04,-0.038,-0.037000000000000005,-0.036000000000000004,-0.036000000000000004,-0.036000000000000004,-0.037000000000000005,-0.038,-0.037000000000000005,-0.036000000000000004,-0.028999999999999998,-0.022000000000000002,-0.008,0.006,0.028999999999999998,0.052000000000000005,0.081,0.111,0.145,0.18,0.215,0.25,0.285,0.321,0.35700000000000004,0.39399999999999996,0.428,0.461,0.484,0.507,0.507,0.507,0.478,0.45,0.39899999999999997,0.34700000000000003,0.287,0.22699999999999998,0.17800000000000002,0.13,0.107,0.084,0.087,0.08900000000000001,0.107,0.125,0.145,0.166,0.18,0.19399999999999998,0.193,0.192,0.177,0.161,0.136,0.111,0.084,0.055999999999999994,0.033,0.009000000000000001,-0.006,-0.022000000000000002,-0.03,-0.039,-0.043,-0.047,-0.048,-0.05,-0.054000000000000006,-0.057999999999999996,-0.062,-0.066,-0.07,-0.073,-0.07400000000000001,-0.075,-0.07200000000000001,-0.069,-0.066,-0.063,-0.062,-0.061,-0.059000000000000004,-0.057999999999999996,-0.057999999999999996,-0.057999999999999996,-0.057999999999999996,-0.057999999999999996,-0.057,-0.055999999999999994,-0.055,-0.053,-0.052000000000000005,-0.05,-0.048,-0.045,-0.043,-0.040999999999999995,-0.04,-0.039,-0.04,-0.040999999999999995,-0.040999999999999995,-0.040999999999999995,-0.040999999999999995,-0.040999999999999995,-0.04,-0.039,-0.038,-0.036000000000000004,-0.034,-0.033,-0.03,-0.027999999999999997,-0.026000000000000002,-0.023,-0.021,-0.019,-0.016,-0.013999999999999999,-0.011000000000000001,-0.008,-0.005,-0.002,-0.001,0.0,0.0,0.0,0.0,0.0,0.001,0.002,0.003,0.005,0.005,0.005,0.005,0.005,0.005,0.005,0.005,0.006,0.008,0.009000000000000001,0.011000000000000001,0.013000000000000001,0.012,0.011000000000000001,0.011000000000000001,0.011000000000000001,0.011000000000000001,0.011000000000000001,0.012,0.013000000000000001,0.015,0.017,0.02,0.022000000000000002,0.023,0.023,0.023,0.022000000000000002,0.022000000000000002,0.022000000000000002,0.022000000000000002,0.022000000000000002,0.022000000000000002,0.022000000000000002,0.021,0.02,0.019,0.017,0.016,0.013999999999999999,0.013000000000000001,0.013000000000000001,0.01,0.008,0.006999999999999999,0.006,0.005,0.005,0.005,0.005,0.005,0.006,0.008,0.009000000000000001,0.012,0.013999999999999999,0.016,0.017,0.02,N
2,0.19699999999999998,0.17,0.14400000000000002,0.113,0.083,0.055,0.027000000000000003,0.005,-0.016,-0.027000000000000003,-0.039,-0.045,-0.05,-0.054000000000000006,-0.057999999999999996,-0.062,-0.066,-0.071,-0.077,-0.081,-0.086,-0.087,-0.08800000000000001,-0.087,-0.086,-0.084,-0.081,-0.08,-0.078,-0.077,-0.075,-0.07400000000000001,-0.073,-0.07,-0.067,-0.065,-0.063,-0.06,-0.057999999999999996,-0.055999999999999994,-0.055,-0.053,-0.052000000000000005,-0.048,-0.045,-0.043,-0.040999999999999995,-0.039,-0.038,-0.036000000000000004,-0.034,-0.032,-0.03,-0.027999999999999997,-0.027000000000000003,-0.026000000000000002,-0.025,-0.023,-0.022000000000000002,-0.02,-0.017,-0.017,-0.017,-0.017,-0.017,-0.016,-0.016,-0.013999999999999999,-0.013000000000000001,-0.011000000000000001,-0.009000000000000001,-0.006999999999999999,-0.005,-0.003,-0.002,0.0,0.002,0.004,0.006,0.009000000000000001,0.011000000000000001,0.015,0.019,0.02,0.022000000000000002,0.023,0.023,0.023,0.022000000000000002,0.022000000000000002,0.022000000000000002,0.022000000000000002,0.022000000000000002,0.022000000000000002,0.022000000000000002,0.022000000000000002,0.022000000000000002,0.023,0.023,0.025,0.027000000000000003,0.028999999999999998,0.031,0.032,0.033,0.034,0.034,0.034,0.033,0.031,0.03,0.027000000000000003,0.025,0.024,0.023,0.023,0.022000000000000002,0.022000000000000002,0.022000000000000002,0.022000000000000002,0.022000000000000002,0.022000000000000002,0.022000000000000002,0.022000000000000002,0.022000000000000002,0.022000000000000002,0.022000000000000002,0.022000000000000002,0.022000000000000002,0.022000000000000002,0.022000000000000002,0.022000000000000002,0.022000000000000002,0.022000000000000002,0.022000000000000002,0.022000000000000002,0.022000000000000002,0.022000000000000002,0.022000000000000002,0.022000000000000002,0.022000000000000002,0.021,0.02,0.019,0.017,0.016,0.013999999999999999,0.013000000000000001,0.013000000000000001,0.011000000000000001,0.009000000000000001,0.009000000000000001,0.009000000000000001,0.006999999999999999,0.005,0.002,-0.002,-0.005,-0.008,-0.009000000000000001,-0.011000000000000001,-0.013000000000000001,-0.013999999999999999,-0.016,-0.017,-0.018000000000000002,-0.019,-0.022000000000000002,-0.025,-0.027000000000000003,-0.03,-0.033,-0.036000000000000004,-0.038,-0.040999999999999995,-0.042,-0.044000000000000004,-0.045,-0.045,-0.046,-0.047,-0.047,-0.047,-0.047,-0.047,-0.047,-0.047,-0.046,-0.045,-0.044000000000000004,-0.042,-0.04,-0.038,-0.036000000000000004,-0.034,-0.032,-0.03,-0.027999999999999997,-0.027000000000000003,-0.027000000000000003,-0.027000000000000003,-0.027000000000000003,-0.027000000000000003,-0.027000000000000003,-0.027000000000000003,-0.027000000000000003,-0.027000000000000003,-0.027000000000000003,-0.027000000000000003,-0.027000000000000003,-0.027000000000000003,-0.026000000000000002,-0.025,-0.023,-0.022000000000000002,-0.019,-0.016,-0.013999999999999999,-0.013000000000000001,-0.011000000000000001,-0.009000000000000001,-0.008,-0.006,-0.006999999999999999,-0.008,-0.009000000000000001,-0.011000000000000001,-0.012,-0.013000000000000001,-0.013000000000000001,-0.013000000000000001,-0.012,-0.011000000000000001,-0.011000000000000001,-0.011000000000000001,-0.012,-0.013000000000000001,-0.013000000000000001,-0.013000000000000001,-0.012,-0.011000000000000001,-0.011000000000000001,-0.011000000000000001,-0.012,-0.013000000000000001,-0.013000000000000001,-0.013000000000000001,-0.012,-0.011000000000000001,-0.01,-0.009000000000000001,-0.008,-0.006,-0.004,-0.002,0.0,0.002,0.002,0.003,0.002,0.0,-0.002,-0.003,-0.004,-0.005,-0.005,-0.006,-0.005,-0.005,-0.002,0.0,0.003,0.006,0.009000000000000001,0.011000000000000001,0.012,0.013000000000000001,0.012,0.011000000000000001,0.01,0.009000000000000001,0.006999999999999999,0.005,0.002,0.0,-0.001,-0.002,-0.001,0.0,0.0,0.0,0.0,0.0,-0.001,-0.002,-0.004,-0.006,-0.008,-0.009000000000000001,-0.008,-0.006,-0.004,-0.002,0.0,0.002,0.003,0.005,0.005,0.006,0.008,0.009000000000000001,0.011000000000000001,0.013000000000000001,0.013000000000000001,0.013000000000000001,0.016,0.019,0.024,0.03,0.037000000000000005,0.044000000000000004,0.051,0.057999999999999996,0.065,0.07200000000000001,0.077,0.081,0.084,0.08800000000000001,0.09,0.092,0.096,0.1,0.10300000000000001,0.106,0.109,0.113,0.115,0.11699999999999999,0.11699999999999999,0.11699999999999999,0.11599999999999999,0.11599999999999999,0.113,0.109,0.10400000000000001,0.099,0.09300000000000001,0.08800000000000001,0.079,0.07,0.063,0.055,0.048,0.042,0.037000000000000005,0.031,0.026000000000000002,0.02,0.015,0.009000000000000001,0.004,-0.002,-0.006,-0.011000000000000001,-0.016,-0.022000000000000002,-0.027000000000000003,-0.031,-0.034,-0.038,-0.04,-0.042,-0.043,-0.044000000000000004,-0.043,-0.042,-0.04,-0.038,-0.037000000000000005,-0.036000000000000004,-0.036000000000000004,-0.036000000000000004,-0.037000000000000005,-0.038,-0.037000000000000005,-0.036000000000000004,-0.028999999999999998,-0.022000000000000002,-0.008,0.006,0.028999999999999998,0.052000000000000005,0.081,0.111,0.145,0.18,0.215,0.25,0.285,0.321,0.35700000000000004,0.39399999999999996,0.428,0.461,0.484,0.507,0.507,0.507,0.478,0.45,0.39899999999999997,0.34700000000000003,0.287,0.22699999999999998,0.17800000000000002,0.13,0.107,0.084,0.087,0.08900000000000001,0.107,0.125,0.145,0.166,0.18,0.19399999999999998,0.193,0.192,0.177,0.161,0.136,0.111,0.084,0.055999999999999994,0.033,0.009000000000000001,-0.006,-0.022000000000000002,-0.03,-0.039,-0.043,-0.047,-0.048,-0.05,-0.054000000000000006,-0.057999999999999996,-0.062,-0.066,-0.07,-0.073,-0.07400000000000001,-0.075,-0.07200000000000001,-0.069,-0.066,-0.063,-0.062,-0.061,-0.059000000000000004,-0.057999999999999996,-0.057999999999999996,-0.057999999999999996,-0.057999999999999996,-0.057999999999999996,-0.057,-0.055999999999999994,-0.055,-0.053,-0.052000000000000005,-0.05,-0.048,-0.045,-0.043,-0.040999999999999995,-0.04,-0.039,-0.04,-0.040999999999999995,-0.040999999999999995,-0.040999999999999995,-0.040999999999999995,-0.040999999999999995,-0.04,-0.039,-0.038,-0.036000000000000004,-0.034,-0.033,-0.03,-0.027999999999999997,-0.026000000000000002,-0.023,-0.021,-0.019,-0.016,-0.013999999999999999,-0.011000000000000001,-0.008,-0.005,-0.002,-0.001,0.0,0.0,0.0,0.0,0.0,0.001,0.002,0.003,0.005,0.005,0.005,0.005,0.005,0.005,0.005,0.005,0.006,0.008,0.009000000000000001,0.011000000000000001,0.013000000000000001,0.012,0.011000000000000001,0.011000000000000001,0.011000000000000001,0.011000000000000001,0.011000000000000001,0.012,0.013000000000000001,0.015,0.017,0.02,0.022000000000000002,0.023,0.023,0.023,0.022000000000000002,0.022000000000000002,0.022000000000000002,0.022000000000000002,0.022000000000000002,0.022000000000000002,0.022000000000000002,0.021,0.02,0.019,0.017,0.016,0.013999999999999999,0.013000000000000001,0.013000000000000001,0.01,0.008,0.006999999999999999,0.006,0.005,0.005,0.005,0.005,0.005,0.006,0.008,0.009000000000000001,0.012,0.013999999999999999,0.016,0.017,0.02,0.022000000000000002,0.023,0.023,0.023,0.022000000000000002,0.023,0.023,0.025,0.027000000000000003,0.027999999999999997,0.03,0.028999999999999998,0.027999999999999997,0.027000000000000003,0.027000000000000003,0.025,0.023,0.023,0.022000000000000002,0.021,0.02,0.019,0.017,0.016,0.013999999999999999,0.013000000000000001,0.011000000000000001,0.008,0.005,0.005,0.005,0.005,0.005,0.004,0.003,0.002,0.002,0.002,0.003,0.004,0.005,0.005,0.005,0.005,0.006,0.009000000000000001,0.011000000000000001,0.013999999999999999,0.017,0.017,0.017,0.016,0.016,0.013999999999999999,0.013000000000000001,0.011000000000000001,0.009000000000000001,0.011000000000000001,0.013000000000000001,0.013999999999999999,0.016,0.016,0.016,0.013999999999999999,0.013000000000000001,0.011000000000000001,0.009000000000000001,0.011000000000000001,0.013000000000000001,0.013999999999999999,0.016,0.016,0.016,0.013999999999999999,0.013000000000000001,0.011000000000000001,0.009000000000000001,0.01,0.011000000000000001,0.011000000000000001,0.011000000000000001,0.011000000000000001,0.011000000000000001,0.012,0.013000000000000001,0.013999999999999999,0.016,0.017,0.019,0.02,0.022000000000000002,0.023,0.023,0.023,0.022000000000000002,0.022000000000000002,0.022000000000000002,0.022000000000000002,0.022000000000000002,0.021,0.02,0.018000000000000002,0.016,0.013000000000000001,0.011000000000000001,0.01,0.009000000000000001,0.01,0.011000000000000001,0.012,0.013000000000000001,0.013999999999999999,0.016,0.017,0.019,0.02,0.022000000000000002,0.023,0.023,0.022000000000000002,0.02,0.019,0.017,0.016,0.013999999999999999,0.013000000000000001,0.013000000000000001,0.01,0.008,0.006999999999999999,0.006,0.006,0.006,0.009000000000000001,0.011000000000000001,0.013999999999999999,0.017,0.018000000000000002,0.019,0.02,0.02,0.02,0.019,0.016,0.013999999999999999,0.013000000000000001,0.013000000000000001,0.012,0.011000000000000001,0.013999999999999999,0.017,0.02,0.023,0.026000000000000002,0.027999999999999997,0.028999999999999998,0.03,0.028999999999999998,0.027999999999999997,0.027999999999999997,0.027999999999999997,0.027000000000000003,0.027000000000000003,0.025,0.023,0.023,0.022000000000000002,0.023,0.023,0.026000000000000002,0.027999999999999997,0.033,0.038,0.043,0.048,0.057,0.066,0.075,0.084,0.09300000000000001,0.102,0.111,0.12,0.128,0.136,0.142,0.149,0.152,0.156,0.159,0.161,0.163,0.16399999999999998,0.163,0.161,0.159,0.158,0.158,0.158,0.156,0.155,0.152,0.15,0.145,0.141,0.135,0.13,0.12300000000000001,0.11599999999999999,0.10800000000000001,0.1,0.095,0.08900000000000001,0.086,0.083,0.078,0.073,0.069,0.064,0.059000000000000004,0.055,0.048,0.042,0.038,0.033,0.03,0.027000000000000003,0.023,0.02,0.018000000000000002,0.016,0.013000000000000001,0.009000000000000001,0.006999999999999999,0.005,0.005,0.005,0.005,0.005,0.005,0.006,0.009000000000000001,0.011000000000000001,0.016,0.022000000000000002,0.03,0.039,0.053,0.067,0.08900000000000001,0.111,0.14,0.16899999999999998,0.20199999999999999,0.235,0.268,0.302,0.336,0.371,0.40700000000000003,0.444,0.47600000000000003,0.508,0.524,0.539,0.528,0.516,0.47600000000000003,0.436,0.379,0.322,0.268,0.214,0.177,0.141,0.128,0.11599999999999999,0.124,0.131,0.15,0.16899999999999998,0.187,0.205,0.213,0.22,0.213,0.20600000000000002,0.187,0.16699999999999998,0.142,0.11599999999999999,0.09,0.064,0.043,0.022000000000000002,0.009000000000000001,-0.005,-0.01,-0.016,-0.018000000000000002,-0.02,-0.023,-0.025,-0.027999999999999997,-0.031,-0.036000000000000004,-0.040999999999999995,-0.044000000000000004,-0.047,-0.048,-0.048,-0.05,-0.052000000000000005,-0.052000000000000005,-0.052000000000000005,-0.049,-0.047,-0.046,-0.045,-0.046,-0.047,-0.047,-0.047,-0.047,-0.047,-0.046,-0.045,-0.044000000000000004,-0.042,-0.04,-0.038,-0.036000000000000004,-0.034,-0.032,-0.03,-0.028999999999999998,-0.027999999999999997,-0.028999999999999998,-0.03,-0.028999999999999998,-0.027999999999999997,-0.027000000000000003,-0.025,-0.023,-0.022000000000000002,-0.019,-0.016,-0.013999999999999999,-0.013000000000000001,-0.012,-0.011000000000000001,-0.011000000000000001,-0.011000000000000001,-0.012,-0.013000000000000001,-0.012,-0.011000000000000001,-0.008,-0.005,-0.002,0.0,0.002,0.005,0.006,0.008,0.009000000000000001,0.011000000000000001,0.012,0.013000000000000001,0.015,0.017,0.02,0.022000000000000002,0.023,0.023,0.023,0.022000000000000002,0.022000000000000002,0.022000000000000002,0.022000000000000002,0.022000000000000002,0.022000000000000002,0.022000000000000002,0.022000000000000002,0.022000000000000002,0.022000000000000002,0.022000000000000002,0.022000000000000002,0.022000000000000002,0.022000000000000002,0.022000000000000002,0.022000000000000002,0.022000000000000002,0.022000000000000002,0.022000000000000002,0.022000000000000002,0.022000000000000002,0.021,0.02,0.019,0.017,0.016,0.013999999999999999,0.013000000000000001,0.013000000000000001,0.01,0.008,0.006999999999999999,0.006,0.005,0.005,0.005,0.005,0.005,0.005,0.005,0.005,0.005,0.005,0.005,0.005,0.005,0.005,0.005,0.005,0.005,0.006,0.009000000000000001,0.011000000000000001,0.013999999999999999,N
3,0.177,0.161,0.136,0.111,0.084,0.055999999999999994,0.033,0.009000000000000001,-0.006,-0.022000000000000002,-0.03,-0.039,-0.043,-0.047,-0.048,-0.05,-0.054000000000000006,-0.057999999999999996,-0.062,-0.066,-0.07,-0.073,-0.07400000000000001,-0.075,-0.07200000000000001,-0.069,-0.066,-0.063,-0.062,-0.061,-0.059000000000000004,-0.057999999999999996,-0.057999999999999996,-0.057999999999999996,-0.057999999999999996,-0.057999999999999996,-0.057,-0.055999999999999994,-0.055,-0.053,-0.052000000000000005,-0.05,-0.048,-0.045,-0.043,-0.040999999999999995,-0.04,-0.039,-0.04,-0.040999999999999995,-0.040999999999999995,-0.040999999999999995,-0.040999999999999995,-0.040999999999999995,-0.04,-0.039,-0.038,-0.036000000000000004,-0.034,-0.033,-0.03,-0.027999999999999997,-0.026000000000000002,-0.023,-0.021,-0.019,-0.016,-0.013999999999999999,-0.011000000000000001,-0.008,-0.005,-0.002,-0.001,0.0,0.0,0.0,0.0,0.0,0.001,0.002,0.003,0.005,0.005,0.005,0.005,0.005,0.005,0.005,0.005,0.006,0.008,0.009000000000000001,0.011000000000000001,0.013000000000000001,0.012,0.011000000000000001,0.011000000000000001,0.011000000000000001,0.011000000000000001,0.011000000000000001,0.012,0.013000000000000001,0.015,0.017,0.02,0.022000000000000002,0.023,0.023,0.023,0.022000000000000002,0.022000000000000002,0.022000000000000002,0.022000000000000002,0.022000000000000002,0.022000000000000002,0.022000000000000002,0.021,0.02,0.019,0.017,0.016,0.013999999999999999,0.013000000000000001,0.013000000000000001,0.01,0.008,0.006999999999999999,0.006,0.005,0.005,0.005,0.005,0.005,0.006,0.008,0.009000000000000001,0.012,0.013999999999999999,0.016,0.017,0.02,0.022000000000000002,0.023,0.023,0.023,0.022000000000000002,0.023,0.023,0.025,0.027000000000000003,0.027999999999999997,0.03,0.028999999999999998,0.027999999999999997,0.027000000000000003,0.027000000000000003,0.025,0.023,0.023,0.022000000000000002,0.021,0.02,0.019,0.017,0.016,0.013999999999999999,0.013000000000000001,0.011000000000000001,0.008,0.005,0.005,0.005,0.005,0.005,0.004,0.003,0.002,0.002,0.002,0.003,0.004,0.005,0.005,0.005,0.005,0.006,0.009000000000000001,0.011000000000000001,0.013999999999999999,0.017,0.017,0.017,0.016,0.016,0.013999999999999999,0.013000000000000001,0.011000000000000001,0.009000000000000001,0.011000000000000001,0.013000000000000001,0.013999999999999999,0.016,0.016,0.016,0.013999999999999999,0.013000000000000001,0.011000000000000001,0.009000000000000001,0.011000000000000001,0.013000000000000001,0.013999999999999999,0.016,0.016,0.016,0.013999999999999999,0.013000000000000001,0.011000000000000001,0.009000000000000001,0.01,0.011000000000000001,0.011000000000000001,0.011000000000000001,0.011000000000000001,0.011000000000000001,0.012,0.013000000000000001,0.013999999999999999,0.016,0.017,0.019,0.02,0.022000000000000002,0.023,0.023,0.023,0.022000000000000002,0.022000000000000002,0.022000000000000002,0.022000000000000002,0.022000000000000002,0.021,0.02,0.018000000000000002,0.016,0.013000000000000001,0.011000000000000001,0.01,0.009000000000000001,0.01,0.011000000000000001,0.012,0.013000000000000001,0.013999999999999999,0.016,0.017,0.019,0.02,0.022000000000000002,0.023,0.023,0.022000000000000002,0.02,0.019,0.017,0.016,0.013999999999999999,0.013000000000000001,0.013000000000000001,0.01,0.008,0.006999999999999999,0.006,0.006,0.006,0.009000000000000001,0.011000000000000001,0.013999999999999999,0.017,0.018000000000000002,0.019,0.02,0.02,0.02,0.019,0.016,0.013999999999999999,0.013000000000000001,0.013000000000000001,0.012,0.011000000000000001,0.013999999999999999,0.017,0.02,0.023,0.026000000000000002,0.027999999999999997,0.028999999999999998,0.03,0.028999999999999998,0.027999999999999997,0.027999999999999997,0.027999999999999997,0.027000000000000003,0.027000000000000003,0.025,0.023,0.023,0.022000000000000002,0.023,0.023,0.026000000000000002,0.027999999999999997,0.033,0.038,0.043,0.048,0.057,0.066,0.075,0.084,0.09300000000000001,0.102,0.111,0.12,0.128,0.136,0.142,0.149,0.152,0.156,0.159,0.161,0.163,0.16399999999999998,0.163,0.161,0.159,0.158,0.158,0.158,0.156,0.155,0.152,0.15,0.145,0.141,0.135,0.13,0.12300000000000001,0.11599999999999999,0.10800000000000001,0.1,0.095,0.08900000000000001,0.086,0.083,0.078,0.073,0.069,0.064,0.059000000000000004,0.055,0.048,0.042,0.038,0.033,0.03,0.027000000000000003,0.023,0.02,0.018000000000000002,0.016,0.013000000000000001,0.009000000000000001,0.006999999999999999,0.005,0.005,0.005,0.005,0.005,0.005,0.006,0.009000000000000001,0.011000000000000001,0.016,0.022000000000000002,0.03,0.039,0.053,0.067,0.08900000000000001,0.111,0.14,0.16899999999999998,0.20199999999999999,0.235,0.268,0.302,0.336,0.371,0.40700000000000003,0.444,0.47600000000000003,0.508,0.524,0.539,0.528,0.516,0.47600000000000003,0.436,0.379,0.322,0.268,0.214,0.177,0.141,0.128,0.11599999999999999,0.124,0.131,0.15,0.16899999999999998,0.187,0.205,0.213,0.22,0.213,0.20600000000000002,0.187,0.16699999999999998,0.142,0.11599999999999999,0.09,0.064,0.043,0.022000000000000002,0.009000000000000001,-0.005,-0.01,-0.016,-0.018000000000000002,-0.02,-0.023,-0.025,-0.027999999999999997,-0.031,-0.036000000000000004,-0.040999999999999995,-0.044000000000000004,-0.047,-0.048,-0.048,-0.05,-0.052000000000000005,-0.052000000000000005,-0.052000000000000005,-0.049,-0.047,-0.046,-0.045,-0.046,-0.047,-0.047,-0.047,-0.047,-0.047,-0.046,-0.045,-0.044000000000000004,-0.042,-0.04,-0.038,-0.036000000000000004,-0.034,-0.032,-0.03,-0.028999999999999998,-0.027999999999999997,-0.028999999999999998,-0.03,-0.028999999999999998,-0.027999999999999997,-0.027000000000000003,-0.025,-0.023,-0.022000000000000002,-0.019,-0.016,-0.013999999999999999,-0.013000000000000001,-0.012,-0.011000000000000001,-0.011000000000000001,-0.011000000000000001,-0.012,-0.013000000000000001,-0.012,-0.011000000000000001,-0.008,-0.005,-0.002,0.0,0.002,0.005,0.006,0.008,0.009000000000000001,0.011000000000000001,0.012,0.013000000000000001,0.015,0.017,0.02,0.022000000000000002,0.023,0.023,0.023,0.022000000000000002,0.022000000000000002,0.022000000000000002,0.022000000000000002,0.022000000000000002,0.022000000000000002,0.022000000000000002,0.022000000000000002,0.022000000000000002,0.022000000000000002,0.022000000000000002,0.022000000000000002,0.022000000000000002,0.022000000000000002,0.022000000000000002,0.022000000000000002,0.022000000000000002,0.022000000000000002,0.022000000000000002,0.022000000000000002,0.022000000000000002,0.021,0.02,0.019,0.017,0.016,0.013999999999999999,0.013000000000000001,0.013000000000000001,0.01,0.008,0.006999999999999999,0.006,0.005,0.005,0.005,0.005,0.005,0.005,0.005,0.005,0.005,0.005,0.005,0.005,0.005,0.005,0.005,0.005,0.005,0.006,0.009000000000000001,0.011000000000000001,0.013999999999999999,0.017,0.018000000000000002,0.019,0.02,0.022000000000000002,0.022000000000000002,0.022000000000000002,0.019,0.016,0.013000000000000001,0.011000000000000001,0.009000000000000001,0.008,0.006,0.005,0.001,-0.003,-0.008,-0.013000000000000001,-0.016,-0.02,-0.022000000000000002,-0.023,-0.023,-0.023,-0.023,-0.023,-0.024,-0.025,-0.027000000000000003,-0.027999999999999997,-0.027999999999999997,-0.027999999999999997,-0.027000000000000003,-0.025,-0.024,-0.023,-0.023,-0.022000000000000002,-0.023,-0.025,-0.027000000000000003,-0.03,-0.033,-0.036000000000000004,-0.038,-0.040999999999999995,-0.040999999999999995,-0.042,-0.040999999999999995,-0.039,-0.038,-0.036000000000000004,-0.034,-0.033,-0.031,-0.03,-0.027999999999999997,-0.027000000000000003,-0.026000000000000002,-0.025,-0.023,-0.022000000000000002,-0.019,-0.016,-0.013000000000000001,-0.011000000000000001,-0.008,-0.005,-0.003,-0.002,-0.001,0.0,0.0,0.0,0.001,0.002,0.004,0.006,0.008,0.009000000000000001,0.012,0.013999999999999999,0.015,0.016,0.016,0.017,0.017,0.017,0.017,0.017,0.017,0.017,0.017,0.017,0.017,0.017,0.017,0.017,0.018000000000000002,0.019,0.02,0.022000000000000002,0.023,0.023,0.023,0.022000000000000002,0.021,0.02,0.019,0.017,0.016,0.013999999999999999,0.013000000000000001,0.011000000000000001,0.008,0.005,0.005,0.005,0.005,0.006,0.008,0.009000000000000001,0.012,0.013999999999999999,0.015,0.016,0.017,0.019,0.02,0.02,0.019,0.017,0.013000000000000001,0.009000000000000001,0.006,0.003,0.002,0.002,0.002,0.003,0.005,0.006,0.008,0.009000000000000001,0.01,0.011000000000000001,0.009000000000000001,0.006,0.005,0.005,0.004,0.003,0.002,0.002,0.002,0.003,0.004,0.005,0.005,0.005,0.005,0.005,0.005,0.006,0.008,0.009000000000000001,0.013000000000000001,0.016,0.019,0.022000000000000002,0.027000000000000003,0.033,0.040999999999999995,0.048,0.055999999999999994,0.064,0.071,0.078,0.08199999999999999,0.086,0.08800000000000001,0.091,0.092,0.094,0.095,0.09699999999999999,0.1,0.10300000000000001,0.106,0.109,0.111,0.113,0.11,0.10800000000000001,0.10400000000000001,0.1,0.095,0.08900000000000001,0.084,0.078,0.073,0.067,0.063,0.057999999999999996,0.053,0.048,0.043,0.038,0.031,0.025,0.02,0.013999999999999999,0.009000000000000001,0.003,-0.003,-0.009000000000000001,-0.015,-0.02,-0.026000000000000002,-0.031,-0.037000000000000005,-0.042,-0.045,-0.048,-0.051,-0.053,-0.055999999999999994,-0.057999999999999996,-0.057999999999999996,-0.057999999999999996,-0.059000000000000004,-0.059000000000000004,-0.061,-0.063,-0.063,-0.064,-0.063,-0.061,-0.057999999999999996,-0.055,-0.048,-0.042,-0.028999999999999998,-0.016,0.006,0.027999999999999997,0.057,0.086,0.11900000000000001,0.152,0.185,0.21899999999999997,0.252,0.285,0.318,0.35200000000000004,0.385,0.418,0.44299999999999995,0.46799999999999997,0.474,0.48,0.457,0.435,0.387,0.33899999999999997,0.281,0.22399999999999998,0.174,0.124,0.09699999999999999,0.07,0.068,0.066,0.081,0.09699999999999999,0.12,0.142,0.158,0.174,0.174,0.175,0.16399999999999998,0.153,0.134,0.11599999999999999,0.091,0.066,0.042,0.019,0.002,-0.016,-0.025,-0.034,-0.038,-0.040999999999999995,-0.040999999999999995,-0.042,-0.042,-0.042,-0.044000000000000004,-0.045,-0.046,-0.047,-0.047,-0.047,-0.046,-0.045,-0.044000000000000004,-0.042,-0.04,-0.038,-0.036000000000000004,-0.034,-0.031,-0.027999999999999997,-0.026000000000000002,-0.023,-0.022000000000000002,-0.02,-0.02,-0.019,-0.017,-0.016,-0.013999999999999999,-0.013000000000000001,-0.012,-0.011000000000000001,-0.011000000000000001,-0.011000000000000001,-0.011000000000000001,-0.011000000000000001,-0.009000000000000001,-0.008,-0.006,-0.005,-0.002,0.0,0.003,0.006,0.009000000000000001,0.013000000000000001,0.016,0.019,0.02,0.022000000000000002,0.023,0.023,0.023,0.022000000000000002,0.022000000000000002,0.022000000000000002,0.022000000000000002,0.022000000000000002,0.022000000000000002,0.022000000000000002,0.022000000000000002,0.022000000000000002,0.022000000000000002,0.022000000000000002,0.023,0.023,0.025,0.027000000000000003,0.027999999999999997,0.03,0.028999999999999998,0.027999999999999997,0.027999999999999997,0.027999999999999997,0.027999999999999997,0.027999999999999997,0.027999999999999997,0.027999999999999997,0.027999999999999997,0.027999999999999997,0.027999999999999997,0.027999999999999997,0.028999999999999998,0.03,0.03,0.031,0.03,0.03,0.028999999999999998,0.027999999999999997,0.027000000000000003,0.027000000000000003,0.025,0.023,0.023,0.023,0.025,0.027000000000000003,0.027999999999999997,0.03,0.028999999999999998,0.027999999999999997,0.027999999999999997,0.027999999999999997,0.027999999999999997,0.027999999999999997,0.027999999999999997,0.027999999999999997,0.027999999999999997,0.027999999999999997,0.027999999999999997,0.027999999999999997,0.027000000000000003,0.027000000000000003,0.025,0.023,0.023,0.022000000000000002,0.022000000000000002,0.022000000000000002,0.021,0.02,0.019,0.017,0.017,0.017,0.02,0.022000000000000002,0.023,0.023,0.023,0.023,N
4,0.213,0.20600000000000002,0.187,0.16699999999999998,0.142,0.11599999999999999,0.09,0.064,0.043,0.022000000000000002,0.009000000000000001,-0.005,-0.01,-0.016,-0.018000000000000002,-0.02,-0.023,-0.025,-0.027999999999999997,-0.031,-0.036000000000000004,-0.040999999999999995,-0.044000000000000004,-0.047,-0.048,-0.048,-0.05,-0.052000000000000005,-0.052000000000000005,-0.052000000000000005,-0.049,-0.047,-0.046,-0.045,-0.046,-0.047,-0.047,-0.047,-0.047,-0.047,-0.046,-0.045,-0.044000000000000004,-0.042,-0.04,-0.038,-0.036000000000000004,-0.034,-0.032,-0.03,-0.028999999999999998,-0.027999999999999997,-0.028999999999999998,-0.03,-0.028999999999999998,-0.027999999999999997,-0.027000000000000003,-0.025,-0.023,-0.022000000000000002,-0.019,-0.016,-0.013999999999999999,-0.013000000000000001,-0.012,-0.011000000000000001,-0.011000000000000001,-0.011000000000000001,-0.012,-0.013000000000000001,-0.012,-0.011000000000000001,-0.008,-0.005,-0.002,0.0,0.002,0.005,0.006,0.008,0.009000000000000001,0.011000000000000001,0.012,0.013000000000000001,0.015,0.017,0.02,0.022000000000000002,0.023,0.023,0.023,0.022000000000000002,0.022000000000000002,0.022000000000000002,0.022000000000000002,0.022000000000000002,0.022000000000000002,0.022000000000000002,0.022000000000000002,0.022000000000000002,0.022000000000000002,0.022000000000000002,0.022000000000000002,0.022000000000000002,0.022000000000000002,0.022000000000000002,0.022000000000000002,0.022000000000000002,0.022000000000000002,0.022000000000000002,0.022000000000000002,0.022000000000000002,0.021,0.02,0.019,0.017,0.016,0.013999999999999999,0.013000000000000001,0.013000000000000001,0.01,0.008,0.006999999999999999,0.006,0.005,0.005,0.005,0.005,0.005,0.005,0.005,0.005,0.005,0.005,0.005,0.005,0.005,0.005,0.005,0.005,0.005,0.006,0.009000000000000001,0.011000000000000001,0.013999999999999999,0.017,0.018000000000000002,0.019,0.02,0.022000000000000002,0.022000000000000002,0.022000000000000002,0.019,0.016,0.013000000000000001,0.011000000000000001,0.009000000000000001,0.008,0.006,0.005,0.001,-0.003,-0.008,-0.013000000000000001,-0.016,-0.02,-0.022000000000000002,-0.023,-0.023,-0.023,-0.023,-0.023,-0.024,-0.025,-0.027000000000000003,-0.027999999999999997,-0.027999999999999997,-0.027999999999999997,-0.027000000000000003,-0.025,-0.024,-0.023,-0.023,-0.022000000000000002,-0.023,-0.025,-0.027000000000000003,-0.03,-0.033,-0.036000000000000004,-0.038,-0.040999999999999995,-0.040999999999999995,-0.042,-0.040999999999999995,-0.039,-0.038,-0.036000000000000004,-0.034,-0.033,-0.031,-0.03,-0.027999999999999997,-0.027000000000000003,-0.026000000000000002,-0.025,-0.023,-0.022000000000000002,-0.019,-0.016,-0.013000000000000001,-0.011000000000000001,-0.008,-0.005,-0.003,-0.002,-0.001,0.0,0.0,0.0,0.001,0.002,0.004,0.006,0.008,0.009000000000000001,0.012,0.013999999999999999,0.015,0.016,0.016,0.017,0.017,0.017,0.017,0.017,0.017,0.017,0.017,0.017,0.017,0.017,0.017,0.017,0.018000000000000002,0.019,0.02,0.022000000000000002,0.023,0.023,0.023,0.022000000000000002,0.021,0.02,0.019,0.017,0.016,0.013999999999999999,0.013000000000000001,0.011000000000000001,0.008,0.005,0.005,0.005,0.005,0.006,0.008,0.009000000000000001,0.012,0.013999999999999999,0.015,0.016,0.017,0.019,0.02,0.02,0.019,0.017,0.013000000000000001,0.009000000000000001,0.006,0.003,0.002,0.002,0.002,0.003,0.005,0.006,0.008,0.009000000000000001,0.01,0.011000000000000001,0.009000000000000001,0.006,0.005,0.005,0.004,0.003,0.002,0.002,0.002,0.003,0.004,0.005,0.005,0.005,0.005,0.005,0.005,0.006,0.008,0.009000000000000001,0.013000000000000001,0.016,0.019,0.022000000000000002,0.027000000000000003,0.033,0.040999999999999995,0.048,0.055999999999999994,0.064,0.071,0.078,0.08199999999999999,0.086,0.08800000000000001,0.091,0.092,0.094,0.095,0.09699999999999999,0.1,0.10300000000000001,0.106,0.109,0.111,0.113,0.11,0.10800000000000001,0.10400000000000001,0.1,0.095,0.08900000000000001,0.084,0.078,0.073,0.067,0.063,0.057999999999999996,0.053,0.048,0.043,0.038,0.031,0.025,0.02,0.013999999999999999,0.009000000000000001,0.003,-0.003,-0.009000000000000001,-0.015,-0.02,-0.026000000000000002,-0.031,-0.037000000000000005,-0.042,-0.045,-0.048,-0.051,-0.053,-0.055999999999999994,-0.057999999999999996,-0.057999999999999996,-0.057999999999999996,-0.059000000000000004,-0.059000000000000004,-0.061,-0.063,-0.063,-0.064,-0.063,-0.061,-0.057999999999999996,-0.055,-0.048,-0.042,-0.028999999999999998,-0.016,0.006,0.027999999999999997,0.057,0.086,0.11900000000000001,0.152,0.185,0.21899999999999997,0.252,0.285,0.318,0.35200000000000004,0.385,0.418,0.44299999999999995,0.46799999999999997,0.474,0.48,0.457,0.435,0.387,0.33899999999999997,0.281,0.22399999999999998,0.174,0.124,0.09699999999999999,0.07,0.068,0.066,0.081,0.09699999999999999,0.12,0.142,0.158,0.174,0.174,0.175,0.16399999999999998,0.153,0.134,0.11599999999999999,0.091,0.066,0.042,0.019,0.002,-0.016,-0.025,-0.034,-0.038,-0.040999999999999995,-0.040999999999999995,-0.042,-0.042,-0.042,-0.044000000000000004,-0.045,-0.046,-0.047,-0.047,-0.047,-0.046,-0.045,-0.044000000000000004,-0.042,-0.04,-0.038,-0.036000000000000004,-0.034,-0.031,-0.027999999999999997,-0.026000000000000002,-0.023,-0.022000000000000002,-0.02,-0.02,-0.019,-0.017,-0.016,-0.013999999999999999,-0.013000000000000001,-0.012,-0.011000000000000001,-0.011000000000000001,-0.011000000000000001,-0.011000000000000001,-0.011000000000000001,-0.009000000000000001,-0.008,-0.006,-0.005,-0.002,0.0,0.003,0.006,0.009000000000000001,0.013000000000000001,0.016,0.019,0.02,0.022000000000000002,0.023,0.023,0.023,0.022000000000000002,0.022000000000000002,0.022000000000000002,0.022000000000000002,0.022000000000000002,0.022000000000000002,0.022000000000000002,0.022000000000000002,0.022000000000000002,0.022000000000000002,0.022000000000000002,0.023,0.023,0.025,0.027000000000000003,0.027999999999999997,0.03,0.028999999999999998,0.027999999999999997,0.027999999999999997,0.027999999999999997,0.027999999999999997,0.027999999999999997,0.027999999999999997,0.027999999999999997,0.027999999999999997,0.027999999999999997,0.027999999999999997,0.027999999999999997,0.028999999999999998,0.03,0.03,0.031,0.03,0.03,0.028999999999999998,0.027999999999999997,0.027000000000000003,0.027000000000000003,0.025,0.023,0.023,0.023,0.025,0.027000000000000003,0.027999999999999997,0.03,0.028999999999999998,0.027999999999999997,0.027999999999999997,0.027999999999999997,0.027999999999999997,0.027999999999999997,0.027999999999999997,0.027999999999999997,0.027999999999999997,0.027999999999999997,0.027999999999999997,0.027999999999999997,0.027000000000000003,0.027000000000000003,0.025,0.023,0.023,0.022000000000000002,0.022000000000000002,0.022000000000000002,0.021,0.02,0.019,0.017,0.017,0.017,0.02,0.022000000000000002,0.023,0.023,0.023,0.023,0.025,0.027000000000000003,0.027999999999999997,0.03,0.028999999999999998,0.027999999999999997,0.027000000000000003,0.027000000000000003,0.024,0.022000000000000002,0.02,0.017,0.016,0.013999999999999999,0.013000000000000001,0.011000000000000001,0.006999999999999999,0.003,0.001,-0.002,-0.005,-0.008,-0.01,-0.013000000000000001,-0.015,-0.017,-0.016,-0.016,-0.013999999999999999,-0.013000000000000001,-0.012,-0.011000000000000001,-0.011000000000000001,-0.011000000000000001,-0.013000000000000001,-0.013999999999999999,-0.015,-0.016,-0.015,-0.013999999999999999,-0.013999999999999999,-0.013999999999999999,-0.013999999999999999,-0.013999999999999999,-0.013999999999999999,-0.013999999999999999,-0.013999999999999999,-0.013999999999999999,-0.015,-0.016,-0.017,-0.019,-0.021,-0.023,-0.023,-0.023,-0.023,-0.023,-0.023,-0.022000000000000002,-0.02,-0.019,-0.017,-0.016,-0.013999999999999999,-0.013000000000000001,-0.012,-0.011000000000000001,-0.011000000000000001,-0.011000000000000001,-0.012,-0.013000000000000001,-0.012,-0.011000000000000001,-0.009000000000000001,-0.008,-0.009000000000000001,-0.011000000000000001,-0.012,-0.013000000000000001,-0.013000000000000001,-0.013000000000000001,-0.011000000000000001,-0.009000000000000001,-0.006999999999999999,-0.005,-0.003,-0.002,0.0,0.002,0.003,0.005,0.005,0.005,0.005,0.005,0.005,0.005,0.005,0.005,0.005,0.005,0.005,0.005,0.005,0.005,0.005,0.005,0.005,0.005,0.005,0.005,0.005,0.006,0.008,0.009000000000000001,0.011000000000000001,0.013000000000000001,0.012,0.011000000000000001,0.011000000000000001,0.011000000000000001,0.011000000000000001,0.011000000000000001,0.01,0.009000000000000001,0.008,0.006,0.005,0.005,0.005,0.005,0.005,0.005,0.005,0.005,0.005,0.005,0.005,0.005,0.005,0.005,0.005,0.006,0.008,0.009000000000000001,0.012,0.013999999999999999,0.015,0.016,0.016,0.016,0.013999999999999999,0.013000000000000001,0.011000000000000001,0.009000000000000001,0.011000000000000001,0.013000000000000001,0.013999999999999999,0.016,0.017,0.019,0.02,0.022000000000000002,0.023,0.025,0.027000000000000003,0.027999999999999997,0.033,0.038,0.042,0.047,0.054000000000000006,0.061,0.068,0.075,0.081,0.08800000000000001,0.091,0.094,0.096,0.099,0.10099999999999999,0.10300000000000001,0.107,0.111,0.115,0.11900000000000001,0.12,0.12,0.11900000000000001,0.11699999999999999,0.113,0.10800000000000001,0.10300000000000001,0.099,0.095,0.091,0.087,0.083,0.077,0.07200000000000001,0.065,0.057999999999999996,0.051,0.044000000000000004,0.037000000000000005,0.03,0.026000000000000002,0.022000000000000002,0.017,0.013000000000000001,0.005,-0.002,-0.008,-0.013999999999999999,-0.02,-0.025,-0.028999999999999998,-0.033,-0.036000000000000004,-0.039,-0.040999999999999995,-0.044000000000000004,-0.045,-0.045,-0.046,-0.047,-0.047,-0.047,-0.048,-0.048,-0.049,-0.05,-0.049,-0.048,-0.045,-0.042,-0.037000000000000005,-0.031,-0.02,-0.009000000000000001,0.011000000000000001,0.031,0.057,0.083,0.113,0.14400000000000002,0.177,0.21,0.244,0.278,0.314,0.349,0.38299999999999995,0.418,0.44299999999999995,0.46799999999999997,0.47100000000000003,0.475,0.452,0.428,0.381,0.33299999999999996,0.27399999999999997,0.21600000000000003,0.16899999999999998,0.122,0.098,0.073,0.07200000000000001,0.07,0.087,0.10300000000000001,0.125,0.147,0.159,0.172,0.17,0.16899999999999998,0.155,0.141,0.11900000000000001,0.09699999999999999,0.07,0.042,0.019,-0.005,-0.023,-0.040999999999999995,-0.052000000000000005,-0.063,-0.067,-0.07200000000000001,-0.07400000000000001,-0.077,-0.079,-0.081,-0.085,-0.08900000000000001,-0.09300000000000001,-0.09699999999999999,-0.098,-0.099,-0.099,-0.099,-0.099,-0.099,-0.098,-0.09699999999999999,-0.095,-0.092,-0.08800000000000001,-0.084,-0.081,-0.078,-0.073,-0.069,-0.066,-0.063,-0.063,-0.063,-0.062,-0.061,-0.059000000000000004,-0.057999999999999996,-0.057,-0.055999999999999994,-0.054000000000000006,-0.052000000000000005,-0.049,-0.047,-0.046,-0.045,-0.046,-0.047,-0.046,-0.045,-0.044000000000000004,-0.042,-0.04,-0.038,-0.036000000000000004,-0.034,-0.031,-0.027999999999999997,-0.025,-0.022000000000000002,-0.019,-0.016,-0.013999999999999999,-0.013000000000000001,-0.012,-0.011000000000000001,-0.011000000000000001,-0.011000000000000001,-0.012,-0.013000000000000001,-0.012,-0.011000000000000001,-0.008,-0.005,-0.003,-0.002,0.0,0.002,0.003,0.005,0.005,0.005,0.005,0.005,0.005,0.005,0.005,0.005,0.005,0.005,0.005,0.005,0.005,0.005,0.005,0.006,0.008,0.009000000000000001,0.012,0.013999999999999999,0.015,0.016,0.016,0.016,0.013999999999999999,0.013000000000000001,0.01,0.008,0.006999999999999999,0.006,0.005,0.005,0.005,0.005,0.005,0.005,0.004,0.003,0.002,0.0,-0.002,-0.005,-0.006999999999999999,-0.009000000000000001,-0.012,-0.013999999999999999,-0.016,-0.017,-0.018000000000000002,-0.019,-0.02,-0.022000000000000002,-0.02,-0.019,-0.017,-0.016,-0.013000000000000001,-0.011000000000000001,N
5,0.174,0.175,0.16399999999999998,0.153,0.134,0.11599999999999999,0.091,0.066,0.042,0.019,0.002,-0.016,-0.025,-0.034,-0.038,-0.040999999999999995,-0.040999999999999995,-0.042,-0.042,-0.042,-0.044000000000000004,-0.045,-0.046,-0.047,-0.047,-0.047,-0.046,-0.045,-0.044000000000000004,-0.042,-0.04,-0.038,-0.036000000000000004,-0.034,-0.031,-0.027999999999999997,-0.026000000000000002,-0.023,-0.022000000000000002,-0.02,-0.02,-0.019,-0.017,-0.016,-0.013999999999999999,-0.013000000000000001,-0.012,-0.011000000000000001,-0.011000000000000001,-0.011000000000000001,-0.011000000000000001,-0.011000000000000001,-0.009000000000000001,-0.008,-0.006,-0.005,-0.002,0.0,0.003,0.006,0.009000000000000001,0.013000000000000001,0.016,0.019,0.02,0.022000000000000002,0.023,0.023,0.023,0.022000000000000002,0.022000000000000002,0.022000000000000002,0.022000000000000002,0.022000000000000002,0.022000000000000002,0.022000000000000002,0.022000000000000002,0.022000000000000002,0.022000000000000002,0.022000000000000002,0.023,0.023,0.025,0.027000000000000003,0.027999999999999997,0.03,0.028999999999999998,0.027999999999999997,0.027999999999999997,0.027999999999999997,0.027999999999999997,0.027999999999999997,0.027999999999999997,0.027999999999999997,0.027999999999999997,0.027999999999999997,0.027999999999999997,0.027999999999999997,0.028999999999999998,0.03,0.03,0.031,0.03,0.03,0.028999999999999998,0.027999999999999997,0.027000000000000003,0.027000000000000003,0.025,0.023,0.023,0.023,0.025,0.027000000000000003,0.027999999999999997,0.03,0.028999999999999998,0.027999999999999997,0.027999999999999997,0.027999999999999997,0.027999999999999997,0.027999999999999997,0.027999999999999997,0.027999999999999997,0.027999999999999997,0.027999999999999997,0.027999999999999997,0.027999999999999997,0.027000000000000003,0.027000000000000003,0.025,0.023,0.023,0.022000000000000002,0.022000000000000002,0.022000000000000002,0.021,0.02,0.019,0.017,0.017,0.017,0.02,0.022000000000000002,0.023,0.023,0.023,0.023,0.025,0.027000000000000003,0.027999999999999997,0.03,0.028999999999999998,0.027999999999999997,0.027000000000000003,0.027000000000000003,0.024,0.022000000000000002,0.02,0.017,0.016,0.013999999999999999,0.013000000000000001,0.011000000000000001,0.006999999999999999,0.003,0.001,-0.002,-0.005,-0.008,-0.01,-0.013000000000000001,-0.015,-0.017,-0.016,-0.016,-0.013999999999999999,-0.013000000000000001,-0.012,-0.011000000000000001,-0.011000000000000001,-0.011000000000000001,-0.013000000000000001,-0.013999999999999999,-0.015,-0.016,-0.015,-0.013999999999999999,-0.013999999999999999,-0.013999999999999999,-0.013999999999999999,-0.013999999999999999,-0.013999999999999999,-0.013999999999999999,-0.013999999999999999,-0.013999999999999999,-0.015,-0.016,-0.017,-0.019,-0.021,-0.023,-0.023,-0.023,-0.023,-0.023,-0.023,-0.022000000000000002,-0.02,-0.019,-0.017,-0.016,-0.013999999999999999,-0.013000000000000001,-0.012,-0.011000000000000001,-0.011000000000000001,-0.011000000000000001,-0.012,-0.013000000000000001,-0.012,-0.011000000000000001,-0.009000000000000001,-0.008,-0.009000000000000001,-0.011000000000000001,-0.012,-0.013000000000000001,-0.013000000000000001,-0.013000000000000001,-0.011000000000000001,-0.009000000000000001,-0.006999999999999999,-0.005,-0.003,-0.002,0.0,0.002,0.003,0.005,0.005,0.005,0.005,0.005,0.005,0.005,0.005,0.005,0.005,0.005,0.005,0.005,0.005,0.005,0.005,0.005,0.005,0.005,0.005,0.005,0.005,0.006,0.008,0.009000000000000001,0.011000000000000001,0.013000000000000001,0.012,0.011000000000000001,0.011000000000000001,0.011000000000000001,0.011000000000000001,0.011000000000000001,0.01,0.009000000000000001,0.008,0.006,0.005,0.005,0.005,0.005,0.005,0.005,0.005,0.005,0.005,0.005,0.005,0.005,0.005,0.005,0.005,0.006,0.008,0.009000000000000001,0.012,0.013999999999999999,0.015,0.016,0.016,0.016,0.013999999999999999,0.013000000000000001,0.011000000000000001,0.009000000000000001,0.011000000000000001,0.013000000000000001,0.013999999999999999,0.016,0.017,0.019,0.02,0.022000000000000002,0.023,0.025,0.027000000000000003,0.027999999999999997,0.033,0.038,0.042,0.047,0.054000000000000006,0.061,0.068,0.075,0.081,0.08800000000000001,0.091,0.094,0.096,0.099,0.10099999999999999,0.10300000000000001,0.107,0.111,0.115,0.11900000000000001,0.12,0.12,0.11900000000000001,0.11699999999999999,0.113,0.10800000000000001,0.10300000000000001,0.099,0.095,0.091,0.087,0.083,0.077,0.07200000000000001,0.065,0.057999999999999996,0.051,0.044000000000000004,0.037000000000000005,0.03,0.026000000000000002,0.022000000000000002,0.017,0.013000000000000001,0.005,-0.002,-0.008,-0.013999999999999999,-0.02,-0.025,-0.028999999999999998,-0.033,-0.036000000000000004,-0.039,-0.040999999999999995,-0.044000000000000004,-0.045,-0.045,-0.046,-0.047,-0.047,-0.047,-0.048,-0.048,-0.049,-0.05,-0.049,-0.048,-0.045,-0.042,-0.037000000000000005,-0.031,-0.02,-0.009000000000000001,0.011000000000000001,0.031,0.057,0.083,0.113,0.14400000000000002,0.177,0.21,0.244,0.278,0.314,0.349,0.38299999999999995,0.418,0.44299999999999995,0.46799999999999997,0.47100000000000003,0.475,0.452,0.428,0.381,0.33299999999999996,0.27399999999999997,0.21600000000000003,0.16899999999999998,0.122,0.098,0.073,0.07200000000000001,0.07,0.087,0.10300000000000001,0.125,0.147,0.159,0.172,0.17,0.16899999999999998,0.155,0.141,0.11900000000000001,0.09699999999999999,0.07,0.042,0.019,-0.005,-0.023,-0.040999999999999995,-0.052000000000000005,-0.063,-0.067,-0.07200000000000001,-0.07400000000000001,-0.077,-0.079,-0.081,-0.085,-0.08900000000000001,-0.09300000000000001,-0.09699999999999999,-0.098,-0.099,-0.099,-0.099,-0.099,-0.099,-0.098,-0.09699999999999999,-0.095,-0.092,-0.08800000000000001,-0.084,-0.081,-0.078,-0.073,-0.069,-0.066,-0.063,-0.063,-0.063,-0.062,-0.061,-0.059000000000000004,-0.057999999999999996,-0.057,-0.055999999999999994,-0.054000000000000006,-0.052000000000000005,-0.049,-0.047,-0.046,-0.045,-0.046,-0.047,-0.046,-0.045,-0.044000000000000004,-0.042,-0.04,-0.038,-0.036000000000000004,-0.034,-0.031,-0.027999999999999997,-0.025,-0.022000000000000002,-0.019,-0.016,-0.013999999999999999,-0.013000000000000001,-0.012,-0.011000000000000001,-0.011000000000000001,-0.011000000000000001,-0.012,-0.013000000000000001,-0.012,-0.011000000000000001,-0.008,-0.005,-0.003,-0.002,0.0,0.002,0.003,0.005,0.005,0.005,0.005,0.005,0.005,0.005,0.005,0.005,0.005,0.005,0.005,0.005,0.005,0.005,0.005,0.006,0.008,0.009000000000000001,0.012,0.013999999999999999,0.015,0.016,0.016,0.016,0.013999999999999999,0.013000000000000001,0.01,0.008,0.006999999999999999,0.006,0.005,0.005,0.005,0.005,0.005,0.005,0.004,0.003,0.002,0.0,-0.002,-0.005,-0.006999999999999999,-0.009000000000000001,-0.012,-0.013999999999999999,-0.016,-0.017,-0.018000000000000002,-0.019,-0.02,-0.022000000000000002,-0.02,-0.019,-0.017,-0.016,-0.013000000000000001,-0.011000000000000001,-0.009000000000000001,-0.006,-0.006,-0.006,-0.006,-0.006,-0.006999999999999999,-0.008,-0.01,-0.013000000000000001,-0.016,-0.019,-0.022000000000000002,-0.025,-0.027999999999999997,-0.031,-0.035,-0.039,-0.040999999999999995,-0.044000000000000004,-0.045,-0.047,-0.05,-0.053,-0.055999999999999994,-0.057999999999999996,-0.059000000000000004,-0.059000000000000004,-0.061,-0.063,-0.064,-0.066,-0.066,-0.066,-0.066,-0.066,-0.066,-0.066,-0.065,-0.064,-0.063,-0.061,-0.059000000000000004,-0.057999999999999996,-0.057999999999999996,-0.057999999999999996,-0.057999999999999996,-0.057999999999999996,-0.057999999999999996,-0.057999999999999996,-0.057999999999999996,-0.057999999999999996,-0.057999999999999996,-0.057999999999999996,-0.059000000000000004,-0.059000000000000004,-0.06,-0.061,-0.06,-0.059000000000000004,-0.057999999999999996,-0.055999999999999994,-0.054000000000000006,-0.052000000000000005,-0.049,-0.047,-0.047,-0.047,-0.05,-0.053,-0.055999999999999994,-0.057999999999999996,-0.057999999999999996,-0.057999999999999996,-0.057,-0.055999999999999994,-0.054000000000000006,-0.052000000000000005,-0.049,-0.047,-0.046,-0.045,-0.046,-0.047,-0.047,-0.047,-0.047,-0.047,-0.047,-0.047,-0.047,-0.047,-0.047,-0.047,-0.047,-0.047,-0.047,-0.047,-0.047,-0.047,-0.047,-0.047,-0.047,-0.047,-0.047,-0.047,-0.047,-0.047,-0.046,-0.045,-0.044000000000000004,-0.042,-0.04,-0.038,-0.036000000000000004,-0.034,-0.032,-0.03,-0.028999999999999998,-0.027999999999999997,-0.028999999999999998,-0.03,-0.03,-0.031,-0.033,-0.034,-0.034,-0.034,-0.034,-0.034,-0.034,-0.033,-0.031,-0.03,-0.028999999999999998,-0.027999999999999997,-0.028999999999999998,-0.03,-0.03,-0.03,-0.03,-0.03,-0.03,-0.03,-0.03,-0.03,-0.03,-0.031,-0.033,-0.034,-0.035,-0.036000000000000004,-0.038,-0.039,-0.040999999999999995,-0.042,-0.040999999999999995,-0.040999999999999995,-0.04,-0.039,-0.036000000000000004,-0.033,-0.027000000000000003,-0.022000000000000002,-0.015,-0.008,0.0,0.008,0.017,0.027000000000000003,0.034,0.042,0.048,0.053,0.059000000000000004,0.066,0.07,0.075,0.079,0.083,0.08800000000000001,0.094,0.099,0.105,0.11,0.11599999999999999,0.11800000000000001,0.12,0.12,0.11900000000000001,0.11599999999999999,0.114,0.113,0.113,0.109,0.106,0.10300000000000001,0.1,0.095,0.091,0.086,0.081,0.073,0.066,0.057,0.048,0.042,0.036000000000000004,0.03,0.025,0.02,0.016,0.012,0.008,0.002,-0.003,-0.009000000000000001,-0.013999999999999999,-0.02,-0.025,-0.027999999999999997,-0.031,-0.033,-0.034,-0.034,-0.034,-0.034,-0.033,-0.031,-0.03,-0.03,-0.03,-0.032,-0.034,-0.034,-0.034,-0.03,-0.025,-0.013999999999999999,-0.003,0.018000000000000002,0.039,0.069,0.099,0.131,0.16399999999999998,0.20199999999999999,0.239,0.27899999999999997,0.319,0.363,0.40700000000000003,0.45299999999999996,0.5,0.54,0.58,0.598,0.616,0.6,0.585,0.5379999999999999,0.491,0.42700000000000005,0.363,0.3,0.23800000000000002,0.196,0.155,0.142,0.13,0.142,0.153,0.17600000000000002,0.19899999999999998,0.213,0.22699999999999998,0.222,0.217,0.193,0.16899999999999998,0.134,0.1,0.064,0.027999999999999997,0.0,-0.027999999999999997,-0.045,-0.063,-0.07,-0.077,-0.077,-0.077,-0.076,-0.075,-0.077,-0.078,-0.08199999999999999,-0.086,-0.08900000000000001,-0.092,-0.092,-0.092,-0.08900000000000001,-0.086,-0.08199999999999999,-0.078,-0.073,-0.069,-0.066,-0.063,-0.062,-0.061,-0.059000000000000004,-0.055999999999999994,-0.055,-0.053,-0.052000000000000005,-0.05,-0.048,-0.047,-0.046,-0.045,-0.045,-0.045,-0.044000000000000004,-0.042,-0.04,-0.038,-0.036000000000000004,-0.034,-0.031,-0.027999999999999997,-0.025,-0.022000000000000002,-0.02,-0.017,-0.016,-0.016,-0.013999999999999999,-0.013000000000000001,-0.012,-0.011000000000000001,-0.01,-0.009000000000000001,-0.008,-0.006,-0.004,-0.002,0.0,0.002,0.004,0.006,0.009000000000000001,0.011000000000000001,0.016,0.02,0.025,0.03,0.034,0.038,0.040999999999999995,0.044000000000000004,0.045,0.047,0.046,0.045,0.045,0.045,0.045,0.044000000000000004,0.042,0.040999999999999995,0.04,0.039,0.04,0.040999999999999995,0.043,0.045,0.048,0.052000000000000005,0.055,0.057999999999999996,0.06,0.063,0.063,0.063,0.063,0.063,0.063,0.063,0.063,0.063,0.063,0.063,0.063,0.063,0.063,0.063,0.062,0.061,0.059000000000000004,0.055999999999999994,0.052000000000000005,0.048,0.044000000000000004,0.039,0.036000000000000004,0.033,0.03,0.027000000000000003,0.024,0.022000000000000002,0.022000000000000002,0.022000000000000002,0.022000000000000002,0.022000000000000002,0.022000000000000002,0.022000000000000002,0.022000000000000002,0.022000000000000002,0.022000000000000002,0.022000000000000002,0.022000000000000002,0.022000000000000002,0.022000000000000002,0.022000000000000002,N
6,0.155,0.141,0.11900000000000001,0.09699999999999999,0.07,0.042,0.019,-0.005,-0.023,-0.040999999999999995,-0.052000000000000005,-0.063,-0.067,-0.07200000000000001,-0.07400000000000001,-0.077,-0.079,-0.081,-0.085,-0.08900000000000001,-0.09300000000000001,-0.09699999999999999,-0.098,-0.099,-0.099,-0.099,-0.099,-0.099,-0.098,-0.09699999999999999,-0.095,-0.092,-0.08800000000000001,-0.084,-0.081,-0.078,-0.073,-0.069,-0.066,-0.063,-0.063,-0.063,-0.062,-0.061,-0.059000000000000004,-0.057999999999999996,-0.057,-0.055999999999999994,-0.054000000000000006,-0.052000000000000005,-0.049,-0.047,-0.046,-0.045,-0.046,-0.047,-0.046,-0.045,-0.044000000000000004,-0.042,-0.04,-0.038,-0.036000000000000004,-0.034,-0.031,-0.027999999999999997,-0.025,-0.022000000000000002,-0.019,-0.016,-0.013999999999999999,-0.013000000000000001,-0.012,-0.011000000000000001,-0.011000000000000001,-0.011000000000000001,-0.012,-0.013000000000000001,-0.012,-0.011000000000000001,-0.008,-0.005,-0.003,-0.002,0.0,0.002,0.003,0.005,0.005,0.005,0.005,0.005,0.005,0.005,0.005,0.005,0.005,0.005,0.005,0.005,0.005,0.005,0.005,0.006,0.008,0.009000000000000001,0.012,0.013999999999999999,0.015,0.016,0.016,0.016,0.013999999999999999,0.013000000000000001,0.01,0.008,0.006999999999999999,0.006,0.005,0.005,0.005,0.005,0.005,0.005,0.004,0.003,0.002,0.0,-0.002,-0.005,-0.006999999999999999,-0.009000000000000001,-0.012,-0.013999999999999999,-0.016,-0.017,-0.018000000000000002,-0.019,-0.02,-0.022000000000000002,-0.02,-0.019,-0.017,-0.016,-0.013000000000000001,-0.011000000000000001,-0.009000000000000001,-0.006,-0.006,-0.006,-0.006,-0.006,-0.006999999999999999,-0.008,-0.01,-0.013000000000000001,-0.016,-0.019,-0.022000000000000002,-0.025,-0.027999999999999997,-0.031,-0.035,-0.039,-0.040999999999999995,-0.044000000000000004,-0.045,-0.047,-0.05,-0.053,-0.055999999999999994,-0.057999999999999996,-0.059000000000000004,-0.059000000000000004,-0.061,-0.063,-0.064,-0.066,-0.066,-0.066,-0.066,-0.066,-0.066,-0.066,-0.065,-0.064,-0.063,-0.061,-0.059000000000000004,-0.057999999999999996,-0.057999999999999996,-0.057999999999999996,-0.057999999999999996,-0.057999999999999996,-0.057999999999999996,-0.057999999999999996,-0.057999999999999996,-0.057999999999999996,-0.057999999999999996,-0.057999999999999996,-0.059000000000000004,-0.059000000000000004,-0.06,-0.061,-0.06,-0.059000000000000004,-0.057999999999999996,-0.055999999999999994,-0.054000000000000006,-0.052000000000000005,-0.049,-0.047,-0.047,-0.047,-0.05,-0.053,-0.055999999999999994,-0.057999999999999996,-0.057999999999999996,-0.057999999999999996,-0.057,-0.055999999999999994,-0.054000000000000006,-0.052000000000000005,-0.049,-0.047,-0.046,-0.045,-0.046,-0.047,-0.047,-0.047,-0.047,-0.047,-0.047,-0.047,-0.047,-0.047,-0.047,-0.047,-0.047,-0.047,-0.047,-0.047,-0.047,-0.047,-0.047,-0.047,-0.047,-0.047,-0.047,-0.047,-0.047,-0.047,-0.046,-0.045,-0.044000000000000004,-0.042,-0.04,-0.038,-0.036000000000000004,-0.034,-0.032,-0.03,-0.028999999999999998,-0.027999999999999997,-0.028999999999999998,-0.03,-0.03,-0.031,-0.033,-0.034,-0.034,-0.034,-0.034,-0.034,-0.034,-0.033,-0.031,-0.03,-0.028999999999999998,-0.027999999999999997,-0.028999999999999998,-0.03,-0.03,-0.03,-0.03,-0.03,-0.03,-0.03,-0.03,-0.03,-0.03,-0.031,-0.033,-0.034,-0.035,-0.036000000000000004,-0.038,-0.039,-0.040999999999999995,-0.042,-0.040999999999999995,-0.040999999999999995,-0.04,-0.039,-0.036000000000000004,-0.033,-0.027000000000000003,-0.022000000000000002,-0.015,-0.008,0.0,0.008,0.017,0.027000000000000003,0.034,0.042,0.048,0.053,0.059000000000000004,0.066,0.07,0.075,0.079,0.083,0.08800000000000001,0.094,0.099,0.105,0.11,0.11599999999999999,0.11800000000000001,0.12,0.12,0.11900000000000001,0.11599999999999999,0.114,0.113,0.113,0.109,0.106,0.10300000000000001,0.1,0.095,0.091,0.086,0.081,0.073,0.066,0.057,0.048,0.042,0.036000000000000004,0.03,0.025,0.02,0.016,0.012,0.008,0.002,-0.003,-0.009000000000000001,-0.013999999999999999,-0.02,-0.025,-0.027999999999999997,-0.031,-0.033,-0.034,-0.034,-0.034,-0.034,-0.033,-0.031,-0.03,-0.03,-0.03,-0.032,-0.034,-0.034,-0.034,-0.03,-0.025,-0.013999999999999999,-0.003,0.018000000000000002,0.039,0.069,0.099,0.131,0.16399999999999998,0.20199999999999999,0.239,0.27899999999999997,0.319,0.363,0.40700000000000003,0.45299999999999996,0.5,0.54,0.58,0.598,0.616,0.6,0.585,0.5379999999999999,0.491,0.42700000000000005,0.363,0.3,0.23800000000000002,0.196,0.155,0.142,0.13,0.142,0.153,0.17600000000000002,0.19899999999999998,0.213,0.22699999999999998,0.222,0.217,0.193,0.16899999999999998,0.134,0.1,0.064,0.027999999999999997,0.0,-0.027999999999999997,-0.045,-0.063,-0.07,-0.077,-0.077,-0.077,-0.076,-0.075,-0.077,-0.078,-0.08199999999999999,-0.086,-0.08900000000000001,-0.092,-0.092,-0.092,-0.08900000000000001,-0.086,-0.08199999999999999,-0.078,-0.073,-0.069,-0.066,-0.063,-0.062,-0.061,-0.059000000000000004,-0.055999999999999994,-0.055,-0.053,-0.052000000000000005,-0.05,-0.048,-0.047,-0.046,-0.045,-0.045,-0.045,-0.044000000000000004,-0.042,-0.04,-0.038,-0.036000000000000004,-0.034,-0.031,-0.027999999999999997,-0.025,-0.022000000000000002,-0.02,-0.017,-0.016,-0.016,-0.013999999999999999,-0.013000000000000001,-0.012,-0.011000000000000001,-0.01,-0.009000000000000001,-0.008,-0.006,-0.004,-0.002,0.0,0.002,0.004,0.006,0.009000000000000001,0.011000000000000001,0.016,0.02,0.025,0.03,0.034,0.038,0.040999999999999995,0.044000000000000004,0.045,0.047,0.046,0.045,0.045,0.045,0.045,0.044000000000000004,0.042,0.040999999999999995,0.04,0.039,0.04,0.040999999999999995,0.043,0.045,0.048,0.052000000000000005,0.055,0.057999999999999996,0.06,0.063,0.063,0.063,0.063,0.063,0.063,0.063,0.063,0.063,0.063,0.063,0.063,0.063,0.063,0.063,0.062,0.061,0.059000000000000004,0.055999999999999994,0.052000000000000005,0.048,0.044000000000000004,0.039,0.036000000000000004,0.033,0.03,0.027000000000000003,0.024,0.022000000000000002,0.022000000000000002,0.022000000000000002,0.022000000000000002,0.022000000000000002,0.022000000000000002,0.022000000000000002,0.022000000000000002,0.022000000000000002,0.022000000000000002,0.022000000000000002,0.022000000000000002,0.022000000000000002,0.022000000000000002,0.022000000000000002,0.021,0.02,0.018000000000000002,0.016,0.012,0.008,0.003,-0.002,-0.005,-0.008,-0.01,-0.013000000000000001,-0.016,-0.02,-0.025,-0.03,-0.034,-0.038,-0.042,-0.047,-0.05,-0.053,-0.055999999999999994,-0.057999999999999996,-0.057999999999999996,-0.057999999999999996,-0.057999999999999996,-0.057999999999999996,-0.057,-0.055999999999999994,-0.055999999999999994,-0.055,-0.055999999999999994,-0.055999999999999994,-0.057999999999999996,-0.059000000000000004,-0.061,-0.063,-0.064,-0.066,-0.066,-0.067,-0.067,-0.067,-0.065,-0.063,-0.059000000000000004,-0.055999999999999994,-0.053,-0.05,-0.048,-0.047,-0.046,-0.045,-0.046,-0.047,-0.047,-0.047,-0.047,-0.047,-0.047,-0.047,-0.047,-0.047,-0.047,-0.047,-0.047,-0.047,-0.047,-0.047,-0.046,-0.045,-0.044000000000000004,-0.042,-0.04,-0.038,-0.037000000000000005,-0.036000000000000004,-0.035,-0.034,-0.034,-0.034,-0.035,-0.036000000000000004,-0.038,-0.039,-0.040999999999999995,-0.042,-0.040999999999999995,-0.039,-0.037000000000000005,-0.034,-0.031,-0.027999999999999997,-0.026000000000000002,-0.023,-0.023,-0.022000000000000002,-0.023,-0.025,-0.027000000000000003,-0.027999999999999997,-0.028999999999999998,-0.03,-0.03,-0.03,-0.03,-0.03,-0.03,-0.03,-0.03,-0.03,-0.03,-0.03,-0.028999999999999998,-0.027999999999999997,-0.027000000000000003,-0.025,-0.023,-0.022000000000000002,-0.02,-0.017,-0.017,-0.017,-0.018000000000000002,-0.019,-0.022000000000000002,-0.025,-0.027000000000000003,-0.03,-0.032,-0.034,-0.035,-0.036000000000000004,-0.034,-0.033,-0.031,-0.03,-0.028999999999999998,-0.027999999999999997,-0.028999999999999998,-0.03,-0.03,-0.03,-0.028999999999999998,-0.027999999999999997,-0.026000000000000002,-0.023,-0.02,-0.016,-0.013999999999999999,-0.013000000000000001,-0.012,-0.011000000000000001,-0.012,-0.013000000000000001,-0.016,-0.019,-0.021,-0.023,-0.023,-0.023,-0.023,-0.022000000000000002,-0.02,-0.019,-0.016,-0.013999999999999999,-0.009000000000000001,-0.005,0.002,0.009000000000000001,0.016,0.023,0.031,0.039,0.047,0.055,0.063,0.07,0.076,0.081,0.084,0.08800000000000001,0.09,0.092,0.095,0.099,0.1,0.102,0.102,0.10300000000000001,0.102,0.1,0.098,0.095,0.09300000000000001,0.091,0.087,0.083,0.078,0.073,0.069,0.064,0.059000000000000004,0.055,0.049,0.044000000000000004,0.04,0.036000000000000004,0.032,0.027999999999999997,0.023,0.019,0.013999999999999999,0.009000000000000001,0.005,0.002,-0.002,-0.006,-0.011000000000000001,-0.016,-0.02,-0.023,-0.027000000000000003,-0.031,-0.034,-0.036000000000000004,-0.035,-0.034,-0.034,-0.034,-0.034,-0.034,-0.034,-0.033,-0.031,-0.03,-0.027999999999999997,-0.027000000000000003,-0.023,-0.019,-0.006,0.006,0.027000000000000003,0.047,0.076,0.105,0.14,0.175,0.213,0.25,0.28800000000000003,0.325,0.364,0.402,0.44,0.478,0.51,0.541,0.557,0.574,0.564,0.5539999999999999,0.514,0.475,0.414,0.353,0.294,0.235,0.19399999999999998,0.153,0.138,0.124,0.133,0.142,0.165,0.188,0.20600000000000002,0.225,0.22899999999999998,0.233,0.221,0.21,0.185,0.161,0.131,0.102,0.07400000000000001,0.047,0.025,0.003,-0.01,-0.023,-0.03,-0.038,-0.040999999999999995,-0.044000000000000004,-0.045,-0.047,-0.05,-0.053,-0.055999999999999994,-0.057999999999999996,-0.057,-0.055999999999999994,-0.055,-0.053,-0.052000000000000005,-0.05,-0.048,-0.047,-0.045,-0.044000000000000004,-0.043,-0.042,-0.04,-0.038,-0.037000000000000005,-0.036000000000000004,-0.035,-0.034,-0.034,-0.034,-0.034,-0.034,-0.034,-0.033,-0.031,-0.03,-0.028999999999999998,-0.027999999999999997,-0.027999999999999997,-0.027999999999999997,-0.027000000000000003,-0.025,-0.023,-0.022000000000000002,-0.02,-0.017,-0.016,-0.016,-0.013000000000000001,-0.009000000000000001,-0.005,0.0,0.004,0.008,0.012,0.016,0.016,0.017,0.017,0.017,0.016,0.016,0.013999999999999999,0.013000000000000001,0.011000000000000001,0.009000000000000001,0.011000000000000001,0.013000000000000001,0.015,0.017,0.02,0.022000000000000002,0.023,0.023,0.023,0.022000000000000002,0.022000000000000002,0.022000000000000002,0.022000000000000002,0.022000000000000002,0.022000000000000002,0.022000000000000002,0.022000000000000002,0.022000000000000002,0.022000000000000002,0.022000000000000002,0.023,0.023,0.025,0.027000000000000003,0.028999999999999998,0.031,0.032,0.033,0.034,0.034,0.034,0.034,0.034,0.033,0.031,0.03,0.027999999999999997,0.027000000000000003,0.027000000000000003,0.027999999999999997,0.027999999999999997,0.027999999999999997,0.027000000000000003,0.027000000000000003,0.025,0.023,0.023,0.022000000000000002,0.021,0.02,0.019,0.017,0.016,0.013999999999999999,0.013000000000000001,0.013000000000000001,0.011000000000000001,0.009000000000000001,0.011000000000000001,0.013000000000000001,0.015,0.017,0.019,0.02,0.02,0.019,0.016,0.013999999999999999,N
7,0.217,0.193,0.16899999999999998,0.134,0.1,0.064,0.027999999999999997,0.0,-0.027999999999999997,-0.045,-0.063,-0.07,-0.077,-0.077,-0.077,-0.076,-0.075,-0.077,-0.078,-0.08199999999999999,-0.086,-0.08900000000000001,-0.092,-0.092,-0.092,-0.08900000000000001,-0.086,-0.08199999999999999,-0.078,-0.073,-0.069,-0.066,-0.063,-0.062,-0.061,-0.059000000000000004,-0.055999999999999994,-0.055,-0.053,-0.052000000000000005,-0.05,-0.048,-0.047,-0.046,-0.045,-0.045,-0.045,-0.044000000000000004,-0.042,-0.04,-0.038,-0.036000000000000004,-0.034,-0.031,-0.027999999999999997,-0.025,-0.022000000000000002,-0.02,-0.017,-0.016,-0.016,-0.013999999999999999,-0.013000000000000001,-0.012,-0.011000000000000001,-0.01,-0.009000000000000001,-0.008,-0.006,-0.004,-0.002,0.0,0.002,0.004,0.006,0.009000000000000001,0.011000000000000001,0.016,0.02,0.025,0.03,0.034,0.038,0.040999999999999995,0.044000000000000004,0.045,0.047,0.046,0.045,0.045,0.045,0.045,0.044000000000000004,0.042,0.040999999999999995,0.04,0.039,0.04,0.040999999999999995,0.043,0.045,0.048,0.052000000000000005,0.055,0.057999999999999996,0.06,0.063,0.063,0.063,0.063,0.063,0.063,0.063,0.063,0.063,0.063,0.063,0.063,0.063,0.063,0.063,0.062,0.061,0.059000000000000004,0.055999999999999994,0.052000000000000005,0.048,0.044000000000000004,0.039,0.036000000000000004,0.033,0.03,0.027000000000000003,0.024,0.022000000000000002,0.022000000000000002,0.022000000000000002,0.022000000000000002,0.022000000000000002,0.022000000000000002,0.022000000000000002,0.022000000000000002,0.022000000000000002,0.022000000000000002,0.022000000000000002,0.022000000000000002,0.022000000000000002,0.022000000000000002,0.022000000000000002,0.021,0.02,0.018000000000000002,0.016,0.012,0.008,0.003,-0.002,-0.005,-0.008,-0.01,-0.013000000000000001,-0.016,-0.02,-0.025,-0.03,-0.034,-0.038,-0.042,-0.047,-0.05,-0.053,-0.055999999999999994,-0.057999999999999996,-0.057999999999999996,-0.057999999999999996,-0.057999999999999996,-0.057999999999999996,-0.057,-0.055999999999999994,-0.055999999999999994,-0.055,-0.055999999999999994,-0.055999999999999994,-0.057999999999999996,-0.059000000000000004,-0.061,-0.063,-0.064,-0.066,-0.066,-0.067,-0.067,-0.067,-0.065,-0.063,-0.059000000000000004,-0.055999999999999994,-0.053,-0.05,-0.048,-0.047,-0.046,-0.045,-0.046,-0.047,-0.047,-0.047,-0.047,-0.047,-0.047,-0.047,-0.047,-0.047,-0.047,-0.047,-0.047,-0.047,-0.047,-0.047,-0.046,-0.045,-0.044000000000000004,-0.042,-0.04,-0.038,-0.037000000000000005,-0.036000000000000004,-0.035,-0.034,-0.034,-0.034,-0.035,-0.036000000000000004,-0.038,-0.039,-0.040999999999999995,-0.042,-0.040999999999999995,-0.039,-0.037000000000000005,-0.034,-0.031,-0.027999999999999997,-0.026000000000000002,-0.023,-0.023,-0.022000000000000002,-0.023,-0.025,-0.027000000000000003,-0.027999999999999997,-0.028999999999999998,-0.03,-0.03,-0.03,-0.03,-0.03,-0.03,-0.03,-0.03,-0.03,-0.03,-0.03,-0.028999999999999998,-0.027999999999999997,-0.027000000000000003,-0.025,-0.023,-0.022000000000000002,-0.02,-0.017,-0.017,-0.017,-0.018000000000000002,-0.019,-0.022000000000000002,-0.025,-0.027000000000000003,-0.03,-0.032,-0.034,-0.035,-0.036000000000000004,-0.034,-0.033,-0.031,-0.03,-0.028999999999999998,-0.027999999999999997,-0.028999999999999998,-0.03,-0.03,-0.03,-0.028999999999999998,-0.027999999999999997,-0.026000000000000002,-0.023,-0.02,-0.016,-0.013999999999999999,-0.013000000000000001,-0.012,-0.011000000000000001,-0.012,-0.013000000000000001,-0.016,-0.019,-0.021,-0.023,-0.023,-0.023,-0.023,-0.022000000000000002,-0.02,-0.019,-0.016,-0.013999999999999999,-0.009000000000000001,-0.005,0.002,0.009000000000000001,0.016,0.023,0.031,0.039,0.047,0.055,0.063,0.07,0.076,0.081,0.084,0.08800000000000001,0.09,0.092,0.095,0.099,0.1,0.102,0.102,0.10300000000000001,0.102,0.1,0.098,0.095,0.09300000000000001,0.091,0.087,0.083,0.078,0.073,0.069,0.064,0.059000000000000004,0.055,0.049,0.044000000000000004,0.04,0.036000000000000004,0.032,0.027999999999999997,0.023,0.019,0.013999999999999999,0.009000000000000001,0.005,0.002,-0.002,-0.006,-0.011000000000000001,-0.016,-0.02,-0.023,-0.027000000000000003,-0.031,-0.034,-0.036000000000000004,-0.035,-0.034,-0.034,-0.034,-0.034,-0.034,-0.034,-0.033,-0.031,-0.03,-0.027999999999999997,-0.027000000000000003,-0.023,-0.019,-0.006,0.006,0.027000000000000003,0.047,0.076,0.105,0.14,0.175,0.213,0.25,0.28800000000000003,0.325,0.364,0.402,0.44,0.478,0.51,0.541,0.557,0.574,0.564,0.5539999999999999,0.514,0.475,0.414,0.353,0.294,0.235,0.19399999999999998,0.153,0.138,0.124,0.133,0.142,0.165,0.188,0.20600000000000002,0.225,0.22899999999999998,0.233,0.221,0.21,0.185,0.161,0.131,0.102,0.07400000000000001,0.047,0.025,0.003,-0.01,-0.023,-0.03,-0.038,-0.040999999999999995,-0.044000000000000004,-0.045,-0.047,-0.05,-0.053,-0.055999999999999994,-0.057999999999999996,-0.057,-0.055999999999999994,-0.055,-0.053,-0.052000000000000005,-0.05,-0.048,-0.047,-0.045,-0.044000000000000004,-0.043,-0.042,-0.04,-0.038,-0.037000000000000005,-0.036000000000000004,-0.035,-0.034,-0.034,-0.034,-0.034,-0.034,-0.034,-0.033,-0.031,-0.03,-0.028999999999999998,-0.027999999999999997,-0.027999999999999997,-0.027999999999999997,-0.027000000000000003,-0.025,-0.023,-0.022000000000000002,-0.02,-0.017,-0.016,-0.016,-0.013000000000000001,-0.009000000000000001,-0.005,0.0,0.004,0.008,0.012,0.016,0.016,0.017,0.017,0.017,0.016,0.016,0.013999999999999999,0.013000000000000001,0.011000000000000001,0.009000000000000001,0.011000000000000001,0.013000000000000001,0.015,0.017,0.02,0.022000000000000002,0.023,0.023,0.023,0.022000000000000002,0.022000000000000002,0.022000000000000002,0.022000000000000002,0.022000000000000002,0.022000000000000002,0.022000000000000002,0.022000000000000002,0.022000000000000002,0.022000000000000002,0.022000000000000002,0.023,0.023,0.025,0.027000000000000003,0.028999999999999998,0.031,0.032,0.033,0.034,0.034,0.034,0.034,0.034,0.033,0.031,0.03,0.027999999999999997,0.027000000000000003,0.027000000000000003,0.027999999999999997,0.027999999999999997,0.027999999999999997,0.027000000000000003,0.027000000000000003,0.025,0.023,0.023,0.022000000000000002,0.021,0.02,0.019,0.017,0.016,0.013999999999999999,0.013000000000000001,0.013000000000000001,0.011000000000000001,0.009000000000000001,0.011000000000000001,0.013000000000000001,0.015,0.017,0.019,0.02,0.02,0.019,0.016,0.013999999999999999,0.013000000000000001,0.013000000000000001,0.01,0.008,0.006999999999999999,0.006,0.005,0.005,0.004,0.003,0.001,-0.002,-0.005,-0.008,-0.01,-0.013000000000000001,-0.016,-0.019,-0.022000000000000002,-0.025,-0.027000000000000003,-0.03,-0.033,-0.036000000000000004,-0.038,-0.040999999999999995,-0.042,-0.044000000000000004,-0.045,-0.045,-0.046,-0.047,-0.047,-0.047,-0.047,-0.047,-0.047,-0.047,-0.047,-0.047,-0.047,-0.047,-0.047,-0.047,-0.047,-0.047,-0.047,-0.047,-0.047,-0.047,-0.046,-0.045,-0.044000000000000004,-0.042,-0.040999999999999995,-0.039,-0.04,-0.040999999999999995,-0.040999999999999995,-0.040999999999999995,-0.040999999999999995,-0.040999999999999995,-0.040999999999999995,-0.040999999999999995,-0.040999999999999995,-0.040999999999999995,-0.040999999999999995,-0.040999999999999995,-0.040999999999999995,-0.040999999999999995,-0.040999999999999995,-0.040999999999999995,-0.04,-0.039,-0.038,-0.036000000000000004,-0.035,-0.034,-0.034,-0.034,-0.034,-0.033,-0.031,-0.03,-0.028999999999999998,-0.027999999999999997,-0.027999999999999997,-0.027999999999999997,-0.027000000000000003,-0.025,-0.023,-0.022000000000000002,-0.02,-0.017,-0.018000000000000002,-0.019,-0.022000000000000002,-0.025,-0.027000000000000003,-0.027999999999999997,-0.028999999999999998,-0.03,-0.03,-0.03,-0.028999999999999998,-0.027999999999999997,-0.026000000000000002,-0.023,-0.02,-0.017,-0.017,-0.017,-0.017,-0.017,-0.016,-0.016,-0.013999999999999999,-0.013000000000000001,-0.012,-0.011000000000000001,-0.011000000000000001,-0.011000000000000001,-0.012,-0.013000000000000001,-0.013000000000000001,-0.013999999999999999,-0.016,-0.017,-0.02,-0.022000000000000002,-0.023,-0.025,-0.023,-0.022000000000000002,-0.019,-0.016,-0.013999999999999999,-0.013000000000000001,-0.012,-0.011000000000000001,-0.011000000000000001,-0.011000000000000001,-0.012,-0.013000000000000001,-0.013000000000000001,-0.013999999999999999,-0.015,-0.016,-0.016,-0.017,-0.017,-0.017,-0.017,-0.017,-0.016,-0.016,-0.013999999999999999,-0.013000000000000001,-0.012,-0.011000000000000001,-0.011000000000000001,-0.011000000000000001,-0.012,-0.013000000000000001,-0.012,-0.011000000000000001,-0.008,-0.005,-0.002,0.002,0.008,0.013999999999999999,0.023,0.031,0.04,0.048,0.057,0.066,0.07200000000000001,0.078,0.081,0.084,0.087,0.08900000000000001,0.09300000000000001,0.09699999999999999,0.1,0.10300000000000001,0.106,0.109,0.11199999999999999,0.114,0.113,0.113,0.109,0.106,0.10400000000000001,0.102,0.099,0.095,0.091,0.08800000000000001,0.083,0.078,0.073,0.069,0.063,0.055999999999999994,0.051,0.045,0.039,0.033,0.026000000000000002,0.019,0.013000000000000001,0.008,0.003,-0.002,-0.005,-0.009000000000000001,-0.013000000000000001,-0.017,-0.021,-0.025,-0.027999999999999997,-0.031,-0.034,-0.036000000000000004,-0.038,-0.039,-0.040999999999999995,-0.044000000000000004,-0.045,-0.045,-0.046,-0.047,-0.047,-0.047,-0.046,-0.045,-0.042,-0.039,-0.03,-0.022000000000000002,-0.006,0.009000000000000001,0.033,0.055999999999999994,0.087,0.11699999999999999,0.152,0.18600000000000003,0.221,0.256,0.293,0.33,0.36700000000000005,0.405,0.44,0.475,0.498,0.521,0.518,0.516,0.48200000000000004,0.449,0.39399999999999996,0.33899999999999997,0.281,0.22399999999999998,0.177,0.131,0.111,0.091,0.09300000000000001,0.095,0.113,0.13,0.15,0.17,0.183,0.195,0.192,0.18899999999999997,0.174,0.158,0.134,0.109,0.084,0.057999999999999996,0.036000000000000004,0.013999999999999999,-0.002,-0.017,-0.026000000000000002,-0.034,-0.038,-0.042,-0.046,-0.05,-0.055,-0.059000000000000004,-0.064,-0.069,-0.07200000000000001,-0.075,-0.075,-0.075,-0.07400000000000001,-0.073,-0.07,-0.067,-0.065,-0.063,-0.059000000000000004,-0.055999999999999994,-0.054000000000000006,-0.052000000000000005,-0.051,-0.05,-0.048,-0.047,-0.046,-0.045,-0.046,-0.047,-0.047,-0.047,-0.047,-0.047,-0.046,-0.045,-0.044000000000000004,-0.042,-0.04,-0.038,-0.036000000000000004,-0.034,-0.031,-0.027999999999999997,-0.025,-0.022000000000000002,-0.02,-0.017,-0.016,-0.016,-0.013999999999999999,-0.013000000000000001,-0.012,-0.011000000000000001,-0.011000000000000001,-0.011000000000000001,-0.011000000000000001,-0.011000000000000001,-0.009000000000000001,-0.006,-0.003,0.0,0.003,0.006,0.009000000000000001,0.011000000000000001,0.013000000000000001,0.013999999999999999,0.015,0.016,0.016,0.017,0.017,0.017,0.016,0.016,0.013999999999999999,0.013000000000000001,0.012,0.011000000000000001,0.013000000000000001,0.016,0.017,0.019,0.02,0.022000000000000002,0.023,0.023,0.023,0.022000000000000002,0.022000000000000002,0.022000000000000002,0.021,0.02,0.019,0.017,0.016,0.016,0.016,0.017,0.017,0.017,0.017,0.017,0.016,0.016,0.013999999999999999,0.013000000000000001,0.011000000000000001,0.009000000000000001,0.01,0.011000000000000001,0.011000000000000001,0.011000000000000001,0.011000000000000001,0.011000000000000001,0.011000000000000001,0.011000000000000001,0.01,0.009000000000000001,0.008,0.006,0.005,0.005,0.005,0.006,0.008,N
8,0.233,0.221,0.21,0.185,0.161,0.131,0.102,0.07400000000000001,0.047,0.025,0.003,-0.01,-0.023,-0.03,-0.038,-0.040999999999999995,-0.044000000000000004,-0.045,-0.047,-0.05,-0.053,-0.055999999999999994,-0.057999999999999996,-0.057,-0.055999999999999994,-0.055,-0.053,-0.052000000000000005,-0.05,-0.048,-0.047,-0.045,-0.044000000000000004,-0.043,-0.042,-0.04,-0.038,-0.037000000000000005,-0.036000000000000004,-0.035,-0.034,-0.034,-0.034,-0.034,-0.034,-0.034,-0.033,-0.031,-0.03,-0.028999999999999998,-0.027999999999999997,-0.027999999999999997,-0.027999999999999997,-0.027000000000000003,-0.025,-0.023,-0.022000000000000002,-0.02,-0.017,-0.016,-0.016,-0.013000000000000001,-0.009000000000000001,-0.005,0.0,0.004,0.008,0.012,0.016,0.016,0.017,0.017,0.017,0.016,0.016,0.013999999999999999,0.013000000000000001,0.011000000000000001,0.009000000000000001,0.011000000000000001,0.013000000000000001,0.015,0.017,0.02,0.022000000000000002,0.023,0.023,0.023,0.022000000000000002,0.022000000000000002,0.022000000000000002,0.022000000000000002,0.022000000000000002,0.022000000000000002,0.022000000000000002,0.022000000000000002,0.022000000000000002,0.022000000000000002,0.022000000000000002,0.023,0.023,0.025,0.027000000000000003,0.028999999999999998,0.031,0.032,0.033,0.034,0.034,0.034,0.034,0.034,0.033,0.031,0.03,0.027999999999999997,0.027000000000000003,0.027000000000000003,0.027999999999999997,0.027999999999999997,0.027999999999999997,0.027000000000000003,0.027000000000000003,0.025,0.023,0.023,0.022000000000000002,0.021,0.02,0.019,0.017,0.016,0.013999999999999999,0.013000000000000001,0.013000000000000001,0.011000000000000001,0.009000000000000001,0.011000000000000001,0.013000000000000001,0.015,0.017,0.019,0.02,0.02,0.019,0.016,0.013999999999999999,0.013000000000000001,0.013000000000000001,0.01,0.008,0.006999999999999999,0.006,0.005,0.005,0.004,0.003,0.001,-0.002,-0.005,-0.008,-0.01,-0.013000000000000001,-0.016,-0.019,-0.022000000000000002,-0.025,-0.027000000000000003,-0.03,-0.033,-0.036000000000000004,-0.038,-0.040999999999999995,-0.042,-0.044000000000000004,-0.045,-0.045,-0.046,-0.047,-0.047,-0.047,-0.047,-0.047,-0.047,-0.047,-0.047,-0.047,-0.047,-0.047,-0.047,-0.047,-0.047,-0.047,-0.047,-0.047,-0.047,-0.047,-0.046,-0.045,-0.044000000000000004,-0.042,-0.040999999999999995,-0.039,-0.04,-0.040999999999999995,-0.040999999999999995,-0.040999999999999995,-0.040999999999999995,-0.040999999999999995,-0.040999999999999995,-0.040999999999999995,-0.040999999999999995,-0.040999999999999995,-0.040999999999999995,-0.040999999999999995,-0.040999999999999995,-0.040999999999999995,-0.040999999999999995,-0.040999999999999995,-0.04,-0.039,-0.038,-0.036000000000000004,-0.035,-0.034,-0.034,-0.034,-0.034,-0.033,-0.031,-0.03,-0.028999999999999998,-0.027999999999999997,-0.027999999999999997,-0.027999999999999997,-0.027000000000000003,-0.025,-0.023,-0.022000000000000002,-0.02,-0.017,-0.018000000000000002,-0.019,-0.022000000000000002,-0.025,-0.027000000000000003,-0.027999999999999997,-0.028999999999999998,-0.03,-0.03,-0.03,-0.028999999999999998,-0.027999999999999997,-0.026000000000000002,-0.023,-0.02,-0.017,-0.017,-0.017,-0.017,-0.017,-0.016,-0.016,-0.013999999999999999,-0.013000000000000001,-0.012,-0.011000000000000001,-0.011000000000000001,-0.011000000000000001,-0.012,-0.013000000000000001,-0.013000000000000001,-0.013999999999999999,-0.016,-0.017,-0.02,-0.022000000000000002,-0.023,-0.025,-0.023,-0.022000000000000002,-0.019,-0.016,-0.013999999999999999,-0.013000000000000001,-0.012,-0.011000000000000001,-0.011000000000000001,-0.011000000000000001,-0.012,-0.013000000000000001,-0.013000000000000001,-0.013999999999999999,-0.015,-0.016,-0.016,-0.017,-0.017,-0.017,-0.017,-0.017,-0.016,-0.016,-0.013999999999999999,-0.013000000000000001,-0.012,-0.011000000000000001,-0.011000000000000001,-0.011000000000000001,-0.012,-0.013000000000000001,-0.012,-0.011000000000000001,-0.008,-0.005,-0.002,0.002,0.008,0.013999999999999999,0.023,0.031,0.04,0.048,0.057,0.066,0.07200000000000001,0.078,0.081,0.084,0.087,0.08900000000000001,0.09300000000000001,0.09699999999999999,0.1,0.10300000000000001,0.106,0.109,0.11199999999999999,0.114,0.113,0.113,0.109,0.106,0.10400000000000001,0.102,0.099,0.095,0.091,0.08800000000000001,0.083,0.078,0.073,0.069,0.063,0.055999999999999994,0.051,0.045,0.039,0.033,0.026000000000000002,0.019,0.013000000000000001,0.008,0.003,-0.002,-0.005,-0.009000000000000001,-0.013000000000000001,-0.017,-0.021,-0.025,-0.027999999999999997,-0.031,-0.034,-0.036000000000000004,-0.038,-0.039,-0.040999999999999995,-0.044000000000000004,-0.045,-0.045,-0.046,-0.047,-0.047,-0.047,-0.046,-0.045,-0.042,-0.039,-0.03,-0.022000000000000002,-0.006,0.009000000000000001,0.033,0.055999999999999994,0.087,0.11699999999999999,0.152,0.18600000000000003,0.221,0.256,0.293,0.33,0.36700000000000005,0.405,0.44,0.475,0.498,0.521,0.518,0.516,0.48200000000000004,0.449,0.39399999999999996,0.33899999999999997,0.281,0.22399999999999998,0.177,0.131,0.111,0.091,0.09300000000000001,0.095,0.113,0.13,0.15,0.17,0.183,0.195,0.192,0.18899999999999997,0.174,0.158,0.134,0.109,0.084,0.057999999999999996,0.036000000000000004,0.013999999999999999,-0.002,-0.017,-0.026000000000000002,-0.034,-0.038,-0.042,-0.046,-0.05,-0.055,-0.059000000000000004,-0.064,-0.069,-0.07200000000000001,-0.075,-0.075,-0.075,-0.07400000000000001,-0.073,-0.07,-0.067,-0.065,-0.063,-0.059000000000000004,-0.055999999999999994,-0.054000000000000006,-0.052000000000000005,-0.051,-0.05,-0.048,-0.047,-0.046,-0.045,-0.046,-0.047,-0.047,-0.047,-0.047,-0.047,-0.046,-0.045,-0.044000000000000004,-0.042,-0.04,-0.038,-0.036000000000000004,-0.034,-0.031,-0.027999999999999997,-0.025,-0.022000000000000002,-0.02,-0.017,-0.016,-0.016,-0.013999999999999999,-0.013000000000000001,-0.012,-0.011000000000000001,-0.011000000000000001,-0.011000000000000001,-0.011000000000000001,-0.011000000000000001,-0.009000000000000001,-0.006,-0.003,0.0,0.003,0.006,0.009000000000000001,0.011000000000000001,0.013000000000000001,0.013999999999999999,0.015,0.016,0.016,0.017,0.017,0.017,0.016,0.016,0.013999999999999999,0.013000000000000001,0.012,0.011000000000000001,0.013000000000000001,0.016,0.017,0.019,0.02,0.022000000000000002,0.023,0.023,0.023,0.022000000000000002,0.022000000000000002,0.022000000000000002,0.021,0.02,0.019,0.017,0.016,0.016,0.016,0.017,0.017,0.017,0.017,0.017,0.016,0.016,0.013999999999999999,0.013000000000000001,0.011000000000000001,0.009000000000000001,0.01,0.011000000000000001,0.011000000000000001,0.011000000000000001,0.011000000000000001,0.011000000000000001,0.011000000000000001,0.011000000000000001,0.01,0.009000000000000001,0.008,0.006,0.005,0.005,0.005,0.006,0.008,0.009000000000000001,0.012,0.013999999999999999,0.016,0.017,0.02,0.022000000000000002,0.023,0.023,0.023,0.022000000000000002,0.022000000000000002,0.022000000000000002,0.022000000000000002,0.022000000000000002,0.022000000000000002,0.022000000000000002,0.022000000000000002,0.022000000000000002,0.021,0.02,0.019,0.017,0.016,0.013999999999999999,0.013000000000000001,0.011000000000000001,0.006999999999999999,0.003,0.001,-0.002,-0.005,-0.008,-0.009000000000000001,-0.011000000000000001,-0.012,-0.013000000000000001,-0.013000000000000001,-0.013000000000000001,-0.012,-0.011000000000000001,-0.012,-0.013000000000000001,-0.015,-0.017,-0.017,-0.017,-0.016,-0.016,-0.013999999999999999,-0.013000000000000001,-0.012,-0.011000000000000001,-0.011000000000000001,-0.011000000000000001,-0.011000000000000001,-0.011000000000000001,-0.009000000000000001,-0.008,-0.006,-0.005,-0.002,0.0,0.002,0.005,0.005,0.006,0.006,0.006,0.006999999999999999,0.008,0.008,0.008,0.006,0.005,0.005,0.005,0.005,0.005,0.005,0.005,0.005,0.005,0.005,0.005,0.004,0.003,0.002,0.0,0.0,0.0,0.002,0.005,0.005,0.006,0.005,0.005,0.005,0.005,0.005,0.005,0.005,0.006,0.008,0.009000000000000001,0.011000000000000001,0.013000000000000001,0.012,0.011000000000000001,0.01,0.009000000000000001,0.008,0.006,0.005,0.005,0.005,0.005,0.005,0.006,0.008,0.009000000000000001,0.011000000000000001,0.013000000000000001,0.012,0.011000000000000001,0.011000000000000001,0.011000000000000001,0.01,0.009000000000000001,0.006999999999999999,0.005,0.002,0.0,-0.001,-0.002,-0.001,0.0,0.0,0.0,0.0,0.0,0.001,0.002,0.003,0.005,0.005,0.005,0.005,0.005,0.005,0.005,0.005,0.005,0.004,0.003,0.002,0.0,-0.001,-0.002,-0.001,0.0,0.0,0.0,0.0,0.0,0.001,0.002,0.003,0.005,0.005,0.006,0.009000000000000001,0.011000000000000001,0.015,0.019,0.022000000000000002,0.025,0.03,0.036000000000000004,0.043,0.05,0.057999999999999996,0.066,0.073,0.081,0.084,0.08800000000000001,0.09,0.092,0.095,0.099,0.10099999999999999,0.10300000000000001,0.107,0.111,0.115,0.11900000000000001,0.12,0.12,0.11900000000000001,0.11699999999999999,0.11199999999999999,0.106,0.1,0.094,0.08800000000000001,0.083,0.077,0.07,0.062,0.053,0.046,0.039,0.034,0.03,0.025,0.02,0.015,0.009000000000000001,0.003,-0.003,-0.009000000000000001,-0.016,-0.023,-0.03,-0.034,-0.038,-0.04,-0.042,-0.044000000000000004,-0.045,-0.046,-0.047,-0.047,-0.047,-0.047,-0.047,-0.047,-0.047,-0.048,-0.048,-0.049,-0.05,-0.048,-0.047,-0.04,-0.033,-0.019,-0.005,0.018000000000000002,0.040999999999999995,0.069,0.09699999999999999,0.127,0.156,0.188,0.21899999999999997,0.252,0.285,0.319,0.353,0.389,0.425,0.45399999999999996,0.483,0.491,0.499,0.475,0.452,0.40399999999999997,0.35700000000000004,0.298,0.239,0.19,0.141,0.11199999999999999,0.083,0.079,0.075,0.08900000000000001,0.10300000000000001,0.125,0.147,0.16,0.174,0.174,0.174,0.161,0.149,0.127,0.106,0.081,0.055,0.03,0.006,-0.012,-0.03,-0.04,-0.05,-0.055999999999999994,-0.061,-0.063,-0.064,-0.068,-0.07200000000000001,-0.077,-0.081,-0.084,-0.08800000000000001,-0.08800000000000001,-0.08800000000000001,-0.086,-0.084,-0.083,-0.081,-0.081,-0.08,-0.08,-0.08,-0.08,-0.08,-0.078,-0.077,-0.075,-0.073,-0.07,-0.067,-0.065,-0.063,-0.059000000000000004,-0.055999999999999994,-0.053,-0.05,-0.048,-0.047,-0.046,-0.045,-0.046,-0.047,-0.047,-0.047,-0.046,-0.045,-0.044000000000000004,-0.042,-0.040999999999999995,-0.039,-0.039,-0.039,-0.038,-0.036000000000000004,-0.034,-0.033,-0.03,-0.027999999999999997,-0.025,-0.022000000000000002,-0.02,-0.017,-0.016,-0.016,-0.013999999999999999,-0.013000000000000001,-0.012,-0.011000000000000001,-0.011000000000000001,-0.011000000000000001,-0.012,-0.013000000000000001,-0.013000000000000001,-0.013000000000000001,-0.011000000000000001,-0.009000000000000001,-0.008,-0.006,-0.005,-0.005,-0.003,-0.002,-0.001,0.0,0.0,0.0,0.0,0.0,0.001,0.002,0.003,0.005,0.005,0.005,0.005,0.005,0.004,0.003,0.002,0.002,0.002,0.003,0.005,0.006,0.008,0.009000000000000001,0.011000000000000001,0.013000000000000001,0.012,0.011000000000000001,0.01,0.009000000000000001,0.006999999999999999,0.005,0.002,-0.002,-0.005,-0.008,-0.009000000000000001,-0.011000000000000001,-0.012,-0.013000000000000001,-0.013000000000000001,-0.013000000000000001,-0.011000000000000001,-0.009000000000000001,-0.006999999999999999,-0.005,-0.002,0.0,0.003,0.006,0.009000000000000001,N
9,0.192,0.18899999999999997,0.174,0.158,0.134,0.109,0.084,0.057999999999999996,0.036000000000000004,0.013999999999999999,-0.002,-0.017,-0.026000000000000002,-0.034,-0.038,-0.042,-0.046,-0.05,-0.055,-0.059000000000000004,-0.064,-0.069,-0.07200000000000001,-0.075,-0.075,-0.075,-0.07400000000000001,-0.073,-0.07,-0.067,-0.065,-0.063,-0.059000000000000004,-0.055999999999999994,-0.054000000000000006,-0.052000000000000005,-0.051,-0.05,-0.048,-0.047,-0.046,-0.045,-0.046,-0.047,-0.047,-0.047,-0.047,-0.047,-0.046,-0.045,-0.044000000000000004,-0.042,-0.04,-0.038,-0.036000000000000004,-0.034,-0.031,-0.027999999999999997,-0.025,-0.022000000000000002,-0.02,-0.017,-0.016,-0.016,-0.013999999999999999,-0.013000000000000001,-0.012,-0.011000000000000001,-0.011000000000000001,-0.011000000000000001,-0.011000000000000001,-0.011000000000000001,-0.009000000000000001,-0.006,-0.003,0.0,0.003,0.006,0.009000000000000001,0.011000000000000001,0.013000000000000001,0.013999999999999999,0.015,0.016,0.016,0.017,0.017,0.017,0.016,0.016,0.013999999999999999,0.013000000000000001,0.012,0.011000000000000001,0.013000000000000001,0.016,0.017,0.019,0.02,0.022000000000000002,0.023,0.023,0.023,0.022000000000000002,0.022000000000000002,0.022000000000000002,0.021,0.02,0.019,0.017,0.016,0.016,0.016,0.017,0.017,0.017,0.017,0.017,0.016,0.016,0.013999999999999999,0.013000000000000001,0.011000000000000001,0.009000000000000001,0.01,0.011000000000000001,0.011000000000000001,0.011000000000000001,0.011000000000000001,0.011000000000000001,0.011000000000000001,0.011000000000000001,0.01,0.009000000000000001,0.008,0.006,0.005,0.005,0.005,0.006,0.008,0.009000000000000001,0.012,0.013999999999999999,0.016,0.017,0.02,0.022000000000000002,0.023,0.023,0.023,0.022000000000000002,0.022000000000000002,0.022000000000000002,0.022000000000000002,0.022000000000000002,0.022000000000000002,0.022000000000000002,0.022000000000000002,0.022000000000000002,0.021,0.02,0.019,0.017,0.016,0.013999999999999999,0.013000000000000001,0.011000000000000001,0.006999999999999999,0.003,0.001,-0.002,-0.005,-0.008,-0.009000000000000001,-0.011000000000000001,-0.012,-0.013000000000000001,-0.013000000000000001,-0.013000000000000001,-0.012,-0.011000000000000001,-0.012,-0.013000000000000001,-0.015,-0.017,-0.017,-0.017,-0.016,-0.016,-0.013999999999999999,-0.013000000000000001,-0.012,-0.011000000000000001,-0.011000000000000001,-0.011000000000000001,-0.011000000000000001,-0.011000000000000001,-0.009000000000000001,-0.008,-0.006,-0.005,-0.002,0.0,0.002,0.005,0.005,0.006,0.006,0.006,0.006999999999999999,0.008,0.008,0.008,0.006,0.005,0.005,0.005,0.005,0.005,0.005,0.005,0.005,0.005,0.005,0.005,0.004,0.003,0.002,0.0,0.0,0.0,0.002,0.005,0.005,0.006,0.005,0.005,0.005,0.005,0.005,0.005,0.005,0.006,0.008,0.009000000000000001,0.011000000000000001,0.013000000000000001,0.012,0.011000000000000001,0.01,0.009000000000000001,0.008,0.006,0.005,0.005,0.005,0.005,0.005,0.006,0.008,0.009000000000000001,0.011000000000000001,0.013000000000000001,0.012,0.011000000000000001,0.011000000000000001,0.011000000000000001,0.01,0.009000000000000001,0.006999999999999999,0.005,0.002,0.0,-0.001,-0.002,-0.001,0.0,0.0,0.0,0.0,0.0,0.001,0.002,0.003,0.005,0.005,0.005,0.005,0.005,0.005,0.005,0.005,0.005,0.004,0.003,0.002,0.0,-0.001,-0.002,-0.001,0.0,0.0,0.0,0.0,0.0,0.001,0.002,0.003,0.005,0.005,0.006,0.009000000000000001,0.011000000000000001,0.015,0.019,0.022000000000000002,0.025,0.03,0.036000000000000004,0.043,0.05,0.057999999999999996,0.066,0.073,0.081,0.084,0.08800000000000001,0.09,0.092,0.095,0.099,0.10099999999999999,0.10300000000000001,0.107,0.111,0.115,0.11900000000000001,0.12,0.12,0.11900000000000001,0.11699999999999999,0.11199999999999999,0.106,0.1,0.094,0.08800000000000001,0.083,0.077,0.07,0.062,0.053,0.046,0.039,0.034,0.03,0.025,0.02,0.015,0.009000000000000001,0.003,-0.003,-0.009000000000000001,-0.016,-0.023,-0.03,-0.034,-0.038,-0.04,-0.042,-0.044000000000000004,-0.045,-0.046,-0.047,-0.047,-0.047,-0.047,-0.047,-0.047,-0.047,-0.048,-0.048,-0.049,-0.05,-0.048,-0.047,-0.04,-0.033,-0.019,-0.005,0.018000000000000002,0.040999999999999995,0.069,0.09699999999999999,0.127,0.156,0.188,0.21899999999999997,0.252,0.285,0.319,0.353,0.389,0.425,0.45399999999999996,0.483,0.491,0.499,0.475,0.452,0.40399999999999997,0.35700000000000004,0.298,0.239,0.19,0.141,0.11199999999999999,0.083,0.079,0.075,0.08900000000000001,0.10300000000000001,0.125,0.147,0.16,0.174,0.174,0.174,0.161,0.149,0.127,0.106,0.081,0.055,0.03,0.006,-0.012,-0.03,-0.04,-0.05,-0.055999999999999994,-0.061,-0.063,-0.064,-0.068,-0.07200000000000001,-0.077,-0.081,-0.084,-0.08800000000000001,-0.08800000000000001,-0.08800000000000001,-0.086,-0.084,-0.083,-0.081,-0.081,-0.08,-0.08,-0.08,-0.08,-0.08,-0.078,-0.077,-0.075,-0.073,-0.07,-0.067,-0.065,-0.063,-0.059000000000000004,-0.055999999999999994,-0.053,-0.05,-0.048,-0.047,-0.046,-0.045,-0.046,-0.047,-0.047,-0.047,-0.046,-0.045,-0.044000000000000004,-0.042,-0.040999999999999995,-0.039,-0.039,-0.039,-0.038,-0.036000000000000004,-0.034,-0.033,-0.03,-0.027999999999999997,-0.025,-0.022000000000000002,-0.02,-0.017,-0.016,-0.016,-0.013999999999999999,-0.013000000000000001,-0.012,-0.011000000000000001,-0.011000000000000001,-0.011000000000000001,-0.012,-0.013000000000000001,-0.013000000000000001,-0.013000000000000001,-0.011000000000000001,-0.009000000000000001,-0.008,-0.006,-0.005,-0.005,-0.003,-0.002,-0.001,0.0,0.0,0.0,0.0,0.0,0.001,0.002,0.003,0.005,0.005,0.005,0.005,0.005,0.004,0.003,0.002,0.002,0.002,0.003,0.005,0.006,0.008,0.009000000000000001,0.011000000000000001,0.013000000000000001,0.012,0.011000000000000001,0.01,0.009000000000000001,0.006999999999999999,0.005,0.002,-0.002,-0.005,-0.008,-0.009000000000000001,-0.011000000000000001,-0.012,-0.013000000000000001,-0.013000000000000001,-0.013000000000000001,-0.011000000000000001,-0.009000000000000001,-0.006999999999999999,-0.005,-0.002,0.0,0.003,0.006,0.009000000000000001,0.013000000000000001,0.015,0.017,0.017,0.017,0.016,0.016,0.013999999999999999,0.013000000000000001,0.01,0.008,0.006,0.005,0.002,0.0,-0.002,-0.003,-0.005,-0.006,-0.009000000000000001,-0.013000000000000001,-0.016,-0.02,-0.025,-0.03,-0.033,-0.036000000000000004,-0.039,-0.042,-0.045,-0.047,-0.046,-0.045,-0.044000000000000004,-0.042,-0.040999999999999995,-0.039,-0.04,-0.040999999999999995,-0.040999999999999995,-0.040999999999999995,-0.040999999999999995,-0.040999999999999995,-0.040999999999999995,-0.040999999999999995,-0.040999999999999995,-0.042,-0.044000000000000004,-0.045,-0.045,-0.045,-0.044000000000000004,-0.042,-0.04,-0.038,-0.037000000000000005,-0.036000000000000004,-0.034,-0.033,-0.031,-0.03,-0.028999999999999998,-0.027999999999999997,-0.028999999999999998,-0.03,-0.03,-0.03,-0.03,-0.03,-0.028999999999999998,-0.027999999999999997,-0.027000000000000003,-0.025,-0.024,-0.023,-0.023,-0.022000000000000002,-0.023,-0.025,-0.027000000000000003,-0.027999999999999997,-0.028999999999999998,-0.03,-0.028999999999999998,-0.027999999999999997,-0.026000000000000002,-0.023,-0.02,-0.017,-0.016,-0.016,-0.013999999999999999,-0.013000000000000001,-0.011000000000000001,-0.009000000000000001,-0.008,-0.006,-0.005,-0.005,-0.003,-0.002,-0.001,0.0,-0.001,-0.002,-0.003,-0.005,-0.005,-0.006,-0.005,-0.005,-0.003,-0.002,-0.001,0.0,-0.001,-0.002,-0.003,-0.005,-0.005,-0.006,-0.005,-0.005,-0.003,-0.002,0.0,0.002,0.003,0.005,0.005,0.005,0.005,0.005,0.004,0.003,0.002,0.0,-0.001,-0.002,0.0,0.002,0.003,0.005,0.005,0.005,0.005,0.005,0.004,0.003,0.002,0.0,0.0,0.0,0.002,0.003,0.003,0.003,0.002,0.002,0.001,0.0,-0.001,-0.002,0.001,0.003,0.006999999999999999,0.011000000000000001,0.016,0.02,0.026000000000000002,0.031,0.038,0.044000000000000004,0.052000000000000005,0.059000000000000004,0.068,0.077,0.08199999999999999,0.08800000000000001,0.09,0.092,0.095,0.099,0.102,0.105,0.109,0.114,0.11699999999999999,0.12,0.11900000000000001,0.11699999999999999,0.113,0.10800000000000001,0.10400000000000001,0.1,0.098,0.095,0.092,0.08900000000000001,0.084,0.08,0.075,0.07,0.066,0.061,0.054000000000000006,0.047,0.039,0.031,0.022000000000000002,0.013000000000000001,0.005,-0.003,-0.009000000000000001,-0.013999999999999999,-0.02,-0.025,-0.027999999999999997,-0.031,-0.034,-0.036000000000000004,-0.038,-0.039,-0.040999999999999995,-0.044000000000000004,-0.045,-0.045,-0.046,-0.047,-0.047,-0.047,-0.047,-0.047,-0.046,-0.045,-0.043,-0.040999999999999995,-0.036000000000000004,-0.031,-0.026000000000000002,-0.02,-0.009000000000000001,0.003,0.024,0.045,0.075,0.105,0.14,0.175,0.213,0.25,0.289,0.327,0.36700000000000005,0.408,0.447,0.486,0.515,0.544,0.551,0.5579999999999999,0.534,0.51,0.457,0.405,0.342,0.28,0.22699999999999998,0.174,0.146,0.11900000000000001,0.11800000000000001,0.11699999999999999,0.135,0.153,0.174,0.19399999999999998,0.203,0.213,0.203,0.19399999999999998,0.168,0.142,0.11,0.078,0.048,0.017,-0.008,-0.033,-0.048,-0.063,-0.071,-0.08,-0.084,-0.08800000000000001,-0.09,-0.092,-0.09300000000000001,-0.094,-0.095,-0.09699999999999999,-0.096,-0.095,-0.091,-0.08800000000000001,-0.083,-0.078,-0.075,-0.07200000000000001,-0.07,-0.067,-0.065,-0.063,-0.059000000000000004,-0.055999999999999994,-0.054000000000000006,-0.052000000000000005,-0.052000000000000005,-0.052000000000000005,-0.051,-0.05,-0.048,-0.047,-0.045,-0.044000000000000004,-0.043,-0.042,-0.04,-0.038,-0.037000000000000005,-0.036000000000000004,-0.034,-0.033,-0.031,-0.03,-0.028999999999999998,-0.027999999999999997,-0.027999999999999997,-0.027999999999999997,-0.026000000000000002,-0.023,-0.02,-0.016,-0.013000000000000001,-0.009000000000000001,-0.005,-0.002,0.0,0.002,0.004,0.006,0.009000000000000001,0.011000000000000001,0.015,0.019,0.021,0.023,0.027000000000000003,0.03,0.032,0.034,0.035,0.036000000000000004,0.038,0.039,0.04,0.040999999999999995,0.040999999999999995,0.040999999999999995,0.044000000000000004,0.047,0.052000000000000005,0.055999999999999994,0.06,0.064,0.066,0.069,0.069,0.069,0.069,0.069,0.07,0.07,0.07200000000000001,0.073,0.073,0.073,0.07400000000000001,0.075,0.077,0.078,0.08,0.081,0.08,0.078,0.077,0.075,0.07400000000000001,0.073,0.073,0.073,0.073,0.07200000000000001,0.07,0.069,0.067,0.066,0.065,0.064,0.063,0.061,0.057999999999999996,0.055,0.052000000000000005,0.05,0.047,0.044000000000000004,0.040999999999999995,0.039,0.037000000000000005,0.034,0.034,0.034,0.036000000000000004,0.038,0.037000000000000005,0.036000000000000004,0.034,0.033,N
10,0.161,0.149,0.127,0.106,0.081,0.055,0.03,0.006,-0.012,-0.03,-0.04,-0.05,-0.055999999999999994,-0.061,-0.063,-0.064,-0.068,-0.07200000000000001,-0.077,-0.081,-0.084,-0.08800000000000001,-0.08800000000000001,-0.08800000000000001,-0.086,-0.084,-0.083,-0.081,-0.081,-0.08,-0.08,-0.08,-0.08,-0.08,-0.078,-0.077,-0.075,-0.073,-0.07,-0.067,-0.065,-0.063,-0.059000000000000004,-0.055999999999999994,-0.053,-0.05,-0.048,-0.047,-0.046,-0.045,-0.046,-0.047,-0.047,-0.047,-0.046,-0.045,-0.044000000000000004,-0.042,-0.040999999999999995,-0.039,-0.039,-0.039,-0.038,-0.036000000000000004,-0.034,-0.033,-0.03,-0.027999999999999997,-0.025,-0.022000000000000002,-0.02,-0.017,-0.016,-0.016,-0.013999999999999999,-0.013000000000000001,-0.012,-0.011000000000000001,-0.011000000000000001,-0.011000000000000001,-0.012,-0.013000000000000001,-0.013000000000000001,-0.013000000000000001,-0.011000000000000001,-0.009000000000000001,-0.008,-0.006,-0.005,-0.005,-0.003,-0.002,-0.001,0.0,0.0,0.0,0.0,0.0,0.001,0.002,0.003,0.005,0.005,0.005,0.005,0.005,0.004,0.003,0.002,0.002,0.002,0.003,0.005,0.006,0.008,0.009000000000000001,0.011000000000000001,0.013000000000000001,0.012,0.011000000000000001,0.01,0.009000000000000001,0.006999999999999999,0.005,0.002,-0.002,-0.005,-0.008,-0.009000000000000001,-0.011000000000000001,-0.012,-0.013000000000000001,-0.013000000000000001,-0.013000000000000001,-0.011000000000000001,-0.009000000000000001,-0.006999999999999999,-0.005,-0.002,0.0,0.003,0.006,0.009000000000000001,0.013000000000000001,0.015,0.017,0.017,0.017,0.016,0.016,0.013999999999999999,0.013000000000000001,0.01,0.008,0.006,0.005,0.002,0.0,-0.002,-0.003,-0.005,-0.006,-0.009000000000000001,-0.013000000000000001,-0.016,-0.02,-0.025,-0.03,-0.033,-0.036000000000000004,-0.039,-0.042,-0.045,-0.047,-0.046,-0.045,-0.044000000000000004,-0.042,-0.040999999999999995,-0.039,-0.04,-0.040999999999999995,-0.040999999999999995,-0.040999999999999995,-0.040999999999999995,-0.040999999999999995,-0.040999999999999995,-0.040999999999999995,-0.040999999999999995,-0.042,-0.044000000000000004,-0.045,-0.045,-0.045,-0.044000000000000004,-0.042,-0.04,-0.038,-0.037000000000000005,-0.036000000000000004,-0.034,-0.033,-0.031,-0.03,-0.028999999999999998,-0.027999999999999997,-0.028999999999999998,-0.03,-0.03,-0.03,-0.03,-0.03,-0.028999999999999998,-0.027999999999999997,-0.027000000000000003,-0.025,-0.024,-0.023,-0.023,-0.022000000000000002,-0.023,-0.025,-0.027000000000000003,-0.027999999999999997,-0.028999999999999998,-0.03,-0.028999999999999998,-0.027999999999999997,-0.026000000000000002,-0.023,-0.02,-0.017,-0.016,-0.016,-0.013999999999999999,-0.013000000000000001,-0.011000000000000001,-0.009000000000000001,-0.008,-0.006,-0.005,-0.005,-0.003,-0.002,-0.001,0.0,-0.001,-0.002,-0.003,-0.005,-0.005,-0.006,-0.005,-0.005,-0.003,-0.002,-0.001,0.0,-0.001,-0.002,-0.003,-0.005,-0.005,-0.006,-0.005,-0.005,-0.003,-0.002,0.0,0.002,0.003,0.005,0.005,0.005,0.005,0.005,0.004,0.003,0.002,0.0,-0.001,-0.002,0.0,0.002,0.003,0.005,0.005,0.005,0.005,0.005,0.004,0.003,0.002,0.0,0.0,0.0,0.002,0.003,0.003,0.003,0.002,0.002,0.001,0.0,-0.001,-0.002,0.001,0.003,0.006999999999999999,0.011000000000000001,0.016,0.02,0.026000000000000002,0.031,0.038,0.044000000000000004,0.052000000000000005,0.059000000000000004,0.068,0.077,0.08199999999999999,0.08800000000000001,0.09,0.092,0.095,0.099,0.102,0.105,0.109,0.114,0.11699999999999999,0.12,0.11900000000000001,0.11699999999999999,0.113,0.10800000000000001,0.10400000000000001,0.1,0.098,0.095,0.092,0.08900000000000001,0.084,0.08,0.075,0.07,0.066,0.061,0.054000000000000006,0.047,0.039,0.031,0.022000000000000002,0.013000000000000001,0.005,-0.003,-0.009000000000000001,-0.013999999999999999,-0.02,-0.025,-0.027999999999999997,-0.031,-0.034,-0.036000000000000004,-0.038,-0.039,-0.040999999999999995,-0.044000000000000004,-0.045,-0.045,-0.046,-0.047,-0.047,-0.047,-0.047,-0.047,-0.046,-0.045,-0.043,-0.040999999999999995,-0.036000000000000004,-0.031,-0.026000000000000002,-0.02,-0.009000000000000001,0.003,0.024,0.045,0.075,0.105,0.14,0.175,0.213,0.25,0.289,0.327,0.36700000000000005,0.408,0.447,0.486,0.515,0.544,0.551,0.5579999999999999,0.534,0.51,0.457,0.405,0.342,0.28,0.22699999999999998,0.174,0.146,0.11900000000000001,0.11800000000000001,0.11699999999999999,0.135,0.153,0.174,0.19399999999999998,0.203,0.213,0.203,0.19399999999999998,0.168,0.142,0.11,0.078,0.048,0.017,-0.008,-0.033,-0.048,-0.063,-0.071,-0.08,-0.084,-0.08800000000000001,-0.09,-0.092,-0.09300000000000001,-0.094,-0.095,-0.09699999999999999,-0.096,-0.095,-0.091,-0.08800000000000001,-0.083,-0.078,-0.075,-0.07200000000000001,-0.07,-0.067,-0.065,-0.063,-0.059000000000000004,-0.055999999999999994,-0.054000000000000006,-0.052000000000000005,-0.052000000000000005,-0.052000000000000005,-0.051,-0.05,-0.048,-0.047,-0.045,-0.044000000000000004,-0.043,-0.042,-0.04,-0.038,-0.037000000000000005,-0.036000000000000004,-0.034,-0.033,-0.031,-0.03,-0.028999999999999998,-0.027999999999999997,-0.027999999999999997,-0.027999999999999997,-0.026000000000000002,-0.023,-0.02,-0.016,-0.013000000000000001,-0.009000000000000001,-0.005,-0.002,0.0,0.002,0.004,0.006,0.009000000000000001,0.011000000000000001,0.015,0.019,0.021,0.023,0.027000000000000003,0.03,0.032,0.034,0.035,0.036000000000000004,0.038,0.039,0.04,0.040999999999999995,0.040999999999999995,0.040999999999999995,0.044000000000000004,0.047,0.052000000000000005,0.055999999999999994,0.06,0.064,0.066,0.069,0.069,0.069,0.069,0.069,0.07,0.07,0.07200000000000001,0.073,0.073,0.073,0.07400000000000001,0.075,0.077,0.078,0.08,0.081,0.08,0.078,0.077,0.075,0.07400000000000001,0.073,0.073,0.073,0.073,0.07200000000000001,0.07,0.069,0.067,0.066,0.065,0.064,0.063,0.061,0.057999999999999996,0.055,0.052000000000000005,0.05,0.047,0.044000000000000004,0.040999999999999995,0.039,0.037000000000000005,0.034,0.034,0.034,0.036000000000000004,0.038,0.037000000000000005,0.036000000000000004,0.034,0.033,0.03,0.027999999999999997,0.024,0.02,0.018000000000000002,0.016,0.013000000000000001,0.009000000000000001,0.006,0.003,0.001,-0.002,-0.005,-0.008,-0.01,-0.013000000000000001,-0.016,-0.019,-0.022000000000000002,-0.025,-0.027000000000000003,-0.03,-0.033,-0.036000000000000004,-0.038,-0.040999999999999995,-0.040999999999999995,-0.040999999999999995,-0.038,-0.036000000000000004,-0.035,-0.034,-0.034,-0.033,-0.031,-0.03,-0.028999999999999998,-0.027999999999999997,-0.028999999999999998,-0.03,-0.03,-0.031,-0.033,-0.034,-0.035,-0.036000000000000004,-0.038,-0.039,-0.040999999999999995,-0.042,-0.040999999999999995,-0.039,-0.037000000000000005,-0.034,-0.032,-0.03,-0.028999999999999998,-0.027999999999999997,-0.028999999999999998,-0.03,-0.03,-0.03,-0.03,-0.03,-0.03,-0.03,-0.03,-0.03,-0.03,-0.03,-0.03,-0.03,-0.03,-0.03,-0.028999999999999998,-0.027999999999999997,-0.026000000000000002,-0.023,-0.02,-0.017,-0.016,-0.016,-0.015,-0.013999999999999999,-0.016,-0.017,-0.02,-0.022000000000000002,-0.023,-0.025,-0.023,-0.022000000000000002,-0.02,-0.017,-0.016,-0.016,-0.015,-0.013999999999999999,-0.015,-0.016,-0.016,-0.017,-0.017,-0.017,-0.017,-0.017,-0.016,-0.016,-0.013000000000000001,-0.011000000000000001,-0.009000000000000001,-0.006,-0.006,-0.006,-0.006999999999999999,-0.008,-0.01,-0.013000000000000001,-0.015,-0.017,-0.017,-0.017,-0.017,-0.017,-0.016,-0.016,-0.015,-0.013999999999999999,-0.015,-0.016,-0.016,-0.017,-0.017,-0.017,-0.016,-0.016,-0.013000000000000001,-0.011000000000000001,-0.008,-0.005,-0.003,-0.002,0.0,0.002,0.003,0.005,0.004,0.003,0.002,0.0,-0.002,-0.003,-0.005,-0.006,-0.009000000000000001,-0.011000000000000001,-0.012,-0.013000000000000001,-0.013000000000000001,-0.013000000000000001,-0.012,-0.011000000000000001,-0.009000000000000001,-0.008,-0.005,-0.002,0.003,0.008,0.013999999999999999,0.02,0.027999999999999997,0.036000000000000004,0.043,0.05,0.057,0.064,0.071,0.078,0.08199999999999999,0.086,0.08900000000000001,0.092,0.095,0.099,0.10099999999999999,0.10300000000000001,0.106,0.10800000000000001,0.109,0.109,0.10800000000000001,0.106,0.10300000000000001,0.1,0.095,0.091,0.087,0.083,0.077,0.07,0.063,0.055,0.049,0.044000000000000004,0.04,0.036000000000000004,0.032,0.027999999999999997,0.023,0.017,0.01,0.003,-0.004,-0.011000000000000001,-0.018000000000000002,-0.025,-0.031,-0.038,-0.04,-0.042,-0.045,-0.047,-0.05,-0.053,-0.055999999999999994,-0.057999999999999996,-0.057999999999999996,-0.057999999999999996,-0.057,-0.055999999999999994,-0.055,-0.053,-0.052000000000000005,-0.05,-0.048,-0.047,-0.045,-0.042,-0.036000000000000004,-0.03,-0.016,-0.002,0.021,0.044000000000000004,0.075,0.106,0.141,0.175,0.21,0.244,0.27899999999999997,0.314,0.353,0.391,0.431,0.47100000000000003,0.502,0.5329999999999999,0.5429999999999999,0.5539999999999999,0.532,0.51,0.46,0.41,0.345,0.28,0.22399999999999998,0.16699999999999998,0.13699999999999998,0.106,0.106,0.105,0.124,0.142,0.165,0.188,0.19899999999999998,0.21100000000000002,0.205,0.19899999999999998,0.174,0.15,0.11699999999999999,0.084,0.054000000000000006,0.023,0.0,-0.023,-0.038,-0.053,-0.061,-0.069,-0.07200000000000001,-0.075,-0.077,-0.078,-0.08199999999999999,-0.086,-0.08900000000000001,-0.092,-0.09300000000000001,-0.094,-0.092,-0.091,-0.087,-0.083,-0.079,-0.075,-0.071,-0.067,-0.065,-0.063,-0.063,-0.063,-0.063,-0.064,-0.066,-0.067,-0.067,-0.067,-0.066,-0.064,-0.063,-0.063,-0.062,-0.061,-0.059000000000000004,-0.055999999999999994,-0.054000000000000006,-0.052000000000000005,-0.048,-0.045,-0.043,-0.040999999999999995,-0.039,-0.038,-0.036000000000000004,-0.034,-0.032,-0.03,-0.028999999999999998,-0.027999999999999997,-0.027999999999999997,-0.027999999999999997,-0.026000000000000002,-0.023,-0.02,-0.017,-0.016,-0.016,-0.013999999999999999,-0.013000000000000001,-0.011000000000000001,-0.009000000000000001,-0.006,-0.003,0.001,0.005,0.009000000000000001,0.013000000000000001,0.015,0.017,0.018000000000000002,0.019,0.02,0.022000000000000002,0.023,0.023,0.023,0.022000000000000002,0.022000000000000002,0.022000000000000002,0.022000000000000002,0.022000000000000002,0.022000000000000002,0.022000000000000002,0.022000000000000002,0.022000000000000002,0.022000000000000002,0.022000000000000002,0.022000000000000002,0.022000000000000002,0.022000000000000002,0.022000000000000002,0.022000000000000002,0.022000000000000002,0.022000000000000002,0.022000000000000002,0.022000000000000002,0.022000000000000002,0.023,0.023,0.025,0.027000000000000003,0.027999999999999997,0.03,0.028999999999999998,0.027999999999999997,0.027000000000000003,0.027000000000000003,0.025,0.023,0.023,0.022000000000000002,0.022000000000000002,0.022000000000000002,0.022000000000000002,0.022000000000000002,0.021,0.02,0.018000000000000002,0.016,0.013000000000000001,0.011000000000000001,0.009000000000000001,0.008,0.006999999999999999,0.006,0.005,0.005,0.005,0.005,0.005,0.006,0.008,0.009000000000000001,0.012,0.013999999999999999,N
