0,0.079,0.045,0.012,-0.017,-0.047,-0.065,-0.083,-0.08800000000000001,-0.092,-0.08800000000000001,-0.084,-0.079,-0.073,-0.07,-0.068,-0.07200000000000001,-0.077,-0.085,-0.094,-0.102,-0.109,-0.114,-0.11900000000000001,-0.12,-0.121,-0.12,-0.11900000000000001,-0.11800000000000001,-0.11699999999999999,-0.11599999999999999,-0.115,-0.115,-0.11599999999999999,-0.115,-0.115,-0.114,-0.11199999999999999,-0.11,-0.10800000000000001,-0.106,-0.10400000000000001,-0.102,-0.10099999999999999,-0.099,-0.09699999999999999,-0.094,-0.091,-0.08900000000000001,-0.086,-0.084,-0.08199999999999999,-0.08,-0.079,-0.077,-0.076,-0.075,-0.07400000000000001,-0.073,-0.073,-0.071,-0.069,-0.066,-0.063,-0.061,-0.057999999999999996,-0.057,-0.055999999999999994,-0.054000000000000006,-0.052000000000000005,-0.05,-0.049,-0.046,-0.044000000000000004,-0.04,-0.036000000000000004,-0.033,-0.028999999999999998,-0.026000000000000002,-0.023,-0.022000000000000002,-0.02,-0.018000000000000002,-0.016,-0.012,-0.009000000000000001,-0.004,0.001,0.004,0.008,0.009000000000000001,0.011000000000000001,0.011000000000000001,0.011000000000000001,0.01,0.01,0.009000000000000001,0.008,0.006999999999999999,0.006,0.006,0.006999999999999999,0.006999999999999999,0.008,0.009000000000000001,0.01,0.01,0.011000000000000001,0.011000000000000001,0.011000000000000001,0.012,0.012,0.012,0.012,0.012,0.011000000000000001,0.011000000000000001,0.011000000000000001,0.01,0.009000000000000001,0.006,0.004,0.001,-0.002,-0.003,-0.005,-0.006,-0.006999999999999999,-0.006999999999999999,-0.008,-0.008,-0.009000000000000001,-0.01,-0.011000000000000001,-0.013000000000000001,-0.016,-0.021,-0.025,-0.027000000000000003,-0.03,-0.03,-0.031,-0.03,-0.028999999999999998,-0.026000000000000002,-0.023,-0.02,-0.016,-0.012,-0.009000000000000001,-0.006,-0.003,-0.001,0.0,-0.001,-0.002,-0.004,-0.006,-0.006999999999999999,-0.009000000000000001,-0.01,-0.011000000000000001,-0.011000000000000001,-0.011000000000000001,-0.011000000000000001,-0.011000000000000001,-0.013000000000000001,-0.013999999999999999,-0.013999999999999999,-0.013999999999999999,-0.015,-0.015,-0.017,-0.019,-0.023,-0.027000000000000003,-0.032,-0.037000000000000005,-0.042,-0.047,-0.051,-0.055,-0.055999999999999994,-0.057,-0.057999999999999996,-0.059000000000000004,-0.06,-0.06,-0.06,-0.059000000000000004,-0.057999999999999996,-0.057,-0.054000000000000006,-0.052000000000000005,-0.051,-0.051,-0.052000000000000005,-0.053,-0.054000000000000006,-0.055999999999999994,-0.057,-0.057999999999999996,-0.059000000000000004,-0.059000000000000004,-0.059000000000000004,-0.059000000000000004,-0.057999999999999996,-0.057,-0.054000000000000006,-0.052000000000000005,-0.051,-0.05,-0.049,-0.049,-0.049,-0.049,-0.048,-0.048,-0.046,-0.044000000000000004,-0.042,-0.039,-0.038,-0.036000000000000004,-0.034,-0.033,-0.031,-0.028999999999999998,-0.026000000000000002,-0.024,-0.022000000000000002,-0.02,-0.019,-0.018000000000000002,-0.018000000000000002,-0.017,-0.018000000000000002,-0.018000000000000002,-0.018000000000000002,-0.018000000000000002,-0.018000000000000002,-0.017,-0.016,-0.013999999999999999,-0.012,-0.011000000000000001,-0.011000000000000001,-0.011000000000000001,-0.012,-0.013000000000000001,-0.012,-0.011000000000000001,-0.01,-0.009000000000000001,-0.006999999999999999,-0.005,-0.004,-0.004,-0.006,-0.008,-0.01,-0.011000000000000001,-0.013000000000000001,-0.013999999999999999,-0.013999999999999999,-0.013999999999999999,-0.013999999999999999,-0.013999999999999999,-0.015,-0.015,-0.017,-0.018000000000000002,-0.02,-0.022000000000000002,-0.024,-0.027000000000000003,-0.03,-0.033,-0.034,-0.034,-0.033,-0.032,-0.03,-0.027999999999999997,-0.025,-0.023,-0.021,-0.018000000000000002,-0.017,-0.015,-0.015,-0.013999999999999999,-0.011000000000000001,-0.009000000000000001,-0.005,-0.002,0.004,0.01,0.017,0.024,0.032,0.04,0.049,0.057999999999999996,0.068,0.077,0.083,0.08900000000000001,0.092,0.095,0.096,0.09699999999999999,0.099,0.102,0.10400000000000001,0.107,0.11199999999999999,0.11599999999999999,0.12,0.124,0.125,0.126,0.125,0.125,0.12300000000000001,0.122,0.11800000000000001,0.115,0.109,0.10300000000000001,0.09699999999999999,0.09,0.081,0.073,0.062,0.052000000000000005,0.04,0.028999999999999998,0.017,0.006,-0.005,-0.016,-0.026000000000000002,-0.035,-0.044000000000000004,-0.053,-0.059000000000000004,-0.065,-0.068,-0.07200000000000001,-0.073,-0.075,-0.076,-0.078,-0.079,-0.08,-0.081,-0.083,-0.085,-0.086,-0.087,-0.08800000000000001,-0.08800000000000001,-0.08800000000000001,-0.08800000000000001,-0.087,-0.085,-0.08199999999999999,-0.079,-0.075,-0.067,-0.059000000000000004,-0.047,-0.034,-0.017,0.001,0.024,0.048,0.076,0.10300000000000001,0.135,0.16699999999999998,0.201,0.23600000000000002,0.275,0.314,0.36,0.405,0.449,0.493,0.522,0.55,0.5489999999999999,0.5479999999999999,0.516,0.485,0.434,0.38299999999999995,0.331,0.28,0.242,0.205,0.18600000000000003,0.168,0.165,0.163,0.17,0.17600000000000002,0.182,0.187,0.183,0.179,0.162,0.145,0.11699999999999999,0.09,0.061,0.033,0.011000000000000001,-0.011000000000000001,-0.021,-0.031,-0.032,-0.034,-0.031,-0.028999999999999998,-0.03,-0.032,-0.038,-0.045,-0.055,-0.064,-0.07400000000000001,-0.083,-0.091,-0.098,-0.102,-0.106,-0.10800000000000001,-0.11,-0.111,-0.11199999999999999,-0.11199999999999999,-0.11199999999999999,-0.11,-0.10800000000000001,-0.106,-0.10400000000000001,-0.10300000000000001,-0.102,-0.102,-0.102,-0.102,-0.102,-0.10300000000000001,-0.10300000000000001,-0.102,-0.102,-0.098,-0.094,-0.09,-0.085,-0.08,-0.076,-0.071,-0.066,-0.065,-0.063,-0.063,-0.063,-0.063,-0.063,-0.063,-0.063,-0.063,-0.062,-0.061,-0.06,-0.059000000000000004,-0.057999999999999996,-0.057,-0.055999999999999994,-0.052000000000000005,-0.049,-0.046,-0.044000000000000004,-0.043,-0.042,-0.042,-0.042,-0.042,-0.040999999999999995,-0.04,-0.038,-0.036000000000000004,-0.034,-0.031,-0.027999999999999997,-0.026000000000000002,-0.024,-0.023,-0.021,-0.021,-0.02,-0.018000000000000002,-0.016,-0.013000000000000001,-0.011000000000000001,-0.008,-0.005,-0.003,-0.001,-0.0,0.0,-0.0,-0.001,-0.002,-0.004,-0.005,-0.006999999999999999,-0.006999999999999999,-0.008,-0.008,-0.008,-0.006999999999999999,-0.006999999999999999,-0.006999999999999999,-0.006999999999999999,-0.008,-0.01,-0.012,-0.013999999999999999,-0.017,-0.019,-0.021,-0.023,-0.024,-0.025,-0.025,-0.026000000000000002,-0.026000000000000002,-0.027000000000000003,-0.026000000000000002,-0.026000000000000002,-0.025,-0.024,-0.024,-0.025,-0.025,-0.026000000000000002,-0.027000000000000003,-0.027999999999999997,-0.027999999999999997,-0.028999999999999998,-0.027999999999999997,-0.027999999999999997,-0.026000000000000002,-0.025,-0.022000000000000002,-0.019,-0.016,-0.012,-0.008,-0.004,-0.001,0.001,0.002,0.004,0.003,0.002,0.0,-0.001,-0.003,-0.005,-0.006,-0.008,-0.01,-0.011000000000000001,-0.013000000000000001,-0.015,-0.016,-0.017,-0.018000000000000002,-0.019,-0.021,-0.022000000000000002,-0.023,-0.025,-0.027000000000000003,-0.028999999999999998,-0.028999999999999998,-0.03,-0.031,-0.032,-0.033,-0.034,-0.034,-0.035,-0.037000000000000005,-0.039,-0.040999999999999995,-0.043,-0.045,-0.046,-0.046,-0.047,-0.048,-0.049,-0.049,-0.049,-0.048,-0.047,-0.046,-0.045,-0.043,-0.040999999999999995,-0.04,-0.038,-0.037000000000000005,-0.035,-0.035,-0.034,-0.035,-0.036000000000000004,-0.037000000000000005,-0.037000000000000005,-0.037000000000000005,-0.036000000000000004,-0.035,-0.034,-0.033,-0.032,-0.03,-0.028999999999999998,-0.027999999999999997,-0.027000000000000003,-0.026000000000000002,-0.026000000000000002,-0.024,-0.023,-0.023,-0.023,-0.023,-0.024,-0.024,-0.025,-0.025,-0.025,-0.024,-0.024,-0.023,-0.021,-0.019,-0.017,-0.016,-0.013999999999999999,-0.013999999999999999,-0.013000000000000001,-0.013999999999999999,-0.013999999999999999,-0.015,-0.015,-0.016,-0.016,-0.016,-0.015,-0.013999999999999999,-0.013000000000000001,-0.011000000000000001,-0.01,-0.009000000000000001,-0.008,-0.008,-0.008,-0.008,-0.009000000000000001,-0.009000000000000001,-0.009000000000000001,-0.008,-0.008,-0.006,-0.005,-0.003,-0.001,0.0,0.001,0.001,0.001,-0.0,-0.002,N,,,,,,,,,,,,,,,,,,,,,,,,,,,,,,,,,,,,,,,,,,,,,,,,,,,,,,,,,,,,,,,,,,,,,,,,,,,,,,,,,,,,,,,,,,,,,,,,,,,,,,,,,,,,,,,,,,,,,,,,,,,,,,,,,,,,,,,,,,,,,,,,,,,,,,,,,,,,,,,,,,,,,,,,,,,,,,,,,,,,,,,,,,,,,,,,,,,,,,,,,,,,,,,,,,,,,,,,,,,,,,,,,,,,,,,,,,,,,,,,,,,,,,,,,,,,,,,,,,,,,,,,,,,,,,,,,,,,,,,,,,,,,,,,,,,,,,,,,,,,,,,,,,,,,,,
1,0.15,0.134,0.107,0.08,0.051,0.022000000000000002,0.001,-0.02,-0.028999999999999998,-0.038,-0.039,-0.039,-0.036000000000000004,-0.033,-0.033,-0.033,-0.037000000000000005,-0.040999999999999995,-0.049,-0.057,-0.065,-0.07400000000000001,-0.081,-0.08900000000000001,-0.09300000000000001,-0.09699999999999999,-0.098,-0.099,-0.099,-0.099,-0.099,-0.099,-0.098,-0.098,-0.09699999999999999,-0.096,-0.094,-0.09300000000000001,-0.091,-0.08800000000000001,-0.085,-0.08199999999999999,-0.08,-0.077,-0.07400000000000001,-0.07200000000000001,-0.069,-0.066,-0.064,-0.062,-0.061,-0.06,-0.059000000000000004,-0.057999999999999996,-0.057999999999999996,-0.057,-0.057,-0.055999999999999994,-0.054000000000000006,-0.053,-0.052000000000000005,-0.052000000000000005,-0.05,-0.049,-0.047,-0.045,-0.043,-0.04,-0.038,-0.035,-0.034,-0.032,-0.031,-0.031,-0.03,-0.028999999999999998,-0.027999999999999997,-0.027000000000000003,-0.026000000000000002,-0.025,-0.023,-0.02,-0.019,-0.017,-0.016,-0.013999999999999999,-0.013999999999999999,-0.013000000000000001,-0.013000000000000001,-0.013000000000000001,-0.012,-0.011000000000000001,-0.01,-0.009000000000000001,-0.006,-0.003,0.0,0.004,0.005,0.006999999999999999,0.006999999999999999,0.006999999999999999,0.005,0.003,0.001,-0.001,-0.003,-0.005,-0.006,-0.006999999999999999,-0.006999999999999999,-0.006999999999999999,-0.006,-0.006,-0.006,-0.006999999999999999,-0.008,-0.009000000000000001,-0.01,-0.011000000000000001,-0.011000000000000001,-0.011000000000000001,-0.011000000000000001,-0.011000000000000001,-0.011000000000000001,-0.011000000000000001,-0.011000000000000001,-0.011000000000000001,-0.013000000000000001,-0.015,-0.017,-0.018000000000000002,-0.02,-0.021,-0.021,-0.021,-0.019,-0.017,-0.015,-0.012,-0.01,-0.006999999999999999,-0.005,-0.003,-0.001,0.0,0.002,0.004,0.005,0.006999999999999999,0.008,0.009000000000000001,0.009000000000000001,0.01,0.011000000000000001,0.011000000000000001,0.012,0.013000000000000001,0.013999999999999999,0.013999999999999999,0.013000000000000001,0.012,0.011000000000000001,0.011000000000000001,0.009000000000000001,0.008,0.006,0.004,0.002,0.001,-0.002,-0.005,-0.008,-0.011000000000000001,-0.013000000000000001,-0.015,-0.016,-0.017,-0.018000000000000002,-0.019,-0.021,-0.022000000000000002,-0.023,-0.025,-0.027000000000000003,-0.03,-0.031,-0.032,-0.032,-0.033,-0.032,-0.031,-0.03,-0.028999999999999998,-0.028999999999999998,-0.028999999999999998,-0.031,-0.033,-0.034,-0.036000000000000004,-0.037000000000000005,-0.038,-0.039,-0.039,-0.039,-0.038,-0.038,-0.037000000000000005,-0.036000000000000004,-0.034,-0.033,-0.032,-0.03,-0.028999999999999998,-0.027999999999999997,-0.027000000000000003,-0.026000000000000002,-0.026000000000000002,-0.024,-0.022000000000000002,-0.021,-0.019,-0.017,-0.015,-0.013000000000000001,-0.011000000000000001,-0.01,-0.009000000000000001,-0.008,-0.008,-0.006999999999999999,-0.006999999999999999,-0.006,-0.006,-0.005,-0.005,-0.005,-0.005,-0.006,-0.006999999999999999,-0.006999999999999999,-0.008,-0.008,-0.008,-0.006999999999999999,-0.006,-0.004,-0.003,-0.001,0.0,0.002,0.004,0.006,0.008,0.009000000000000001,0.011000000000000001,0.011000000000000001,0.011000000000000001,0.011000000000000001,0.011000000000000001,0.01,0.009000000000000001,0.006999999999999999,0.005,0.003,0.001,0.0,0.0,-0.0,-0.001,-0.0,0.0,0.0,0.0,0.0,0.0,0.0,0.0,0.0,0.001,0.002,0.003,0.003,0.004,0.005,0.006,0.008,0.01,0.012,0.015,0.022000000000000002,0.028999999999999998,0.039,0.049,0.06,0.07200000000000001,0.083,0.094,0.102,0.111,0.115,0.12,0.122,0.125,0.125,0.126,0.128,0.13,0.134,0.13699999999999998,0.14,0.14300000000000002,0.145,0.14800000000000002,0.14800000000000002,0.149,0.14800000000000002,0.147,0.14300000000000002,0.14,0.134,0.128,0.122,0.115,0.10800000000000001,0.102,0.094,0.087,0.079,0.07,0.06,0.051,0.040999999999999995,0.031,0.022000000000000002,0.012,0.004,-0.004,-0.012,-0.021,-0.027999999999999997,-0.035,-0.040999999999999995,-0.047,-0.051,-0.055999999999999994,-0.057999999999999996,-0.06,-0.062,-0.063,-0.064,-0.065,-0.066,-0.066,-0.067,-0.067,-0.067,-0.067,-0.067,-0.067,-0.067,-0.067,-0.065,-0.063,-0.057,-0.051,-0.039,-0.027999999999999997,-0.011000000000000001,0.005,0.027999999999999997,0.051,0.079,0.106,0.13699999999999998,0.168,0.2,0.233,0.27,0.307,0.348,0.39,0.43,0.469,0.493,0.517,0.514,0.511,0.48,0.449,0.401,0.353,0.305,0.257,0.222,0.187,0.17,0.152,0.149,0.146,0.15,0.154,0.159,0.163,0.159,0.155,0.14,0.125,0.10099999999999999,0.077,0.052000000000000005,0.027000000000000003,0.009000000000000001,-0.01,-0.018000000000000002,-0.026000000000000002,-0.026000000000000002,-0.027000000000000003,-0.026000000000000002,-0.025,-0.026000000000000002,-0.027000000000000003,-0.033,-0.038,-0.047,-0.055999999999999994,-0.064,-0.073,-0.08,-0.087,-0.091,-0.096,-0.098,-0.1,-0.099,-0.098,-0.096,-0.095,-0.094,-0.09300000000000001,-0.091,-0.08800000000000001,-0.085,-0.08199999999999999,-0.079,-0.076,-0.073,-0.07,-0.068,-0.067,-0.066,-0.065,-0.065,-0.064,-0.063,-0.062,-0.061,-0.059000000000000004,-0.057999999999999996,-0.057,-0.055999999999999994,-0.055999999999999994,-0.055999999999999994,-0.057,-0.055999999999999994,-0.055999999999999994,-0.054000000000000006,-0.053,-0.05,-0.048,-0.045,-0.042,-0.039,-0.035,-0.032,-0.028999999999999998,-0.025,-0.022000000000000002,-0.02,-0.018000000000000002,-0.018000000000000002,-0.017,-0.017,-0.017,-0.015,-0.013000000000000001,-0.01,-0.006999999999999999,-0.005,-0.003,-0.002,-0.001,-0.0,0.0,0.0,0.001,0.002,0.004,0.005,0.006999999999999999,0.009000000000000001,0.011000000000000001,0.011000000000000001,0.011000000000000001,0.012,0.013000000000000001,0.013999999999999999,0.013999999999999999,0.013999999999999999,0.013000000000000001,0.013000000000000001,0.012,0.011000000000000001,0.01,0.008,0.006,0.004,0.003,0.003,0.003,0.003,0.004,0.005,0.006,0.006999999999999999,0.008,0.006999999999999999,0.006,0.005,0.004,0.003,0.002,0.001,0.0,-0.0,-0.001,-0.0,0.0,-0.0,-0.001,-0.002,-0.004,-0.006,-0.008,-0.009000000000000001,-0.01,-0.009000000000000001,-0.008,-0.006,-0.005,-0.002,0.0,0.002,0.005,0.006999999999999999,0.01,0.011000000000000001,0.011000000000000001,0.012,0.013000000000000001,0.013999999999999999,0.015,0.016,0.016,0.017,0.018000000000000002,0.017,0.016,0.015,0.013000000000000001,0.012,0.011000000000000001,0.01,0.009000000000000001,0.008,0.008,0.006,0.004,0.002,0.001,-0.001,-0.003,-0.005,-0.006999999999999999,-0.008,-0.009000000000000001,-0.01,-0.011000000000000001,-0.013999999999999999,-0.017,-0.021,-0.025,-0.028999999999999998,-0.034,-0.037000000000000005,-0.04,-0.043,-0.046,-0.046,-0.047,-0.046,-0.045,-0.043,-0.040999999999999995,-0.04,-0.038,-0.036000000000000004,-0.034,-0.033,-0.031,-0.027999999999999997,-0.026000000000000002,-0.023,-0.019,-0.018000000000000002,-0.016,-0.016,-0.015,-0.017,-0.018000000000000002,-0.02,-0.021,-0.021,-0.02,-0.017,-0.013999999999999999,-0.012,-0.01,-0.008,-0.006999999999999999,-0.006,-0.005,-0.006,-0.006999999999999999,-0.006999999999999999,-0.008,-0.006999999999999999,-0.006999999999999999,-0.005,-0.003,-0.002,-0.001,0.0,0.001,0.002,0.003,0.003,0.003,0.003,0.003,0.003,0.004,0.005,0.006,0.006999999999999999,0.009000000000000001,0.009000000000000001,0.009000000000000001,0.009000000000000001,0.009000000000000001,0.009000000000000001,0.009000000000000001,0.009000000000000001,0.009000000000000001,0.009000000000000001,0.01,0.011000000000000001,0.011000000000000001,0.012,0.013000000000000001,0.013999999999999999,0.013999999999999999,0.013999999999999999,0.013000000000000001,0.013000000000000001,0.012,0.011000000000000001,0.01,0.008,0.006,0.004,0.003,0.003,0.003,0.003,0.004,0.005,0.006,0.006999999999999999,0.008,0.006999999999999999,0.006999999999999999,0.006999999999999999,0.008,0.01,0.011000000000000001,0.016,0.021,0.03,0.039,0.051,0.063,0.075,0.086,0.09699999999999999,0.10800000000000001,0.11699999999999999,0.125,0.13,0.134,0.136,0.138,0.139,0.14,0.141,0.142,0.14300000000000002,0.14400000000000002,0.145,0.147,0.147,0.147,0.14400000000000002,0.141,0.136,0.131,0.125,0.11900000000000001,0.11199999999999999,0.105,0.099,0.09300000000000001,0.08800000000000001,0.08199999999999999,0.075,0.068,0.06,0.052000000000000005,0.043,0.034,0.025,0.016,0.008,0.0,-0.006999999999999999,-0.013999999999999999,-0.021,-0.027999999999999997,-0.034,-0.040999999999999995,-0.046,-0.052000000000000005,-0.055999999999999994,-0.06,-0.062,-0.064,-0.064,-0.064,-0.064,-0.063,-0.063,-0.063,-0.064,-0.064,-0.066,-0.067,-0.068,-0.07,-0.069,-0.069,-0.065,-0.06,-0.051,-0.040999999999999995,-0.023,-0.006,0.019,0.043,0.07200000000000001,0.10099999999999999,0.133,0.165,0.19899999999999998,0.23399999999999999,0.273,0.312,0.359,0.405,0.45299999999999996,0.5,0.535,0.5710000000000001,0.58,0.59,0.568,0.545,0.498,0.45,0.395,0.34,0.293,0.24600000000000002,0.21600000000000003,0.187,0.175,0.163,0.16399999999999998,0.165,0.168,0.171,0.16699999999999998,0.162,0.14400000000000002,0.125,0.09699999999999999,0.068,0.038,0.008,-0.015,-0.038,-0.049,-0.059000000000000004,-0.06,-0.06,-0.057,-0.053,-0.05,-0.047,-0.049,-0.051,-0.057,-0.062,-0.069,-0.076,-0.081,-0.086,-0.08900000000000001,-0.092,-0.092,-0.092,-0.091,-0.08900000000000001,-0.086,-0.083,-0.08,-0.077,-0.075,-0.073,-0.071,-0.07,-0.07,-0.07,-0.07,-0.07,-0.069,-0.069,-0.068,-0.067,-0.066,-0.065,-0.064,-0.063,-0.061,-0.057999999999999996,-0.055999999999999994,-0.053,-0.05,-0.047,-0.045,-0.042,-0.04,-0.038,-0.037000000000000005,-0.036000000000000004,-0.034,-0.032,-0.028999999999999998,-0.027000000000000003,-0.024,-0.022000000000000002,-0.021,-0.019,-0.019,-0.018000000000000002,-0.017,-0.016,-0.015,-0.013999999999999999,-0.011000000000000001,-0.009000000000000001,-0.006,-0.004,-0.001,0.002,0.005,0.008,0.01,0.012,0.015,0.018000000000000002,0.021,0.023,0.025,0.027999999999999997,0.03,0.032,0.032,0.032,0.032,0.032,0.033,0.034,0.034,0.035,0.037000000000000005,0.038,0.039,0.039,0.04,0.040999999999999995,0.042,0.042,0.043,0.043,0.045,0.046,0.047,0.048,0.049,0.05,0.049,0.048,0.045,0.043,0.039,0.035,0.032,0.028999999999999998,0.026000000000000002,0.024,0.022000000000000002,0.02,0.018000000000000002,0.016,0.013999999999999999,0.012,0.011000000000000001,0.011000000000000001,0.01,0.009000000000000001,0.008,0.008,0.006999999999999999,0.006,0.006,0.006999999999999999,0.006999999999999999,0.006999999999999999,0.006999999999999999,0.006999999999999999,0.006999999999999999,0.008,0.009000000000000001,0.011000000000000001,0.012,0.013000000000000001,0.013999999999999999,0.013999999999999999,0.013000000000000001,0.012,0.011000000000000001,0.01,0.008,0.006,0.004,0.002,0.0,-0.001,-0.003,-0.005,-0.006,-0.008,-0.009000000000000001,-0.011000000000000001,-0.011000000000000001,-0.012,-0.015,-0.018000000000000002,-0.021,-0.023,-0.026000000000000002,-0.03,-0.033,-0.035,-0.037000000000000005,-0.039,-0.039,-0.039,-0.039,-0.038,N
2,0.10099999999999999,0.077,0.052000000000000005,0.027000000000000003,0.009000000000000001,-0.01,-0.018000000000000002,-0.026000000000000002,-0.026000000000000002,-0.027000000000000003,-0.026000000000000002,-0.025,-0.026000000000000002,-0.027000000000000003,-0.033,-0.038,-0.047,-0.055999999999999994,-0.064,-0.073,-0.08,-0.087,-0.091,-0.096,-0.098,-0.1,-0.099,-0.098,-0.096,-0.095,-0.094,-0.09300000000000001,-0.091,-0.08800000000000001,-0.085,-0.08199999999999999,-0.079,-0.076,-0.073,-0.07,-0.068,-0.067,-0.066,-0.065,-0.065,-0.064,-0.063,-0.062,-0.061,-0.059000000000000004,-0.057999999999999996,-0.057,-0.055999999999999994,-0.055999999999999994,-0.055999999999999994,-0.057,-0.055999999999999994,-0.055999999999999994,-0.054000000000000006,-0.053,-0.05,-0.048,-0.045,-0.042,-0.039,-0.035,-0.032,-0.028999999999999998,-0.025,-0.022000000000000002,-0.02,-0.018000000000000002,-0.018000000000000002,-0.017,-0.017,-0.017,-0.015,-0.013000000000000001,-0.01,-0.006999999999999999,-0.005,-0.003,-0.002,-0.001,-0.0,0.0,0.0,0.001,0.002,0.004,0.005,0.006999999999999999,0.009000000000000001,0.011000000000000001,0.011000000000000001,0.011000000000000001,0.012,0.013000000000000001,0.013999999999999999,0.013999999999999999,0.013999999999999999,0.013000000000000001,0.013000000000000001,0.012,0.011000000000000001,0.01,0.008,0.006,0.004,0.003,0.003,0.003,0.003,0.004,0.005,0.006,0.006999999999999999,0.008,0.006999999999999999,0.006,0.005,0.004,0.003,0.002,0.001,0.0,-0.0,-0.001,-0.0,0.0,-0.0,-0.001,-0.002,-0.004,-0.006,-0.008,-0.009000000000000001,-0.01,-0.009000000000000001,-0.008,-0.006,-0.005,-0.002,0.0,0.002,0.005,0.006999999999999999,0.01,0.011000000000000001,0.011000000000000001,0.012,0.013000000000000001,0.013999999999999999,0.015,0.016,0.016,0.017,0.018000000000000002,0.017,0.016,0.015,0.013000000000000001,0.012,0.011000000000000001,0.01,0.009000000000000001,0.008,0.008,0.006,0.004,0.002,0.001,-0.001,-0.003,-0.005,-0.006999999999999999,-0.008,-0.009000000000000001,-0.01,-0.011000000000000001,-0.013999999999999999,-0.017,-0.021,-0.025,-0.028999999999999998,-0.034,-0.037000000000000005,-0.04,-0.043,-0.046,-0.046,-0.047,-0.046,-0.045,-0.043,-0.040999999999999995,-0.04,-0.038,-0.036000000000000004,-0.034,-0.033,-0.031,-0.027999999999999997,-0.026000000000000002,-0.023,-0.019,-0.018000000000000002,-0.016,-0.016,-0.015,-0.017,-0.018000000000000002,-0.02,-0.021,-0.021,-0.02,-0.017,-0.013999999999999999,-0.012,-0.01,-0.008,-0.006999999999999999,-0.006,-0.005,-0.006,-0.006999999999999999,-0.006999999999999999,-0.008,-0.006999999999999999,-0.006999999999999999,-0.005,-0.003,-0.002,-0.001,0.0,0.001,0.002,0.003,0.003,0.003,0.003,0.003,0.003,0.004,0.005,0.006,0.006999999999999999,0.009000000000000001,0.009000000000000001,0.009000000000000001,0.009000000000000001,0.009000000000000001,0.009000000000000001,0.009000000000000001,0.009000000000000001,0.009000000000000001,0.009000000000000001,0.01,0.011000000000000001,0.011000000000000001,0.012,0.013000000000000001,0.013999999999999999,0.013999999999999999,0.013999999999999999,0.013000000000000001,0.013000000000000001,0.012,0.011000000000000001,0.01,0.008,0.006,0.004,0.003,0.003,0.003,0.003,0.004,0.005,0.006,0.006999999999999999,0.008,0.006999999999999999,0.006999999999999999,0.006999999999999999,0.008,0.01,0.011000000000000001,0.016,0.021,0.03,0.039,0.051,0.063,0.075,0.086,0.09699999999999999,0.10800000000000001,0.11699999999999999,0.125,0.13,0.134,0.136,0.138,0.139,0.14,0.141,0.142,0.14300000000000002,0.14400000000000002,0.145,0.147,0.147,0.147,0.14400000000000002,0.141,0.136,0.131,0.125,0.11900000000000001,0.11199999999999999,0.105,0.099,0.09300000000000001,0.08800000000000001,0.08199999999999999,0.075,0.068,0.06,0.052000000000000005,0.043,0.034,0.025,0.016,0.008,0.0,-0.006999999999999999,-0.013999999999999999,-0.021,-0.027999999999999997,-0.034,-0.040999999999999995,-0.046,-0.052000000000000005,-0.055999999999999994,-0.06,-0.062,-0.064,-0.064,-0.064,-0.064,-0.063,-0.063,-0.063,-0.064,-0.064,-0.066,-0.067,-0.068,-0.07,-0.069,-0.069,-0.065,-0.06,-0.051,-0.040999999999999995,-0.023,-0.006,0.019,0.043,0.07200000000000001,0.10099999999999999,0.133,0.165,0.19899999999999998,0.23399999999999999,0.273,0.312,0.359,0.405,0.45299999999999996,0.5,0.535,0.5710000000000001,0.58,0.59,0.568,0.545,0.498,0.45,0.395,0.34,0.293,0.24600000000000002,0.21600000000000003,0.187,0.175,0.163,0.16399999999999998,0.165,0.168,0.171,0.16699999999999998,0.162,0.14400000000000002,0.125,0.09699999999999999,0.068,0.038,0.008,-0.015,-0.038,-0.049,-0.059000000000000004,-0.06,-0.06,-0.057,-0.053,-0.05,-0.047,-0.049,-0.051,-0.057,-0.062,-0.069,-0.076,-0.081,-0.086,-0.08900000000000001,-0.092,-0.092,-0.092,-0.091,-0.08900000000000001,-0.086,-0.083,-0.08,-0.077,-0.075,-0.073,-0.071,-0.07,-0.07,-0.07,-0.07,-0.07,-0.069,-0.069,-0.068,-0.067,-0.066,-0.065,-0.064,-0.063,-0.061,-0.057999999999999996,-0.055999999999999994,-0.053,-0.05,-0.047,-0.045,-0.042,-0.04,-0.038,-0.037000000000000005,-0.036000000000000004,-0.034,-0.032,-0.028999999999999998,-0.027000000000000003,-0.024,-0.022000000000000002,-0.021,-0.019,-0.019,-0.018000000000000002,-0.017,-0.016,-0.015,-0.013999999999999999,-0.011000000000000001,-0.009000000000000001,-0.006,-0.004,-0.001,0.002,0.005,0.008,0.01,0.012,0.015,0.018000000000000002,0.021,0.023,0.025,0.027999999999999997,0.03,0.032,0.032,0.032,0.032,0.032,0.033,0.034,0.034,0.035,0.037000000000000005,0.038,0.039,0.039,0.04,0.040999999999999995,0.042,0.042,0.043,0.043,0.045,0.046,0.047,0.048,0.049,0.05,0.049,0.048,0.045,0.043,0.039,0.035,0.032,0.028999999999999998,0.026000000000000002,0.024,0.022000000000000002,0.02,0.018000000000000002,0.016,0.013999999999999999,0.012,0.011000000000000001,0.011000000000000001,0.01,0.009000000000000001,0.008,0.008,0.006999999999999999,0.006,0.006,0.006999999999999999,0.006999999999999999,0.006999999999999999,0.006999999999999999,0.006999999999999999,0.006999999999999999,0.008,0.009000000000000001,0.011000000000000001,0.012,0.013000000000000001,0.013999999999999999,0.013999999999999999,0.013000000000000001,0.012,0.011000000000000001,0.01,0.008,0.006,0.004,0.002,0.0,-0.001,-0.003,-0.005,-0.006,-0.008,-0.009000000000000001,-0.011000000000000001,-0.011000000000000001,-0.012,-0.015,-0.018000000000000002,-0.021,-0.023,-0.026000000000000002,-0.03,-0.033,-0.035,-0.037000000000000005,-0.039,-0.039,-0.039,-0.039,-0.038,-0.038,-0.037000000000000005,-0.036000000000000004,-0.035,-0.035,-0.034,-0.033,-0.032,-0.03,-0.027999999999999997,-0.026000000000000002,-0.024,-0.022000000000000002,-0.02,-0.019,-0.017,-0.016,-0.013999999999999999,-0.013999999999999999,-0.013000000000000001,-0.013999999999999999,-0.013999999999999999,-0.013999999999999999,-0.013999999999999999,-0.013999999999999999,-0.013000000000000001,-0.012,-0.011000000000000001,-0.011000000000000001,-0.011000000000000001,-0.013000000000000001,-0.013999999999999999,-0.016,-0.018000000000000002,-0.02,-0.021,-0.021,-0.021,-0.019,-0.017,-0.015,-0.013000000000000001,-0.011000000000000001,-0.01,-0.009000000000000001,-0.008,-0.006999999999999999,-0.006999999999999999,-0.006999999999999999,-0.008,-0.009000000000000001,-0.01,-0.008,-0.006999999999999999,-0.005,-0.003,-0.002,-0.001,-0.0,0.0,0.0,0.001,0.002,0.003,0.003,0.003,0.003,0.003,0.003,0.003,0.003,0.004,0.004,0.005,0.005,0.006,0.006,0.006,0.006,0.006999999999999999,0.006,0.006,0.005,0.004,0.003,0.003,0.003,0.004,0.005,0.006,0.006999999999999999,0.008,0.006999999999999999,0.006999999999999999,0.006999999999999999,0.006999999999999999,0.006999999999999999,0.006999999999999999,0.006999999999999999,0.008,0.009000000000000001,0.01,0.011000000000000001,0.011000000000000001,0.013000000000000001,0.013999999999999999,0.017,0.02,0.026000000000000002,0.032,0.04,0.049,0.059000000000000004,0.07,0.081,0.092,0.10099999999999999,0.11,0.11599999999999999,0.122,0.124,0.126,0.127,0.127,0.129,0.13,0.132,0.134,0.13699999999999998,0.14,0.142,0.14400000000000002,0.14300000000000002,0.142,0.138,0.134,0.128,0.12300000000000001,0.115,0.107,0.098,0.08900000000000001,0.08,0.07200000000000001,0.064,0.057,0.049,0.042,0.034,0.027000000000000003,0.018000000000000002,0.01,-0.001,-0.011000000000000001,-0.022000000000000002,-0.033,-0.04,-0.048,-0.054000000000000006,-0.059000000000000004,-0.063,-0.067,-0.069,-0.07200000000000001,-0.073,-0.07400000000000001,-0.07400000000000001,-0.075,-0.07400000000000001,-0.07400000000000001,-0.073,-0.073,-0.07200000000000001,-0.071,-0.07,-0.07,-0.07,-0.07,-0.069,-0.068,-0.065,-0.061,-0.055,-0.049,-0.036000000000000004,-0.023,-0.003,0.017,0.045,0.07400000000000001,0.10800000000000001,0.142,0.18100000000000002,0.22,0.267,0.314,0.37,0.425,0.484,0.5429999999999999,0.591,0.638,0.6559999999999999,0.674,0.6559999999999999,0.637,0.589,0.541,0.478,0.415,0.355,0.29600000000000004,0.253,0.21,0.185,0.161,0.15,0.14,0.134,0.127,0.113,0.098,0.07,0.042,0.006,-0.03,-0.063,-0.09699999999999999,-0.11800000000000001,-0.139,-0.14300000000000002,-0.14800000000000002,-0.14,-0.132,-0.12300000000000001,-0.113,-0.107,-0.102,-0.102,-0.102,-0.106,-0.109,-0.114,-0.11800000000000001,-0.12,-0.12300000000000001,-0.12300000000000001,-0.124,-0.12300000000000001,-0.122,-0.12,-0.11900000000000001,-0.11699999999999999,-0.115,-0.111,-0.107,-0.10300000000000001,-0.1,-0.096,-0.09300000000000001,-0.09,-0.087,-0.085,-0.083,-0.08199999999999999,-0.081,-0.08,-0.08,-0.079,-0.078,-0.077,-0.076,-0.073,-0.07,-0.068,-0.065,-0.062,-0.059000000000000004,-0.057,-0.054000000000000006,-0.051,-0.049,-0.046,-0.044000000000000004,-0.044000000000000004,-0.043,-0.044000000000000004,-0.045,-0.046,-0.047,-0.048,-0.049,-0.048,-0.048,-0.045,-0.043,-0.04,-0.036000000000000004,-0.034,-0.031,-0.027000000000000003,-0.024,-0.02,-0.016,-0.012,-0.009000000000000001,-0.005,-0.002,0.001,0.004,0.006,0.008,0.01,0.011000000000000001,0.013000000000000001,0.013999999999999999,0.016,0.017,0.018000000000000002,0.019,0.02,0.02,0.022000000000000002,0.023,0.025,0.027000000000000003,0.027999999999999997,0.028999999999999998,0.027999999999999997,0.027000000000000003,0.025,0.024,0.022000000000000002,0.02,0.019,0.018000000000000002,0.018000000000000002,0.018000000000000002,0.018000000000000002,0.018000000000000002,0.018000000000000002,0.017,0.017,0.016,0.015,0.013000000000000001,0.012,0.011000000000000001,0.01,0.009000000000000001,0.008,0.006999999999999999,0.004,0.002,0.0,-0.002,-0.005,-0.008,-0.01,-0.011000000000000001,-0.012,-0.012,-0.013000000000000001,-0.013000000000000001,-0.013999999999999999,-0.015,-0.016,-0.017,-0.018000000000000002,-0.018000000000000002,-0.018000000000000002,-0.018000000000000002,-0.017,-0.016,-0.013999999999999999,-0.012,-0.011000000000000001,-0.009000000000000001,-0.008,-0.008,-0.006999999999999999,-0.006999999999999999,-0.006999999999999999,-0.008,-0.01,-0.011000000000000001,-0.013000000000000001,-0.013999999999999999,-0.015,-0.015,-0.017,-0.019,-0.022000000000000002,-0.025,-0.027999999999999997,-0.032,-0.035,-0.039,-0.043,-0.047,-0.048,-0.05,-0.05,-0.05,-0.05,-0.05,-0.051,-0.052000000000000005,N
3,0.09699999999999999,0.068,0.038,0.008,-0.015,-0.038,-0.049,-0.059000000000000004,-0.06,-0.06,-0.057,-0.053,-0.05,-0.047,-0.049,-0.051,-0.057,-0.062,-0.069,-0.076,-0.081,-0.086,-0.08900000000000001,-0.092,-0.092,-0.092,-0.091,-0.08900000000000001,-0.086,-0.083,-0.08,-0.077,-0.075,-0.073,-0.071,-0.07,-0.07,-0.07,-0.07,-0.07,-0.069,-0.069,-0.068,-0.067,-0.066,-0.065,-0.064,-0.063,-0.061,-0.057999999999999996,-0.055999999999999994,-0.053,-0.05,-0.047,-0.045,-0.042,-0.04,-0.038,-0.037000000000000005,-0.036000000000000004,-0.034,-0.032,-0.028999999999999998,-0.027000000000000003,-0.024,-0.022000000000000002,-0.021,-0.019,-0.019,-0.018000000000000002,-0.017,-0.016,-0.015,-0.013999999999999999,-0.011000000000000001,-0.009000000000000001,-0.006,-0.004,-0.001,0.002,0.005,0.008,0.01,0.012,0.015,0.018000000000000002,0.021,0.023,0.025,0.027999999999999997,0.03,0.032,0.032,0.032,0.032,0.032,0.033,0.034,0.034,0.035,0.037000000000000005,0.038,0.039,0.039,0.04,0.040999999999999995,0.042,0.042,0.043,0.043,0.045,0.046,0.047,0.048,0.049,0.05,0.049,0.048,0.045,0.043,0.039,0.035,0.032,0.028999999999999998,0.026000000000000002,0.024,0.022000000000000002,0.02,0.018000000000000002,0.016,0.013999999999999999,0.012,0.011000000000000001,0.011000000000000001,0.01,0.009000000000000001,0.008,0.008,0.006999999999999999,0.006,0.006,0.006999999999999999,0.006999999999999999,0.006999999999999999,0.006999999999999999,0.006999999999999999,0.006999999999999999,0.008,0.009000000000000001,0.011000000000000001,0.012,0.013000000000000001,0.013999999999999999,0.013999999999999999,0.013000000000000001,0.012,0.011000000000000001,0.01,0.008,0.006,0.004,0.002,0.0,-0.001,-0.003,-0.005,-0.006,-0.008,-0.009000000000000001,-0.011000000000000001,-0.011000000000000001,-0.012,-0.015,-0.018000000000000002,-0.021,-0.023,-0.026000000000000002,-0.03,-0.033,-0.035,-0.037000000000000005,-0.039,-0.039,-0.039,-0.039,-0.038,-0.038,-0.037000000000000005,-0.036000000000000004,-0.035,-0.035,-0.034,-0.033,-0.032,-0.03,-0.027999999999999997,-0.026000000000000002,-0.024,-0.022000000000000002,-0.02,-0.019,-0.017,-0.016,-0.013999999999999999,-0.013999999999999999,-0.013000000000000001,-0.013999999999999999,-0.013999999999999999,-0.013999999999999999,-0.013999999999999999,-0.013999999999999999,-0.013000000000000001,-0.012,-0.011000000000000001,-0.011000000000000001,-0.011000000000000001,-0.013000000000000001,-0.013999999999999999,-0.016,-0.018000000000000002,-0.02,-0.021,-0.021,-0.021,-0.019,-0.017,-0.015,-0.013000000000000001,-0.011000000000000001,-0.01,-0.009000000000000001,-0.008,-0.006999999999999999,-0.006999999999999999,-0.006999999999999999,-0.008,-0.009000000000000001,-0.01,-0.008,-0.006999999999999999,-0.005,-0.003,-0.002,-0.001,-0.0,0.0,0.0,0.001,0.002,0.003,0.003,0.003,0.003,0.003,0.003,0.003,0.003,0.004,0.004,0.005,0.005,0.006,0.006,0.006,0.006,0.006999999999999999,0.006,0.006,0.005,0.004,0.003,0.003,0.003,0.004,0.005,0.006,0.006999999999999999,0.008,0.006999999999999999,0.006999999999999999,0.006999999999999999,0.006999999999999999,0.006999999999999999,0.006999999999999999,0.006999999999999999,0.008,0.009000000000000001,0.01,0.011000000000000001,0.011000000000000001,0.013000000000000001,0.013999999999999999,0.017,0.02,0.026000000000000002,0.032,0.04,0.049,0.059000000000000004,0.07,0.081,0.092,0.10099999999999999,0.11,0.11599999999999999,0.122,0.124,0.126,0.127,0.127,0.129,0.13,0.132,0.134,0.13699999999999998,0.14,0.142,0.14400000000000002,0.14300000000000002,0.142,0.138,0.134,0.128,0.12300000000000001,0.115,0.107,0.098,0.08900000000000001,0.08,0.07200000000000001,0.064,0.057,0.049,0.042,0.034,0.027000000000000003,0.018000000000000002,0.01,-0.001,-0.011000000000000001,-0.022000000000000002,-0.033,-0.04,-0.048,-0.054000000000000006,-0.059000000000000004,-0.063,-0.067,-0.069,-0.07200000000000001,-0.073,-0.07400000000000001,-0.07400000000000001,-0.075,-0.07400000000000001,-0.07400000000000001,-0.073,-0.073,-0.07200000000000001,-0.071,-0.07,-0.07,-0.07,-0.07,-0.069,-0.068,-0.065,-0.061,-0.055,-0.049,-0.036000000000000004,-0.023,-0.003,0.017,0.045,0.07400000000000001,0.10800000000000001,0.142,0.18100000000000002,0.22,0.267,0.314,0.37,0.425,0.484,0.5429999999999999,0.591,0.638,0.6559999999999999,0.674,0.6559999999999999,0.637,0.589,0.541,0.478,0.415,0.355,0.29600000000000004,0.253,0.21,0.185,0.161,0.15,0.14,0.134,0.127,0.113,0.098,0.07,0.042,0.006,-0.03,-0.063,-0.09699999999999999,-0.11800000000000001,-0.139,-0.14300000000000002,-0.14800000000000002,-0.14,-0.132,-0.12300000000000001,-0.113,-0.107,-0.102,-0.102,-0.102,-0.106,-0.109,-0.114,-0.11800000000000001,-0.12,-0.12300000000000001,-0.12300000000000001,-0.124,-0.12300000000000001,-0.122,-0.12,-0.11900000000000001,-0.11699999999999999,-0.115,-0.111,-0.107,-0.10300000000000001,-0.1,-0.096,-0.09300000000000001,-0.09,-0.087,-0.085,-0.083,-0.08199999999999999,-0.081,-0.08,-0.08,-0.079,-0.078,-0.077,-0.076,-0.073,-0.07,-0.068,-0.065,-0.062,-0.059000000000000004,-0.057,-0.054000000000000006,-0.051,-0.049,-0.046,-0.044000000000000004,-0.044000000000000004,-0.043,-0.044000000000000004,-0.045,-0.046,-0.047,-0.048,-0.049,-0.048,-0.048,-0.045,-0.043,-0.04,-0.036000000000000004,-0.034,-0.031,-0.027000000000000003,-0.024,-0.02,-0.016,-0.012,-0.009000000000000001,-0.005,-0.002,0.001,0.004,0.006,0.008,0.01,0.011000000000000001,0.013000000000000001,0.013999999999999999,0.016,0.017,0.018000000000000002,0.019,0.02,0.02,0.022000000000000002,0.023,0.025,0.027000000000000003,0.027999999999999997,0.028999999999999998,0.027999999999999997,0.027000000000000003,0.025,0.024,0.022000000000000002,0.02,0.019,0.018000000000000002,0.018000000000000002,0.018000000000000002,0.018000000000000002,0.018000000000000002,0.018000000000000002,0.017,0.017,0.016,0.015,0.013000000000000001,0.012,0.011000000000000001,0.01,0.009000000000000001,0.008,0.006999999999999999,0.004,0.002,0.0,-0.002,-0.005,-0.008,-0.01,-0.011000000000000001,-0.012,-0.012,-0.013000000000000001,-0.013000000000000001,-0.013999999999999999,-0.015,-0.016,-0.017,-0.018000000000000002,-0.018000000000000002,-0.018000000000000002,-0.018000000000000002,-0.017,-0.016,-0.013999999999999999,-0.012,-0.011000000000000001,-0.009000000000000001,-0.008,-0.008,-0.006999999999999999,-0.006999999999999999,-0.006999999999999999,-0.008,-0.01,-0.011000000000000001,-0.013000000000000001,-0.013999999999999999,-0.015,-0.015,-0.017,-0.019,-0.022000000000000002,-0.025,-0.027999999999999997,-0.032,-0.035,-0.039,-0.043,-0.047,-0.048,-0.05,-0.05,-0.05,-0.05,-0.05,-0.051,-0.052000000000000005,-0.053,-0.054000000000000006,-0.055,-0.057,-0.057,-0.057,-0.055999999999999994,-0.055999999999999994,-0.054000000000000006,-0.053,-0.051,-0.05,-0.049,-0.049,-0.049,-0.049,-0.05,-0.051,-0.052000000000000005,-0.053,-0.053,-0.054000000000000006,-0.055,-0.055999999999999994,-0.054000000000000006,-0.053,-0.051,-0.049,-0.047,-0.046,-0.045,-0.045,-0.044000000000000004,-0.042,-0.042,-0.040999999999999995,-0.04,-0.038,-0.036000000000000004,-0.034,-0.033,-0.031,-0.03,-0.03,-0.03,-0.031,-0.032,-0.034,-0.034,-0.034,-0.035,-0.035,-0.035,-0.034,-0.034,-0.033,-0.032,-0.031,-0.028999999999999998,-0.027999999999999997,-0.026000000000000002,-0.024,-0.023,-0.021,-0.021,-0.021,-0.021,-0.021,-0.021,-0.021,-0.022000000000000002,-0.022000000000000002,-0.023,-0.023,-0.023,-0.023,-0.022000000000000002,-0.02,-0.019,-0.017,-0.016,-0.013999999999999999,-0.013999999999999999,-0.013000000000000001,-0.013999999999999999,-0.013999999999999999,-0.013999999999999999,-0.013999999999999999,-0.013999999999999999,-0.013999999999999999,-0.013999999999999999,-0.013000000000000001,-0.012,-0.011000000000000001,-0.011000000000000001,-0.011000000000000001,-0.011000000000000001,-0.011000000000000001,-0.011000000000000001,-0.011000000000000001,-0.011000000000000001,-0.011000000000000001,-0.011000000000000001,-0.011000000000000001,-0.011000000000000001,-0.011000000000000001,-0.01,-0.01,-0.006999999999999999,-0.005,0.0,0.006,0.013999999999999999,0.023,0.034,0.045,0.057,0.069,0.08,0.09,0.09699999999999999,0.10400000000000001,0.107,0.11,0.111,0.11199999999999999,0.113,0.113,0.114,0.115,0.115,0.11599999999999999,0.115,0.115,0.113,0.111,0.109,0.107,0.106,0.10400000000000001,0.102,0.099,0.094,0.08900000000000001,0.083,0.078,0.07,0.062,0.053,0.044000000000000004,0.034,0.024,0.015,0.006999999999999999,-0.001,-0.009000000000000001,-0.016,-0.024,-0.031,-0.038,-0.045,-0.051,-0.055,-0.057999999999999996,-0.061,-0.064,-0.066,-0.067,-0.068,-0.068,-0.069,-0.07,-0.071,-0.07200000000000001,-0.073,-0.07400000000000001,-0.076,-0.079,-0.08,-0.08,-0.08,-0.08,-0.077,-0.073,-0.064,-0.055,-0.039,-0.023,-0.001,0.021,0.048,0.076,0.105,0.135,0.16699999999999998,0.198,0.23399999999999999,0.27,0.313,0.35600000000000004,0.402,0.44799999999999995,0.486,0.523,0.537,0.552,0.534,0.517,0.474,0.43,0.375,0.32,0.271,0.222,0.192,0.161,0.149,0.138,0.141,0.14400000000000002,0.151,0.159,0.162,0.165,0.155,0.146,0.124,0.102,0.073,0.045,0.019,-0.008,-0.024,-0.04,-0.045,-0.051,-0.05,-0.049,-0.046,-0.043,-0.044000000000000004,-0.044000000000000004,-0.05,-0.055999999999999994,-0.065,-0.07400000000000001,-0.08199999999999999,-0.091,-0.09699999999999999,-0.10300000000000001,-0.10800000000000001,-0.11199999999999999,-0.114,-0.11599999999999999,-0.11599999999999999,-0.11699999999999999,-0.115,-0.114,-0.11199999999999999,-0.109,-0.106,-0.10300000000000001,-0.10099999999999999,-0.098,-0.095,-0.09300000000000001,-0.091,-0.08800000000000001,-0.085,-0.08199999999999999,-0.08,-0.077,-0.075,-0.07400000000000001,-0.073,-0.07200000000000001,-0.071,-0.07,-0.068,-0.066,-0.064,-0.062,-0.06,-0.057999999999999996,-0.055999999999999994,-0.053,-0.05,-0.047,-0.045,-0.042,-0.04,-0.038,-0.039,-0.039,-0.040999999999999995,-0.042,-0.044000000000000004,-0.046,-0.046,-0.046,-0.045,-0.045,-0.043,-0.040999999999999995,-0.04,-0.038,-0.036000000000000004,-0.034,-0.03,-0.027000000000000003,-0.023,-0.019,-0.013999999999999999,-0.01,-0.006,-0.003,-0.001,0.0,-0.0,-0.001,-0.003,-0.005,-0.006999999999999999,-0.01,-0.011000000000000001,-0.012,-0.013000000000000001,-0.013999999999999999,-0.013999999999999999,-0.013999999999999999,-0.013999999999999999,-0.013000000000000001,-0.012,-0.011000000000000001,-0.009000000000000001,-0.008,-0.006999999999999999,-0.006999999999999999,-0.006999999999999999,-0.006999999999999999,-0.006999999999999999,-0.008,-0.008,-0.008,-0.006999999999999999,-0.006999999999999999,-0.006999999999999999,-0.006999999999999999,-0.008,-0.009000000000000001,-0.01,-0.011000000000000001,-0.011000000000000001,-0.012,-0.015,-0.018000000000000002,-0.02,-0.022000000000000002,-0.023,-0.025,-0.025,-0.026000000000000002,-0.025,-0.025,-0.025,-0.025,-0.025,-0.025,-0.024,-0.024,-0.022000000000000002,-0.02,-0.017,-0.013000000000000001,-0.009000000000000001,-0.005,-0.001,0.003,0.006,0.01,0.011000000000000001,0.013000000000000001,0.013999999999999999,0.013999999999999999,0.013000000000000001,0.011000000000000001,0.009000000000000001,0.006,0.001,-0.003,-0.006999999999999999,-0.011000000000000001,-0.016,-0.02,-0.023,-0.026000000000000002,-0.027000000000000003,-0.028999999999999998,-0.028999999999999998,-0.028999999999999998,-0.028999999999999998,-0.028999999999999998,-0.028999999999999998,-0.03,-0.031,-0.033,N
4,0.006,-0.03,-0.063,-0.09699999999999999,-0.11800000000000001,-0.139,-0.14300000000000002,-0.14800000000000002,-0.14,-0.132,-0.12300000000000001,-0.113,-0.107,-0.102,-0.102,-0.102,-0.106,-0.109,-0.114,-0.11800000000000001,-0.12,-0.12300000000000001,-0.12300000000000001,-0.124,-0.12300000000000001,-0.122,-0.12,-0.11900000000000001,-0.11699999999999999,-0.115,-0.111,-0.107,-0.10300000000000001,-0.1,-0.096,-0.09300000000000001,-0.09,-0.087,-0.085,-0.083,-0.08199999999999999,-0.081,-0.08,-0.08,-0.079,-0.078,-0.077,-0.076,-0.073,-0.07,-0.068,-0.065,-0.062,-0.059000000000000004,-0.057,-0.054000000000000006,-0.051,-0.049,-0.046,-0.044000000000000004,-0.044000000000000004,-0.043,-0.044000000000000004,-0.045,-0.046,-0.047,-0.048,-0.049,-0.048,-0.048,-0.045,-0.043,-0.04,-0.036000000000000004,-0.034,-0.031,-0.027000000000000003,-0.024,-0.02,-0.016,-0.012,-0.009000000000000001,-0.005,-0.002,0.001,0.004,0.006,0.008,0.01,0.011000000000000001,0.013000000000000001,0.013999999999999999,0.016,0.017,0.018000000000000002,0.019,0.02,0.02,0.022000000000000002,0.023,0.025,0.027000000000000003,0.027999999999999997,0.028999999999999998,0.027999999999999997,0.027000000000000003,0.025,0.024,0.022000000000000002,0.02,0.019,0.018000000000000002,0.018000000000000002,0.018000000000000002,0.018000000000000002,0.018000000000000002,0.018000000000000002,0.017,0.017,0.016,0.015,0.013000000000000001,0.012,0.011000000000000001,0.01,0.009000000000000001,0.008,0.006999999999999999,0.004,0.002,0.0,-0.002,-0.005,-0.008,-0.01,-0.011000000000000001,-0.012,-0.012,-0.013000000000000001,-0.013000000000000001,-0.013999999999999999,-0.015,-0.016,-0.017,-0.018000000000000002,-0.018000000000000002,-0.018000000000000002,-0.018000000000000002,-0.017,-0.016,-0.013999999999999999,-0.012,-0.011000000000000001,-0.009000000000000001,-0.008,-0.008,-0.006999999999999999,-0.006999999999999999,-0.006999999999999999,-0.008,-0.01,-0.011000000000000001,-0.013000000000000001,-0.013999999999999999,-0.015,-0.015,-0.017,-0.019,-0.022000000000000002,-0.025,-0.027999999999999997,-0.032,-0.035,-0.039,-0.043,-0.047,-0.048,-0.05,-0.05,-0.05,-0.05,-0.05,-0.051,-0.052000000000000005,-0.053,-0.054000000000000006,-0.055,-0.057,-0.057,-0.057,-0.055999999999999994,-0.055999999999999994,-0.054000000000000006,-0.053,-0.051,-0.05,-0.049,-0.049,-0.049,-0.049,-0.05,-0.051,-0.052000000000000005,-0.053,-0.053,-0.054000000000000006,-0.055,-0.055999999999999994,-0.054000000000000006,-0.053,-0.051,-0.049,-0.047,-0.046,-0.045,-0.045,-0.044000000000000004,-0.042,-0.042,-0.040999999999999995,-0.04,-0.038,-0.036000000000000004,-0.034,-0.033,-0.031,-0.03,-0.03,-0.03,-0.031,-0.032,-0.034,-0.034,-0.034,-0.035,-0.035,-0.035,-0.034,-0.034,-0.033,-0.032,-0.031,-0.028999999999999998,-0.027999999999999997,-0.026000000000000002,-0.024,-0.023,-0.021,-0.021,-0.021,-0.021,-0.021,-0.021,-0.021,-0.022000000000000002,-0.022000000000000002,-0.023,-0.023,-0.023,-0.023,-0.022000000000000002,-0.02,-0.019,-0.017,-0.016,-0.013999999999999999,-0.013999999999999999,-0.013000000000000001,-0.013999999999999999,-0.013999999999999999,-0.013999999999999999,-0.013999999999999999,-0.013999999999999999,-0.013999999999999999,-0.013999999999999999,-0.013000000000000001,-0.012,-0.011000000000000001,-0.011000000000000001,-0.011000000000000001,-0.011000000000000001,-0.011000000000000001,-0.011000000000000001,-0.011000000000000001,-0.011000000000000001,-0.011000000000000001,-0.011000000000000001,-0.011000000000000001,-0.011000000000000001,-0.011000000000000001,-0.01,-0.01,-0.006999999999999999,-0.005,0.0,0.006,0.013999999999999999,0.023,0.034,0.045,0.057,0.069,0.08,0.09,0.09699999999999999,0.10400000000000001,0.107,0.11,0.111,0.11199999999999999,0.113,0.113,0.114,0.115,0.115,0.11599999999999999,0.115,0.115,0.113,0.111,0.109,0.107,0.106,0.10400000000000001,0.102,0.099,0.094,0.08900000000000001,0.083,0.078,0.07,0.062,0.053,0.044000000000000004,0.034,0.024,0.015,0.006999999999999999,-0.001,-0.009000000000000001,-0.016,-0.024,-0.031,-0.038,-0.045,-0.051,-0.055,-0.057999999999999996,-0.061,-0.064,-0.066,-0.067,-0.068,-0.068,-0.069,-0.07,-0.071,-0.07200000000000001,-0.073,-0.07400000000000001,-0.076,-0.079,-0.08,-0.08,-0.08,-0.08,-0.077,-0.073,-0.064,-0.055,-0.039,-0.023,-0.001,0.021,0.048,0.076,0.105,0.135,0.16699999999999998,0.198,0.23399999999999999,0.27,0.313,0.35600000000000004,0.402,0.44799999999999995,0.486,0.523,0.537,0.552,0.534,0.517,0.474,0.43,0.375,0.32,0.271,0.222,0.192,0.161,0.149,0.138,0.141,0.14400000000000002,0.151,0.159,0.162,0.165,0.155,0.146,0.124,0.102,0.073,0.045,0.019,-0.008,-0.024,-0.04,-0.045,-0.051,-0.05,-0.049,-0.046,-0.043,-0.044000000000000004,-0.044000000000000004,-0.05,-0.055999999999999994,-0.065,-0.07400000000000001,-0.08199999999999999,-0.091,-0.09699999999999999,-0.10300000000000001,-0.10800000000000001,-0.11199999999999999,-0.114,-0.11599999999999999,-0.11599999999999999,-0.11699999999999999,-0.115,-0.114,-0.11199999999999999,-0.109,-0.106,-0.10300000000000001,-0.10099999999999999,-0.098,-0.095,-0.09300000000000001,-0.091,-0.08800000000000001,-0.085,-0.08199999999999999,-0.08,-0.077,-0.075,-0.07400000000000001,-0.073,-0.07200000000000001,-0.071,-0.07,-0.068,-0.066,-0.064,-0.062,-0.06,-0.057999999999999996,-0.055999999999999994,-0.053,-0.05,-0.047,-0.045,-0.042,-0.04,-0.038,-0.039,-0.039,-0.040999999999999995,-0.042,-0.044000000000000004,-0.046,-0.046,-0.046,-0.045,-0.045,-0.043,-0.040999999999999995,-0.04,-0.038,-0.036000000000000004,-0.034,-0.03,-0.027000000000000003,-0.023,-0.019,-0.013999999999999999,-0.01,-0.006,-0.003,-0.001,0.0,-0.0,-0.001,-0.003,-0.005,-0.006999999999999999,-0.01,-0.011000000000000001,-0.012,-0.013000000000000001,-0.013999999999999999,-0.013999999999999999,-0.013999999999999999,-0.013999999999999999,-0.013000000000000001,-0.012,-0.011000000000000001,-0.009000000000000001,-0.008,-0.006999999999999999,-0.006999999999999999,-0.006999999999999999,-0.006999999999999999,-0.006999999999999999,-0.008,-0.008,-0.008,-0.006999999999999999,-0.006999999999999999,-0.006999999999999999,-0.006999999999999999,-0.008,-0.009000000000000001,-0.01,-0.011000000000000001,-0.011000000000000001,-0.012,-0.015,-0.018000000000000002,-0.02,-0.022000000000000002,-0.023,-0.025,-0.025,-0.026000000000000002,-0.025,-0.025,-0.025,-0.025,-0.025,-0.025,-0.024,-0.024,-0.022000000000000002,-0.02,-0.017,-0.013000000000000001,-0.009000000000000001,-0.005,-0.001,0.003,0.006,0.01,0.011000000000000001,0.013000000000000001,0.013999999999999999,0.013999999999999999,0.013000000000000001,0.011000000000000001,0.009000000000000001,0.006,0.001,-0.003,-0.006999999999999999,-0.011000000000000001,-0.016,-0.02,-0.023,-0.026000000000000002,-0.027000000000000003,-0.028999999999999998,-0.028999999999999998,-0.028999999999999998,-0.028999999999999998,-0.028999999999999998,-0.028999999999999998,-0.03,-0.031,-0.033,-0.034,-0.036000000000000004,-0.038,-0.039,-0.040999999999999995,-0.043,-0.045,-0.046,-0.046,-0.046,-0.046,-0.047,-0.048,-0.049,-0.049,-0.05,-0.049,-0.049,-0.046,-0.044000000000000004,-0.040999999999999995,-0.037000000000000005,-0.034,-0.032,-0.03,-0.027999999999999997,-0.026000000000000002,-0.025,-0.024,-0.024,-0.024,-0.025,-0.024,-0.024,-0.023,-0.022000000000000002,-0.021,-0.02,-0.019,-0.018000000000000002,-0.017,-0.016,-0.016,-0.015,-0.013999999999999999,-0.013000000000000001,-0.012,-0.011000000000000001,-0.011000000000000001,-0.011000000000000001,-0.011000000000000001,-0.011000000000000001,-0.01,-0.01,-0.008,-0.006999999999999999,-0.005,-0.003,-0.001,0.0,0.001,0.003,0.003,0.003,0.0,-0.002,-0.005,-0.008,-0.01,-0.011000000000000001,-0.011000000000000001,-0.011000000000000001,-0.009000000000000001,-0.006999999999999999,-0.005,-0.003,-0.002,-0.001,-0.001,-0.001,-0.002,-0.004,-0.006,-0.008,-0.009000000000000001,-0.011000000000000001,-0.01,-0.01,-0.008,-0.006,-0.003,0.0,0.001,0.003,0.003,0.004,0.003,0.002,0.001,0.0,-0.001,-0.002,-0.002,-0.002,-0.001,0.0,0.002,0.004,0.006999999999999999,0.011000000000000001,0.017,0.023,0.032,0.04,0.051,0.062,0.07200000000000001,0.08199999999999999,0.091,0.099,0.10300000000000001,0.10800000000000001,0.111,0.113,0.115,0.11699999999999999,0.12,0.124,0.127,0.131,0.135,0.139,0.14300000000000002,0.147,0.14800000000000002,0.149,0.14800000000000002,0.146,0.142,0.138,0.132,0.125,0.11800000000000001,0.11,0.102,0.094,0.087,0.08,0.073,0.065,0.057,0.05,0.040999999999999995,0.033,0.024,0.015,0.006,-0.003,-0.011000000000000001,-0.02,-0.027999999999999997,-0.035,-0.040999999999999995,-0.047,-0.051,-0.055,-0.055999999999999994,-0.057,-0.059000000000000004,-0.06,-0.062,-0.064,-0.067,-0.069,-0.071,-0.07400000000000001,-0.07400000000000001,-0.075,-0.07400000000000001,-0.07400000000000001,-0.073,-0.073,-0.071,-0.069,-0.065,-0.06,-0.052000000000000005,-0.044000000000000004,-0.031,-0.017,0.004,0.025,0.052000000000000005,0.08,0.11199999999999999,0.14400000000000002,0.17800000000000002,0.213,0.25,0.28800000000000003,0.331,0.374,0.41600000000000004,0.45899999999999996,0.49,0.522,0.53,0.537,0.516,0.494,0.45,0.406,0.354,0.302,0.257,0.213,0.185,0.158,0.14800000000000002,0.139,0.14300000000000002,0.14800000000000002,0.156,0.165,0.168,0.171,0.163,0.154,0.133,0.11199999999999999,0.084,0.057,0.032,0.006999999999999999,-0.008,-0.022000000000000002,-0.026000000000000002,-0.031,-0.03,-0.028999999999999998,-0.027999999999999997,-0.027000000000000003,-0.031,-0.035,-0.044000000000000004,-0.052000000000000005,-0.062,-0.07200000000000001,-0.081,-0.09,-0.096,-0.102,-0.10400000000000001,-0.106,-0.10800000000000001,-0.109,-0.10800000000000001,-0.107,-0.10400000000000001,-0.102,-0.09699999999999999,-0.09300000000000001,-0.08900000000000001,-0.085,-0.081,-0.077,-0.073,-0.069,-0.068,-0.066,-0.067,-0.067,-0.068,-0.07,-0.071,-0.07200000000000001,-0.07200000000000001,-0.07200000000000001,-0.071,-0.07,-0.068,-0.065,-0.062,-0.057999999999999996,-0.055,-0.052000000000000005,-0.05,-0.048,-0.047,-0.047,-0.047,-0.048,-0.047,-0.046,-0.044000000000000004,-0.042,-0.04,-0.037000000000000005,-0.036000000000000004,-0.035,-0.035,-0.035,-0.035,-0.034,-0.033,-0.032,-0.028999999999999998,-0.027000000000000003,-0.023,-0.02,-0.017,-0.013000000000000001,-0.011000000000000001,-0.01,-0.009000000000000001,-0.008,-0.006999999999999999,-0.006,-0.004,-0.002,0.0,0.003,0.005,0.008,0.009000000000000001,0.011000000000000001,0.011000000000000001,0.011000000000000001,0.01,0.01,0.009000000000000001,0.008,0.006,0.005,0.004,0.004,0.003,0.003,0.003,0.003,0.003,0.003,0.003,0.003,0.003,0.004,0.005,0.006,0.006,0.006999999999999999,0.005,0.003,0.001,-0.001,-0.003,-0.006,-0.008,-0.01,-0.011000000000000001,-0.012,-0.013000000000000001,-0.013999999999999999,-0.013999999999999999,-0.013999999999999999,-0.013999999999999999,-0.013999999999999999,-0.013999999999999999,-0.013000000000000001,-0.012,-0.011000000000000001,-0.009000000000000001,-0.006999999999999999,-0.005,-0.003,-0.001,0.0,0.002,0.004,0.005,0.006999999999999999,0.008,0.009000000000000001,0.009000000000000001,0.01,0.01,0.011000000000000001,0.011000000000000001,0.011000000000000001,0.01,0.01,0.009000000000000001,0.008,0.006,0.005,0.004,0.003,0.0,-0.003,-0.006999999999999999,-0.011000000000000001,-0.013999999999999999,-0.017,-0.02,-0.022000000000000002,-0.023,-0.025,-0.025,-0.026000000000000002,-0.025,-0.024,N
5,0.124,0.102,0.073,0.045,0.019,-0.008,-0.024,-0.04,-0.045,-0.051,-0.05,-0.049,-0.046,-0.043,-0.044000000000000004,-0.044000000000000004,-0.05,-0.055999999999999994,-0.065,-0.07400000000000001,-0.08199999999999999,-0.091,-0.09699999999999999,-0.10300000000000001,-0.10800000000000001,-0.11199999999999999,-0.114,-0.11599999999999999,-0.11599999999999999,-0.11699999999999999,-0.115,-0.114,-0.11199999999999999,-0.109,-0.106,-0.10300000000000001,-0.10099999999999999,-0.098,-0.095,-0.09300000000000001,-0.091,-0.08800000000000001,-0.085,-0.08199999999999999,-0.08,-0.077,-0.075,-0.07400000000000001,-0.073,-0.07200000000000001,-0.071,-0.07,-0.068,-0.066,-0.064,-0.062,-0.06,-0.057999999999999996,-0.055999999999999994,-0.053,-0.05,-0.047,-0.045,-0.042,-0.04,-0.038,-0.039,-0.039,-0.040999999999999995,-0.042,-0.044000000000000004,-0.046,-0.046,-0.046,-0.045,-0.045,-0.043,-0.040999999999999995,-0.04,-0.038,-0.036000000000000004,-0.034,-0.03,-0.027000000000000003,-0.023,-0.019,-0.013999999999999999,-0.01,-0.006,-0.003,-0.001,0.0,-0.0,-0.001,-0.003,-0.005,-0.006999999999999999,-0.01,-0.011000000000000001,-0.012,-0.013000000000000001,-0.013999999999999999,-0.013999999999999999,-0.013999999999999999,-0.013999999999999999,-0.013000000000000001,-0.012,-0.011000000000000001,-0.009000000000000001,-0.008,-0.006999999999999999,-0.006999999999999999,-0.006999999999999999,-0.006999999999999999,-0.006999999999999999,-0.008,-0.008,-0.008,-0.006999999999999999,-0.006999999999999999,-0.006999999999999999,-0.006999999999999999,-0.008,-0.009000000000000001,-0.01,-0.011000000000000001,-0.011000000000000001,-0.012,-0.015,-0.018000000000000002,-0.02,-0.022000000000000002,-0.023,-0.025,-0.025,-0.026000000000000002,-0.025,-0.025,-0.025,-0.025,-0.025,-0.025,-0.024,-0.024,-0.022000000000000002,-0.02,-0.017,-0.013000000000000001,-0.009000000000000001,-0.005,-0.001,0.003,0.006,0.01,0.011000000000000001,0.013000000000000001,0.013999999999999999,0.013999999999999999,0.013000000000000001,0.011000000000000001,0.009000000000000001,0.006,0.001,-0.003,-0.006999999999999999,-0.011000000000000001,-0.016,-0.02,-0.023,-0.026000000000000002,-0.027000000000000003,-0.028999999999999998,-0.028999999999999998,-0.028999999999999998,-0.028999999999999998,-0.028999999999999998,-0.028999999999999998,-0.03,-0.031,-0.033,-0.034,-0.036000000000000004,-0.038,-0.039,-0.040999999999999995,-0.043,-0.045,-0.046,-0.046,-0.046,-0.046,-0.047,-0.048,-0.049,-0.049,-0.05,-0.049,-0.049,-0.046,-0.044000000000000004,-0.040999999999999995,-0.037000000000000005,-0.034,-0.032,-0.03,-0.027999999999999997,-0.026000000000000002,-0.025,-0.024,-0.024,-0.024,-0.025,-0.024,-0.024,-0.023,-0.022000000000000002,-0.021,-0.02,-0.019,-0.018000000000000002,-0.017,-0.016,-0.016,-0.015,-0.013999999999999999,-0.013000000000000001,-0.012,-0.011000000000000001,-0.011000000000000001,-0.011000000000000001,-0.011000000000000001,-0.011000000000000001,-0.01,-0.01,-0.008,-0.006999999999999999,-0.005,-0.003,-0.001,0.0,0.001,0.003,0.003,0.003,0.0,-0.002,-0.005,-0.008,-0.01,-0.011000000000000001,-0.011000000000000001,-0.011000000000000001,-0.009000000000000001,-0.006999999999999999,-0.005,-0.003,-0.002,-0.001,-0.001,-0.001,-0.002,-0.004,-0.006,-0.008,-0.009000000000000001,-0.011000000000000001,-0.01,-0.01,-0.008,-0.006,-0.003,0.0,0.001,0.003,0.003,0.004,0.003,0.002,0.001,0.0,-0.001,-0.002,-0.002,-0.002,-0.001,0.0,0.002,0.004,0.006999999999999999,0.011000000000000001,0.017,0.023,0.032,0.04,0.051,0.062,0.07200000000000001,0.08199999999999999,0.091,0.099,0.10300000000000001,0.10800000000000001,0.111,0.113,0.115,0.11699999999999999,0.12,0.124,0.127,0.131,0.135,0.139,0.14300000000000002,0.147,0.14800000000000002,0.149,0.14800000000000002,0.146,0.142,0.138,0.132,0.125,0.11800000000000001,0.11,0.102,0.094,0.087,0.08,0.073,0.065,0.057,0.05,0.040999999999999995,0.033,0.024,0.015,0.006,-0.003,-0.011000000000000001,-0.02,-0.027999999999999997,-0.035,-0.040999999999999995,-0.047,-0.051,-0.055,-0.055999999999999994,-0.057,-0.059000000000000004,-0.06,-0.062,-0.064,-0.067,-0.069,-0.071,-0.07400000000000001,-0.07400000000000001,-0.075,-0.07400000000000001,-0.07400000000000001,-0.073,-0.073,-0.071,-0.069,-0.065,-0.06,-0.052000000000000005,-0.044000000000000004,-0.031,-0.017,0.004,0.025,0.052000000000000005,0.08,0.11199999999999999,0.14400000000000002,0.17800000000000002,0.213,0.25,0.28800000000000003,0.331,0.374,0.41600000000000004,0.45899999999999996,0.49,0.522,0.53,0.537,0.516,0.494,0.45,0.406,0.354,0.302,0.257,0.213,0.185,0.158,0.14800000000000002,0.139,0.14300000000000002,0.14800000000000002,0.156,0.165,0.168,0.171,0.163,0.154,0.133,0.11199999999999999,0.084,0.057,0.032,0.006999999999999999,-0.008,-0.022000000000000002,-0.026000000000000002,-0.031,-0.03,-0.028999999999999998,-0.027999999999999997,-0.027000000000000003,-0.031,-0.035,-0.044000000000000004,-0.052000000000000005,-0.062,-0.07200000000000001,-0.081,-0.09,-0.096,-0.102,-0.10400000000000001,-0.106,-0.10800000000000001,-0.109,-0.10800000000000001,-0.107,-0.10400000000000001,-0.102,-0.09699999999999999,-0.09300000000000001,-0.08900000000000001,-0.085,-0.081,-0.077,-0.073,-0.069,-0.068,-0.066,-0.067,-0.067,-0.068,-0.07,-0.071,-0.07200000000000001,-0.07200000000000001,-0.07200000000000001,-0.071,-0.07,-0.068,-0.065,-0.062,-0.057999999999999996,-0.055,-0.052000000000000005,-0.05,-0.048,-0.047,-0.047,-0.047,-0.048,-0.047,-0.046,-0.044000000000000004,-0.042,-0.04,-0.037000000000000005,-0.036000000000000004,-0.035,-0.035,-0.035,-0.035,-0.034,-0.033,-0.032,-0.028999999999999998,-0.027000000000000003,-0.023,-0.02,-0.017,-0.013000000000000001,-0.011000000000000001,-0.01,-0.009000000000000001,-0.008,-0.006999999999999999,-0.006,-0.004,-0.002,0.0,0.003,0.005,0.008,0.009000000000000001,0.011000000000000001,0.011000000000000001,0.011000000000000001,0.01,0.01,0.009000000000000001,0.008,0.006,0.005,0.004,0.004,0.003,0.003,0.003,0.003,0.003,0.003,0.003,0.003,0.003,0.004,0.005,0.006,0.006,0.006999999999999999,0.005,0.003,0.001,-0.001,-0.003,-0.006,-0.008,-0.01,-0.011000000000000001,-0.012,-0.013000000000000001,-0.013999999999999999,-0.013999999999999999,-0.013999999999999999,-0.013999999999999999,-0.013999999999999999,-0.013999999999999999,-0.013000000000000001,-0.012,-0.011000000000000001,-0.009000000000000001,-0.006999999999999999,-0.005,-0.003,-0.001,0.0,0.002,0.004,0.005,0.006999999999999999,0.008,0.009000000000000001,0.009000000000000001,0.01,0.01,0.011000000000000001,0.011000000000000001,0.011000000000000001,0.01,0.01,0.009000000000000001,0.008,0.006,0.005,0.004,0.003,0.0,-0.003,-0.006999999999999999,-0.011000000000000001,-0.013999999999999999,-0.017,-0.02,-0.022000000000000002,-0.023,-0.025,-0.025,-0.026000000000000002,-0.025,-0.024,-0.023,-0.022000000000000002,-0.022000000000000002,-0.021,-0.022000000000000002,-0.022000000000000002,-0.024,-0.026000000000000002,-0.028999999999999998,-0.033,-0.034,-0.034,-0.034,-0.033,-0.032,-0.031,-0.028999999999999998,-0.027999999999999997,-0.026000000000000002,-0.025,-0.024,-0.024,-0.024,-0.025,-0.025,-0.025,-0.025,-0.025,-0.024,-0.024,-0.023,-0.021,-0.019,-0.016,-0.013000000000000001,-0.011000000000000001,-0.009000000000000001,-0.006999999999999999,-0.006999999999999999,-0.008,-0.01,-0.012,-0.015,-0.018000000000000002,-0.02,-0.021,-0.021,-0.02,-0.017,-0.013999999999999999,-0.011000000000000001,-0.009000000000000001,-0.006999999999999999,-0.005,-0.004,-0.004,-0.006,-0.008,-0.009000000000000001,-0.011000000000000001,-0.01,-0.01,-0.009000000000000001,-0.008,-0.006999999999999999,-0.006,-0.004,-0.003,-0.001,0.0,0.001,0.003,0.003,0.004,0.003,0.003,0.002,0.002,0.001,0.001,0.001,0.001,0.001,0.001,0.001,0.002,0.003,0.004,0.005,0.006,0.006999999999999999,0.008,0.006999999999999999,0.006999999999999999,0.006999999999999999,0.006999999999999999,0.006999999999999999,0.006999999999999999,0.006999999999999999,0.006999999999999999,0.006999999999999999,0.008,0.009000000000000001,0.011000000000000001,0.013000000000000001,0.015,0.019,0.023,0.03,0.036000000000000004,0.046,0.057,0.067,0.078,0.08900000000000001,0.1,0.10800000000000001,0.11599999999999999,0.12,0.125,0.125,0.126,0.126,0.126,0.128,0.13,0.134,0.13699999999999998,0.139,0.142,0.142,0.14300000000000002,0.141,0.139,0.135,0.131,0.127,0.124,0.11900000000000001,0.115,0.109,0.10300000000000001,0.09699999999999999,0.091,0.084,0.078,0.07,0.062,0.053,0.044000000000000004,0.034,0.023,0.012,0.002,-0.008,-0.018000000000000002,-0.026000000000000002,-0.034,-0.04,-0.046,-0.05,-0.054000000000000006,-0.055999999999999994,-0.057,-0.057999999999999996,-0.059000000000000004,-0.06,-0.061,-0.062,-0.063,-0.063,-0.063,-0.064,-0.064,-0.065,-0.065,-0.065,-0.064,-0.063,-0.062,-0.059000000000000004,-0.057,-0.049,-0.040999999999999995,-0.027000000000000003,-0.012,0.009000000000000001,0.031,0.059000000000000004,0.08800000000000001,0.121,0.154,0.188,0.222,0.257,0.29100000000000004,0.33,0.368,0.40700000000000003,0.446,0.478,0.511,0.522,0.5329999999999999,0.515,0.49700000000000005,0.455,0.41200000000000003,0.36,0.308,0.264,0.21899999999999997,0.191,0.163,0.151,0.14,0.142,0.145,0.153,0.161,0.165,0.16899999999999998,0.16,0.151,0.13,0.10800000000000001,0.081,0.054000000000000006,0.03,0.006,-0.008,-0.021,-0.026000000000000002,-0.031,-0.03,-0.028999999999999998,-0.027000000000000003,-0.026000000000000002,-0.027999999999999997,-0.03,-0.036000000000000004,-0.042,-0.052000000000000005,-0.061,-0.07,-0.08,-0.087,-0.095,-0.1,-0.105,-0.106,-0.107,-0.105,-0.10300000000000001,-0.1,-0.09699999999999999,-0.094,-0.091,-0.08900000000000001,-0.086,-0.084,-0.08199999999999999,-0.08,-0.077,-0.073,-0.07,-0.068,-0.065,-0.064,-0.063,-0.063,-0.062,-0.061,-0.06,-0.06,-0.059000000000000004,-0.06,-0.06,-0.06,-0.06,-0.06,-0.059000000000000004,-0.057999999999999996,-0.057,-0.054000000000000006,-0.052000000000000005,-0.051,-0.05,-0.049,-0.049,-0.048,-0.048,-0.047,-0.047,-0.045,-0.044000000000000004,-0.042,-0.039,-0.038,-0.037000000000000005,-0.036000000000000004,-0.034,-0.033,-0.031,-0.027999999999999997,-0.025,-0.022000000000000002,-0.019,-0.017,-0.013999999999999999,-0.012,-0.01,-0.008,-0.006,-0.003,-0.001,0.0,0.001,0.002,0.004,0.005,0.006999999999999999,0.009000000000000001,0.011000000000000001,0.011000000000000001,0.011000000000000001,0.01,0.01,0.008,0.006999999999999999,0.005,0.003,0.003,0.003,0.003,0.003,0.003,0.003,0.003,0.003,0.003,0.003,0.002,0.002,0.0,-0.001,-0.003,-0.005,-0.006,-0.008,-0.009000000000000001,-0.01,-0.009000000000000001,-0.009000000000000001,-0.01,-0.011000000000000001,-0.012,-0.013000000000000001,-0.013999999999999999,-0.015,-0.013999999999999999,-0.013000000000000001,-0.011000000000000001,-0.01,-0.009000000000000001,-0.008,-0.006999999999999999,-0.006,-0.004,-0.002,0.0,0.003,0.005,0.008,0.009000000000000001,0.011000000000000001,0.011000000000000001,0.011000000000000001,0.011000000000000001,0.011000000000000001,0.01,0.01,0.009000000000000001,0.009000000000000001,0.009000000000000001,0.009000000000000001,0.008,0.008,0.006,0.005,0.004,0.004,0.003,0.002,0.0,-0.001,-0.003,-0.005,-0.006,-0.008,-0.01,-0.011000000000000001,-0.013000000000000001,-0.015,-0.017,-0.018000000000000002,-0.02,-0.022000000000000002,-0.023,-0.025,N
6,0.163,0.154,0.133,0.11199999999999999,0.084,0.057,0.032,0.006999999999999999,-0.008,-0.022000000000000002,-0.026000000000000002,-0.031,-0.03,-0.028999999999999998,-0.027999999999999997,-0.027000000000000003,-0.031,-0.035,-0.044000000000000004,-0.052000000000000005,-0.062,-0.07200000000000001,-0.081,-0.09,-0.096,-0.102,-0.10400000000000001,-0.106,-0.10800000000000001,-0.109,-0.10800000000000001,-0.107,-0.10400000000000001,-0.102,-0.09699999999999999,-0.09300000000000001,-0.08900000000000001,-0.085,-0.081,-0.077,-0.073,-0.069,-0.068,-0.066,-0.067,-0.067,-0.068,-0.07,-0.071,-0.07200000000000001,-0.07200000000000001,-0.07200000000000001,-0.071,-0.07,-0.068,-0.065,-0.062,-0.057999999999999996,-0.055,-0.052000000000000005,-0.05,-0.048,-0.047,-0.047,-0.047,-0.048,-0.047,-0.046,-0.044000000000000004,-0.042,-0.04,-0.037000000000000005,-0.036000000000000004,-0.035,-0.035,-0.035,-0.035,-0.034,-0.033,-0.032,-0.028999999999999998,-0.027000000000000003,-0.023,-0.02,-0.017,-0.013000000000000001,-0.011000000000000001,-0.01,-0.009000000000000001,-0.008,-0.006999999999999999,-0.006,-0.004,-0.002,0.0,0.003,0.005,0.008,0.009000000000000001,0.011000000000000001,0.011000000000000001,0.011000000000000001,0.01,0.01,0.009000000000000001,0.008,0.006,0.005,0.004,0.004,0.003,0.003,0.003,0.003,0.003,0.003,0.003,0.003,0.003,0.004,0.005,0.006,0.006,0.006999999999999999,0.005,0.003,0.001,-0.001,-0.003,-0.006,-0.008,-0.01,-0.011000000000000001,-0.012,-0.013000000000000001,-0.013999999999999999,-0.013999999999999999,-0.013999999999999999,-0.013999999999999999,-0.013999999999999999,-0.013999999999999999,-0.013000000000000001,-0.012,-0.011000000000000001,-0.009000000000000001,-0.006999999999999999,-0.005,-0.003,-0.001,0.0,0.002,0.004,0.005,0.006999999999999999,0.008,0.009000000000000001,0.009000000000000001,0.01,0.01,0.011000000000000001,0.011000000000000001,0.011000000000000001,0.01,0.01,0.009000000000000001,0.008,0.006,0.005,0.004,0.003,0.0,-0.003,-0.006999999999999999,-0.011000000000000001,-0.013999999999999999,-0.017,-0.02,-0.022000000000000002,-0.023,-0.025,-0.025,-0.026000000000000002,-0.025,-0.024,-0.023,-0.022000000000000002,-0.022000000000000002,-0.021,-0.022000000000000002,-0.022000000000000002,-0.024,-0.026000000000000002,-0.028999999999999998,-0.033,-0.034,-0.034,-0.034,-0.033,-0.032,-0.031,-0.028999999999999998,-0.027999999999999997,-0.026000000000000002,-0.025,-0.024,-0.024,-0.024,-0.025,-0.025,-0.025,-0.025,-0.025,-0.024,-0.024,-0.023,-0.021,-0.019,-0.016,-0.013000000000000001,-0.011000000000000001,-0.009000000000000001,-0.006999999999999999,-0.006999999999999999,-0.008,-0.01,-0.012,-0.015,-0.018000000000000002,-0.02,-0.021,-0.021,-0.02,-0.017,-0.013999999999999999,-0.011000000000000001,-0.009000000000000001,-0.006999999999999999,-0.005,-0.004,-0.004,-0.006,-0.008,-0.009000000000000001,-0.011000000000000001,-0.01,-0.01,-0.009000000000000001,-0.008,-0.006999999999999999,-0.006,-0.004,-0.003,-0.001,0.0,0.001,0.003,0.003,0.004,0.003,0.003,0.002,0.002,0.001,0.001,0.001,0.001,0.001,0.001,0.001,0.002,0.003,0.004,0.005,0.006,0.006999999999999999,0.008,0.006999999999999999,0.006999999999999999,0.006999999999999999,0.006999999999999999,0.006999999999999999,0.006999999999999999,0.006999999999999999,0.006999999999999999,0.006999999999999999,0.008,0.009000000000000001,0.011000000000000001,0.013000000000000001,0.015,0.019,0.023,0.03,0.036000000000000004,0.046,0.057,0.067,0.078,0.08900000000000001,0.1,0.10800000000000001,0.11599999999999999,0.12,0.125,0.125,0.126,0.126,0.126,0.128,0.13,0.134,0.13699999999999998,0.139,0.142,0.142,0.14300000000000002,0.141,0.139,0.135,0.131,0.127,0.124,0.11900000000000001,0.115,0.109,0.10300000000000001,0.09699999999999999,0.091,0.084,0.078,0.07,0.062,0.053,0.044000000000000004,0.034,0.023,0.012,0.002,-0.008,-0.018000000000000002,-0.026000000000000002,-0.034,-0.04,-0.046,-0.05,-0.054000000000000006,-0.055999999999999994,-0.057,-0.057999999999999996,-0.059000000000000004,-0.06,-0.061,-0.062,-0.063,-0.063,-0.063,-0.064,-0.064,-0.065,-0.065,-0.065,-0.064,-0.063,-0.062,-0.059000000000000004,-0.057,-0.049,-0.040999999999999995,-0.027000000000000003,-0.012,0.009000000000000001,0.031,0.059000000000000004,0.08800000000000001,0.121,0.154,0.188,0.222,0.257,0.29100000000000004,0.33,0.368,0.40700000000000003,0.446,0.478,0.511,0.522,0.5329999999999999,0.515,0.49700000000000005,0.455,0.41200000000000003,0.36,0.308,0.264,0.21899999999999997,0.191,0.163,0.151,0.14,0.142,0.145,0.153,0.161,0.165,0.16899999999999998,0.16,0.151,0.13,0.10800000000000001,0.081,0.054000000000000006,0.03,0.006,-0.008,-0.021,-0.026000000000000002,-0.031,-0.03,-0.028999999999999998,-0.027000000000000003,-0.026000000000000002,-0.027999999999999997,-0.03,-0.036000000000000004,-0.042,-0.052000000000000005,-0.061,-0.07,-0.08,-0.087,-0.095,-0.1,-0.105,-0.106,-0.107,-0.105,-0.10300000000000001,-0.1,-0.09699999999999999,-0.094,-0.091,-0.08900000000000001,-0.086,-0.084,-0.08199999999999999,-0.08,-0.077,-0.073,-0.07,-0.068,-0.065,-0.064,-0.063,-0.063,-0.062,-0.061,-0.06,-0.06,-0.059000000000000004,-0.06,-0.06,-0.06,-0.06,-0.06,-0.059000000000000004,-0.057999999999999996,-0.057,-0.054000000000000006,-0.052000000000000005,-0.051,-0.05,-0.049,-0.049,-0.048,-0.048,-0.047,-0.047,-0.045,-0.044000000000000004,-0.042,-0.039,-0.038,-0.037000000000000005,-0.036000000000000004,-0.034,-0.033,-0.031,-0.027999999999999997,-0.025,-0.022000000000000002,-0.019,-0.017,-0.013999999999999999,-0.012,-0.01,-0.008,-0.006,-0.003,-0.001,0.0,0.001,0.002,0.004,0.005,0.006999999999999999,0.009000000000000001,0.011000000000000001,0.011000000000000001,0.011000000000000001,0.01,0.01,0.008,0.006999999999999999,0.005,0.003,0.003,0.003,0.003,0.003,0.003,0.003,0.003,0.003,0.003,0.003,0.002,0.002,0.0,-0.001,-0.003,-0.005,-0.006,-0.008,-0.009000000000000001,-0.01,-0.009000000000000001,-0.009000000000000001,-0.01,-0.011000000000000001,-0.012,-0.013000000000000001,-0.013999999999999999,-0.015,-0.013999999999999999,-0.013000000000000001,-0.011000000000000001,-0.01,-0.009000000000000001,-0.008,-0.006999999999999999,-0.006,-0.004,-0.002,0.0,0.003,0.005,0.008,0.009000000000000001,0.011000000000000001,0.011000000000000001,0.011000000000000001,0.011000000000000001,0.011000000000000001,0.01,0.01,0.009000000000000001,0.009000000000000001,0.009000000000000001,0.009000000000000001,0.008,0.008,0.006,0.005,0.004,0.004,0.003,0.002,0.0,-0.001,-0.003,-0.005,-0.006,-0.008,-0.01,-0.011000000000000001,-0.013000000000000001,-0.015,-0.017,-0.018000000000000002,-0.02,-0.022000000000000002,-0.023,-0.025,-0.025,-0.025,-0.023,-0.021,-0.019,-0.017,-0.016,-0.013999999999999999,-0.013000000000000001,-0.012,-0.012,-0.012,-0.013000000000000001,-0.013000000000000001,-0.013999999999999999,-0.013999999999999999,-0.013000000000000001,-0.012,-0.01,-0.006999999999999999,-0.003,0.0,0.001,0.003,0.003,0.004,0.003,0.003,0.002,0.002,0.0,-0.001,-0.003,-0.005,-0.006999999999999999,-0.009000000000000001,-0.011000000000000001,-0.013000000000000001,-0.013999999999999999,-0.015,-0.013999999999999999,-0.013000000000000001,-0.011000000000000001,-0.009000000000000001,-0.006,-0.004,-0.001,0.001,0.002,0.004,0.003,0.003,0.002,0.002,0.0,-0.001,-0.003,-0.005,-0.006,-0.006999999999999999,-0.006999999999999999,-0.006999999999999999,-0.005,-0.004,-0.002,0.0,0.001,0.003,0.004,0.005,0.005,0.006,0.005,0.005,0.005,0.005,0.004,0.004,0.003,0.002,0.001,0.0,-0.0,-0.001,-0.0,0.0,0.0,0.0,0.0,0.0,0.0,0.001,0.002,0.004,0.005,0.006999999999999999,0.009000000000000001,0.011000000000000001,0.011000000000000001,0.011000000000000001,0.011000000000000001,0.011000000000000001,0.013999999999999999,0.017,0.024,0.031,0.040999999999999995,0.051,0.063,0.075,0.086,0.098,0.107,0.11599999999999999,0.122,0.127,0.131,0.135,0.138,0.141,0.142,0.14400000000000002,0.14400000000000002,0.145,0.147,0.14800000000000002,0.151,0.153,0.153,0.153,0.15,0.14800000000000002,0.141,0.135,0.126,0.11800000000000001,0.11,0.102,0.096,0.08900000000000001,0.08199999999999999,0.075,0.066,0.057,0.046,0.035,0.025,0.015,0.006,-0.004,-0.012,-0.021,-0.027999999999999997,-0.034,-0.039,-0.044000000000000004,-0.047,-0.051,-0.054000000000000006,-0.057,-0.059000000000000004,-0.06,-0.06,-0.06,-0.061,-0.061,-0.063,-0.064,-0.065,-0.066,-0.067,-0.068,-0.068,-0.069,-0.068,-0.066,-0.061,-0.057,-0.048,-0.04,-0.026000000000000002,-0.012,0.008,0.028999999999999998,0.055,0.08,0.11,0.139,0.171,0.204,0.239,0.27399999999999997,0.314,0.354,0.397,0.439,0.47100000000000003,0.503,0.513,0.523,0.505,0.48700000000000004,0.444,0.402,0.35200000000000004,0.302,0.26,0.217,0.192,0.16699999999999998,0.158,0.149,0.153,0.157,0.165,0.17300000000000001,0.17600000000000002,0.179,0.17,0.16,0.138,0.11699999999999999,0.09,0.062,0.038,0.013000000000000001,-0.002,-0.018000000000000002,-0.023,-0.028999999999999998,-0.028999999999999998,-0.028999999999999998,-0.03,-0.031,-0.034,-0.038,-0.045,-0.053,-0.061,-0.07,-0.078,-0.086,-0.09,-0.094,-0.096,-0.098,-0.098,-0.099,-0.098,-0.098,-0.096,-0.095,-0.09300000000000001,-0.091,-0.08900000000000001,-0.087,-0.085,-0.08199999999999999,-0.08,-0.078,-0.075,-0.073,-0.071,-0.07,-0.069,-0.069,-0.068,-0.068,-0.068,-0.068,-0.068,-0.067,-0.065,-0.063,-0.061,-0.059000000000000004,-0.057,-0.055999999999999994,-0.053,-0.051,-0.048,-0.046,-0.044000000000000004,-0.040999999999999995,-0.04,-0.038,-0.038,-0.037000000000000005,-0.036000000000000004,-0.034,-0.033,-0.032,-0.028999999999999998,-0.027000000000000003,-0.024,-0.021,-0.018000000000000002,-0.015,-0.013000000000000001,-0.011000000000000001,-0.011000000000000001,-0.01,-0.01,-0.011000000000000001,-0.011000000000000001,-0.011000000000000001,-0.01,-0.01,-0.008,-0.006999999999999999,-0.005,-0.003,-0.002,-0.001,-0.0,0.0,0.0,0.0,-0.0,-0.001,-0.002,-0.003,-0.003,-0.003,-0.001,0.001,0.004,0.006999999999999999,0.009000000000000001,0.011000000000000001,0.012,0.013000000000000001,0.013000000000000001,0.013000000000000001,0.011000000000000001,0.01,0.008,0.006,0.004,0.002,0.0,-0.001,-0.003,-0.005,-0.006,-0.006999999999999999,-0.008,-0.009000000000000001,-0.01,-0.011000000000000001,-0.011000000000000001,-0.011000000000000001,-0.013000000000000001,-0.015,-0.016,-0.017,-0.017,-0.017,-0.015,-0.013000000000000001,-0.01,-0.006999999999999999,-0.005,-0.003,-0.001,0.0,0.002,0.004,0.006,0.009000000000000001,0.011000000000000001,0.013999999999999999,0.016,0.017,0.018000000000000002,0.018000000000000002,0.017,0.016,0.015,0.013999999999999999,0.013000000000000001,0.012,0.011000000000000001,0.01,0.008,0.006999999999999999,0.006,0.005,0.004,0.004,0.003,0.002,0.0,-0.002,-0.005,-0.008,-0.011000000000000001,-0.013000000000000001,-0.016,-0.018000000000000002,-0.02,-0.022000000000000002,-0.023,-0.025,-0.026000000000000002,-0.027000000000000003,N
7,0.13,0.10800000000000001,0.081,0.054000000000000006,0.03,0.006,-0.008,-0.021,-0.026000000000000002,-0.031,-0.03,-0.028999999999999998,-0.027000000000000003,-0.026000000000000002,-0.027999999999999997,-0.03,-0.036000000000000004,-0.042,-0.052000000000000005,-0.061,-0.07,-0.08,-0.087,-0.095,-0.1,-0.105,-0.106,-0.107,-0.105,-0.10300000000000001,-0.1,-0.09699999999999999,-0.094,-0.091,-0.08900000000000001,-0.086,-0.084,-0.08199999999999999,-0.08,-0.077,-0.073,-0.07,-0.068,-0.065,-0.064,-0.063,-0.063,-0.062,-0.061,-0.06,-0.06,-0.059000000000000004,-0.06,-0.06,-0.06,-0.06,-0.06,-0.059000000000000004,-0.057999999999999996,-0.057,-0.054000000000000006,-0.052000000000000005,-0.051,-0.05,-0.049,-0.049,-0.048,-0.048,-0.047,-0.047,-0.045,-0.044000000000000004,-0.042,-0.039,-0.038,-0.037000000000000005,-0.036000000000000004,-0.034,-0.033,-0.031,-0.027999999999999997,-0.025,-0.022000000000000002,-0.019,-0.017,-0.013999999999999999,-0.012,-0.01,-0.008,-0.006,-0.003,-0.001,0.0,0.001,0.002,0.004,0.005,0.006999999999999999,0.009000000000000001,0.011000000000000001,0.011000000000000001,0.011000000000000001,0.01,0.01,0.008,0.006999999999999999,0.005,0.003,0.003,0.003,0.003,0.003,0.003,0.003,0.003,0.003,0.003,0.003,0.002,0.002,0.0,-0.001,-0.003,-0.005,-0.006,-0.008,-0.009000000000000001,-0.01,-0.009000000000000001,-0.009000000000000001,-0.01,-0.011000000000000001,-0.012,-0.013000000000000001,-0.013999999999999999,-0.015,-0.013999999999999999,-0.013000000000000001,-0.011000000000000001,-0.01,-0.009000000000000001,-0.008,-0.006999999999999999,-0.006,-0.004,-0.002,0.0,0.003,0.005,0.008,0.009000000000000001,0.011000000000000001,0.011000000000000001,0.011000000000000001,0.011000000000000001,0.011000000000000001,0.01,0.01,0.009000000000000001,0.009000000000000001,0.009000000000000001,0.009000000000000001,0.008,0.008,0.006,0.005,0.004,0.004,0.003,0.002,0.0,-0.001,-0.003,-0.005,-0.006,-0.008,-0.01,-0.011000000000000001,-0.013000000000000001,-0.015,-0.017,-0.018000000000000002,-0.02,-0.022000000000000002,-0.023,-0.025,-0.025,-0.025,-0.023,-0.021,-0.019,-0.017,-0.016,-0.013999999999999999,-0.013000000000000001,-0.012,-0.012,-0.012,-0.013000000000000001,-0.013000000000000001,-0.013999999999999999,-0.013999999999999999,-0.013000000000000001,-0.012,-0.01,-0.006999999999999999,-0.003,0.0,0.001,0.003,0.003,0.004,0.003,0.003,0.002,0.002,0.0,-0.001,-0.003,-0.005,-0.006999999999999999,-0.009000000000000001,-0.011000000000000001,-0.013000000000000001,-0.013999999999999999,-0.015,-0.013999999999999999,-0.013000000000000001,-0.011000000000000001,-0.009000000000000001,-0.006,-0.004,-0.001,0.001,0.002,0.004,0.003,0.003,0.002,0.002,0.0,-0.001,-0.003,-0.005,-0.006,-0.006999999999999999,-0.006999999999999999,-0.006999999999999999,-0.005,-0.004,-0.002,0.0,0.001,0.003,0.004,0.005,0.005,0.006,0.005,0.005,0.005,0.005,0.004,0.004,0.003,0.002,0.001,0.0,-0.0,-0.001,-0.0,0.0,0.0,0.0,0.0,0.0,0.0,0.001,0.002,0.004,0.005,0.006999999999999999,0.009000000000000001,0.011000000000000001,0.011000000000000001,0.011000000000000001,0.011000000000000001,0.011000000000000001,0.013999999999999999,0.017,0.024,0.031,0.040999999999999995,0.051,0.063,0.075,0.086,0.098,0.107,0.11599999999999999,0.122,0.127,0.131,0.135,0.138,0.141,0.142,0.14400000000000002,0.14400000000000002,0.145,0.147,0.14800000000000002,0.151,0.153,0.153,0.153,0.15,0.14800000000000002,0.141,0.135,0.126,0.11800000000000001,0.11,0.102,0.096,0.08900000000000001,0.08199999999999999,0.075,0.066,0.057,0.046,0.035,0.025,0.015,0.006,-0.004,-0.012,-0.021,-0.027999999999999997,-0.034,-0.039,-0.044000000000000004,-0.047,-0.051,-0.054000000000000006,-0.057,-0.059000000000000004,-0.06,-0.06,-0.06,-0.061,-0.061,-0.063,-0.064,-0.065,-0.066,-0.067,-0.068,-0.068,-0.069,-0.068,-0.066,-0.061,-0.057,-0.048,-0.04,-0.026000000000000002,-0.012,0.008,0.028999999999999998,0.055,0.08,0.11,0.139,0.171,0.204,0.239,0.27399999999999997,0.314,0.354,0.397,0.439,0.47100000000000003,0.503,0.513,0.523,0.505,0.48700000000000004,0.444,0.402,0.35200000000000004,0.302,0.26,0.217,0.192,0.16699999999999998,0.158,0.149,0.153,0.157,0.165,0.17300000000000001,0.17600000000000002,0.179,0.17,0.16,0.138,0.11699999999999999,0.09,0.062,0.038,0.013000000000000001,-0.002,-0.018000000000000002,-0.023,-0.028999999999999998,-0.028999999999999998,-0.028999999999999998,-0.03,-0.031,-0.034,-0.038,-0.045,-0.053,-0.061,-0.07,-0.078,-0.086,-0.09,-0.094,-0.096,-0.098,-0.098,-0.099,-0.098,-0.098,-0.096,-0.095,-0.09300000000000001,-0.091,-0.08900000000000001,-0.087,-0.085,-0.08199999999999999,-0.08,-0.078,-0.075,-0.073,-0.071,-0.07,-0.069,-0.069,-0.068,-0.068,-0.068,-0.068,-0.068,-0.067,-0.065,-0.063,-0.061,-0.059000000000000004,-0.057,-0.055999999999999994,-0.053,-0.051,-0.048,-0.046,-0.044000000000000004,-0.040999999999999995,-0.04,-0.038,-0.038,-0.037000000000000005,-0.036000000000000004,-0.034,-0.033,-0.032,-0.028999999999999998,-0.027000000000000003,-0.024,-0.021,-0.018000000000000002,-0.015,-0.013000000000000001,-0.011000000000000001,-0.011000000000000001,-0.01,-0.01,-0.011000000000000001,-0.011000000000000001,-0.011000000000000001,-0.01,-0.01,-0.008,-0.006999999999999999,-0.005,-0.003,-0.002,-0.001,-0.0,0.0,0.0,0.0,-0.0,-0.001,-0.002,-0.003,-0.003,-0.003,-0.001,0.001,0.004,0.006999999999999999,0.009000000000000001,0.011000000000000001,0.012,0.013000000000000001,0.013000000000000001,0.013000000000000001,0.011000000000000001,0.01,0.008,0.006,0.004,0.002,0.0,-0.001,-0.003,-0.005,-0.006,-0.006999999999999999,-0.008,-0.009000000000000001,-0.01,-0.011000000000000001,-0.011000000000000001,-0.011000000000000001,-0.013000000000000001,-0.015,-0.016,-0.017,-0.017,-0.017,-0.015,-0.013000000000000001,-0.01,-0.006999999999999999,-0.005,-0.003,-0.001,0.0,0.002,0.004,0.006,0.009000000000000001,0.011000000000000001,0.013999999999999999,0.016,0.017,0.018000000000000002,0.018000000000000002,0.017,0.016,0.015,0.013999999999999999,0.013000000000000001,0.012,0.011000000000000001,0.01,0.008,0.006999999999999999,0.006,0.005,0.004,0.004,0.003,0.002,0.0,-0.002,-0.005,-0.008,-0.011000000000000001,-0.013000000000000001,-0.016,-0.018000000000000002,-0.02,-0.022000000000000002,-0.023,-0.025,-0.026000000000000002,-0.027000000000000003,-0.027000000000000003,-0.027999999999999997,-0.027999999999999997,-0.028999999999999998,-0.028999999999999998,-0.03,-0.031,-0.032,-0.032,-0.032,-0.03,-0.028999999999999998,-0.027999999999999997,-0.027000000000000003,-0.026000000000000002,-0.026000000000000002,-0.024,-0.023,-0.022000000000000002,-0.021,-0.02,-0.018000000000000002,-0.017,-0.016,-0.016,-0.015,-0.015,-0.013999999999999999,-0.013999999999999999,-0.013000000000000001,-0.013999999999999999,-0.013999999999999999,-0.013999999999999999,-0.013999999999999999,-0.013999999999999999,-0.013999999999999999,-0.013999999999999999,-0.013999999999999999,-0.013999999999999999,-0.013999999999999999,-0.013999999999999999,-0.013999999999999999,-0.013999999999999999,-0.013000000000000001,-0.012,-0.011000000000000001,-0.008,-0.006,-0.003,0.0,0.001,0.003,0.003,0.004,0.003,0.003,0.002,0.002,0.001,0.0,-0.0,-0.001,0.0,0.001,0.002,0.003,0.003,0.004,0.005,0.006,0.006999999999999999,0.009000000000000001,0.009000000000000001,0.01,0.01,0.011000000000000001,0.011000000000000001,0.011000000000000001,0.01,0.01,0.009000000000000001,0.008,0.006999999999999999,0.006,0.006,0.006999999999999999,0.006999999999999999,0.006999999999999999,0.006,0.006,0.005,0.004,0.003,0.003,0.003,0.003,0.003,0.003,0.003,0.004,0.006,0.008,0.012,0.017,0.025,0.033,0.043,0.054000000000000006,0.067,0.08,0.092,0.10400000000000001,0.113,0.122,0.125,0.127,0.128,0.128,0.128,0.127,0.128,0.129,0.132,0.134,0.136,0.139,0.139,0.14,0.13699999999999998,0.135,0.131,0.127,0.122,0.11699999999999999,0.111,0.105,0.099,0.09300000000000001,0.086,0.079,0.07,0.061,0.054000000000000006,0.046,0.038,0.03,0.021,0.011000000000000001,0.003,-0.005,-0.012,-0.02,-0.027999999999999997,-0.035,-0.040999999999999995,-0.047,-0.051,-0.055999999999999994,-0.057999999999999996,-0.061,-0.065,-0.068,-0.071,-0.07400000000000001,-0.076,-0.078,-0.078,-0.078,-0.078,-0.078,-0.078,-0.078,-0.078,-0.079,-0.079,-0.079,-0.075,-0.07200000000000001,-0.063,-0.054000000000000006,-0.038,-0.022000000000000002,0.001,0.024,0.052000000000000005,0.08,0.11199999999999999,0.14300000000000002,0.17600000000000002,0.209,0.24600000000000002,0.28300000000000003,0.326,0.369,0.414,0.45899999999999996,0.494,0.529,0.541,0.5539999999999999,0.536,0.518,0.475,0.431,0.379,0.327,0.282,0.23800000000000002,0.20800000000000002,0.179,0.16699999999999998,0.155,0.156,0.157,0.162,0.16699999999999998,0.166,0.165,0.15,0.135,0.10800000000000001,0.081,0.05,0.019,-0.006,-0.031,-0.043,-0.055999999999999994,-0.057999999999999996,-0.061,-0.057999999999999996,-0.055999999999999994,-0.053,-0.051,-0.053,-0.055,-0.06,-0.066,-0.073,-0.08,-0.087,-0.094,-0.099,-0.10300000000000001,-0.106,-0.109,-0.109,-0.10800000000000001,-0.106,-0.10400000000000001,-0.10099999999999999,-0.09699999999999999,-0.09300000000000001,-0.08900000000000001,-0.085,-0.08,-0.078,-0.076,-0.07400000000000001,-0.073,-0.071,-0.07,-0.068,-0.066,-0.064,-0.062,-0.061,-0.06,-0.059000000000000004,-0.057999999999999996,-0.057999999999999996,-0.057,-0.055999999999999994,-0.055,-0.052000000000000005,-0.049,-0.046,-0.043,-0.040999999999999995,-0.039,-0.039,-0.038,-0.038,-0.037000000000000005,-0.035,-0.034,-0.031,-0.027999999999999997,-0.024,-0.02,-0.016,-0.012,-0.009000000000000001,-0.006,-0.002,0.001,0.005,0.009000000000000001,0.011000000000000001,0.013000000000000001,0.013999999999999999,0.013999999999999999,0.013999999999999999,0.013000000000000001,0.013000000000000001,0.012,0.012,0.011000000000000001,0.012,0.013000000000000001,0.015,0.017,0.018000000000000002,0.019,0.021,0.022000000000000002,0.025,0.027999999999999997,0.03,0.033,0.034,0.034,0.034,0.034,0.034,0.033,0.031,0.03,0.028999999999999998,0.028999999999999998,0.028999999999999998,0.03,0.03,0.031,0.031,0.032,0.031,0.031,0.028999999999999998,0.027999999999999997,0.027000000000000003,0.027000000000000003,0.025,0.024,0.023,0.021,0.02,0.019,0.018000000000000002,0.016,0.015,0.013000000000000001,0.011000000000000001,0.01,0.008,0.006,0.004,0.003,0.003,0.004,0.005,0.006,0.006999999999999999,0.009000000000000001,0.009000000000000001,0.009000000000000001,0.008,0.008,0.006999999999999999,0.006,0.006999999999999999,0.008,0.009000000000000001,0.011000000000000001,0.012,0.013000000000000001,0.013999999999999999,0.013999999999999999,0.013000000000000001,0.012,0.011000000000000001,0.01,0.008,0.006999999999999999,0.006,0.005,0.004,0.003,0.001,-0.001,-0.003,-0.005,-0.006,-0.008,-0.009000000000000001,-0.011000000000000001,-0.011000000000000001,-0.011000000000000001,-0.013000000000000001,-0.013999999999999999,-0.015,-0.016,-0.019,-0.021,-0.024,-0.027000000000000003,-0.028999999999999998,-0.032,N
8,0.138,0.11699999999999999,0.09,0.062,0.038,0.013000000000000001,-0.002,-0.018000000000000002,-0.023,-0.028999999999999998,-0.028999999999999998,-0.028999999999999998,-0.03,-0.031,-0.034,-0.038,-0.045,-0.053,-0.061,-0.07,-0.078,-0.086,-0.09,-0.094,-0.096,-0.098,-0.098,-0.099,-0.098,-0.098,-0.096,-0.095,-0.09300000000000001,-0.091,-0.08900000000000001,-0.087,-0.085,-0.08199999999999999,-0.08,-0.078,-0.075,-0.073,-0.071,-0.07,-0.069,-0.069,-0.068,-0.068,-0.068,-0.068,-0.068,-0.067,-0.065,-0.063,-0.061,-0.059000000000000004,-0.057,-0.055999999999999994,-0.053,-0.051,-0.048,-0.046,-0.044000000000000004,-0.040999999999999995,-0.04,-0.038,-0.038,-0.037000000000000005,-0.036000000000000004,-0.034,-0.033,-0.032,-0.028999999999999998,-0.027000000000000003,-0.024,-0.021,-0.018000000000000002,-0.015,-0.013000000000000001,-0.011000000000000001,-0.011000000000000001,-0.01,-0.01,-0.011000000000000001,-0.011000000000000001,-0.011000000000000001,-0.01,-0.01,-0.008,-0.006999999999999999,-0.005,-0.003,-0.002,-0.001,-0.0,0.0,0.0,0.0,-0.0,-0.001,-0.002,-0.003,-0.003,-0.003,-0.001,0.001,0.004,0.006999999999999999,0.009000000000000001,0.011000000000000001,0.012,0.013000000000000001,0.013000000000000001,0.013000000000000001,0.011000000000000001,0.01,0.008,0.006,0.004,0.002,0.0,-0.001,-0.003,-0.005,-0.006,-0.006999999999999999,-0.008,-0.009000000000000001,-0.01,-0.011000000000000001,-0.011000000000000001,-0.011000000000000001,-0.013000000000000001,-0.015,-0.016,-0.017,-0.017,-0.017,-0.015,-0.013000000000000001,-0.01,-0.006999999999999999,-0.005,-0.003,-0.001,0.0,0.002,0.004,0.006,0.009000000000000001,0.011000000000000001,0.013999999999999999,0.016,0.017,0.018000000000000002,0.018000000000000002,0.017,0.016,0.015,0.013999999999999999,0.013000000000000001,0.012,0.011000000000000001,0.01,0.008,0.006999999999999999,0.006,0.005,0.004,0.004,0.003,0.002,0.0,-0.002,-0.005,-0.008,-0.011000000000000001,-0.013000000000000001,-0.016,-0.018000000000000002,-0.02,-0.022000000000000002,-0.023,-0.025,-0.026000000000000002,-0.027000000000000003,-0.027000000000000003,-0.027999999999999997,-0.027999999999999997,-0.028999999999999998,-0.028999999999999998,-0.03,-0.031,-0.032,-0.032,-0.032,-0.03,-0.028999999999999998,-0.027999999999999997,-0.027000000000000003,-0.026000000000000002,-0.026000000000000002,-0.024,-0.023,-0.022000000000000002,-0.021,-0.02,-0.018000000000000002,-0.017,-0.016,-0.016,-0.015,-0.015,-0.013999999999999999,-0.013999999999999999,-0.013000000000000001,-0.013999999999999999,-0.013999999999999999,-0.013999999999999999,-0.013999999999999999,-0.013999999999999999,-0.013999999999999999,-0.013999999999999999,-0.013999999999999999,-0.013999999999999999,-0.013999999999999999,-0.013999999999999999,-0.013999999999999999,-0.013999999999999999,-0.013000000000000001,-0.012,-0.011000000000000001,-0.008,-0.006,-0.003,0.0,0.001,0.003,0.003,0.004,0.003,0.003,0.002,0.002,0.001,0.0,-0.0,-0.001,0.0,0.001,0.002,0.003,0.003,0.004,0.005,0.006,0.006999999999999999,0.009000000000000001,0.009000000000000001,0.01,0.01,0.011000000000000001,0.011000000000000001,0.011000000000000001,0.01,0.01,0.009000000000000001,0.008,0.006999999999999999,0.006,0.006,0.006999999999999999,0.006999999999999999,0.006999999999999999,0.006,0.006,0.005,0.004,0.003,0.003,0.003,0.003,0.003,0.003,0.003,0.004,0.006,0.008,0.012,0.017,0.025,0.033,0.043,0.054000000000000006,0.067,0.08,0.092,0.10400000000000001,0.113,0.122,0.125,0.127,0.128,0.128,0.128,0.127,0.128,0.129,0.132,0.134,0.136,0.139,0.139,0.14,0.13699999999999998,0.135,0.131,0.127,0.122,0.11699999999999999,0.111,0.105,0.099,0.09300000000000001,0.086,0.079,0.07,0.061,0.054000000000000006,0.046,0.038,0.03,0.021,0.011000000000000001,0.003,-0.005,-0.012,-0.02,-0.027999999999999997,-0.035,-0.040999999999999995,-0.047,-0.051,-0.055999999999999994,-0.057999999999999996,-0.061,-0.065,-0.068,-0.071,-0.07400000000000001,-0.076,-0.078,-0.078,-0.078,-0.078,-0.078,-0.078,-0.078,-0.078,-0.079,-0.079,-0.079,-0.075,-0.07200000000000001,-0.063,-0.054000000000000006,-0.038,-0.022000000000000002,0.001,0.024,0.052000000000000005,0.08,0.11199999999999999,0.14300000000000002,0.17600000000000002,0.209,0.24600000000000002,0.28300000000000003,0.326,0.369,0.414,0.45899999999999996,0.494,0.529,0.541,0.5539999999999999,0.536,0.518,0.475,0.431,0.379,0.327,0.282,0.23800000000000002,0.20800000000000002,0.179,0.16699999999999998,0.155,0.156,0.157,0.162,0.16699999999999998,0.166,0.165,0.15,0.135,0.10800000000000001,0.081,0.05,0.019,-0.006,-0.031,-0.043,-0.055999999999999994,-0.057999999999999996,-0.061,-0.057999999999999996,-0.055999999999999994,-0.053,-0.051,-0.053,-0.055,-0.06,-0.066,-0.073,-0.08,-0.087,-0.094,-0.099,-0.10300000000000001,-0.106,-0.109,-0.109,-0.10800000000000001,-0.106,-0.10400000000000001,-0.10099999999999999,-0.09699999999999999,-0.09300000000000001,-0.08900000000000001,-0.085,-0.08,-0.078,-0.076,-0.07400000000000001,-0.073,-0.071,-0.07,-0.068,-0.066,-0.064,-0.062,-0.061,-0.06,-0.059000000000000004,-0.057999999999999996,-0.057999999999999996,-0.057,-0.055999999999999994,-0.055,-0.052000000000000005,-0.049,-0.046,-0.043,-0.040999999999999995,-0.039,-0.039,-0.038,-0.038,-0.037000000000000005,-0.035,-0.034,-0.031,-0.027999999999999997,-0.024,-0.02,-0.016,-0.012,-0.009000000000000001,-0.006,-0.002,0.001,0.005,0.009000000000000001,0.011000000000000001,0.013000000000000001,0.013999999999999999,0.013999999999999999,0.013999999999999999,0.013000000000000001,0.013000000000000001,0.012,0.012,0.011000000000000001,0.012,0.013000000000000001,0.015,0.017,0.018000000000000002,0.019,0.021,0.022000000000000002,0.025,0.027999999999999997,0.03,0.033,0.034,0.034,0.034,0.034,0.034,0.033,0.031,0.03,0.028999999999999998,0.028999999999999998,0.028999999999999998,0.03,0.03,0.031,0.031,0.032,0.031,0.031,0.028999999999999998,0.027999999999999997,0.027000000000000003,0.027000000000000003,0.025,0.024,0.023,0.021,0.02,0.019,0.018000000000000002,0.016,0.015,0.013000000000000001,0.011000000000000001,0.01,0.008,0.006,0.004,0.003,0.003,0.004,0.005,0.006,0.006999999999999999,0.009000000000000001,0.009000000000000001,0.009000000000000001,0.008,0.008,0.006999999999999999,0.006,0.006999999999999999,0.008,0.009000000000000001,0.011000000000000001,0.012,0.013000000000000001,0.013999999999999999,0.013999999999999999,0.013000000000000001,0.012,0.011000000000000001,0.01,0.008,0.006999999999999999,0.006,0.005,0.004,0.003,0.001,-0.001,-0.003,-0.005,-0.006,-0.008,-0.009000000000000001,-0.011000000000000001,-0.011000000000000001,-0.011000000000000001,-0.013000000000000001,-0.013999999999999999,-0.015,-0.016,-0.019,-0.021,-0.024,-0.027000000000000003,-0.028999999999999998,-0.032,-0.033,-0.034,-0.034,-0.034,-0.034,-0.034,-0.033,-0.032,-0.03,-0.027999999999999997,-0.026000000000000002,-0.024,-0.023,-0.022000000000000002,-0.023,-0.023,-0.023,-0.023,-0.022000000000000002,-0.021,-0.021,-0.02,-0.019,-0.018000000000000002,-0.017,-0.016,-0.016,-0.015,-0.015,-0.013999999999999999,-0.013000000000000001,-0.012,-0.012,-0.011000000000000001,-0.011000000000000001,-0.01,-0.009000000000000001,-0.008,-0.006999999999999999,-0.006999999999999999,-0.006999999999999999,-0.006999999999999999,-0.006999999999999999,-0.006999999999999999,-0.005,-0.004,-0.001,0.001,0.004,0.006999999999999999,0.006999999999999999,0.008,0.006999999999999999,0.006,0.004,0.002,-0.0,-0.003,-0.004,-0.005,-0.003,-0.002,0.0,0.003,0.005,0.008,0.009000000000000001,0.011000000000000001,0.011000000000000001,0.011000000000000001,0.012,0.013000000000000001,0.013000000000000001,0.013000000000000001,0.011000000000000001,0.01,0.006999999999999999,0.005,0.001,-0.002,-0.005,-0.008,-0.01,-0.011000000000000001,-0.011000000000000001,-0.011000000000000001,-0.009000000000000001,-0.006999999999999999,-0.005,-0.003,-0.002,-0.001,-0.0,0.0,0.0,0.001,0.002,0.003,0.003,0.004,0.006,0.008,0.012,0.016,0.022000000000000002,0.027999999999999997,0.035,0.042,0.052000000000000005,0.061,0.073,0.084,0.094,0.10400000000000001,0.11199999999999999,0.12,0.125,0.13,0.134,0.138,0.142,0.147,0.151,0.155,0.158,0.161,0.161,0.161,0.158,0.154,0.14800000000000002,0.142,0.134,0.125,0.11900000000000001,0.11199999999999999,0.105,0.099,0.092,0.085,0.079,0.073,0.066,0.059000000000000004,0.052000000000000005,0.045,0.037000000000000005,0.028999999999999998,0.021,0.012,0.005,-0.003,-0.011000000000000001,-0.019,-0.027000000000000003,-0.035,-0.043,-0.051,-0.057,-0.062,-0.065,-0.068,-0.068,-0.069,-0.068,-0.068,-0.067,-0.066,-0.067,-0.068,-0.069,-0.07,-0.07,-0.071,-0.07,-0.069,-0.067,-0.065,-0.06,-0.055,-0.043,-0.032,-0.012,0.006999999999999999,0.032,0.057,0.08900000000000001,0.12,0.156,0.192,0.233,0.27399999999999997,0.325,0.375,0.434,0.49200000000000005,0.551,0.609,0.649,0.6890000000000001,0.696,0.7040000000000001,0.675,0.647,0.59,0.5329999999999999,0.466,0.4,0.344,0.287,0.25,0.212,0.193,0.17300000000000001,0.163,0.153,0.141,0.128,0.105,0.081,0.046,0.011000000000000001,-0.027000000000000003,-0.065,-0.094,-0.124,-0.13699999999999998,-0.15,-0.14800000000000002,-0.145,-0.132,-0.12,-0.10800000000000001,-0.096,-0.09,-0.083,-0.084,-0.085,-0.091,-0.096,-0.1,-0.10300000000000001,-0.10400000000000001,-0.105,-0.105,-0.105,-0.105,-0.105,-0.105,-0.105,-0.105,-0.10400000000000001,-0.10300000000000001,-0.102,-0.099,-0.09699999999999999,-0.094,-0.091,-0.08900000000000001,-0.086,-0.085,-0.083,-0.08199999999999999,-0.08,-0.079,-0.077,-0.075,-0.073,-0.071,-0.069,-0.067,-0.065,-0.062,-0.059000000000000004,-0.057,-0.054000000000000006,-0.051,-0.049,-0.046,-0.043,-0.040999999999999995,-0.038,-0.036000000000000004,-0.034,-0.031,-0.028999999999999998,-0.027999999999999997,-0.027000000000000003,-0.026000000000000002,-0.025,-0.022000000000000002,-0.019,-0.016,-0.013000000000000001,-0.01,-0.006,-0.003,0.0,0.001,0.003,0.004,0.005,0.006,0.008,0.009000000000000001,0.011000000000000001,0.012,0.013999999999999999,0.016,0.018000000000000002,0.02,0.021,0.021,0.021,0.022000000000000002,0.022000000000000002,0.023,0.024,0.025,0.026000000000000002,0.026000000000000002,0.027000000000000003,0.027999999999999997,0.03,0.032,0.034,0.035,0.036000000000000004,0.037000000000000005,0.037000000000000005,0.036000000000000004,0.034,0.032,0.03,0.027000000000000003,0.025,0.024,0.024,0.023,0.023,0.022000000000000002,0.021,0.02,0.019,0.016,0.013000000000000001,0.011000000000000001,0.009000000000000001,0.006,0.003,0.0,-0.002,-0.003,-0.005,-0.006,-0.008,-0.009000000000000001,-0.011000000000000001,-0.011000000000000001,-0.012,-0.015,-0.018000000000000002,-0.02,-0.021,-0.022000000000000002,-0.022000000000000002,-0.022000000000000002,-0.021,-0.02,-0.019,-0.017,-0.013999999999999999,-0.012,-0.01,-0.008,-0.006999999999999999,-0.005,-0.004,-0.004,-0.005,-0.006999999999999999,-0.009000000000000001,-0.011000000000000001,-0.013999999999999999,-0.018000000000000002,-0.021,-0.025,-0.028999999999999998,-0.032,-0.034,-0.037000000000000005,-0.039,-0.040999999999999995,-0.043,-0.045,-0.047,-0.048,-0.05,-0.051,-0.053,-0.053,-0.054000000000000006,-0.055999999999999994,-0.057,-0.059000000000000004,-0.06,N
9,0.135,0.10800000000000001,0.081,0.05,0.019,-0.006,-0.031,-0.043,-0.055999999999999994,-0.057999999999999996,-0.061,-0.057999999999999996,-0.055999999999999994,-0.053,-0.051,-0.053,-0.055,-0.06,-0.066,-0.073,-0.08,-0.087,-0.094,-0.099,-0.10300000000000001,-0.106,-0.109,-0.109,-0.10800000000000001,-0.106,-0.10400000000000001,-0.10099999999999999,-0.09699999999999999,-0.09300000000000001,-0.08900000000000001,-0.085,-0.08,-0.078,-0.076,-0.07400000000000001,-0.073,-0.071,-0.07,-0.068,-0.066,-0.064,-0.062,-0.061,-0.06,-0.059000000000000004,-0.057999999999999996,-0.057999999999999996,-0.057,-0.055999999999999994,-0.055,-0.052000000000000005,-0.049,-0.046,-0.043,-0.040999999999999995,-0.039,-0.039,-0.038,-0.038,-0.037000000000000005,-0.035,-0.034,-0.031,-0.027999999999999997,-0.024,-0.02,-0.016,-0.012,-0.009000000000000001,-0.006,-0.002,0.001,0.005,0.009000000000000001,0.011000000000000001,0.013000000000000001,0.013999999999999999,0.013999999999999999,0.013999999999999999,0.013000000000000001,0.013000000000000001,0.012,0.012,0.011000000000000001,0.012,0.013000000000000001,0.015,0.017,0.018000000000000002,0.019,0.021,0.022000000000000002,0.025,0.027999999999999997,0.03,0.033,0.034,0.034,0.034,0.034,0.034,0.033,0.031,0.03,0.028999999999999998,0.028999999999999998,0.028999999999999998,0.03,0.03,0.031,0.031,0.032,0.031,0.031,0.028999999999999998,0.027999999999999997,0.027000000000000003,0.027000000000000003,0.025,0.024,0.023,0.021,0.02,0.019,0.018000000000000002,0.016,0.015,0.013000000000000001,0.011000000000000001,0.01,0.008,0.006,0.004,0.003,0.003,0.004,0.005,0.006,0.006999999999999999,0.009000000000000001,0.009000000000000001,0.009000000000000001,0.008,0.008,0.006999999999999999,0.006,0.006999999999999999,0.008,0.009000000000000001,0.011000000000000001,0.012,0.013000000000000001,0.013999999999999999,0.013999999999999999,0.013000000000000001,0.012,0.011000000000000001,0.01,0.008,0.006999999999999999,0.006,0.005,0.004,0.003,0.001,-0.001,-0.003,-0.005,-0.006,-0.008,-0.009000000000000001,-0.011000000000000001,-0.011000000000000001,-0.011000000000000001,-0.013000000000000001,-0.013999999999999999,-0.015,-0.016,-0.019,-0.021,-0.024,-0.027000000000000003,-0.028999999999999998,-0.032,-0.033,-0.034,-0.034,-0.034,-0.034,-0.034,-0.033,-0.032,-0.03,-0.027999999999999997,-0.026000000000000002,-0.024,-0.023,-0.022000000000000002,-0.023,-0.023,-0.023,-0.023,-0.022000000000000002,-0.021,-0.021,-0.02,-0.019,-0.018000000000000002,-0.017,-0.016,-0.016,-0.015,-0.015,-0.013999999999999999,-0.013000000000000001,-0.012,-0.012,-0.011000000000000001,-0.011000000000000001,-0.01,-0.009000000000000001,-0.008,-0.006999999999999999,-0.006999999999999999,-0.006999999999999999,-0.006999999999999999,-0.006999999999999999,-0.006999999999999999,-0.005,-0.004,-0.001,0.001,0.004,0.006999999999999999,0.006999999999999999,0.008,0.006999999999999999,0.006,0.004,0.002,-0.0,-0.003,-0.004,-0.005,-0.003,-0.002,0.0,0.003,0.005,0.008,0.009000000000000001,0.011000000000000001,0.011000000000000001,0.011000000000000001,0.012,0.013000000000000001,0.013000000000000001,0.013000000000000001,0.011000000000000001,0.01,0.006999999999999999,0.005,0.001,-0.002,-0.005,-0.008,-0.01,-0.011000000000000001,-0.011000000000000001,-0.011000000000000001,-0.009000000000000001,-0.006999999999999999,-0.005,-0.003,-0.002,-0.001,-0.0,0.0,0.0,0.001,0.002,0.003,0.003,0.004,0.006,0.008,0.012,0.016,0.022000000000000002,0.027999999999999997,0.035,0.042,0.052000000000000005,0.061,0.073,0.084,0.094,0.10400000000000001,0.11199999999999999,0.12,0.125,0.13,0.134,0.138,0.142,0.147,0.151,0.155,0.158,0.161,0.161,0.161,0.158,0.154,0.14800000000000002,0.142,0.134,0.125,0.11900000000000001,0.11199999999999999,0.105,0.099,0.092,0.085,0.079,0.073,0.066,0.059000000000000004,0.052000000000000005,0.045,0.037000000000000005,0.028999999999999998,0.021,0.012,0.005,-0.003,-0.011000000000000001,-0.019,-0.027000000000000003,-0.035,-0.043,-0.051,-0.057,-0.062,-0.065,-0.068,-0.068,-0.069,-0.068,-0.068,-0.067,-0.066,-0.067,-0.068,-0.069,-0.07,-0.07,-0.071,-0.07,-0.069,-0.067,-0.065,-0.06,-0.055,-0.043,-0.032,-0.012,0.006999999999999999,0.032,0.057,0.08900000000000001,0.12,0.156,0.192,0.233,0.27399999999999997,0.325,0.375,0.434,0.49200000000000005,0.551,0.609,0.649,0.6890000000000001,0.696,0.7040000000000001,0.675,0.647,0.59,0.5329999999999999,0.466,0.4,0.344,0.287,0.25,0.212,0.193,0.17300000000000001,0.163,0.153,0.141,0.128,0.105,0.081,0.046,0.011000000000000001,-0.027000000000000003,-0.065,-0.094,-0.124,-0.13699999999999998,-0.15,-0.14800000000000002,-0.145,-0.132,-0.12,-0.10800000000000001,-0.096,-0.09,-0.083,-0.084,-0.085,-0.091,-0.096,-0.1,-0.10300000000000001,-0.10400000000000001,-0.105,-0.105,-0.105,-0.105,-0.105,-0.105,-0.105,-0.105,-0.10400000000000001,-0.10300000000000001,-0.102,-0.099,-0.09699999999999999,-0.094,-0.091,-0.08900000000000001,-0.086,-0.085,-0.083,-0.08199999999999999,-0.08,-0.079,-0.077,-0.075,-0.073,-0.071,-0.069,-0.067,-0.065,-0.062,-0.059000000000000004,-0.057,-0.054000000000000006,-0.051,-0.049,-0.046,-0.043,-0.040999999999999995,-0.038,-0.036000000000000004,-0.034,-0.031,-0.028999999999999998,-0.027999999999999997,-0.027000000000000003,-0.026000000000000002,-0.025,-0.022000000000000002,-0.019,-0.016,-0.013000000000000001,-0.01,-0.006,-0.003,0.0,0.001,0.003,0.004,0.005,0.006,0.008,0.009000000000000001,0.011000000000000001,0.012,0.013999999999999999,0.016,0.018000000000000002,0.02,0.021,0.021,0.021,0.022000000000000002,0.022000000000000002,0.023,0.024,0.025,0.026000000000000002,0.026000000000000002,0.027000000000000003,0.027999999999999997,0.03,0.032,0.034,0.035,0.036000000000000004,0.037000000000000005,0.037000000000000005,0.036000000000000004,0.034,0.032,0.03,0.027000000000000003,0.025,0.024,0.024,0.023,0.023,0.022000000000000002,0.021,0.02,0.019,0.016,0.013000000000000001,0.011000000000000001,0.009000000000000001,0.006,0.003,0.0,-0.002,-0.003,-0.005,-0.006,-0.008,-0.009000000000000001,-0.011000000000000001,-0.011000000000000001,-0.012,-0.015,-0.018000000000000002,-0.02,-0.021,-0.022000000000000002,-0.022000000000000002,-0.022000000000000002,-0.021,-0.02,-0.019,-0.017,-0.013999999999999999,-0.012,-0.01,-0.008,-0.006999999999999999,-0.005,-0.004,-0.004,-0.005,-0.006999999999999999,-0.009000000000000001,-0.011000000000000001,-0.013999999999999999,-0.018000000000000002,-0.021,-0.025,-0.028999999999999998,-0.032,-0.034,-0.037000000000000005,-0.039,-0.040999999999999995,-0.043,-0.045,-0.047,-0.048,-0.05,-0.051,-0.053,-0.053,-0.054000000000000006,-0.055999999999999994,-0.057,-0.059000000000000004,-0.06,-0.062,-0.064,-0.066,-0.067,-0.068,-0.068,-0.068,-0.069,-0.068,-0.068,-0.067,-0.066,-0.066,-0.066,-0.065,-0.063,-0.061,-0.059000000000000004,-0.057999999999999996,-0.057,-0.055999999999999994,-0.055,-0.054000000000000006,-0.054000000000000006,-0.053,-0.053,-0.052000000000000005,-0.052000000000000005,-0.05,-0.049,-0.047,-0.046,-0.046,-0.046,-0.045,-0.045,-0.044000000000000004,-0.042,-0.042,-0.040999999999999995,-0.04,-0.038,-0.036000000000000004,-0.034,-0.031,-0.028999999999999998,-0.027999999999999997,-0.027000000000000003,-0.026000000000000002,-0.026000000000000002,-0.025,-0.024,-0.024,-0.025,-0.025,-0.025,-0.025,-0.025,-0.025,-0.026000000000000002,-0.026000000000000002,-0.027000000000000003,-0.026000000000000002,-0.026000000000000002,-0.024,-0.023,-0.023,-0.022000000000000002,-0.022000000000000002,-0.021,-0.022000000000000002,-0.022000000000000002,-0.023,-0.024,-0.025,-0.026000000000000002,-0.025,-0.025,-0.025,-0.025,-0.025,-0.025,-0.025,-0.025,-0.024,-0.024,-0.023,-0.023,-0.023,-0.023,-0.023,-0.022000000000000002,-0.022000000000000002,-0.021,-0.022000000000000002,-0.022000000000000002,-0.023,-0.024,-0.025,-0.027000000000000003,-0.027000000000000003,-0.027999999999999997,-0.027000000000000003,-0.027000000000000003,-0.024,-0.021,-0.015,-0.01,-0.002,0.006,0.015,0.025,0.034,0.043,0.053,0.062,0.071,0.08,0.084,0.08800000000000001,0.09,0.091,0.091,0.092,0.094,0.096,0.1,0.10400000000000001,0.11,0.11599999999999999,0.11900000000000001,0.12300000000000001,0.122,0.122,0.11900000000000001,0.11699999999999999,0.11199999999999999,0.106,0.099,0.091,0.084,0.077,0.069,0.062,0.055,0.047,0.039,0.031,0.025,0.019,0.013999999999999999,0.01,0.004,-0.002,-0.008,-0.013999999999999999,-0.022000000000000002,-0.028999999999999998,-0.037000000000000005,-0.046,-0.055,-0.063,-0.069,-0.076,-0.08,-0.084,-0.08800000000000001,-0.091,-0.092,-0.09300000000000001,-0.09300000000000001,-0.094,-0.09300000000000001,-0.092,-0.091,-0.09,-0.08900000000000001,-0.08800000000000001,-0.08800000000000001,-0.087,-0.084,-0.081,-0.076,-0.07,-0.057999999999999996,-0.046,-0.027000000000000003,-0.008,0.018000000000000002,0.044000000000000004,0.075,0.105,0.139,0.17300000000000001,0.212,0.25,0.294,0.337,0.385,0.43200000000000005,0.473,0.514,0.534,0.5529999999999999,0.541,0.529,0.489,0.449,0.395,0.341,0.29,0.239,0.20600000000000002,0.17300000000000001,0.159,0.14400000000000002,0.14400000000000002,0.145,0.153,0.161,0.165,0.17,0.162,0.154,0.133,0.111,0.081,0.051,0.023,-0.006,-0.025,-0.044000000000000004,-0.052000000000000005,-0.059000000000000004,-0.06,-0.06,-0.059000000000000004,-0.057,-0.057999999999999996,-0.057999999999999996,-0.062,-0.065,-0.071,-0.077,-0.084,-0.091,-0.09699999999999999,-0.102,-0.106,-0.11,-0.11199999999999999,-0.113,-0.113,-0.11199999999999999,-0.11,-0.10800000000000001,-0.107,-0.105,-0.10400000000000001,-0.10300000000000001,-0.102,-0.102,-0.1,-0.098,-0.096,-0.094,-0.092,-0.091,-0.08900000000000001,-0.087,-0.085,-0.083,-0.081,-0.08,-0.077,-0.075,-0.073,-0.07200000000000001,-0.071,-0.07,-0.068,-0.066,-0.064,-0.061,-0.059000000000000004,-0.057,-0.055999999999999994,-0.055,-0.053,-0.052000000000000005,-0.05,-0.049,-0.046,-0.044000000000000004,-0.040999999999999995,-0.037000000000000005,-0.034,-0.032,-0.03,-0.027999999999999997,-0.026000000000000002,-0.025,-0.024,-0.023,-0.022000000000000002,-0.021,-0.02,-0.018000000000000002,-0.018000000000000002,-0.017,-0.018000000000000002,-0.018000000000000002,-0.018000000000000002,-0.017,-0.016,-0.013999999999999999,-0.012,-0.01,-0.008,-0.006999999999999999,-0.005,-0.003,-0.002,-0.001,-0.0,0.0,0.0,0.0,0.0,0.001,0.002,0.004,0.005,0.006,0.006999999999999999,0.008,0.006999999999999999,0.006,0.004,0.003,0.001,-0.001,-0.002,-0.004,-0.004,-0.004,-0.004,-0.004,-0.004,-0.005,-0.006999999999999999,-0.009000000000000001,-0.011000000000000001,-0.013999999999999999,-0.017,-0.019,-0.021,-0.022000000000000002,-0.021,-0.02,-0.019,-0.018000000000000002,-0.017,-0.016,-0.016,-0.016,-0.016,-0.016,-0.015,-0.013999999999999999,-0.012,-0.01,-0.008,-0.006999999999999999,-0.006,-0.005,-0.006,-0.006999999999999999,-0.006999999999999999,-0.006999999999999999,-0.005,-0.004,-0.002,0.0,0.001,0.003,0.003,0.004,0.003,0.003,0.002,0.001,-0.001,-0.004,-0.006999999999999999,-0.01,-0.012,-0.015,-0.02,-0.024,-0.027999999999999997,-0.033,-0.036000000000000004,-0.04,-0.043,N
10,0.011000000000000001,-0.027000000000000003,-0.065,-0.094,-0.124,-0.13699999999999998,-0.15,-0.14800000000000002,-0.145,-0.132,-0.12,-0.10800000000000001,-0.096,-0.09,-0.083,-0.084,-0.085,-0.091,-0.096,-0.1,-0.10300000000000001,-0.10400000000000001,-0.105,-0.105,-0.105,-0.105,-0.105,-0.105,-0.105,-0.105,-0.10400000000000001,-0.10300000000000001,-0.102,-0.099,-0.09699999999999999,-0.094,-0.091,-0.08900000000000001,-0.086,-0.085,-0.083,-0.08199999999999999,-0.08,-0.079,-0.077,-0.075,-0.073,-0.071,-0.069,-0.067,-0.065,-0.062,-0.059000000000000004,-0.057,-0.054000000000000006,-0.051,-0.049,-0.046,-0.043,-0.040999999999999995,-0.038,-0.036000000000000004,-0.034,-0.031,-0.028999999999999998,-0.027999999999999997,-0.027000000000000003,-0.026000000000000002,-0.025,-0.022000000000000002,-0.019,-0.016,-0.013000000000000001,-0.01,-0.006,-0.003,0.0,0.001,0.003,0.004,0.005,0.006,0.008,0.009000000000000001,0.011000000000000001,0.012,0.013999999999999999,0.016,0.018000000000000002,0.02,0.021,0.021,0.021,0.022000000000000002,0.022000000000000002,0.023,0.024,0.025,0.026000000000000002,0.026000000000000002,0.027000000000000003,0.027999999999999997,0.03,0.032,0.034,0.035,0.036000000000000004,0.037000000000000005,0.037000000000000005,0.036000000000000004,0.034,0.032,0.03,0.027000000000000003,0.025,0.024,0.024,0.023,0.023,0.022000000000000002,0.021,0.02,0.019,0.016,0.013000000000000001,0.011000000000000001,0.009000000000000001,0.006,0.003,0.0,-0.002,-0.003,-0.005,-0.006,-0.008,-0.009000000000000001,-0.011000000000000001,-0.011000000000000001,-0.012,-0.015,-0.018000000000000002,-0.02,-0.021,-0.022000000000000002,-0.022000000000000002,-0.022000000000000002,-0.021,-0.02,-0.019,-0.017,-0.013999999999999999,-0.012,-0.01,-0.008,-0.006999999999999999,-0.005,-0.004,-0.004,-0.005,-0.006999999999999999,-0.009000000000000001,-0.011000000000000001,-0.013999999999999999,-0.018000000000000002,-0.021,-0.025,-0.028999999999999998,-0.032,-0.034,-0.037000000000000005,-0.039,-0.040999999999999995,-0.043,-0.045,-0.047,-0.048,-0.05,-0.051,-0.053,-0.053,-0.054000000000000006,-0.055999999999999994,-0.057,-0.059000000000000004,-0.06,-0.062,-0.064,-0.066,-0.067,-0.068,-0.068,-0.068,-0.069,-0.068,-0.068,-0.067,-0.066,-0.066,-0.066,-0.065,-0.063,-0.061,-0.059000000000000004,-0.057999999999999996,-0.057,-0.055999999999999994,-0.055,-0.054000000000000006,-0.054000000000000006,-0.053,-0.053,-0.052000000000000005,-0.052000000000000005,-0.05,-0.049,-0.047,-0.046,-0.046,-0.046,-0.045,-0.045,-0.044000000000000004,-0.042,-0.042,-0.040999999999999995,-0.04,-0.038,-0.036000000000000004,-0.034,-0.031,-0.028999999999999998,-0.027999999999999997,-0.027000000000000003,-0.026000000000000002,-0.026000000000000002,-0.025,-0.024,-0.024,-0.025,-0.025,-0.025,-0.025,-0.025,-0.025,-0.026000000000000002,-0.026000000000000002,-0.027000000000000003,-0.026000000000000002,-0.026000000000000002,-0.024,-0.023,-0.023,-0.022000000000000002,-0.022000000000000002,-0.021,-0.022000000000000002,-0.022000000000000002,-0.023,-0.024,-0.025,-0.026000000000000002,-0.025,-0.025,-0.025,-0.025,-0.025,-0.025,-0.025,-0.025,-0.024,-0.024,-0.023,-0.023,-0.023,-0.023,-0.023,-0.022000000000000002,-0.022000000000000002,-0.021,-0.022000000000000002,-0.022000000000000002,-0.023,-0.024,-0.025,-0.027000000000000003,-0.027000000000000003,-0.027999999999999997,-0.027000000000000003,-0.027000000000000003,-0.024,-0.021,-0.015,-0.01,-0.002,0.006,0.015,0.025,0.034,0.043,0.053,0.062,0.071,0.08,0.084,0.08800000000000001,0.09,0.091,0.091,0.092,0.094,0.096,0.1,0.10400000000000001,0.11,0.11599999999999999,0.11900000000000001,0.12300000000000001,0.122,0.122,0.11900000000000001,0.11699999999999999,0.11199999999999999,0.106,0.099,0.091,0.084,0.077,0.069,0.062,0.055,0.047,0.039,0.031,0.025,0.019,0.013999999999999999,0.01,0.004,-0.002,-0.008,-0.013999999999999999,-0.022000000000000002,-0.028999999999999998,-0.037000000000000005,-0.046,-0.055,-0.063,-0.069,-0.076,-0.08,-0.084,-0.08800000000000001,-0.091,-0.092,-0.09300000000000001,-0.09300000000000001,-0.094,-0.09300000000000001,-0.092,-0.091,-0.09,-0.08900000000000001,-0.08800000000000001,-0.08800000000000001,-0.087,-0.084,-0.081,-0.076,-0.07,-0.057999999999999996,-0.046,-0.027000000000000003,-0.008,0.018000000000000002,0.044000000000000004,0.075,0.105,0.139,0.17300000000000001,0.212,0.25,0.294,0.337,0.385,0.43200000000000005,0.473,0.514,0.534,0.5529999999999999,0.541,0.529,0.489,0.449,0.395,0.341,0.29,0.239,0.20600000000000002,0.17300000000000001,0.159,0.14400000000000002,0.14400000000000002,0.145,0.153,0.161,0.165,0.17,0.162,0.154,0.133,0.111,0.081,0.051,0.023,-0.006,-0.025,-0.044000000000000004,-0.052000000000000005,-0.059000000000000004,-0.06,-0.06,-0.059000000000000004,-0.057,-0.057999999999999996,-0.057999999999999996,-0.062,-0.065,-0.071,-0.077,-0.084,-0.091,-0.09699999999999999,-0.102,-0.106,-0.11,-0.11199999999999999,-0.113,-0.113,-0.11199999999999999,-0.11,-0.10800000000000001,-0.107,-0.105,-0.10400000000000001,-0.10300000000000001,-0.102,-0.102,-0.1,-0.098,-0.096,-0.094,-0.092,-0.091,-0.08900000000000001,-0.087,-0.085,-0.083,-0.081,-0.08,-0.077,-0.075,-0.073,-0.07200000000000001,-0.071,-0.07,-0.068,-0.066,-0.064,-0.061,-0.059000000000000004,-0.057,-0.055999999999999994,-0.055,-0.053,-0.052000000000000005,-0.05,-0.049,-0.046,-0.044000000000000004,-0.040999999999999995,-0.037000000000000005,-0.034,-0.032,-0.03,-0.027999999999999997,-0.026000000000000002,-0.025,-0.024,-0.023,-0.022000000000000002,-0.021,-0.02,-0.018000000000000002,-0.018000000000000002,-0.017,-0.018000000000000002,-0.018000000000000002,-0.018000000000000002,-0.017,-0.016,-0.013999999999999999,-0.012,-0.01,-0.008,-0.006999999999999999,-0.005,-0.003,-0.002,-0.001,-0.0,0.0,0.0,0.0,0.0,0.001,0.002,0.004,0.005,0.006,0.006999999999999999,0.008,0.006999999999999999,0.006,0.004,0.003,0.001,-0.001,-0.002,-0.004,-0.004,-0.004,-0.004,-0.004,-0.004,-0.005,-0.006999999999999999,-0.009000000000000001,-0.011000000000000001,-0.013999999999999999,-0.017,-0.019,-0.021,-0.022000000000000002,-0.021,-0.02,-0.019,-0.018000000000000002,-0.017,-0.016,-0.016,-0.016,-0.016,-0.016,-0.015,-0.013999999999999999,-0.012,-0.01,-0.008,-0.006999999999999999,-0.006,-0.005,-0.006,-0.006999999999999999,-0.006999999999999999,-0.006999999999999999,-0.005,-0.004,-0.002,0.0,0.001,0.003,0.003,0.004,0.003,0.003,0.002,0.001,-0.001,-0.004,-0.006999999999999999,-0.01,-0.012,-0.015,-0.02,-0.024,-0.027999999999999997,-0.033,-0.036000000000000004,-0.04,-0.043,-0.046,-0.047,-0.048,-0.048,-0.049,-0.049,-0.05,-0.05,-0.05,-0.049,-0.048,-0.046,-0.045,-0.043,-0.04,-0.038,-0.036000000000000004,-0.035,-0.034,-0.035,-0.035,-0.036000000000000004,-0.036000000000000004,-0.037000000000000005,-0.038,-0.038,-0.038,-0.037000000000000005,-0.035,-0.034,-0.034,-0.033,-0.033,-0.032,-0.031,-0.03,-0.03,-0.03,-0.03,-0.028999999999999998,-0.028999999999999998,-0.026000000000000002,-0.024,-0.021,-0.017,-0.015,-0.012,-0.011000000000000001,-0.011000000000000001,-0.011000000000000001,-0.011000000000000001,-0.011000000000000001,-0.011000000000000001,-0.011000000000000001,-0.011000000000000001,-0.011000000000000001,-0.011000000000000001,-0.011000000000000001,-0.011000000000000001,-0.011000000000000001,-0.011000000000000001,-0.011000000000000001,-0.012,-0.015,-0.017,-0.018000000000000002,-0.019,-0.02,-0.021,-0.02,-0.019,-0.017,-0.013999999999999999,-0.011000000000000001,-0.009000000000000001,-0.006999999999999999,-0.005,-0.004,-0.003,-0.004,-0.005,-0.006,-0.006999999999999999,-0.008,-0.009000000000000001,-0.01,-0.011000000000000001,-0.011000000000000001,-0.011000000000000001,-0.011000000000000001,-0.011000000000000001,-0.01,-0.01,-0.009000000000000001,-0.008,-0.006999999999999999,-0.006999999999999999,-0.006,-0.006,-0.005,-0.004,-0.002,-0.001,0.0,0.001,0.003,0.005,0.008,0.011000000000000001,0.016,0.02,0.027000000000000003,0.034,0.040999999999999995,0.049,0.057999999999999996,0.067,0.077,0.086,0.094,0.102,0.107,0.113,0.11699999999999999,0.121,0.124,0.127,0.131,0.134,0.136,0.139,0.14,0.141,0.139,0.138,0.135,0.132,0.128,0.124,0.11800000000000001,0.113,0.107,0.10099999999999999,0.092,0.084,0.075,0.066,0.059000000000000004,0.053,0.045,0.037000000000000005,0.028999999999999998,0.021,0.012,0.003,-0.006,-0.015,-0.023,-0.031,-0.036000000000000004,-0.042,-0.046,-0.051,-0.054000000000000006,-0.057,-0.059000000000000004,-0.061,-0.063,-0.064,-0.066,-0.068,-0.071,-0.075,-0.078,-0.081,-0.084,-0.086,-0.087,-0.08800000000000001,-0.08800000000000001,-0.087,-0.085,-0.08199999999999999,-0.078,-0.073,-0.062,-0.051,-0.033,-0.015,0.009000000000000001,0.033,0.062,0.092,0.125,0.157,0.192,0.22699999999999998,0.265,0.303,0.344,0.386,0.428,0.47,0.5,0.529,0.5329999999999999,0.536,0.511,0.486,0.43799999999999994,0.39,0.336,0.28300000000000003,0.24,0.19699999999999998,0.174,0.15,0.145,0.139,0.145,0.15,0.158,0.165,0.16399999999999998,0.163,0.149,0.135,0.11,0.084,0.055999999999999994,0.027999999999999997,0.005,-0.017,-0.03,-0.042,-0.045,-0.048,-0.046,-0.045,-0.045,-0.045,-0.049,-0.054000000000000006,-0.061,-0.068,-0.075,-0.08199999999999999,-0.08900000000000001,-0.095,-0.099,-0.102,-0.10400000000000001,-0.106,-0.107,-0.107,-0.107,-0.107,-0.106,-0.105,-0.102,-0.1,-0.09699999999999999,-0.095,-0.092,-0.09,-0.08900000000000001,-0.087,-0.085,-0.083,-0.08199999999999999,-0.08,-0.079,-0.077,-0.07400000000000001,-0.07200000000000001,-0.069,-0.066,-0.064,-0.061,-0.059000000000000004,-0.057,-0.055,-0.053,-0.052000000000000005,-0.052000000000000005,-0.051,-0.05,-0.049,-0.048,-0.046,-0.045,-0.043,-0.040999999999999995,-0.04,-0.038,-0.037000000000000005,-0.035,-0.034,-0.033,-0.031,-0.028999999999999998,-0.026000000000000002,-0.024,-0.022000000000000002,-0.02,-0.019,-0.018000000000000002,-0.018000000000000002,-0.017,-0.017,-0.017,-0.016,-0.013999999999999999,-0.012,-0.01,-0.008,-0.006999999999999999,-0.005,-0.004,-0.004,-0.004,-0.004,-0.004,-0.004,-0.005,-0.005,-0.006,-0.005,-0.005,-0.004,-0.003,-0.001,0.0,0.002,0.005,0.006999999999999999,0.01,0.01,0.011000000000000001,0.01,0.01,0.008,0.006999999999999999,0.003,0.0,-0.003,-0.006999999999999999,-0.009000000000000001,-0.011000000000000001,-0.013000000000000001,-0.015,-0.017,-0.019,-0.022000000000000002,-0.024,-0.025,-0.026000000000000002,-0.025,-0.024,-0.023,-0.021,-0.019,-0.016,-0.013000000000000001,-0.011000000000000001,-0.009000000000000001,-0.006999999999999999,-0.006,-0.006,-0.005,-0.005,-0.004,-0.003,-0.001,0.001,0.004,0.006999999999999999,0.009000000000000001,0.011000000000000001,0.011000000000000001,0.011000000000000001,0.011000000000000001,0.011000000000000001,0.011000000000000001,0.011000000000000001,0.011000000000000001,0.011000000000000001,0.011000000000000001,0.011000000000000001,0.01,0.01,0.008,0.006999999999999999,0.004,0.002,0.0,-0.001,-0.003,-0.006,-0.009000000000000001,-0.011000000000000001,-0.015,-0.018000000000000002,-0.021,-0.023,-0.026000000000000002,-0.028999999999999998,-0.031,-0.034,-0.036000000000000004,N
