0,0.007,0.004,0.001,-0.002,-0.005,-0.009,-0.012,-0.015,-0.017,-0.018,-0.019,-0.02,-0.021,-0.022,-0.023,-0.023,-0.023,-0.022,-0.022,-0.021,-0.02,-0.019,-0.018,-0.017,-0.016,-0.013,-0.01,-0.008,-0.006,-0.004,-0.001,0.001,0.002,0.004,0.006,0.008,0.009,0.01,0.01,0.011,0.012,0.013,0.015,0.015,0.016,0.015,0.015,0.015,0.015,0.015,0.015,0.015,0.015,0.015,0.016,0.017,0.018,0.019,0.021,0.022,0.023,0.025,0.027,0.029,0.031,0.033,0.035,0.039,0.042,0.046,0.05,0.052,0.054,0.056,0.059,0.062,0.065,0.069,0.073,0.077,0.081,0.085,0.089,0.092,0.095,0.098,0.1,0.105,0.109,0.114,0.119,0.125,0.131,0.137,0.143,0.148,0.152,0.154,0.156,0.158,0.16,0.161,0.162,0.16,0.158,0.156,0.154,0.152,0.149,0.146,0.142,0.138,0.135,0.13,0.125,0.12,0.115,0.109,0.103,0.097,0.092,0.086,0.08,0.073,0.065,0.06,0.054,0.049,0.045,0.039,0.033,0.028,0.024,0.021,0.018,0.016,0.013,0.012,0.011,0.01,0.009,0.009,0.008,0.007,0.005,0.004,0.003,0.001,-0.001,-0.003,-0.005,-0.006,-0.007,-0.008,-0.008,-0.008,-0.008,-0.008,-0.007,-0.007,-0.007,-0.008,-0.008,-0.008,-0.007,-0.005,-0.003,-0.002,-0.001,0.0,0.001,0.002,0.003,0.003,0.003,0.004,0.004,0.005,0.006,0.008,0.009,0.01,0.01,0.01,0.01,0.009,0.008,0.007,0.006,0.007,0.008,0.009,0.01,0.011,0.012,0.013,0.015,0.015,0.016,0.015,0.015,0.015,0.015,0.014,0.013,0.012,0.01,0.009,0.007,0.007,0.007,0.009,0.01,0.011,0.012,0.013,0.015,0.015,0.016,0.015,0.015,0.015,0.015,0.014,0.013,0.012,0.011,0.011,0.01,0.011,0.011,0.012,0.012,0.014,0.016,0.017,0.019,0.019,0.02,0.019,0.019,0.018,0.018,0.016,0.015,0.012,0.01,0.008,0.006,0.004,0.002,0.001,0.0,-0.001,-0.002,-0.003,-0.003,-0.004,-0.004,-0.005,-0.005,-0.006,-0.007,-0.008,-0.009,-0.011,-0.012,-0.016,-0.019,-0.023,-0.028,-0.035,-0.042,-0.049,-0.056,-0.056,-0.057,-0.049,-0.041,-0.024,-0.006,0.023,0.053,0.09,0.126,0.167,0.208,0.252,0.295,0.337,0.378,0.409,0.439,0.45,0.46,0.445,0.431,0.393,0.355,0.303,0.252,0.2,0.149,0.111,0.074,0.052,0.031,0.023,0.016,0.015,0.013,0.013,0.013,0.012,0.01,0.008,0.006,0.004,0.001,-0.002,-0.005,-0.009,-0.012,-0.015,-0.017,-0.018,-0.019,-0.019,-0.02,-0.02,-0.02,-0.02,-0.02,-0.02,-0.02,-0.019,-0.019,-0.017,-0.016,-0.013,-0.01,-0.009,-0.007,-0.006,-0.004,-0.004,-0.003,-0.002,-0.001,0.0,0.001,0.002,0.003,0.003,0.003,0.003,0.003,0.004,0.004,0.006,0.007,0.009,0.011,0.012,0.012,0.013,0.015,0.015,0.016,0.015,0.015,0.015,0.015,0.015,0.016,0.017,0.019,0.021,0.024,0.025,0.026,0.027,0.028,0.029,0.03,0.033,0.035,0.039,0.042,0.046,0.05,0.052,0.055,0.059,0.062,0.066,0.069,0.074,0.079,0.083,0.088,0.092,0.095,0.098,0.1,0.104,0.108,0.112,0.116,0.121,0.126,0.13,0.134,0.136,0.138,0.139,0.14,0.139,0.139,0.138,0.137,0.135,0.134,0.131,0.127,0.123,0.119,0.115,0.112,0.108,0.104,0.099,0.095,0.09,0.085,0.079,0.073,0.065,0.058,0.052,0.046,0.04,0.035,0.03,0.025,0.021,0.018,0.016,0.015,0.014,0.013,0.012,0.01,0.008,0.006,0.004,0.001,-0.001,-0.003,N,,,,,,,,,,,,,,,,,,,,,,,,,,,,,,,,,,,,,,,,,,,,,,,,,,,,,,,,,,,,,,,,,,,,,,,,,,,,,,,,,,,,,,,,,,,,,,,,,,,,,,,,,,,,,,,,,,,,,,,,,,,,,,,,,,,,,,,,,,,,,,,,,,,,,,,,,,,,,,,,,,,,,,,,,,,,,,,,,,,,,,,,,,,,,,,,,,,,,,,,,,,,,,,,,,,,,,,,,,,,,,,,,,,,,,,,,,,,,,,,,,,,,,,,,,,,,,,,,,,,,,,,,,,,,,,,,,,,,,,,,,,,,,,,,,,,,,,,,,,,,,,,,,,,,,,,,,,,,,,,,,,,,,,,,,,,,,,,,,,,,,,,,,,,,,,,,,,,,,,,,,,,,,,,,,,,,,,,,,,,,,,,,,,,,,,,,,,,,,,,,,,,,,,,,,,,,,,,,,,,,,,,,,,,,,,,,,,,,,,,,,,,,,,,,,,,,,,,,,,,,,,,,,,,,,,,,,,,,,,,,,,,,,,,,,,,,,,,,,,,,,,,,,,,,,,,,,,,,,,,,,,,,,,,,,,,,,,,,,,,,
1,-0.02,-0.022,-0.024,-0.026,-0.029,-0.032,-0.034,-0.035,-0.036,-0.037,-0.037,-0.038,-0.039,-0.04,-0.041,-0.041,-0.041,-0.04,-0.038,-0.037,-0.036,-0.036,-0.035,-0.034,-0.033,-0.032,-0.031,-0.031,-0.03,-0.03,-0.03,-0.029,-0.028,-0.027,-0.026,-0.026,-0.026,-0.025,-0.024,-0.023,-0.022,-0.02,-0.019,-0.017,-0.016,-0.014,-0.012,-0.01,-0.008,-0.005,-0.002,0.001,0.004,0.006,0.007,0.008,0.009,0.01,0.01,0.011,0.012,0.013,0.015,0.015,0.016,0.015,0.015,0.015,0.016,0.017,0.018,0.02,0.022,0.024,0.027,0.032,0.036,0.041,0.047,0.051,0.056,0.061,0.065,0.07,0.075,0.079,0.084,0.089,0.094,0.098,0.103,0.108,0.113,0.118,0.122,0.127,0.132,0.136,0.14,0.143,0.146,0.149,0.151,0.152,0.152,0.151,0.15,0.148,0.146,0.142,0.139,0.134,0.129,0.124,0.119,0.113,0.107,0.101,0.095,0.089,0.083,0.076,0.068,0.062,0.055,0.048,0.041,0.035,0.029,0.024,0.02,0.017,0.015,0.012,0.009,0.005,0.001,-0.004,-0.009,-0.013,-0.018,-0.021,-0.024,-0.025,-0.027,-0.028,-0.029,-0.03,-0.03,-0.031,-0.031,-0.031,-0.031,-0.031,-0.031,-0.031,-0.031,-0.031,-0.031,-0.031,-0.031,-0.031,-0.031,-0.031,-0.031,-0.031,-0.031,-0.031,-0.03,-0.029,-0.028,-0.027,-0.026,-0.026,-0.027,-0.026,-0.026,-0.025,-0.024,-0.023,-0.023,-0.022,-0.022,-0.021,-0.02,-0.019,-0.019,-0.019,-0.02,-0.02,-0.02,-0.02,-0.02,-0.02,-0.02,-0.02,-0.02,-0.02,-0.02,-0.02,-0.021,-0.022,-0.023,-0.023,-0.023,-0.023,-0.023,-0.023,-0.023,-0.022,-0.022,-0.021,-0.02,-0.02,-0.02,-0.022,-0.024,-0.025,-0.027,-0.027,-0.027,-0.025,-0.023,-0.02,-0.018,-0.015,-0.011,-0.008,-0.005,-0.003,-0.001,-0.001,0.0,-0.001,-0.002,-0.005,-0.007,-0.01,-0.012,-0.015,-0.017,-0.017,-0.017,-0.014,-0.011,-0.007,-0.002,0.001,0.004,0.006,0.007,0.007,0.007,0.004,0.001,-0.004,-0.008,-0.013,-0.018,-0.021,-0.024,-0.026,-0.028,-0.03,-0.031,-0.031,-0.031,-0.031,-0.031,-0.031,-0.031,-0.031,-0.031,-0.031,-0.031,-0.032,-0.032,-0.034,-0.035,-0.038,-0.04,-0.045,-0.049,-0.055,-0.061,-0.065,-0.069,-0.066,-0.063,-0.051,-0.038,-0.015,0.009,0.044,0.078,0.12,0.162,0.208,0.254,0.3,0.347,0.387,0.428,0.454,0.481,0.484,0.488,0.463,0.439,0.389,0.339,0.277,0.214,0.158,0.102,0.062,0.023,0.004,-0.015,-0.018,-0.022,-0.019,-0.017,-0.015,-0.012,-0.013,-0.015,-0.018,-0.021,-0.024,-0.028,-0.03,-0.032,-0.034,-0.035,-0.037,-0.039,-0.04,-0.041,-0.042,-0.042,-0.042,-0.041,-0.041,-0.04,-0.039,-0.038,-0.038,-0.037,-0.036,-0.034,-0.033,-0.031,-0.031,-0.03,-0.031,-0.031,-0.031,-0.031,-0.031,-0.03,-0.029,-0.028,-0.026,-0.025,-0.024,-0.023,-0.021,-0.02,-0.019,-0.018,-0.017,-0.016,-0.013,-0.01,-0.009,-0.007,-0.005,-0.003,-0.001,0.001,0.004,0.007,0.01,0.012,0.013,0.015,0.015,0.016,0.015,0.015,0.015,0.015,0.015,0.016,0.017,0.019,0.022,0.025,0.028,0.031,0.036,0.04,0.045,0.049,0.052,0.056,0.059,0.062,0.066,0.07,0.076,0.081,0.085,0.09,0.095,0.1,0.107,0.113,0.12,0.126,0.133,0.139,0.144,0.149,0.153,0.157,0.16,0.163,0.163,0.163,0.161,0.158,0.155,0.152,0.147,0.142,0.136,0.129,0.124,0.118,0.112,0.107,0.1,0.094,0.087,0.08,0.073,0.065,0.059,0.052,0.046,0.039,0.033,0.027,0.022,0.017,0.012,0.007,0.003,-0.002,-0.007,-0.012,-0.017,-0.022,-0.025,-0.028,-0.03,-0.032,-0.033,-0.034,-0.035,-0.036,-0.037,-0.038,-0.04,-0.042,-0.044,-0.046,-0.046,-0.047,-0.046,-0.045,-0.044,-0.042,-0.041,-0.04,-0.039,-0.037,-0.036,-0.034,-0.033,-0.031,-0.031,-0.03,-0.031,-0.031,-0.031,-0.031,-0.031,-0.031,-0.031,-0.031,-0.031,-0.031,-0.031,-0.03,-0.029,-0.028,-0.026,-0.025,-0.024,-0.024,-0.023,-0.022,-0.021,-0.02,-0.019,-0.019,-0.02,-0.021,-0.022,-0.023,-0.023,-0.023,-0.023,-0.023,-0.023,-0.023,-0.023,-0.023,-0.023,-0.023,-0.023,-0.023,-0.023,-0.023,-0.023,-0.023,-0.023,-0.023,-0.023,-0.023,-0.023,-0.023,-0.023,-0.023,-0.022,-0.022,-0.021,-0.02,-0.019,-0.018,-0.017,-0.016,-0.013,-0.011,-0.011,-0.011,-0.012,-0.012,-0.015,-0.017,-0.018,-0.019,-0.019,-0.02,-0.018,-0.017,-0.012,-0.008,-0.003,0.002,0.005,0.008,0.01,0.011,0.01,0.009,0.006,0.003,-0.002,-0.007,-0.012,-0.017,-0.021,-0.025,-0.026,-0.028,-0.029,-0.03,-0.031,-0.031,-0.031,-0.031,-0.031,-0.031,-0.031,-0.031,-0.031,-0.031,-0.032,-0.032,-0.034,-0.035,-0.039,-0.042,-0.049,-0.055,-0.061,-0.066,-0.069,-0.071,-0.067,-0.062,-0.047,-0.032,-0.005,0.023,0.062,0.1,0.146,0.192,0.241,0.29,0.339,0.387,0.428,0.469,0.49,0.512,0.506,0.501,0.468,0.434,0.377,0.32,0.256,0.193,0.138,0.083,0.047,0.011,-0.004,-0.019,-0.021,-0.024,-0.023,-0.022,-0.022,-0.023,-0.025,-0.028,-0.032,-0.036,-0.04,-0.044,-0.047,-0.051,-0.052,-0.054,-0.054,-0.054,-0.053,-0.052,-0.051,-0.05,-0.05,-0.05,-0.05,-0.05,-0.049,-0.049,-0.047,-0.045,-0.044,-0.042,-0.041,-0.04,-0.039,-0.038,-0.038,-0.037,-0.036,-0.034,-0.033,-0.031,-0.03,-0.029,-0.028,-0.028,-0.027,-0.026,-0.026,-0.027,-0.027,-0.027,-0.027,-0.027,-0.026,-0.026,-0.024,-0.023,-0.021,-0.019,-0.016,-0.013,-0.01,-0.007,-0.005,-0.003,-0.001,0.001,0.004,0.007,0.01,0.012,0.013,0.015,0.015,0.016,0.016,0.016,0.017,0.019,0.022,0.025,0.028,0.031,0.036,0.04,0.045,0.05,0.054,0.059,0.063,0.066,0.07,0.075,0.081,0.088,0.095,0.102,0.107,0.113,0.12,0.126,0.133,0.139,0.143,0.148,0.151,0.153,0.154,0.155,0.155,0.154,0.152,0.15,0.146,0.142,0.138,0.134,0.129,0.125,0.12,0.115,0.109,0.103,0.097,0.092,0.086,0.08,0.072,0.064,0.057,0.05,0.044,0.038,0.033,0.028,0.022,0.016,0.01,0.005,0.001,-0.003,-0.008,-0.013,-0.019,-0.024,-0.026,-0.029,-0.031,-0.032,-0.033,-0.034,-0.035,-0.036,-0.037,-0.037,-0.038,-0.038,-0.038,-0.038,-0.039,-0.039,-0.04,-0.041,-0.042,-0.042,-0.042,-0.041,-0.041,-0.041,-0.041,-0.041,-0.041,-0.04,-0.039,-0.037,-0.036,-0.034,-0.033,-0.031,-0.031,-0.03,-0.031,-0.031,-0.031,-0.031,-0.031,-0.03,-0.029,-0.028,-0.026,-0.025,-0.024,-0.024,-0.023,-0.022,-0.021,-0.02,-0.019,-0.019,-0.019,-0.02,-0.02,-0.02,-0.02,-0.021,-0.022,-0.023,-0.023,-0.023,-0.022,-0.022,-0.021,-0.02,-0.019,-0.018,-0.017,-0.017,-0.016,-0.016,-0.016,-0.016,-0.017,-0.019,-0.019,-0.02,-0.02,-0.02,-0.019,-0.019,-0.018,-0.017,-0.016,-0.015,-0.012,-0.01,-0.009,-0.007,-0.006,-0.004,-0.005,-0.006,-0.008,-0.01,-0.012,-0.013,-0.013,-0.013,-0.01,-0.007,-0.003,0.001,0.005,0.008,0.01,0.011,0.011,0.01,0.008,0.006,0.002,-0.003,-0.008,-0.013,-0.019,-0.024,-0.026,-0.029,-0.03,-0.031,-0.031,-0.031,-0.031,-0.031,-0.031,-0.031,-0.031,-0.031,-0.031,-0.031,-0.032,-0.032,-0.034,-0.036,-0.04,-0.044,-0.049,-0.054,-0.06,-0.066,-0.071,-0.077,-0.076,-0.076,-0.065,-0.054,-0.031,-0.008,0.026,0.061,0.105,0.149,0.197,0.245,0.296,0.347,0.393,0.439,0.471,0.503,0.511,0.519,0.497,0.475,0.426,0.377,0.313,0.249,0.187,0.125,0.081,0.036,0.013,-0.01,-0.018,-0.026,-0.027,-0.028,-0.028,-0.028,-0.03,-0.031,-0.034,-0.036,-0.04,-0.044,-0.048,-0.052,-0.055,-0.058,-0.06,-0.061,-0.061,-0.061,-0.061,-0.061,-0.061,-0.06,-0.059,-0.057,-0.055,-0.054,-0.053,-0.052,-0.05,N
2,-0.013,-0.015,-0.018,-0.021,-0.024,-0.028,-0.03,-0.032,-0.034,-0.035,-0.037,-0.039,-0.04,-0.041,-0.042,-0.042,-0.042,-0.041,-0.041,-0.04,-0.039,-0.038,-0.038,-0.037,-0.036,-0.034,-0.033,-0.031,-0.031,-0.03,-0.031,-0.031,-0.031,-0.031,-0.031,-0.03,-0.029,-0.028,-0.026,-0.025,-0.024,-0.023,-0.021,-0.02,-0.019,-0.018,-0.017,-0.016,-0.013,-0.01,-0.009,-0.007,-0.005,-0.003,-0.001,0.001,0.004,0.007,0.01,0.012,0.013,0.015,0.015,0.016,0.015,0.015,0.015,0.015,0.015,0.016,0.017,0.019,0.022,0.025,0.028,0.031,0.036,0.04,0.045,0.049,0.052,0.056,0.059,0.062,0.066,0.07,0.076,0.081,0.085,0.09,0.095,0.1,0.107,0.113,0.12,0.126,0.133,0.139,0.144,0.149,0.153,0.157,0.16,0.163,0.163,0.163,0.161,0.158,0.155,0.152,0.147,0.142,0.136,0.129,0.124,0.118,0.112,0.107,0.1,0.094,0.087,0.08,0.073,0.065,0.059,0.052,0.046,0.039,0.033,0.027,0.022,0.017,0.012,0.007,0.003,-0.002,-0.007,-0.012,-0.017,-0.022,-0.025,-0.028,-0.03,-0.032,-0.033,-0.034,-0.035,-0.036,-0.037,-0.038,-0.04,-0.042,-0.044,-0.046,-0.046,-0.047,-0.046,-0.045,-0.044,-0.042,-0.041,-0.04,-0.039,-0.037,-0.036,-0.034,-0.033,-0.031,-0.031,-0.03,-0.031,-0.031,-0.031,-0.031,-0.031,-0.031,-0.031,-0.031,-0.031,-0.031,-0.031,-0.03,-0.029,-0.028,-0.026,-0.025,-0.024,-0.024,-0.023,-0.022,-0.021,-0.02,-0.019,-0.019,-0.02,-0.021,-0.022,-0.023,-0.023,-0.023,-0.023,-0.023,-0.023,-0.023,-0.023,-0.023,-0.023,-0.023,-0.023,-0.023,-0.023,-0.023,-0.023,-0.023,-0.023,-0.023,-0.023,-0.023,-0.023,-0.023,-0.023,-0.023,-0.022,-0.022,-0.021,-0.02,-0.019,-0.018,-0.017,-0.016,-0.013,-0.011,-0.011,-0.011,-0.012,-0.012,-0.015,-0.017,-0.018,-0.019,-0.019,-0.02,-0.018,-0.017,-0.012,-0.008,-0.003,0.002,0.005,0.008,0.01,0.011,0.01,0.009,0.006,0.003,-0.002,-0.007,-0.012,-0.017,-0.021,-0.025,-0.026,-0.028,-0.029,-0.03,-0.031,-0.031,-0.031,-0.031,-0.031,-0.031,-0.031,-0.031,-0.031,-0.031,-0.032,-0.032,-0.034,-0.035,-0.039,-0.042,-0.049,-0.055,-0.061,-0.066,-0.069,-0.071,-0.067,-0.062,-0.047,-0.032,-0.005,0.023,0.062,0.1,0.146,0.192,0.241,0.29,0.339,0.387,0.428,0.469,0.49,0.512,0.506,0.501,0.468,0.434,0.377,0.32,0.256,0.193,0.138,0.083,0.047,0.011,-0.004,-0.019,-0.021,-0.024,-0.023,-0.022,-0.022,-0.023,-0.025,-0.028,-0.032,-0.036,-0.04,-0.044,-0.047,-0.051,-0.052,-0.054,-0.054,-0.054,-0.053,-0.052,-0.051,-0.05,-0.05,-0.05,-0.05,-0.05,-0.049,-0.049,-0.047,-0.045,-0.044,-0.042,-0.041,-0.04,-0.039,-0.038,-0.038,-0.037,-0.036,-0.034,-0.033,-0.031,-0.03,-0.029,-0.028,-0.028,-0.027,-0.026,-0.026,-0.027,-0.027,-0.027,-0.027,-0.027,-0.026,-0.026,-0.024,-0.023,-0.021,-0.019,-0.016,-0.013,-0.01,-0.007,-0.005,-0.003,-0.001,0.001,0.004,0.007,0.01,0.012,0.013,0.015,0.015,0.016,0.016,0.016,0.017,0.019,0.022,0.025,0.028,0.031,0.036,0.04,0.045,0.05,0.054,0.059,0.063,0.066,0.07,0.075,0.081,0.088,0.095,0.102,0.107,0.113,0.12,0.126,0.133,0.139,0.143,0.148,0.151,0.153,0.154,0.155,0.155,0.154,0.152,0.15,0.146,0.142,0.138,0.134,0.129,0.125,0.12,0.115,0.109,0.103,0.097,0.092,0.086,0.08,0.072,0.064,0.057,0.05,0.044,0.038,0.033,0.028,0.022,0.016,0.01,0.005,0.001,-0.003,-0.008,-0.013,-0.019,-0.024,-0.026,-0.029,-0.031,-0.032,-0.033,-0.034,-0.035,-0.036,-0.037,-0.037,-0.038,-0.038,-0.038,-0.038,-0.039,-0.039,-0.04,-0.041,-0.042,-0.042,-0.042,-0.041,-0.041,-0.041,-0.041,-0.041,-0.041,-0.04,-0.039,-0.037,-0.036,-0.034,-0.033,-0.031,-0.031,-0.03,-0.031,-0.031,-0.031,-0.031,-0.031,-0.03,-0.029,-0.028,-0.026,-0.025,-0.024,-0.024,-0.023,-0.022,-0.021,-0.02,-0.019,-0.019,-0.019,-0.02,-0.02,-0.02,-0.02,-0.021,-0.022,-0.023,-0.023,-0.023,-0.022,-0.022,-0.021,-0.02,-0.019,-0.018,-0.017,-0.017,-0.016,-0.016,-0.016,-0.016,-0.017,-0.019,-0.019,-0.02,-0.02,-0.02,-0.019,-0.019,-0.018,-0.017,-0.016,-0.015,-0.012,-0.01,-0.009,-0.007,-0.006,-0.004,-0.005,-0.006,-0.008,-0.01,-0.012,-0.013,-0.013,-0.013,-0.01,-0.007,-0.003,0.001,0.005,0.008,0.01,0.011,0.011,0.01,0.008,0.006,0.002,-0.003,-0.008,-0.013,-0.019,-0.024,-0.026,-0.029,-0.03,-0.031,-0.031,-0.031,-0.031,-0.031,-0.031,-0.031,-0.031,-0.031,-0.031,-0.031,-0.032,-0.032,-0.034,-0.036,-0.04,-0.044,-0.049,-0.054,-0.06,-0.066,-0.071,-0.077,-0.076,-0.076,-0.065,-0.054,-0.031,-0.008,0.026,0.061,0.105,0.149,0.197,0.245,0.296,0.347,0.393,0.439,0.471,0.503,0.511,0.519,0.497,0.475,0.426,0.377,0.313,0.249,0.187,0.125,0.081,0.036,0.013,-0.01,-0.018,-0.026,-0.027,-0.028,-0.028,-0.028,-0.03,-0.031,-0.034,-0.036,-0.04,-0.044,-0.048,-0.052,-0.055,-0.058,-0.06,-0.061,-0.061,-0.061,-0.061,-0.061,-0.061,-0.06,-0.059,-0.057,-0.055,-0.054,-0.053,-0.052,-0.05,-0.049,-0.047,-0.045,-0.043,-0.041,-0.039,-0.037,-0.036,-0.034,-0.034,-0.033,-0.032,-0.031,-0.031,-0.03,-0.031,-0.031,-0.031,-0.03,-0.028,-0.027,-0.024,-0.022,-0.02,-0.019,-0.017,-0.015,-0.012,-0.01,-0.008,-0.006,-0.003,0.0,0.002,0.004,0.006,0.008,0.01,0.012,0.013,0.015,0.015,0.016,0.016,0.016,0.017,0.019,0.021,0.024,0.026,0.028,0.032,0.035,0.04,0.045,0.049,0.054,0.058,0.062,0.066,0.07,0.076,0.081,0.085,0.09,0.095,0.1,0.106,0.112,0.117,0.122,0.126,0.131,0.134,0.138,0.141,0.144,0.146,0.147,0.148,0.148,0.147,0.146,0.144,0.142,0.139,0.136,0.133,0.129,0.126,0.122,0.117,0.111,0.105,0.098,0.092,0.085,0.078,0.071,0.064,0.057,0.05,0.042,0.037,0.031,0.026,0.021,0.017,0.012,0.009,0.005,0.001,-0.003,-0.008,-0.012,-0.017,-0.021,-0.023,-0.025,-0.026,-0.028,-0.029,-0.03,-0.031,-0.032,-0.033,-0.034,-0.035,-0.035,-0.035,-0.034,-0.034,-0.034,-0.034,-0.034,-0.034,-0.033,-0.032,-0.031,-0.031,-0.03,-0.031,-0.031,-0.031,-0.031,-0.031,-0.031,-0.031,-0.031,-0.031,-0.031,-0.031,-0.031,-0.031,-0.03,-0.029,-0.028,-0.026,-0.025,-0.024,-0.024,-0.023,-0.023,-0.023,-0.023,-0.022,-0.022,-0.02,-0.019,-0.017,-0.016,-0.015,-0.013,-0.013,-0.012,-0.011,-0.01,-0.01,-0.009,-0.009,-0.009,-0.009,-0.008,-0.008,-0.007,-0.007,-0.007,-0.008,-0.009,-0.01,-0.011,-0.012,-0.012,-0.014,-0.016,-0.016,-0.016,-0.015,-0.013,-0.011,-0.008,-0.006,-0.003,-0.001,0.001,0.002,0.003,0.003,0.002,0.0,-0.002,-0.005,-0.007,-0.008,-0.009,-0.009,-0.008,-0.005,-0.001,0.003,0.006,0.009,0.011,0.013,0.015,0.015,0.016,0.014,0.012,0.009,0.006,0.002,-0.003,-0.008,-0.012,-0.017,-0.022,-0.024,-0.027,-0.028,-0.029,-0.03,-0.03,-0.031,-0.031,-0.031,-0.031,-0.031,-0.031,-0.031,-0.031,-0.032,-0.032,-0.034,-0.036,-0.041,-0.046,-0.052,-0.059,-0.064,-0.069,-0.069,-0.069,-0.062,-0.054,-0.035,-0.016,0.015,0.046,0.084,0.123,0.169,0.214,0.263,0.312,0.357,0.403,0.437,0.47,0.482,0.494,0.479,0.463,0.419,0.376,0.316,0.257,0.197,0.138,0.094,0.05,0.024,-0.001,-0.01,-0.02,-0.02,-0.02,-0.019,-0.018,-0.019,-0.02,-0.022,-0.025,-0.028,-0.032,-0.035,-0.038,-0.041,-0.045,-0.047,-0.05,-0.052,-0.055,-0.055,-0.056,-0.055,-0.054,-0.053,-0.053,-0.053,-0.053,-0.053,-0.053,-0.051,-0.05,N
3,-0.028,-0.032,-0.036,-0.04,-0.044,-0.047,-0.051,-0.052,-0.054,-0.054,-0.054,-0.053,-0.052,-0.051,-0.05,-0.05,-0.05,-0.05,-0.05,-0.049,-0.049,-0.047,-0.045,-0.044,-0.042,-0.041,-0.04,-0.039,-0.038,-0.038,-0.037,-0.036,-0.034,-0.033,-0.031,-0.03,-0.029,-0.028,-0.028,-0.027,-0.026,-0.026,-0.027,-0.027,-0.027,-0.027,-0.027,-0.026,-0.026,-0.024,-0.023,-0.021,-0.019,-0.016,-0.013,-0.01,-0.007,-0.005,-0.003,-0.001,0.001,0.004,0.007,0.01,0.012,0.013,0.015,0.015,0.016,0.016,0.016,0.017,0.019,0.022,0.025,0.028,0.031,0.036,0.04,0.045,0.05,0.054,0.059,0.063,0.066,0.07,0.075,0.081,0.088,0.095,0.102,0.107,0.113,0.12,0.126,0.133,0.139,0.143,0.148,0.151,0.153,0.154,0.155,0.155,0.154,0.152,0.15,0.146,0.142,0.138,0.134,0.129,0.125,0.12,0.115,0.109,0.103,0.097,0.092,0.086,0.08,0.072,0.064,0.057,0.05,0.044,0.038,0.033,0.028,0.022,0.016,0.01,0.005,0.001,-0.003,-0.008,-0.013,-0.019,-0.024,-0.026,-0.029,-0.031,-0.032,-0.033,-0.034,-0.035,-0.036,-0.037,-0.037,-0.038,-0.038,-0.038,-0.038,-0.039,-0.039,-0.04,-0.041,-0.042,-0.042,-0.042,-0.041,-0.041,-0.041,-0.041,-0.041,-0.041,-0.04,-0.039,-0.037,-0.036,-0.034,-0.033,-0.031,-0.031,-0.03,-0.031,-0.031,-0.031,-0.031,-0.031,-0.03,-0.029,-0.028,-0.026,-0.025,-0.024,-0.024,-0.023,-0.022,-0.021,-0.02,-0.019,-0.019,-0.019,-0.02,-0.02,-0.02,-0.02,-0.021,-0.022,-0.023,-0.023,-0.023,-0.022,-0.022,-0.021,-0.02,-0.019,-0.018,-0.017,-0.017,-0.016,-0.016,-0.016,-0.016,-0.017,-0.019,-0.019,-0.02,-0.02,-0.02,-0.019,-0.019,-0.018,-0.017,-0.016,-0.015,-0.012,-0.01,-0.009,-0.007,-0.006,-0.004,-0.005,-0.006,-0.008,-0.01,-0.012,-0.013,-0.013,-0.013,-0.01,-0.007,-0.003,0.001,0.005,0.008,0.01,0.011,0.011,0.01,0.008,0.006,0.002,-0.003,-0.008,-0.013,-0.019,-0.024,-0.026,-0.029,-0.03,-0.031,-0.031,-0.031,-0.031,-0.031,-0.031,-0.031,-0.031,-0.031,-0.031,-0.031,-0.032,-0.032,-0.034,-0.036,-0.04,-0.044,-0.049,-0.054,-0.06,-0.066,-0.071,-0.077,-0.076,-0.076,-0.065,-0.054,-0.031,-0.008,0.026,0.061,0.105,0.149,0.197,0.245,0.296,0.347,0.393,0.439,0.471,0.503,0.511,0.519,0.497,0.475,0.426,0.377,0.313,0.249,0.187,0.125,0.081,0.036,0.013,-0.01,-0.018,-0.026,-0.027,-0.028,-0.028,-0.028,-0.03,-0.031,-0.034,-0.036,-0.04,-0.044,-0.048,-0.052,-0.055,-0.058,-0.06,-0.061,-0.061,-0.061,-0.061,-0.061,-0.061,-0.06,-0.059,-0.057,-0.055,-0.054,-0.053,-0.052,-0.05,-0.049,-0.047,-0.045,-0.043,-0.041,-0.039,-0.037,-0.036,-0.034,-0.034,-0.033,-0.032,-0.031,-0.031,-0.03,-0.031,-0.031,-0.031,-0.03,-0.028,-0.027,-0.024,-0.022,-0.02,-0.019,-0.017,-0.015,-0.012,-0.01,-0.008,-0.006,-0.003,0.0,0.002,0.004,0.006,0.008,0.01,0.012,0.013,0.015,0.015,0.016,0.016,0.016,0.017,0.019,0.021,0.024,0.026,0.028,0.032,0.035,0.04,0.045,0.049,0.054,0.058,0.062,0.066,0.07,0.076,0.081,0.085,0.09,0.095,0.1,0.106,0.112,0.117,0.122,0.126,0.131,0.134,0.138,0.141,0.144,0.146,0.147,0.148,0.148,0.147,0.146,0.144,0.142,0.139,0.136,0.133,0.129,0.126,0.122,0.117,0.111,0.105,0.098,0.092,0.085,0.078,0.071,0.064,0.057,0.05,0.042,0.037,0.031,0.026,0.021,0.017,0.012,0.009,0.005,0.001,-0.003,-0.008,-0.012,-0.017,-0.021,-0.023,-0.025,-0.026,-0.028,-0.029,-0.03,-0.031,-0.032,-0.033,-0.034,-0.035,-0.035,-0.035,-0.034,-0.034,-0.034,-0.034,-0.034,-0.034,-0.033,-0.032,-0.031,-0.031,-0.03,-0.031,-0.031,-0.031,-0.031,-0.031,-0.031,-0.031,-0.031,-0.031,-0.031,-0.031,-0.031,-0.031,-0.03,-0.029,-0.028,-0.026,-0.025,-0.024,-0.024,-0.023,-0.023,-0.023,-0.023,-0.022,-0.022,-0.02,-0.019,-0.017,-0.016,-0.015,-0.013,-0.013,-0.012,-0.011,-0.01,-0.01,-0.009,-0.009,-0.009,-0.009,-0.008,-0.008,-0.007,-0.007,-0.007,-0.008,-0.009,-0.01,-0.011,-0.012,-0.012,-0.014,-0.016,-0.016,-0.016,-0.015,-0.013,-0.011,-0.008,-0.006,-0.003,-0.001,0.001,0.002,0.003,0.003,0.002,0.0,-0.002,-0.005,-0.007,-0.008,-0.009,-0.009,-0.008,-0.005,-0.001,0.003,0.006,0.009,0.011,0.013,0.015,0.015,0.016,0.014,0.012,0.009,0.006,0.002,-0.003,-0.008,-0.012,-0.017,-0.022,-0.024,-0.027,-0.028,-0.029,-0.03,-0.03,-0.031,-0.031,-0.031,-0.031,-0.031,-0.031,-0.031,-0.031,-0.032,-0.032,-0.034,-0.036,-0.041,-0.046,-0.052,-0.059,-0.064,-0.069,-0.069,-0.069,-0.062,-0.054,-0.035,-0.016,0.015,0.046,0.084,0.123,0.169,0.214,0.263,0.312,0.357,0.403,0.437,0.47,0.482,0.494,0.479,0.463,0.419,0.376,0.316,0.257,0.197,0.138,0.094,0.05,0.024,-0.001,-0.01,-0.02,-0.02,-0.02,-0.019,-0.018,-0.019,-0.02,-0.022,-0.025,-0.028,-0.032,-0.035,-0.038,-0.041,-0.045,-0.047,-0.05,-0.052,-0.055,-0.055,-0.056,-0.055,-0.054,-0.053,-0.053,-0.053,-0.053,-0.053,-0.053,-0.051,-0.05,-0.048,-0.046,-0.043,-0.04,-0.039,-0.037,-0.036,-0.035,-0.034,-0.033,-0.032,-0.031,-0.031,-0.03,-0.031,-0.031,-0.031,-0.03,-0.028,-0.027,-0.024,-0.022,-0.02,-0.018,-0.015,-0.012,-0.011,-0.009,-0.008,-0.007,-0.005,-0.003,-0.002,0.0,0.002,0.004,0.006,0.008,0.01,0.011,0.012,0.012,0.013,0.015,0.015,0.016,0.016,0.016,0.017,0.019,0.021,0.024,0.026,0.029,0.034,0.039,0.045,0.05,0.053,0.056,0.059,0.061,0.064,0.066,0.07,0.074,0.079,0.084,0.089,0.093,0.096,0.099,0.103,0.106,0.108,0.111,0.112,0.113,0.113,0.114,0.113,0.113,0.112,0.112,0.11,0.109,0.107,0.106,0.102,0.098,0.094,0.09,0.084,0.079,0.073,0.066,0.06,0.054,0.048,0.041,0.035,0.029,0.024,0.02,0.017,0.013,0.009,0.005,-0.001,-0.006,-0.012,-0.018,-0.021,-0.025,-0.026,-0.028,-0.03,-0.031,-0.033,-0.034,-0.035,-0.036,-0.037,-0.037,-0.038,-0.039,-0.04,-0.041,-0.042,-0.042,-0.042,-0.041,-0.041,-0.04,-0.039,-0.038,-0.038,-0.038,-0.038,-0.037,-0.036,-0.035,-0.034,-0.033,-0.032,-0.031,-0.031,-0.03,-0.031,-0.031,-0.031,-0.031,-0.031,-0.031,-0.031,-0.031,-0.031,-0.031,-0.031,-0.031,-0.031,-0.031,-0.031,-0.031,-0.031,-0.031,-0.031,-0.031,-0.031,-0.031,-0.031,-0.03,-0.029,-0.028,-0.026,-0.025,-0.024,-0.024,-0.023,-0.022,-0.021,-0.02,-0.02,-0.02,-0.021,-0.023,-0.024,-0.025,-0.026,-0.027,-0.027,-0.028,-0.028,-0.029,-0.028,-0.028,-0.027,-0.026,-0.026,-0.026,-0.024,-0.023,-0.021,-0.02,-0.02,-0.02,-0.022,-0.024,-0.025,-0.027,-0.027,-0.028,-0.027,-0.027,-0.026,-0.026,-0.024,-0.022,-0.019,-0.016,-0.013,-0.01,-0.009,-0.008,-0.008,-0.008,-0.01,-0.012,-0.016,-0.02,-0.022,-0.024,-0.026,-0.029,-0.032,-0.034,-0.035,-0.036,-0.037,-0.038,-0.04,-0.041,-0.042,-0.042,-0.042,-0.041,-0.041,-0.041,-0.041,-0.041,-0.042,-0.044,-0.047,-0.05,-0.055,-0.061,-0.067,-0.073,-0.077,-0.081,-0.078,-0.075,-0.062,-0.05,-0.026,-0.003,0.029,0.061,0.1,0.139,0.181,0.224,0.266,0.309,0.346,0.383,0.405,0.428,0.428,0.429,0.403,0.377,0.33,0.283,0.227,0.172,0.123,0.075,0.042,0.01,-0.005,-0.021,-0.025,-0.029,-0.028,-0.028,-0.027,-0.027,-0.029,-0.031,-0.033,-0.034,-0.035,-0.036,-0.037,-0.038,-0.04,-0.042,-0.045,-0.047,-0.048,-0.05,-0.05,-0.05,-0.05,-0.05,-0.05,-0.05,-0.049,-0.048,-0.045,-0.042,-0.041,-0.04,-0.039,-0.037,-0.036,N
4,-0.03,-0.031,-0.034,-0.036,-0.04,-0.044,-0.048,-0.052,-0.055,-0.058,-0.06,-0.061,-0.061,-0.061,-0.061,-0.061,-0.061,-0.06,-0.059,-0.057,-0.055,-0.054,-0.053,-0.052,-0.05,-0.049,-0.047,-0.045,-0.043,-0.041,-0.039,-0.037,-0.036,-0.034,-0.034,-0.033,-0.032,-0.031,-0.031,-0.03,-0.031,-0.031,-0.031,-0.03,-0.028,-0.027,-0.024,-0.022,-0.02,-0.019,-0.017,-0.015,-0.012,-0.01,-0.008,-0.006,-0.003,0.0,0.002,0.004,0.006,0.008,0.01,0.012,0.013,0.015,0.015,0.016,0.016,0.016,0.017,0.019,0.021,0.024,0.026,0.028,0.032,0.035,0.04,0.045,0.049,0.054,0.058,0.062,0.066,0.07,0.076,0.081,0.085,0.09,0.095,0.1,0.106,0.112,0.117,0.122,0.126,0.131,0.134,0.138,0.141,0.144,0.146,0.147,0.148,0.148,0.147,0.146,0.144,0.142,0.139,0.136,0.133,0.129,0.126,0.122,0.117,0.111,0.105,0.098,0.092,0.085,0.078,0.071,0.064,0.057,0.05,0.042,0.037,0.031,0.026,0.021,0.017,0.012,0.009,0.005,0.001,-0.003,-0.008,-0.012,-0.017,-0.021,-0.023,-0.025,-0.026,-0.028,-0.029,-0.03,-0.031,-0.032,-0.033,-0.034,-0.035,-0.035,-0.035,-0.034,-0.034,-0.034,-0.034,-0.034,-0.034,-0.033,-0.032,-0.031,-0.031,-0.03,-0.031,-0.031,-0.031,-0.031,-0.031,-0.031,-0.031,-0.031,-0.031,-0.031,-0.031,-0.031,-0.031,-0.03,-0.029,-0.028,-0.026,-0.025,-0.024,-0.024,-0.023,-0.023,-0.023,-0.023,-0.022,-0.022,-0.02,-0.019,-0.017,-0.016,-0.015,-0.013,-0.013,-0.012,-0.011,-0.01,-0.01,-0.009,-0.009,-0.009,-0.009,-0.008,-0.008,-0.007,-0.007,-0.007,-0.008,-0.009,-0.01,-0.011,-0.012,-0.012,-0.014,-0.016,-0.016,-0.016,-0.015,-0.013,-0.011,-0.008,-0.006,-0.003,-0.001,0.001,0.002,0.003,0.003,0.002,0.0,-0.002,-0.005,-0.007,-0.008,-0.009,-0.009,-0.008,-0.005,-0.001,0.003,0.006,0.009,0.011,0.013,0.015,0.015,0.016,0.014,0.012,0.009,0.006,0.002,-0.003,-0.008,-0.012,-0.017,-0.022,-0.024,-0.027,-0.028,-0.029,-0.03,-0.03,-0.031,-0.031,-0.031,-0.031,-0.031,-0.031,-0.031,-0.031,-0.032,-0.032,-0.034,-0.036,-0.041,-0.046,-0.052,-0.059,-0.064,-0.069,-0.069,-0.069,-0.062,-0.054,-0.035,-0.016,0.015,0.046,0.084,0.123,0.169,0.214,0.263,0.312,0.357,0.403,0.437,0.47,0.482,0.494,0.479,0.463,0.419,0.376,0.316,0.257,0.197,0.138,0.094,0.05,0.024,-0.001,-0.01,-0.02,-0.02,-0.02,-0.019,-0.018,-0.019,-0.02,-0.022,-0.025,-0.028,-0.032,-0.035,-0.038,-0.041,-0.045,-0.047,-0.05,-0.052,-0.055,-0.055,-0.056,-0.055,-0.054,-0.053,-0.053,-0.053,-0.053,-0.053,-0.053,-0.051,-0.05,-0.048,-0.046,-0.043,-0.04,-0.039,-0.037,-0.036,-0.035,-0.034,-0.033,-0.032,-0.031,-0.031,-0.03,-0.031,-0.031,-0.031,-0.03,-0.028,-0.027,-0.024,-0.022,-0.02,-0.018,-0.015,-0.012,-0.011,-0.009,-0.008,-0.007,-0.005,-0.003,-0.002,0.0,0.002,0.004,0.006,0.008,0.01,0.011,0.012,0.012,0.013,0.015,0.015,0.016,0.016,0.016,0.017,0.019,0.021,0.024,0.026,0.029,0.034,0.039,0.045,0.05,0.053,0.056,0.059,0.061,0.064,0.066,0.07,0.074,0.079,0.084,0.089,0.093,0.096,0.099,0.103,0.106,0.108,0.111,0.112,0.113,0.113,0.114,0.113,0.113,0.112,0.112,0.11,0.109,0.107,0.106,0.102,0.098,0.094,0.09,0.084,0.079,0.073,0.066,0.06,0.054,0.048,0.041,0.035,0.029,0.024,0.02,0.017,0.013,0.009,0.005,-0.001,-0.006,-0.012,-0.018,-0.021,-0.025,-0.026,-0.028,-0.03,-0.031,-0.033,-0.034,-0.035,-0.036,-0.037,-0.037,-0.038,-0.039,-0.04,-0.041,-0.042,-0.042,-0.042,-0.041,-0.041,-0.04,-0.039,-0.038,-0.038,-0.038,-0.038,-0.037,-0.036,-0.035,-0.034,-0.033,-0.032,-0.031,-0.031,-0.03,-0.031,-0.031,-0.031,-0.031,-0.031,-0.031,-0.031,-0.031,-0.031,-0.031,-0.031,-0.031,-0.031,-0.031,-0.031,-0.031,-0.031,-0.031,-0.031,-0.031,-0.031,-0.031,-0.031,-0.03,-0.029,-0.028,-0.026,-0.025,-0.024,-0.024,-0.023,-0.022,-0.021,-0.02,-0.02,-0.02,-0.021,-0.023,-0.024,-0.025,-0.026,-0.027,-0.027,-0.028,-0.028,-0.029,-0.028,-0.028,-0.027,-0.026,-0.026,-0.026,-0.024,-0.023,-0.021,-0.02,-0.02,-0.02,-0.022,-0.024,-0.025,-0.027,-0.027,-0.028,-0.027,-0.027,-0.026,-0.026,-0.024,-0.022,-0.019,-0.016,-0.013,-0.01,-0.009,-0.008,-0.008,-0.008,-0.01,-0.012,-0.016,-0.02,-0.022,-0.024,-0.026,-0.029,-0.032,-0.034,-0.035,-0.036,-0.037,-0.038,-0.04,-0.041,-0.042,-0.042,-0.042,-0.041,-0.041,-0.041,-0.041,-0.041,-0.042,-0.044,-0.047,-0.05,-0.055,-0.061,-0.067,-0.073,-0.077,-0.081,-0.078,-0.075,-0.062,-0.05,-0.026,-0.003,0.029,0.061,0.1,0.139,0.181,0.224,0.266,0.309,0.346,0.383,0.405,0.428,0.428,0.429,0.403,0.377,0.33,0.283,0.227,0.172,0.123,0.075,0.042,0.01,-0.005,-0.021,-0.025,-0.029,-0.028,-0.028,-0.027,-0.027,-0.029,-0.031,-0.033,-0.034,-0.035,-0.036,-0.037,-0.038,-0.04,-0.042,-0.045,-0.047,-0.048,-0.05,-0.05,-0.05,-0.05,-0.05,-0.05,-0.05,-0.049,-0.048,-0.045,-0.042,-0.041,-0.04,-0.039,-0.037,-0.036,-0.035,-0.034,-0.033,-0.032,-0.031,-0.031,-0.03,-0.031,-0.031,-0.031,-0.031,-0.031,-0.03,-0.029,-0.028,-0.027,-0.026,-0.026,-0.026,-0.024,-0.023,-0.021,-0.02,-0.019,-0.018,-0.017,-0.016,-0.013,-0.01,-0.008,-0.006,-0.003,0.0,0.002,0.004,0.006,0.008,0.01,0.012,0.013,0.015,0.015,0.016,0.016,0.016,0.017,0.019,0.022,0.026,0.03,0.034,0.039,0.044,0.047,0.051,0.054,0.058,0.062,0.065,0.07,0.075,0.08,0.085,0.091,0.096,0.1,0.105,0.108,0.111,0.114,0.117,0.12,0.122,0.123,0.124,0.125,0.125,0.125,0.124,0.122,0.119,0.115,0.111,0.106,0.1,0.096,0.091,0.086,0.082,0.077,0.071,0.066,0.06,0.054,0.048,0.041,0.035,0.03,0.024,0.019,0.013,0.009,0.005,0.002,-0.002,-0.006,-0.01,-0.015,-0.02,-0.022,-0.025,-0.026,-0.028,-0.029,-0.03,-0.031,-0.031,-0.031,-0.031,-0.031,-0.031,-0.031,-0.031,-0.031,-0.031,-0.031,-0.031,-0.031,-0.031,-0.031,-0.031,-0.031,-0.031,-0.031,-0.031,-0.031,-0.031,-0.031,-0.031,-0.031,-0.031,-0.031,-0.03,-0.029,-0.028,-0.026,-0.025,-0.024,-0.024,-0.023,-0.022,-0.021,-0.02,-0.019,-0.018,-0.017,-0.016,-0.013,-0.011,-0.011,-0.011,-0.011,-0.011,-0.011,-0.01,-0.009,-0.008,-0.008,-0.007,-0.007,-0.007,-0.008,-0.008,-0.008,-0.008,-0.008,-0.007,-0.007,-0.007,-0.008,-0.008,-0.009,-0.009,-0.01,-0.011,-0.013,-0.016,-0.017,-0.019,-0.018,-0.017,-0.015,-0.013,-0.011,-0.008,-0.007,-0.005,-0.003,-0.001,-0.001,0.0,0.0,0.0,-0.001,-0.002,-0.004,-0.006,-0.008,-0.009,-0.01,-0.01,-0.008,-0.006,-0.003,0.001,0.005,0.008,0.01,0.012,0.013,0.013,0.012,0.01,0.006,0.002,-0.003,-0.007,-0.012,-0.017,-0.021,-0.025,-0.026,-0.028,-0.029,-0.03,-0.031,-0.031,-0.031,-0.031,-0.031,-0.031,-0.031,-0.031,-0.031,-0.031,-0.031,-0.031,-0.032,-0.033,-0.037,-0.04,-0.046,-0.051,-0.057,-0.063,-0.065,-0.067,-0.064,-0.061,-0.049,-0.036,-0.012,0.011,0.045,0.079,0.12,0.162,0.207,0.253,0.298,0.344,0.382,0.421,0.443,0.465,0.463,0.461,0.431,0.401,0.349,0.296,0.237,0.178,0.128,0.078,0.045,0.012,-0.002,-0.017,-0.019,-0.022,-0.021,-0.02,-0.02,-0.02,-0.022,-0.024,-0.026,-0.028,-0.03,-0.031,-0.032,-0.032,-0.033,-0.034,-0.035,-0.036,-0.037,-0.037,-0.038,-0.038,-0.038,-0.037,-0.036,-0.035,-0.034,-0.033,-0.032,-0.031,-0.031,-0.03,-0.031,-0.031,N
5,-0.025,-0.028,-0.032,-0.035,-0.038,-0.041,-0.045,-0.047,-0.05,-0.052,-0.055,-0.055,-0.056,-0.055,-0.054,-0.053,-0.053,-0.053,-0.053,-0.053,-0.053,-0.051,-0.05,-0.048,-0.046,-0.043,-0.04,-0.039,-0.037,-0.036,-0.035,-0.034,-0.033,-0.032,-0.031,-0.031,-0.03,-0.031,-0.031,-0.031,-0.03,-0.028,-0.027,-0.024,-0.022,-0.02,-0.018,-0.015,-0.012,-0.011,-0.009,-0.008,-0.007,-0.005,-0.003,-0.002,0.0,0.002,0.004,0.006,0.008,0.01,0.011,0.012,0.012,0.013,0.015,0.015,0.016,0.016,0.016,0.017,0.019,0.021,0.024,0.026,0.029,0.034,0.039,0.045,0.05,0.053,0.056,0.059,0.061,0.064,0.066,0.07,0.074,0.079,0.084,0.089,0.093,0.096,0.099,0.103,0.106,0.108,0.111,0.112,0.113,0.113,0.114,0.113,0.113,0.112,0.112,0.11,0.109,0.107,0.106,0.102,0.098,0.094,0.09,0.084,0.079,0.073,0.066,0.06,0.054,0.048,0.041,0.035,0.029,0.024,0.02,0.017,0.013,0.009,0.005,-0.001,-0.006,-0.012,-0.018,-0.021,-0.025,-0.026,-0.028,-0.03,-0.031,-0.033,-0.034,-0.035,-0.036,-0.037,-0.037,-0.038,-0.039,-0.04,-0.041,-0.042,-0.042,-0.042,-0.041,-0.041,-0.04,-0.039,-0.038,-0.038,-0.038,-0.038,-0.037,-0.036,-0.035,-0.034,-0.033,-0.032,-0.031,-0.031,-0.03,-0.031,-0.031,-0.031,-0.031,-0.031,-0.031,-0.031,-0.031,-0.031,-0.031,-0.031,-0.031,-0.031,-0.031,-0.031,-0.031,-0.031,-0.031,-0.031,-0.031,-0.031,-0.031,-0.031,-0.03,-0.029,-0.028,-0.026,-0.025,-0.024,-0.024,-0.023,-0.022,-0.021,-0.02,-0.02,-0.02,-0.021,-0.023,-0.024,-0.025,-0.026,-0.027,-0.027,-0.028,-0.028,-0.029,-0.028,-0.028,-0.027,-0.026,-0.026,-0.026,-0.024,-0.023,-0.021,-0.02,-0.02,-0.02,-0.022,-0.024,-0.025,-0.027,-0.027,-0.028,-0.027,-0.027,-0.026,-0.026,-0.024,-0.022,-0.019,-0.016,-0.013,-0.01,-0.009,-0.008,-0.008,-0.008,-0.01,-0.012,-0.016,-0.02,-0.022,-0.024,-0.026,-0.029,-0.032,-0.034,-0.035,-0.036,-0.037,-0.038,-0.04,-0.041,-0.042,-0.042,-0.042,-0.041,-0.041,-0.041,-0.041,-0.041,-0.042,-0.044,-0.047,-0.05,-0.055,-0.061,-0.067,-0.073,-0.077,-0.081,-0.078,-0.075,-0.062,-0.05,-0.026,-0.003,0.029,0.061,0.1,0.139,0.181,0.224,0.266,0.309,0.346,0.383,0.405,0.428,0.428,0.429,0.403,0.377,0.33,0.283,0.227,0.172,0.123,0.075,0.042,0.01,-0.005,-0.021,-0.025,-0.029,-0.028,-0.028,-0.027,-0.027,-0.029,-0.031,-0.033,-0.034,-0.035,-0.036,-0.037,-0.038,-0.04,-0.042,-0.045,-0.047,-0.048,-0.05,-0.05,-0.05,-0.05,-0.05,-0.05,-0.05,-0.049,-0.048,-0.045,-0.042,-0.041,-0.04,-0.039,-0.037,-0.036,-0.035,-0.034,-0.033,-0.032,-0.031,-0.031,-0.03,-0.031,-0.031,-0.031,-0.031,-0.031,-0.03,-0.029,-0.028,-0.027,-0.026,-0.026,-0.026,-0.024,-0.023,-0.021,-0.02,-0.019,-0.018,-0.017,-0.016,-0.013,-0.01,-0.008,-0.006,-0.003,0.0,0.002,0.004,0.006,0.008,0.01,0.012,0.013,0.015,0.015,0.016,0.016,0.016,0.017,0.019,0.022,0.026,0.03,0.034,0.039,0.044,0.047,0.051,0.054,0.058,0.062,0.065,0.07,0.075,0.08,0.085,0.091,0.096,0.1,0.105,0.108,0.111,0.114,0.117,0.12,0.122,0.123,0.124,0.125,0.125,0.125,0.124,0.122,0.119,0.115,0.111,0.106,0.1,0.096,0.091,0.086,0.082,0.077,0.071,0.066,0.06,0.054,0.048,0.041,0.035,0.03,0.024,0.019,0.013,0.009,0.005,0.002,-0.002,-0.006,-0.01,-0.015,-0.02,-0.022,-0.025,-0.026,-0.028,-0.029,-0.03,-0.031,-0.031,-0.031,-0.031,-0.031,-0.031,-0.031,-0.031,-0.031,-0.031,-0.031,-0.031,-0.031,-0.031,-0.031,-0.031,-0.031,-0.031,-0.031,-0.031,-0.031,-0.031,-0.031,-0.031,-0.031,-0.031,-0.031,-0.03,-0.029,-0.028,-0.026,-0.025,-0.024,-0.024,-0.023,-0.022,-0.021,-0.02,-0.019,-0.018,-0.017,-0.016,-0.013,-0.011,-0.011,-0.011,-0.011,-0.011,-0.011,-0.01,-0.009,-0.008,-0.008,-0.007,-0.007,-0.007,-0.008,-0.008,-0.008,-0.008,-0.008,-0.007,-0.007,-0.007,-0.008,-0.008,-0.009,-0.009,-0.01,-0.011,-0.013,-0.016,-0.017,-0.019,-0.018,-0.017,-0.015,-0.013,-0.011,-0.008,-0.007,-0.005,-0.003,-0.001,-0.001,0.0,0.0,0.0,-0.001,-0.002,-0.004,-0.006,-0.008,-0.009,-0.01,-0.01,-0.008,-0.006,-0.003,0.001,0.005,0.008,0.01,0.012,0.013,0.013,0.012,0.01,0.006,0.002,-0.003,-0.007,-0.012,-0.017,-0.021,-0.025,-0.026,-0.028,-0.029,-0.03,-0.031,-0.031,-0.031,-0.031,-0.031,-0.031,-0.031,-0.031,-0.031,-0.031,-0.031,-0.031,-0.032,-0.033,-0.037,-0.04,-0.046,-0.051,-0.057,-0.063,-0.065,-0.067,-0.064,-0.061,-0.049,-0.036,-0.012,0.011,0.045,0.079,0.12,0.162,0.207,0.253,0.298,0.344,0.382,0.421,0.443,0.465,0.463,0.461,0.431,0.401,0.349,0.296,0.237,0.178,0.128,0.078,0.045,0.012,-0.002,-0.017,-0.019,-0.022,-0.021,-0.02,-0.02,-0.02,-0.022,-0.024,-0.026,-0.028,-0.03,-0.031,-0.032,-0.032,-0.033,-0.034,-0.035,-0.036,-0.037,-0.037,-0.038,-0.038,-0.038,-0.037,-0.036,-0.035,-0.034,-0.033,-0.032,-0.031,-0.031,-0.03,-0.031,-0.031,-0.031,-0.031,-0.031,-0.03,-0.029,-0.028,-0.026,-0.025,-0.024,-0.023,-0.021,-0.019,-0.017,-0.015,-0.012,-0.01,-0.009,-0.007,-0.006,-0.004,-0.004,-0.003,-0.002,0.0,0.002,0.004,0.006,0.008,0.01,0.012,0.013,0.015,0.015,0.016,0.015,0.015,0.015,0.016,0.017,0.018,0.019,0.021,0.022,0.023,0.025,0.028,0.032,0.036,0.041,0.047,0.05,0.054,0.056,0.059,0.062,0.065,0.069,0.074,0.079,0.084,0.089,0.094,0.098,0.103,0.108,0.114,0.12,0.125,0.131,0.136,0.14,0.144,0.146,0.148,0.148,0.148,0.147,0.146,0.144,0.142,0.139,0.136,0.132,0.128,0.124,0.12,0.115,0.111,0.106,0.1,0.095,0.09,0.084,0.078,0.071,0.064,0.057,0.051,0.045,0.038,0.033,0.028,0.024,0.02,0.017,0.013,0.01,0.006,0.002,-0.002,-0.006,-0.01,-0.015,-0.02,-0.022,-0.025,-0.026,-0.028,-0.029,-0.03,-0.031,-0.031,-0.031,-0.031,-0.031,-0.031,-0.031,-0.031,-0.031,-0.031,-0.031,-0.031,-0.031,-0.031,-0.031,-0.031,-0.031,-0.031,-0.031,-0.031,-0.031,-0.031,-0.031,-0.031,-0.031,-0.031,-0.031,-0.031,-0.031,-0.031,-0.031,-0.03,-0.029,-0.028,-0.026,-0.025,-0.024,-0.023,-0.02,-0.018,-0.015,-0.012,-0.011,-0.009,-0.009,-0.008,-0.008,-0.007,-0.007,-0.007,-0.008,-0.008,-0.008,-0.008,-0.008,-0.008,-0.009,-0.01,-0.011,-0.011,-0.011,-0.011,-0.011,-0.01,-0.009,-0.008,-0.008,-0.007,-0.008,-0.008,-0.01,-0.012,-0.014,-0.016,-0.015,-0.015,-0.013,-0.011,-0.009,-0.006,-0.003,0.0,0.002,0.003,0.003,0.003,0.001,-0.001,-0.004,-0.006,-0.008,-0.01,-0.011,-0.011,-0.009,-0.006,-0.003,0.001,0.005,0.009,0.012,0.015,0.015,0.015,0.012,0.01,0.007,0.004,-0.001,-0.005,-0.01,-0.015,-0.019,-0.023,-0.025,-0.028,-0.028,-0.029,-0.03,-0.03,-0.031,-0.031,-0.031,-0.031,-0.031,-0.031,-0.031,-0.031,-0.032,-0.032,-0.034,-0.036,-0.04,-0.044,-0.048,-0.053,-0.057,-0.062,-0.065,-0.067,-0.064,-0.06,-0.046,-0.032,-0.006,0.021,0.057,0.093,0.137,0.181,0.228,0.276,0.322,0.369,0.406,0.443,0.462,0.482,0.475,0.468,0.434,0.4,0.345,0.29,0.229,0.168,0.116,0.064,0.031,-0.002,-0.016,-0.029,-0.031,-0.032,-0.03,-0.028,-0.027,-0.027,-0.03,-0.032,-0.036,-0.04,-0.045,-0.05,-0.053,-0.057,-0.059,-0.06,-0.062,-0.063,-0.064,-0.064,-0.065,-0.065,-0.065,-0.065,-0.065,-0.065,-0.065,-0.065,-0.065,-0.064,-0.062,-0.06,-0.056,-0.053,-0.05,N
6,-0.031,-0.033,-0.034,-0.035,-0.036,-0.037,-0.038,-0.04,-0.042,-0.045,-0.047,-0.048,-0.05,-0.05,-0.05,-0.05,-0.05,-0.05,-0.05,-0.049,-0.048,-0.045,-0.042,-0.041,-0.04,-0.039,-0.037,-0.036,-0.035,-0.034,-0.033,-0.032,-0.031,-0.031,-0.03,-0.031,-0.031,-0.031,-0.031,-0.031,-0.03,-0.029,-0.028,-0.027,-0.026,-0.026,-0.026,-0.024,-0.023,-0.021,-0.02,-0.019,-0.018,-0.017,-0.016,-0.013,-0.01,-0.008,-0.006,-0.003,0.0,0.002,0.004,0.006,0.008,0.01,0.012,0.013,0.015,0.015,0.016,0.016,0.016,0.017,0.019,0.022,0.026,0.03,0.034,0.039,0.044,0.047,0.051,0.054,0.058,0.062,0.065,0.07,0.075,0.08,0.085,0.091,0.096,0.1,0.105,0.108,0.111,0.114,0.117,0.12,0.122,0.123,0.124,0.125,0.125,0.125,0.124,0.122,0.119,0.115,0.111,0.106,0.1,0.096,0.091,0.086,0.082,0.077,0.071,0.066,0.06,0.054,0.048,0.041,0.035,0.03,0.024,0.019,0.013,0.009,0.005,0.002,-0.002,-0.006,-0.01,-0.015,-0.02,-0.022,-0.025,-0.026,-0.028,-0.029,-0.03,-0.031,-0.031,-0.031,-0.031,-0.031,-0.031,-0.031,-0.031,-0.031,-0.031,-0.031,-0.031,-0.031,-0.031,-0.031,-0.031,-0.031,-0.031,-0.031,-0.031,-0.031,-0.031,-0.031,-0.031,-0.031,-0.031,-0.031,-0.03,-0.029,-0.028,-0.026,-0.025,-0.024,-0.024,-0.023,-0.022,-0.021,-0.02,-0.019,-0.018,-0.017,-0.016,-0.013,-0.011,-0.011,-0.011,-0.011,-0.011,-0.011,-0.01,-0.009,-0.008,-0.008,-0.007,-0.007,-0.007,-0.008,-0.008,-0.008,-0.008,-0.008,-0.007,-0.007,-0.007,-0.008,-0.008,-0.009,-0.009,-0.01,-0.011,-0.013,-0.016,-0.017,-0.019,-0.018,-0.017,-0.015,-0.013,-0.011,-0.008,-0.007,-0.005,-0.003,-0.001,-0.001,0.0,0.0,0.0,-0.001,-0.002,-0.004,-0.006,-0.008,-0.009,-0.01,-0.01,-0.008,-0.006,-0.003,0.001,0.005,0.008,0.01,0.012,0.013,0.013,0.012,0.01,0.006,0.002,-0.003,-0.007,-0.012,-0.017,-0.021,-0.025,-0.026,-0.028,-0.029,-0.03,-0.031,-0.031,-0.031,-0.031,-0.031,-0.031,-0.031,-0.031,-0.031,-0.031,-0.031,-0.031,-0.032,-0.033,-0.037,-0.04,-0.046,-0.051,-0.057,-0.063,-0.065,-0.067,-0.064,-0.061,-0.049,-0.036,-0.012,0.011,0.045,0.079,0.12,0.162,0.207,0.253,0.298,0.344,0.382,0.421,0.443,0.465,0.463,0.461,0.431,0.401,0.349,0.296,0.237,0.178,0.128,0.078,0.045,0.012,-0.002,-0.017,-0.019,-0.022,-0.021,-0.02,-0.02,-0.02,-0.022,-0.024,-0.026,-0.028,-0.03,-0.031,-0.032,-0.032,-0.033,-0.034,-0.035,-0.036,-0.037,-0.037,-0.038,-0.038,-0.038,-0.037,-0.036,-0.035,-0.034,-0.033,-0.032,-0.031,-0.031,-0.03,-0.031,-0.031,-0.031,-0.031,-0.031,-0.03,-0.029,-0.028,-0.026,-0.025,-0.024,-0.023,-0.021,-0.019,-0.017,-0.015,-0.012,-0.01,-0.009,-0.007,-0.006,-0.004,-0.004,-0.003,-0.002,0.0,0.002,0.004,0.006,0.008,0.01,0.012,0.013,0.015,0.015,0.016,0.015,0.015,0.015,0.016,0.017,0.018,0.019,0.021,0.022,0.023,0.025,0.028,0.032,0.036,0.041,0.047,0.05,0.054,0.056,0.059,0.062,0.065,0.069,0.074,0.079,0.084,0.089,0.094,0.098,0.103,0.108,0.114,0.12,0.125,0.131,0.136,0.14,0.144,0.146,0.148,0.148,0.148,0.147,0.146,0.144,0.142,0.139,0.136,0.132,0.128,0.124,0.12,0.115,0.111,0.106,0.1,0.095,0.09,0.084,0.078,0.071,0.064,0.057,0.051,0.045,0.038,0.033,0.028,0.024,0.02,0.017,0.013,0.01,0.006,0.002,-0.002,-0.006,-0.01,-0.015,-0.02,-0.022,-0.025,-0.026,-0.028,-0.029,-0.03,-0.031,-0.031,-0.031,-0.031,-0.031,-0.031,-0.031,-0.031,-0.031,-0.031,-0.031,-0.031,-0.031,-0.031,-0.031,-0.031,-0.031,-0.031,-0.031,-0.031,-0.031,-0.031,-0.031,-0.031,-0.031,-0.031,-0.031,-0.031,-0.031,-0.031,-0.031,-0.03,-0.029,-0.028,-0.026,-0.025,-0.024,-0.023,-0.02,-0.018,-0.015,-0.012,-0.011,-0.009,-0.009,-0.008,-0.008,-0.007,-0.007,-0.007,-0.008,-0.008,-0.008,-0.008,-0.008,-0.008,-0.009,-0.01,-0.011,-0.011,-0.011,-0.011,-0.011,-0.01,-0.009,-0.008,-0.008,-0.007,-0.008,-0.008,-0.01,-0.012,-0.014,-0.016,-0.015,-0.015,-0.013,-0.011,-0.009,-0.006,-0.003,0.0,0.002,0.003,0.003,0.003,0.001,-0.001,-0.004,-0.006,-0.008,-0.01,-0.011,-0.011,-0.009,-0.006,-0.003,0.001,0.005,0.009,0.012,0.015,0.015,0.015,0.012,0.01,0.007,0.004,-0.001,-0.005,-0.01,-0.015,-0.019,-0.023,-0.025,-0.028,-0.028,-0.029,-0.03,-0.03,-0.031,-0.031,-0.031,-0.031,-0.031,-0.031,-0.031,-0.031,-0.032,-0.032,-0.034,-0.036,-0.04,-0.044,-0.048,-0.053,-0.057,-0.062,-0.065,-0.067,-0.064,-0.06,-0.046,-0.032,-0.006,0.021,0.057,0.093,0.137,0.181,0.228,0.276,0.322,0.369,0.406,0.443,0.462,0.482,0.475,0.468,0.434,0.4,0.345,0.29,0.229,0.168,0.116,0.064,0.031,-0.002,-0.016,-0.029,-0.031,-0.032,-0.03,-0.028,-0.027,-0.027,-0.03,-0.032,-0.036,-0.04,-0.045,-0.05,-0.053,-0.057,-0.059,-0.06,-0.062,-0.063,-0.064,-0.064,-0.065,-0.065,-0.065,-0.065,-0.065,-0.065,-0.065,-0.065,-0.065,-0.064,-0.062,-0.06,-0.056,-0.053,-0.05,-0.047,-0.044,-0.041,-0.039,-0.037,-0.036,-0.034,-0.034,-0.033,-0.032,-0.031,-0.03,-0.029,-0.028,-0.028,-0.027,-0.026,-0.026,-0.026,-0.024,-0.023,-0.021,-0.019,-0.016,-0.013,-0.01,-0.007,-0.005,-0.003,-0.002,0.0,0.002,0.004,0.006,0.008,0.01,0.011,0.012,0.012,0.013,0.015,0.016,0.017,0.018,0.019,0.021,0.024,0.026,0.029,0.034,0.039,0.046,0.052,0.057,0.062,0.067,0.071,0.078,0.084,0.089,0.094,0.099,0.104,0.11,0.116,0.121,0.126,0.131,0.135,0.138,0.142,0.145,0.148,0.15,0.151,0.152,0.152,0.151,0.15,0.149,0.147,0.144,0.142,0.138,0.134,0.128,0.122,0.117,0.111,0.105,0.098,0.091,0.084,0.076,0.068,0.061,0.053,0.046,0.038,0.033,0.027,0.022,0.017,0.012,0.007,0.003,-0.001,-0.006,-0.01,-0.016,-0.021,-0.024,-0.028,-0.03,-0.031,-0.032,-0.032,-0.033,-0.034,-0.035,-0.036,-0.037,-0.037,-0.038,-0.039,-0.04,-0.041,-0.042,-0.042,-0.042,-0.041,-0.041,-0.04,-0.039,-0.038,-0.038,-0.037,-0.036,-0.035,-0.034,-0.033,-0.032,-0.031,-0.031,-0.03,-0.031,-0.031,-0.031,-0.031,-0.031,-0.031,-0.031,-0.031,-0.031,-0.031,-0.031,-0.031,-0.031,-0.031,-0.031,-0.03,-0.029,-0.028,-0.026,-0.025,-0.024,-0.024,-0.023,-0.022,-0.021,-0.02,-0.019,-0.019,-0.019,-0.02,-0.02,-0.02,-0.019,-0.019,-0.018,-0.017,-0.016,-0.016,-0.016,-0.016,-0.017,-0.019,-0.019,-0.019,-0.018,-0.017,-0.016,-0.015,-0.012,-0.01,-0.009,-0.007,-0.005,-0.003,-0.002,-0.001,-0.001,0.0,-0.001,-0.002,-0.005,-0.007,-0.01,-0.012,-0.013,-0.013,-0.011,-0.008,-0.005,-0.001,0.003,0.007,0.01,0.012,0.013,0.015,0.015,0.015,0.012,0.009,0.005,0.001,-0.005,-0.01,-0.016,-0.021,-0.024,-0.027,-0.028,-0.029,-0.03,-0.03,-0.031,-0.031,-0.031,-0.031,-0.031,-0.031,-0.031,-0.031,-0.032,-0.032,-0.034,-0.036,-0.04,-0.045,-0.05,-0.056,-0.061,-0.066,-0.069,-0.071,-0.067,-0.063,-0.05,-0.036,-0.012,0.012,0.048,0.083,0.127,0.172,0.222,0.271,0.32,0.369,0.411,0.453,0.479,0.504,0.504,0.503,0.473,0.443,0.389,0.335,0.271,0.207,0.151,0.095,0.058,0.021,0.004,-0.013,-0.018,-0.022,-0.021,-0.021,-0.02,-0.02,-0.022,-0.024,-0.027,-0.031,-0.034,-0.037,-0.04,-0.044,-0.047,-0.051,-0.054,-0.058,-0.06,-0.061,-0.061,-0.061,-0.061,-0.061,-0.061,-0.06,-0.059,-0.058,-0.057,-0.056,-0.055,-0.054,-0.053,N
7,-0.022,-0.024,-0.026,-0.028,-0.03,-0.031,-0.032,-0.032,-0.033,-0.034,-0.035,-0.036,-0.037,-0.037,-0.038,-0.038,-0.038,-0.037,-0.036,-0.035,-0.034,-0.033,-0.032,-0.031,-0.031,-0.03,-0.031,-0.031,-0.031,-0.031,-0.031,-0.03,-0.029,-0.028,-0.026,-0.025,-0.024,-0.023,-0.021,-0.019,-0.017,-0.015,-0.012,-0.01,-0.009,-0.007,-0.006,-0.004,-0.004,-0.003,-0.002,0.0,0.002,0.004,0.006,0.008,0.01,0.012,0.013,0.015,0.015,0.016,0.015,0.015,0.015,0.016,0.017,0.018,0.019,0.021,0.022,0.023,0.025,0.028,0.032,0.036,0.041,0.047,0.05,0.054,0.056,0.059,0.062,0.065,0.069,0.074,0.079,0.084,0.089,0.094,0.098,0.103,0.108,0.114,0.12,0.125,0.131,0.136,0.14,0.144,0.146,0.148,0.148,0.148,0.147,0.146,0.144,0.142,0.139,0.136,0.132,0.128,0.124,0.12,0.115,0.111,0.106,0.1,0.095,0.09,0.084,0.078,0.071,0.064,0.057,0.051,0.045,0.038,0.033,0.028,0.024,0.02,0.017,0.013,0.01,0.006,0.002,-0.002,-0.006,-0.01,-0.015,-0.02,-0.022,-0.025,-0.026,-0.028,-0.029,-0.03,-0.031,-0.031,-0.031,-0.031,-0.031,-0.031,-0.031,-0.031,-0.031,-0.031,-0.031,-0.031,-0.031,-0.031,-0.031,-0.031,-0.031,-0.031,-0.031,-0.031,-0.031,-0.031,-0.031,-0.031,-0.031,-0.031,-0.031,-0.031,-0.031,-0.031,-0.031,-0.03,-0.029,-0.028,-0.026,-0.025,-0.024,-0.023,-0.02,-0.018,-0.015,-0.012,-0.011,-0.009,-0.009,-0.008,-0.008,-0.007,-0.007,-0.007,-0.008,-0.008,-0.008,-0.008,-0.008,-0.008,-0.009,-0.01,-0.011,-0.011,-0.011,-0.011,-0.011,-0.01,-0.009,-0.008,-0.008,-0.007,-0.008,-0.008,-0.01,-0.012,-0.014,-0.016,-0.015,-0.015,-0.013,-0.011,-0.009,-0.006,-0.003,0.0,0.002,0.003,0.003,0.003,0.001,-0.001,-0.004,-0.006,-0.008,-0.01,-0.011,-0.011,-0.009,-0.006,-0.003,0.001,0.005,0.009,0.012,0.015,0.015,0.015,0.012,0.01,0.007,0.004,-0.001,-0.005,-0.01,-0.015,-0.019,-0.023,-0.025,-0.028,-0.028,-0.029,-0.03,-0.03,-0.031,-0.031,-0.031,-0.031,-0.031,-0.031,-0.031,-0.031,-0.032,-0.032,-0.034,-0.036,-0.04,-0.044,-0.048,-0.053,-0.057,-0.062,-0.065,-0.067,-0.064,-0.06,-0.046,-0.032,-0.006,0.021,0.057,0.093,0.137,0.181,0.228,0.276,0.322,0.369,0.406,0.443,0.462,0.482,0.475,0.468,0.434,0.4,0.345,0.29,0.229,0.168,0.116,0.064,0.031,-0.002,-0.016,-0.029,-0.031,-0.032,-0.03,-0.028,-0.027,-0.027,-0.03,-0.032,-0.036,-0.04,-0.045,-0.05,-0.053,-0.057,-0.059,-0.06,-0.062,-0.063,-0.064,-0.064,-0.065,-0.065,-0.065,-0.065,-0.065,-0.065,-0.065,-0.065,-0.065,-0.064,-0.062,-0.06,-0.056,-0.053,-0.05,-0.047,-0.044,-0.041,-0.039,-0.037,-0.036,-0.034,-0.034,-0.033,-0.032,-0.031,-0.03,-0.029,-0.028,-0.028,-0.027,-0.026,-0.026,-0.026,-0.024,-0.023,-0.021,-0.019,-0.016,-0.013,-0.01,-0.007,-0.005,-0.003,-0.002,0.0,0.002,0.004,0.006,0.008,0.01,0.011,0.012,0.012,0.013,0.015,0.016,0.017,0.018,0.019,0.021,0.024,0.026,0.029,0.034,0.039,0.046,0.052,0.057,0.062,0.067,0.071,0.078,0.084,0.089,0.094,0.099,0.104,0.11,0.116,0.121,0.126,0.131,0.135,0.138,0.142,0.145,0.148,0.15,0.151,0.152,0.152,0.151,0.15,0.149,0.147,0.144,0.142,0.138,0.134,0.128,0.122,0.117,0.111,0.105,0.098,0.091,0.084,0.076,0.068,0.061,0.053,0.046,0.038,0.033,0.027,0.022,0.017,0.012,0.007,0.003,-0.001,-0.006,-0.01,-0.016,-0.021,-0.024,-0.028,-0.03,-0.031,-0.032,-0.032,-0.033,-0.034,-0.035,-0.036,-0.037,-0.037,-0.038,-0.039,-0.04,-0.041,-0.042,-0.042,-0.042,-0.041,-0.041,-0.04,-0.039,-0.038,-0.038,-0.037,-0.036,-0.035,-0.034,-0.033,-0.032,-0.031,-0.031,-0.03,-0.031,-0.031,-0.031,-0.031,-0.031,-0.031,-0.031,-0.031,-0.031,-0.031,-0.031,-0.031,-0.031,-0.031,-0.031,-0.03,-0.029,-0.028,-0.026,-0.025,-0.024,-0.024,-0.023,-0.022,-0.021,-0.02,-0.019,-0.019,-0.019,-0.02,-0.02,-0.02,-0.019,-0.019,-0.018,-0.017,-0.016,-0.016,-0.016,-0.016,-0.017,-0.019,-0.019,-0.019,-0.018,-0.017,-0.016,-0.015,-0.012,-0.01,-0.009,-0.007,-0.005,-0.003,-0.002,-0.001,-0.001,0.0,-0.001,-0.002,-0.005,-0.007,-0.01,-0.012,-0.013,-0.013,-0.011,-0.008,-0.005,-0.001,0.003,0.007,0.01,0.012,0.013,0.015,0.015,0.015,0.012,0.009,0.005,0.001,-0.005,-0.01,-0.016,-0.021,-0.024,-0.027,-0.028,-0.029,-0.03,-0.03,-0.031,-0.031,-0.031,-0.031,-0.031,-0.031,-0.031,-0.031,-0.032,-0.032,-0.034,-0.036,-0.04,-0.045,-0.05,-0.056,-0.061,-0.066,-0.069,-0.071,-0.067,-0.063,-0.05,-0.036,-0.012,0.012,0.048,0.083,0.127,0.172,0.222,0.271,0.32,0.369,0.411,0.453,0.479,0.504,0.504,0.503,0.473,0.443,0.389,0.335,0.271,0.207,0.151,0.095,0.058,0.021,0.004,-0.013,-0.018,-0.022,-0.021,-0.021,-0.02,-0.02,-0.022,-0.024,-0.027,-0.031,-0.034,-0.037,-0.04,-0.044,-0.047,-0.051,-0.054,-0.058,-0.06,-0.061,-0.061,-0.061,-0.061,-0.061,-0.061,-0.06,-0.059,-0.058,-0.057,-0.056,-0.055,-0.054,-0.053,-0.052,-0.05,-0.048,-0.045,-0.041,-0.039,-0.037,-0.036,-0.034,-0.034,-0.033,-0.032,-0.03,-0.028,-0.027,-0.026,-0.025,-0.024,-0.023,-0.021,-0.02,-0.019,-0.018,-0.017,-0.016,-0.013,-0.01,-0.008,-0.006,-0.003,0.0,0.003,0.005,0.008,0.011,0.013,0.015,0.015,0.016,0.015,0.015,0.015,0.016,0.017,0.019,0.022,0.025,0.028,0.031,0.036,0.04,0.045,0.049,0.052,0.056,0.059,0.061,0.064,0.066,0.069,0.073,0.077,0.082,0.088,0.093,0.099,0.105,0.11,0.116,0.122,0.127,0.133,0.138,0.141,0.145,0.147,0.148,0.15,0.151,0.151,0.151,0.149,0.147,0.144,0.142,0.138,0.134,0.127,0.121,0.114,0.108,0.102,0.095,0.089,0.083,0.076,0.068,0.061,0.054,0.046,0.038,0.033,0.027,0.022,0.017,0.012,0.008,0.005,0.001,-0.004,-0.008,-0.013,-0.018,-0.021,-0.024,-0.026,-0.028,-0.03,-0.032,-0.034,-0.035,-0.037,-0.038,-0.039,-0.039,-0.041,-0.042,-0.045,-0.047,-0.048,-0.049,-0.048,-0.048,-0.048,-0.048,-0.047,-0.047,-0.046,-0.046,-0.046,-0.046,-0.045,-0.045,-0.043,-0.041,-0.039,-0.037,-0.036,-0.034,-0.034,-0.033,-0.032,-0.031,-0.031,-0.03,-0.031,-0.031,-0.031,-0.031,-0.031,-0.031,-0.031,-0.031,-0.031,-0.031,-0.031,-0.031,-0.031,-0.031,-0.031,-0.031,-0.031,-0.031,-0.031,-0.031,-0.031,-0.031,-0.031,-0.03,-0.029,-0.028,-0.027,-0.026,-0.026,-0.027,-0.027,-0.027,-0.027,-0.027,-0.026,-0.026,-0.024,-0.023,-0.021,-0.019,-0.017,-0.015,-0.012,-0.01,-0.009,-0.008,-0.008,-0.008,-0.009,-0.01,-0.011,-0.012,-0.013,-0.015,-0.012,-0.01,-0.007,-0.003,0.001,0.004,0.006,0.008,0.009,0.01,0.008,0.006,0.002,-0.003,-0.008,-0.012,-0.017,-0.021,-0.023,-0.025,-0.026,-0.028,-0.03,-0.031,-0.033,-0.034,-0.035,-0.035,-0.035,-0.034,-0.034,-0.033,-0.032,-0.031,-0.031,-0.031,-0.034,-0.037,-0.042,-0.048,-0.054,-0.06,-0.067,-0.075,-0.079,-0.083,-0.08,-0.077,-0.063,-0.05,-0.024,0.001,0.038,0.076,0.12,0.165,0.214,0.264,0.314,0.365,0.407,0.448,0.472,0.496,0.494,0.491,0.459,0.428,0.372,0.317,0.253,0.19,0.133,0.077,0.039,0.002,-0.016,-0.033,-0.037,-0.04,-0.038,-0.035,-0.035,-0.034,-0.035,-0.035,-0.037,-0.038,-0.041,-0.044,-0.046,-0.049,-0.05,-0.052,-0.052,-0.053,-0.054,-0.055,-0.056,-0.057,-0.056,-0.056,-0.055,-0.054,-0.053,-0.052,-0.05,-0.049,-0.047,-0.045,-0.043,-0.041,-0.039,-0.037,N
8,-0.032,-0.036,-0.04,-0.045,-0.05,-0.053,-0.057,-0.059,-0.06,-0.062,-0.063,-0.064,-0.064,-0.065,-0.065,-0.065,-0.065,-0.065,-0.065,-0.065,-0.065,-0.065,-0.064,-0.062,-0.06,-0.056,-0.053,-0.05,-0.047,-0.044,-0.041,-0.039,-0.037,-0.036,-0.034,-0.034,-0.033,-0.032,-0.031,-0.03,-0.029,-0.028,-0.028,-0.027,-0.026,-0.026,-0.026,-0.024,-0.023,-0.021,-0.019,-0.016,-0.013,-0.01,-0.007,-0.005,-0.003,-0.002,0.0,0.002,0.004,0.006,0.008,0.01,0.011,0.012,0.012,0.013,0.015,0.016,0.017,0.018,0.019,0.021,0.024,0.026,0.029,0.034,0.039,0.046,0.052,0.057,0.062,0.067,0.071,0.078,0.084,0.089,0.094,0.099,0.104,0.11,0.116,0.121,0.126,0.131,0.135,0.138,0.142,0.145,0.148,0.15,0.151,0.152,0.152,0.151,0.15,0.149,0.147,0.144,0.142,0.138,0.134,0.128,0.122,0.117,0.111,0.105,0.098,0.091,0.084,0.076,0.068,0.061,0.053,0.046,0.038,0.033,0.027,0.022,0.017,0.012,0.007,0.003,-0.001,-0.006,-0.01,-0.016,-0.021,-0.024,-0.028,-0.03,-0.031,-0.032,-0.032,-0.033,-0.034,-0.035,-0.036,-0.037,-0.037,-0.038,-0.039,-0.04,-0.041,-0.042,-0.042,-0.042,-0.041,-0.041,-0.04,-0.039,-0.038,-0.038,-0.037,-0.036,-0.035,-0.034,-0.033,-0.032,-0.031,-0.031,-0.03,-0.031,-0.031,-0.031,-0.031,-0.031,-0.031,-0.031,-0.031,-0.031,-0.031,-0.031,-0.031,-0.031,-0.031,-0.031,-0.03,-0.029,-0.028,-0.026,-0.025,-0.024,-0.024,-0.023,-0.022,-0.021,-0.02,-0.019,-0.019,-0.019,-0.02,-0.02,-0.02,-0.019,-0.019,-0.018,-0.017,-0.016,-0.016,-0.016,-0.016,-0.017,-0.019,-0.019,-0.019,-0.018,-0.017,-0.016,-0.015,-0.012,-0.01,-0.009,-0.007,-0.005,-0.003,-0.002,-0.001,-0.001,0.0,-0.001,-0.002,-0.005,-0.007,-0.01,-0.012,-0.013,-0.013,-0.011,-0.008,-0.005,-0.001,0.003,0.007,0.01,0.012,0.013,0.015,0.015,0.015,0.012,0.009,0.005,0.001,-0.005,-0.01,-0.016,-0.021,-0.024,-0.027,-0.028,-0.029,-0.03,-0.03,-0.031,-0.031,-0.031,-0.031,-0.031,-0.031,-0.031,-0.031,-0.032,-0.032,-0.034,-0.036,-0.04,-0.045,-0.05,-0.056,-0.061,-0.066,-0.069,-0.071,-0.067,-0.063,-0.05,-0.036,-0.012,0.012,0.048,0.083,0.127,0.172,0.222,0.271,0.32,0.369,0.411,0.453,0.479,0.504,0.504,0.503,0.473,0.443,0.389,0.335,0.271,0.207,0.151,0.095,0.058,0.021,0.004,-0.013,-0.018,-0.022,-0.021,-0.021,-0.02,-0.02,-0.022,-0.024,-0.027,-0.031,-0.034,-0.037,-0.04,-0.044,-0.047,-0.051,-0.054,-0.058,-0.06,-0.061,-0.061,-0.061,-0.061,-0.061,-0.061,-0.06,-0.059,-0.058,-0.057,-0.056,-0.055,-0.054,-0.053,-0.052,-0.05,-0.048,-0.045,-0.041,-0.039,-0.037,-0.036,-0.034,-0.034,-0.033,-0.032,-0.03,-0.028,-0.027,-0.026,-0.025,-0.024,-0.023,-0.021,-0.02,-0.019,-0.018,-0.017,-0.016,-0.013,-0.01,-0.008,-0.006,-0.003,0.0,0.003,0.005,0.008,0.011,0.013,0.015,0.015,0.016,0.015,0.015,0.015,0.016,0.017,0.019,0.022,0.025,0.028,0.031,0.036,0.04,0.045,0.049,0.052,0.056,0.059,0.061,0.064,0.066,0.069,0.073,0.077,0.082,0.088,0.093,0.099,0.105,0.11,0.116,0.122,0.127,0.133,0.138,0.141,0.145,0.147,0.148,0.15,0.151,0.151,0.151,0.149,0.147,0.144,0.142,0.138,0.134,0.127,0.121,0.114,0.108,0.102,0.095,0.089,0.083,0.076,0.068,0.061,0.054,0.046,0.038,0.033,0.027,0.022,0.017,0.012,0.008,0.005,0.001,-0.004,-0.008,-0.013,-0.018,-0.021,-0.024,-0.026,-0.028,-0.03,-0.032,-0.034,-0.035,-0.037,-0.038,-0.039,-0.039,-0.041,-0.042,-0.045,-0.047,-0.048,-0.049,-0.048,-0.048,-0.048,-0.048,-0.047,-0.047,-0.046,-0.046,-0.046,-0.046,-0.045,-0.045,-0.043,-0.041,-0.039,-0.037,-0.036,-0.034,-0.034,-0.033,-0.032,-0.031,-0.031,-0.03,-0.031,-0.031,-0.031,-0.031,-0.031,-0.031,-0.031,-0.031,-0.031,-0.031,-0.031,-0.031,-0.031,-0.031,-0.031,-0.031,-0.031,-0.031,-0.031,-0.031,-0.031,-0.031,-0.031,-0.03,-0.029,-0.028,-0.027,-0.026,-0.026,-0.027,-0.027,-0.027,-0.027,-0.027,-0.026,-0.026,-0.024,-0.023,-0.021,-0.019,-0.017,-0.015,-0.012,-0.01,-0.009,-0.008,-0.008,-0.008,-0.009,-0.01,-0.011,-0.012,-0.013,-0.015,-0.012,-0.01,-0.007,-0.003,0.001,0.004,0.006,0.008,0.009,0.01,0.008,0.006,0.002,-0.003,-0.008,-0.012,-0.017,-0.021,-0.023,-0.025,-0.026,-0.028,-0.03,-0.031,-0.033,-0.034,-0.035,-0.035,-0.035,-0.034,-0.034,-0.033,-0.032,-0.031,-0.031,-0.031,-0.034,-0.037,-0.042,-0.048,-0.054,-0.06,-0.067,-0.075,-0.079,-0.083,-0.08,-0.077,-0.063,-0.05,-0.024,0.001,0.038,0.076,0.12,0.165,0.214,0.264,0.314,0.365,0.407,0.448,0.472,0.496,0.494,0.491,0.459,0.428,0.372,0.317,0.253,0.19,0.133,0.077,0.039,0.002,-0.016,-0.033,-0.037,-0.04,-0.038,-0.035,-0.035,-0.034,-0.035,-0.035,-0.037,-0.038,-0.041,-0.044,-0.046,-0.049,-0.05,-0.052,-0.052,-0.053,-0.054,-0.055,-0.056,-0.057,-0.056,-0.056,-0.055,-0.054,-0.053,-0.052,-0.05,-0.049,-0.047,-0.045,-0.043,-0.041,-0.039,-0.037,-0.035,-0.033,-0.032,-0.031,-0.03,-0.029,-0.028,-0.028,-0.027,-0.026,-0.026,-0.026,-0.024,-0.023,-0.021,-0.019,-0.017,-0.015,-0.012,-0.01,-0.009,-0.007,-0.005,-0.003,-0.002,0.0,0.003,0.005,0.008,0.011,0.013,0.015,0.015,0.016,0.015,0.015,0.015,0.015,0.015,0.016,0.017,0.019,0.022,0.025,0.028,0.032,0.037,0.042,0.047,0.052,0.054,0.057,0.06,0.062,0.066,0.069,0.074,0.079,0.083,0.088,0.093,0.097,0.103,0.108,0.113,0.119,0.125,0.131,0.135,0.139,0.142,0.145,0.148,0.15,0.151,0.151,0.15,0.148,0.147,0.145,0.142,0.139,0.134,0.129,0.124,0.119,0.112,0.106,0.099,0.092,0.085,0.079,0.071,0.064,0.057,0.051,0.045,0.038,0.033,0.027,0.022,0.017,0.012,0.007,0.003,-0.001,-0.005,-0.009,-0.013,-0.018,-0.021,-0.024,-0.025,-0.027,-0.028,-0.029,-0.03,-0.03,-0.031,-0.032,-0.033,-0.034,-0.035,-0.035,-0.035,-0.035,-0.036,-0.037,-0.038,-0.038,-0.038,-0.038,-0.038,-0.038,-0.038,-0.037,-0.036,-0.035,-0.034,-0.033,-0.032,-0.031,-0.031,-0.03,-0.031,-0.031,-0.031,-0.031,-0.031,-0.031,-0.031,-0.031,-0.031,-0.031,-0.031,-0.03,-0.029,-0.028,-0.026,-0.025,-0.024,-0.024,-0.023,-0.023,-0.023,-0.024,-0.025,-0.026,-0.027,-0.028,-0.027,-0.027,-0.027,-0.027,-0.027,-0.027,-0.027,-0.027,-0.027,-0.027,-0.027,-0.027,-0.027,-0.027,-0.026,-0.026,-0.024,-0.022,-0.019,-0.016,-0.012,-0.009,-0.007,-0.004,-0.002,0.0,-0.001,-0.001,-0.003,-0.005,-0.008,-0.01,-0.012,-0.013,-0.013,-0.013,-0.01,-0.007,-0.003,0.001,0.005,0.008,0.01,0.012,0.013,0.013,0.012,0.011,0.008,0.004,-0.001,-0.006,-0.011,-0.017,-0.021,-0.025,-0.026,-0.028,-0.029,-0.03,-0.031,-0.031,-0.031,-0.031,-0.031,-0.031,-0.031,-0.031,-0.031,-0.031,-0.032,-0.032,-0.034,-0.036,-0.04,-0.045,-0.051,-0.057,-0.064,-0.07,-0.075,-0.079,-0.076,-0.073,-0.06,-0.048,-0.023,0.002,0.038,0.074,0.117,0.16,0.206,0.253,0.3,0.347,0.386,0.426,0.448,0.47,0.469,0.468,0.439,0.41,0.358,0.307,0.246,0.185,0.134,0.082,0.049,0.016,0.001,-0.013,-0.016,-0.019,-0.019,-0.019,-0.02,-0.021,-0.023,-0.025,-0.028,-0.032,-0.035,-0.038,-0.041,-0.045,-0.047,-0.049,-0.05,-0.052,-0.052,-0.053,-0.053,-0.054,-0.054,-0.054,-0.053,-0.053,-0.053,-0.053,-0.053,-0.053,-0.052,-0.051,-0.049,-0.048,-0.045,-0.042,-0.041,-0.04,-0.039,-0.038,-0.038,-0.038,-0.038,N
9,-0.022,-0.024,-0.027,-0.031,-0.034,-0.037,-0.04,-0.044,-0.047,-0.051,-0.054,-0.058,-0.06,-0.061,-0.061,-0.061,-0.061,-0.061,-0.061,-0.06,-0.059,-0.058,-0.057,-0.056,-0.055,-0.054,-0.053,-0.052,-0.05,-0.048,-0.045,-0.041,-0.039,-0.037,-0.036,-0.034,-0.034,-0.033,-0.032,-0.03,-0.028,-0.027,-0.026,-0.025,-0.024,-0.023,-0.021,-0.02,-0.019,-0.018,-0.017,-0.016,-0.013,-0.01,-0.008,-0.006,-0.003,0.0,0.003,0.005,0.008,0.011,0.013,0.015,0.015,0.016,0.015,0.015,0.015,0.016,0.017,0.019,0.022,0.025,0.028,0.031,0.036,0.04,0.045,0.049,0.052,0.056,0.059,0.061,0.064,0.066,0.069,0.073,0.077,0.082,0.088,0.093,0.099,0.105,0.11,0.116,0.122,0.127,0.133,0.138,0.141,0.145,0.147,0.148,0.15,0.151,0.151,0.151,0.149,0.147,0.144,0.142,0.138,0.134,0.127,0.121,0.114,0.108,0.102,0.095,0.089,0.083,0.076,0.068,0.061,0.054,0.046,0.038,0.033,0.027,0.022,0.017,0.012,0.008,0.005,0.001,-0.004,-0.008,-0.013,-0.018,-0.021,-0.024,-0.026,-0.028,-0.03,-0.032,-0.034,-0.035,-0.037,-0.038,-0.039,-0.039,-0.041,-0.042,-0.045,-0.047,-0.048,-0.049,-0.048,-0.048,-0.048,-0.048,-0.047,-0.047,-0.046,-0.046,-0.046,-0.046,-0.045,-0.045,-0.043,-0.041,-0.039,-0.037,-0.036,-0.034,-0.034,-0.033,-0.032,-0.031,-0.031,-0.03,-0.031,-0.031,-0.031,-0.031,-0.031,-0.031,-0.031,-0.031,-0.031,-0.031,-0.031,-0.031,-0.031,-0.031,-0.031,-0.031,-0.031,-0.031,-0.031,-0.031,-0.031,-0.031,-0.031,-0.03,-0.029,-0.028,-0.027,-0.026,-0.026,-0.027,-0.027,-0.027,-0.027,-0.027,-0.026,-0.026,-0.024,-0.023,-0.021,-0.019,-0.017,-0.015,-0.012,-0.01,-0.009,-0.008,-0.008,-0.008,-0.009,-0.01,-0.011,-0.012,-0.013,-0.015,-0.012,-0.01,-0.007,-0.003,0.001,0.004,0.006,0.008,0.009,0.01,0.008,0.006,0.002,-0.003,-0.008,-0.012,-0.017,-0.021,-0.023,-0.025,-0.026,-0.028,-0.03,-0.031,-0.033,-0.034,-0.035,-0.035,-0.035,-0.034,-0.034,-0.033,-0.032,-0.031,-0.031,-0.031,-0.034,-0.037,-0.042,-0.048,-0.054,-0.06,-0.067,-0.075,-0.079,-0.083,-0.08,-0.077,-0.063,-0.05,-0.024,0.001,0.038,0.076,0.12,0.165,0.214,0.264,0.314,0.365,0.407,0.448,0.472,0.496,0.494,0.491,0.459,0.428,0.372,0.317,0.253,0.19,0.133,0.077,0.039,0.002,-0.016,-0.033,-0.037,-0.04,-0.038,-0.035,-0.035,-0.034,-0.035,-0.035,-0.037,-0.038,-0.041,-0.044,-0.046,-0.049,-0.05,-0.052,-0.052,-0.053,-0.054,-0.055,-0.056,-0.057,-0.056,-0.056,-0.055,-0.054,-0.053,-0.052,-0.05,-0.049,-0.047,-0.045,-0.043,-0.041,-0.039,-0.037,-0.035,-0.033,-0.032,-0.031,-0.03,-0.029,-0.028,-0.028,-0.027,-0.026,-0.026,-0.026,-0.024,-0.023,-0.021,-0.019,-0.017,-0.015,-0.012,-0.01,-0.009,-0.007,-0.005,-0.003,-0.002,0.0,0.003,0.005,0.008,0.011,0.013,0.015,0.015,0.016,0.015,0.015,0.015,0.015,0.015,0.016,0.017,0.019,0.022,0.025,0.028,0.032,0.037,0.042,0.047,0.052,0.054,0.057,0.06,0.062,0.066,0.069,0.074,0.079,0.083,0.088,0.093,0.097,0.103,0.108,0.113,0.119,0.125,0.131,0.135,0.139,0.142,0.145,0.148,0.15,0.151,0.151,0.15,0.148,0.147,0.145,0.142,0.139,0.134,0.129,0.124,0.119,0.112,0.106,0.099,0.092,0.085,0.079,0.071,0.064,0.057,0.051,0.045,0.038,0.033,0.027,0.022,0.017,0.012,0.007,0.003,-0.001,-0.005,-0.009,-0.013,-0.018,-0.021,-0.024,-0.025,-0.027,-0.028,-0.029,-0.03,-0.03,-0.031,-0.032,-0.033,-0.034,-0.035,-0.035,-0.035,-0.035,-0.036,-0.037,-0.038,-0.038,-0.038,-0.038,-0.038,-0.038,-0.038,-0.037,-0.036,-0.035,-0.034,-0.033,-0.032,-0.031,-0.031,-0.03,-0.031,-0.031,-0.031,-0.031,-0.031,-0.031,-0.031,-0.031,-0.031,-0.031,-0.031,-0.03,-0.029,-0.028,-0.026,-0.025,-0.024,-0.024,-0.023,-0.023,-0.023,-0.024,-0.025,-0.026,-0.027,-0.028,-0.027,-0.027,-0.027,-0.027,-0.027,-0.027,-0.027,-0.027,-0.027,-0.027,-0.027,-0.027,-0.027,-0.027,-0.026,-0.026,-0.024,-0.022,-0.019,-0.016,-0.012,-0.009,-0.007,-0.004,-0.002,0.0,-0.001,-0.001,-0.003,-0.005,-0.008,-0.01,-0.012,-0.013,-0.013,-0.013,-0.01,-0.007,-0.003,0.001,0.005,0.008,0.01,0.012,0.013,0.013,0.012,0.011,0.008,0.004,-0.001,-0.006,-0.011,-0.017,-0.021,-0.025,-0.026,-0.028,-0.029,-0.03,-0.031,-0.031,-0.031,-0.031,-0.031,-0.031,-0.031,-0.031,-0.031,-0.031,-0.032,-0.032,-0.034,-0.036,-0.04,-0.045,-0.051,-0.057,-0.064,-0.07,-0.075,-0.079,-0.076,-0.073,-0.06,-0.048,-0.023,0.002,0.038,0.074,0.117,0.16,0.206,0.253,0.3,0.347,0.386,0.426,0.448,0.47,0.469,0.468,0.439,0.41,0.358,0.307,0.246,0.185,0.134,0.082,0.049,0.016,0.001,-0.013,-0.016,-0.019,-0.019,-0.019,-0.02,-0.021,-0.023,-0.025,-0.028,-0.032,-0.035,-0.038,-0.041,-0.045,-0.047,-0.049,-0.05,-0.052,-0.052,-0.053,-0.053,-0.054,-0.054,-0.054,-0.053,-0.053,-0.053,-0.053,-0.053,-0.053,-0.052,-0.051,-0.049,-0.048,-0.045,-0.042,-0.041,-0.04,-0.039,-0.038,-0.038,-0.038,-0.038,-0.037,-0.036,-0.034,-0.033,-0.031,-0.03,-0.029,-0.028,-0.028,-0.026,-0.025,-0.024,-0.023,-0.021,-0.019,-0.017,-0.015,-0.012,-0.01,-0.008,-0.006,-0.003,0.0,0.003,0.005,0.008,0.011,0.013,0.015,0.015,0.016,0.015,0.015,0.015,0.015,0.015,0.016,0.017,0.019,0.021,0.024,0.026,0.029,0.034,0.039,0.045,0.051,0.054,0.058,0.06,0.062,0.065,0.068,0.072,0.076,0.08,0.084,0.088,0.092,0.095,0.098,0.1,0.103,0.104,0.106,0.106,0.107,0.106,0.106,0.105,0.105,0.103,0.102,0.099,0.097,0.095,0.092,0.089,0.086,0.081,0.077,0.071,0.065,0.06,0.054,0.048,0.042,0.037,0.031,0.026,0.021,0.016,0.011,0.007,0.002,-0.003,-0.007,-0.012,-0.017,-0.021,-0.025,-0.026,-0.028,-0.029,-0.03,-0.031,-0.031,-0.032,-0.032,-0.034,-0.035,-0.037,-0.038,-0.038,-0.038,-0.038,-0.037,-0.036,-0.035,-0.034,-0.033,-0.033,-0.032,-0.033,-0.033,-0.034,-0.035,-0.035,-0.034,-0.034,-0.034,-0.034,-0.034,-0.034,-0.033,-0.032,-0.031,-0.031,-0.03,-0.031,-0.031,-0.031,-0.03,-0.029,-0.028,-0.026,-0.025,-0.024,-0.023,-0.021,-0.019,-0.017,-0.016,-0.015,-0.015,-0.015,-0.016,-0.016,-0.016,-0.016,-0.017,-0.017,-0.018,-0.017,-0.017,-0.016,-0.015,-0.013,-0.012,-0.013,-0.015,-0.016,-0.017,-0.018,-0.02,-0.021,-0.023,-0.023,-0.024,-0.023,-0.023,-0.022,-0.022,-0.02,-0.018,-0.015,-0.012,-0.011,-0.009,-0.009,-0.009,-0.01,-0.011,-0.013,-0.016,-0.018,-0.02,-0.019,-0.019,-0.017,-0.016,-0.012,-0.008,-0.005,-0.001,0.003,0.006,0.008,0.01,0.01,0.01,0.008,0.006,0.002,-0.003,-0.008,-0.012,-0.017,-0.021,-0.023,-0.025,-0.026,-0.028,-0.029,-0.03,-0.031,-0.031,-0.031,-0.031,-0.031,-0.031,-0.031,-0.031,-0.031,-0.031,-0.032,-0.033,-0.037,-0.04,-0.046,-0.052,-0.06,-0.067,-0.072,-0.077,-0.074,-0.071,-0.059,-0.047,-0.024,-0.002,0.03,0.061,0.1,0.139,0.181,0.224,0.266,0.309,0.346,0.383,0.405,0.428,0.429,0.43,0.405,0.38,0.334,0.287,0.232,0.177,0.129,0.081,0.049,0.017,0.001,-0.015,-0.018,-0.021,-0.021,-0.022,-0.022,-0.023,-0.025,-0.027,-0.03,-0.033,-0.036,-0.038,-0.04,-0.041,-0.042,-0.044,-0.045,-0.046,-0.048,-0.05,-0.05,-0.05,-0.05,-0.05,-0.049,-0.048,-0.045,-0.041,-0.039,-0.037,-0.036,-0.034,-0.034,-0.033,-0.032,-0.031,-0.031,-0.03,-0.031,-0.031,-0.031,-0.031,-0.031,-0.03,-0.029,-0.028,N
10,-0.035,-0.035,-0.037,-0.038,-0.041,-0.044,-0.046,-0.049,-0.05,-0.052,-0.052,-0.053,-0.054,-0.055,-0.056,-0.057,-0.056,-0.056,-0.055,-0.054,-0.053,-0.052,-0.05,-0.049,-0.047,-0.045,-0.043,-0.041,-0.039,-0.037,-0.035,-0.033,-0.032,-0.031,-0.03,-0.029,-0.028,-0.028,-0.027,-0.026,-0.026,-0.026,-0.024,-0.023,-0.021,-0.019,-0.017,-0.015,-0.012,-0.01,-0.009,-0.007,-0.005,-0.003,-0.002,0.0,0.003,0.005,0.008,0.011,0.013,0.015,0.015,0.016,0.015,0.015,0.015,0.015,0.015,0.016,0.017,0.019,0.022,0.025,0.028,0.032,0.037,0.042,0.047,0.052,0.054,0.057,0.06,0.062,0.066,0.069,0.074,0.079,0.083,0.088,0.093,0.097,0.103,0.108,0.113,0.119,0.125,0.131,0.135,0.139,0.142,0.145,0.148,0.15,0.151,0.151,0.15,0.148,0.147,0.145,0.142,0.139,0.134,0.129,0.124,0.119,0.112,0.106,0.099,0.092,0.085,0.079,0.071,0.064,0.057,0.051,0.045,0.038,0.033,0.027,0.022,0.017,0.012,0.007,0.003,-0.001,-0.005,-0.009,-0.013,-0.018,-0.021,-0.024,-0.025,-0.027,-0.028,-0.029,-0.03,-0.03,-0.031,-0.032,-0.033,-0.034,-0.035,-0.035,-0.035,-0.035,-0.036,-0.037,-0.038,-0.038,-0.038,-0.038,-0.038,-0.038,-0.038,-0.037,-0.036,-0.035,-0.034,-0.033,-0.032,-0.031,-0.031,-0.03,-0.031,-0.031,-0.031,-0.031,-0.031,-0.031,-0.031,-0.031,-0.031,-0.031,-0.031,-0.03,-0.029,-0.028,-0.026,-0.025,-0.024,-0.024,-0.023,-0.023,-0.023,-0.024,-0.025,-0.026,-0.027,-0.028,-0.027,-0.027,-0.027,-0.027,-0.027,-0.027,-0.027,-0.027,-0.027,-0.027,-0.027,-0.027,-0.027,-0.027,-0.026,-0.026,-0.024,-0.022,-0.019,-0.016,-0.012,-0.009,-0.007,-0.004,-0.002,0.0,-0.001,-0.001,-0.003,-0.005,-0.008,-0.01,-0.012,-0.013,-0.013,-0.013,-0.01,-0.007,-0.003,0.001,0.005,0.008,0.01,0.012,0.013,0.013,0.012,0.011,0.008,0.004,-0.001,-0.006,-0.011,-0.017,-0.021,-0.025,-0.026,-0.028,-0.029,-0.03,-0.031,-0.031,-0.031,-0.031,-0.031,-0.031,-0.031,-0.031,-0.031,-0.031,-0.032,-0.032,-0.034,-0.036,-0.04,-0.045,-0.051,-0.057,-0.064,-0.07,-0.075,-0.079,-0.076,-0.073,-0.06,-0.048,-0.023,0.002,0.038,0.074,0.117,0.16,0.206,0.253,0.3,0.347,0.386,0.426,0.448,0.47,0.469,0.468,0.439,0.41,0.358,0.307,0.246,0.185,0.134,0.082,0.049,0.016,0.001,-0.013,-0.016,-0.019,-0.019,-0.019,-0.02,-0.021,-0.023,-0.025,-0.028,-0.032,-0.035,-0.038,-0.041,-0.045,-0.047,-0.049,-0.05,-0.052,-0.052,-0.053,-0.053,-0.054,-0.054,-0.054,-0.053,-0.053,-0.053,-0.053,-0.053,-0.053,-0.052,-0.051,-0.049,-0.048,-0.045,-0.042,-0.041,-0.04,-0.039,-0.038,-0.038,-0.038,-0.038,-0.037,-0.036,-0.034,-0.033,-0.031,-0.03,-0.029,-0.028,-0.028,-0.026,-0.025,-0.024,-0.023,-0.021,-0.019,-0.017,-0.015,-0.012,-0.01,-0.008,-0.006,-0.003,0.0,0.003,0.005,0.008,0.011,0.013,0.015,0.015,0.016,0.015,0.015,0.015,0.015,0.015,0.016,0.017,0.019,0.021,0.024,0.026,0.029,0.034,0.039,0.045,0.051,0.054,0.058,0.06,0.062,0.065,0.068,0.072,0.076,0.08,0.084,0.088,0.092,0.095,0.098,0.1,0.103,0.104,0.106,0.106,0.107,0.106,0.106,0.105,0.105,0.103,0.102,0.099,0.097,0.095,0.092,0.089,0.086,0.081,0.077,0.071,0.065,0.06,0.054,0.048,0.042,0.037,0.031,0.026,0.021,0.016,0.011,0.007,0.002,-0.003,-0.007,-0.012,-0.017,-0.021,-0.025,-0.026,-0.028,-0.029,-0.03,-0.031,-0.031,-0.032,-0.032,-0.034,-0.035,-0.037,-0.038,-0.038,-0.038,-0.038,-0.037,-0.036,-0.035,-0.034,-0.033,-0.033,-0.032,-0.033,-0.033,-0.034,-0.035,-0.035,-0.034,-0.034,-0.034,-0.034,-0.034,-0.034,-0.033,-0.032,-0.031,-0.031,-0.03,-0.031,-0.031,-0.031,-0.03,-0.029,-0.028,-0.026,-0.025,-0.024,-0.023,-0.021,-0.019,-0.017,-0.016,-0.015,-0.015,-0.015,-0.016,-0.016,-0.016,-0.016,-0.017,-0.017,-0.018,-0.017,-0.017,-0.016,-0.015,-0.013,-0.012,-0.013,-0.015,-0.016,-0.017,-0.018,-0.02,-0.021,-0.023,-0.023,-0.024,-0.023,-0.023,-0.022,-0.022,-0.02,-0.018,-0.015,-0.012,-0.011,-0.009,-0.009,-0.009,-0.01,-0.011,-0.013,-0.016,-0.018,-0.02,-0.019,-0.019,-0.017,-0.016,-0.012,-0.008,-0.005,-0.001,0.003,0.006,0.008,0.01,0.01,0.01,0.008,0.006,0.002,-0.003,-0.008,-0.012,-0.017,-0.021,-0.023,-0.025,-0.026,-0.028,-0.029,-0.03,-0.031,-0.031,-0.031,-0.031,-0.031,-0.031,-0.031,-0.031,-0.031,-0.031,-0.032,-0.033,-0.037,-0.04,-0.046,-0.052,-0.06,-0.067,-0.072,-0.077,-0.074,-0.071,-0.059,-0.047,-0.024,-0.002,0.03,0.061,0.1,0.139,0.181,0.224,0.266,0.309,0.346,0.383,0.405,0.428,0.429,0.43,0.405,0.38,0.334,0.287,0.232,0.177,0.129,0.081,0.049,0.017,0.001,-0.015,-0.018,-0.021,-0.021,-0.022,-0.022,-0.023,-0.025,-0.027,-0.03,-0.033,-0.036,-0.038,-0.04,-0.041,-0.042,-0.044,-0.045,-0.046,-0.048,-0.05,-0.05,-0.05,-0.05,-0.05,-0.049,-0.048,-0.045,-0.041,-0.039,-0.037,-0.036,-0.034,-0.034,-0.033,-0.032,-0.031,-0.031,-0.03,-0.031,-0.031,-0.031,-0.031,-0.031,-0.03,-0.029,-0.028,-0.026,-0.025,-0.024,-0.023,-0.021,-0.02,-0.019,-0.018,-0.017,-0.016,-0.012,-0.009,-0.007,-0.004,-0.002,0.001,0.003,0.005,0.007,0.008,0.01,0.011,0.013,0.015,0.015,0.016,0.015,0.015,0.015,0.015,0.015,0.016,0.018,0.02,0.024,0.028,0.032,0.035,0.039,0.044,0.047,0.051,0.054,0.058,0.062,0.065,0.07,0.075,0.08,0.085,0.091,0.096,0.101,0.106,0.11,0.114,0.118,0.122,0.124,0.125,0.126,0.126,0.126,0.126,0.126,0.125,0.124,0.123,0.122,0.12,0.118,0.115,0.112,0.109,0.104,0.099,0.094,0.088,0.082,0.076,0.069,0.062,0.056,0.05,0.044,0.038,0.033,0.028,0.022,0.017,0.012,0.008,0.005,0.001,-0.004,-0.008,-0.013,-0.018,-0.021,-0.024,-0.026,-0.028,-0.03,-0.031,-0.032,-0.032,-0.034,-0.035,-0.037,-0.038,-0.038,-0.038,-0.038,-0.038,-0.038,-0.037,-0.036,-0.035,-0.035,-0.034,-0.034,-0.034,-0.034,-0.034,-0.034,-0.034,-0.034,-0.033,-0.032,-0.031,-0.03,-0.029,-0.028,-0.028,-0.026,-0.025,-0.024,-0.024,-0.023,-0.023,-0.022,-0.022,-0.021,-0.02,-0.019,-0.019,-0.019,-0.02,-0.019,-0.019,-0.018,-0.017,-0.016,-0.016,-0.015,-0.015,-0.015,-0.016,-0.016,-0.016,-0.016,-0.016,-0.016,-0.016,-0.016,-0.016,-0.016,-0.016,-0.016,-0.016,-0.016,-0.017,-0.018,-0.019,-0.02,-0.021,-0.022,-0.023,-0.022,-0.022,-0.02,-0.019,-0.017,-0.015,-0.013,-0.011,-0.011,-0.01,-0.009,-0.008,-0.008,-0.008,-0.01,-0.011,-0.013,-0.015,-0.015,-0.016,-0.013,-0.01,-0.007,-0.003,0.001,0.005,0.008,0.01,0.011,0.011,0.01,0.009,0.006,0.002,-0.004,-0.01,-0.015,-0.02,-0.023,-0.026,-0.028,-0.03,-0.031,-0.031,-0.031,-0.031,-0.031,-0.031,-0.031,-0.031,-0.031,-0.031,-0.031,-0.031,-0.032,-0.032,-0.034,-0.035,-0.039,-0.042,-0.048,-0.054,-0.059,-0.063,-0.065,-0.066,-0.061,-0.055,-0.038,-0.021,0.006,0.033,0.069,0.105,0.147,0.19,0.235,0.28,0.323,0.366,0.399,0.433,0.447,0.461,0.45,0.438,0.4,0.361,0.305,0.249,0.187,0.126,0.078,0.03,0.002,-0.026,-0.036,-0.046,-0.045,-0.044,-0.04,-0.036,-0.034,-0.031,-0.031,-0.031,-0.033,-0.034,-0.035,-0.036,-0.037,-0.038,-0.04,-0.041,-0.042,-0.042,-0.041,-0.04,-0.039,-0.037,-0.036,-0.035,-0.034,-0.033,-0.032,-0.031,-0.031,-0.03,-0.031,-0.031,-0.031,-0.031,-0.031,-0.031,-0.031,-0.031,-0.031,-0.03,-0.029,-0.028,-0.026,-0.025,N
11,-0.023,-0.025,-0.028,-0.032,-0.035,-0.038,-0.041,-0.045,-0.047,-0.049,-0.05,-0.052,-0.052,-0.053,-0.053,-0.054,-0.054,-0.054,-0.053,-0.053,-0.053,-0.053,-0.053,-0.053,-0.052,-0.051,-0.049,-0.048,-0.045,-0.042,-0.041,-0.04,-0.039,-0.038,-0.038,-0.038,-0.038,-0.037,-0.036,-0.034,-0.033,-0.031,-0.03,-0.029,-0.028,-0.028,-0.026,-0.025,-0.024,-0.023,-0.021,-0.019,-0.017,-0.015,-0.012,-0.01,-0.008,-0.006,-0.003,0.0,0.003,0.005,0.008,0.011,0.013,0.015,0.015,0.016,0.015,0.015,0.015,0.015,0.015,0.016,0.017,0.019,0.021,0.024,0.026,0.029,0.034,0.039,0.045,0.051,0.054,0.058,0.06,0.062,0.065,0.068,0.072,0.076,0.08,0.084,0.088,0.092,0.095,0.098,0.1,0.103,0.104,0.106,0.106,0.107,0.106,0.106,0.105,0.105,0.103,0.102,0.099,0.097,0.095,0.092,0.089,0.086,0.081,0.077,0.071,0.065,0.06,0.054,0.048,0.042,0.037,0.031,0.026,0.021,0.016,0.011,0.007,0.002,-0.003,-0.007,-0.012,-0.017,-0.021,-0.025,-0.026,-0.028,-0.029,-0.03,-0.031,-0.031,-0.032,-0.032,-0.034,-0.035,-0.037,-0.038,-0.038,-0.038,-0.038,-0.037,-0.036,-0.035,-0.034,-0.033,-0.033,-0.032,-0.033,-0.033,-0.034,-0.035,-0.035,-0.034,-0.034,-0.034,-0.034,-0.034,-0.034,-0.033,-0.032,-0.031,-0.031,-0.03,-0.031,-0.031,-0.031,-0.03,-0.029,-0.028,-0.026,-0.025,-0.024,-0.023,-0.021,-0.019,-0.017,-0.016,-0.015,-0.015,-0.015,-0.016,-0.016,-0.016,-0.016,-0.017,-0.017,-0.018,-0.017,-0.017,-0.016,-0.015,-0.013,-0.012,-0.013,-0.015,-0.016,-0.017,-0.018,-0.02,-0.021,-0.023,-0.023,-0.024,-0.023,-0.023,-0.022,-0.022,-0.02,-0.018,-0.015,-0.012,-0.011,-0.009,-0.009,-0.009,-0.01,-0.011,-0.013,-0.016,-0.018,-0.02,-0.019,-0.019,-0.017,-0.016,-0.012,-0.008,-0.005,-0.001,0.003,0.006,0.008,0.01,0.01,0.01,0.008,0.006,0.002,-0.003,-0.008,-0.012,-0.017,-0.021,-0.023,-0.025,-0.026,-0.028,-0.029,-0.03,-0.031,-0.031,-0.031,-0.031,-0.031,-0.031,-0.031,-0.031,-0.031,-0.031,-0.032,-0.033,-0.037,-0.04,-0.046,-0.052,-0.06,-0.067,-0.072,-0.077,-0.074,-0.071,-0.059,-0.047,-0.024,-0.002,0.03,0.061,0.1,0.139,0.181,0.224,0.266,0.309,0.346,0.383,0.405,0.428,0.429,0.43,0.405,0.38,0.334,0.287,0.232,0.177,0.129,0.081,0.049,0.017,0.001,-0.015,-0.018,-0.021,-0.021,-0.022,-0.022,-0.023,-0.025,-0.027,-0.03,-0.033,-0.036,-0.038,-0.04,-0.041,-0.042,-0.044,-0.045,-0.046,-0.048,-0.05,-0.05,-0.05,-0.05,-0.05,-0.049,-0.048,-0.045,-0.041,-0.039,-0.037,-0.036,-0.034,-0.034,-0.033,-0.032,-0.031,-0.031,-0.03,-0.031,-0.031,-0.031,-0.031,-0.031,-0.03,-0.029,-0.028,-0.026,-0.025,-0.024,-0.023,-0.021,-0.02,-0.019,-0.018,-0.017,-0.016,-0.012,-0.009,-0.007,-0.004,-0.002,0.001,0.003,0.005,0.007,0.008,0.01,0.011,0.013,0.015,0.015,0.016,0.015,0.015,0.015,0.015,0.015,0.016,0.018,0.02,0.024,0.028,0.032,0.035,0.039,0.044,0.047,0.051,0.054,0.058,0.062,0.065,0.07,0.075,0.08,0.085,0.091,0.096,0.101,0.106,0.11,0.114,0.118,0.122,0.124,0.125,0.126,0.126,0.126,0.126,0.126,0.125,0.124,0.123,0.122,0.12,0.118,0.115,0.112,0.109,0.104,0.099,0.094,0.088,0.082,0.076,0.069,0.062,0.056,0.05,0.044,0.038,0.033,0.028,0.022,0.017,0.012,0.008,0.005,0.001,-0.004,-0.008,-0.013,-0.018,-0.021,-0.024,-0.026,-0.028,-0.03,-0.031,-0.032,-0.032,-0.034,-0.035,-0.037,-0.038,-0.038,-0.038,-0.038,-0.038,-0.038,-0.037,-0.036,-0.035,-0.035,-0.034,-0.034,-0.034,-0.034,-0.034,-0.034,-0.034,-0.034,-0.033,-0.032,-0.031,-0.03,-0.029,-0.028,-0.028,-0.026,-0.025,-0.024,-0.024,-0.023,-0.023,-0.022,-0.022,-0.021,-0.02,-0.019,-0.019,-0.019,-0.02,-0.019,-0.019,-0.018,-0.017,-0.016,-0.016,-0.015,-0.015,-0.015,-0.016,-0.016,-0.016,-0.016,-0.016,-0.016,-0.016,-0.016,-0.016,-0.016,-0.016,-0.016,-0.016,-0.016,-0.017,-0.018,-0.019,-0.02,-0.021,-0.022,-0.023,-0.022,-0.022,-0.02,-0.019,-0.017,-0.015,-0.013,-0.011,-0.011,-0.01,-0.009,-0.008,-0.008,-0.008,-0.01,-0.011,-0.013,-0.015,-0.015,-0.016,-0.013,-0.01,-0.007,-0.003,0.001,0.005,0.008,0.01,0.011,0.011,0.01,0.009,0.006,0.002,-0.004,-0.01,-0.015,-0.02,-0.023,-0.026,-0.028,-0.03,-0.031,-0.031,-0.031,-0.031,-0.031,-0.031,-0.031,-0.031,-0.031,-0.031,-0.031,-0.031,-0.032,-0.032,-0.034,-0.035,-0.039,-0.042,-0.048,-0.054,-0.059,-0.063,-0.065,-0.066,-0.061,-0.055,-0.038,-0.021,0.006,0.033,0.069,0.105,0.147,0.19,0.235,0.28,0.323,0.366,0.399,0.433,0.447,0.461,0.45,0.438,0.4,0.361,0.305,0.249,0.187,0.126,0.078,0.03,0.002,-0.026,-0.036,-0.046,-0.045,-0.044,-0.04,-0.036,-0.034,-0.031,-0.031,-0.031,-0.033,-0.034,-0.035,-0.036,-0.037,-0.038,-0.04,-0.041,-0.042,-0.042,-0.041,-0.04,-0.039,-0.037,-0.036,-0.035,-0.034,-0.033,-0.032,-0.031,-0.031,-0.03,-0.031,-0.031,-0.031,-0.031,-0.031,-0.031,-0.031,-0.031,-0.031,-0.03,-0.029,-0.028,-0.026,-0.025,-0.024,-0.023,-0.021,-0.019,-0.017,-0.015,-0.012,-0.01,-0.008,-0.006,-0.004,-0.001,0.0,0.001,0.003,0.004,0.006,0.007,0.01,0.012,0.013,0.015,0.015,0.016,0.015,0.015,0.015,0.015,0.015,0.016,0.017,0.019,0.021,0.024,0.026,0.028,0.032,0.036,0.041,0.047,0.051,0.055,0.059,0.062,0.066,0.07,0.076,0.082,0.088,0.093,0.098,0.104,0.109,0.114,0.12,0.125,0.13,0.135,0.138,0.142,0.145,0.148,0.15,0.152,0.154,0.156,0.157,0.157,0.156,0.155,0.153,0.15,0.146,0.142,0.137,0.133,0.127,0.122,0.117,0.111,0.105,0.099,0.093,0.086,0.078,0.07,0.063,0.056,0.05,0.044,0.037,0.031,0.026,0.021,0.017,0.012,0.009,0.005,0.002,-0.002,-0.006,-0.009,-0.013,-0.018,-0.021,-0.024,-0.026,-0.028,-0.03,-0.031,-0.031,-0.031,-0.031,-0.031,-0.031,-0.031,-0.031,-0.031,-0.031,-0.031,-0.031,-0.031,-0.031,-0.031,-0.031,-0.031,-0.031,-0.031,-0.031,-0.031,-0.031,-0.031,-0.031,-0.031,-0.031,-0.031,-0.031,-0.031,-0.031,-0.031,-0.031,-0.031,-0.031,-0.031,-0.031,-0.031,-0.031,-0.031,-0.031,-0.031,-0.031,-0.031,-0.031,-0.031,-0.031,-0.031,-0.031,-0.031,-0.031,-0.031,-0.031,-0.031,-0.031,-0.031,-0.031,-0.031,-0.031,-0.03,-0.028,-0.027,-0.024,-0.022,-0.02,-0.019,-0.017,-0.016,-0.015,-0.015,-0.015,-0.016,-0.016,-0.016,-0.015,-0.015,-0.012,-0.01,-0.007,-0.004,-0.002,0.001,0.003,0.004,0.003,0.002,0.0,-0.002,-0.005,-0.007,-0.008,-0.009,-0.009,-0.009,-0.007,-0.004,-0.001,0.002,0.005,0.008,0.01,0.012,0.013,0.015,0.014,0.013,0.01,0.006,0.002,-0.003,-0.008,-0.012,-0.017,-0.022,-0.024,-0.027,-0.028,-0.029,-0.03,-0.03,-0.031,-0.031,-0.031,-0.031,-0.031,-0.031,-0.031,-0.031,-0.031,-0.031,-0.032,-0.032,-0.035,-0.037,-0.042,-0.048,-0.052,-0.057,-0.059,-0.061,-0.056,-0.051,-0.034,-0.017,0.012,0.04,0.079,0.118,0.164,0.21,0.258,0.307,0.351,0.396,0.43,0.464,0.477,0.491,0.478,0.465,0.424,0.383,0.323,0.263,0.201,0.139,0.088,0.037,0.008,-0.022,-0.032,-0.041,-0.041,-0.04,-0.037,-0.033,-0.032,-0.031,-0.031,-0.03,-0.031,-0.032,-0.033,-0.034,-0.035,-0.036,-0.037,-0.038,-0.04,-0.042,-0.044,-0.046,-0.047,-0.048,-0.047,-0.047,-0.045,-0.044,-0.041,-0.039,-0.037,-0.035,-0.034,-0.033,-0.032,-0.031,-0.031,-0.03,-0.031,-0.031,-0.031,-0.031,N
12,-0.025,-0.027,-0.03,-0.033,-0.036,-0.038,-0.04,-0.041,-0.042,-0.044,-0.045,-0.046,-0.048,-0.05,-0.05,-0.05,-0.05,-0.05,-0.049,-0.048,-0.045,-0.041,-0.039,-0.037,-0.036,-0.034,-0.034,-0.033,-0.032,-0.031,-0.031,-0.03,-0.031,-0.031,-0.031,-0.031,-0.031,-0.03,-0.029,-0.028,-0.026,-0.025,-0.024,-0.023,-0.021,-0.02,-0.019,-0.018,-0.017,-0.016,-0.012,-0.009,-0.007,-0.004,-0.002,0.001,0.003,0.005,0.007,0.008,0.01,0.011,0.013,0.015,0.015,0.016,0.015,0.015,0.015,0.015,0.015,0.016,0.018,0.02,0.024,0.028,0.032,0.035,0.039,0.044,0.047,0.051,0.054,0.058,0.062,0.065,0.07,0.075,0.08,0.085,0.091,0.096,0.101,0.106,0.11,0.114,0.118,0.122,0.124,0.125,0.126,0.126,0.126,0.126,0.126,0.125,0.124,0.123,0.122,0.12,0.118,0.115,0.112,0.109,0.104,0.099,0.094,0.088,0.082,0.076,0.069,0.062,0.056,0.05,0.044,0.038,0.033,0.028,0.022,0.017,0.012,0.008,0.005,0.001,-0.004,-0.008,-0.013,-0.018,-0.021,-0.024,-0.026,-0.028,-0.03,-0.031,-0.032,-0.032,-0.034,-0.035,-0.037,-0.038,-0.038,-0.038,-0.038,-0.038,-0.038,-0.037,-0.036,-0.035,-0.035,-0.034,-0.034,-0.034,-0.034,-0.034,-0.034,-0.034,-0.034,-0.033,-0.032,-0.031,-0.03,-0.029,-0.028,-0.028,-0.026,-0.025,-0.024,-0.024,-0.023,-0.023,-0.022,-0.022,-0.021,-0.02,-0.019,-0.019,-0.019,-0.02,-0.019,-0.019,-0.018,-0.017,-0.016,-0.016,-0.015,-0.015,-0.015,-0.016,-0.016,-0.016,-0.016,-0.016,-0.016,-0.016,-0.016,-0.016,-0.016,-0.016,-0.016,-0.016,-0.016,-0.017,-0.018,-0.019,-0.02,-0.021,-0.022,-0.023,-0.022,-0.022,-0.02,-0.019,-0.017,-0.015,-0.013,-0.011,-0.011,-0.01,-0.009,-0.008,-0.008,-0.008,-0.01,-0.011,-0.013,-0.015,-0.015,-0.016,-0.013,-0.01,-0.007,-0.003,0.001,0.005,0.008,0.01,0.011,0.011,0.01,0.009,0.006,0.002,-0.004,-0.01,-0.015,-0.02,-0.023,-0.026,-0.028,-0.03,-0.031,-0.031,-0.031,-0.031,-0.031,-0.031,-0.031,-0.031,-0.031,-0.031,-0.031,-0.031,-0.032,-0.032,-0.034,-0.035,-0.039,-0.042,-0.048,-0.054,-0.059,-0.063,-0.065,-0.066,-0.061,-0.055,-0.038,-0.021,0.006,0.033,0.069,0.105,0.147,0.19,0.235,0.28,0.323,0.366,0.399,0.433,0.447,0.461,0.45,0.438,0.4,0.361,0.305,0.249,0.187,0.126,0.078,0.03,0.002,-0.026,-0.036,-0.046,-0.045,-0.044,-0.04,-0.036,-0.034,-0.031,-0.031,-0.031,-0.033,-0.034,-0.035,-0.036,-0.037,-0.038,-0.04,-0.041,-0.042,-0.042,-0.041,-0.04,-0.039,-0.037,-0.036,-0.035,-0.034,-0.033,-0.032,-0.031,-0.031,-0.03,-0.031,-0.031,-0.031,-0.031,-0.031,-0.031,-0.031,-0.031,-0.031,-0.03,-0.029,-0.028,-0.026,-0.025,-0.024,-0.023,-0.021,-0.019,-0.017,-0.015,-0.012,-0.01,-0.008,-0.006,-0.004,-0.001,0.0,0.001,0.003,0.004,0.006,0.007,0.01,0.012,0.013,0.015,0.015,0.016,0.015,0.015,0.015,0.015,0.015,0.016,0.017,0.019,0.021,0.024,0.026,0.028,0.032,0.036,0.041,0.047,0.051,0.055,0.059,0.062,0.066,0.07,0.076,0.082,0.088,0.093,0.098,0.104,0.109,0.114,0.12,0.125,0.13,0.135,0.138,0.142,0.145,0.148,0.15,0.152,0.154,0.156,0.157,0.157,0.156,0.155,0.153,0.15,0.146,0.142,0.137,0.133,0.127,0.122,0.117,0.111,0.105,0.099,0.093,0.086,0.078,0.07,0.063,0.056,0.05,0.044,0.037,0.031,0.026,0.021,0.017,0.012,0.009,0.005,0.002,-0.002,-0.006,-0.009,-0.013,-0.018,-0.021,-0.024,-0.026,-0.028,-0.03,-0.031,-0.031,-0.031,-0.031,-0.031,-0.031,-0.031,-0.031,-0.031,-0.031,-0.031,-0.031,-0.031,-0.031,-0.031,-0.031,-0.031,-0.031,-0.031,-0.031,-0.031,-0.031,-0.031,-0.031,-0.031,-0.031,-0.031,-0.031,-0.031,-0.031,-0.031,-0.031,-0.031,-0.031,-0.031,-0.031,-0.031,-0.031,-0.031,-0.031,-0.031,-0.031,-0.031,-0.031,-0.031,-0.031,-0.031,-0.031,-0.031,-0.031,-0.031,-0.031,-0.031,-0.031,-0.031,-0.031,-0.031,-0.031,-0.03,-0.028,-0.027,-0.024,-0.022,-0.02,-0.019,-0.017,-0.016,-0.015,-0.015,-0.015,-0.016,-0.016,-0.016,-0.015,-0.015,-0.012,-0.01,-0.007,-0.004,-0.002,0.001,0.003,0.004,0.003,0.002,0.0,-0.002,-0.005,-0.007,-0.008,-0.009,-0.009,-0.009,-0.007,-0.004,-0.001,0.002,0.005,0.008,0.01,0.012,0.013,0.015,0.014,0.013,0.01,0.006,0.002,-0.003,-0.008,-0.012,-0.017,-0.022,-0.024,-0.027,-0.028,-0.029,-0.03,-0.03,-0.031,-0.031,-0.031,-0.031,-0.031,-0.031,-0.031,-0.031,-0.031,-0.031,-0.032,-0.032,-0.035,-0.037,-0.042,-0.048,-0.052,-0.057,-0.059,-0.061,-0.056,-0.051,-0.034,-0.017,0.012,0.04,0.079,0.118,0.164,0.21,0.258,0.307,0.351,0.396,0.43,0.464,0.477,0.491,0.478,0.465,0.424,0.383,0.323,0.263,0.201,0.139,0.088,0.037,0.008,-0.022,-0.032,-0.041,-0.041,-0.04,-0.037,-0.033,-0.032,-0.031,-0.031,-0.03,-0.031,-0.032,-0.033,-0.034,-0.035,-0.036,-0.037,-0.038,-0.04,-0.042,-0.044,-0.046,-0.047,-0.048,-0.047,-0.047,-0.045,-0.044,-0.041,-0.039,-0.037,-0.035,-0.034,-0.033,-0.032,-0.031,-0.031,-0.03,-0.031,-0.031,-0.031,-0.031,-0.031,-0.03,-0.029,-0.028,-0.027,-0.026,-0.026,-0.026,-0.025,-0.024,-0.023,-0.022,-0.021,-0.02,-0.019,-0.018,-0.017,-0.016,-0.013,-0.01,-0.008,-0.006,-0.003,0.0,0.002,0.004,0.006,0.008,0.01,0.012,0.013,0.015,0.015,0.016,0.016,0.016,0.017,0.019,0.021,0.024,0.026,0.029,0.034,0.038,0.044,0.049,0.053,0.057,0.061,0.064,0.069,0.074,0.079,0.085,0.091,0.097,0.104,0.11,0.117,0.124,0.131,0.137,0.142,0.147,0.151,0.155,0.158,0.161,0.162,0.163,0.163,0.163,0.162,0.162,0.16,0.157,0.154,0.15,0.146,0.142,0.137,0.132,0.125,0.119,0.112,0.106,0.098,0.091,0.083,0.075,0.066,0.058,0.05,0.041,0.035,0.028,0.022,0.017,0.012,0.008,0.005,0.002,-0.002,-0.006,-0.011,-0.017,-0.021,-0.025,-0.026,-0.028,-0.029,-0.03,-0.031,-0.032,-0.033,-0.034,-0.035,-0.036,-0.037,-0.037,-0.038,-0.038,-0.038,-0.037,-0.036,-0.035,-0.035,-0.034,-0.034,-0.034,-0.034,-0.034,-0.034,-0.033,-0.033,-0.032,-0.032,-0.032,-0.032,-0.032,-0.032,-0.031,-0.031,-0.031,-0.031,-0.031,-0.031,-0.031,-0.031,-0.031,-0.031,-0.031,-0.031,-0.031,-0.031,-0.031,-0.031,-0.031,-0.031,-0.031,-0.031,-0.031,-0.031,-0.031,-0.031,-0.031,-0.031,-0.031,-0.031,-0.031,-0.031,-0.031,-0.031,-0.031,-0.031,-0.031,-0.031,-0.031,-0.031,-0.031,-0.031,-0.031,-0.031,-0.03,-0.029,-0.028,-0.026,-0.025,-0.024,-0.023,-0.021,-0.019,-0.017,-0.015,-0.013,-0.012,-0.013,-0.015,-0.016,-0.018,-0.02,-0.022,-0.023,-0.024,-0.022,-0.021,-0.018,-0.015,-0.01,-0.005,-0.001,0.003,0.006,0.008,0.007,0.006,0.003,-0.001,-0.005,-0.009,-0.013,-0.018,-0.021,-0.024,-0.026,-0.028,-0.03,-0.031,-0.031,-0.031,-0.031,-0.031,-0.031,-0.031,-0.031,-0.031,-0.031,-0.031,-0.032,-0.032,-0.034,-0.036,-0.04,-0.045,-0.051,-0.057,-0.063,-0.069,-0.072,-0.075,-0.07,-0.065,-0.05,-0.035,-0.009,0.017,0.054,0.091,0.137,0.182,0.231,0.281,0.329,0.378,0.418,0.459,0.481,0.502,0.498,0.494,0.461,0.429,0.374,0.319,0.256,0.193,0.138,0.083,0.047,0.01,-0.006,-0.022,-0.025,-0.028,-0.026,-0.025,-0.024,-0.024,-0.026,-0.028,-0.032,-0.035,-0.038,-0.04,-0.043,-0.046,-0.048,-0.051,-0.052,-0.053,-0.054,-0.055,-0.056,-0.057,-0.057,-0.057,-0.057,-0.057,-0.056,-0.056,-0.055,-0.054,-0.053,-0.052,-0.051,-0.05,-0.049,-0.049,-0.047,-0.045,N
13,-0.031,-0.031,-0.033,-0.034,-0.035,-0.036,-0.037,-0.038,-0.04,-0.041,-0.042,-0.042,-0.041,-0.04,-0.039,-0.037,-0.036,-0.035,-0.034,-0.033,-0.032,-0.031,-0.031,-0.03,-0.031,-0.031,-0.031,-0.031,-0.031,-0.031,-0.031,-0.031,-0.031,-0.03,-0.029,-0.028,-0.026,-0.025,-0.024,-0.023,-0.021,-0.019,-0.017,-0.015,-0.012,-0.01,-0.008,-0.006,-0.004,-0.001,0.0,0.001,0.003,0.004,0.006,0.007,0.01,0.012,0.013,0.015,0.015,0.016,0.015,0.015,0.015,0.015,0.015,0.016,0.017,0.019,0.021,0.024,0.026,0.028,0.032,0.036,0.041,0.047,0.051,0.055,0.059,0.062,0.066,0.07,0.076,0.082,0.088,0.093,0.098,0.104,0.109,0.114,0.12,0.125,0.13,0.135,0.138,0.142,0.145,0.148,0.15,0.152,0.154,0.156,0.157,0.157,0.156,0.155,0.153,0.15,0.146,0.142,0.137,0.133,0.127,0.122,0.117,0.111,0.105,0.099,0.093,0.086,0.078,0.07,0.063,0.056,0.05,0.044,0.037,0.031,0.026,0.021,0.017,0.012,0.009,0.005,0.002,-0.002,-0.006,-0.009,-0.013,-0.018,-0.021,-0.024,-0.026,-0.028,-0.03,-0.031,-0.031,-0.031,-0.031,-0.031,-0.031,-0.031,-0.031,-0.031,-0.031,-0.031,-0.031,-0.031,-0.031,-0.031,-0.031,-0.031,-0.031,-0.031,-0.031,-0.031,-0.031,-0.031,-0.031,-0.031,-0.031,-0.031,-0.031,-0.031,-0.031,-0.031,-0.031,-0.031,-0.031,-0.031,-0.031,-0.031,-0.031,-0.031,-0.031,-0.031,-0.031,-0.031,-0.031,-0.031,-0.031,-0.031,-0.031,-0.031,-0.031,-0.031,-0.031,-0.031,-0.031,-0.031,-0.031,-0.031,-0.031,-0.03,-0.028,-0.027,-0.024,-0.022,-0.02,-0.019,-0.017,-0.016,-0.015,-0.015,-0.015,-0.016,-0.016,-0.016,-0.015,-0.015,-0.012,-0.01,-0.007,-0.004,-0.002,0.001,0.003,0.004,0.003,0.002,0.0,-0.002,-0.005,-0.007,-0.008,-0.009,-0.009,-0.009,-0.007,-0.004,-0.001,0.002,0.005,0.008,0.01,0.012,0.013,0.015,0.014,0.013,0.01,0.006,0.002,-0.003,-0.008,-0.012,-0.017,-0.022,-0.024,-0.027,-0.028,-0.029,-0.03,-0.03,-0.031,-0.031,-0.031,-0.031,-0.031,-0.031,-0.031,-0.031,-0.031,-0.031,-0.032,-0.032,-0.035,-0.037,-0.042,-0.048,-0.052,-0.057,-0.059,-0.061,-0.056,-0.051,-0.034,-0.017,0.012,0.04,0.079,0.118,0.164,0.21,0.258,0.307,0.351,0.396,0.43,0.464,0.477,0.491,0.478,0.465,0.424,0.383,0.323,0.263,0.201,0.139,0.088,0.037,0.008,-0.022,-0.032,-0.041,-0.041,-0.04,-0.037,-0.033,-0.032,-0.031,-0.031,-0.03,-0.031,-0.032,-0.033,-0.034,-0.035,-0.036,-0.037,-0.038,-0.04,-0.042,-0.044,-0.046,-0.047,-0.048,-0.047,-0.047,-0.045,-0.044,-0.041,-0.039,-0.037,-0.035,-0.034,-0.033,-0.032,-0.031,-0.031,-0.03,-0.031,-0.031,-0.031,-0.031,-0.031,-0.03,-0.029,-0.028,-0.027,-0.026,-0.026,-0.026,-0.025,-0.024,-0.023,-0.022,-0.021,-0.02,-0.019,-0.018,-0.017,-0.016,-0.013,-0.01,-0.008,-0.006,-0.003,0.0,0.002,0.004,0.006,0.008,0.01,0.012,0.013,0.015,0.015,0.016,0.016,0.016,0.017,0.019,0.021,0.024,0.026,0.029,0.034,0.038,0.044,0.049,0.053,0.057,0.061,0.064,0.069,0.074,0.079,0.085,0.091,0.097,0.104,0.11,0.117,0.124,0.131,0.137,0.142,0.147,0.151,0.155,0.158,0.161,0.162,0.163,0.163,0.163,0.162,0.162,0.16,0.157,0.154,0.15,0.146,0.142,0.137,0.132,0.125,0.119,0.112,0.106,0.098,0.091,0.083,0.075,0.066,0.058,0.05,0.041,0.035,0.028,0.022,0.017,0.012,0.008,0.005,0.002,-0.002,-0.006,-0.011,-0.017,-0.021,-0.025,-0.026,-0.028,-0.029,-0.03,-0.031,-0.032,-0.033,-0.034,-0.035,-0.036,-0.037,-0.037,-0.038,-0.038,-0.038,-0.037,-0.036,-0.035,-0.035,-0.034,-0.034,-0.034,-0.034,-0.034,-0.034,-0.033,-0.033,-0.032,-0.032,-0.032,-0.032,-0.032,-0.032,-0.031,-0.031,-0.031,-0.031,-0.031,-0.031,-0.031,-0.031,-0.031,-0.031,-0.031,-0.031,-0.031,-0.031,-0.031,-0.031,-0.031,-0.031,-0.031,-0.031,-0.031,-0.031,-0.031,-0.031,-0.031,-0.031,-0.031,-0.031,-0.031,-0.031,-0.031,-0.031,-0.031,-0.031,-0.031,-0.031,-0.031,-0.031,-0.031,-0.031,-0.031,-0.031,-0.03,-0.029,-0.028,-0.026,-0.025,-0.024,-0.023,-0.021,-0.019,-0.017,-0.015,-0.013,-0.012,-0.013,-0.015,-0.016,-0.018,-0.02,-0.022,-0.023,-0.024,-0.022,-0.021,-0.018,-0.015,-0.01,-0.005,-0.001,0.003,0.006,0.008,0.007,0.006,0.003,-0.001,-0.005,-0.009,-0.013,-0.018,-0.021,-0.024,-0.026,-0.028,-0.03,-0.031,-0.031,-0.031,-0.031,-0.031,-0.031,-0.031,-0.031,-0.031,-0.031,-0.031,-0.032,-0.032,-0.034,-0.036,-0.04,-0.045,-0.051,-0.057,-0.063,-0.069,-0.072,-0.075,-0.07,-0.065,-0.05,-0.035,-0.009,0.017,0.054,0.091,0.137,0.182,0.231,0.281,0.329,0.378,0.418,0.459,0.481,0.502,0.498,0.494,0.461,0.429,0.374,0.319,0.256,0.193,0.138,0.083,0.047,0.01,-0.006,-0.022,-0.025,-0.028,-0.026,-0.025,-0.024,-0.024,-0.026,-0.028,-0.032,-0.035,-0.038,-0.04,-0.043,-0.046,-0.048,-0.051,-0.052,-0.053,-0.054,-0.055,-0.056,-0.057,-0.057,-0.057,-0.057,-0.057,-0.056,-0.056,-0.055,-0.054,-0.053,-0.052,-0.051,-0.05,-0.049,-0.049,-0.047,-0.045,-0.043,-0.041,-0.039,-0.037,-0.035,-0.033,-0.032,-0.031,-0.031,-0.03,-0.031,-0.031,-0.031,-0.03,-0.029,-0.028,-0.026,-0.025,-0.024,-0.023,-0.021,-0.019,-0.016,-0.013,-0.011,-0.008,-0.007,-0.006,-0.005,-0.003,-0.002,0.0,0.002,0.004,0.006,0.008,0.01,0.012,0.013,0.015,0.016,0.017,0.018,0.019,0.022,0.025,0.028,0.032,0.038,0.044,0.049,0.055,0.059,0.063,0.068,0.073,0.077,0.082,0.088,0.093,0.099,0.105,0.111,0.117,0.123,0.129,0.134,0.139,0.141,0.144,0.146,0.147,0.147,0.147,0.145,0.143,0.14,0.138,0.134,0.131,0.126,0.122,0.117,0.111,0.106,0.1,0.095,0.09,0.083,0.077,0.069,0.062,0.055,0.049,0.042,0.035,0.03,0.024,0.019,0.013,0.009,0.004,-0.001,-0.006,-0.011,-0.017,-0.021,-0.025,-0.026,-0.028,-0.03,-0.031,-0.033,-0.034,-0.035,-0.036,-0.037,-0.037,-0.038,-0.039,-0.04,-0.041,-0.042,-0.044,-0.044,-0.045,-0.045,-0.046,-0.046,-0.047,-0.046,-0.045,-0.044,-0.042,-0.041,-0.04,-0.039,-0.038,-0.038,-0.038,-0.038,-0.037,-0.036,-0.035,-0.034,-0.033,-0.032,-0.031,-0.031,-0.03,-0.031,-0.031,-0.031,-0.031,-0.031,-0.031,-0.031,-0.031,-0.031,-0.031,-0.031,-0.031,-0.031,-0.031,-0.031,-0.031,-0.031,-0.031,-0.031,-0.031,-0.031,-0.031,-0.031,-0.031,-0.031,-0.031,-0.031,-0.031,-0.031,-0.031,-0.031,-0.031,-0.031,-0.031,-0.031,-0.03,-0.029,-0.028,-0.026,-0.025,-0.024,-0.023,-0.02,-0.018,-0.015,-0.012,-0.011,-0.01,-0.011,-0.012,-0.014,-0.016,-0.016,-0.016,-0.015,-0.013,-0.01,-0.006,-0.002,0.003,0.007,0.01,0.012,0.013,0.012,0.011,0.008,0.004,-0.001,-0.005,-0.01,-0.015,-0.019,-0.023,-0.026,-0.029,-0.03,-0.031,-0.031,-0.031,-0.031,-0.031,-0.031,-0.031,-0.032,-0.032,-0.034,-0.035,-0.037,-0.038,-0.039,-0.04,-0.044,-0.048,-0.053,-0.059,-0.065,-0.071,-0.076,-0.08,-0.078,-0.076,-0.064,-0.052,-0.027,-0.002,0.034,0.07,0.114,0.158,0.207,0.255,0.303,0.351,0.392,0.432,0.455,0.479,0.476,0.474,0.444,0.414,0.361,0.309,0.247,0.184,0.128,0.073,0.035,-0.002,-0.019,-0.036,-0.04,-0.044,-0.041,-0.039,-0.036,-0.033,-0.033,-0.032,-0.033,-0.034,-0.037,-0.039,-0.041,-0.042,-0.045,-0.047,-0.049,-0.051,-0.052,-0.054,-0.055,-0.057,-0.057,-0.057,-0.057,-0.057,-0.056,-0.056,-0.055,-0.054,-0.053,-0.052,-0.051,-0.05,-0.049,-0.048,-0.045,-0.041,-0.039,-0.037,N
14,-0.031,-0.03,-0.031,-0.032,-0.033,-0.034,-0.035,-0.036,-0.037,-0.038,-0.04,-0.042,-0.044,-0.046,-0.047,-0.048,-0.047,-0.047,-0.045,-0.044,-0.041,-0.039,-0.037,-0.035,-0.034,-0.033,-0.032,-0.031,-0.031,-0.03,-0.031,-0.031,-0.031,-0.031,-0.031,-0.03,-0.029,-0.028,-0.027,-0.026,-0.026,-0.026,-0.025,-0.024,-0.023,-0.022,-0.021,-0.02,-0.019,-0.018,-0.017,-0.016,-0.013,-0.01,-0.008,-0.006,-0.003,0.0,0.002,0.004,0.006,0.008,0.01,0.012,0.013,0.015,0.015,0.016,0.016,0.016,0.017,0.019,0.021,0.024,0.026,0.029,0.034,0.038,0.044,0.049,0.053,0.057,0.061,0.064,0.069,0.074,0.079,0.085,0.091,0.097,0.104,0.11,0.117,0.124,0.131,0.137,0.142,0.147,0.151,0.155,0.158,0.161,0.162,0.163,0.163,0.163,0.162,0.162,0.16,0.157,0.154,0.15,0.146,0.142,0.137,0.132,0.125,0.119,0.112,0.106,0.098,0.091,0.083,0.075,0.066,0.058,0.05,0.041,0.035,0.028,0.022,0.017,0.012,0.008,0.005,0.002,-0.002,-0.006,-0.011,-0.017,-0.021,-0.025,-0.026,-0.028,-0.029,-0.03,-0.031,-0.032,-0.033,-0.034,-0.035,-0.036,-0.037,-0.037,-0.038,-0.038,-0.038,-0.037,-0.036,-0.035,-0.035,-0.034,-0.034,-0.034,-0.034,-0.034,-0.034,-0.033,-0.033,-0.032,-0.032,-0.032,-0.032,-0.032,-0.032,-0.031,-0.031,-0.031,-0.031,-0.031,-0.031,-0.031,-0.031,-0.031,-0.031,-0.031,-0.031,-0.031,-0.031,-0.031,-0.031,-0.031,-0.031,-0.031,-0.031,-0.031,-0.031,-0.031,-0.031,-0.031,-0.031,-0.031,-0.031,-0.031,-0.031,-0.031,-0.031,-0.031,-0.031,-0.031,-0.031,-0.031,-0.031,-0.031,-0.031,-0.031,-0.031,-0.03,-0.029,-0.028,-0.026,-0.025,-0.024,-0.023,-0.021,-0.019,-0.017,-0.015,-0.013,-0.012,-0.013,-0.015,-0.016,-0.018,-0.02,-0.022,-0.023,-0.024,-0.022,-0.021,-0.018,-0.015,-0.01,-0.005,-0.001,0.003,0.006,0.008,0.007,0.006,0.003,-0.001,-0.005,-0.009,-0.013,-0.018,-0.021,-0.024,-0.026,-0.028,-0.03,-0.031,-0.031,-0.031,-0.031,-0.031,-0.031,-0.031,-0.031,-0.031,-0.031,-0.031,-0.032,-0.032,-0.034,-0.036,-0.04,-0.045,-0.051,-0.057,-0.063,-0.069,-0.072,-0.075,-0.07,-0.065,-0.05,-0.035,-0.009,0.017,0.054,0.091,0.137,0.182,0.231,0.281,0.329,0.378,0.418,0.459,0.481,0.502,0.498,0.494,0.461,0.429,0.374,0.319,0.256,0.193,0.138,0.083,0.047,0.01,-0.006,-0.022,-0.025,-0.028,-0.026,-0.025,-0.024,-0.024,-0.026,-0.028,-0.032,-0.035,-0.038,-0.04,-0.043,-0.046,-0.048,-0.051,-0.052,-0.053,-0.054,-0.055,-0.056,-0.057,-0.057,-0.057,-0.057,-0.057,-0.056,-0.056,-0.055,-0.054,-0.053,-0.052,-0.051,-0.05,-0.049,-0.049,-0.047,-0.045,-0.043,-0.041,-0.039,-0.037,-0.035,-0.033,-0.032,-0.031,-0.031,-0.03,-0.031,-0.031,-0.031,-0.03,-0.029,-0.028,-0.026,-0.025,-0.024,-0.023,-0.021,-0.019,-0.016,-0.013,-0.011,-0.008,-0.007,-0.006,-0.005,-0.003,-0.002,0.0,0.002,0.004,0.006,0.008,0.01,0.012,0.013,0.015,0.016,0.017,0.018,0.019,0.022,0.025,0.028,0.032,0.038,0.044,0.049,0.055,0.059,0.063,0.068,0.073,0.077,0.082,0.088,0.093,0.099,0.105,0.111,0.117,0.123,0.129,0.134,0.139,0.141,0.144,0.146,0.147,0.147,0.147,0.145,0.143,0.14,0.138,0.134,0.131,0.126,0.122,0.117,0.111,0.106,0.1,0.095,0.09,0.083,0.077,0.069,0.062,0.055,0.049,0.042,0.035,0.03,0.024,0.019,0.013,0.009,0.004,-0.001,-0.006,-0.011,-0.017,-0.021,-0.025,-0.026,-0.028,-0.03,-0.031,-0.033,-0.034,-0.035,-0.036,-0.037,-0.037,-0.038,-0.039,-0.04,-0.041,-0.042,-0.044,-0.044,-0.045,-0.045,-0.046,-0.046,-0.047,-0.046,-0.045,-0.044,-0.042,-0.041,-0.04,-0.039,-0.038,-0.038,-0.038,-0.038,-0.037,-0.036,-0.035,-0.034,-0.033,-0.032,-0.031,-0.031,-0.03,-0.031,-0.031,-0.031,-0.031,-0.031,-0.031,-0.031,-0.031,-0.031,-0.031,-0.031,-0.031,-0.031,-0.031,-0.031,-0.031,-0.031,-0.031,-0.031,-0.031,-0.031,-0.031,-0.031,-0.031,-0.031,-0.031,-0.031,-0.031,-0.031,-0.031,-0.031,-0.031,-0.031,-0.031,-0.031,-0.03,-0.029,-0.028,-0.026,-0.025,-0.024,-0.023,-0.02,-0.018,-0.015,-0.012,-0.011,-0.01,-0.011,-0.012,-0.014,-0.016,-0.016,-0.016,-0.015,-0.013,-0.01,-0.006,-0.002,0.003,0.007,0.01,0.012,0.013,0.012,0.011,0.008,0.004,-0.001,-0.005,-0.01,-0.015,-0.019,-0.023,-0.026,-0.029,-0.03,-0.031,-0.031,-0.031,-0.031,-0.031,-0.031,-0.031,-0.032,-0.032,-0.034,-0.035,-0.037,-0.038,-0.039,-0.04,-0.044,-0.048,-0.053,-0.059,-0.065,-0.071,-0.076,-0.08,-0.078,-0.076,-0.064,-0.052,-0.027,-0.002,0.034,0.07,0.114,0.158,0.207,0.255,0.303,0.351,0.392,0.432,0.455,0.479,0.476,0.474,0.444,0.414,0.361,0.309,0.247,0.184,0.128,0.073,0.035,-0.002,-0.019,-0.036,-0.04,-0.044,-0.041,-0.039,-0.036,-0.033,-0.033,-0.032,-0.033,-0.034,-0.037,-0.039,-0.041,-0.042,-0.045,-0.047,-0.049,-0.051,-0.052,-0.054,-0.055,-0.057,-0.057,-0.057,-0.057,-0.057,-0.056,-0.056,-0.055,-0.054,-0.053,-0.052,-0.051,-0.05,-0.049,-0.048,-0.045,-0.041,-0.039,-0.037,-0.035,-0.033,-0.032,-0.031,-0.031,-0.03,-0.03,-0.03,-0.028,-0.027,-0.024,-0.022,-0.02,-0.019,-0.016,-0.013,-0.01,-0.007,-0.005,-0.003,-0.002,0.0,0.002,0.004,0.006,0.008,0.01,0.011,0.012,0.012,0.013,0.015,0.015,0.016,0.016,0.016,0.017,0.019,0.021,0.024,0.025,0.027,0.03,0.033,0.037,0.041,0.046,0.051,0.055,0.059,0.062,0.065,0.069,0.074,0.079,0.084,0.089,0.093,0.097,0.1,0.106,0.112,0.117,0.122,0.126,0.131,0.134,0.137,0.139,0.141,0.142,0.144,0.143,0.142,0.139,0.137,0.133,0.128,0.124,0.12,0.115,0.111,0.105,0.099,0.094,0.088,0.082,0.076,0.068,0.061,0.053,0.046,0.039,0.032,0.027,0.023,0.018,0.013,0.009,0.005,0.002,-0.002,-0.006,-0.009,-0.013,-0.018,-0.021,-0.024,-0.026,-0.028,-0.03,-0.031,-0.031,-0.031,-0.031,-0.031,-0.031,-0.031,-0.032,-0.032,-0.033,-0.034,-0.035,-0.035,-0.035,-0.034,-0.034,-0.033,-0.032,-0.031,-0.031,-0.03,-0.031,-0.031,-0.031,-0.031,-0.031,-0.031,-0.031,-0.031,-0.031,-0.031,-0.031,-0.031,-0.031,-0.031,-0.031,-0.031,-0.031,-0.031,-0.031,-0.031,-0.031,-0.031,-0.031,-0.031,-0.031,-0.03,-0.029,-0.028,-0.027,-0.026,-0.026,-0.027,-0.027,-0.027,-0.027,-0.028,-0.028,-0.029,-0.028,-0.028,-0.027,-0.026,-0.027,-0.028,-0.029,-0.03,-0.031,-0.031,-0.031,-0.03,-0.028,-0.027,-0.024,-0.022,-0.02,-0.018,-0.015,-0.011,-0.009,-0.006,-0.006,-0.005,-0.007,-0.008,-0.01,-0.012,-0.014,-0.016,-0.015,-0.015,-0.013,-0.011,-0.008,-0.005,-0.001,0.004,0.008,0.011,0.012,0.012,0.011,0.009,0.006,0.003,-0.002,-0.007,-0.012,-0.017,-0.021,-0.025,-0.026,-0.028,-0.029,-0.03,-0.031,-0.031,-0.031,-0.031,-0.031,-0.031,-0.031,-0.031,-0.031,-0.031,-0.032,-0.032,-0.034,-0.035,-0.039,-0.042,-0.049,-0.055,-0.061,-0.067,-0.071,-0.075,-0.071,-0.068,-0.055,-0.041,-0.018,0.005,0.04,0.075,0.116,0.157,0.203,0.249,0.294,0.339,0.376,0.414,0.436,0.458,0.455,0.453,0.423,0.393,0.342,0.291,0.233,0.175,0.125,0.075,0.042,0.01,-0.003,-0.017,-0.019,-0.022,-0.021,-0.02,-0.02,-0.02,-0.022,-0.025,-0.028,-0.032,-0.035,-0.038,-0.041,-0.044,-0.045,-0.046,-0.047,-0.048,-0.048,-0.049,-0.049,-0.05,-0.049,-0.049,-0.047,-0.046,-0.046,-0.046,-0.045,-0.045,-0.044,-0.042,-0.041,-0.04,-0.039,-0.037,-0.036,-0.034,-0.033,-0.031,-0.031,-0.03,-0.031,-0.031,N
15,-0.026,-0.028,-0.032,-0.035,-0.038,-0.04,-0.043,-0.046,-0.048,-0.051,-0.052,-0.053,-0.054,-0.055,-0.056,-0.057,-0.057,-0.057,-0.057,-0.057,-0.056,-0.056,-0.055,-0.054,-0.053,-0.052,-0.051,-0.05,-0.049,-0.049,-0.047,-0.045,-0.043,-0.041,-0.039,-0.037,-0.035,-0.033,-0.032,-0.031,-0.031,-0.03,-0.031,-0.031,-0.031,-0.03,-0.029,-0.028,-0.026,-0.025,-0.024,-0.023,-0.021,-0.019,-0.016,-0.013,-0.011,-0.008,-0.007,-0.006,-0.005,-0.003,-0.002,0.0,0.002,0.004,0.006,0.008,0.01,0.012,0.013,0.015,0.016,0.017,0.018,0.019,0.022,0.025,0.028,0.032,0.038,0.044,0.049,0.055,0.059,0.063,0.068,0.073,0.077,0.082,0.088,0.093,0.099,0.105,0.111,0.117,0.123,0.129,0.134,0.139,0.141,0.144,0.146,0.147,0.147,0.147,0.145,0.143,0.14,0.138,0.134,0.131,0.126,0.122,0.117,0.111,0.106,0.1,0.095,0.09,0.083,0.077,0.069,0.062,0.055,0.049,0.042,0.035,0.03,0.024,0.019,0.013,0.009,0.004,-0.001,-0.006,-0.011,-0.017,-0.021,-0.025,-0.026,-0.028,-0.03,-0.031,-0.033,-0.034,-0.035,-0.036,-0.037,-0.037,-0.038,-0.039,-0.04,-0.041,-0.042,-0.044,-0.044,-0.045,-0.045,-0.046,-0.046,-0.047,-0.046,-0.045,-0.044,-0.042,-0.041,-0.04,-0.039,-0.038,-0.038,-0.038,-0.038,-0.037,-0.036,-0.035,-0.034,-0.033,-0.032,-0.031,-0.031,-0.03,-0.031,-0.031,-0.031,-0.031,-0.031,-0.031,-0.031,-0.031,-0.031,-0.031,-0.031,-0.031,-0.031,-0.031,-0.031,-0.031,-0.031,-0.031,-0.031,-0.031,-0.031,-0.031,-0.031,-0.031,-0.031,-0.031,-0.031,-0.031,-0.031,-0.031,-0.031,-0.031,-0.031,-0.031,-0.031,-0.03,-0.029,-0.028,-0.026,-0.025,-0.024,-0.023,-0.02,-0.018,-0.015,-0.012,-0.011,-0.01,-0.011,-0.012,-0.014,-0.016,-0.016,-0.016,-0.015,-0.013,-0.01,-0.006,-0.002,0.003,0.007,0.01,0.012,0.013,0.012,0.011,0.008,0.004,-0.001,-0.005,-0.01,-0.015,-0.019,-0.023,-0.026,-0.029,-0.03,-0.031,-0.031,-0.031,-0.031,-0.031,-0.031,-0.031,-0.032,-0.032,-0.034,-0.035,-0.037,-0.038,-0.039,-0.04,-0.044,-0.048,-0.053,-0.059,-0.065,-0.071,-0.076,-0.08,-0.078,-0.076,-0.064,-0.052,-0.027,-0.002,0.034,0.07,0.114,0.158,0.207,0.255,0.303,0.351,0.392,0.432,0.455,0.479,0.476,0.474,0.444,0.414,0.361,0.309,0.247,0.184,0.128,0.073,0.035,-0.002,-0.019,-0.036,-0.04,-0.044,-0.041,-0.039,-0.036,-0.033,-0.033,-0.032,-0.033,-0.034,-0.037,-0.039,-0.041,-0.042,-0.045,-0.047,-0.049,-0.051,-0.052,-0.054,-0.055,-0.057,-0.057,-0.057,-0.057,-0.057,-0.056,-0.056,-0.055,-0.054,-0.053,-0.052,-0.051,-0.05,-0.049,-0.048,-0.045,-0.041,-0.039,-0.037,-0.035,-0.033,-0.032,-0.031,-0.031,-0.03,-0.03,-0.03,-0.028,-0.027,-0.024,-0.022,-0.02,-0.019,-0.016,-0.013,-0.01,-0.007,-0.005,-0.003,-0.002,0.0,0.002,0.004,0.006,0.008,0.01,0.011,0.012,0.012,0.013,0.015,0.015,0.016,0.016,0.016,0.017,0.019,0.021,0.024,0.025,0.027,0.03,0.033,0.037,0.041,0.046,0.051,0.055,0.059,0.062,0.065,0.069,0.074,0.079,0.084,0.089,0.093,0.097,0.1,0.106,0.112,0.117,0.122,0.126,0.131,0.134,0.137,0.139,0.141,0.142,0.144,0.143,0.142,0.139,0.137,0.133,0.128,0.124,0.12,0.115,0.111,0.105,0.099,0.094,0.088,0.082,0.076,0.068,0.061,0.053,0.046,0.039,0.032,0.027,0.023,0.018,0.013,0.009,0.005,0.002,-0.002,-0.006,-0.009,-0.013,-0.018,-0.021,-0.024,-0.026,-0.028,-0.03,-0.031,-0.031,-0.031,-0.031,-0.031,-0.031,-0.031,-0.032,-0.032,-0.033,-0.034,-0.035,-0.035,-0.035,-0.034,-0.034,-0.033,-0.032,-0.031,-0.031,-0.03,-0.031,-0.031,-0.031,-0.031,-0.031,-0.031,-0.031,-0.031,-0.031,-0.031,-0.031,-0.031,-0.031,-0.031,-0.031,-0.031,-0.031,-0.031,-0.031,-0.031,-0.031,-0.031,-0.031,-0.031,-0.031,-0.03,-0.029,-0.028,-0.027,-0.026,-0.026,-0.027,-0.027,-0.027,-0.027,-0.028,-0.028,-0.029,-0.028,-0.028,-0.027,-0.026,-0.027,-0.028,-0.029,-0.03,-0.031,-0.031,-0.031,-0.03,-0.028,-0.027,-0.024,-0.022,-0.02,-0.018,-0.015,-0.011,-0.009,-0.006,-0.006,-0.005,-0.007,-0.008,-0.01,-0.012,-0.014,-0.016,-0.015,-0.015,-0.013,-0.011,-0.008,-0.005,-0.001,0.004,0.008,0.011,0.012,0.012,0.011,0.009,0.006,0.003,-0.002,-0.007,-0.012,-0.017,-0.021,-0.025,-0.026,-0.028,-0.029,-0.03,-0.031,-0.031,-0.031,-0.031,-0.031,-0.031,-0.031,-0.031,-0.031,-0.031,-0.032,-0.032,-0.034,-0.035,-0.039,-0.042,-0.049,-0.055,-0.061,-0.067,-0.071,-0.075,-0.071,-0.068,-0.055,-0.041,-0.018,0.005,0.04,0.075,0.116,0.157,0.203,0.249,0.294,0.339,0.376,0.414,0.436,0.458,0.455,0.453,0.423,0.393,0.342,0.291,0.233,0.175,0.125,0.075,0.042,0.01,-0.003,-0.017,-0.019,-0.022,-0.021,-0.02,-0.02,-0.02,-0.022,-0.025,-0.028,-0.032,-0.035,-0.038,-0.041,-0.044,-0.045,-0.046,-0.047,-0.048,-0.048,-0.049,-0.049,-0.05,-0.049,-0.049,-0.047,-0.046,-0.046,-0.046,-0.045,-0.045,-0.044,-0.042,-0.041,-0.04,-0.039,-0.037,-0.036,-0.034,-0.033,-0.031,-0.031,-0.03,-0.031,-0.031,-0.031,-0.03,-0.029,-0.028,-0.026,-0.025,-0.024,-0.023,-0.021,-0.019,-0.016,-0.013,-0.011,-0.008,-0.007,-0.005,-0.003,0.0,0.002,0.004,0.006,0.008,0.01,0.012,0.013,0.015,0.015,0.016,0.015,0.015,0.015,0.015,0.015,0.016,0.017,0.018,0.02,0.022,0.024,0.027,0.031,0.035,0.039,0.044,0.047,0.051,0.054,0.057,0.06,0.062,0.065,0.068,0.072,0.076,0.08,0.084,0.088,0.092,0.095,0.098,0.1,0.103,0.104,0.106,0.106,0.107,0.106,0.106,0.105,0.105,0.103,0.1,0.097,0.094,0.091,0.087,0.083,0.079,0.074,0.069,0.065,0.061,0.056,0.051,0.046,0.04,0.035,0.03,0.025,0.021,0.015,0.009,0.005,0.001,-0.002,-0.005,-0.008,-0.01,-0.013,-0.016,-0.019,-0.022,-0.024,-0.027,-0.028,-0.029,-0.03,-0.03,-0.031,-0.031,-0.031,-0.031,-0.031,-0.031,-0.032,-0.032,-0.033,-0.033,-0.033,-0.033,-0.033,-0.033,-0.034,-0.034,-0.035,-0.035,-0.036,-0.036,-0.036,-0.035,-0.034,-0.033,-0.032,-0.031,-0.031,-0.03,-0.031,-0.031,-0.031,-0.031,-0.031,-0.031,-0.031,-0.03,-0.029,-0.028,-0.026,-0.025,-0.024,-0.023,-0.021,-0.02,-0.019,-0.019,-0.019,-0.02,-0.02,-0.02,-0.019,-0.019,-0.018,-0.017,-0.016,-0.016,-0.015,-0.013,-0.013,-0.012,-0.012,-0.011,-0.012,-0.012,-0.014,-0.016,-0.016,-0.017,-0.018,-0.019,-0.019,-0.02,-0.02,-0.02,-0.019,-0.019,-0.017,-0.016,-0.013,-0.01,-0.01,-0.009,-0.01,-0.011,-0.014,-0.017,-0.02,-0.023,-0.023,-0.023,-0.021,-0.019,-0.016,-0.012,-0.008,-0.003,0.002,0.006,0.008,0.01,0.01,0.01,0.008,0.005,0.0,-0.005,-0.01,-0.016,-0.019,-0.023,-0.026,-0.029,-0.03,-0.031,-0.031,-0.031,-0.031,-0.031,-0.031,-0.031,-0.031,-0.031,-0.031,-0.031,-0.032,-0.032,-0.034,-0.035,-0.038,-0.041,-0.046,-0.051,-0.055,-0.059,-0.061,-0.062,-0.057,-0.052,-0.037,-0.023,0.001,0.025,0.057,0.09,0.13,0.17,0.211,0.253,0.293,0.334,0.366,0.399,0.414,0.429,0.421,0.413,0.382,0.35,0.301,0.252,0.198,0.144,0.1,0.056,0.028,0.001,-0.011,-0.024,-0.026,-0.028,-0.027,-0.026,-0.026,-0.027,-0.029,-0.031,-0.033,-0.035,-0.037,-0.039,-0.041,-0.042,-0.045,-0.047,-0.048,-0.05,-0.05,-0.05,-0.05,-0.05,-0.049,-0.049,-0.047,-0.045,-0.043,-0.041,-0.04,-0.038,-0.037,-0.036,-0.036,-0.035,-0.034,-0.033,-0.032,-0.031,-0.031,-0.03,-0.03,-0.03,-0.029,-0.028,-0.026,-0.025,N
16,-0.033,-0.032,-0.033,-0.034,-0.037,-0.039,-0.041,-0.042,-0.045,-0.047,-0.049,-0.051,-0.052,-0.054,-0.055,-0.057,-0.057,-0.057,-0.057,-0.057,-0.056,-0.056,-0.055,-0.054,-0.053,-0.052,-0.051,-0.05,-0.049,-0.048,-0.045,-0.041,-0.039,-0.037,-0.035,-0.033,-0.032,-0.031,-0.031,-0.03,-0.03,-0.03,-0.028,-0.027,-0.024,-0.022,-0.02,-0.019,-0.016,-0.013,-0.01,-0.007,-0.005,-0.003,-0.002,0.0,0.002,0.004,0.006,0.008,0.01,0.011,0.012,0.012,0.013,0.015,0.015,0.016,0.016,0.016,0.017,0.019,0.021,0.024,0.025,0.027,0.03,0.033,0.037,0.041,0.046,0.051,0.055,0.059,0.062,0.065,0.069,0.074,0.079,0.084,0.089,0.093,0.097,0.1,0.106,0.112,0.117,0.122,0.126,0.131,0.134,0.137,0.139,0.141,0.142,0.144,0.143,0.142,0.139,0.137,0.133,0.128,0.124,0.12,0.115,0.111,0.105,0.099,0.094,0.088,0.082,0.076,0.068,0.061,0.053,0.046,0.039,0.032,0.027,0.023,0.018,0.013,0.009,0.005,0.002,-0.002,-0.006,-0.009,-0.013,-0.018,-0.021,-0.024,-0.026,-0.028,-0.03,-0.031,-0.031,-0.031,-0.031,-0.031,-0.031,-0.031,-0.032,-0.032,-0.033,-0.034,-0.035,-0.035,-0.035,-0.034,-0.034,-0.033,-0.032,-0.031,-0.031,-0.03,-0.031,-0.031,-0.031,-0.031,-0.031,-0.031,-0.031,-0.031,-0.031,-0.031,-0.031,-0.031,-0.031,-0.031,-0.031,-0.031,-0.031,-0.031,-0.031,-0.031,-0.031,-0.031,-0.031,-0.031,-0.031,-0.03,-0.029,-0.028,-0.027,-0.026,-0.026,-0.027,-0.027,-0.027,-0.027,-0.028,-0.028,-0.029,-0.028,-0.028,-0.027,-0.026,-0.027,-0.028,-0.029,-0.03,-0.031,-0.031,-0.031,-0.03,-0.028,-0.027,-0.024,-0.022,-0.02,-0.018,-0.015,-0.011,-0.009,-0.006,-0.006,-0.005,-0.007,-0.008,-0.01,-0.012,-0.014,-0.016,-0.015,-0.015,-0.013,-0.011,-0.008,-0.005,-0.001,0.004,0.008,0.011,0.012,0.012,0.011,0.009,0.006,0.003,-0.002,-0.007,-0.012,-0.017,-0.021,-0.025,-0.026,-0.028,-0.029,-0.03,-0.031,-0.031,-0.031,-0.031,-0.031,-0.031,-0.031,-0.031,-0.031,-0.031,-0.032,-0.032,-0.034,-0.035,-0.039,-0.042,-0.049,-0.055,-0.061,-0.067,-0.071,-0.075,-0.071,-0.068,-0.055,-0.041,-0.018,0.005,0.04,0.075,0.116,0.157,0.203,0.249,0.294,0.339,0.376,0.414,0.436,0.458,0.455,0.453,0.423,0.393,0.342,0.291,0.233,0.175,0.125,0.075,0.042,0.01,-0.003,-0.017,-0.019,-0.022,-0.021,-0.02,-0.02,-0.02,-0.022,-0.025,-0.028,-0.032,-0.035,-0.038,-0.041,-0.044,-0.045,-0.046,-0.047,-0.048,-0.048,-0.049,-0.049,-0.05,-0.049,-0.049,-0.047,-0.046,-0.046,-0.046,-0.045,-0.045,-0.044,-0.042,-0.041,-0.04,-0.039,-0.037,-0.036,-0.034,-0.033,-0.031,-0.031,-0.03,-0.031,-0.031,-0.031,-0.03,-0.029,-0.028,-0.026,-0.025,-0.024,-0.023,-0.021,-0.019,-0.016,-0.013,-0.011,-0.008,-0.007,-0.005,-0.003,0.0,0.002,0.004,0.006,0.008,0.01,0.012,0.013,0.015,0.015,0.016,0.015,0.015,0.015,0.015,0.015,0.016,0.017,0.018,0.02,0.022,0.024,0.027,0.031,0.035,0.039,0.044,0.047,0.051,0.054,0.057,0.06,0.062,0.065,0.068,0.072,0.076,0.08,0.084,0.088,0.092,0.095,0.098,0.1,0.103,0.104,0.106,0.106,0.107,0.106,0.106,0.105,0.105,0.103,0.1,0.097,0.094,0.091,0.087,0.083,0.079,0.074,0.069,0.065,0.061,0.056,0.051,0.046,0.04,0.035,0.03,0.025,0.021,0.015,0.009,0.005,0.001,-0.002,-0.005,-0.008,-0.01,-0.013,-0.016,-0.019,-0.022,-0.024,-0.027,-0.028,-0.029,-0.03,-0.03,-0.031,-0.031,-0.031,-0.031,-0.031,-0.031,-0.032,-0.032,-0.033,-0.033,-0.033,-0.033,-0.033,-0.033,-0.034,-0.034,-0.035,-0.035,-0.036,-0.036,-0.036,-0.035,-0.034,-0.033,-0.032,-0.031,-0.031,-0.03,-0.031,-0.031,-0.031,-0.031,-0.031,-0.031,-0.031,-0.03,-0.029,-0.028,-0.026,-0.025,-0.024,-0.023,-0.021,-0.02,-0.019,-0.019,-0.019,-0.02,-0.02,-0.02,-0.019,-0.019,-0.018,-0.017,-0.016,-0.016,-0.015,-0.013,-0.013,-0.012,-0.012,-0.011,-0.012,-0.012,-0.014,-0.016,-0.016,-0.017,-0.018,-0.019,-0.019,-0.02,-0.02,-0.02,-0.019,-0.019,-0.017,-0.016,-0.013,-0.01,-0.01,-0.009,-0.01,-0.011,-0.014,-0.017,-0.02,-0.023,-0.023,-0.023,-0.021,-0.019,-0.016,-0.012,-0.008,-0.003,0.002,0.006,0.008,0.01,0.01,0.01,0.008,0.005,0.0,-0.005,-0.01,-0.016,-0.019,-0.023,-0.026,-0.029,-0.03,-0.031,-0.031,-0.031,-0.031,-0.031,-0.031,-0.031,-0.031,-0.031,-0.031,-0.031,-0.032,-0.032,-0.034,-0.035,-0.038,-0.041,-0.046,-0.051,-0.055,-0.059,-0.061,-0.062,-0.057,-0.052,-0.037,-0.023,0.001,0.025,0.057,0.09,0.13,0.17,0.211,0.253,0.293,0.334,0.366,0.399,0.414,0.429,0.421,0.413,0.382,0.35,0.301,0.252,0.198,0.144,0.1,0.056,0.028,0.001,-0.011,-0.024,-0.026,-0.028,-0.027,-0.026,-0.026,-0.027,-0.029,-0.031,-0.033,-0.035,-0.037,-0.039,-0.041,-0.042,-0.045,-0.047,-0.048,-0.05,-0.05,-0.05,-0.05,-0.05,-0.049,-0.049,-0.047,-0.045,-0.043,-0.041,-0.04,-0.038,-0.037,-0.036,-0.036,-0.035,-0.034,-0.033,-0.032,-0.031,-0.031,-0.03,-0.03,-0.03,-0.029,-0.028,-0.026,-0.025,-0.024,-0.023,-0.021,-0.02,-0.019,-0.018,-0.017,-0.016,-0.013,-0.011,-0.011,-0.01,-0.009,-0.007,-0.005,-0.003,-0.002,0.0,0.002,0.004,0.006,0.008,0.01,0.011,0.012,0.012,0.013,0.015,0.016,0.017,0.017,0.018,0.02,0.022,0.024,0.026,0.03,0.033,0.037,0.041,0.046,0.051,0.055,0.059,0.063,0.067,0.074,0.08,0.085,0.09,0.095,0.1,0.106,0.111,0.115,0.119,0.123,0.126,0.129,0.133,0.135,0.137,0.138,0.14,0.14,0.14,0.138,0.136,0.133,0.129,0.125,0.12,0.115,0.11,0.105,0.1,0.096,0.091,0.085,0.08,0.073,0.065,0.057,0.05,0.044,0.037,0.032,0.026,0.021,0.017,0.012,0.007,0.003,-0.001,-0.006,-0.01,-0.016,-0.021,-0.024,-0.028,-0.03,-0.032,-0.033,-0.034,-0.035,-0.036,-0.037,-0.037,-0.038,-0.039,-0.04,-0.041,-0.042,-0.042,-0.042,-0.041,-0.041,-0.041,-0.041,-0.041,-0.041,-0.041,-0.041,-0.041,-0.041,-0.041,-0.041,-0.04,-0.039,-0.037,-0.036,-0.035,-0.034,-0.033,-0.032,-0.031,-0.03,-0.029,-0.028,-0.028,-0.027,-0.026,-0.026,-0.026,-0.025,-0.024,-0.023,-0.023,-0.022,-0.022,-0.021,-0.021,-0.021,-0.022,-0.022,-0.023,-0.023,-0.023,-0.023,-0.024,-0.024,-0.025,-0.025,-0.025,-0.024,-0.023,-0.023,-0.023,-0.023,-0.023,-0.023,-0.024,-0.025,-0.026,-0.027,-0.028,-0.027,-0.027,-0.027,-0.027,-0.026,-0.026,-0.024,-0.023,-0.021,-0.019,-0.017,-0.016,-0.015,-0.015,-0.016,-0.017,-0.018,-0.019,-0.019,-0.02,-0.02,-0.02,-0.019,-0.018,-0.015,-0.011,-0.007,-0.002,0.002,0.005,0.008,0.01,0.01,0.009,0.006,0.002,-0.004,-0.01,-0.016,-0.021,-0.024,-0.028,-0.03,-0.031,-0.031,-0.031,-0.031,-0.031,-0.031,-0.031,-0.031,-0.031,-0.031,-0.031,-0.031,-0.031,-0.031,-0.031,-0.032,-0.033,-0.036,-0.039,-0.044,-0.048,-0.053,-0.058,-0.061,-0.064,-0.061,-0.057,-0.045,-0.032,-0.008,0.016,0.05,0.084,0.125,0.167,0.211,0.255,0.299,0.343,0.38,0.416,0.437,0.457,0.453,0.448,0.418,0.388,0.337,0.286,0.227,0.168,0.117,0.066,0.033,0.0,-0.014,-0.028,-0.03,-0.032,-0.03,-0.028,-0.027,-0.026,-0.027,-0.028,-0.03,-0.032,-0.035,-0.038,-0.041,-0.044,-0.045,-0.046,-0.046,-0.046,-0.044,-0.042,-0.041,-0.04,-0.04,-0.039,-0.04,-0.041,-0.041,-0.041,-0.04,-0.038,-0.037,-0.036,-0.035,-0.034,-0.033,-0.031,-0.031,-0.03,-0.031,-0.031,-0.031,-0.031,-0.031,-0.03,N
17,-0.022,-0.025,-0.028,-0.032,-0.035,-0.038,-0.041,-0.044,-0.045,-0.046,-0.047,-0.048,-0.048,-0.049,-0.049,-0.05,-0.049,-0.049,-0.047,-0.046,-0.046,-0.046,-0.045,-0.045,-0.044,-0.042,-0.041,-0.04,-0.039,-0.037,-0.036,-0.034,-0.033,-0.031,-0.031,-0.03,-0.031,-0.031,-0.031,-0.03,-0.029,-0.028,-0.026,-0.025,-0.024,-0.023,-0.021,-0.019,-0.016,-0.013,-0.011,-0.008,-0.007,-0.005,-0.003,0.0,0.002,0.004,0.006,0.008,0.01,0.012,0.013,0.015,0.015,0.016,0.015,0.015,0.015,0.015,0.015,0.016,0.017,0.018,0.02,0.022,0.024,0.027,0.031,0.035,0.039,0.044,0.047,0.051,0.054,0.057,0.06,0.062,0.065,0.068,0.072,0.076,0.08,0.084,0.088,0.092,0.095,0.098,0.1,0.103,0.104,0.106,0.106,0.107,0.106,0.106,0.105,0.105,0.103,0.1,0.097,0.094,0.091,0.087,0.083,0.079,0.074,0.069,0.065,0.061,0.056,0.051,0.046,0.04,0.035,0.03,0.025,0.021,0.015,0.009,0.005,0.001,-0.002,-0.005,-0.008,-0.01,-0.013,-0.016,-0.019,-0.022,-0.024,-0.027,-0.028,-0.029,-0.03,-0.03,-0.031,-0.031,-0.031,-0.031,-0.031,-0.031,-0.032,-0.032,-0.033,-0.033,-0.033,-0.033,-0.033,-0.033,-0.034,-0.034,-0.035,-0.035,-0.036,-0.036,-0.036,-0.035,-0.034,-0.033,-0.032,-0.031,-0.031,-0.03,-0.031,-0.031,-0.031,-0.031,-0.031,-0.031,-0.031,-0.03,-0.029,-0.028,-0.026,-0.025,-0.024,-0.023,-0.021,-0.02,-0.019,-0.019,-0.019,-0.02,-0.02,-0.02,-0.019,-0.019,-0.018,-0.017,-0.016,-0.016,-0.015,-0.013,-0.013,-0.012,-0.012,-0.011,-0.012,-0.012,-0.014,-0.016,-0.016,-0.017,-0.018,-0.019,-0.019,-0.02,-0.02,-0.02,-0.019,-0.019,-0.017,-0.016,-0.013,-0.01,-0.01,-0.009,-0.01,-0.011,-0.014,-0.017,-0.02,-0.023,-0.023,-0.023,-0.021,-0.019,-0.016,-0.012,-0.008,-0.003,0.002,0.006,0.008,0.01,0.01,0.01,0.008,0.005,0.0,-0.005,-0.01,-0.016,-0.019,-0.023,-0.026,-0.029,-0.03,-0.031,-0.031,-0.031,-0.031,-0.031,-0.031,-0.031,-0.031,-0.031,-0.031,-0.031,-0.032,-0.032,-0.034,-0.035,-0.038,-0.041,-0.046,-0.051,-0.055,-0.059,-0.061,-0.062,-0.057,-0.052,-0.037,-0.023,0.001,0.025,0.057,0.09,0.13,0.17,0.211,0.253,0.293,0.334,0.366,0.399,0.414,0.429,0.421,0.413,0.382,0.35,0.301,0.252,0.198,0.144,0.1,0.056,0.028,0.001,-0.011,-0.024,-0.026,-0.028,-0.027,-0.026,-0.026,-0.027,-0.029,-0.031,-0.033,-0.035,-0.037,-0.039,-0.041,-0.042,-0.045,-0.047,-0.048,-0.05,-0.05,-0.05,-0.05,-0.05,-0.049,-0.049,-0.047,-0.045,-0.043,-0.041,-0.04,-0.038,-0.037,-0.036,-0.036,-0.035,-0.034,-0.033,-0.032,-0.031,-0.031,-0.03,-0.03,-0.03,-0.029,-0.028,-0.026,-0.025,-0.024,-0.023,-0.021,-0.02,-0.019,-0.018,-0.017,-0.016,-0.013,-0.011,-0.011,-0.01,-0.009,-0.007,-0.005,-0.003,-0.002,0.0,0.002,0.004,0.006,0.008,0.01,0.011,0.012,0.012,0.013,0.015,0.016,0.017,0.017,0.018,0.02,0.022,0.024,0.026,0.03,0.033,0.037,0.041,0.046,0.051,0.055,0.059,0.063,0.067,0.074,0.08,0.085,0.09,0.095,0.1,0.106,0.111,0.115,0.119,0.123,0.126,0.129,0.133,0.135,0.137,0.138,0.14,0.14,0.14,0.138,0.136,0.133,0.129,0.125,0.12,0.115,0.11,0.105,0.1,0.096,0.091,0.085,0.08,0.073,0.065,0.057,0.05,0.044,0.037,0.032,0.026,0.021,0.017,0.012,0.007,0.003,-0.001,-0.006,-0.01,-0.016,-0.021,-0.024,-0.028,-0.03,-0.032,-0.033,-0.034,-0.035,-0.036,-0.037,-0.037,-0.038,-0.039,-0.04,-0.041,-0.042,-0.042,-0.042,-0.041,-0.041,-0.041,-0.041,-0.041,-0.041,-0.041,-0.041,-0.041,-0.041,-0.041,-0.041,-0.04,-0.039,-0.037,-0.036,-0.035,-0.034,-0.033,-0.032,-0.031,-0.03,-0.029,-0.028,-0.028,-0.027,-0.026,-0.026,-0.026,-0.025,-0.024,-0.023,-0.023,-0.022,-0.022,-0.021,-0.021,-0.021,-0.022,-0.022,-0.023,-0.023,-0.023,-0.023,-0.024,-0.024,-0.025,-0.025,-0.025,-0.024,-0.023,-0.023,-0.023,-0.023,-0.023,-0.023,-0.024,-0.025,-0.026,-0.027,-0.028,-0.027,-0.027,-0.027,-0.027,-0.026,-0.026,-0.024,-0.023,-0.021,-0.019,-0.017,-0.016,-0.015,-0.015,-0.016,-0.017,-0.018,-0.019,-0.019,-0.02,-0.02,-0.02,-0.019,-0.018,-0.015,-0.011,-0.007,-0.002,0.002,0.005,0.008,0.01,0.01,0.009,0.006,0.002,-0.004,-0.01,-0.016,-0.021,-0.024,-0.028,-0.03,-0.031,-0.031,-0.031,-0.031,-0.031,-0.031,-0.031,-0.031,-0.031,-0.031,-0.031,-0.031,-0.031,-0.031,-0.031,-0.032,-0.033,-0.036,-0.039,-0.044,-0.048,-0.053,-0.058,-0.061,-0.064,-0.061,-0.057,-0.045,-0.032,-0.008,0.016,0.05,0.084,0.125,0.167,0.211,0.255,0.299,0.343,0.38,0.416,0.437,0.457,0.453,0.448,0.418,0.388,0.337,0.286,0.227,0.168,0.117,0.066,0.033,0.0,-0.014,-0.028,-0.03,-0.032,-0.03,-0.028,-0.027,-0.026,-0.027,-0.028,-0.03,-0.032,-0.035,-0.038,-0.041,-0.044,-0.045,-0.046,-0.046,-0.046,-0.044,-0.042,-0.041,-0.04,-0.04,-0.039,-0.04,-0.041,-0.041,-0.041,-0.04,-0.038,-0.037,-0.036,-0.035,-0.034,-0.033,-0.031,-0.031,-0.03,-0.031,-0.031,-0.031,-0.031,-0.031,-0.03,-0.029,-0.028,-0.026,-0.025,-0.024,-0.023,-0.021,-0.019,-0.017,-0.016,-0.014,-0.012,-0.01,-0.008,-0.006,-0.003,-0.001,0.001,0.003,0.004,0.006,0.007,0.01,0.012,0.013,0.015,0.015,0.016,0.015,0.015,0.015,0.016,0.017,0.019,0.021,0.024,0.026,0.028,0.032,0.035,0.04,0.045,0.049,0.054,0.058,0.062,0.066,0.07,0.076,0.082,0.087,0.092,0.097,0.102,0.107,0.113,0.12,0.126,0.132,0.138,0.142,0.146,0.149,0.151,0.152,0.152,0.151,0.15,0.149,0.147,0.144,0.142,0.138,0.135,0.131,0.126,0.122,0.117,0.111,0.105,0.097,0.09,0.083,0.076,0.069,0.062,0.055,0.049,0.042,0.035,0.03,0.025,0.021,0.017,0.013,0.009,0.005,0.001,-0.004,-0.009,-0.013,-0.018,-0.021,-0.024,-0.026,-0.028,-0.03,-0.031,-0.032,-0.032,-0.034,-0.035,-0.037,-0.039,-0.04,-0.041,-0.042,-0.042,-0.042,-0.041,-0.041,-0.041,-0.041,-0.041,-0.041,-0.041,-0.041,-0.041,-0.041,-0.04,-0.039,-0.037,-0.036,-0.035,-0.034,-0.033,-0.032,-0.031,-0.031,-0.03,-0.031,-0.031,-0.031,-0.031,-0.031,-0.031,-0.031,-0.031,-0.031,-0.031,-0.031,-0.031,-0.031,-0.031,-0.031,-0.031,-0.031,-0.031,-0.031,-0.03,-0.029,-0.028,-0.026,-0.025,-0.024,-0.024,-0.023,-0.022,-0.021,-0.02,-0.02,-0.02,-0.022,-0.024,-0.025,-0.027,-0.027,-0.028,-0.027,-0.027,-0.027,-0.027,-0.026,-0.026,-0.024,-0.023,-0.021,-0.019,-0.017,-0.015,-0.013,-0.012,-0.014,-0.016,-0.017,-0.019,-0.019,-0.02,-0.019,-0.019,-0.016,-0.013,-0.008,-0.003,0.002,0.006,0.008,0.01,0.01,0.01,0.008,0.006,0.002,-0.003,-0.008,-0.012,-0.017,-0.022,-0.025,-0.028,-0.03,-0.031,-0.032,-0.032,-0.033,-0.034,-0.035,-0.035,-0.035,-0.035,-0.036,-0.037,-0.038,-0.038,-0.039,-0.039,-0.041,-0.044,-0.048,-0.052,-0.057,-0.063,-0.068,-0.074,-0.075,-0.077,-0.07,-0.063,-0.045,-0.027,0.004,0.034,0.074,0.113,0.158,0.203,0.252,0.3,0.346,0.392,0.425,0.458,0.469,0.481,0.465,0.448,0.406,0.364,0.302,0.241,0.179,0.117,0.069,0.021,-0.006,-0.033,-0.042,-0.052,-0.05,-0.049,-0.044,-0.038,-0.036,-0.034,-0.035,-0.035,-0.037,-0.038,-0.041,-0.044,-0.046,-0.049,-0.05,-0.052,-0.052,-0.053,-0.053,-0.054,-0.053,-0.053,-0.051,-0.05,-0.049,-0.049,-0.047,-0.045,-0.043,-0.041,-0.04,-0.038,-0.037,-0.036,-0.036,-0.035,-0.034,-0.033,-0.032,-0.031,-0.031,-0.03,N
