0,-0.284,-0.249,-0.213,-0.195,-0.17800000000000002,-0.17800000000000002,-0.17800000000000002,-0.17800000000000002,-0.16,-0.142,-0.142,-0.124,-0.124,-0.124,-0.142,-0.142,-0.142,-0.124,-0.124,-0.124,-0.124,-0.124,-0.124,-0.124,-0.124,-0.124,-0.106,-0.106,-0.08800000000000001,-0.08800000000000001,-0.106,-0.08800000000000001,-0.08800000000000001,-0.08800000000000001,-0.07,-0.07,-0.052000000000000005,-0.052000000000000005,-0.052000000000000005,-0.052000000000000005,-0.052000000000000005,-0.052000000000000005,-0.034,-0.016,-0.016,0.002,0.002,0.002,0.002,0.002,0.002,0.019,0.037000000000000005,0.055,0.07200000000000001,0.07200000000000001,0.09,0.10800000000000001,0.126,0.14400000000000002,0.162,0.18,0.21600000000000003,0.21600000000000003,0.23399999999999999,0.23399999999999999,0.252,0.26899999999999996,0.287,0.287,0.287,0.305,0.287,0.26899999999999996,0.26899999999999996,0.26899999999999996,0.26899999999999996,0.26899999999999996,0.26899999999999996,0.252,0.23399999999999999,0.198,0.18,0.18,0.162,0.162,0.14400000000000002,0.126,0.126,0.09,0.07200000000000001,0.055,0.055,0.055,0.037000000000000005,0.019,0.019,0.002,0.002,0.002,-0.016,0.002,0.002,0.002,-0.016,-0.016,-0.034,-0.034,-0.034,-0.016,-0.016,0.002,0.002,0.002,-0.016,-0.016,-0.016,0.002,0.002,0.002,0.002,0.002,0.002,0.002,0.002,0.002,0.002,0.002,0.019,0.002,0.002,0.002,0.002,0.002,0.002,0.002,0.002,-0.016,-0.016,-0.034,-0.052000000000000005,-0.052000000000000005,-0.052000000000000005,-0.052000000000000005,-0.052000000000000005,-0.052000000000000005,-0.052000000000000005,-0.052000000000000005,-0.07,-0.07,-0.08800000000000001,-0.07,-0.07,-0.07,-0.07,-0.08800000000000001,-0.106,-0.106,-0.124,-0.106,-0.106,-0.106,-0.124,-0.124,-0.124,-0.124,-0.124,-0.124,-0.124,-0.124,-0.124,-0.124,-0.142,-0.142,-0.142,-0.142,-0.124,-0.124,-0.124,-0.124,-0.124,-0.124,-0.124,-0.124,-0.106,-0.106,-0.08800000000000001,-0.07,-0.052000000000000005,-0.016,0.002,0.055,0.126,0.18,0.23399999999999999,0.26899999999999996,0.322,0.358,0.39399999999999996,0.39399999999999996,0.376,0.358,0.305,0.26899999999999996,0.21600000000000003,0.126,0.002,-0.213,-0.445,-0.624,-0.695,-0.713,-0.695,-0.66,-0.588,-0.534,-0.48100000000000004,-0.41,-0.374,-0.32,-0.266,-0.249,-0.231,-0.213,-0.195,-0.17800000000000002,-0.16,-0.142,-0.124,-0.124,-0.124,-0.142,-0.142,-0.124,-0.124,-0.124,-0.124,-0.124,-0.124,-0.124,-0.124,-0.124,-0.106,-0.106,-0.08800000000000001,-0.08800000000000001,-0.08800000000000001,-0.08800000000000001,-0.106,-0.08800000000000001,-0.08800000000000001,-0.07,-0.07,-0.052000000000000005,-0.052000000000000005,-0.07,-0.052000000000000005,-0.052000000000000005,-0.052000000000000005,-0.052000000000000005,-0.034,-0.016,-0.016,-0.016,-0.016,-0.016,0.002,0.002,0.002,0.019,0.019,0.037000000000000005,0.037000000000000005,0.055,0.055,0.07200000000000001,0.10800000000000001,0.126,0.14400000000000002,0.14400000000000002,0.162,0.18,0.198,0.21600000000000003,0.23399999999999999,0.26899999999999996,0.26899999999999996,0.287,0.287,0.287,0.287,0.287,0.287,0.287,0.305,0.287,0.26899999999999996,0.26899999999999996,0.23399999999999999,0.21600000000000003,0.21600000000000003,0.21600000000000003,0.198,0.18,0.162,0.126,0.126,0.10800000000000001,0.09,0.07200000000000001,0.07200000000000001,0.055,0.037000000000000005,0.019,0.002,0.002,0.002,0.002,0.002,0.002,-0.016,-0.016,-0.034,-0.052000000000000005,-0.052000000000000005,-0.052000000000000005,-0.034,-0.034,-0.016,-0.016,-0.034,-0.034,-0.034,-0.016,-0.016,0.002,0.002,0.002,0.002,0.002,0.002,0.002,0.002,0.002,0.002,0.019,0.002,0.002,0.002,0.002,0.002,0.002,0.002,0.002,0.002,-0.016,-0.016,-0.034,-0.034,-0.034,-0.034,-0.052000000000000005,-0.034,-0.052000000000000005,-0.07,-0.07,-0.07,-0.07,-0.052000000000000005,-0.052000000000000005,-0.052000000000000005,-0.07,-0.08800000000000001,-0.08800000000000001,-0.106,-0.106,-0.106,-0.08800000000000001,-0.106,-0.106,-0.124,-0.124,-0.124,-0.124,-0.124,-0.124,-0.124,-0.124,-0.124,-0.142,-0.142,-0.142,-0.142,-0.124,-0.124,-0.124,-0.124,-0.124,-0.124,-0.124,-0.124,N,,,,,,,,,,,,,,,,,,,,,,,,,,,,,,,,,,,,,,,,,,,,,,,,,,,,,,,,,,,,,,,,,,,,,,,,,,,,,,,,,,,,,,,,,,,,,,,,,,,,,,,,,,,,,,,,,,,,,,,,,,,,,,,,,,,,,,,,,,,,,,,,,,,,,,,,,,,,,,,,,,,,,,,,,,,,,,,,,,,,,,,,,,,,,,,,,,,,,,,,,,,,,,,,,,,,,,,,,,,,,,,,,,,,,,,,,,,,,,,,,,,,,,,,,,,,,,,,,,,,,,,,,,,,,,,,,,,,,,,,,,,,,,,,,,,,,,,,,,,,,,,,,,,,,,,,,,,,,,,,,,,,,,,,,,,,,,,,,,,,,,,,,,,,,,,,,,,,,,,,,,,,,,,,,,,,,,,,,,,,,,,,,,,,,,,,,,,,,,,,,,,,,,,,,,,,,,,,,,,,,,,,,,,,,,,,,,,,,,,,,,,,,,,,,,,,,,,,,,,,,,,,,,,,,,,,,,,,,,,,,,,,,,,,,,,,,,,,,,,,,,,,,,,,,,,,,,,,,,,,,,,,,,,,,,,,,,,,,,,,,,,,,,,,,,,,,,,,,,,,,,,,,,,,,,,,,,,,,,,,,,,,,,,,,,,,,,,,,,,
1,-0.213,-0.195,-0.16,-0.142,-0.124,-0.124,-0.124,-0.106,-0.106,-0.106,-0.106,-0.106,-0.07,-0.07,-0.07,-0.07,-0.07,-0.07,-0.08800000000000001,-0.07,-0.07,-0.052000000000000005,-0.052000000000000005,-0.034,-0.034,-0.052000000000000005,-0.052000000000000005,-0.034,-0.016,-0.016,0.002,0.002,0.002,0.002,0.002,0.002,0.002,0.002,0.019,0.037000000000000005,0.037000000000000005,0.037000000000000005,0.037000000000000005,0.037000000000000005,0.037000000000000005,0.055,0.07200000000000001,0.09,0.10800000000000001,0.126,0.126,0.126,0.126,0.162,0.18,0.198,0.21600000000000003,0.23399999999999999,0.23399999999999999,0.252,0.26899999999999996,0.26899999999999996,0.305,0.322,0.34,0.34,0.34,0.358,0.358,0.358,0.358,0.376,0.376,0.376,0.358,0.34,0.322,0.305,0.305,0.287,0.287,0.26899999999999996,0.26899999999999996,0.252,0.21600000000000003,0.198,0.18,0.18,0.162,0.162,0.14400000000000002,0.126,0.126,0.10800000000000001,0.09,0.09,0.09,0.09,0.07200000000000001,0.07200000000000001,0.055,0.055,0.055,0.037000000000000005,0.055,0.055,0.055,0.037000000000000005,0.037000000000000005,0.019,0.037000000000000005,0.037000000000000005,0.055,0.07200000000000001,0.07200000000000001,0.07200000000000001,0.055,0.055,0.055,0.055,0.055,0.055,0.07200000000000001,0.055,0.055,0.055,0.037000000000000005,0.055,0.055,0.055,0.055,0.037000000000000005,0.019,0.019,0.002,0.002,0.002,0.002,0.002,0.002,0.002,-0.016,-0.034,-0.034,-0.034,-0.034,-0.034,-0.016,-0.016,-0.034,-0.034,-0.034,-0.034,-0.034,-0.016,-0.016,-0.016,-0.034,-0.052000000000000005,-0.07,-0.052000000000000005,-0.052000000000000005,-0.052000000000000005,-0.052000000000000005,-0.052000000000000005,-0.052000000000000005,-0.07,-0.07,-0.08800000000000001,-0.08800000000000001,-0.07,-0.07,-0.07,-0.07,-0.07,-0.08800000000000001,-0.08800000000000001,-0.07,-0.052000000000000005,-0.016,0.002,0.002,0.002,0.002,-0.034,-0.034,-0.034,0.002,0.002,0.055,0.09,0.10800000000000001,0.10800000000000001,0.126,0.126,0.162,0.198,0.21600000000000003,0.21600000000000003,0.18,0.126,0.07200000000000001,0.055,0.055,0.055,-0.034,-0.231,-0.48100000000000004,-0.642,-0.6779999999999999,-0.6779999999999999,-0.66,-0.588,-0.516,-0.428,-0.374,-0.32,-0.266,-0.231,-0.17800000000000002,-0.124,-0.124,-0.08800000000000001,-0.07,-0.07,-0.07,-0.07,-0.052000000000000005,-0.052000000000000005,-0.034,-0.016,-0.016,-0.016,-0.034,-0.016,-0.016,-0.016,0.002,0.002,0.002,0.002,0.002,0.002,0.002,0.002,0.002,0.019,0.037000000000000005,0.037000000000000005,0.037000000000000005,0.019,0.019,0.037000000000000005,0.055,0.055,0.07200000000000001,0.07200000000000001,0.07200000000000001,0.07200000000000001,0.07200000000000001,0.07200000000000001,0.09,0.09,0.126,0.126,0.126,0.126,0.126,0.14400000000000002,0.162,0.18,0.198,0.21600000000000003,0.21600000000000003,0.23399999999999999,0.23399999999999999,0.252,0.26899999999999996,0.287,0.305,0.322,0.34,0.358,0.358,0.376,0.376,0.39399999999999996,0.39399999999999996,0.41200000000000003,0.41200000000000003,0.41200000000000003,0.39399999999999996,0.39399999999999996,0.39399999999999996,0.39399999999999996,0.39399999999999996,0.39399999999999996,0.376,0.376,0.358,0.322,0.305,0.287,0.287,0.26899999999999996,0.26899999999999996,0.252,0.23399999999999999,0.21600000000000003,0.18,0.18,0.162,0.162,0.162,0.162,0.14400000000000002,0.126,0.10800000000000001,0.10800000000000001,0.10800000000000001,0.10800000000000001,0.10800000000000001,0.10800000000000001,0.09,0.09,0.07200000000000001,0.07200000000000001,0.07200000000000001,0.07200000000000001,0.09,0.09,0.10800000000000001,0.09,0.09,0.09,0.09,0.09,0.10800000000000001,0.10800000000000001,0.10800000000000001,0.10800000000000001,0.09,0.07200000000000001,0.07200000000000001,0.07200000000000001,0.09,0.09,0.09,0.09,0.07200000000000001,0.07200000000000001,0.055,0.055,0.055,0.055,0.037000000000000005,0.037000000000000005,0.019,0.002,0.002,0.002,0.002,0.002,0.002,0.002,0.002,-0.016,-0.016,-0.034,-0.016,-0.016,0.002,0.002,0.002,0.002,-0.016,-0.016,-0.016,-0.016,-0.016,-0.016,-0.016,-0.034,-0.034,-0.052000000000000005,-0.052000000000000005,-0.052000000000000005,-0.052000000000000005,-0.052000000000000005,-0.052000000000000005,-0.052000000000000005,-0.052000000000000005,-0.052000000000000005,-0.052000000000000005,-0.052000000000000005,-0.052000000000000005,-0.034,-0.016,-0.016,0.002,0.002,0.002,0.002,0.002,0.002,-0.016,-0.016,-0.016,0.002,0.002,0.037000000000000005,0.09,0.10800000000000001,0.126,0.14400000000000002,0.162,0.198,0.198,0.21600000000000003,0.198,0.162,0.126,0.09,0.07200000000000001,0.07200000000000001,0.002,-0.17800000000000002,-0.392,-0.588,-0.66,-0.66,-0.642,-0.606,-0.534,-0.48100000000000004,-0.392,-0.33799999999999997,-0.266,-0.231,-0.17800000000000002,-0.142,-0.124,-0.124,-0.106,-0.07,-0.052000000000000005,-0.034,-0.034,-0.016,-0.034,-0.034,-0.034,-0.034,-0.034,-0.016,0.002,0.002,0.002,0.002,-0.016,0.002,0.002,0.002,0.002,0.002,0.002,0.002,0.002,0.002,0.019,0.019,0.037000000000000005,0.055,0.055,0.055,0.055,0.055,0.055,0.07200000000000001,0.07200000000000001,0.09,0.09,0.10800000000000001,0.09,0.09,0.10800000000000001,0.126,0.126,0.14400000000000002,0.162,0.162,0.18,0.18,0.18,0.21600000000000003,0.23399999999999999,0.26899999999999996,0.26899999999999996,0.287,0.287,0.305,0.305,0.322,0.34,0.358,0.376,0.39399999999999996,0.39399999999999996,0.39399999999999996,0.39399999999999996,0.39399999999999996,0.39399999999999996,0.39399999999999996,0.39399999999999996,0.39399999999999996,0.39399999999999996,0.376,0.358,0.34,0.34,0.322,0.322,0.305,0.287,0.26899999999999996,0.252,0.21600000000000003,0.21600000000000003,0.198,0.198,0.18,0.18,0.162,0.126,0.126,0.126,0.10800000000000001,0.10800000000000001,0.10800000000000001,0.10800000000000001,0.09,0.09,0.07200000000000001,0.055,0.055,0.07200000000000001,0.07200000000000001,0.07200000000000001,0.07200000000000001,0.055,0.055,0.055,0.055,0.055,0.07200000000000001,0.07200000000000001,0.07200000000000001,0.07200000000000001,0.055,0.055,0.055,0.07200000000000001,0.07200000000000001,0.07200000000000001,0.07200000000000001,0.07200000000000001,0.07200000000000001,0.055,0.037000000000000005,0.037000000000000005,0.055,0.037000000000000005,0.037000000000000005,0.037000000000000005,0.037000000000000005,0.019,0.002,0.002,0.002,0.002,0.002,0.002,-0.016,-0.034,-0.034,-0.034,-0.034,-0.034,-0.034,-0.016,-0.034,-0.052000000000000005,-0.052000000000000005,-0.052000000000000005,-0.034,-0.034,-0.034,-0.034,-0.034,-0.052000000000000005,-0.07,-0.07,-0.08800000000000001,-0.07,-0.07,-0.07,-0.07,-0.07,-0.08800000000000001,-0.106,-0.08800000000000001,-0.08800000000000001,-0.08800000000000001,-0.07,-0.07,-0.07,-0.08800000000000001,-0.08800000000000001,-0.07,-0.052000000000000005,-0.016,0.002,0.002,0.002,-0.016,-0.052000000000000005,-0.052000000000000005,-0.052000000000000005,-0.034,0.002,0.019,0.07200000000000001,0.07200000000000001,0.10800000000000001,0.10800000000000001,0.10800000000000001,0.14400000000000002,0.162,0.18,0.18,0.14400000000000002,0.09,0.037000000000000005,0.002,0.019,0.002,-0.124,-0.32,-0.534,-0.66,-0.695,-0.695,-0.66,-0.588,-0.516,-0.445,-0.392,-0.32,-0.284,-0.249,-0.213,-0.16,-0.124,-0.106,-0.106,-0.08800000000000001,-0.08800000000000001,-0.08800000000000001,-0.08800000000000001,-0.07,-0.052000000000000005,-0.052000000000000005,-0.034,-0.034,-0.052000000000000005,-0.052000000000000005,-0.052000000000000005,-0.052000000000000005,-0.034,-0.016,-0.016,-0.016,-0.016,-0.016,-0.016,-0.016,0.002,0.002,0.002,0.002,0.002,0.002,0.002,0.002,0.002,0.019,0.019,0.037000000000000005,0.055,0.037000000000000005,0.037000000000000005,0.037000000000000005,0.055,0.07200000000000001,0.07200000000000001,0.09,0.10800000000000001,0.10800000000000001,0.10800000000000001,0.10800000000000001,0.126,0.126,0.126,0.162,0.18,0.198,0.198,0.21600000000000003,0.21600000000000003,0.252,0.26899999999999996,0.287,0.305,0.322,0.34,0.34,0.34,0.34,0.358,0.376,0.376,0.376,0.376,0.358,0.34,0.34,0.322,0.322,0.322,0.305,0.287,0.26899999999999996,0.252,0.23399999999999999,0.21600000000000003,0.21600000000000003,0.198,0.198,0.18,0.162,0.14400000000000002,0.126,0.126,0.10800000000000001,0.10800000000000001,0.10800000000000001,0.10800000000000001,0.09,0.07200000000000001,0.055,0.037000000000000005,0.037000000000000005,0.037000000000000005,0.037000000000000005,0.037000000000000005,0.037000000000000005,0.019,0.002,0.002,0.002,0.019,0.019,0.037000000000000005,0.037000000000000005,0.037000000000000005,0.037000000000000005,0.019,0.019,0.019,0.037000000000000005,0.037000000000000005,0.037000000000000005,0.019,0.002,0.002,0.002,0.002,0.019,0.037000000000000005,0.019,0.019,0.019,0.002,0.002,0.002,0.002,0.002,0.002,0.002,-0.016,-0.034,-0.052000000000000005,-0.052000000000000005,-0.052000000000000005,-0.052000000000000005,-0.052000000000000005,-0.052000000000000005,-0.07,-0.07,-0.08800000000000001,-0.08800000000000001,-0.08800000000000001,-0.07,-0.07,-0.07,-0.07,-0.07,-0.08800000000000001,-0.08800000000000001,-0.08800000000000001,-0.08800000000000001,-0.08800000000000001,-0.08800000000000001,-0.08800000000000001,-0.106,-0.106,-0.124,-0.124,-0.124,-0.106,-0.106,-0.106,-0.106,-0.124,-0.124,-0.124,-0.124,-0.124,-0.106,-0.08800000000000001,-0.07,-0.07,-0.07,-0.052000000000000005,-0.052000000000000005,-0.07,-0.07,-0.07,-0.07,-0.052000000000000005,-0.016,0.002,0.019,0.037000000000000005,0.07200000000000001,0.09,0.10800000000000001,0.126,0.14400000000000002,0.14400000000000002,0.126,0.10800000000000001,0.037000000000000005,0.019,0.002,0.002,-0.07,-0.266,-0.48100000000000004,-0.66,-0.713,-0.713,-0.6779999999999999,-0.66,-0.588,-0.534,-0.46299999999999997,-0.392,-0.33799999999999997,-0.284,-0.249,-0.195,-0.16,-0.142,-0.142,-0.124,-0.124,-0.124,-0.106,-0.08800000000000001,-0.08800000000000001,-0.08800000000000001,-0.08800000000000001,-0.08800000000000001,-0.08800000000000001,-0.08800000000000001,-0.07,-0.07,-0.052000000000000005,-0.07,-0.07,-0.07,-0.07,-0.052000000000000005,-0.034,-0.016,-0.034,-0.034,-0.034,-0.034,-0.034,-0.016,0.002,0.002,0.002,0.002,0.002,0.002,0.002,0.002,0.002,0.019,0.019,0.037000000000000005,0.037000000000000005,0.037000000000000005,0.037000000000000005,0.055,0.055,0.07200000000000001,0.09,0.10800000000000001,0.10800000000000001,0.126,0.126,0.126,0.14400000000000002,0.18,0.198,0.21600000000000003,0.23399999999999999,0.252,0.252,0.26899999999999996,0.287,0.305,0.322,0.34,0.34,0.34,0.322,0.322,0.322,0.322,0.322,0.322,0.322,0.305,0.287,0.26899999999999996,0.252,0.252,0.23399999999999999,0.23399999999999999,0.21600000000000003,0.18,0.162,0.14400000000000002,0.126,0.126,0.126,0.126,0.10800000000000001,0.10800000000000001,0.07200000000000001,0.055,0.055,0.037000000000000005,0.037000000000000005,0.037000000000000005,0.019,0.019,0.019,0.002,0.002,0.002,0.002,0.002,0.002,0.002,0.002,0.002,0.002,0.002,0.002,0.002,0.002,0.002,0.002,0.002,N
2,-0.124,-0.124,-0.08800000000000001,-0.07,-0.07,-0.07,-0.07,-0.052000000000000005,-0.052000000000000005,-0.034,-0.016,-0.016,-0.016,-0.034,-0.016,-0.016,-0.016,0.002,0.002,0.002,0.002,0.002,0.002,0.002,0.002,0.002,0.019,0.037000000000000005,0.037000000000000005,0.037000000000000005,0.019,0.019,0.037000000000000005,0.055,0.055,0.07200000000000001,0.07200000000000001,0.07200000000000001,0.07200000000000001,0.07200000000000001,0.07200000000000001,0.09,0.09,0.126,0.126,0.126,0.126,0.126,0.14400000000000002,0.162,0.18,0.198,0.21600000000000003,0.21600000000000003,0.23399999999999999,0.23399999999999999,0.252,0.26899999999999996,0.287,0.305,0.322,0.34,0.358,0.358,0.376,0.376,0.39399999999999996,0.39399999999999996,0.41200000000000003,0.41200000000000003,0.41200000000000003,0.39399999999999996,0.39399999999999996,0.39399999999999996,0.39399999999999996,0.39399999999999996,0.39399999999999996,0.376,0.376,0.358,0.322,0.305,0.287,0.287,0.26899999999999996,0.26899999999999996,0.252,0.23399999999999999,0.21600000000000003,0.18,0.18,0.162,0.162,0.162,0.162,0.14400000000000002,0.126,0.10800000000000001,0.10800000000000001,0.10800000000000001,0.10800000000000001,0.10800000000000001,0.10800000000000001,0.09,0.09,0.07200000000000001,0.07200000000000001,0.07200000000000001,0.07200000000000001,0.09,0.09,0.10800000000000001,0.09,0.09,0.09,0.09,0.09,0.10800000000000001,0.10800000000000001,0.10800000000000001,0.10800000000000001,0.09,0.07200000000000001,0.07200000000000001,0.07200000000000001,0.09,0.09,0.09,0.09,0.07200000000000001,0.07200000000000001,0.055,0.055,0.055,0.055,0.037000000000000005,0.037000000000000005,0.019,0.002,0.002,0.002,0.002,0.002,0.002,0.002,0.002,-0.016,-0.016,-0.034,-0.016,-0.016,0.002,0.002,0.002,0.002,-0.016,-0.016,-0.016,-0.016,-0.016,-0.016,-0.016,-0.034,-0.034,-0.052000000000000005,-0.052000000000000005,-0.052000000000000005,-0.052000000000000005,-0.052000000000000005,-0.052000000000000005,-0.052000000000000005,-0.052000000000000005,-0.052000000000000005,-0.052000000000000005,-0.052000000000000005,-0.052000000000000005,-0.034,-0.016,-0.016,0.002,0.002,0.002,0.002,0.002,0.002,-0.016,-0.016,-0.016,0.002,0.002,0.037000000000000005,0.09,0.10800000000000001,0.126,0.14400000000000002,0.162,0.198,0.198,0.21600000000000003,0.198,0.162,0.126,0.09,0.07200000000000001,0.07200000000000001,0.002,-0.17800000000000002,-0.392,-0.588,-0.66,-0.66,-0.642,-0.606,-0.534,-0.48100000000000004,-0.392,-0.33799999999999997,-0.266,-0.231,-0.17800000000000002,-0.142,-0.124,-0.124,-0.106,-0.07,-0.052000000000000005,-0.034,-0.034,-0.016,-0.034,-0.034,-0.034,-0.034,-0.034,-0.016,0.002,0.002,0.002,0.002,-0.016,0.002,0.002,0.002,0.002,0.002,0.002,0.002,0.002,0.002,0.019,0.019,0.037000000000000005,0.055,0.055,0.055,0.055,0.055,0.055,0.07200000000000001,0.07200000000000001,0.09,0.09,0.10800000000000001,0.09,0.09,0.10800000000000001,0.126,0.126,0.14400000000000002,0.162,0.162,0.18,0.18,0.18,0.21600000000000003,0.23399999999999999,0.26899999999999996,0.26899999999999996,0.287,0.287,0.305,0.305,0.322,0.34,0.358,0.376,0.39399999999999996,0.39399999999999996,0.39399999999999996,0.39399999999999996,0.39399999999999996,0.39399999999999996,0.39399999999999996,0.39399999999999996,0.39399999999999996,0.39399999999999996,0.376,0.358,0.34,0.34,0.322,0.322,0.305,0.287,0.26899999999999996,0.252,0.21600000000000003,0.21600000000000003,0.198,0.198,0.18,0.18,0.162,0.126,0.126,0.126,0.10800000000000001,0.10800000000000001,0.10800000000000001,0.10800000000000001,0.09,0.09,0.07200000000000001,0.055,0.055,0.07200000000000001,0.07200000000000001,0.07200000000000001,0.07200000000000001,0.055,0.055,0.055,0.055,0.055,0.07200000000000001,0.07200000000000001,0.07200000000000001,0.07200000000000001,0.055,0.055,0.055,0.07200000000000001,0.07200000000000001,0.07200000000000001,0.07200000000000001,0.07200000000000001,0.07200000000000001,0.055,0.037000000000000005,0.037000000000000005,0.055,0.037000000000000005,0.037000000000000005,0.037000000000000005,0.037000000000000005,0.019,0.002,0.002,0.002,0.002,0.002,0.002,-0.016,-0.034,-0.034,-0.034,-0.034,-0.034,-0.034,-0.016,-0.034,-0.052000000000000005,-0.052000000000000005,-0.052000000000000005,-0.034,-0.034,-0.034,-0.034,-0.034,-0.052000000000000005,-0.07,-0.07,-0.08800000000000001,-0.07,-0.07,-0.07,-0.07,-0.07,-0.08800000000000001,-0.106,-0.08800000000000001,-0.08800000000000001,-0.08800000000000001,-0.07,-0.07,-0.07,-0.08800000000000001,-0.08800000000000001,-0.07,-0.052000000000000005,-0.016,0.002,0.002,0.002,-0.016,-0.052000000000000005,-0.052000000000000005,-0.052000000000000005,-0.034,0.002,0.019,0.07200000000000001,0.07200000000000001,0.10800000000000001,0.10800000000000001,0.10800000000000001,0.14400000000000002,0.162,0.18,0.18,0.14400000000000002,0.09,0.037000000000000005,0.002,0.019,0.002,-0.124,-0.32,-0.534,-0.66,-0.695,-0.695,-0.66,-0.588,-0.516,-0.445,-0.392,-0.32,-0.284,-0.249,-0.213,-0.16,-0.124,-0.106,-0.106,-0.08800000000000001,-0.08800000000000001,-0.08800000000000001,-0.08800000000000001,-0.07,-0.052000000000000005,-0.052000000000000005,-0.034,-0.034,-0.052000000000000005,-0.052000000000000005,-0.052000000000000005,-0.052000000000000005,-0.034,-0.016,-0.016,-0.016,-0.016,-0.016,-0.016,-0.016,0.002,0.002,0.002,0.002,0.002,0.002,0.002,0.002,0.002,0.019,0.019,0.037000000000000005,0.055,0.037000000000000005,0.037000000000000005,0.037000000000000005,0.055,0.07200000000000001,0.07200000000000001,0.09,0.10800000000000001,0.10800000000000001,0.10800000000000001,0.10800000000000001,0.126,0.126,0.126,0.162,0.18,0.198,0.198,0.21600000000000003,0.21600000000000003,0.252,0.26899999999999996,0.287,0.305,0.322,0.34,0.34,0.34,0.34,0.358,0.376,0.376,0.376,0.376,0.358,0.34,0.34,0.322,0.322,0.322,0.305,0.287,0.26899999999999996,0.252,0.23399999999999999,0.21600000000000003,0.21600000000000003,0.198,0.198,0.18,0.162,0.14400000000000002,0.126,0.126,0.10800000000000001,0.10800000000000001,0.10800000000000001,0.10800000000000001,0.09,0.07200000000000001,0.055,0.037000000000000005,0.037000000000000005,0.037000000000000005,0.037000000000000005,0.037000000000000005,0.037000000000000005,0.019,0.002,0.002,0.002,0.019,0.019,0.037000000000000005,0.037000000000000005,0.037000000000000005,0.037000000000000005,0.019,0.019,0.019,0.037000000000000005,0.037000000000000005,0.037000000000000005,0.019,0.002,0.002,0.002,0.002,0.019,0.037000000000000005,0.019,0.019,0.019,0.002,0.002,0.002,0.002,0.002,0.002,0.002,-0.016,-0.034,-0.052000000000000005,-0.052000000000000005,-0.052000000000000005,-0.052000000000000005,-0.052000000000000005,-0.052000000000000005,-0.07,-0.07,-0.08800000000000001,-0.08800000000000001,-0.08800000000000001,-0.07,-0.07,-0.07,-0.07,-0.07,-0.08800000000000001,-0.08800000000000001,-0.08800000000000001,-0.08800000000000001,-0.08800000000000001,-0.08800000000000001,-0.08800000000000001,-0.106,-0.106,-0.124,-0.124,-0.124,-0.106,-0.106,-0.106,-0.106,-0.124,-0.124,-0.124,-0.124,-0.124,-0.106,-0.08800000000000001,-0.07,-0.07,-0.07,-0.052000000000000005,-0.052000000000000005,-0.07,-0.07,-0.07,-0.07,-0.052000000000000005,-0.016,0.002,0.019,0.037000000000000005,0.07200000000000001,0.09,0.10800000000000001,0.126,0.14400000000000002,0.14400000000000002,0.126,0.10800000000000001,0.037000000000000005,0.019,0.002,0.002,-0.07,-0.266,-0.48100000000000004,-0.66,-0.713,-0.713,-0.6779999999999999,-0.66,-0.588,-0.534,-0.46299999999999997,-0.392,-0.33799999999999997,-0.284,-0.249,-0.195,-0.16,-0.142,-0.142,-0.124,-0.124,-0.124,-0.106,-0.08800000000000001,-0.08800000000000001,-0.08800000000000001,-0.08800000000000001,-0.08800000000000001,-0.08800000000000001,-0.08800000000000001,-0.07,-0.07,-0.052000000000000005,-0.07,-0.07,-0.07,-0.07,-0.052000000000000005,-0.034,-0.016,-0.034,-0.034,-0.034,-0.034,-0.034,-0.016,0.002,0.002,0.002,0.002,0.002,0.002,0.002,0.002,0.002,0.019,0.019,0.037000000000000005,0.037000000000000005,0.037000000000000005,0.037000000000000005,0.055,0.055,0.07200000000000001,0.09,0.10800000000000001,0.10800000000000001,0.126,0.126,0.126,0.14400000000000002,0.18,0.198,0.21600000000000003,0.23399999999999999,0.252,0.252,0.26899999999999996,0.287,0.305,0.322,0.34,0.34,0.34,0.322,0.322,0.322,0.322,0.322,0.322,0.322,0.305,0.287,0.26899999999999996,0.252,0.252,0.23399999999999999,0.23399999999999999,0.21600000000000003,0.18,0.162,0.14400000000000002,0.126,0.126,0.126,0.126,0.10800000000000001,0.10800000000000001,0.07200000000000001,0.055,0.055,0.037000000000000005,0.037000000000000005,0.037000000000000005,0.019,0.019,0.019,0.002,0.002,0.002,0.002,0.002,0.002,0.002,0.002,0.002,0.002,0.002,0.002,0.002,0.002,0.002,0.002,0.002,0.002,0.002,0.002,0.002,0.002,0.002,0.002,0.002,0.002,0.002,0.002,0.002,-0.016,0.002,0.002,-0.016,-0.034,-0.034,-0.052000000000000005,-0.052000000000000005,-0.07,-0.07,-0.07,-0.07,-0.08800000000000001,-0.106,-0.124,-0.106,-0.106,-0.106,-0.08800000000000001,-0.08800000000000001,-0.106,-0.106,-0.124,-0.106,-0.124,-0.106,-0.106,-0.106,-0.106,-0.124,-0.124,-0.124,-0.124,-0.124,-0.124,-0.124,-0.124,-0.124,-0.142,-0.142,-0.142,-0.142,-0.124,-0.124,-0.124,-0.142,-0.142,-0.142,-0.124,-0.106,-0.08800000000000001,-0.07,-0.07,-0.08800000000000001,-0.124,-0.124,-0.124,-0.124,-0.08800000000000001,-0.034,0.002,0.002,0.019,0.037000000000000005,0.037000000000000005,0.07200000000000001,0.10800000000000001,0.126,0.126,0.126,0.07200000000000001,0.002,0.002,0.002,-0.016,-0.142,-0.35600000000000004,-0.57,-0.713,-0.7659999999999999,-0.7659999999999999,-0.731,-0.66,-0.588,-0.516,-0.445,-0.392,-0.35600000000000004,-0.302,-0.266,-0.231,-0.195,-0.17800000000000002,-0.142,-0.124,-0.124,-0.124,-0.142,-0.142,-0.124,-0.124,-0.124,-0.106,-0.124,-0.124,-0.124,-0.124,-0.124,-0.106,-0.106,-0.08800000000000001,-0.08800000000000001,-0.08800000000000001,-0.106,-0.106,-0.08800000000000001,-0.07,-0.07,-0.052000000000000005,-0.052000000000000005,-0.052000000000000005,-0.052000000000000005,-0.052000000000000005,-0.052000000000000005,-0.034,-0.016,-0.016,-0.016,0.002,-0.016,0.002,0.002,0.002,0.002,0.019,0.019,0.037000000000000005,0.037000000000000005,0.037000000000000005,0.037000000000000005,0.055,0.09,0.10800000000000001,0.126,0.126,0.126,0.14400000000000002,0.162,0.162,0.198,0.23399999999999999,0.252,0.26899999999999996,0.26899999999999996,0.26899999999999996,0.287,0.305,0.322,0.322,0.34,0.34,0.34,0.322,0.287,0.287,0.26899999999999996,0.287,0.26899999999999996,0.26899999999999996,0.252,0.23399999999999999,0.21600000000000003,0.18,0.162,0.162,0.14400000000000002,0.14400000000000002,0.126,0.10800000000000001,0.09,0.07200000000000001,0.055,0.055,0.037000000000000005,0.037000000000000005,0.037000000000000005,0.019,0.002,0.002,-0.016,-0.016,-0.016,-0.016,0.002,-0.016,-0.034,-0.034,-0.034,-0.034,-0.034,-0.016,-0.016,0.002,-0.016,-0.016,-0.016,-0.034,-0.034,N
3,-0.142,-0.124,-0.124,-0.106,-0.07,-0.052000000000000005,-0.034,-0.034,-0.016,-0.034,-0.034,-0.034,-0.034,-0.034,-0.016,0.002,0.002,0.002,0.002,-0.016,0.002,0.002,0.002,0.002,0.002,0.002,0.002,0.002,0.002,0.019,0.019,0.037000000000000005,0.055,0.055,0.055,0.055,0.055,0.055,0.07200000000000001,0.07200000000000001,0.09,0.09,0.10800000000000001,0.09,0.09,0.10800000000000001,0.126,0.126,0.14400000000000002,0.162,0.162,0.18,0.18,0.18,0.21600000000000003,0.23399999999999999,0.26899999999999996,0.26899999999999996,0.287,0.287,0.305,0.305,0.322,0.34,0.358,0.376,0.39399999999999996,0.39399999999999996,0.39399999999999996,0.39399999999999996,0.39399999999999996,0.39399999999999996,0.39399999999999996,0.39399999999999996,0.39399999999999996,0.39399999999999996,0.376,0.358,0.34,0.34,0.322,0.322,0.305,0.287,0.26899999999999996,0.252,0.21600000000000003,0.21600000000000003,0.198,0.198,0.18,0.18,0.162,0.126,0.126,0.126,0.10800000000000001,0.10800000000000001,0.10800000000000001,0.10800000000000001,0.09,0.09,0.07200000000000001,0.055,0.055,0.07200000000000001,0.07200000000000001,0.07200000000000001,0.07200000000000001,0.055,0.055,0.055,0.055,0.055,0.07200000000000001,0.07200000000000001,0.07200000000000001,0.07200000000000001,0.055,0.055,0.055,0.07200000000000001,0.07200000000000001,0.07200000000000001,0.07200000000000001,0.07200000000000001,0.07200000000000001,0.055,0.037000000000000005,0.037000000000000005,0.055,0.037000000000000005,0.037000000000000005,0.037000000000000005,0.037000000000000005,0.019,0.002,0.002,0.002,0.002,0.002,0.002,-0.016,-0.034,-0.034,-0.034,-0.034,-0.034,-0.034,-0.016,-0.034,-0.052000000000000005,-0.052000000000000005,-0.052000000000000005,-0.034,-0.034,-0.034,-0.034,-0.034,-0.052000000000000005,-0.07,-0.07,-0.08800000000000001,-0.07,-0.07,-0.07,-0.07,-0.07,-0.08800000000000001,-0.106,-0.08800000000000001,-0.08800000000000001,-0.08800000000000001,-0.07,-0.07,-0.07,-0.08800000000000001,-0.08800000000000001,-0.07,-0.052000000000000005,-0.016,0.002,0.002,0.002,-0.016,-0.052000000000000005,-0.052000000000000005,-0.052000000000000005,-0.034,0.002,0.019,0.07200000000000001,0.07200000000000001,0.10800000000000001,0.10800000000000001,0.10800000000000001,0.14400000000000002,0.162,0.18,0.18,0.14400000000000002,0.09,0.037000000000000005,0.002,0.019,0.002,-0.124,-0.32,-0.534,-0.66,-0.695,-0.695,-0.66,-0.588,-0.516,-0.445,-0.392,-0.32,-0.284,-0.249,-0.213,-0.16,-0.124,-0.106,-0.106,-0.08800000000000001,-0.08800000000000001,-0.08800000000000001,-0.08800000000000001,-0.07,-0.052000000000000005,-0.052000000000000005,-0.034,-0.034,-0.052000000000000005,-0.052000000000000005,-0.052000000000000005,-0.052000000000000005,-0.034,-0.016,-0.016,-0.016,-0.016,-0.016,-0.016,-0.016,0.002,0.002,0.002,0.002,0.002,0.002,0.002,0.002,0.002,0.019,0.019,0.037000000000000005,0.055,0.037000000000000005,0.037000000000000005,0.037000000000000005,0.055,0.07200000000000001,0.07200000000000001,0.09,0.10800000000000001,0.10800000000000001,0.10800000000000001,0.10800000000000001,0.126,0.126,0.126,0.162,0.18,0.198,0.198,0.21600000000000003,0.21600000000000003,0.252,0.26899999999999996,0.287,0.305,0.322,0.34,0.34,0.34,0.34,0.358,0.376,0.376,0.376,0.376,0.358,0.34,0.34,0.322,0.322,0.322,0.305,0.287,0.26899999999999996,0.252,0.23399999999999999,0.21600000000000003,0.21600000000000003,0.198,0.198,0.18,0.162,0.14400000000000002,0.126,0.126,0.10800000000000001,0.10800000000000001,0.10800000000000001,0.10800000000000001,0.09,0.07200000000000001,0.055,0.037000000000000005,0.037000000000000005,0.037000000000000005,0.037000000000000005,0.037000000000000005,0.037000000000000005,0.019,0.002,0.002,0.002,0.019,0.019,0.037000000000000005,0.037000000000000005,0.037000000000000005,0.037000000000000005,0.019,0.019,0.019,0.037000000000000005,0.037000000000000005,0.037000000000000005,0.019,0.002,0.002,0.002,0.002,0.019,0.037000000000000005,0.019,0.019,0.019,0.002,0.002,0.002,0.002,0.002,0.002,0.002,-0.016,-0.034,-0.052000000000000005,-0.052000000000000005,-0.052000000000000005,-0.052000000000000005,-0.052000000000000005,-0.052000000000000005,-0.07,-0.07,-0.08800000000000001,-0.08800000000000001,-0.08800000000000001,-0.07,-0.07,-0.07,-0.07,-0.07,-0.08800000000000001,-0.08800000000000001,-0.08800000000000001,-0.08800000000000001,-0.08800000000000001,-0.08800000000000001,-0.08800000000000001,-0.106,-0.106,-0.124,-0.124,-0.124,-0.106,-0.106,-0.106,-0.106,-0.124,-0.124,-0.124,-0.124,-0.124,-0.106,-0.08800000000000001,-0.07,-0.07,-0.07,-0.052000000000000005,-0.052000000000000005,-0.07,-0.07,-0.07,-0.07,-0.052000000000000005,-0.016,0.002,0.019,0.037000000000000005,0.07200000000000001,0.09,0.10800000000000001,0.126,0.14400000000000002,0.14400000000000002,0.126,0.10800000000000001,0.037000000000000005,0.019,0.002,0.002,-0.07,-0.266,-0.48100000000000004,-0.66,-0.713,-0.713,-0.6779999999999999,-0.66,-0.588,-0.534,-0.46299999999999997,-0.392,-0.33799999999999997,-0.284,-0.249,-0.195,-0.16,-0.142,-0.142,-0.124,-0.124,-0.124,-0.106,-0.08800000000000001,-0.08800000000000001,-0.08800000000000001,-0.08800000000000001,-0.08800000000000001,-0.08800000000000001,-0.08800000000000001,-0.07,-0.07,-0.052000000000000005,-0.07,-0.07,-0.07,-0.07,-0.052000000000000005,-0.034,-0.016,-0.034,-0.034,-0.034,-0.034,-0.034,-0.016,0.002,0.002,0.002,0.002,0.002,0.002,0.002,0.002,0.002,0.019,0.019,0.037000000000000005,0.037000000000000005,0.037000000000000005,0.037000000000000005,0.055,0.055,0.07200000000000001,0.09,0.10800000000000001,0.10800000000000001,0.126,0.126,0.126,0.14400000000000002,0.18,0.198,0.21600000000000003,0.23399999999999999,0.252,0.252,0.26899999999999996,0.287,0.305,0.322,0.34,0.34,0.34,0.322,0.322,0.322,0.322,0.322,0.322,0.322,0.305,0.287,0.26899999999999996,0.252,0.252,0.23399999999999999,0.23399999999999999,0.21600000000000003,0.18,0.162,0.14400000000000002,0.126,0.126,0.126,0.126,0.10800000000000001,0.10800000000000001,0.07200000000000001,0.055,0.055,0.037000000000000005,0.037000000000000005,0.037000000000000005,0.019,0.019,0.019,0.002,0.002,0.002,0.002,0.002,0.002,0.002,0.002,0.002,0.002,0.002,0.002,0.002,0.002,0.002,0.002,0.002,0.002,0.002,0.002,0.002,0.002,0.002,0.002,0.002,0.002,0.002,0.002,0.002,-0.016,0.002,0.002,-0.016,-0.034,-0.034,-0.052000000000000005,-0.052000000000000005,-0.07,-0.07,-0.07,-0.07,-0.08800000000000001,-0.106,-0.124,-0.106,-0.106,-0.106,-0.08800000000000001,-0.08800000000000001,-0.106,-0.106,-0.124,-0.106,-0.124,-0.106,-0.106,-0.106,-0.106,-0.124,-0.124,-0.124,-0.124,-0.124,-0.124,-0.124,-0.124,-0.124,-0.142,-0.142,-0.142,-0.142,-0.124,-0.124,-0.124,-0.142,-0.142,-0.142,-0.124,-0.106,-0.08800000000000001,-0.07,-0.07,-0.08800000000000001,-0.124,-0.124,-0.124,-0.124,-0.08800000000000001,-0.034,0.002,0.002,0.019,0.037000000000000005,0.037000000000000005,0.07200000000000001,0.10800000000000001,0.126,0.126,0.126,0.07200000000000001,0.002,0.002,0.002,-0.016,-0.142,-0.35600000000000004,-0.57,-0.713,-0.7659999999999999,-0.7659999999999999,-0.731,-0.66,-0.588,-0.516,-0.445,-0.392,-0.35600000000000004,-0.302,-0.266,-0.231,-0.195,-0.17800000000000002,-0.142,-0.124,-0.124,-0.124,-0.142,-0.142,-0.124,-0.124,-0.124,-0.106,-0.124,-0.124,-0.124,-0.124,-0.124,-0.106,-0.106,-0.08800000000000001,-0.08800000000000001,-0.08800000000000001,-0.106,-0.106,-0.08800000000000001,-0.07,-0.07,-0.052000000000000005,-0.052000000000000005,-0.052000000000000005,-0.052000000000000005,-0.052000000000000005,-0.052000000000000005,-0.034,-0.016,-0.016,-0.016,0.002,-0.016,0.002,0.002,0.002,0.002,0.019,0.019,0.037000000000000005,0.037000000000000005,0.037000000000000005,0.037000000000000005,0.055,0.09,0.10800000000000001,0.126,0.126,0.126,0.14400000000000002,0.162,0.162,0.198,0.23399999999999999,0.252,0.26899999999999996,0.26899999999999996,0.26899999999999996,0.287,0.305,0.322,0.322,0.34,0.34,0.34,0.322,0.287,0.287,0.26899999999999996,0.287,0.26899999999999996,0.26899999999999996,0.252,0.23399999999999999,0.21600000000000003,0.18,0.162,0.162,0.14400000000000002,0.14400000000000002,0.126,0.10800000000000001,0.09,0.07200000000000001,0.055,0.055,0.037000000000000005,0.037000000000000005,0.037000000000000005,0.019,0.002,0.002,-0.016,-0.016,-0.016,-0.016,0.002,-0.016,-0.034,-0.034,-0.034,-0.034,-0.034,-0.016,-0.016,0.002,-0.016,-0.016,-0.016,-0.034,-0.034,-0.016,-0.016,-0.016,-0.016,-0.034,-0.034,-0.034,-0.034,-0.016,-0.016,-0.016,-0.016,-0.016,-0.034,-0.052000000000000005,-0.052000000000000005,-0.07,-0.052000000000000005,-0.052000000000000005,-0.052000000000000005,-0.07,-0.08800000000000001,-0.106,-0.124,-0.124,-0.106,-0.124,-0.124,-0.124,-0.124,-0.124,-0.124,-0.124,-0.124,-0.124,-0.124,-0.124,-0.124,-0.124,-0.142,-0.142,-0.142,-0.124,-0.124,-0.142,-0.142,-0.16,-0.16,-0.16,-0.16,-0.16,-0.16,-0.16,-0.16,-0.16,-0.17800000000000002,-0.17800000000000002,-0.17800000000000002,-0.16,-0.142,-0.142,-0.124,-0.124,-0.124,-0.124,-0.124,-0.142,-0.16,-0.16,-0.16,-0.142,-0.124,-0.08800000000000001,-0.034,0.002,0.037000000000000005,0.10800000000000001,0.162,0.198,0.21600000000000003,0.23399999999999999,0.21600000000000003,0.198,0.18,0.14400000000000002,0.126,0.10800000000000001,0.019,-0.142,-0.374,-0.606,-0.731,-0.784,-0.7659999999999999,-0.731,-0.66,-0.606,-0.552,-0.499,-0.428,-0.35600000000000004,-0.302,-0.266,-0.249,-0.231,-0.195,-0.195,-0.195,-0.17800000000000002,-0.17800000000000002,-0.16,-0.16,-0.16,-0.16,-0.16,-0.16,-0.142,-0.142,-0.142,-0.142,-0.124,-0.124,-0.124,-0.124,-0.124,-0.124,-0.124,-0.106,-0.106,-0.124,-0.124,-0.106,-0.106,-0.08800000000000001,-0.08800000000000001,-0.08800000000000001,-0.07,-0.08800000000000001,-0.08800000000000001,-0.08800000000000001,-0.07,-0.052000000000000005,-0.034,-0.034,-0.034,-0.034,-0.034,-0.034,-0.016,0.002,0.002,0.019,0.019,0.037000000000000005,0.055,0.055,0.07200000000000001,0.09,0.126,0.126,0.14400000000000002,0.162,0.18,0.198,0.198,0.21600000000000003,0.252,0.26899999999999996,0.287,0.305,0.305,0.322,0.322,0.322,0.322,0.322,0.34,0.322,0.305,0.287,0.26899999999999996,0.252,0.252,0.21600000000000003,0.21600000000000003,0.198,0.18,0.162,0.126,0.10800000000000001,0.09,0.07200000000000001,0.07200000000000001,0.055,0.055,0.037000000000000005,0.002,0.002,0.002,0.002,0.002,0.002,0.002,-0.016,-0.016,-0.016,-0.052000000000000005,-0.052000000000000005,-0.052000000000000005,-0.052000000000000005,-0.052000000000000005,-0.052000000000000005,-0.052000000000000005,-0.07,-0.07,-0.052000000000000005,-0.052000000000000005,-0.034,-0.016,-0.016,N
4,-0.249,-0.213,-0.16,-0.124,-0.106,-0.106,-0.08800000000000001,-0.08800000000000001,-0.08800000000000001,-0.08800000000000001,-0.07,-0.052000000000000005,-0.052000000000000005,-0.034,-0.034,-0.052000000000000005,-0.052000000000000005,-0.052000000000000005,-0.052000000000000005,-0.034,-0.016,-0.016,-0.016,-0.016,-0.016,-0.016,-0.016,0.002,0.002,0.002,0.002,0.002,0.002,0.002,0.002,0.002,0.019,0.019,0.037000000000000005,0.055,0.037000000000000005,0.037000000000000005,0.037000000000000005,0.055,0.07200000000000001,0.07200000000000001,0.09,0.10800000000000001,0.10800000000000001,0.10800000000000001,0.10800000000000001,0.126,0.126,0.126,0.162,0.18,0.198,0.198,0.21600000000000003,0.21600000000000003,0.252,0.26899999999999996,0.287,0.305,0.322,0.34,0.34,0.34,0.34,0.358,0.376,0.376,0.376,0.376,0.358,0.34,0.34,0.322,0.322,0.322,0.305,0.287,0.26899999999999996,0.252,0.23399999999999999,0.21600000000000003,0.21600000000000003,0.198,0.198,0.18,0.162,0.14400000000000002,0.126,0.126,0.10800000000000001,0.10800000000000001,0.10800000000000001,0.10800000000000001,0.09,0.07200000000000001,0.055,0.037000000000000005,0.037000000000000005,0.037000000000000005,0.037000000000000005,0.037000000000000005,0.037000000000000005,0.019,0.002,0.002,0.002,0.019,0.019,0.037000000000000005,0.037000000000000005,0.037000000000000005,0.037000000000000005,0.019,0.019,0.019,0.037000000000000005,0.037000000000000005,0.037000000000000005,0.019,0.002,0.002,0.002,0.002,0.019,0.037000000000000005,0.019,0.019,0.019,0.002,0.002,0.002,0.002,0.002,0.002,0.002,-0.016,-0.034,-0.052000000000000005,-0.052000000000000005,-0.052000000000000005,-0.052000000000000005,-0.052000000000000005,-0.052000000000000005,-0.07,-0.07,-0.08800000000000001,-0.08800000000000001,-0.08800000000000001,-0.07,-0.07,-0.07,-0.07,-0.07,-0.08800000000000001,-0.08800000000000001,-0.08800000000000001,-0.08800000000000001,-0.08800000000000001,-0.08800000000000001,-0.08800000000000001,-0.106,-0.106,-0.124,-0.124,-0.124,-0.106,-0.106,-0.106,-0.106,-0.124,-0.124,-0.124,-0.124,-0.124,-0.106,-0.08800000000000001,-0.07,-0.07,-0.07,-0.052000000000000005,-0.052000000000000005,-0.07,-0.07,-0.07,-0.07,-0.052000000000000005,-0.016,0.002,0.019,0.037000000000000005,0.07200000000000001,0.09,0.10800000000000001,0.126,0.14400000000000002,0.14400000000000002,0.126,0.10800000000000001,0.037000000000000005,0.019,0.002,0.002,-0.07,-0.266,-0.48100000000000004,-0.66,-0.713,-0.713,-0.6779999999999999,-0.66,-0.588,-0.534,-0.46299999999999997,-0.392,-0.33799999999999997,-0.284,-0.249,-0.195,-0.16,-0.142,-0.142,-0.124,-0.124,-0.124,-0.106,-0.08800000000000001,-0.08800000000000001,-0.08800000000000001,-0.08800000000000001,-0.08800000000000001,-0.08800000000000001,-0.08800000000000001,-0.07,-0.07,-0.052000000000000005,-0.07,-0.07,-0.07,-0.07,-0.052000000000000005,-0.034,-0.016,-0.034,-0.034,-0.034,-0.034,-0.034,-0.016,0.002,0.002,0.002,0.002,0.002,0.002,0.002,0.002,0.002,0.019,0.019,0.037000000000000005,0.037000000000000005,0.037000000000000005,0.037000000000000005,0.055,0.055,0.07200000000000001,0.09,0.10800000000000001,0.10800000000000001,0.126,0.126,0.126,0.14400000000000002,0.18,0.198,0.21600000000000003,0.23399999999999999,0.252,0.252,0.26899999999999996,0.287,0.305,0.322,0.34,0.34,0.34,0.322,0.322,0.322,0.322,0.322,0.322,0.322,0.305,0.287,0.26899999999999996,0.252,0.252,0.23399999999999999,0.23399999999999999,0.21600000000000003,0.18,0.162,0.14400000000000002,0.126,0.126,0.126,0.126,0.10800000000000001,0.10800000000000001,0.07200000000000001,0.055,0.055,0.037000000000000005,0.037000000000000005,0.037000000000000005,0.019,0.019,0.019,0.002,0.002,0.002,0.002,0.002,0.002,0.002,0.002,0.002,0.002,0.002,0.002,0.002,0.002,0.002,0.002,0.002,0.002,0.002,0.002,0.002,0.002,0.002,0.002,0.002,0.002,0.002,0.002,0.002,-0.016,0.002,0.002,-0.016,-0.034,-0.034,-0.052000000000000005,-0.052000000000000005,-0.07,-0.07,-0.07,-0.07,-0.08800000000000001,-0.106,-0.124,-0.106,-0.106,-0.106,-0.08800000000000001,-0.08800000000000001,-0.106,-0.106,-0.124,-0.106,-0.124,-0.106,-0.106,-0.106,-0.106,-0.124,-0.124,-0.124,-0.124,-0.124,-0.124,-0.124,-0.124,-0.124,-0.142,-0.142,-0.142,-0.142,-0.124,-0.124,-0.124,-0.142,-0.142,-0.142,-0.124,-0.106,-0.08800000000000001,-0.07,-0.07,-0.08800000000000001,-0.124,-0.124,-0.124,-0.124,-0.08800000000000001,-0.034,0.002,0.002,0.019,0.037000000000000005,0.037000000000000005,0.07200000000000001,0.10800000000000001,0.126,0.126,0.126,0.07200000000000001,0.002,0.002,0.002,-0.016,-0.142,-0.35600000000000004,-0.57,-0.713,-0.7659999999999999,-0.7659999999999999,-0.731,-0.66,-0.588,-0.516,-0.445,-0.392,-0.35600000000000004,-0.302,-0.266,-0.231,-0.195,-0.17800000000000002,-0.142,-0.124,-0.124,-0.124,-0.142,-0.142,-0.124,-0.124,-0.124,-0.106,-0.124,-0.124,-0.124,-0.124,-0.124,-0.106,-0.106,-0.08800000000000001,-0.08800000000000001,-0.08800000000000001,-0.106,-0.106,-0.08800000000000001,-0.07,-0.07,-0.052000000000000005,-0.052000000000000005,-0.052000000000000005,-0.052000000000000005,-0.052000000000000005,-0.052000000000000005,-0.034,-0.016,-0.016,-0.016,0.002,-0.016,0.002,0.002,0.002,0.002,0.019,0.019,0.037000000000000005,0.037000000000000005,0.037000000000000005,0.037000000000000005,0.055,0.09,0.10800000000000001,0.126,0.126,0.126,0.14400000000000002,0.162,0.162,0.198,0.23399999999999999,0.252,0.26899999999999996,0.26899999999999996,0.26899999999999996,0.287,0.305,0.322,0.322,0.34,0.34,0.34,0.322,0.287,0.287,0.26899999999999996,0.287,0.26899999999999996,0.26899999999999996,0.252,0.23399999999999999,0.21600000000000003,0.18,0.162,0.162,0.14400000000000002,0.14400000000000002,0.126,0.10800000000000001,0.09,0.07200000000000001,0.055,0.055,0.037000000000000005,0.037000000000000005,0.037000000000000005,0.019,0.002,0.002,-0.016,-0.016,-0.016,-0.016,0.002,-0.016,-0.034,-0.034,-0.034,-0.034,-0.034,-0.016,-0.016,0.002,-0.016,-0.016,-0.016,-0.034,-0.034,-0.016,-0.016,-0.016,-0.016,-0.034,-0.034,-0.034,-0.034,-0.016,-0.016,-0.016,-0.016,-0.016,-0.034,-0.052000000000000005,-0.052000000000000005,-0.07,-0.052000000000000005,-0.052000000000000005,-0.052000000000000005,-0.07,-0.08800000000000001,-0.106,-0.124,-0.124,-0.106,-0.124,-0.124,-0.124,-0.124,-0.124,-0.124,-0.124,-0.124,-0.124,-0.124,-0.124,-0.124,-0.124,-0.142,-0.142,-0.142,-0.124,-0.124,-0.142,-0.142,-0.16,-0.16,-0.16,-0.16,-0.16,-0.16,-0.16,-0.16,-0.16,-0.17800000000000002,-0.17800000000000002,-0.17800000000000002,-0.16,-0.142,-0.142,-0.124,-0.124,-0.124,-0.124,-0.124,-0.142,-0.16,-0.16,-0.16,-0.142,-0.124,-0.08800000000000001,-0.034,0.002,0.037000000000000005,0.10800000000000001,0.162,0.198,0.21600000000000003,0.23399999999999999,0.21600000000000003,0.198,0.18,0.14400000000000002,0.126,0.10800000000000001,0.019,-0.142,-0.374,-0.606,-0.731,-0.784,-0.7659999999999999,-0.731,-0.66,-0.606,-0.552,-0.499,-0.428,-0.35600000000000004,-0.302,-0.266,-0.249,-0.231,-0.195,-0.195,-0.195,-0.17800000000000002,-0.17800000000000002,-0.16,-0.16,-0.16,-0.16,-0.16,-0.16,-0.142,-0.142,-0.142,-0.142,-0.124,-0.124,-0.124,-0.124,-0.124,-0.124,-0.124,-0.106,-0.106,-0.124,-0.124,-0.106,-0.106,-0.08800000000000001,-0.08800000000000001,-0.08800000000000001,-0.07,-0.08800000000000001,-0.08800000000000001,-0.08800000000000001,-0.07,-0.052000000000000005,-0.034,-0.034,-0.034,-0.034,-0.034,-0.034,-0.016,0.002,0.002,0.019,0.019,0.037000000000000005,0.055,0.055,0.07200000000000001,0.09,0.126,0.126,0.14400000000000002,0.162,0.18,0.198,0.198,0.21600000000000003,0.252,0.26899999999999996,0.287,0.305,0.305,0.322,0.322,0.322,0.322,0.322,0.34,0.322,0.305,0.287,0.26899999999999996,0.252,0.252,0.21600000000000003,0.21600000000000003,0.198,0.18,0.162,0.126,0.10800000000000001,0.09,0.07200000000000001,0.07200000000000001,0.055,0.055,0.037000000000000005,0.002,0.002,0.002,0.002,0.002,0.002,0.002,-0.016,-0.016,-0.016,-0.052000000000000005,-0.052000000000000005,-0.052000000000000005,-0.052000000000000005,-0.052000000000000005,-0.052000000000000005,-0.052000000000000005,-0.07,-0.07,-0.052000000000000005,-0.052000000000000005,-0.034,-0.016,-0.016,-0.016,-0.034,-0.052000000000000005,-0.052000000000000005,-0.052000000000000005,-0.052000000000000005,-0.034,-0.034,-0.034,-0.052000000000000005,-0.052000000000000005,-0.052000000000000005,-0.052000000000000005,-0.034,-0.034,-0.016,-0.034,-0.07,-0.07,-0.08800000000000001,-0.08800000000000001,-0.08800000000000001,-0.08800000000000001,-0.08800000000000001,-0.106,-0.106,-0.106,-0.124,-0.124,-0.124,-0.124,-0.124,-0.124,-0.124,-0.142,-0.142,-0.142,-0.142,-0.142,-0.124,-0.124,-0.142,-0.16,-0.16,-0.16,-0.17800000000000002,-0.17800000000000002,-0.16,-0.17800000000000002,-0.16,-0.16,-0.17800000000000002,-0.17800000000000002,-0.17800000000000002,-0.195,-0.17800000000000002,-0.17800000000000002,-0.17800000000000002,-0.16,-0.17800000000000002,-0.195,-0.17800000000000002,-0.16,-0.124,-0.124,-0.106,-0.106,-0.106,-0.124,-0.124,-0.124,-0.07,-0.016,0.037000000000000005,0.07200000000000001,0.126,0.14400000000000002,0.18,0.252,0.287,0.305,0.305,0.26899999999999996,0.23399999999999999,0.18,0.14400000000000002,0.10800000000000001,0.055,-0.034,-0.195,-0.392,-0.588,-0.713,-0.784,-0.802,-0.7659999999999999,-0.6779999999999999,-0.606,-0.534,-0.445,-0.392,-0.35600000000000004,-0.32,-0.284,-0.266,-0.231,-0.195,-0.17800000000000002,-0.17800000000000002,-0.17800000000000002,-0.195,-0.17800000000000002,-0.17800000000000002,-0.16,-0.16,-0.16,-0.16,-0.16,-0.16,-0.142,-0.16,-0.142,-0.124,-0.124,-0.124,-0.142,-0.124,-0.124,-0.124,-0.124,-0.124,-0.124,-0.106,-0.106,-0.106,-0.106,-0.124,-0.106,-0.08800000000000001,-0.08800000000000001,-0.07,-0.07,-0.07,-0.07,-0.07,-0.052000000000000005,-0.052000000000000005,-0.034,-0.016,0.002,0.002,0.002,0.002,0.002,0.002,0.037000000000000005,0.055,0.055,0.07200000000000001,0.09,0.09,0.10800000000000001,0.126,0.14400000000000002,0.18,0.198,0.23399999999999999,0.23399999999999999,0.23399999999999999,0.252,0.26899999999999996,0.26899999999999996,0.287,0.305,0.305,0.287,0.287,0.26899999999999996,0.26899999999999996,0.26899999999999996,0.26899999999999996,0.26899999999999996,0.252,0.23399999999999999,0.198,0.18,0.162,0.14400000000000002,0.126,0.126,0.10800000000000001,0.10800000000000001,0.07200000000000001,0.055,0.019,0.002,0.002,0.002,0.002,0.002,-0.016,-0.016,-0.034,-0.052000000000000005,-0.052000000000000005,-0.052000000000000005,-0.052000000000000005,-0.052000000000000005,-0.052000000000000005,-0.07,-0.07,-0.07,-0.07,-0.052000000000000005,-0.052000000000000005,-0.034,-0.034,-0.034,-0.034,N
5,-0.249,-0.195,-0.16,-0.142,-0.142,-0.124,-0.124,-0.124,-0.106,-0.08800000000000001,-0.08800000000000001,-0.08800000000000001,-0.08800000000000001,-0.08800000000000001,-0.08800000000000001,-0.08800000000000001,-0.07,-0.07,-0.052000000000000005,-0.07,-0.07,-0.07,-0.07,-0.052000000000000005,-0.034,-0.016,-0.034,-0.034,-0.034,-0.034,-0.034,-0.016,0.002,0.002,0.002,0.002,0.002,0.002,0.002,0.002,0.002,0.019,0.019,0.037000000000000005,0.037000000000000005,0.037000000000000005,0.037000000000000005,0.055,0.055,0.07200000000000001,0.09,0.10800000000000001,0.10800000000000001,0.126,0.126,0.126,0.14400000000000002,0.18,0.198,0.21600000000000003,0.23399999999999999,0.252,0.252,0.26899999999999996,0.287,0.305,0.322,0.34,0.34,0.34,0.322,0.322,0.322,0.322,0.322,0.322,0.322,0.305,0.287,0.26899999999999996,0.252,0.252,0.23399999999999999,0.23399999999999999,0.21600000000000003,0.18,0.162,0.14400000000000002,0.126,0.126,0.126,0.126,0.10800000000000001,0.10800000000000001,0.07200000000000001,0.055,0.055,0.037000000000000005,0.037000000000000005,0.037000000000000005,0.019,0.019,0.019,0.002,0.002,0.002,0.002,0.002,0.002,0.002,0.002,0.002,0.002,0.002,0.002,0.002,0.002,0.002,0.002,0.002,0.002,0.002,0.002,0.002,0.002,0.002,0.002,0.002,0.002,0.002,0.002,0.002,-0.016,0.002,0.002,-0.016,-0.034,-0.034,-0.052000000000000005,-0.052000000000000005,-0.07,-0.07,-0.07,-0.07,-0.08800000000000001,-0.106,-0.124,-0.106,-0.106,-0.106,-0.08800000000000001,-0.08800000000000001,-0.106,-0.106,-0.124,-0.106,-0.124,-0.106,-0.106,-0.106,-0.106,-0.124,-0.124,-0.124,-0.124,-0.124,-0.124,-0.124,-0.124,-0.124,-0.142,-0.142,-0.142,-0.142,-0.124,-0.124,-0.124,-0.142,-0.142,-0.142,-0.124,-0.106,-0.08800000000000001,-0.07,-0.07,-0.08800000000000001,-0.124,-0.124,-0.124,-0.124,-0.08800000000000001,-0.034,0.002,0.002,0.019,0.037000000000000005,0.037000000000000005,0.07200000000000001,0.10800000000000001,0.126,0.126,0.126,0.07200000000000001,0.002,0.002,0.002,-0.016,-0.142,-0.35600000000000004,-0.57,-0.713,-0.7659999999999999,-0.7659999999999999,-0.731,-0.66,-0.588,-0.516,-0.445,-0.392,-0.35600000000000004,-0.302,-0.266,-0.231,-0.195,-0.17800000000000002,-0.142,-0.124,-0.124,-0.124,-0.142,-0.142,-0.124,-0.124,-0.124,-0.106,-0.124,-0.124,-0.124,-0.124,-0.124,-0.106,-0.106,-0.08800000000000001,-0.08800000000000001,-0.08800000000000001,-0.106,-0.106,-0.08800000000000001,-0.07,-0.07,-0.052000000000000005,-0.052000000000000005,-0.052000000000000005,-0.052000000000000005,-0.052000000000000005,-0.052000000000000005,-0.034,-0.016,-0.016,-0.016,0.002,-0.016,0.002,0.002,0.002,0.002,0.019,0.019,0.037000000000000005,0.037000000000000005,0.037000000000000005,0.037000000000000005,0.055,0.09,0.10800000000000001,0.126,0.126,0.126,0.14400000000000002,0.162,0.162,0.198,0.23399999999999999,0.252,0.26899999999999996,0.26899999999999996,0.26899999999999996,0.287,0.305,0.322,0.322,0.34,0.34,0.34,0.322,0.287,0.287,0.26899999999999996,0.287,0.26899999999999996,0.26899999999999996,0.252,0.23399999999999999,0.21600000000000003,0.18,0.162,0.162,0.14400000000000002,0.14400000000000002,0.126,0.10800000000000001,0.09,0.07200000000000001,0.055,0.055,0.037000000000000005,0.037000000000000005,0.037000000000000005,0.019,0.002,0.002,-0.016,-0.016,-0.016,-0.016,0.002,-0.016,-0.034,-0.034,-0.034,-0.034,-0.034,-0.016,-0.016,0.002,-0.016,-0.016,-0.016,-0.034,-0.034,-0.016,-0.016,-0.016,-0.016,-0.034,-0.034,-0.034,-0.034,-0.016,-0.016,-0.016,-0.016,-0.016,-0.034,-0.052000000000000005,-0.052000000000000005,-0.07,-0.052000000000000005,-0.052000000000000005,-0.052000000000000005,-0.07,-0.08800000000000001,-0.106,-0.124,-0.124,-0.106,-0.124,-0.124,-0.124,-0.124,-0.124,-0.124,-0.124,-0.124,-0.124,-0.124,-0.124,-0.124,-0.124,-0.142,-0.142,-0.142,-0.124,-0.124,-0.142,-0.142,-0.16,-0.16,-0.16,-0.16,-0.16,-0.16,-0.16,-0.16,-0.16,-0.17800000000000002,-0.17800000000000002,-0.17800000000000002,-0.16,-0.142,-0.142,-0.124,-0.124,-0.124,-0.124,-0.124,-0.142,-0.16,-0.16,-0.16,-0.142,-0.124,-0.08800000000000001,-0.034,0.002,0.037000000000000005,0.10800000000000001,0.162,0.198,0.21600000000000003,0.23399999999999999,0.21600000000000003,0.198,0.18,0.14400000000000002,0.126,0.10800000000000001,0.019,-0.142,-0.374,-0.606,-0.731,-0.784,-0.7659999999999999,-0.731,-0.66,-0.606,-0.552,-0.499,-0.428,-0.35600000000000004,-0.302,-0.266,-0.249,-0.231,-0.195,-0.195,-0.195,-0.17800000000000002,-0.17800000000000002,-0.16,-0.16,-0.16,-0.16,-0.16,-0.16,-0.142,-0.142,-0.142,-0.142,-0.124,-0.124,-0.124,-0.124,-0.124,-0.124,-0.124,-0.106,-0.106,-0.124,-0.124,-0.106,-0.106,-0.08800000000000001,-0.08800000000000001,-0.08800000000000001,-0.07,-0.08800000000000001,-0.08800000000000001,-0.08800000000000001,-0.07,-0.052000000000000005,-0.034,-0.034,-0.034,-0.034,-0.034,-0.034,-0.016,0.002,0.002,0.019,0.019,0.037000000000000005,0.055,0.055,0.07200000000000001,0.09,0.126,0.126,0.14400000000000002,0.162,0.18,0.198,0.198,0.21600000000000003,0.252,0.26899999999999996,0.287,0.305,0.305,0.322,0.322,0.322,0.322,0.322,0.34,0.322,0.305,0.287,0.26899999999999996,0.252,0.252,0.21600000000000003,0.21600000000000003,0.198,0.18,0.162,0.126,0.10800000000000001,0.09,0.07200000000000001,0.07200000000000001,0.055,0.055,0.037000000000000005,0.002,0.002,0.002,0.002,0.002,0.002,0.002,-0.016,-0.016,-0.016,-0.052000000000000005,-0.052000000000000005,-0.052000000000000005,-0.052000000000000005,-0.052000000000000005,-0.052000000000000005,-0.052000000000000005,-0.07,-0.07,-0.052000000000000005,-0.052000000000000005,-0.034,-0.016,-0.016,-0.016,-0.034,-0.052000000000000005,-0.052000000000000005,-0.052000000000000005,-0.052000000000000005,-0.034,-0.034,-0.034,-0.052000000000000005,-0.052000000000000005,-0.052000000000000005,-0.052000000000000005,-0.034,-0.034,-0.016,-0.034,-0.07,-0.07,-0.08800000000000001,-0.08800000000000001,-0.08800000000000001,-0.08800000000000001,-0.08800000000000001,-0.106,-0.106,-0.106,-0.124,-0.124,-0.124,-0.124,-0.124,-0.124,-0.124,-0.142,-0.142,-0.142,-0.142,-0.142,-0.124,-0.124,-0.142,-0.16,-0.16,-0.16,-0.17800000000000002,-0.17800000000000002,-0.16,-0.17800000000000002,-0.16,-0.16,-0.17800000000000002,-0.17800000000000002,-0.17800000000000002,-0.195,-0.17800000000000002,-0.17800000000000002,-0.17800000000000002,-0.16,-0.17800000000000002,-0.195,-0.17800000000000002,-0.16,-0.124,-0.124,-0.106,-0.106,-0.106,-0.124,-0.124,-0.124,-0.07,-0.016,0.037000000000000005,0.07200000000000001,0.126,0.14400000000000002,0.18,0.252,0.287,0.305,0.305,0.26899999999999996,0.23399999999999999,0.18,0.14400000000000002,0.10800000000000001,0.055,-0.034,-0.195,-0.392,-0.588,-0.713,-0.784,-0.802,-0.7659999999999999,-0.6779999999999999,-0.606,-0.534,-0.445,-0.392,-0.35600000000000004,-0.32,-0.284,-0.266,-0.231,-0.195,-0.17800000000000002,-0.17800000000000002,-0.17800000000000002,-0.195,-0.17800000000000002,-0.17800000000000002,-0.16,-0.16,-0.16,-0.16,-0.16,-0.16,-0.142,-0.16,-0.142,-0.124,-0.124,-0.124,-0.142,-0.124,-0.124,-0.124,-0.124,-0.124,-0.124,-0.106,-0.106,-0.106,-0.106,-0.124,-0.106,-0.08800000000000001,-0.08800000000000001,-0.07,-0.07,-0.07,-0.07,-0.07,-0.052000000000000005,-0.052000000000000005,-0.034,-0.016,0.002,0.002,0.002,0.002,0.002,0.002,0.037000000000000005,0.055,0.055,0.07200000000000001,0.09,0.09,0.10800000000000001,0.126,0.14400000000000002,0.18,0.198,0.23399999999999999,0.23399999999999999,0.23399999999999999,0.252,0.26899999999999996,0.26899999999999996,0.287,0.305,0.305,0.287,0.287,0.26899999999999996,0.26899999999999996,0.26899999999999996,0.26899999999999996,0.26899999999999996,0.252,0.23399999999999999,0.198,0.18,0.162,0.14400000000000002,0.126,0.126,0.10800000000000001,0.10800000000000001,0.07200000000000001,0.055,0.019,0.002,0.002,0.002,0.002,0.002,-0.016,-0.016,-0.034,-0.052000000000000005,-0.052000000000000005,-0.052000000000000005,-0.052000000000000005,-0.052000000000000005,-0.052000000000000005,-0.07,-0.07,-0.07,-0.07,-0.052000000000000005,-0.052000000000000005,-0.034,-0.034,-0.034,-0.034,-0.034,-0.034,-0.034,-0.016,-0.016,0.002,0.002,-0.016,-0.016,-0.016,0.002,0.002,0.002,0.002,0.002,0.002,-0.016,-0.016,-0.016,-0.016,-0.016,-0.034,-0.034,-0.052000000000000005,-0.07,-0.07,-0.08800000000000001,-0.08800000000000001,-0.07,-0.07,-0.07,-0.07,-0.08800000000000001,-0.08800000000000001,-0.106,-0.106,-0.08800000000000001,-0.08800000000000001,-0.08800000000000001,-0.08800000000000001,-0.106,-0.124,-0.124,-0.124,-0.124,-0.124,-0.124,-0.124,-0.124,-0.124,-0.142,-0.142,-0.142,-0.124,-0.124,-0.124,-0.142,-0.142,-0.16,-0.16,-0.142,-0.142,-0.124,-0.124,-0.124,-0.106,-0.106,-0.08800000000000001,-0.08800000000000001,-0.07,-0.07,-0.052000000000000005,-0.034,-0.016,0.002,0.055,0.10800000000000001,0.14400000000000002,0.21600000000000003,0.252,0.287,0.322,0.34,0.34,0.322,0.287,0.252,0.198,0.162,0.126,0.055,-0.08800000000000001,-0.266,-0.499,-0.66,-0.731,-0.731,-0.695,-0.66,-0.588,-0.516,-0.46299999999999997,-0.392,-0.33799999999999997,-0.266,-0.231,-0.213,-0.17800000000000002,-0.17800000000000002,-0.16,-0.142,-0.124,-0.124,-0.124,-0.124,-0.124,-0.124,-0.124,-0.106,-0.106,-0.08800000000000001,-0.07,-0.07,-0.08800000000000001,-0.08800000000000001,-0.08800000000000001,-0.08800000000000001,-0.07,-0.052000000000000005,-0.052000000000000005,-0.052000000000000005,-0.052000000000000005,-0.052000000000000005,-0.052000000000000005,-0.052000000000000005,-0.034,-0.034,-0.016,-0.016,-0.016,-0.016,-0.016,-0.016,-0.016,0.002,0.002,0.002,0.002,0.002,0.002,0.002,0.019,0.019,0.037000000000000005,0.055,0.07200000000000001,0.07200000000000001,0.09,0.09,0.10800000000000001,0.126,0.14400000000000002,0.162,0.198,0.198,0.21600000000000003,0.23399999999999999,0.252,0.26899999999999996,0.287,0.305,0.322,0.34,0.34,0.34,0.322,0.322,0.322,0.34,0.34,0.322,0.322,0.287,0.26899999999999996,0.26899999999999996,0.252,0.252,0.252,0.23399999999999999,0.21600000000000003,0.18,0.162,0.14400000000000002,0.14400000000000002,0.126,0.126,0.126,0.10800000000000001,0.07200000000000001,0.055,0.037000000000000005,0.037000000000000005,0.037000000000000005,0.037000000000000005,0.037000000000000005,0.019,0.019,0.002,0.002,0.002,0.002,0.002,0.002,0.002,0.002,0.002,0.002,0.002,0.002,0.019,0.037000000000000005,N
6,-0.302,-0.266,-0.231,-0.195,-0.17800000000000002,-0.142,-0.124,-0.124,-0.124,-0.142,-0.142,-0.124,-0.124,-0.124,-0.106,-0.124,-0.124,-0.124,-0.124,-0.124,-0.106,-0.106,-0.08800000000000001,-0.08800000000000001,-0.08800000000000001,-0.106,-0.106,-0.08800000000000001,-0.07,-0.07,-0.052000000000000005,-0.052000000000000005,-0.052000000000000005,-0.052000000000000005,-0.052000000000000005,-0.052000000000000005,-0.034,-0.016,-0.016,-0.016,0.002,-0.016,0.002,0.002,0.002,0.002,0.019,0.019,0.037000000000000005,0.037000000000000005,0.037000000000000005,0.037000000000000005,0.055,0.09,0.10800000000000001,0.126,0.126,0.126,0.14400000000000002,0.162,0.162,0.198,0.23399999999999999,0.252,0.26899999999999996,0.26899999999999996,0.26899999999999996,0.287,0.305,0.322,0.322,0.34,0.34,0.34,0.322,0.287,0.287,0.26899999999999996,0.287,0.26899999999999996,0.26899999999999996,0.252,0.23399999999999999,0.21600000000000003,0.18,0.162,0.162,0.14400000000000002,0.14400000000000002,0.126,0.10800000000000001,0.09,0.07200000000000001,0.055,0.055,0.037000000000000005,0.037000000000000005,0.037000000000000005,0.019,0.002,0.002,-0.016,-0.016,-0.016,-0.016,0.002,-0.016,-0.034,-0.034,-0.034,-0.034,-0.034,-0.016,-0.016,0.002,-0.016,-0.016,-0.016,-0.034,-0.034,-0.016,-0.016,-0.016,-0.016,-0.034,-0.034,-0.034,-0.034,-0.016,-0.016,-0.016,-0.016,-0.016,-0.034,-0.052000000000000005,-0.052000000000000005,-0.07,-0.052000000000000005,-0.052000000000000005,-0.052000000000000005,-0.07,-0.08800000000000001,-0.106,-0.124,-0.124,-0.106,-0.124,-0.124,-0.124,-0.124,-0.124,-0.124,-0.124,-0.124,-0.124,-0.124,-0.124,-0.124,-0.124,-0.142,-0.142,-0.142,-0.124,-0.124,-0.142,-0.142,-0.16,-0.16,-0.16,-0.16,-0.16,-0.16,-0.16,-0.16,-0.16,-0.17800000000000002,-0.17800000000000002,-0.17800000000000002,-0.16,-0.142,-0.142,-0.124,-0.124,-0.124,-0.124,-0.124,-0.142,-0.16,-0.16,-0.16,-0.142,-0.124,-0.08800000000000001,-0.034,0.002,0.037000000000000005,0.10800000000000001,0.162,0.198,0.21600000000000003,0.23399999999999999,0.21600000000000003,0.198,0.18,0.14400000000000002,0.126,0.10800000000000001,0.019,-0.142,-0.374,-0.606,-0.731,-0.784,-0.7659999999999999,-0.731,-0.66,-0.606,-0.552,-0.499,-0.428,-0.35600000000000004,-0.302,-0.266,-0.249,-0.231,-0.195,-0.195,-0.195,-0.17800000000000002,-0.17800000000000002,-0.16,-0.16,-0.16,-0.16,-0.16,-0.16,-0.142,-0.142,-0.142,-0.142,-0.124,-0.124,-0.124,-0.124,-0.124,-0.124,-0.124,-0.106,-0.106,-0.124,-0.124,-0.106,-0.106,-0.08800000000000001,-0.08800000000000001,-0.08800000000000001,-0.07,-0.08800000000000001,-0.08800000000000001,-0.08800000000000001,-0.07,-0.052000000000000005,-0.034,-0.034,-0.034,-0.034,-0.034,-0.034,-0.016,0.002,0.002,0.019,0.019,0.037000000000000005,0.055,0.055,0.07200000000000001,0.09,0.126,0.126,0.14400000000000002,0.162,0.18,0.198,0.198,0.21600000000000003,0.252,0.26899999999999996,0.287,0.305,0.305,0.322,0.322,0.322,0.322,0.322,0.34,0.322,0.305,0.287,0.26899999999999996,0.252,0.252,0.21600000000000003,0.21600000000000003,0.198,0.18,0.162,0.126,0.10800000000000001,0.09,0.07200000000000001,0.07200000000000001,0.055,0.055,0.037000000000000005,0.002,0.002,0.002,0.002,0.002,0.002,0.002,-0.016,-0.016,-0.016,-0.052000000000000005,-0.052000000000000005,-0.052000000000000005,-0.052000000000000005,-0.052000000000000005,-0.052000000000000005,-0.052000000000000005,-0.07,-0.07,-0.052000000000000005,-0.052000000000000005,-0.034,-0.016,-0.016,-0.016,-0.034,-0.052000000000000005,-0.052000000000000005,-0.052000000000000005,-0.052000000000000005,-0.034,-0.034,-0.034,-0.052000000000000005,-0.052000000000000005,-0.052000000000000005,-0.052000000000000005,-0.034,-0.034,-0.016,-0.034,-0.07,-0.07,-0.08800000000000001,-0.08800000000000001,-0.08800000000000001,-0.08800000000000001,-0.08800000000000001,-0.106,-0.106,-0.106,-0.124,-0.124,-0.124,-0.124,-0.124,-0.124,-0.124,-0.142,-0.142,-0.142,-0.142,-0.142,-0.124,-0.124,-0.142,-0.16,-0.16,-0.16,-0.17800000000000002,-0.17800000000000002,-0.16,-0.17800000000000002,-0.16,-0.16,-0.17800000000000002,-0.17800000000000002,-0.17800000000000002,-0.195,-0.17800000000000002,-0.17800000000000002,-0.17800000000000002,-0.16,-0.17800000000000002,-0.195,-0.17800000000000002,-0.16,-0.124,-0.124,-0.106,-0.106,-0.106,-0.124,-0.124,-0.124,-0.07,-0.016,0.037000000000000005,0.07200000000000001,0.126,0.14400000000000002,0.18,0.252,0.287,0.305,0.305,0.26899999999999996,0.23399999999999999,0.18,0.14400000000000002,0.10800000000000001,0.055,-0.034,-0.195,-0.392,-0.588,-0.713,-0.784,-0.802,-0.7659999999999999,-0.6779999999999999,-0.606,-0.534,-0.445,-0.392,-0.35600000000000004,-0.32,-0.284,-0.266,-0.231,-0.195,-0.17800000000000002,-0.17800000000000002,-0.17800000000000002,-0.195,-0.17800000000000002,-0.17800000000000002,-0.16,-0.16,-0.16,-0.16,-0.16,-0.16,-0.142,-0.16,-0.142,-0.124,-0.124,-0.124,-0.142,-0.124,-0.124,-0.124,-0.124,-0.124,-0.124,-0.106,-0.106,-0.106,-0.106,-0.124,-0.106,-0.08800000000000001,-0.08800000000000001,-0.07,-0.07,-0.07,-0.07,-0.07,-0.052000000000000005,-0.052000000000000005,-0.034,-0.016,0.002,0.002,0.002,0.002,0.002,0.002,0.037000000000000005,0.055,0.055,0.07200000000000001,0.09,0.09,0.10800000000000001,0.126,0.14400000000000002,0.18,0.198,0.23399999999999999,0.23399999999999999,0.23399999999999999,0.252,0.26899999999999996,0.26899999999999996,0.287,0.305,0.305,0.287,0.287,0.26899999999999996,0.26899999999999996,0.26899999999999996,0.26899999999999996,0.26899999999999996,0.252,0.23399999999999999,0.198,0.18,0.162,0.14400000000000002,0.126,0.126,0.10800000000000001,0.10800000000000001,0.07200000000000001,0.055,0.019,0.002,0.002,0.002,0.002,0.002,-0.016,-0.016,-0.034,-0.052000000000000005,-0.052000000000000005,-0.052000000000000005,-0.052000000000000005,-0.052000000000000005,-0.052000000000000005,-0.07,-0.07,-0.07,-0.07,-0.052000000000000005,-0.052000000000000005,-0.034,-0.034,-0.034,-0.034,-0.034,-0.034,-0.034,-0.016,-0.016,0.002,0.002,-0.016,-0.016,-0.016,0.002,0.002,0.002,0.002,0.002,0.002,-0.016,-0.016,-0.016,-0.016,-0.016,-0.034,-0.034,-0.052000000000000005,-0.07,-0.07,-0.08800000000000001,-0.08800000000000001,-0.07,-0.07,-0.07,-0.07,-0.08800000000000001,-0.08800000000000001,-0.106,-0.106,-0.08800000000000001,-0.08800000000000001,-0.08800000000000001,-0.08800000000000001,-0.106,-0.124,-0.124,-0.124,-0.124,-0.124,-0.124,-0.124,-0.124,-0.124,-0.142,-0.142,-0.142,-0.124,-0.124,-0.124,-0.142,-0.142,-0.16,-0.16,-0.142,-0.142,-0.124,-0.124,-0.124,-0.106,-0.106,-0.08800000000000001,-0.08800000000000001,-0.07,-0.07,-0.052000000000000005,-0.034,-0.016,0.002,0.055,0.10800000000000001,0.14400000000000002,0.21600000000000003,0.252,0.287,0.322,0.34,0.34,0.322,0.287,0.252,0.198,0.162,0.126,0.055,-0.08800000000000001,-0.266,-0.499,-0.66,-0.731,-0.731,-0.695,-0.66,-0.588,-0.516,-0.46299999999999997,-0.392,-0.33799999999999997,-0.266,-0.231,-0.213,-0.17800000000000002,-0.17800000000000002,-0.16,-0.142,-0.124,-0.124,-0.124,-0.124,-0.124,-0.124,-0.124,-0.106,-0.106,-0.08800000000000001,-0.07,-0.07,-0.08800000000000001,-0.08800000000000001,-0.08800000000000001,-0.08800000000000001,-0.07,-0.052000000000000005,-0.052000000000000005,-0.052000000000000005,-0.052000000000000005,-0.052000000000000005,-0.052000000000000005,-0.052000000000000005,-0.034,-0.034,-0.016,-0.016,-0.016,-0.016,-0.016,-0.016,-0.016,0.002,0.002,0.002,0.002,0.002,0.002,0.002,0.019,0.019,0.037000000000000005,0.055,0.07200000000000001,0.07200000000000001,0.09,0.09,0.10800000000000001,0.126,0.14400000000000002,0.162,0.198,0.198,0.21600000000000003,0.23399999999999999,0.252,0.26899999999999996,0.287,0.305,0.322,0.34,0.34,0.34,0.322,0.322,0.322,0.34,0.34,0.322,0.322,0.287,0.26899999999999996,0.26899999999999996,0.252,0.252,0.252,0.23399999999999999,0.21600000000000003,0.18,0.162,0.14400000000000002,0.14400000000000002,0.126,0.126,0.126,0.10800000000000001,0.07200000000000001,0.055,0.037000000000000005,0.037000000000000005,0.037000000000000005,0.037000000000000005,0.037000000000000005,0.019,0.019,0.002,0.002,0.002,0.002,0.002,0.002,0.002,0.002,0.002,0.002,0.002,0.002,0.019,0.037000000000000005,0.037000000000000005,0.037000000000000005,0.037000000000000005,0.037000000000000005,0.019,0.037000000000000005,0.037000000000000005,0.055,0.07200000000000001,0.07200000000000001,0.055,0.055,0.055,0.037000000000000005,0.037000000000000005,0.055,0.055,0.037000000000000005,0.037000000000000005,0.019,0.002,0.002,0.002,0.002,0.002,0.002,0.002,0.002,0.002,-0.016,-0.016,0.002,0.002,0.002,0.002,-0.016,-0.034,-0.034,-0.052000000000000005,-0.034,-0.034,-0.034,-0.034,-0.052000000000000005,-0.052000000000000005,-0.07,-0.08800000000000001,-0.08800000000000001,-0.08800000000000001,-0.07,-0.07,-0.07,-0.08800000000000001,-0.106,-0.106,-0.106,-0.106,-0.08800000000000001,-0.08800000000000001,-0.08800000000000001,-0.106,-0.106,-0.106,-0.08800000000000001,-0.07,-0.052000000000000005,-0.052000000000000005,-0.052000000000000005,-0.052000000000000005,-0.07,-0.07,-0.052000000000000005,-0.016,0.002,0.07200000000000001,0.126,0.162,0.21600000000000003,0.252,0.287,0.34,0.39399999999999996,0.43,0.44799999999999995,0.43,0.39399999999999996,0.34,0.287,0.252,0.162,0.019,-0.16,-0.392,-0.588,-0.695,-0.713,-0.6779999999999999,-0.624,-0.534,-0.46299999999999997,-0.41,-0.35600000000000004,-0.32,-0.266,-0.249,-0.195,-0.16,-0.142,-0.124,-0.124,-0.124,-0.124,-0.124,-0.106,-0.106,-0.08800000000000001,-0.07,-0.07,-0.07,-0.07,-0.08800000000000001,-0.07,-0.07,-0.052000000000000005,-0.052000000000000005,-0.052000000000000005,-0.052000000000000005,-0.052000000000000005,-0.052000000000000005,-0.052000000000000005,-0.034,-0.034,-0.016,-0.016,0.002,-0.016,-0.016,-0.016,-0.016,0.002,0.002,0.002,0.002,0.002,0.002,0.002,0.002,0.002,0.019,0.037000000000000005,0.055,0.055,0.055,0.055,0.07200000000000001,0.09,0.10800000000000001,0.126,0.126,0.14400000000000002,0.162,0.162,0.18,0.198,0.21600000000000003,0.252,0.26899999999999996,0.287,0.305,0.322,0.322,0.322,0.34,0.34,0.358,0.358,0.358,0.34,0.34,0.322,0.305,0.305,0.305,0.287,0.26899999999999996,0.26899999999999996,0.23399999999999999,0.21600000000000003,0.198,0.18,0.18,0.162,0.14400000000000002,0.126,0.126,0.09,0.07200000000000001,0.07200000000000001,0.07200000000000001,0.055,0.055,0.037000000000000005,0.019,0.002,0.002,0.002,0.002,0.002,0.002,0.002,0.002,0.002,0.002,0.002,0.002,0.019,0.019,0.037000000000000005,0.037000000000000005,0.019,N
7,-0.302,-0.266,-0.249,-0.231,-0.195,-0.195,-0.195,-0.17800000000000002,-0.17800000000000002,-0.16,-0.16,-0.16,-0.16,-0.16,-0.16,-0.142,-0.142,-0.142,-0.142,-0.124,-0.124,-0.124,-0.124,-0.124,-0.124,-0.124,-0.106,-0.106,-0.124,-0.124,-0.106,-0.106,-0.08800000000000001,-0.08800000000000001,-0.08800000000000001,-0.07,-0.08800000000000001,-0.08800000000000001,-0.08800000000000001,-0.07,-0.052000000000000005,-0.034,-0.034,-0.034,-0.034,-0.034,-0.034,-0.016,0.002,0.002,0.019,0.019,0.037000000000000005,0.055,0.055,0.07200000000000001,0.09,0.126,0.126,0.14400000000000002,0.162,0.18,0.198,0.198,0.21600000000000003,0.252,0.26899999999999996,0.287,0.305,0.305,0.322,0.322,0.322,0.322,0.322,0.34,0.322,0.305,0.287,0.26899999999999996,0.252,0.252,0.21600000000000003,0.21600000000000003,0.198,0.18,0.162,0.126,0.10800000000000001,0.09,0.07200000000000001,0.07200000000000001,0.055,0.055,0.037000000000000005,0.002,0.002,0.002,0.002,0.002,0.002,0.002,-0.016,-0.016,-0.016,-0.052000000000000005,-0.052000000000000005,-0.052000000000000005,-0.052000000000000005,-0.052000000000000005,-0.052000000000000005,-0.052000000000000005,-0.07,-0.07,-0.052000000000000005,-0.052000000000000005,-0.034,-0.016,-0.016,-0.016,-0.034,-0.052000000000000005,-0.052000000000000005,-0.052000000000000005,-0.052000000000000005,-0.034,-0.034,-0.034,-0.052000000000000005,-0.052000000000000005,-0.052000000000000005,-0.052000000000000005,-0.034,-0.034,-0.016,-0.034,-0.07,-0.07,-0.08800000000000001,-0.08800000000000001,-0.08800000000000001,-0.08800000000000001,-0.08800000000000001,-0.106,-0.106,-0.106,-0.124,-0.124,-0.124,-0.124,-0.124,-0.124,-0.124,-0.142,-0.142,-0.142,-0.142,-0.142,-0.124,-0.124,-0.142,-0.16,-0.16,-0.16,-0.17800000000000002,-0.17800000000000002,-0.16,-0.17800000000000002,-0.16,-0.16,-0.17800000000000002,-0.17800000000000002,-0.17800000000000002,-0.195,-0.17800000000000002,-0.17800000000000002,-0.17800000000000002,-0.16,-0.17800000000000002,-0.195,-0.17800000000000002,-0.16,-0.124,-0.124,-0.106,-0.106,-0.106,-0.124,-0.124,-0.124,-0.07,-0.016,0.037000000000000005,0.07200000000000001,0.126,0.14400000000000002,0.18,0.252,0.287,0.305,0.305,0.26899999999999996,0.23399999999999999,0.18,0.14400000000000002,0.10800000000000001,0.055,-0.034,-0.195,-0.392,-0.588,-0.713,-0.784,-0.802,-0.7659999999999999,-0.6779999999999999,-0.606,-0.534,-0.445,-0.392,-0.35600000000000004,-0.32,-0.284,-0.266,-0.231,-0.195,-0.17800000000000002,-0.17800000000000002,-0.17800000000000002,-0.195,-0.17800000000000002,-0.17800000000000002,-0.16,-0.16,-0.16,-0.16,-0.16,-0.16,-0.142,-0.16,-0.142,-0.124,-0.124,-0.124,-0.142,-0.124,-0.124,-0.124,-0.124,-0.124,-0.124,-0.106,-0.106,-0.106,-0.106,-0.124,-0.106,-0.08800000000000001,-0.08800000000000001,-0.07,-0.07,-0.07,-0.07,-0.07,-0.052000000000000005,-0.052000000000000005,-0.034,-0.016,0.002,0.002,0.002,0.002,0.002,0.002,0.037000000000000005,0.055,0.055,0.07200000000000001,0.09,0.09,0.10800000000000001,0.126,0.14400000000000002,0.18,0.198,0.23399999999999999,0.23399999999999999,0.23399999999999999,0.252,0.26899999999999996,0.26899999999999996,0.287,0.305,0.305,0.287,0.287,0.26899999999999996,0.26899999999999996,0.26899999999999996,0.26899999999999996,0.26899999999999996,0.252,0.23399999999999999,0.198,0.18,0.162,0.14400000000000002,0.126,0.126,0.10800000000000001,0.10800000000000001,0.07200000000000001,0.055,0.019,0.002,0.002,0.002,0.002,0.002,-0.016,-0.016,-0.034,-0.052000000000000005,-0.052000000000000005,-0.052000000000000005,-0.052000000000000005,-0.052000000000000005,-0.052000000000000005,-0.07,-0.07,-0.07,-0.07,-0.052000000000000005,-0.052000000000000005,-0.034,-0.034,-0.034,-0.034,-0.034,-0.034,-0.034,-0.016,-0.016,0.002,0.002,-0.016,-0.016,-0.016,0.002,0.002,0.002,0.002,0.002,0.002,-0.016,-0.016,-0.016,-0.016,-0.016,-0.034,-0.034,-0.052000000000000005,-0.07,-0.07,-0.08800000000000001,-0.08800000000000001,-0.07,-0.07,-0.07,-0.07,-0.08800000000000001,-0.08800000000000001,-0.106,-0.106,-0.08800000000000001,-0.08800000000000001,-0.08800000000000001,-0.08800000000000001,-0.106,-0.124,-0.124,-0.124,-0.124,-0.124,-0.124,-0.124,-0.124,-0.124,-0.142,-0.142,-0.142,-0.124,-0.124,-0.124,-0.142,-0.142,-0.16,-0.16,-0.142,-0.142,-0.124,-0.124,-0.124,-0.106,-0.106,-0.08800000000000001,-0.08800000000000001,-0.07,-0.07,-0.052000000000000005,-0.034,-0.016,0.002,0.055,0.10800000000000001,0.14400000000000002,0.21600000000000003,0.252,0.287,0.322,0.34,0.34,0.322,0.287,0.252,0.198,0.162,0.126,0.055,-0.08800000000000001,-0.266,-0.499,-0.66,-0.731,-0.731,-0.695,-0.66,-0.588,-0.516,-0.46299999999999997,-0.392,-0.33799999999999997,-0.266,-0.231,-0.213,-0.17800000000000002,-0.17800000000000002,-0.16,-0.142,-0.124,-0.124,-0.124,-0.124,-0.124,-0.124,-0.124,-0.106,-0.106,-0.08800000000000001,-0.07,-0.07,-0.08800000000000001,-0.08800000000000001,-0.08800000000000001,-0.08800000000000001,-0.07,-0.052000000000000005,-0.052000000000000005,-0.052000000000000005,-0.052000000000000005,-0.052000000000000005,-0.052000000000000005,-0.052000000000000005,-0.034,-0.034,-0.016,-0.016,-0.016,-0.016,-0.016,-0.016,-0.016,0.002,0.002,0.002,0.002,0.002,0.002,0.002,0.019,0.019,0.037000000000000005,0.055,0.07200000000000001,0.07200000000000001,0.09,0.09,0.10800000000000001,0.126,0.14400000000000002,0.162,0.198,0.198,0.21600000000000003,0.23399999999999999,0.252,0.26899999999999996,0.287,0.305,0.322,0.34,0.34,0.34,0.322,0.322,0.322,0.34,0.34,0.322,0.322,0.287,0.26899999999999996,0.26899999999999996,0.252,0.252,0.252,0.23399999999999999,0.21600000000000003,0.18,0.162,0.14400000000000002,0.14400000000000002,0.126,0.126,0.126,0.10800000000000001,0.07200000000000001,0.055,0.037000000000000005,0.037000000000000005,0.037000000000000005,0.037000000000000005,0.037000000000000005,0.019,0.019,0.002,0.002,0.002,0.002,0.002,0.002,0.002,0.002,0.002,0.002,0.002,0.002,0.019,0.037000000000000005,0.037000000000000005,0.037000000000000005,0.037000000000000005,0.037000000000000005,0.019,0.037000000000000005,0.037000000000000005,0.055,0.07200000000000001,0.07200000000000001,0.055,0.055,0.055,0.037000000000000005,0.037000000000000005,0.055,0.055,0.037000000000000005,0.037000000000000005,0.019,0.002,0.002,0.002,0.002,0.002,0.002,0.002,0.002,0.002,-0.016,-0.016,0.002,0.002,0.002,0.002,-0.016,-0.034,-0.034,-0.052000000000000005,-0.034,-0.034,-0.034,-0.034,-0.052000000000000005,-0.052000000000000005,-0.07,-0.08800000000000001,-0.08800000000000001,-0.08800000000000001,-0.07,-0.07,-0.07,-0.08800000000000001,-0.106,-0.106,-0.106,-0.106,-0.08800000000000001,-0.08800000000000001,-0.08800000000000001,-0.106,-0.106,-0.106,-0.08800000000000001,-0.07,-0.052000000000000005,-0.052000000000000005,-0.052000000000000005,-0.052000000000000005,-0.07,-0.07,-0.052000000000000005,-0.016,0.002,0.07200000000000001,0.126,0.162,0.21600000000000003,0.252,0.287,0.34,0.39399999999999996,0.43,0.44799999999999995,0.43,0.39399999999999996,0.34,0.287,0.252,0.162,0.019,-0.16,-0.392,-0.588,-0.695,-0.713,-0.6779999999999999,-0.624,-0.534,-0.46299999999999997,-0.41,-0.35600000000000004,-0.32,-0.266,-0.249,-0.195,-0.16,-0.142,-0.124,-0.124,-0.124,-0.124,-0.124,-0.106,-0.106,-0.08800000000000001,-0.07,-0.07,-0.07,-0.07,-0.08800000000000001,-0.07,-0.07,-0.052000000000000005,-0.052000000000000005,-0.052000000000000005,-0.052000000000000005,-0.052000000000000005,-0.052000000000000005,-0.052000000000000005,-0.034,-0.034,-0.016,-0.016,0.002,-0.016,-0.016,-0.016,-0.016,0.002,0.002,0.002,0.002,0.002,0.002,0.002,0.002,0.002,0.019,0.037000000000000005,0.055,0.055,0.055,0.055,0.07200000000000001,0.09,0.10800000000000001,0.126,0.126,0.14400000000000002,0.162,0.162,0.18,0.198,0.21600000000000003,0.252,0.26899999999999996,0.287,0.305,0.322,0.322,0.322,0.34,0.34,0.358,0.358,0.358,0.34,0.34,0.322,0.305,0.305,0.305,0.287,0.26899999999999996,0.26899999999999996,0.23399999999999999,0.21600000000000003,0.198,0.18,0.18,0.162,0.14400000000000002,0.126,0.126,0.09,0.07200000000000001,0.07200000000000001,0.07200000000000001,0.055,0.055,0.037000000000000005,0.019,0.002,0.002,0.002,0.002,0.002,0.002,0.002,0.002,0.002,0.002,0.002,0.002,0.019,0.019,0.037000000000000005,0.037000000000000005,0.019,0.019,0.019,0.019,0.037000000000000005,0.055,0.055,0.055,0.055,0.055,0.037000000000000005,0.055,0.055,0.07200000000000001,0.07200000000000001,0.055,0.055,0.037000000000000005,0.019,0.002,0.019,0.019,0.019,0.002,0.002,0.002,-0.016,-0.016,-0.016,0.002,0.002,0.002,0.002,0.002,-0.016,-0.034,-0.016,-0.034,-0.016,-0.016,-0.016,-0.034,-0.052000000000000005,-0.07,-0.07,-0.08800000000000001,-0.07,-0.07,-0.07,-0.08800000000000001,-0.08800000000000001,-0.106,-0.106,-0.106,-0.106,-0.08800000000000001,-0.08800000000000001,-0.08800000000000001,-0.106,-0.124,-0.124,-0.124,-0.106,-0.08800000000000001,-0.07,-0.052000000000000005,-0.052000000000000005,-0.052000000000000005,-0.07,-0.07,-0.07,-0.052000000000000005,-0.016,0.002,0.019,0.055,0.09,0.126,0.18,0.21600000000000003,0.26899999999999996,0.322,0.358,0.358,0.358,0.322,0.26899999999999996,0.252,0.21600000000000003,0.162,0.055,-0.124,-0.374,-0.588,-0.713,-0.731,-0.713,-0.66,-0.588,-0.534,-0.46299999999999997,-0.41,-0.374,-0.32,-0.266,-0.213,-0.17800000000000002,-0.16,-0.142,-0.124,-0.124,-0.124,-0.124,-0.08800000000000001,-0.08800000000000001,-0.08800000000000001,-0.08800000000000001,-0.106,-0.106,-0.08800000000000001,-0.08800000000000001,-0.07,-0.052000000000000005,-0.052000000000000005,-0.052000000000000005,-0.052000000000000005,-0.052000000000000005,-0.052000000000000005,-0.052000000000000005,-0.034,-0.034,-0.034,-0.034,-0.034,-0.034,-0.034,-0.034,-0.016,-0.016,0.002,0.002,0.002,-0.016,0.002,0.002,0.002,0.002,0.019,0.019,0.019,0.037000000000000005,0.037000000000000005,0.037000000000000005,0.055,0.07200000000000001,0.09,0.10800000000000001,0.126,0.126,0.126,0.14400000000000002,0.162,0.18,0.21600000000000003,0.23399999999999999,0.252,0.26899999999999996,0.26899999999999996,0.287,0.305,0.322,0.34,0.358,0.358,0.358,0.358,0.34,0.34,0.34,0.34,0.34,0.322,0.305,0.287,0.26899999999999996,0.252,0.23399999999999999,0.21600000000000003,0.21600000000000003,0.198,0.18,0.162,0.14400000000000002,0.126,0.10800000000000001,0.09,0.09,0.07200000000000001,0.07200000000000001,0.055,0.037000000000000005,0.019,0.019,0.019,0.019,0.019,0.019,0.002,0.002,0.002,0.002,0.002,0.002,0.002,0.019,0.019,0.019,0.019,0.019,0.019,0.037000000000000005,0.037000000000000005,N
8,-0.392,-0.35600000000000004,-0.32,-0.284,-0.266,-0.231,-0.195,-0.17800000000000002,-0.17800000000000002,-0.17800000000000002,-0.195,-0.17800000000000002,-0.17800000000000002,-0.16,-0.16,-0.16,-0.16,-0.16,-0.16,-0.142,-0.16,-0.142,-0.124,-0.124,-0.124,-0.142,-0.124,-0.124,-0.124,-0.124,-0.124,-0.124,-0.106,-0.106,-0.106,-0.106,-0.124,-0.106,-0.08800000000000001,-0.08800000000000001,-0.07,-0.07,-0.07,-0.07,-0.07,-0.052000000000000005,-0.052000000000000005,-0.034,-0.016,0.002,0.002,0.002,0.002,0.002,0.002,0.037000000000000005,0.055,0.055,0.07200000000000001,0.09,0.09,0.10800000000000001,0.126,0.14400000000000002,0.18,0.198,0.23399999999999999,0.23399999999999999,0.23399999999999999,0.252,0.26899999999999996,0.26899999999999996,0.287,0.305,0.305,0.287,0.287,0.26899999999999996,0.26899999999999996,0.26899999999999996,0.26899999999999996,0.26899999999999996,0.252,0.23399999999999999,0.198,0.18,0.162,0.14400000000000002,0.126,0.126,0.10800000000000001,0.10800000000000001,0.07200000000000001,0.055,0.019,0.002,0.002,0.002,0.002,0.002,-0.016,-0.016,-0.034,-0.052000000000000005,-0.052000000000000005,-0.052000000000000005,-0.052000000000000005,-0.052000000000000005,-0.052000000000000005,-0.07,-0.07,-0.07,-0.07,-0.052000000000000005,-0.052000000000000005,-0.034,-0.034,-0.034,-0.034,-0.034,-0.034,-0.034,-0.016,-0.016,0.002,0.002,-0.016,-0.016,-0.016,0.002,0.002,0.002,0.002,0.002,0.002,-0.016,-0.016,-0.016,-0.016,-0.016,-0.034,-0.034,-0.052000000000000005,-0.07,-0.07,-0.08800000000000001,-0.08800000000000001,-0.07,-0.07,-0.07,-0.07,-0.08800000000000001,-0.08800000000000001,-0.106,-0.106,-0.08800000000000001,-0.08800000000000001,-0.08800000000000001,-0.08800000000000001,-0.106,-0.124,-0.124,-0.124,-0.124,-0.124,-0.124,-0.124,-0.124,-0.124,-0.142,-0.142,-0.142,-0.124,-0.124,-0.124,-0.142,-0.142,-0.16,-0.16,-0.142,-0.142,-0.124,-0.124,-0.124,-0.106,-0.106,-0.08800000000000001,-0.08800000000000001,-0.07,-0.07,-0.052000000000000005,-0.034,-0.016,0.002,0.055,0.10800000000000001,0.14400000000000002,0.21600000000000003,0.252,0.287,0.322,0.34,0.34,0.322,0.287,0.252,0.198,0.162,0.126,0.055,-0.08800000000000001,-0.266,-0.499,-0.66,-0.731,-0.731,-0.695,-0.66,-0.588,-0.516,-0.46299999999999997,-0.392,-0.33799999999999997,-0.266,-0.231,-0.213,-0.17800000000000002,-0.17800000000000002,-0.16,-0.142,-0.124,-0.124,-0.124,-0.124,-0.124,-0.124,-0.124,-0.106,-0.106,-0.08800000000000001,-0.07,-0.07,-0.08800000000000001,-0.08800000000000001,-0.08800000000000001,-0.08800000000000001,-0.07,-0.052000000000000005,-0.052000000000000005,-0.052000000000000005,-0.052000000000000005,-0.052000000000000005,-0.052000000000000005,-0.052000000000000005,-0.034,-0.034,-0.016,-0.016,-0.016,-0.016,-0.016,-0.016,-0.016,0.002,0.002,0.002,0.002,0.002,0.002,0.002,0.019,0.019,0.037000000000000005,0.055,0.07200000000000001,0.07200000000000001,0.09,0.09,0.10800000000000001,0.126,0.14400000000000002,0.162,0.198,0.198,0.21600000000000003,0.23399999999999999,0.252,0.26899999999999996,0.287,0.305,0.322,0.34,0.34,0.34,0.322,0.322,0.322,0.34,0.34,0.322,0.322,0.287,0.26899999999999996,0.26899999999999996,0.252,0.252,0.252,0.23399999999999999,0.21600000000000003,0.18,0.162,0.14400000000000002,0.14400000000000002,0.126,0.126,0.126,0.10800000000000001,0.07200000000000001,0.055,0.037000000000000005,0.037000000000000005,0.037000000000000005,0.037000000000000005,0.037000000000000005,0.019,0.019,0.002,0.002,0.002,0.002,0.002,0.002,0.002,0.002,0.002,0.002,0.002,0.002,0.019,0.037000000000000005,0.037000000000000005,0.037000000000000005,0.037000000000000005,0.037000000000000005,0.019,0.037000000000000005,0.037000000000000005,0.055,0.07200000000000001,0.07200000000000001,0.055,0.055,0.055,0.037000000000000005,0.037000000000000005,0.055,0.055,0.037000000000000005,0.037000000000000005,0.019,0.002,0.002,0.002,0.002,0.002,0.002,0.002,0.002,0.002,-0.016,-0.016,0.002,0.002,0.002,0.002,-0.016,-0.034,-0.034,-0.052000000000000005,-0.034,-0.034,-0.034,-0.034,-0.052000000000000005,-0.052000000000000005,-0.07,-0.08800000000000001,-0.08800000000000001,-0.08800000000000001,-0.07,-0.07,-0.07,-0.08800000000000001,-0.106,-0.106,-0.106,-0.106,-0.08800000000000001,-0.08800000000000001,-0.08800000000000001,-0.106,-0.106,-0.106,-0.08800000000000001,-0.07,-0.052000000000000005,-0.052000000000000005,-0.052000000000000005,-0.052000000000000005,-0.07,-0.07,-0.052000000000000005,-0.016,0.002,0.07200000000000001,0.126,0.162,0.21600000000000003,0.252,0.287,0.34,0.39399999999999996,0.43,0.44799999999999995,0.43,0.39399999999999996,0.34,0.287,0.252,0.162,0.019,-0.16,-0.392,-0.588,-0.695,-0.713,-0.6779999999999999,-0.624,-0.534,-0.46299999999999997,-0.41,-0.35600000000000004,-0.32,-0.266,-0.249,-0.195,-0.16,-0.142,-0.124,-0.124,-0.124,-0.124,-0.124,-0.106,-0.106,-0.08800000000000001,-0.07,-0.07,-0.07,-0.07,-0.08800000000000001,-0.07,-0.07,-0.052000000000000005,-0.052000000000000005,-0.052000000000000005,-0.052000000000000005,-0.052000000000000005,-0.052000000000000005,-0.052000000000000005,-0.034,-0.034,-0.016,-0.016,0.002,-0.016,-0.016,-0.016,-0.016,0.002,0.002,0.002,0.002,0.002,0.002,0.002,0.002,0.002,0.019,0.037000000000000005,0.055,0.055,0.055,0.055,0.07200000000000001,0.09,0.10800000000000001,0.126,0.126,0.14400000000000002,0.162,0.162,0.18,0.198,0.21600000000000003,0.252,0.26899999999999996,0.287,0.305,0.322,0.322,0.322,0.34,0.34,0.358,0.358,0.358,0.34,0.34,0.322,0.305,0.305,0.305,0.287,0.26899999999999996,0.26899999999999996,0.23399999999999999,0.21600000000000003,0.198,0.18,0.18,0.162,0.14400000000000002,0.126,0.126,0.09,0.07200000000000001,0.07200000000000001,0.07200000000000001,0.055,0.055,0.037000000000000005,0.019,0.002,0.002,0.002,0.002,0.002,0.002,0.002,0.002,0.002,0.002,0.002,0.002,0.019,0.019,0.037000000000000005,0.037000000000000005,0.019,0.019,0.019,0.019,0.037000000000000005,0.055,0.055,0.055,0.055,0.055,0.037000000000000005,0.055,0.055,0.07200000000000001,0.07200000000000001,0.055,0.055,0.037000000000000005,0.019,0.002,0.019,0.019,0.019,0.002,0.002,0.002,-0.016,-0.016,-0.016,0.002,0.002,0.002,0.002,0.002,-0.016,-0.034,-0.016,-0.034,-0.016,-0.016,-0.016,-0.034,-0.052000000000000005,-0.07,-0.07,-0.08800000000000001,-0.07,-0.07,-0.07,-0.08800000000000001,-0.08800000000000001,-0.106,-0.106,-0.106,-0.106,-0.08800000000000001,-0.08800000000000001,-0.08800000000000001,-0.106,-0.124,-0.124,-0.124,-0.106,-0.08800000000000001,-0.07,-0.052000000000000005,-0.052000000000000005,-0.052000000000000005,-0.07,-0.07,-0.07,-0.052000000000000005,-0.016,0.002,0.019,0.055,0.09,0.126,0.18,0.21600000000000003,0.26899999999999996,0.322,0.358,0.358,0.358,0.322,0.26899999999999996,0.252,0.21600000000000003,0.162,0.055,-0.124,-0.374,-0.588,-0.713,-0.731,-0.713,-0.66,-0.588,-0.534,-0.46299999999999997,-0.41,-0.374,-0.32,-0.266,-0.213,-0.17800000000000002,-0.16,-0.142,-0.124,-0.124,-0.124,-0.124,-0.08800000000000001,-0.08800000000000001,-0.08800000000000001,-0.08800000000000001,-0.106,-0.106,-0.08800000000000001,-0.08800000000000001,-0.07,-0.052000000000000005,-0.052000000000000005,-0.052000000000000005,-0.052000000000000005,-0.052000000000000005,-0.052000000000000005,-0.052000000000000005,-0.034,-0.034,-0.034,-0.034,-0.034,-0.034,-0.034,-0.034,-0.016,-0.016,0.002,0.002,0.002,-0.016,0.002,0.002,0.002,0.002,0.019,0.019,0.019,0.037000000000000005,0.037000000000000005,0.037000000000000005,0.055,0.07200000000000001,0.09,0.10800000000000001,0.126,0.126,0.126,0.14400000000000002,0.162,0.18,0.21600000000000003,0.23399999999999999,0.252,0.26899999999999996,0.26899999999999996,0.287,0.305,0.322,0.34,0.358,0.358,0.358,0.358,0.34,0.34,0.34,0.34,0.34,0.322,0.305,0.287,0.26899999999999996,0.252,0.23399999999999999,0.21600000000000003,0.21600000000000003,0.198,0.18,0.162,0.14400000000000002,0.126,0.10800000000000001,0.09,0.09,0.07200000000000001,0.07200000000000001,0.055,0.037000000000000005,0.019,0.019,0.019,0.019,0.019,0.019,0.002,0.002,0.002,0.002,0.002,0.002,0.002,0.019,0.019,0.019,0.019,0.019,0.019,0.037000000000000005,0.037000000000000005,0.055,0.037000000000000005,0.055,0.037000000000000005,0.037000000000000005,0.037000000000000005,0.037000000000000005,0.055,0.055,0.07200000000000001,0.055,0.055,0.037000000000000005,0.019,0.019,0.019,0.019,0.019,0.019,0.002,0.002,-0.016,-0.016,-0.016,-0.016,-0.016,-0.016,-0.016,-0.016,-0.034,-0.034,-0.034,-0.034,-0.034,-0.034,-0.034,-0.052000000000000005,-0.052000000000000005,-0.07,-0.07,-0.07,-0.052000000000000005,-0.052000000000000005,-0.07,-0.08800000000000001,-0.08800000000000001,-0.106,-0.106,-0.106,-0.106,-0.106,-0.08800000000000001,-0.106,-0.106,-0.124,-0.124,-0.124,-0.124,-0.106,-0.106,-0.08800000000000001,-0.08800000000000001,-0.08800000000000001,-0.07,-0.07,-0.052000000000000005,-0.052000000000000005,-0.052000000000000005,-0.052000000000000005,-0.034,-0.016,0.002,0.019,0.07200000000000001,0.10800000000000001,0.14400000000000002,0.18,0.198,0.23399999999999999,0.26899999999999996,0.287,0.287,0.26899999999999996,0.23399999999999999,0.198,0.14400000000000002,0.10800000000000001,0.002,-0.17800000000000002,-0.41,-0.624,-0.713,-0.731,-0.695,-0.66,-0.606,-0.534,-0.48100000000000004,-0.41,-0.35600000000000004,-0.302,-0.266,-0.231,-0.195,-0.17800000000000002,-0.16,-0.142,-0.124,-0.124,-0.106,-0.106,-0.106,-0.124,-0.124,-0.106,-0.08800000000000001,-0.08800000000000001,-0.08800000000000001,-0.07,-0.08800000000000001,-0.08800000000000001,-0.08800000000000001,-0.07,-0.07,-0.052000000000000005,-0.034,-0.034,-0.034,-0.052000000000000005,-0.052000000000000005,-0.034,-0.034,-0.034,-0.016,0.002,-0.016,-0.016,-0.016,-0.016,0.002,0.002,0.002,0.019,0.019,0.019,0.019,0.019,0.037000000000000005,0.037000000000000005,0.055,0.07200000000000001,0.09,0.09,0.09,0.09,0.10800000000000001,0.126,0.162,0.18,0.198,0.21600000000000003,0.23399999999999999,0.252,0.252,0.26899999999999996,0.305,0.322,0.34,0.34,0.34,0.34,0.34,0.34,0.34,0.34,0.34,0.34,0.322,0.305,0.26899999999999996,0.26899999999999996,0.252,0.252,0.23399999999999999,0.23399999999999999,0.21600000000000003,0.18,0.162,0.14400000000000002,0.126,0.126,0.126,0.10800000000000001,0.09,0.09,0.07200000000000001,0.055,0.037000000000000005,0.037000000000000005,0.037000000000000005,0.037000000000000005,0.019,0.019,0.002,0.002,0.002,0.002,0.002,0.019,0.019,0.019,0.019,0.002,0.002,0.019,0.019,0.037000000000000005,0.037000000000000005,0.055,N
9,-0.33799999999999997,-0.266,-0.231,-0.213,-0.17800000000000002,-0.17800000000000002,-0.16,-0.142,-0.124,-0.124,-0.124,-0.124,-0.124,-0.124,-0.124,-0.106,-0.106,-0.08800000000000001,-0.07,-0.07,-0.08800000000000001,-0.08800000000000001,-0.08800000000000001,-0.08800000000000001,-0.07,-0.052000000000000005,-0.052000000000000005,-0.052000000000000005,-0.052000000000000005,-0.052000000000000005,-0.052000000000000005,-0.052000000000000005,-0.034,-0.034,-0.016,-0.016,-0.016,-0.016,-0.016,-0.016,-0.016,0.002,0.002,0.002,0.002,0.002,0.002,0.002,0.019,0.019,0.037000000000000005,0.055,0.07200000000000001,0.07200000000000001,0.09,0.09,0.10800000000000001,0.126,0.14400000000000002,0.162,0.198,0.198,0.21600000000000003,0.23399999999999999,0.252,0.26899999999999996,0.287,0.305,0.322,0.34,0.34,0.34,0.322,0.322,0.322,0.34,0.34,0.322,0.322,0.287,0.26899999999999996,0.26899999999999996,0.252,0.252,0.252,0.23399999999999999,0.21600000000000003,0.18,0.162,0.14400000000000002,0.14400000000000002,0.126,0.126,0.126,0.10800000000000001,0.07200000000000001,0.055,0.037000000000000005,0.037000000000000005,0.037000000000000005,0.037000000000000005,0.037000000000000005,0.019,0.019,0.002,0.002,0.002,0.002,0.002,0.002,0.002,0.002,0.002,0.002,0.002,0.002,0.019,0.037000000000000005,0.037000000000000005,0.037000000000000005,0.037000000000000005,0.037000000000000005,0.019,0.037000000000000005,0.037000000000000005,0.055,0.07200000000000001,0.07200000000000001,0.055,0.055,0.055,0.037000000000000005,0.037000000000000005,0.055,0.055,0.037000000000000005,0.037000000000000005,0.019,0.002,0.002,0.002,0.002,0.002,0.002,0.002,0.002,0.002,-0.016,-0.016,0.002,0.002,0.002,0.002,-0.016,-0.034,-0.034,-0.052000000000000005,-0.034,-0.034,-0.034,-0.034,-0.052000000000000005,-0.052000000000000005,-0.07,-0.08800000000000001,-0.08800000000000001,-0.08800000000000001,-0.07,-0.07,-0.07,-0.08800000000000001,-0.106,-0.106,-0.106,-0.106,-0.08800000000000001,-0.08800000000000001,-0.08800000000000001,-0.106,-0.106,-0.106,-0.08800000000000001,-0.07,-0.052000000000000005,-0.052000000000000005,-0.052000000000000005,-0.052000000000000005,-0.07,-0.07,-0.052000000000000005,-0.016,0.002,0.07200000000000001,0.126,0.162,0.21600000000000003,0.252,0.287,0.34,0.39399999999999996,0.43,0.44799999999999995,0.43,0.39399999999999996,0.34,0.287,0.252,0.162,0.019,-0.16,-0.392,-0.588,-0.695,-0.713,-0.6779999999999999,-0.624,-0.534,-0.46299999999999997,-0.41,-0.35600000000000004,-0.32,-0.266,-0.249,-0.195,-0.16,-0.142,-0.124,-0.124,-0.124,-0.124,-0.124,-0.106,-0.106,-0.08800000000000001,-0.07,-0.07,-0.07,-0.07,-0.08800000000000001,-0.07,-0.07,-0.052000000000000005,-0.052000000000000005,-0.052000000000000005,-0.052000000000000005,-0.052000000000000005,-0.052000000000000005,-0.052000000000000005,-0.034,-0.034,-0.016,-0.016,0.002,-0.016,-0.016,-0.016,-0.016,0.002,0.002,0.002,0.002,0.002,0.002,0.002,0.002,0.002,0.019,0.037000000000000005,0.055,0.055,0.055,0.055,0.07200000000000001,0.09,0.10800000000000001,0.126,0.126,0.14400000000000002,0.162,0.162,0.18,0.198,0.21600000000000003,0.252,0.26899999999999996,0.287,0.305,0.322,0.322,0.322,0.34,0.34,0.358,0.358,0.358,0.34,0.34,0.322,0.305,0.305,0.305,0.287,0.26899999999999996,0.26899999999999996,0.23399999999999999,0.21600000000000003,0.198,0.18,0.18,0.162,0.14400000000000002,0.126,0.126,0.09,0.07200000000000001,0.07200000000000001,0.07200000000000001,0.055,0.055,0.037000000000000005,0.019,0.002,0.002,0.002,0.002,0.002,0.002,0.002,0.002,0.002,0.002,0.002,0.002,0.019,0.019,0.037000000000000005,0.037000000000000005,0.019,0.019,0.019,0.019,0.037000000000000005,0.055,0.055,0.055,0.055,0.055,0.037000000000000005,0.055,0.055,0.07200000000000001,0.07200000000000001,0.055,0.055,0.037000000000000005,0.019,0.002,0.019,0.019,0.019,0.002,0.002,0.002,-0.016,-0.016,-0.016,0.002,0.002,0.002,0.002,0.002,-0.016,-0.034,-0.016,-0.034,-0.016,-0.016,-0.016,-0.034,-0.052000000000000005,-0.07,-0.07,-0.08800000000000001,-0.07,-0.07,-0.07,-0.08800000000000001,-0.08800000000000001,-0.106,-0.106,-0.106,-0.106,-0.08800000000000001,-0.08800000000000001,-0.08800000000000001,-0.106,-0.124,-0.124,-0.124,-0.106,-0.08800000000000001,-0.07,-0.052000000000000005,-0.052000000000000005,-0.052000000000000005,-0.07,-0.07,-0.07,-0.052000000000000005,-0.016,0.002,0.019,0.055,0.09,0.126,0.18,0.21600000000000003,0.26899999999999996,0.322,0.358,0.358,0.358,0.322,0.26899999999999996,0.252,0.21600000000000003,0.162,0.055,-0.124,-0.374,-0.588,-0.713,-0.731,-0.713,-0.66,-0.588,-0.534,-0.46299999999999997,-0.41,-0.374,-0.32,-0.266,-0.213,-0.17800000000000002,-0.16,-0.142,-0.124,-0.124,-0.124,-0.124,-0.08800000000000001,-0.08800000000000001,-0.08800000000000001,-0.08800000000000001,-0.106,-0.106,-0.08800000000000001,-0.08800000000000001,-0.07,-0.052000000000000005,-0.052000000000000005,-0.052000000000000005,-0.052000000000000005,-0.052000000000000005,-0.052000000000000005,-0.052000000000000005,-0.034,-0.034,-0.034,-0.034,-0.034,-0.034,-0.034,-0.034,-0.016,-0.016,0.002,0.002,0.002,-0.016,0.002,0.002,0.002,0.002,0.019,0.019,0.019,0.037000000000000005,0.037000000000000005,0.037000000000000005,0.055,0.07200000000000001,0.09,0.10800000000000001,0.126,0.126,0.126,0.14400000000000002,0.162,0.18,0.21600000000000003,0.23399999999999999,0.252,0.26899999999999996,0.26899999999999996,0.287,0.305,0.322,0.34,0.358,0.358,0.358,0.358,0.34,0.34,0.34,0.34,0.34,0.322,0.305,0.287,0.26899999999999996,0.252,0.23399999999999999,0.21600000000000003,0.21600000000000003,0.198,0.18,0.162,0.14400000000000002,0.126,0.10800000000000001,0.09,0.09,0.07200000000000001,0.07200000000000001,0.055,0.037000000000000005,0.019,0.019,0.019,0.019,0.019,0.019,0.002,0.002,0.002,0.002,0.002,0.002,0.002,0.019,0.019,0.019,0.019,0.019,0.019,0.037000000000000005,0.037000000000000005,0.055,0.037000000000000005,0.055,0.037000000000000005,0.037000000000000005,0.037000000000000005,0.037000000000000005,0.055,0.055,0.07200000000000001,0.055,0.055,0.037000000000000005,0.019,0.019,0.019,0.019,0.019,0.019,0.002,0.002,-0.016,-0.016,-0.016,-0.016,-0.016,-0.016,-0.016,-0.016,-0.034,-0.034,-0.034,-0.034,-0.034,-0.034,-0.034,-0.052000000000000005,-0.052000000000000005,-0.07,-0.07,-0.07,-0.052000000000000005,-0.052000000000000005,-0.07,-0.08800000000000001,-0.08800000000000001,-0.106,-0.106,-0.106,-0.106,-0.106,-0.08800000000000001,-0.106,-0.106,-0.124,-0.124,-0.124,-0.124,-0.106,-0.106,-0.08800000000000001,-0.08800000000000001,-0.08800000000000001,-0.07,-0.07,-0.052000000000000005,-0.052000000000000005,-0.052000000000000005,-0.052000000000000005,-0.034,-0.016,0.002,0.019,0.07200000000000001,0.10800000000000001,0.14400000000000002,0.18,0.198,0.23399999999999999,0.26899999999999996,0.287,0.287,0.26899999999999996,0.23399999999999999,0.198,0.14400000000000002,0.10800000000000001,0.002,-0.17800000000000002,-0.41,-0.624,-0.713,-0.731,-0.695,-0.66,-0.606,-0.534,-0.48100000000000004,-0.41,-0.35600000000000004,-0.302,-0.266,-0.231,-0.195,-0.17800000000000002,-0.16,-0.142,-0.124,-0.124,-0.106,-0.106,-0.106,-0.124,-0.124,-0.106,-0.08800000000000001,-0.08800000000000001,-0.08800000000000001,-0.07,-0.08800000000000001,-0.08800000000000001,-0.08800000000000001,-0.07,-0.07,-0.052000000000000005,-0.034,-0.034,-0.034,-0.052000000000000005,-0.052000000000000005,-0.034,-0.034,-0.034,-0.016,0.002,-0.016,-0.016,-0.016,-0.016,0.002,0.002,0.002,0.019,0.019,0.019,0.019,0.019,0.037000000000000005,0.037000000000000005,0.055,0.07200000000000001,0.09,0.09,0.09,0.09,0.10800000000000001,0.126,0.162,0.18,0.198,0.21600000000000003,0.23399999999999999,0.252,0.252,0.26899999999999996,0.305,0.322,0.34,0.34,0.34,0.34,0.34,0.34,0.34,0.34,0.34,0.34,0.322,0.305,0.26899999999999996,0.26899999999999996,0.252,0.252,0.23399999999999999,0.23399999999999999,0.21600000000000003,0.18,0.162,0.14400000000000002,0.126,0.126,0.126,0.10800000000000001,0.09,0.09,0.07200000000000001,0.055,0.037000000000000005,0.037000000000000005,0.037000000000000005,0.037000000000000005,0.019,0.019,0.002,0.002,0.002,0.002,0.002,0.019,0.019,0.019,0.019,0.002,0.002,0.019,0.019,0.037000000000000005,0.037000000000000005,0.055,0.037000000000000005,0.037000000000000005,0.019,0.037000000000000005,0.037000000000000005,0.037000000000000005,0.055,0.055,0.055,0.037000000000000005,0.019,0.019,0.002,0.019,0.002,0.002,0.002,0.002,0.002,-0.016,-0.016,-0.016,-0.016,-0.016,-0.016,-0.034,-0.052000000000000005,-0.052000000000000005,-0.052000000000000005,-0.052000000000000005,-0.034,-0.034,-0.034,-0.034,-0.052000000000000005,-0.07,-0.07,-0.07,-0.07,-0.052000000000000005,-0.07,-0.07,-0.08800000000000001,-0.08800000000000001,-0.106,-0.106,-0.106,-0.08800000000000001,-0.08800000000000001,-0.106,-0.106,-0.124,-0.124,-0.124,-0.124,-0.124,-0.106,-0.124,-0.124,-0.124,-0.124,-0.106,-0.08800000000000001,-0.07,-0.07,-0.07,-0.08800000000000001,-0.08800000000000001,-0.106,-0.07,-0.052000000000000005,0.002,0.019,0.055,0.07200000000000001,0.10800000000000001,0.126,0.14400000000000002,0.21600000000000003,0.252,0.26899999999999996,0.26899999999999996,0.23399999999999999,0.198,0.162,0.126,0.09,-0.016,-0.231,-0.445,-0.624,-0.695,-0.713,-0.6779999999999999,-0.642,-0.57,-0.499,-0.428,-0.392,-0.32,-0.284,-0.249,-0.213,-0.17800000000000002,-0.142,-0.124,-0.124,-0.106,-0.106,-0.106,-0.124,-0.124,-0.106,-0.08800000000000001,-0.07,-0.07,-0.07,-0.07,-0.07,-0.07,-0.07,-0.07,-0.052000000000000005,-0.034,-0.034,-0.034,-0.052000000000000005,-0.034,-0.034,-0.016,0.002,0.002,0.002,0.002,0.002,0.002,0.002,0.002,0.002,0.019,0.019,0.037000000000000005,0.019,0.019,0.037000000000000005,0.037000000000000005,0.055,0.07200000000000001,0.09,0.09,0.10800000000000001,0.10800000000000001,0.126,0.126,0.14400000000000002,0.162,0.18,0.198,0.21600000000000003,0.23399999999999999,0.252,0.26899999999999996,0.26899999999999996,0.305,0.322,0.34,0.358,0.358,0.358,0.358,0.376,0.39399999999999996,0.39399999999999996,0.39399999999999996,0.376,0.376,0.34,0.34,0.322,0.305,0.305,0.287,0.26899999999999996,0.26899999999999996,0.252,0.21600000000000003,0.198,0.18,0.18,0.18,0.162,0.14400000000000002,0.126,0.10800000000000001,0.09,0.09,0.09,0.09,0.07200000000000001,0.055,0.055,0.019,0.019,0.019,0.019,0.037000000000000005,0.037000000000000005,0.037000000000000005,0.055,0.037000000000000005,0.037000000000000005,0.037000000000000005,0.037000000000000005,0.055,0.055,0.07200000000000001,0.055,0.055,0.055,0.055,0.055,0.055,N
10,-0.266,-0.249,-0.195,-0.16,-0.142,-0.124,-0.124,-0.124,-0.124,-0.124,-0.106,-0.106,-0.08800000000000001,-0.07,-0.07,-0.07,-0.07,-0.08800000000000001,-0.07,-0.07,-0.052000000000000005,-0.052000000000000005,-0.052000000000000005,-0.052000000000000005,-0.052000000000000005,-0.052000000000000005,-0.052000000000000005,-0.034,-0.034,-0.016,-0.016,0.002,-0.016,-0.016,-0.016,-0.016,0.002,0.002,0.002,0.002,0.002,0.002,0.002,0.002,0.002,0.019,0.037000000000000005,0.055,0.055,0.055,0.055,0.07200000000000001,0.09,0.10800000000000001,0.126,0.126,0.14400000000000002,0.162,0.162,0.18,0.198,0.21600000000000003,0.252,0.26899999999999996,0.287,0.305,0.322,0.322,0.322,0.34,0.34,0.358,0.358,0.358,0.34,0.34,0.322,0.305,0.305,0.305,0.287,0.26899999999999996,0.26899999999999996,0.23399999999999999,0.21600000000000003,0.198,0.18,0.18,0.162,0.14400000000000002,0.126,0.126,0.09,0.07200000000000001,0.07200000000000001,0.07200000000000001,0.055,0.055,0.037000000000000005,0.019,0.002,0.002,0.002,0.002,0.002,0.002,0.002,0.002,0.002,0.002,0.002,0.002,0.019,0.019,0.037000000000000005,0.037000000000000005,0.019,0.019,0.019,0.019,0.037000000000000005,0.055,0.055,0.055,0.055,0.055,0.037000000000000005,0.055,0.055,0.07200000000000001,0.07200000000000001,0.055,0.055,0.037000000000000005,0.019,0.002,0.019,0.019,0.019,0.002,0.002,0.002,-0.016,-0.016,-0.016,0.002,0.002,0.002,0.002,0.002,-0.016,-0.034,-0.016,-0.034,-0.016,-0.016,-0.016,-0.034,-0.052000000000000005,-0.07,-0.07,-0.08800000000000001,-0.07,-0.07,-0.07,-0.08800000000000001,-0.08800000000000001,-0.106,-0.106,-0.106,-0.106,-0.08800000000000001,-0.08800000000000001,-0.08800000000000001,-0.106,-0.124,-0.124,-0.124,-0.106,-0.08800000000000001,-0.07,-0.052000000000000005,-0.052000000000000005,-0.052000000000000005,-0.07,-0.07,-0.07,-0.052000000000000005,-0.016,0.002,0.019,0.055,0.09,0.126,0.18,0.21600000000000003,0.26899999999999996,0.322,0.358,0.358,0.358,0.322,0.26899999999999996,0.252,0.21600000000000003,0.162,0.055,-0.124,-0.374,-0.588,-0.713,-0.731,-0.713,-0.66,-0.588,-0.534,-0.46299999999999997,-0.41,-0.374,-0.32,-0.266,-0.213,-0.17800000000000002,-0.16,-0.142,-0.124,-0.124,-0.124,-0.124,-0.08800000000000001,-0.08800000000000001,-0.08800000000000001,-0.08800000000000001,-0.106,-0.106,-0.08800000000000001,-0.08800000000000001,-0.07,-0.052000000000000005,-0.052000000000000005,-0.052000000000000005,-0.052000000000000005,-0.052000000000000005,-0.052000000000000005,-0.052000000000000005,-0.034,-0.034,-0.034,-0.034,-0.034,-0.034,-0.034,-0.034,-0.016,-0.016,0.002,0.002,0.002,-0.016,0.002,0.002,0.002,0.002,0.019,0.019,0.019,0.037000000000000005,0.037000000000000005,0.037000000000000005,0.055,0.07200000000000001,0.09,0.10800000000000001,0.126,0.126,0.126,0.14400000000000002,0.162,0.18,0.21600000000000003,0.23399999999999999,0.252,0.26899999999999996,0.26899999999999996,0.287,0.305,0.322,0.34,0.358,0.358,0.358,0.358,0.34,0.34,0.34,0.34,0.34,0.322,0.305,0.287,0.26899999999999996,0.252,0.23399999999999999,0.21600000000000003,0.21600000000000003,0.198,0.18,0.162,0.14400000000000002,0.126,0.10800000000000001,0.09,0.09,0.07200000000000001,0.07200000000000001,0.055,0.037000000000000005,0.019,0.019,0.019,0.019,0.019,0.019,0.002,0.002,0.002,0.002,0.002,0.002,0.002,0.019,0.019,0.019,0.019,0.019,0.019,0.037000000000000005,0.037000000000000005,0.055,0.037000000000000005,0.055,0.037000000000000005,0.037000000000000005,0.037000000000000005,0.037000000000000005,0.055,0.055,0.07200000000000001,0.055,0.055,0.037000000000000005,0.019,0.019,0.019,0.019,0.019,0.019,0.002,0.002,-0.016,-0.016,-0.016,-0.016,-0.016,-0.016,-0.016,-0.016,-0.034,-0.034,-0.034,-0.034,-0.034,-0.034,-0.034,-0.052000000000000005,-0.052000000000000005,-0.07,-0.07,-0.07,-0.052000000000000005,-0.052000000000000005,-0.07,-0.08800000000000001,-0.08800000000000001,-0.106,-0.106,-0.106,-0.106,-0.106,-0.08800000000000001,-0.106,-0.106,-0.124,-0.124,-0.124,-0.124,-0.106,-0.106,-0.08800000000000001,-0.08800000000000001,-0.08800000000000001,-0.07,-0.07,-0.052000000000000005,-0.052000000000000005,-0.052000000000000005,-0.052000000000000005,-0.034,-0.016,0.002,0.019,0.07200000000000001,0.10800000000000001,0.14400000000000002,0.18,0.198,0.23399999999999999,0.26899999999999996,0.287,0.287,0.26899999999999996,0.23399999999999999,0.198,0.14400000000000002,0.10800000000000001,0.002,-0.17800000000000002,-0.41,-0.624,-0.713,-0.731,-0.695,-0.66,-0.606,-0.534,-0.48100000000000004,-0.41,-0.35600000000000004,-0.302,-0.266,-0.231,-0.195,-0.17800000000000002,-0.16,-0.142,-0.124,-0.124,-0.106,-0.106,-0.106,-0.124,-0.124,-0.106,-0.08800000000000001,-0.08800000000000001,-0.08800000000000001,-0.07,-0.08800000000000001,-0.08800000000000001,-0.08800000000000001,-0.07,-0.07,-0.052000000000000005,-0.034,-0.034,-0.034,-0.052000000000000005,-0.052000000000000005,-0.034,-0.034,-0.034,-0.016,0.002,-0.016,-0.016,-0.016,-0.016,0.002,0.002,0.002,0.019,0.019,0.019,0.019,0.019,0.037000000000000005,0.037000000000000005,0.055,0.07200000000000001,0.09,0.09,0.09,0.09,0.10800000000000001,0.126,0.162,0.18,0.198,0.21600000000000003,0.23399999999999999,0.252,0.252,0.26899999999999996,0.305,0.322,0.34,0.34,0.34,0.34,0.34,0.34,0.34,0.34,0.34,0.34,0.322,0.305,0.26899999999999996,0.26899999999999996,0.252,0.252,0.23399999999999999,0.23399999999999999,0.21600000000000003,0.18,0.162,0.14400000000000002,0.126,0.126,0.126,0.10800000000000001,0.09,0.09,0.07200000000000001,0.055,0.037000000000000005,0.037000000000000005,0.037000000000000005,0.037000000000000005,0.019,0.019,0.002,0.002,0.002,0.002,0.002,0.019,0.019,0.019,0.019,0.002,0.002,0.019,0.019,0.037000000000000005,0.037000000000000005,0.055,0.037000000000000005,0.037000000000000005,0.019,0.037000000000000005,0.037000000000000005,0.037000000000000005,0.055,0.055,0.055,0.037000000000000005,0.019,0.019,0.002,0.019,0.002,0.002,0.002,0.002,0.002,-0.016,-0.016,-0.016,-0.016,-0.016,-0.016,-0.034,-0.052000000000000005,-0.052000000000000005,-0.052000000000000005,-0.052000000000000005,-0.034,-0.034,-0.034,-0.034,-0.052000000000000005,-0.07,-0.07,-0.07,-0.07,-0.052000000000000005,-0.07,-0.07,-0.08800000000000001,-0.08800000000000001,-0.106,-0.106,-0.106,-0.08800000000000001,-0.08800000000000001,-0.106,-0.106,-0.124,-0.124,-0.124,-0.124,-0.124,-0.106,-0.124,-0.124,-0.124,-0.124,-0.106,-0.08800000000000001,-0.07,-0.07,-0.07,-0.08800000000000001,-0.08800000000000001,-0.106,-0.07,-0.052000000000000005,0.002,0.019,0.055,0.07200000000000001,0.10800000000000001,0.126,0.14400000000000002,0.21600000000000003,0.252,0.26899999999999996,0.26899999999999996,0.23399999999999999,0.198,0.162,0.126,0.09,-0.016,-0.231,-0.445,-0.624,-0.695,-0.713,-0.6779999999999999,-0.642,-0.57,-0.499,-0.428,-0.392,-0.32,-0.284,-0.249,-0.213,-0.17800000000000002,-0.142,-0.124,-0.124,-0.106,-0.106,-0.106,-0.124,-0.124,-0.106,-0.08800000000000001,-0.07,-0.07,-0.07,-0.07,-0.07,-0.07,-0.07,-0.07,-0.052000000000000005,-0.034,-0.034,-0.034,-0.052000000000000005,-0.034,-0.034,-0.016,0.002,0.002,0.002,0.002,0.002,0.002,0.002,0.002,0.002,0.019,0.019,0.037000000000000005,0.019,0.019,0.037000000000000005,0.037000000000000005,0.055,0.07200000000000001,0.09,0.09,0.10800000000000001,0.10800000000000001,0.126,0.126,0.14400000000000002,0.162,0.18,0.198,0.21600000000000003,0.23399999999999999,0.252,0.26899999999999996,0.26899999999999996,0.305,0.322,0.34,0.358,0.358,0.358,0.358,0.376,0.39399999999999996,0.39399999999999996,0.39399999999999996,0.376,0.376,0.34,0.34,0.322,0.305,0.305,0.287,0.26899999999999996,0.26899999999999996,0.252,0.21600000000000003,0.198,0.18,0.18,0.18,0.162,0.14400000000000002,0.126,0.10800000000000001,0.09,0.09,0.09,0.09,0.07200000000000001,0.055,0.055,0.019,0.019,0.019,0.019,0.037000000000000005,0.037000000000000005,0.037000000000000005,0.055,0.037000000000000005,0.037000000000000005,0.037000000000000005,0.037000000000000005,0.055,0.055,0.07200000000000001,0.055,0.055,0.055,0.055,0.055,0.055,0.07200000000000001,0.07200000000000001,0.07200000000000001,0.07200000000000001,0.055,0.037000000000000005,0.037000000000000005,0.037000000000000005,0.055,0.055,0.055,0.037000000000000005,0.019,0.019,0.002,0.002,0.002,0.002,0.002,0.002,0.002,-0.016,-0.034,-0.034,-0.016,-0.016,-0.016,-0.016,-0.016,-0.034,-0.052000000000000005,-0.034,-0.034,-0.016,-0.016,-0.016,-0.034,-0.034,-0.052000000000000005,-0.052000000000000005,-0.052000000000000005,-0.052000000000000005,-0.052000000000000005,-0.052000000000000005,-0.07,-0.07,-0.08800000000000001,-0.08800000000000001,-0.08800000000000001,-0.07,-0.07,-0.052000000000000005,-0.07,-0.07,-0.08800000000000001,-0.08800000000000001,-0.08800000000000001,-0.052000000000000005,-0.034,-0.016,-0.016,-0.016,-0.034,-0.052000000000000005,-0.052000000000000005,-0.052000000000000005,-0.016,0.002,0.037000000000000005,0.07200000000000001,0.07200000000000001,0.09,0.126,0.126,0.18,0.23399999999999999,0.26899999999999996,0.26899999999999996,0.23399999999999999,0.18,0.126,0.126,0.126,0.10800000000000001,-0.034,-0.249,-0.48100000000000004,-0.642,-0.6779999999999999,-0.6779999999999999,-0.66,-0.588,-0.516,-0.445,-0.392,-0.33799999999999997,-0.284,-0.249,-0.195,-0.16,-0.124,-0.124,-0.08800000000000001,-0.08800000000000001,-0.08800000000000001,-0.08800000000000001,-0.08800000000000001,-0.07,-0.052000000000000005,-0.034,-0.034,-0.034,-0.034,-0.034,-0.034,-0.016,0.002,0.002,0.002,0.002,0.002,0.002,0.002,0.002,0.002,0.019,0.019,0.019,0.019,0.019,0.019,0.019,0.037000000000000005,0.055,0.055,0.07200000000000001,0.055,0.055,0.055,0.07200000000000001,0.07200000000000001,0.10800000000000001,0.10800000000000001,0.126,0.126,0.126,0.126,0.126,0.14400000000000002,0.162,0.18,0.21600000000000003,0.23399999999999999,0.252,0.252,0.26899999999999996,0.26899999999999996,0.305,0.322,0.34,0.376,0.376,0.376,0.39399999999999996,0.39399999999999996,0.39399999999999996,0.39399999999999996,0.41200000000000003,0.41200000000000003,0.41200000000000003,0.39399999999999996,0.39399999999999996,0.39399999999999996,0.39399999999999996,0.39399999999999996,0.376,0.376,0.358,0.34,0.322,0.287,0.287,0.26899999999999996,0.26899999999999996,0.252,0.252,0.21600000000000003,0.198,0.18,0.162,0.162,0.14400000000000002,0.14400000000000002,0.14400000000000002,0.14400000000000002,0.126,0.10800000000000001,0.09,0.09,0.09,0.09,0.09,0.09,0.07200000000000001,0.055,0.055,0.07200000000000001,0.07200000000000001,0.07200000000000001,0.09,0.09,0.09,0.09,0.07200000000000001,0.07200000000000001,0.09,0.10800000000000001,0.10800000000000001,0.10800000000000001,0.09,0.07200000000000001,N
11,-0.32,-0.266,-0.213,-0.17800000000000002,-0.16,-0.142,-0.124,-0.124,-0.124,-0.124,-0.08800000000000001,-0.08800000000000001,-0.08800000000000001,-0.08800000000000001,-0.106,-0.106,-0.08800000000000001,-0.08800000000000001,-0.07,-0.052000000000000005,-0.052000000000000005,-0.052000000000000005,-0.052000000000000005,-0.052000000000000005,-0.052000000000000005,-0.052000000000000005,-0.034,-0.034,-0.034,-0.034,-0.034,-0.034,-0.034,-0.034,-0.016,-0.016,0.002,0.002,0.002,-0.016,0.002,0.002,0.002,0.002,0.019,0.019,0.019,0.037000000000000005,0.037000000000000005,0.037000000000000005,0.055,0.07200000000000001,0.09,0.10800000000000001,0.126,0.126,0.126,0.14400000000000002,0.162,0.18,0.21600000000000003,0.23399999999999999,0.252,0.26899999999999996,0.26899999999999996,0.287,0.305,0.322,0.34,0.358,0.358,0.358,0.358,0.34,0.34,0.34,0.34,0.34,0.322,0.305,0.287,0.26899999999999996,0.252,0.23399999999999999,0.21600000000000003,0.21600000000000003,0.198,0.18,0.162,0.14400000000000002,0.126,0.10800000000000001,0.09,0.09,0.07200000000000001,0.07200000000000001,0.055,0.037000000000000005,0.019,0.019,0.019,0.019,0.019,0.019,0.002,0.002,0.002,0.002,0.002,0.002,0.002,0.019,0.019,0.019,0.019,0.019,0.019,0.037000000000000005,0.037000000000000005,0.055,0.037000000000000005,0.055,0.037000000000000005,0.037000000000000005,0.037000000000000005,0.037000000000000005,0.055,0.055,0.07200000000000001,0.055,0.055,0.037000000000000005,0.019,0.019,0.019,0.019,0.019,0.019,0.002,0.002,-0.016,-0.016,-0.016,-0.016,-0.016,-0.016,-0.016,-0.016,-0.034,-0.034,-0.034,-0.034,-0.034,-0.034,-0.034,-0.052000000000000005,-0.052000000000000005,-0.07,-0.07,-0.07,-0.052000000000000005,-0.052000000000000005,-0.07,-0.08800000000000001,-0.08800000000000001,-0.106,-0.106,-0.106,-0.106,-0.106,-0.08800000000000001,-0.106,-0.106,-0.124,-0.124,-0.124,-0.124,-0.106,-0.106,-0.08800000000000001,-0.08800000000000001,-0.08800000000000001,-0.07,-0.07,-0.052000000000000005,-0.052000000000000005,-0.052000000000000005,-0.052000000000000005,-0.034,-0.016,0.002,0.019,0.07200000000000001,0.10800000000000001,0.14400000000000002,0.18,0.198,0.23399999999999999,0.26899999999999996,0.287,0.287,0.26899999999999996,0.23399999999999999,0.198,0.14400000000000002,0.10800000000000001,0.002,-0.17800000000000002,-0.41,-0.624,-0.713,-0.731,-0.695,-0.66,-0.606,-0.534,-0.48100000000000004,-0.41,-0.35600000000000004,-0.302,-0.266,-0.231,-0.195,-0.17800000000000002,-0.16,-0.142,-0.124,-0.124,-0.106,-0.106,-0.106,-0.124,-0.124,-0.106,-0.08800000000000001,-0.08800000000000001,-0.08800000000000001,-0.07,-0.08800000000000001,-0.08800000000000001,-0.08800000000000001,-0.07,-0.07,-0.052000000000000005,-0.034,-0.034,-0.034,-0.052000000000000005,-0.052000000000000005,-0.034,-0.034,-0.034,-0.016,0.002,-0.016,-0.016,-0.016,-0.016,0.002,0.002,0.002,0.019,0.019,0.019,0.019,0.019,0.037000000000000005,0.037000000000000005,0.055,0.07200000000000001,0.09,0.09,0.09,0.09,0.10800000000000001,0.126,0.162,0.18,0.198,0.21600000000000003,0.23399999999999999,0.252,0.252,0.26899999999999996,0.305,0.322,0.34,0.34,0.34,0.34,0.34,0.34,0.34,0.34,0.34,0.34,0.322,0.305,0.26899999999999996,0.26899999999999996,0.252,0.252,0.23399999999999999,0.23399999999999999,0.21600000000000003,0.18,0.162,0.14400000000000002,0.126,0.126,0.126,0.10800000000000001,0.09,0.09,0.07200000000000001,0.055,0.037000000000000005,0.037000000000000005,0.037000000000000005,0.037000000000000005,0.019,0.019,0.002,0.002,0.002,0.002,0.002,0.019,0.019,0.019,0.019,0.002,0.002,0.019,0.019,0.037000000000000005,0.037000000000000005,0.055,0.037000000000000005,0.037000000000000005,0.019,0.037000000000000005,0.037000000000000005,0.037000000000000005,0.055,0.055,0.055,0.037000000000000005,0.019,0.019,0.002,0.019,0.002,0.002,0.002,0.002,0.002,-0.016,-0.016,-0.016,-0.016,-0.016,-0.016,-0.034,-0.052000000000000005,-0.052000000000000005,-0.052000000000000005,-0.052000000000000005,-0.034,-0.034,-0.034,-0.034,-0.052000000000000005,-0.07,-0.07,-0.07,-0.07,-0.052000000000000005,-0.07,-0.07,-0.08800000000000001,-0.08800000000000001,-0.106,-0.106,-0.106,-0.08800000000000001,-0.08800000000000001,-0.106,-0.106,-0.124,-0.124,-0.124,-0.124,-0.124,-0.106,-0.124,-0.124,-0.124,-0.124,-0.106,-0.08800000000000001,-0.07,-0.07,-0.07,-0.08800000000000001,-0.08800000000000001,-0.106,-0.07,-0.052000000000000005,0.002,0.019,0.055,0.07200000000000001,0.10800000000000001,0.126,0.14400000000000002,0.21600000000000003,0.252,0.26899999999999996,0.26899999999999996,0.23399999999999999,0.198,0.162,0.126,0.09,-0.016,-0.231,-0.445,-0.624,-0.695,-0.713,-0.6779999999999999,-0.642,-0.57,-0.499,-0.428,-0.392,-0.32,-0.284,-0.249,-0.213,-0.17800000000000002,-0.142,-0.124,-0.124,-0.106,-0.106,-0.106,-0.124,-0.124,-0.106,-0.08800000000000001,-0.07,-0.07,-0.07,-0.07,-0.07,-0.07,-0.07,-0.07,-0.052000000000000005,-0.034,-0.034,-0.034,-0.052000000000000005,-0.034,-0.034,-0.016,0.002,0.002,0.002,0.002,0.002,0.002,0.002,0.002,0.002,0.019,0.019,0.037000000000000005,0.019,0.019,0.037000000000000005,0.037000000000000005,0.055,0.07200000000000001,0.09,0.09,0.10800000000000001,0.10800000000000001,0.126,0.126,0.14400000000000002,0.162,0.18,0.198,0.21600000000000003,0.23399999999999999,0.252,0.26899999999999996,0.26899999999999996,0.305,0.322,0.34,0.358,0.358,0.358,0.358,0.376,0.39399999999999996,0.39399999999999996,0.39399999999999996,0.376,0.376,0.34,0.34,0.322,0.305,0.305,0.287,0.26899999999999996,0.26899999999999996,0.252,0.21600000000000003,0.198,0.18,0.18,0.18,0.162,0.14400000000000002,0.126,0.10800000000000001,0.09,0.09,0.09,0.09,0.07200000000000001,0.055,0.055,0.019,0.019,0.019,0.019,0.037000000000000005,0.037000000000000005,0.037000000000000005,0.055,0.037000000000000005,0.037000000000000005,0.037000000000000005,0.037000000000000005,0.055,0.055,0.07200000000000001,0.055,0.055,0.055,0.055,0.055,0.055,0.07200000000000001,0.07200000000000001,0.07200000000000001,0.07200000000000001,0.055,0.037000000000000005,0.037000000000000005,0.037000000000000005,0.055,0.055,0.055,0.037000000000000005,0.019,0.019,0.002,0.002,0.002,0.002,0.002,0.002,0.002,-0.016,-0.034,-0.034,-0.016,-0.016,-0.016,-0.016,-0.016,-0.034,-0.052000000000000005,-0.034,-0.034,-0.016,-0.016,-0.016,-0.034,-0.034,-0.052000000000000005,-0.052000000000000005,-0.052000000000000005,-0.052000000000000005,-0.052000000000000005,-0.052000000000000005,-0.07,-0.07,-0.08800000000000001,-0.08800000000000001,-0.08800000000000001,-0.07,-0.07,-0.052000000000000005,-0.07,-0.07,-0.08800000000000001,-0.08800000000000001,-0.08800000000000001,-0.052000000000000005,-0.034,-0.016,-0.016,-0.016,-0.034,-0.052000000000000005,-0.052000000000000005,-0.052000000000000005,-0.016,0.002,0.037000000000000005,0.07200000000000001,0.07200000000000001,0.09,0.126,0.126,0.18,0.23399999999999999,0.26899999999999996,0.26899999999999996,0.23399999999999999,0.18,0.126,0.126,0.126,0.10800000000000001,-0.034,-0.249,-0.48100000000000004,-0.642,-0.6779999999999999,-0.6779999999999999,-0.66,-0.588,-0.516,-0.445,-0.392,-0.33799999999999997,-0.284,-0.249,-0.195,-0.16,-0.124,-0.124,-0.08800000000000001,-0.08800000000000001,-0.08800000000000001,-0.08800000000000001,-0.08800000000000001,-0.07,-0.052000000000000005,-0.034,-0.034,-0.034,-0.034,-0.034,-0.034,-0.016,0.002,0.002,0.002,0.002,0.002,0.002,0.002,0.002,0.002,0.019,0.019,0.019,0.019,0.019,0.019,0.019,0.037000000000000005,0.055,0.055,0.07200000000000001,0.055,0.055,0.055,0.07200000000000001,0.07200000000000001,0.10800000000000001,0.10800000000000001,0.126,0.126,0.126,0.126,0.126,0.14400000000000002,0.162,0.18,0.21600000000000003,0.23399999999999999,0.252,0.252,0.26899999999999996,0.26899999999999996,0.305,0.322,0.34,0.376,0.376,0.376,0.39399999999999996,0.39399999999999996,0.39399999999999996,0.39399999999999996,0.41200000000000003,0.41200000000000003,0.41200000000000003,0.39399999999999996,0.39399999999999996,0.39399999999999996,0.39399999999999996,0.39399999999999996,0.376,0.376,0.358,0.34,0.322,0.287,0.287,0.26899999999999996,0.26899999999999996,0.252,0.252,0.21600000000000003,0.198,0.18,0.162,0.162,0.14400000000000002,0.14400000000000002,0.14400000000000002,0.14400000000000002,0.126,0.10800000000000001,0.09,0.09,0.09,0.09,0.09,0.09,0.07200000000000001,0.055,0.055,0.07200000000000001,0.07200000000000001,0.07200000000000001,0.09,0.09,0.09,0.09,0.07200000000000001,0.07200000000000001,0.09,0.10800000000000001,0.10800000000000001,0.10800000000000001,0.09,0.07200000000000001,0.07200000000000001,0.07200000000000001,0.07200000000000001,0.09,0.09,0.09,0.09,0.07200000000000001,0.07200000000000001,0.055,0.037000000000000005,0.037000000000000005,0.037000000000000005,0.037000000000000005,0.037000000000000005,0.019,0.002,0.002,0.002,0.002,0.002,0.002,0.002,0.002,0.002,-0.016,-0.016,-0.016,0.002,0.002,0.002,-0.016,0.002,-0.016,-0.034,-0.034,-0.034,-0.016,-0.016,-0.016,-0.034,-0.052000000000000005,-0.052000000000000005,-0.052000000000000005,-0.052000000000000005,-0.034,-0.034,-0.052000000000000005,-0.052000000000000005,-0.052000000000000005,-0.07,-0.07,-0.07,-0.052000000000000005,-0.034,-0.016,0.002,0.002,0.002,0.002,0.002,-0.016,-0.016,-0.016,0.002,0.002,0.019,0.055,0.09,0.10800000000000001,0.126,0.162,0.198,0.21600000000000003,0.21600000000000003,0.21600000000000003,0.198,0.14400000000000002,0.10800000000000001,0.09,0.09,0.07200000000000001,-0.016,-0.213,-0.445,-0.624,-0.6779999999999999,-0.66,-0.642,-0.588,-0.534,-0.46299999999999997,-0.41,-0.35600000000000004,-0.302,-0.249,-0.17800000000000002,-0.142,-0.124,-0.106,-0.08800000000000001,-0.08800000000000001,-0.07,-0.052000000000000005,-0.052000000000000005,-0.034,-0.034,-0.034,-0.034,-0.034,-0.034,-0.034,-0.016,0.002,0.002,0.002,0.002,0.002,0.002,0.002,0.002,0.002,0.002,0.002,0.002,0.002,0.002,0.019,0.037000000000000005,0.037000000000000005,0.055,0.055,0.055,0.037000000000000005,0.055,0.055,0.07200000000000001,0.07200000000000001,0.09,0.10800000000000001,0.10800000000000001,0.10800000000000001,0.10800000000000001,0.10800000000000001,0.126,0.126,0.14400000000000002,0.162,0.18,0.18,0.198,0.21600000000000003,0.23399999999999999,0.252,0.26899999999999996,0.287,0.305,0.305,0.322,0.322,0.34,0.358,0.376,0.39399999999999996,0.39399999999999996,0.39399999999999996,0.39399999999999996,0.39399999999999996,0.39399999999999996,0.39399999999999996,0.39399999999999996,0.39399999999999996,0.39399999999999996,0.358,0.34,0.322,0.322,0.305,0.305,0.287,0.287,0.26899999999999996,0.252,0.23399999999999999,0.21600000000000003,0.198,0.18,0.18,0.162,0.14400000000000002,0.126,0.126,0.10800000000000001,0.10800000000000001,0.10800000000000001,0.10800000000000001,0.10800000000000001,0.10800000000000001,0.09,0.09,0.07200000000000001,0.055,0.055,0.07200000000000001,0.07200000000000001,0.07200000000000001,0.07200000000000001,0.055,0.055,0.055,0.07200000000000001,0.07200000000000001,0.09,0.09,0.09,0.07200000000000001,0.07200000000000001,0.055,0.055,N
