0,0.2,0.207,0.214,0.22399999999999998,0.23399999999999999,0.242,0.249,0.247,0.245,0.228,0.212,0.183,0.153,0.121,0.08900000000000001,0.059000000000000004,0.03,0.008,-0.015,-0.03,-0.044000000000000004,-0.055,-0.065,-0.071,-0.077,-0.079,-0.081,-0.08199999999999999,-0.083,-0.084,-0.085,-0.086,-0.086,-0.087,-0.08900000000000001,-0.09,-0.092,-0.094,-0.096,-0.098,-0.1,-0.10099999999999999,-0.102,-0.10099999999999999,-0.1,-0.099,-0.098,-0.09699999999999999,-0.095,-0.096,-0.096,-0.09699999999999999,-0.098,-0.099,-0.099,-0.098,-0.09699999999999999,-0.09300000000000001,-0.08900000000000001,-0.083,-0.078,-0.073,-0.069,-0.066,-0.063,-0.061,-0.059000000000000004,-0.057999999999999996,-0.057,-0.054000000000000006,-0.051,-0.046,-0.042,-0.038,-0.035,-0.03,-0.026000000000000002,-0.02,-0.013999999999999999,-0.008,-0.002,0.002,0.005,0.006999999999999999,0.009000000000000001,0.01,0.011000000000000001,0.011000000000000001,0.012,0.011000000000000001,0.011000000000000001,0.009000000000000001,0.008,0.004,0.001,-0.003,-0.008,-0.015,-0.022000000000000002,-0.028999999999999998,-0.037000000000000005,-0.043,-0.05,-0.057,-0.065,-0.073,-0.08199999999999999,-0.092,-0.102,-0.11199999999999999,-0.122,-0.132,-0.14300000000000002,-0.15,-0.158,-0.163,-0.168,-0.172,-0.17600000000000002,-0.179,-0.18100000000000002,-0.183,-0.184,-0.18100000000000002,-0.179,-0.17600000000000002,-0.17300000000000001,-0.168,-0.16399999999999998,-0.159,-0.153,-0.14800000000000002,-0.14300000000000002,-0.138,-0.134,-0.129,-0.124,-0.12,-0.11699999999999999,-0.113,-0.109,-0.105,-0.102,-0.09699999999999999,-0.09300000000000001,-0.08900000000000001,-0.085,-0.081,-0.077,-0.07200000000000001,-0.067,-0.063,-0.059000000000000004,-0.059000000000000004,-0.059000000000000004,-0.062,-0.064,-0.066,-0.068,-0.067,-0.067,-0.065,-0.064,-0.061,-0.057999999999999996,-0.057,-0.055,-0.053,-0.052000000000000005,-0.051,-0.051,-0.048,-0.045,-0.042,-0.038,-0.031,-0.025,-0.016,-0.006,0.004,0.015,0.025,0.036000000000000004,0.044000000000000004,0.053,0.057,0.06,0.064,0.067,0.07400000000000001,0.081,0.09,0.099,0.10800000000000001,0.11699999999999999,0.11900000000000001,0.122,0.115,0.10800000000000001,0.094,0.08,0.065,0.051,0.039,0.027000000000000003,0.019,0.012,0.005,-0.001,-0.009000000000000001,-0.016,-0.027000000000000003,-0.038,-0.051,-0.064,-0.076,-0.08900000000000001,-0.098,-0.10800000000000001,-0.11699999999999999,-0.126,-0.133,-0.14,-0.14400000000000002,-0.14800000000000002,-0.15,-0.151,-0.152,-0.153,-0.155,-0.157,-0.159,-0.161,-0.163,-0.165,-0.168,-0.171,-0.17300000000000001,-0.17600000000000002,-0.17800000000000002,-0.179,-0.17800000000000002,-0.17600000000000002,-0.17300000000000001,-0.17,-0.166,-0.162,-0.16,-0.158,-0.158,-0.159,-0.16,-0.162,-0.163,-0.163,-0.163,-0.162,-0.161,-0.161,-0.159,-0.158,-0.156,-0.153,-0.152,-0.15,-0.151,-0.151,-0.151,-0.15,-0.14,-0.131,-0.106,-0.081,-0.037000000000000005,0.008,0.07,0.133,0.204,0.27399999999999997,0.336,0.397,0.433,0.46799999999999997,0.467,0.467,0.434,0.401,0.353,0.305,0.258,0.21100000000000002,0.179,0.147,0.133,0.12,0.121,0.12300000000000001,0.132,0.141,0.152,0.162,0.171,0.179,0.184,0.188,0.18899999999999997,0.19,0.19,0.18899999999999997,0.188,0.188,0.184,0.179,0.16699999999999998,0.154,0.132,0.11,0.08,0.051,0.019,-0.012,-0.038,-0.064,-0.081,-0.098,-0.109,-0.11900000000000001,-0.12300000000000001,-0.127,-0.126,-0.125,-0.11900000000000001,-0.113,-0.107,-0.1,-0.096,-0.091,-0.08900000000000001,-0.086,-0.087,-0.08900000000000001,-0.092,-0.096,-0.1,-0.10400000000000001,-0.105,-0.107,-0.107,-0.10800000000000001,-0.10800000000000001,-0.10800000000000001,-0.106,-0.105,-0.10300000000000001,-0.1,-0.09699999999999999,-0.094,-0.08900000000000001,-0.084,-0.079,-0.075,-0.071,-0.067,-0.065,-0.064,-0.066,-0.068,-0.071,-0.075,-0.076,-0.077,-0.076,-0.075,-0.073,-0.071,-0.069,-0.067,-0.064,-0.062,-0.057,-0.052000000000000005,-0.045,-0.038,-0.032,-0.026000000000000002,-0.023,-0.019,-0.017,-0.015,-0.016,-0.016,-0.018000000000000002,-0.021,-0.023,-0.026000000000000002,-0.03,-0.033,-0.038,-0.042,-0.048,-0.053,-0.057999999999999996,-0.063,-0.066,-0.07,-0.075,-0.079,-0.083,-0.086,-0.09,-0.09300000000000001,-0.098,-0.10400000000000001,-0.113,-0.122,-0.132,-0.14300000000000002,-0.153,-0.163,-0.172,-0.18,-0.18600000000000003,-0.191,-0.193,-0.195,-0.19399999999999998,-0.192,-0.188,-0.185,-0.179,-0.174,-0.16699999999999998,-0.16,-0.151,-0.141,-0.132,-0.12300000000000001,-0.115,-0.107,-0.1,-0.09300000000000001,-0.087,-0.081,-0.077,-0.073,-0.07,-0.066,-0.062,-0.057,-0.053,-0.05,-0.046,-0.042,-0.039,-0.036000000000000004,-0.033,-0.03,-0.027000000000000003,-0.024,-0.022000000000000002,-0.019,-0.019,-0.019,-0.02,-0.021,-0.021,-0.021,-0.02,-0.019,-0.017,-0.015,-0.01,-0.005,-0.001,0.004,0.01,0.016,0.023,0.03,0.038,0.045,0.053,0.06,0.068,0.076,0.083,0.091,0.096,0.1,0.106,0.111,0.11900000000000001,0.126,0.138,0.149,0.158,0.16699999999999998,0.17,0.17300000000000001,0.16699999999999998,0.162,0.151,0.14,0.128,0.11599999999999999,0.107,0.099,0.096,0.092,0.08800000000000001,0.084,0.078,0.07200000000000001,0.065,0.057999999999999996,0.048,0.038,0.024,0.011000000000000001,-0.001,-0.013000000000000001,-0.023,-0.032,-0.039,-0.045,-0.049,-0.053,-0.055,-0.057,-0.057999999999999996,-0.059000000000000004,-0.06,-0.06,-0.063,-0.065,-0.066,-0.067,-0.067,-0.068,-0.068,-0.068,N,,,,,,,,,,,,,,,,,,,,,,,,,,,,,,,,,,,,,,,,,,,,,,,,,,,,,,,,,,,,,,,,,,,,,,,,,,,,,,,,,,,,,,,,,,,,,,,,,,,,,,,,,,,,,,,,,,,,,,,,,,,,,,,,,,,,,,,,,,,,,,,,,,,,,,,,,,,,,,,,,,,,,,,,,,,,,,,,,,,,,,,,,,,,,,,,,,,,,,,,,,,,,,,,,,,,,,,,,,,,,,,,,,,,,,,,,,,,,,,,,,,,,,,,,,,,,,,,,,,,,,,,,,,,,,,,,,,,,,,,,,,,,,,,,,,,,,,,,,,,,,,,,,,,,,,,,,,,,,,,,,,,,,,,,,,,,,,,,,,,,,,,,,,,,,,,,,,,,,,,,,,,,,,,,,,,,,,,,,,,,,,,,,,,,,,,,,,,,,,,,,,,,,,,,,,,,,,,,,,,,,,,,,,,,,,,,,,,,,,,,,,,,,,,,,,,,,,,,,,
1,0.201,0.20600000000000002,0.21600000000000003,0.226,0.239,0.252,0.258,0.265,0.258,0.251,0.22899999999999998,0.20800000000000002,0.17800000000000002,0.14800000000000002,0.11699999999999999,0.085,0.06,0.035,0.017,-0.001,-0.012,-0.024,-0.031,-0.039,-0.044000000000000004,-0.049,-0.051,-0.053,-0.054000000000000006,-0.055,-0.055999999999999994,-0.055999999999999994,-0.055999999999999994,-0.055999999999999994,-0.055999999999999994,-0.055,-0.055,-0.055,-0.055999999999999994,-0.055999999999999994,-0.055999999999999994,-0.055999999999999994,-0.055,-0.054000000000000006,-0.052000000000000005,-0.051,-0.049,-0.046,-0.044000000000000004,-0.042,-0.039,-0.036000000000000004,-0.033,-0.031,-0.028999999999999998,-0.027000000000000003,-0.025,-0.023,-0.021,-0.019,-0.017,-0.015,-0.012,-0.01,-0.006,-0.003,0.001,0.005,0.009000000000000001,0.013000000000000001,0.016,0.019,0.023,0.026000000000000002,0.028999999999999998,0.031,0.035,0.038,0.04,0.043,0.046,0.049,0.05,0.052000000000000005,0.051,0.051,0.051,0.052000000000000005,0.052000000000000005,0.053,0.052000000000000005,0.052000000000000005,0.049,0.045,0.040999999999999995,0.037000000000000005,0.031,0.026000000000000002,0.021,0.015,0.008,0.001,-0.008,-0.016,-0.027000000000000003,-0.038,-0.049,-0.059000000000000004,-0.07,-0.08,-0.09,-0.099,-0.107,-0.114,-0.12,-0.125,-0.131,-0.136,-0.139,-0.14300000000000002,-0.14300000000000002,-0.14400000000000002,-0.14300000000000002,-0.141,-0.139,-0.13699999999999998,-0.133,-0.129,-0.12300000000000001,-0.11800000000000001,-0.113,-0.10800000000000001,-0.10300000000000001,-0.09699999999999999,-0.091,-0.085,-0.081,-0.077,-0.073,-0.07,-0.066,-0.063,-0.057999999999999996,-0.054000000000000006,-0.05,-0.045,-0.042,-0.038,-0.035,-0.031,-0.028999999999999998,-0.027000000000000003,-0.025,-0.024,-0.023,-0.023,-0.022000000000000002,-0.021,-0.019,-0.018000000000000002,-0.017,-0.016,-0.013999999999999999,-0.012,-0.012,-0.012,-0.011000000000000001,-0.011000000000000001,-0.01,-0.009000000000000001,-0.006999999999999999,-0.005,-0.002,0.001,0.006,0.011000000000000001,0.017,0.023,0.031,0.04,0.052000000000000005,0.064,0.075,0.085,0.09300000000000001,0.102,0.107,0.11199999999999999,0.11699999999999999,0.122,0.13,0.13699999999999998,0.145,0.152,0.156,0.16,0.156,0.151,0.139,0.127,0.11199999999999999,0.09699999999999999,0.084,0.071,0.064,0.055999999999999994,0.052000000000000005,0.049,0.046,0.044000000000000004,0.038,0.031,0.021,0.011000000000000001,-0.002,-0.013999999999999999,-0.027999999999999997,-0.042,-0.055999999999999994,-0.069,-0.08,-0.092,-0.099,-0.106,-0.111,-0.11699999999999999,-0.12,-0.124,-0.125,-0.126,-0.127,-0.127,-0.127,-0.126,-0.126,-0.126,-0.126,-0.126,-0.126,-0.126,-0.127,-0.127,-0.129,-0.13,-0.131,-0.132,-0.131,-0.13,-0.129,-0.127,-0.126,-0.125,-0.12300000000000001,-0.121,-0.11800000000000001,-0.114,-0.11199999999999999,-0.109,-0.107,-0.106,-0.105,-0.10400000000000001,-0.10300000000000001,-0.10300000000000001,-0.10300000000000001,-0.10300000000000001,-0.102,-0.102,-0.094,-0.087,-0.066,-0.045,-0.004,0.038,0.10300000000000001,0.16699999999999998,0.252,0.336,0.42100000000000004,0.505,0.565,0.625,0.643,0.6609999999999999,0.633,0.605,0.545,0.485,0.41600000000000004,0.34700000000000003,0.28800000000000003,0.23,0.19699999999999998,0.163,0.153,0.14300000000000002,0.147,0.151,0.161,0.172,0.18,0.188,0.191,0.19399999999999998,0.19699999999999998,0.19899999999999998,0.20600000000000002,0.213,0.22399999999999998,0.235,0.24100000000000002,0.247,0.242,0.237,0.215,0.19399999999999998,0.165,0.135,0.105,0.075,0.049,0.023,0.005,-0.013000000000000001,-0.025,-0.037000000000000005,-0.044000000000000004,-0.051,-0.055,-0.059000000000000004,-0.06,-0.062,-0.061,-0.06,-0.06,-0.059000000000000004,-0.06,-0.06,-0.063,-0.065,-0.066,-0.068,-0.07,-0.07200000000000001,-0.07400000000000001,-0.076,-0.076,-0.077,-0.078,-0.08,-0.08199999999999999,-0.083,-0.084,-0.084,-0.083,-0.08199999999999999,-0.08,-0.079,-0.077,-0.076,-0.075,-0.073,-0.07200000000000001,-0.071,-0.069,-0.066,-0.063,-0.06,-0.059000000000000004,-0.057,-0.055999999999999994,-0.054000000000000006,-0.05,-0.045,-0.04,-0.036000000000000004,-0.032,-0.027999999999999997,-0.024,-0.021,-0.017,-0.013999999999999999,-0.013000000000000001,-0.012,-0.012,-0.012,-0.011000000000000001,-0.011000000000000001,-0.009000000000000001,-0.008,-0.005,-0.002,0.0,0.002,0.003,0.003,0.001,-0.002,-0.006,-0.011000000000000001,-0.017,-0.023,-0.028999999999999998,-0.036000000000000004,-0.043,-0.051,-0.059000000000000004,-0.068,-0.078,-0.087,-0.09699999999999999,-0.107,-0.11599999999999999,-0.124,-0.133,-0.141,-0.15,-0.158,-0.16399999999999998,-0.17,-0.175,-0.18,-0.185,-0.19,-0.193,-0.195,-0.19399999999999998,-0.193,-0.191,-0.18899999999999997,-0.18600000000000003,-0.184,-0.18,-0.177,-0.17300000000000001,-0.168,-0.16399999999999998,-0.159,-0.154,-0.149,-0.14400000000000002,-0.138,-0.132,-0.126,-0.12,-0.114,-0.11,-0.106,-0.10099999999999999,-0.096,-0.091,-0.085,-0.08,-0.075,-0.07200000000000001,-0.07,-0.07,-0.07,-0.073,-0.076,-0.08,-0.084,-0.087,-0.091,-0.092,-0.09300000000000001,-0.091,-0.09,-0.087,-0.085,-0.08199999999999999,-0.079,-0.076,-0.073,-0.07,-0.067,-0.063,-0.059000000000000004,-0.054000000000000006,-0.049,-0.04,-0.032,-0.021,-0.01,0.002,0.013999999999999999,0.022000000000000002,0.03,0.033,0.036000000000000004,0.036000000000000004,0.036000000000000004,0.035,0.035,0.04,0.046,0.059000000000000004,0.071,0.08199999999999999,0.09300000000000001,0.096,0.099,0.092,0.085,0.073,0.06,0.049,0.037000000000000005,0.028999999999999998,0.022000000000000002,0.019,0.016,0.013999999999999999,0.012,0.004,-0.003,-0.015,-0.027000000000000003,-0.043,-0.057999999999999996,-0.07400000000000001,-0.09,-0.10300000000000001,-0.11599999999999999,-0.125,-0.135,-0.14300000000000002,-0.15,-0.155,-0.16,-0.16399999999999998,-0.16699999999999998,-0.16899999999999998,-0.171,-0.171,-0.172,-0.172,-0.172,-0.17,-0.16699999999999998,-0.16399999999999998,-0.161,-0.16,-0.159,-0.158,-0.158,-0.159,-0.161,-0.163,-0.165,-0.16699999999999998,-0.168,-0.16899999999999998,-0.17,-0.17,-0.171,-0.171,-0.171,-0.171,-0.171,-0.17,-0.17,-0.168,-0.16699999999999998,-0.166,-0.165,-0.166,-0.166,-0.166,-0.165,-0.163,-0.161,-0.154,-0.147,-0.129,-0.11,-0.07400000000000001,-0.038,0.017,0.07200000000000001,0.14300000000000002,0.214,0.285,0.355,0.405,0.455,0.47,0.485,0.46399999999999997,0.44299999999999995,0.396,0.35,0.29600000000000004,0.243,0.19899999999999998,0.156,0.131,0.106,0.10099999999999999,0.096,0.10400000000000001,0.111,0.12300000000000001,0.134,0.142,0.15,0.153,0.156,0.154,0.153,0.153,0.152,0.155,0.158,0.16,0.163,0.158,0.152,0.136,0.12,0.09300000000000001,0.067,0.037000000000000005,0.008,-0.019,-0.045,-0.064,-0.08199999999999999,-0.092,-0.10300000000000001,-0.105,-0.107,-0.105,-0.10300000000000001,-0.098,-0.09300000000000001,-0.087,-0.08199999999999999,-0.079,-0.076,-0.075,-0.073,-0.07200000000000001,-0.071,-0.07,-0.068,-0.067,-0.066,-0.065,-0.065,-0.064,-0.063,-0.061,-0.059000000000000004,-0.059000000000000004,-0.059000000000000004,-0.059000000000000004,-0.057999999999999996,-0.057,-0.055999999999999994,-0.055,-0.054000000000000006,-0.053,-0.052000000000000005,-0.052000000000000005,-0.052000000000000005,-0.051,-0.051,-0.048,-0.045,-0.042,-0.039,-0.035,-0.031,-0.027999999999999997,-0.025,-0.022000000000000002,-0.018000000000000002,-0.015,-0.012,-0.008,-0.004,-0.001,0.003,0.006,0.01,0.011000000000000001,0.013000000000000001,0.013999999999999999,0.015,0.016,0.016,0.016,0.015,0.015,0.015,0.015,0.015,0.015,0.015,0.015,0.015,0.015,0.013999999999999999,0.011000000000000001,0.009000000000000001,0.003,-0.002,-0.009000000000000001,-0.015,-0.023,-0.031,-0.04,-0.049,-0.057999999999999996,-0.067,-0.075,-0.083,-0.091,-0.099,-0.106,-0.113,-0.11900000000000001,-0.124,-0.128,-0.132,-0.134,-0.136,-0.13699999999999998,-0.13699999999999998,-0.136,-0.134,-0.13,-0.125,-0.11800000000000001,-0.111,-0.10300000000000001,-0.095,-0.087,-0.079,-0.07,-0.06,-0.052000000000000005,-0.043,-0.036000000000000004,-0.027999999999999997,-0.02,-0.012,-0.005,0.002,0.008,0.013000000000000001,0.017,0.022000000000000002,0.026000000000000002,0.03,0.035,0.04,0.044000000000000004,0.049,0.05,0.052000000000000005,0.051,0.051,0.051,0.052000000000000005,0.053,0.054000000000000006,0.055999999999999994,0.057,0.057999999999999996,0.059000000000000004,0.061,0.063,0.064,0.065,0.066,0.067,0.069,0.071,0.073,0.076,0.079,0.08199999999999999,0.087,0.09300000000000001,0.102,0.111,0.12300000000000001,0.134,0.14400000000000002,0.154,0.16399999999999998,0.17300000000000001,0.18,0.187,0.193,0.19899999999999998,0.20600000000000002,0.213,0.222,0.231,0.23600000000000002,0.24100000000000002,0.239,0.237,0.226,0.215,0.198,0.18100000000000002,0.16699999999999998,0.152,0.14400000000000002,0.136,0.132,0.127,0.125,0.122,0.11599999999999999,0.11,0.099,0.08900000000000001,0.075,0.06,0.045,0.03,0.017,0.004,-0.006999999999999999,-0.018000000000000002,-0.027000000000000003,-0.036000000000000004,-0.040999999999999995,-0.046,-0.05,-0.053,-0.055,-0.057,-0.059000000000000004,-0.06,-0.063,-0.065,-0.066,-0.068,-0.07,-0.07200000000000001,-0.073,-0.075,-0.073,-0.07200000000000001,-0.071,-0.07,-0.069,-0.068,-0.067,-0.067,-0.067,-0.068,-0.067,-0.067,-0.066,-0.065,-0.064,-0.063,-0.06,-0.057999999999999996,-0.057,-0.055999999999999994,-0.055999999999999994,-0.055,-0.055,-0.055,-0.055999999999999994,-0.057,-0.057999999999999996,-0.057999999999999996,-0.054000000000000006,-0.05,-0.033,-0.017,0.02,0.057,0.12,0.183,0.267,0.35100000000000003,0.441,0.53,0.602,0.674,0.706,0.7390000000000001,0.722,0.706,0.653,0.599,0.529,0.45899999999999996,0.39399999999999996,0.32799999999999996,0.282,0.237,0.217,0.198,0.198,0.19899999999999998,0.209,0.21899999999999997,0.22899999999999998,0.24,0.24600000000000002,0.253,0.259,0.265,0.273,0.282,0.293,0.305,0.309,0.314,0.307,0.3,0.278,0.256,0.222,0.18899999999999997,0.154,0.12,0.092,0.065,0.045,0.026000000000000002,0.012,-0.001,-0.01,-0.018000000000000002,-0.022000000000000002,-0.026000000000000002,-0.027000000000000003,-0.027999999999999997,-0.027999999999999997,-0.027999999999999997,-0.027999999999999997,-0.027000000000000003,-0.026000000000000002,-0.026000000000000002,-0.026000000000000002,-0.027000000000000003,-0.027999999999999997,-0.028999999999999998,-0.03,-0.031,-0.031,-0.031,-0.03,-0.027999999999999997,-0.026000000000000002,-0.024,-0.023,-0.023,-0.021,-0.019,-0.017,-0.015,-0.013000000000000001,-0.011000000000000001,-0.009000000000000001,-0.006,-0.003,0.001,0.005,0.009000000000000001,0.011000000000000001,0.013000000000000001,0.015,0.016,0.018000000000000002,0.021,0.023,0.026000000000000002,0.028999999999999998,0.032,0.037000000000000005,0.040999999999999995,0.045,0.049,0.052000000000000005,0.055999999999999994,0.057999999999999996,0.06,0.062,0.064,0.066,0.068,0.07,0.071,0.07200000000000001,0.073,0.07200000000000001,0.07,N
2,0.19699999999999998,0.19899999999999998,0.20600000000000002,0.213,0.22399999999999998,0.235,0.24100000000000002,0.247,0.242,0.237,0.215,0.19399999999999998,0.165,0.135,0.105,0.075,0.049,0.023,0.005,-0.013000000000000001,-0.025,-0.037000000000000005,-0.044000000000000004,-0.051,-0.055,-0.059000000000000004,-0.06,-0.062,-0.061,-0.06,-0.06,-0.059000000000000004,-0.06,-0.06,-0.063,-0.065,-0.066,-0.068,-0.07,-0.07200000000000001,-0.07400000000000001,-0.076,-0.076,-0.077,-0.078,-0.08,-0.08199999999999999,-0.083,-0.084,-0.084,-0.083,-0.08199999999999999,-0.08,-0.079,-0.077,-0.076,-0.075,-0.073,-0.07200000000000001,-0.071,-0.069,-0.066,-0.063,-0.06,-0.059000000000000004,-0.057,-0.055999999999999994,-0.054000000000000006,-0.05,-0.045,-0.04,-0.036000000000000004,-0.032,-0.027999999999999997,-0.024,-0.021,-0.017,-0.013999999999999999,-0.013000000000000001,-0.012,-0.012,-0.012,-0.011000000000000001,-0.011000000000000001,-0.009000000000000001,-0.008,-0.005,-0.002,0.0,0.002,0.003,0.003,0.001,-0.002,-0.006,-0.011000000000000001,-0.017,-0.023,-0.028999999999999998,-0.036000000000000004,-0.043,-0.051,-0.059000000000000004,-0.068,-0.078,-0.087,-0.09699999999999999,-0.107,-0.11599999999999999,-0.124,-0.133,-0.141,-0.15,-0.158,-0.16399999999999998,-0.17,-0.175,-0.18,-0.185,-0.19,-0.193,-0.195,-0.19399999999999998,-0.193,-0.191,-0.18899999999999997,-0.18600000000000003,-0.184,-0.18,-0.177,-0.17300000000000001,-0.168,-0.16399999999999998,-0.159,-0.154,-0.149,-0.14400000000000002,-0.138,-0.132,-0.126,-0.12,-0.114,-0.11,-0.106,-0.10099999999999999,-0.096,-0.091,-0.085,-0.08,-0.075,-0.07200000000000001,-0.07,-0.07,-0.07,-0.073,-0.076,-0.08,-0.084,-0.087,-0.091,-0.092,-0.09300000000000001,-0.091,-0.09,-0.087,-0.085,-0.08199999999999999,-0.079,-0.076,-0.073,-0.07,-0.067,-0.063,-0.059000000000000004,-0.054000000000000006,-0.049,-0.04,-0.032,-0.021,-0.01,0.002,0.013999999999999999,0.022000000000000002,0.03,0.033,0.036000000000000004,0.036000000000000004,0.036000000000000004,0.035,0.035,0.04,0.046,0.059000000000000004,0.071,0.08199999999999999,0.09300000000000001,0.096,0.099,0.092,0.085,0.073,0.06,0.049,0.037000000000000005,0.028999999999999998,0.022000000000000002,0.019,0.016,0.013999999999999999,0.012,0.004,-0.003,-0.015,-0.027000000000000003,-0.043,-0.057999999999999996,-0.07400000000000001,-0.09,-0.10300000000000001,-0.11599999999999999,-0.125,-0.135,-0.14300000000000002,-0.15,-0.155,-0.16,-0.16399999999999998,-0.16699999999999998,-0.16899999999999998,-0.171,-0.171,-0.172,-0.172,-0.172,-0.17,-0.16699999999999998,-0.16399999999999998,-0.161,-0.16,-0.159,-0.158,-0.158,-0.159,-0.161,-0.163,-0.165,-0.16699999999999998,-0.168,-0.16899999999999998,-0.17,-0.17,-0.171,-0.171,-0.171,-0.171,-0.171,-0.17,-0.17,-0.168,-0.16699999999999998,-0.166,-0.165,-0.166,-0.166,-0.166,-0.165,-0.163,-0.161,-0.154,-0.147,-0.129,-0.11,-0.07400000000000001,-0.038,0.017,0.07200000000000001,0.14300000000000002,0.214,0.285,0.355,0.405,0.455,0.47,0.485,0.46399999999999997,0.44299999999999995,0.396,0.35,0.29600000000000004,0.243,0.19899999999999998,0.156,0.131,0.106,0.10099999999999999,0.096,0.10400000000000001,0.111,0.12300000000000001,0.134,0.142,0.15,0.153,0.156,0.154,0.153,0.153,0.152,0.155,0.158,0.16,0.163,0.158,0.152,0.136,0.12,0.09300000000000001,0.067,0.037000000000000005,0.008,-0.019,-0.045,-0.064,-0.08199999999999999,-0.092,-0.10300000000000001,-0.105,-0.107,-0.105,-0.10300000000000001,-0.098,-0.09300000000000001,-0.087,-0.08199999999999999,-0.079,-0.076,-0.075,-0.073,-0.07200000000000001,-0.071,-0.07,-0.068,-0.067,-0.066,-0.065,-0.065,-0.064,-0.063,-0.061,-0.059000000000000004,-0.059000000000000004,-0.059000000000000004,-0.059000000000000004,-0.057999999999999996,-0.057,-0.055999999999999994,-0.055,-0.054000000000000006,-0.053,-0.052000000000000005,-0.052000000000000005,-0.052000000000000005,-0.051,-0.051,-0.048,-0.045,-0.042,-0.039,-0.035,-0.031,-0.027999999999999997,-0.025,-0.022000000000000002,-0.018000000000000002,-0.015,-0.012,-0.008,-0.004,-0.001,0.003,0.006,0.01,0.011000000000000001,0.013000000000000001,0.013999999999999999,0.015,0.016,0.016,0.016,0.015,0.015,0.015,0.015,0.015,0.015,0.015,0.015,0.015,0.015,0.013999999999999999,0.011000000000000001,0.009000000000000001,0.003,-0.002,-0.009000000000000001,-0.015,-0.023,-0.031,-0.04,-0.049,-0.057999999999999996,-0.067,-0.075,-0.083,-0.091,-0.099,-0.106,-0.113,-0.11900000000000001,-0.124,-0.128,-0.132,-0.134,-0.136,-0.13699999999999998,-0.13699999999999998,-0.136,-0.134,-0.13,-0.125,-0.11800000000000001,-0.111,-0.10300000000000001,-0.095,-0.087,-0.079,-0.07,-0.06,-0.052000000000000005,-0.043,-0.036000000000000004,-0.027999999999999997,-0.02,-0.012,-0.005,0.002,0.008,0.013000000000000001,0.017,0.022000000000000002,0.026000000000000002,0.03,0.035,0.04,0.044000000000000004,0.049,0.05,0.052000000000000005,0.051,0.051,0.051,0.052000000000000005,0.053,0.054000000000000006,0.055999999999999994,0.057,0.057999999999999996,0.059000000000000004,0.061,0.063,0.064,0.065,0.066,0.067,0.069,0.071,0.073,0.076,0.079,0.08199999999999999,0.087,0.09300000000000001,0.102,0.111,0.12300000000000001,0.134,0.14400000000000002,0.154,0.16399999999999998,0.17300000000000001,0.18,0.187,0.193,0.19899999999999998,0.20600000000000002,0.213,0.222,0.231,0.23600000000000002,0.24100000000000002,0.239,0.237,0.226,0.215,0.198,0.18100000000000002,0.16699999999999998,0.152,0.14400000000000002,0.136,0.132,0.127,0.125,0.122,0.11599999999999999,0.11,0.099,0.08900000000000001,0.075,0.06,0.045,0.03,0.017,0.004,-0.006999999999999999,-0.018000000000000002,-0.027000000000000003,-0.036000000000000004,-0.040999999999999995,-0.046,-0.05,-0.053,-0.055,-0.057,-0.059000000000000004,-0.06,-0.063,-0.065,-0.066,-0.068,-0.07,-0.07200000000000001,-0.073,-0.075,-0.073,-0.07200000000000001,-0.071,-0.07,-0.069,-0.068,-0.067,-0.067,-0.067,-0.068,-0.067,-0.067,-0.066,-0.065,-0.064,-0.063,-0.06,-0.057999999999999996,-0.057,-0.055999999999999994,-0.055999999999999994,-0.055,-0.055,-0.055,-0.055999999999999994,-0.057,-0.057999999999999996,-0.057999999999999996,-0.054000000000000006,-0.05,-0.033,-0.017,0.02,0.057,0.12,0.183,0.267,0.35100000000000003,0.441,0.53,0.602,0.674,0.706,0.7390000000000001,0.722,0.706,0.653,0.599,0.529,0.45899999999999996,0.39399999999999996,0.32799999999999996,0.282,0.237,0.217,0.198,0.198,0.19899999999999998,0.209,0.21899999999999997,0.22899999999999998,0.24,0.24600000000000002,0.253,0.259,0.265,0.273,0.282,0.293,0.305,0.309,0.314,0.307,0.3,0.278,0.256,0.222,0.18899999999999997,0.154,0.12,0.092,0.065,0.045,0.026000000000000002,0.012,-0.001,-0.01,-0.018000000000000002,-0.022000000000000002,-0.026000000000000002,-0.027000000000000003,-0.027999999999999997,-0.027999999999999997,-0.027999999999999997,-0.027999999999999997,-0.027000000000000003,-0.026000000000000002,-0.026000000000000002,-0.026000000000000002,-0.027000000000000003,-0.027999999999999997,-0.028999999999999998,-0.03,-0.031,-0.031,-0.031,-0.03,-0.027999999999999997,-0.026000000000000002,-0.024,-0.023,-0.023,-0.021,-0.019,-0.017,-0.015,-0.013000000000000001,-0.011000000000000001,-0.009000000000000001,-0.006,-0.003,0.001,0.005,0.009000000000000001,0.011000000000000001,0.013000000000000001,0.015,0.016,0.018000000000000002,0.021,0.023,0.026000000000000002,0.028999999999999998,0.032,0.037000000000000005,0.040999999999999995,0.045,0.049,0.052000000000000005,0.055999999999999994,0.057999999999999996,0.06,0.062,0.064,0.066,0.068,0.07,0.071,0.07200000000000001,0.073,0.07200000000000001,0.07,0.067,0.065,0.061,0.057,0.053,0.049,0.043,0.038,0.033,0.027999999999999997,0.022000000000000002,0.016,0.008,-0.001,-0.011000000000000001,-0.021,-0.031,-0.040999999999999995,-0.053,-0.065,-0.077,-0.08900000000000001,-0.1,-0.111,-0.121,-0.131,-0.138,-0.145,-0.149,-0.153,-0.156,-0.158,-0.158,-0.159,-0.158,-0.158,-0.156,-0.154,-0.151,-0.147,-0.142,-0.13699999999999998,-0.13,-0.12300000000000001,-0.11599999999999999,-0.10800000000000001,-0.1,-0.092,-0.084,-0.077,-0.07,-0.064,-0.057999999999999996,-0.053,-0.048,-0.042,-0.038,-0.033,-0.03,-0.026000000000000002,-0.022000000000000002,-0.018000000000000002,-0.015,-0.011000000000000001,-0.008,-0.005,-0.003,0.0,0.002,0.004,0.006,0.009000000000000001,0.011000000000000001,0.013000000000000001,0.013999999999999999,0.015,0.016,0.016,0.016,0.015,0.015,0.015,0.015,0.015,0.016,0.016,0.019,0.022000000000000002,0.027999999999999997,0.035,0.043,0.052000000000000005,0.063,0.073,0.086,0.098,0.10800000000000001,0.11800000000000001,0.12300000000000001,0.129,0.133,0.138,0.145,0.152,0.161,0.17,0.175,0.18,0.179,0.17800000000000002,0.16899999999999998,0.16,0.14400000000000002,0.129,0.114,0.099,0.092,0.084,0.08199999999999999,0.08,0.078,0.076,0.07,0.064,0.054000000000000006,0.044000000000000004,0.031,0.017,0.002,-0.013999999999999999,-0.027999999999999997,-0.040999999999999995,-0.053,-0.065,-0.073,-0.08199999999999999,-0.087,-0.09300000000000001,-0.095,-0.09699999999999999,-0.099,-0.1,-0.10300000000000001,-0.105,-0.10800000000000001,-0.111,-0.113,-0.11599999999999999,-0.11699999999999999,-0.11900000000000001,-0.12,-0.121,-0.121,-0.122,-0.12300000000000001,-0.124,-0.125,-0.125,-0.125,-0.124,-0.12300000000000001,-0.121,-0.12,-0.11900000000000001,-0.11599999999999999,-0.113,-0.11199999999999999,-0.11,-0.107,-0.105,-0.102,-0.099,-0.09699999999999999,-0.095,-0.094,-0.09300000000000001,-0.09300000000000001,-0.09300000000000001,-0.09300000000000001,-0.094,-0.092,-0.091,-0.079,-0.068,-0.038,-0.009000000000000001,0.046,0.1,0.18100000000000002,0.261,0.354,0.446,0.528,0.609,0.655,0.701,0.6990000000000001,0.698,0.653,0.608,0.539,0.47100000000000003,0.4,0.32899999999999996,0.275,0.22,0.19,0.16,0.154,0.149,0.158,0.166,0.17800000000000002,0.18899999999999997,0.19699999999999998,0.204,0.21,0.21600000000000003,0.223,0.23,0.24100000000000002,0.252,0.26,0.268,0.266,0.263,0.248,0.233,0.20600000000000002,0.17800000000000002,0.146,0.114,0.085,0.055,0.033,0.011000000000000001,-0.004,-0.019,-0.028999999999999998,-0.039,-0.044000000000000004,-0.05,-0.051,-0.053,-0.054000000000000006,-0.055,-0.055999999999999994,-0.055999999999999994,-0.055999999999999994,-0.055999999999999994,-0.055999999999999994,-0.055,-0.055,-0.055,-0.055999999999999994,-0.055999999999999994,-0.055999999999999994,-0.055999999999999994,-0.055,-0.054000000000000006,-0.053,-0.052000000000000005,-0.051,-0.051,-0.049,-0.046,-0.045,-0.043,-0.04,-0.038,-0.035,-0.031,-0.028999999999999998,-0.027000000000000003,-0.024,-0.022000000000000002,-0.019,-0.016,-0.012,-0.009000000000000001,-0.004,0.0,0.005,0.01,0.013000000000000001,0.017,0.019,0.021,0.024,0.027000000000000003,0.031,0.035,0.038,0.040999999999999995,0.044000000000000004,0.048,0.05,0.052000000000000005,0.053,0.054000000000000006,0.053,0.053,0.052000000000000005,0.051,N
3,0.156,0.154,0.153,0.153,0.152,0.155,0.158,0.16,0.163,0.158,0.152,0.136,0.12,0.09300000000000001,0.067,0.037000000000000005,0.008,-0.019,-0.045,-0.064,-0.08199999999999999,-0.092,-0.10300000000000001,-0.105,-0.107,-0.105,-0.10300000000000001,-0.098,-0.09300000000000001,-0.087,-0.08199999999999999,-0.079,-0.076,-0.075,-0.073,-0.07200000000000001,-0.071,-0.07,-0.068,-0.067,-0.066,-0.065,-0.065,-0.064,-0.063,-0.061,-0.059000000000000004,-0.059000000000000004,-0.059000000000000004,-0.059000000000000004,-0.057999999999999996,-0.057,-0.055999999999999994,-0.055,-0.054000000000000006,-0.053,-0.052000000000000005,-0.052000000000000005,-0.052000000000000005,-0.051,-0.051,-0.048,-0.045,-0.042,-0.039,-0.035,-0.031,-0.027999999999999997,-0.025,-0.022000000000000002,-0.018000000000000002,-0.015,-0.012,-0.008,-0.004,-0.001,0.003,0.006,0.01,0.011000000000000001,0.013000000000000001,0.013999999999999999,0.015,0.016,0.016,0.016,0.015,0.015,0.015,0.015,0.015,0.015,0.015,0.015,0.015,0.015,0.013999999999999999,0.011000000000000001,0.009000000000000001,0.003,-0.002,-0.009000000000000001,-0.015,-0.023,-0.031,-0.04,-0.049,-0.057999999999999996,-0.067,-0.075,-0.083,-0.091,-0.099,-0.106,-0.113,-0.11900000000000001,-0.124,-0.128,-0.132,-0.134,-0.136,-0.13699999999999998,-0.13699999999999998,-0.136,-0.134,-0.13,-0.125,-0.11800000000000001,-0.111,-0.10300000000000001,-0.095,-0.087,-0.079,-0.07,-0.06,-0.052000000000000005,-0.043,-0.036000000000000004,-0.027999999999999997,-0.02,-0.012,-0.005,0.002,0.008,0.013000000000000001,0.017,0.022000000000000002,0.026000000000000002,0.03,0.035,0.04,0.044000000000000004,0.049,0.05,0.052000000000000005,0.051,0.051,0.051,0.052000000000000005,0.053,0.054000000000000006,0.055999999999999994,0.057,0.057999999999999996,0.059000000000000004,0.061,0.063,0.064,0.065,0.066,0.067,0.069,0.071,0.073,0.076,0.079,0.08199999999999999,0.087,0.09300000000000001,0.102,0.111,0.12300000000000001,0.134,0.14400000000000002,0.154,0.16399999999999998,0.17300000000000001,0.18,0.187,0.193,0.19899999999999998,0.20600000000000002,0.213,0.222,0.231,0.23600000000000002,0.24100000000000002,0.239,0.237,0.226,0.215,0.198,0.18100000000000002,0.16699999999999998,0.152,0.14400000000000002,0.136,0.132,0.127,0.125,0.122,0.11599999999999999,0.11,0.099,0.08900000000000001,0.075,0.06,0.045,0.03,0.017,0.004,-0.006999999999999999,-0.018000000000000002,-0.027000000000000003,-0.036000000000000004,-0.040999999999999995,-0.046,-0.05,-0.053,-0.055,-0.057,-0.059000000000000004,-0.06,-0.063,-0.065,-0.066,-0.068,-0.07,-0.07200000000000001,-0.073,-0.075,-0.073,-0.07200000000000001,-0.071,-0.07,-0.069,-0.068,-0.067,-0.067,-0.067,-0.068,-0.067,-0.067,-0.066,-0.065,-0.064,-0.063,-0.06,-0.057999999999999996,-0.057,-0.055999999999999994,-0.055999999999999994,-0.055,-0.055,-0.055,-0.055999999999999994,-0.057,-0.057999999999999996,-0.057999999999999996,-0.054000000000000006,-0.05,-0.033,-0.017,0.02,0.057,0.12,0.183,0.267,0.35100000000000003,0.441,0.53,0.602,0.674,0.706,0.7390000000000001,0.722,0.706,0.653,0.599,0.529,0.45899999999999996,0.39399999999999996,0.32799999999999996,0.282,0.237,0.217,0.198,0.198,0.19899999999999998,0.209,0.21899999999999997,0.22899999999999998,0.24,0.24600000000000002,0.253,0.259,0.265,0.273,0.282,0.293,0.305,0.309,0.314,0.307,0.3,0.278,0.256,0.222,0.18899999999999997,0.154,0.12,0.092,0.065,0.045,0.026000000000000002,0.012,-0.001,-0.01,-0.018000000000000002,-0.022000000000000002,-0.026000000000000002,-0.027000000000000003,-0.027999999999999997,-0.027999999999999997,-0.027999999999999997,-0.027999999999999997,-0.027000000000000003,-0.026000000000000002,-0.026000000000000002,-0.026000000000000002,-0.027000000000000003,-0.027999999999999997,-0.028999999999999998,-0.03,-0.031,-0.031,-0.031,-0.03,-0.027999999999999997,-0.026000000000000002,-0.024,-0.023,-0.023,-0.021,-0.019,-0.017,-0.015,-0.013000000000000001,-0.011000000000000001,-0.009000000000000001,-0.006,-0.003,0.001,0.005,0.009000000000000001,0.011000000000000001,0.013000000000000001,0.015,0.016,0.018000000000000002,0.021,0.023,0.026000000000000002,0.028999999999999998,0.032,0.037000000000000005,0.040999999999999995,0.045,0.049,0.052000000000000005,0.055999999999999994,0.057999999999999996,0.06,0.062,0.064,0.066,0.068,0.07,0.071,0.07200000000000001,0.073,0.07200000000000001,0.07,0.067,0.065,0.061,0.057,0.053,0.049,0.043,0.038,0.033,0.027999999999999997,0.022000000000000002,0.016,0.008,-0.001,-0.011000000000000001,-0.021,-0.031,-0.040999999999999995,-0.053,-0.065,-0.077,-0.08900000000000001,-0.1,-0.111,-0.121,-0.131,-0.138,-0.145,-0.149,-0.153,-0.156,-0.158,-0.158,-0.159,-0.158,-0.158,-0.156,-0.154,-0.151,-0.147,-0.142,-0.13699999999999998,-0.13,-0.12300000000000001,-0.11599999999999999,-0.10800000000000001,-0.1,-0.092,-0.084,-0.077,-0.07,-0.064,-0.057999999999999996,-0.053,-0.048,-0.042,-0.038,-0.033,-0.03,-0.026000000000000002,-0.022000000000000002,-0.018000000000000002,-0.015,-0.011000000000000001,-0.008,-0.005,-0.003,0.0,0.002,0.004,0.006,0.009000000000000001,0.011000000000000001,0.013000000000000001,0.013999999999999999,0.015,0.016,0.016,0.016,0.015,0.015,0.015,0.015,0.015,0.016,0.016,0.019,0.022000000000000002,0.027999999999999997,0.035,0.043,0.052000000000000005,0.063,0.073,0.086,0.098,0.10800000000000001,0.11800000000000001,0.12300000000000001,0.129,0.133,0.138,0.145,0.152,0.161,0.17,0.175,0.18,0.179,0.17800000000000002,0.16899999999999998,0.16,0.14400000000000002,0.129,0.114,0.099,0.092,0.084,0.08199999999999999,0.08,0.078,0.076,0.07,0.064,0.054000000000000006,0.044000000000000004,0.031,0.017,0.002,-0.013999999999999999,-0.027999999999999997,-0.040999999999999995,-0.053,-0.065,-0.073,-0.08199999999999999,-0.087,-0.09300000000000001,-0.095,-0.09699999999999999,-0.099,-0.1,-0.10300000000000001,-0.105,-0.10800000000000001,-0.111,-0.113,-0.11599999999999999,-0.11699999999999999,-0.11900000000000001,-0.12,-0.121,-0.121,-0.122,-0.12300000000000001,-0.124,-0.125,-0.125,-0.125,-0.124,-0.12300000000000001,-0.121,-0.12,-0.11900000000000001,-0.11599999999999999,-0.113,-0.11199999999999999,-0.11,-0.107,-0.105,-0.102,-0.099,-0.09699999999999999,-0.095,-0.094,-0.09300000000000001,-0.09300000000000001,-0.09300000000000001,-0.09300000000000001,-0.094,-0.092,-0.091,-0.079,-0.068,-0.038,-0.009000000000000001,0.046,0.1,0.18100000000000002,0.261,0.354,0.446,0.528,0.609,0.655,0.701,0.6990000000000001,0.698,0.653,0.608,0.539,0.47100000000000003,0.4,0.32899999999999996,0.275,0.22,0.19,0.16,0.154,0.149,0.158,0.166,0.17800000000000002,0.18899999999999997,0.19699999999999998,0.204,0.21,0.21600000000000003,0.223,0.23,0.24100000000000002,0.252,0.26,0.268,0.266,0.263,0.248,0.233,0.20600000000000002,0.17800000000000002,0.146,0.114,0.085,0.055,0.033,0.011000000000000001,-0.004,-0.019,-0.028999999999999998,-0.039,-0.044000000000000004,-0.05,-0.051,-0.053,-0.054000000000000006,-0.055,-0.055999999999999994,-0.055999999999999994,-0.055999999999999994,-0.055999999999999994,-0.055999999999999994,-0.055,-0.055,-0.055,-0.055999999999999994,-0.055999999999999994,-0.055999999999999994,-0.055999999999999994,-0.055,-0.054000000000000006,-0.053,-0.052000000000000005,-0.051,-0.051,-0.049,-0.046,-0.045,-0.043,-0.04,-0.038,-0.035,-0.031,-0.028999999999999998,-0.027000000000000003,-0.024,-0.022000000000000002,-0.019,-0.016,-0.012,-0.009000000000000001,-0.004,0.0,0.005,0.01,0.013000000000000001,0.017,0.019,0.021,0.024,0.027000000000000003,0.031,0.035,0.038,0.040999999999999995,0.044000000000000004,0.048,0.05,0.052000000000000005,0.053,0.054000000000000006,0.053,0.053,0.052000000000000005,0.051,0.05,0.05,0.048,0.046,0.044000000000000004,0.042,0.04,0.038,0.036000000000000004,0.033,0.028999999999999998,0.025,0.018000000000000002,0.012,0.004,-0.004,-0.013999999999999999,-0.024,-0.035,-0.045,-0.057,-0.069,-0.08,-0.092,-0.10099999999999999,-0.11,-0.11800000000000001,-0.126,-0.133,-0.14,-0.145,-0.149,-0.152,-0.154,-0.155,-0.156,-0.154,-0.152,-0.14800000000000002,-0.145,-0.141,-0.13699999999999998,-0.133,-0.129,-0.124,-0.12,-0.115,-0.11,-0.105,-0.099,-0.092,-0.085,-0.079,-0.07200000000000001,-0.067,-0.062,-0.057999999999999996,-0.054000000000000006,-0.05,-0.046,-0.044000000000000004,-0.042,-0.04,-0.038,-0.035,-0.032,-0.03,-0.027000000000000003,-0.025,-0.024,-0.023,-0.023,-0.022000000000000002,-0.021,-0.02,-0.019,-0.02,-0.021,-0.021,-0.021,-0.021,-0.021,-0.02,-0.019,-0.017,-0.015,-0.01,-0.005,0.0,0.005,0.012,0.018000000000000002,0.025,0.032,0.042,0.051,0.06,0.07,0.078,0.086,0.092,0.09699999999999999,0.10300000000000001,0.109,0.11599999999999999,0.12300000000000001,0.132,0.141,0.149,0.157,0.157,0.157,0.14800000000000002,0.139,0.125,0.11,0.096,0.081,0.071,0.06,0.055999999999999994,0.052000000000000005,0.05,0.049,0.044000000000000004,0.039,0.03,0.021,0.008,-0.004,-0.019,-0.035,-0.05,-0.065,-0.077,-0.08900000000000001,-0.09699999999999999,-0.106,-0.11199999999999999,-0.11800000000000001,-0.121,-0.124,-0.126,-0.127,-0.13,-0.132,-0.134,-0.136,-0.13699999999999998,-0.138,-0.138,-0.138,-0.13699999999999998,-0.135,-0.134,-0.133,-0.132,-0.131,-0.131,-0.131,-0.131,-0.131,-0.131,-0.131,-0.131,-0.131,-0.131,-0.131,-0.13,-0.13,-0.129,-0.127,-0.126,-0.125,-0.124,-0.122,-0.12,-0.11800000000000001,-0.11599999999999999,-0.114,-0.114,-0.114,-0.113,-0.111,-0.102,-0.09300000000000001,-0.067,-0.040999999999999995,0.01,0.062,0.138,0.215,0.306,0.397,0.48,0.563,0.611,0.66,0.6609999999999999,0.662,0.621,0.58,0.513,0.446,0.377,0.308,0.255,0.203,0.174,0.146,0.139,0.132,0.138,0.14400000000000002,0.153,0.163,0.17,0.177,0.183,0.188,0.195,0.203,0.214,0.226,0.23800000000000002,0.249,0.251,0.253,0.24,0.228,0.203,0.17800000000000002,0.14800000000000002,0.11800000000000001,0.08900000000000001,0.06,0.037000000000000005,0.013999999999999999,-0.003,-0.019,-0.032,-0.044000000000000004,-0.051,-0.057999999999999996,-0.062,-0.065,-0.066,-0.068,-0.067,-0.067,-0.065,-0.064,-0.062,-0.059000000000000004,-0.059000000000000004,-0.059000000000000004,-0.059000000000000004,-0.059000000000000004,-0.059000000000000004,-0.059000000000000004,-0.059000000000000004,-0.059000000000000004,-0.059000000000000004,-0.059000000000000004,-0.059000000000000004,-0.057999999999999996,-0.057,-0.055999999999999994,-0.055999999999999994,-0.055,-0.055999999999999994,-0.055999999999999994,-0.057,-0.057999999999999996,-0.057,-0.055,-0.052000000000000005,-0.05,-0.046,-0.042,-0.038,-0.033,-0.027999999999999997,-0.023,-0.018000000000000002,-0.013000000000000001,-0.008,-0.003,0.001,0.005,0.008,0.01,0.012,0.015,0.018000000000000002,0.021,0.023,0.026000000000000002,0.028999999999999998,0.031,0.035,0.038,0.04,N
4,0.265,0.273,0.282,0.293,0.305,0.309,0.314,0.307,0.3,0.278,0.256,0.222,0.18899999999999997,0.154,0.12,0.092,0.065,0.045,0.026000000000000002,0.012,-0.001,-0.01,-0.018000000000000002,-0.022000000000000002,-0.026000000000000002,-0.027000000000000003,-0.027999999999999997,-0.027999999999999997,-0.027999999999999997,-0.027999999999999997,-0.027000000000000003,-0.026000000000000002,-0.026000000000000002,-0.026000000000000002,-0.027000000000000003,-0.027999999999999997,-0.028999999999999998,-0.03,-0.031,-0.031,-0.031,-0.03,-0.027999999999999997,-0.026000000000000002,-0.024,-0.023,-0.023,-0.021,-0.019,-0.017,-0.015,-0.013000000000000001,-0.011000000000000001,-0.009000000000000001,-0.006,-0.003,0.001,0.005,0.009000000000000001,0.011000000000000001,0.013000000000000001,0.015,0.016,0.018000000000000002,0.021,0.023,0.026000000000000002,0.028999999999999998,0.032,0.037000000000000005,0.040999999999999995,0.045,0.049,0.052000000000000005,0.055999999999999994,0.057999999999999996,0.06,0.062,0.064,0.066,0.068,0.07,0.071,0.07200000000000001,0.073,0.07200000000000001,0.07,0.067,0.065,0.061,0.057,0.053,0.049,0.043,0.038,0.033,0.027999999999999997,0.022000000000000002,0.016,0.008,-0.001,-0.011000000000000001,-0.021,-0.031,-0.040999999999999995,-0.053,-0.065,-0.077,-0.08900000000000001,-0.1,-0.111,-0.121,-0.131,-0.138,-0.145,-0.149,-0.153,-0.156,-0.158,-0.158,-0.159,-0.158,-0.158,-0.156,-0.154,-0.151,-0.147,-0.142,-0.13699999999999998,-0.13,-0.12300000000000001,-0.11599999999999999,-0.10800000000000001,-0.1,-0.092,-0.084,-0.077,-0.07,-0.064,-0.057999999999999996,-0.053,-0.048,-0.042,-0.038,-0.033,-0.03,-0.026000000000000002,-0.022000000000000002,-0.018000000000000002,-0.015,-0.011000000000000001,-0.008,-0.005,-0.003,0.0,0.002,0.004,0.006,0.009000000000000001,0.011000000000000001,0.013000000000000001,0.013999999999999999,0.015,0.016,0.016,0.016,0.015,0.015,0.015,0.015,0.015,0.016,0.016,0.019,0.022000000000000002,0.027999999999999997,0.035,0.043,0.052000000000000005,0.063,0.073,0.086,0.098,0.10800000000000001,0.11800000000000001,0.12300000000000001,0.129,0.133,0.138,0.145,0.152,0.161,0.17,0.175,0.18,0.179,0.17800000000000002,0.16899999999999998,0.16,0.14400000000000002,0.129,0.114,0.099,0.092,0.084,0.08199999999999999,0.08,0.078,0.076,0.07,0.064,0.054000000000000006,0.044000000000000004,0.031,0.017,0.002,-0.013999999999999999,-0.027999999999999997,-0.040999999999999995,-0.053,-0.065,-0.073,-0.08199999999999999,-0.087,-0.09300000000000001,-0.095,-0.09699999999999999,-0.099,-0.1,-0.10300000000000001,-0.105,-0.10800000000000001,-0.111,-0.113,-0.11599999999999999,-0.11699999999999999,-0.11900000000000001,-0.12,-0.121,-0.121,-0.122,-0.12300000000000001,-0.124,-0.125,-0.125,-0.125,-0.124,-0.12300000000000001,-0.121,-0.12,-0.11900000000000001,-0.11599999999999999,-0.113,-0.11199999999999999,-0.11,-0.107,-0.105,-0.102,-0.099,-0.09699999999999999,-0.095,-0.094,-0.09300000000000001,-0.09300000000000001,-0.09300000000000001,-0.09300000000000001,-0.094,-0.092,-0.091,-0.079,-0.068,-0.038,-0.009000000000000001,0.046,0.1,0.18100000000000002,0.261,0.354,0.446,0.528,0.609,0.655,0.701,0.6990000000000001,0.698,0.653,0.608,0.539,0.47100000000000003,0.4,0.32899999999999996,0.275,0.22,0.19,0.16,0.154,0.149,0.158,0.166,0.17800000000000002,0.18899999999999997,0.19699999999999998,0.204,0.21,0.21600000000000003,0.223,0.23,0.24100000000000002,0.252,0.26,0.268,0.266,0.263,0.248,0.233,0.20600000000000002,0.17800000000000002,0.146,0.114,0.085,0.055,0.033,0.011000000000000001,-0.004,-0.019,-0.028999999999999998,-0.039,-0.044000000000000004,-0.05,-0.051,-0.053,-0.054000000000000006,-0.055,-0.055999999999999994,-0.055999999999999994,-0.055999999999999994,-0.055999999999999994,-0.055999999999999994,-0.055,-0.055,-0.055,-0.055999999999999994,-0.055999999999999994,-0.055999999999999994,-0.055999999999999994,-0.055,-0.054000000000000006,-0.053,-0.052000000000000005,-0.051,-0.051,-0.049,-0.046,-0.045,-0.043,-0.04,-0.038,-0.035,-0.031,-0.028999999999999998,-0.027000000000000003,-0.024,-0.022000000000000002,-0.019,-0.016,-0.012,-0.009000000000000001,-0.004,0.0,0.005,0.01,0.013000000000000001,0.017,0.019,0.021,0.024,0.027000000000000003,0.031,0.035,0.038,0.040999999999999995,0.044000000000000004,0.048,0.05,0.052000000000000005,0.053,0.054000000000000006,0.053,0.053,0.052000000000000005,0.051,0.05,0.05,0.048,0.046,0.044000000000000004,0.042,0.04,0.038,0.036000000000000004,0.033,0.028999999999999998,0.025,0.018000000000000002,0.012,0.004,-0.004,-0.013999999999999999,-0.024,-0.035,-0.045,-0.057,-0.069,-0.08,-0.092,-0.10099999999999999,-0.11,-0.11800000000000001,-0.126,-0.133,-0.14,-0.145,-0.149,-0.152,-0.154,-0.155,-0.156,-0.154,-0.152,-0.14800000000000002,-0.145,-0.141,-0.13699999999999998,-0.133,-0.129,-0.124,-0.12,-0.115,-0.11,-0.105,-0.099,-0.092,-0.085,-0.079,-0.07200000000000001,-0.067,-0.062,-0.057999999999999996,-0.054000000000000006,-0.05,-0.046,-0.044000000000000004,-0.042,-0.04,-0.038,-0.035,-0.032,-0.03,-0.027000000000000003,-0.025,-0.024,-0.023,-0.023,-0.022000000000000002,-0.021,-0.02,-0.019,-0.02,-0.021,-0.021,-0.021,-0.021,-0.021,-0.02,-0.019,-0.017,-0.015,-0.01,-0.005,0.0,0.005,0.012,0.018000000000000002,0.025,0.032,0.042,0.051,0.06,0.07,0.078,0.086,0.092,0.09699999999999999,0.10300000000000001,0.109,0.11599999999999999,0.12300000000000001,0.132,0.141,0.149,0.157,0.157,0.157,0.14800000000000002,0.139,0.125,0.11,0.096,0.081,0.071,0.06,0.055999999999999994,0.052000000000000005,0.05,0.049,0.044000000000000004,0.039,0.03,0.021,0.008,-0.004,-0.019,-0.035,-0.05,-0.065,-0.077,-0.08900000000000001,-0.09699999999999999,-0.106,-0.11199999999999999,-0.11800000000000001,-0.121,-0.124,-0.126,-0.127,-0.13,-0.132,-0.134,-0.136,-0.13699999999999998,-0.138,-0.138,-0.138,-0.13699999999999998,-0.135,-0.134,-0.133,-0.132,-0.131,-0.131,-0.131,-0.131,-0.131,-0.131,-0.131,-0.131,-0.131,-0.131,-0.131,-0.13,-0.13,-0.129,-0.127,-0.126,-0.125,-0.124,-0.122,-0.12,-0.11800000000000001,-0.11599999999999999,-0.114,-0.114,-0.114,-0.113,-0.111,-0.102,-0.09300000000000001,-0.067,-0.040999999999999995,0.01,0.062,0.138,0.215,0.306,0.397,0.48,0.563,0.611,0.66,0.6609999999999999,0.662,0.621,0.58,0.513,0.446,0.377,0.308,0.255,0.203,0.174,0.146,0.139,0.132,0.138,0.14400000000000002,0.153,0.163,0.17,0.177,0.183,0.188,0.195,0.203,0.214,0.226,0.23800000000000002,0.249,0.251,0.253,0.24,0.228,0.203,0.17800000000000002,0.14800000000000002,0.11800000000000001,0.08900000000000001,0.06,0.037000000000000005,0.013999999999999999,-0.003,-0.019,-0.032,-0.044000000000000004,-0.051,-0.057999999999999996,-0.062,-0.065,-0.066,-0.068,-0.067,-0.067,-0.065,-0.064,-0.062,-0.059000000000000004,-0.059000000000000004,-0.059000000000000004,-0.059000000000000004,-0.059000000000000004,-0.059000000000000004,-0.059000000000000004,-0.059000000000000004,-0.059000000000000004,-0.059000000000000004,-0.059000000000000004,-0.059000000000000004,-0.057999999999999996,-0.057,-0.055999999999999994,-0.055999999999999994,-0.055,-0.055999999999999994,-0.055999999999999994,-0.057,-0.057999999999999996,-0.057,-0.055,-0.052000000000000005,-0.05,-0.046,-0.042,-0.038,-0.033,-0.027999999999999997,-0.023,-0.018000000000000002,-0.013000000000000001,-0.008,-0.003,0.001,0.005,0.008,0.01,0.012,0.015,0.018000000000000002,0.021,0.023,0.026000000000000002,0.028999999999999998,0.031,0.035,0.038,0.04,0.042,0.043,0.044000000000000004,0.043,0.042,0.04,0.038,0.036000000000000004,0.035,0.032,0.028999999999999998,0.026000000000000002,0.024,0.02,0.016,0.01,0.004,-0.004,-0.012,-0.022000000000000002,-0.032,-0.044000000000000004,-0.055999999999999994,-0.066,-0.077,-0.086,-0.095,-0.105,-0.114,-0.12300000000000001,-0.131,-0.13699999999999998,-0.14400000000000002,-0.14800000000000002,-0.153,-0.156,-0.158,-0.158,-0.158,-0.156,-0.153,-0.149,-0.145,-0.14,-0.136,-0.131,-0.125,-0.121,-0.11699999999999999,-0.113,-0.109,-0.105,-0.1,-0.094,-0.087,-0.081,-0.075,-0.07,-0.065,-0.062,-0.057999999999999996,-0.055999999999999994,-0.053,-0.05,-0.048,-0.045,-0.042,-0.04,-0.039,-0.037000000000000005,-0.036000000000000004,-0.033,-0.031,-0.028999999999999998,-0.027000000000000003,-0.025,-0.023,-0.022000000000000002,-0.021,-0.019,-0.018000000000000002,-0.018000000000000002,-0.017,-0.017,-0.017,-0.018000000000000002,-0.019,-0.019,-0.019,-0.018000000000000002,-0.016,-0.012,-0.009000000000000001,-0.003,0.002,0.01,0.018000000000000002,0.027999999999999997,0.037000000000000005,0.048,0.059000000000000004,0.071,0.08199999999999999,0.09,0.098,0.10300000000000001,0.10800000000000001,0.11199999999999999,0.11599999999999999,0.122,0.129,0.136,0.14400000000000002,0.14800000000000002,0.153,0.15,0.147,0.135,0.12300000000000001,0.107,0.091,0.077,0.064,0.057999999999999996,0.052000000000000005,0.05,0.049,0.046,0.044000000000000004,0.038,0.031,0.021,0.01,-0.004,-0.018000000000000002,-0.034,-0.05,-0.063,-0.077,-0.08800000000000001,-0.099,-0.106,-0.113,-0.11699999999999999,-0.12,-0.122,-0.124,-0.126,-0.127,-0.13,-0.132,-0.134,-0.136,-0.13699999999999998,-0.138,-0.139,-0.139,-0.139,-0.138,-0.138,-0.138,-0.138,-0.138,-0.138,-0.13699999999999998,-0.136,-0.135,-0.134,-0.134,-0.133,-0.132,-0.13,-0.129,-0.128,-0.127,-0.126,-0.125,-0.12300000000000001,-0.121,-0.11800000000000001,-0.11599999999999999,-0.114,-0.11199999999999999,-0.11199999999999999,-0.11199999999999999,-0.11199999999999999,-0.111,-0.106,-0.1,-0.084,-0.067,-0.031,0.005,0.068,0.131,0.213,0.29600000000000004,0.38299999999999995,0.47,0.5379999999999999,0.606,0.634,0.6629999999999999,0.644,0.625,0.5710000000000001,0.516,0.446,0.376,0.313,0.249,0.209,0.168,0.152,0.136,0.138,0.139,0.149,0.159,0.16699999999999998,0.17600000000000002,0.182,0.188,0.193,0.198,0.20600000000000002,0.214,0.225,0.235,0.242,0.248,0.24600000000000002,0.243,0.22699999999999998,0.212,0.185,0.158,0.128,0.098,0.071,0.044000000000000004,0.023,0.002,-0.013000000000000001,-0.028999999999999998,-0.038,-0.048,-0.052000000000000005,-0.057,-0.059000000000000004,-0.06,-0.061,-0.062,-0.062,-0.063,-0.063,-0.063,-0.062,-0.06,-0.059000000000000004,-0.057999999999999996,-0.057999999999999996,-0.057,-0.059000000000000004,-0.06,-0.064,-0.067,-0.069,-0.07,-0.07200000000000001,-0.073,-0.073,-0.07200000000000001,-0.071,-0.07,-0.069,-0.067,-0.065,-0.063,-0.06,-0.057999999999999996,-0.057,-0.055999999999999994,-0.055999999999999994,-0.055,-0.055,-0.055,-0.054000000000000006,-0.053,-0.049,-0.044000000000000004,-0.039,-0.033,-0.03,-0.026000000000000002,-0.022000000000000002,-0.018000000000000002,-0.013000000000000001,-0.009000000000000001,-0.004,0.001,0.005,0.009000000000000001,0.011000000000000001,0.013000000000000001,0.013999999999999999,N
5,0.21,0.21600000000000003,0.223,0.23,0.24100000000000002,0.252,0.26,0.268,0.266,0.263,0.248,0.233,0.20600000000000002,0.17800000000000002,0.146,0.114,0.085,0.055,0.033,0.011000000000000001,-0.004,-0.019,-0.028999999999999998,-0.039,-0.044000000000000004,-0.05,-0.051,-0.053,-0.054000000000000006,-0.055,-0.055999999999999994,-0.055999999999999994,-0.055999999999999994,-0.055999999999999994,-0.055999999999999994,-0.055,-0.055,-0.055,-0.055999999999999994,-0.055999999999999994,-0.055999999999999994,-0.055999999999999994,-0.055,-0.054000000000000006,-0.053,-0.052000000000000005,-0.051,-0.051,-0.049,-0.046,-0.045,-0.043,-0.04,-0.038,-0.035,-0.031,-0.028999999999999998,-0.027000000000000003,-0.024,-0.022000000000000002,-0.019,-0.016,-0.012,-0.009000000000000001,-0.004,0.0,0.005,0.01,0.013000000000000001,0.017,0.019,0.021,0.024,0.027000000000000003,0.031,0.035,0.038,0.040999999999999995,0.044000000000000004,0.048,0.05,0.052000000000000005,0.053,0.054000000000000006,0.053,0.053,0.052000000000000005,0.051,0.05,0.05,0.048,0.046,0.044000000000000004,0.042,0.04,0.038,0.036000000000000004,0.033,0.028999999999999998,0.025,0.018000000000000002,0.012,0.004,-0.004,-0.013999999999999999,-0.024,-0.035,-0.045,-0.057,-0.069,-0.08,-0.092,-0.10099999999999999,-0.11,-0.11800000000000001,-0.126,-0.133,-0.14,-0.145,-0.149,-0.152,-0.154,-0.155,-0.156,-0.154,-0.152,-0.14800000000000002,-0.145,-0.141,-0.13699999999999998,-0.133,-0.129,-0.124,-0.12,-0.115,-0.11,-0.105,-0.099,-0.092,-0.085,-0.079,-0.07200000000000001,-0.067,-0.062,-0.057999999999999996,-0.054000000000000006,-0.05,-0.046,-0.044000000000000004,-0.042,-0.04,-0.038,-0.035,-0.032,-0.03,-0.027000000000000003,-0.025,-0.024,-0.023,-0.023,-0.022000000000000002,-0.021,-0.02,-0.019,-0.02,-0.021,-0.021,-0.021,-0.021,-0.021,-0.02,-0.019,-0.017,-0.015,-0.01,-0.005,0.0,0.005,0.012,0.018000000000000002,0.025,0.032,0.042,0.051,0.06,0.07,0.078,0.086,0.092,0.09699999999999999,0.10300000000000001,0.109,0.11599999999999999,0.12300000000000001,0.132,0.141,0.149,0.157,0.157,0.157,0.14800000000000002,0.139,0.125,0.11,0.096,0.081,0.071,0.06,0.055999999999999994,0.052000000000000005,0.05,0.049,0.044000000000000004,0.039,0.03,0.021,0.008,-0.004,-0.019,-0.035,-0.05,-0.065,-0.077,-0.08900000000000001,-0.09699999999999999,-0.106,-0.11199999999999999,-0.11800000000000001,-0.121,-0.124,-0.126,-0.127,-0.13,-0.132,-0.134,-0.136,-0.13699999999999998,-0.138,-0.138,-0.138,-0.13699999999999998,-0.135,-0.134,-0.133,-0.132,-0.131,-0.131,-0.131,-0.131,-0.131,-0.131,-0.131,-0.131,-0.131,-0.131,-0.131,-0.13,-0.13,-0.129,-0.127,-0.126,-0.125,-0.124,-0.122,-0.12,-0.11800000000000001,-0.11599999999999999,-0.114,-0.114,-0.114,-0.113,-0.111,-0.102,-0.09300000000000001,-0.067,-0.040999999999999995,0.01,0.062,0.138,0.215,0.306,0.397,0.48,0.563,0.611,0.66,0.6609999999999999,0.662,0.621,0.58,0.513,0.446,0.377,0.308,0.255,0.203,0.174,0.146,0.139,0.132,0.138,0.14400000000000002,0.153,0.163,0.17,0.177,0.183,0.188,0.195,0.203,0.214,0.226,0.23800000000000002,0.249,0.251,0.253,0.24,0.228,0.203,0.17800000000000002,0.14800000000000002,0.11800000000000001,0.08900000000000001,0.06,0.037000000000000005,0.013999999999999999,-0.003,-0.019,-0.032,-0.044000000000000004,-0.051,-0.057999999999999996,-0.062,-0.065,-0.066,-0.068,-0.067,-0.067,-0.065,-0.064,-0.062,-0.059000000000000004,-0.059000000000000004,-0.059000000000000004,-0.059000000000000004,-0.059000000000000004,-0.059000000000000004,-0.059000000000000004,-0.059000000000000004,-0.059000000000000004,-0.059000000000000004,-0.059000000000000004,-0.059000000000000004,-0.057999999999999996,-0.057,-0.055999999999999994,-0.055999999999999994,-0.055,-0.055999999999999994,-0.055999999999999994,-0.057,-0.057999999999999996,-0.057,-0.055,-0.052000000000000005,-0.05,-0.046,-0.042,-0.038,-0.033,-0.027999999999999997,-0.023,-0.018000000000000002,-0.013000000000000001,-0.008,-0.003,0.001,0.005,0.008,0.01,0.012,0.015,0.018000000000000002,0.021,0.023,0.026000000000000002,0.028999999999999998,0.031,0.035,0.038,0.04,0.042,0.043,0.044000000000000004,0.043,0.042,0.04,0.038,0.036000000000000004,0.035,0.032,0.028999999999999998,0.026000000000000002,0.024,0.02,0.016,0.01,0.004,-0.004,-0.012,-0.022000000000000002,-0.032,-0.044000000000000004,-0.055999999999999994,-0.066,-0.077,-0.086,-0.095,-0.105,-0.114,-0.12300000000000001,-0.131,-0.13699999999999998,-0.14400000000000002,-0.14800000000000002,-0.153,-0.156,-0.158,-0.158,-0.158,-0.156,-0.153,-0.149,-0.145,-0.14,-0.136,-0.131,-0.125,-0.121,-0.11699999999999999,-0.113,-0.109,-0.105,-0.1,-0.094,-0.087,-0.081,-0.075,-0.07,-0.065,-0.062,-0.057999999999999996,-0.055999999999999994,-0.053,-0.05,-0.048,-0.045,-0.042,-0.04,-0.039,-0.037000000000000005,-0.036000000000000004,-0.033,-0.031,-0.028999999999999998,-0.027000000000000003,-0.025,-0.023,-0.022000000000000002,-0.021,-0.019,-0.018000000000000002,-0.018000000000000002,-0.017,-0.017,-0.017,-0.018000000000000002,-0.019,-0.019,-0.019,-0.018000000000000002,-0.016,-0.012,-0.009000000000000001,-0.003,0.002,0.01,0.018000000000000002,0.027999999999999997,0.037000000000000005,0.048,0.059000000000000004,0.071,0.08199999999999999,0.09,0.098,0.10300000000000001,0.10800000000000001,0.11199999999999999,0.11599999999999999,0.122,0.129,0.136,0.14400000000000002,0.14800000000000002,0.153,0.15,0.147,0.135,0.12300000000000001,0.107,0.091,0.077,0.064,0.057999999999999996,0.052000000000000005,0.05,0.049,0.046,0.044000000000000004,0.038,0.031,0.021,0.01,-0.004,-0.018000000000000002,-0.034,-0.05,-0.063,-0.077,-0.08800000000000001,-0.099,-0.106,-0.113,-0.11699999999999999,-0.12,-0.122,-0.124,-0.126,-0.127,-0.13,-0.132,-0.134,-0.136,-0.13699999999999998,-0.138,-0.139,-0.139,-0.139,-0.138,-0.138,-0.138,-0.138,-0.138,-0.138,-0.13699999999999998,-0.136,-0.135,-0.134,-0.134,-0.133,-0.132,-0.13,-0.129,-0.128,-0.127,-0.126,-0.125,-0.12300000000000001,-0.121,-0.11800000000000001,-0.11599999999999999,-0.114,-0.11199999999999999,-0.11199999999999999,-0.11199999999999999,-0.11199999999999999,-0.111,-0.106,-0.1,-0.084,-0.067,-0.031,0.005,0.068,0.131,0.213,0.29600000000000004,0.38299999999999995,0.47,0.5379999999999999,0.606,0.634,0.6629999999999999,0.644,0.625,0.5710000000000001,0.516,0.446,0.376,0.313,0.249,0.209,0.168,0.152,0.136,0.138,0.139,0.149,0.159,0.16699999999999998,0.17600000000000002,0.182,0.188,0.193,0.198,0.20600000000000002,0.214,0.225,0.235,0.242,0.248,0.24600000000000002,0.243,0.22699999999999998,0.212,0.185,0.158,0.128,0.098,0.071,0.044000000000000004,0.023,0.002,-0.013000000000000001,-0.028999999999999998,-0.038,-0.048,-0.052000000000000005,-0.057,-0.059000000000000004,-0.06,-0.061,-0.062,-0.062,-0.063,-0.063,-0.063,-0.062,-0.06,-0.059000000000000004,-0.057999999999999996,-0.057999999999999996,-0.057,-0.059000000000000004,-0.06,-0.064,-0.067,-0.069,-0.07,-0.07200000000000001,-0.073,-0.073,-0.07200000000000001,-0.071,-0.07,-0.069,-0.067,-0.065,-0.063,-0.06,-0.057999999999999996,-0.057,-0.055999999999999994,-0.055999999999999994,-0.055,-0.055,-0.055,-0.054000000000000006,-0.053,-0.049,-0.044000000000000004,-0.039,-0.033,-0.03,-0.026000000000000002,-0.022000000000000002,-0.018000000000000002,-0.013000000000000001,-0.009000000000000001,-0.004,0.001,0.005,0.009000000000000001,0.011000000000000001,0.013000000000000001,0.013999999999999999,0.015,0.016,0.016,0.016,0.015,0.015,0.015,0.015,0.013999999999999999,0.012,0.011000000000000001,0.008,0.005,0.001,-0.003,-0.009000000000000001,-0.013999999999999999,-0.021,-0.027999999999999997,-0.036000000000000004,-0.043,-0.052000000000000005,-0.062,-0.07200000000000001,-0.08199999999999999,-0.094,-0.106,-0.11800000000000001,-0.131,-0.14300000000000002,-0.156,-0.16399999999999998,-0.17300000000000001,-0.179,-0.185,-0.187,-0.19,-0.19,-0.19,-0.188,-0.18600000000000003,-0.183,-0.179,-0.175,-0.171,-0.16399999999999998,-0.158,-0.152,-0.147,-0.142,-0.13699999999999998,-0.133,-0.129,-0.125,-0.121,-0.11699999999999999,-0.113,-0.109,-0.105,-0.1,-0.096,-0.092,-0.087,-0.084,-0.08,-0.077,-0.075,-0.07200000000000001,-0.07,-0.069,-0.067,-0.065,-0.063,-0.06,-0.057999999999999996,-0.057,-0.055999999999999994,-0.055999999999999994,-0.055,-0.055,-0.054000000000000006,-0.054000000000000006,-0.054000000000000006,-0.055,-0.055,-0.055999999999999994,-0.055999999999999994,-0.055999999999999994,-0.055,-0.052000000000000005,-0.05,-0.045,-0.040999999999999995,-0.036000000000000004,-0.03,-0.023,-0.016,-0.009000000000000001,-0.001,0.006999999999999999,0.015,0.024,0.032,0.04,0.048,0.053,0.057999999999999996,0.063,0.068,0.077,0.085,0.096,0.106,0.113,0.12,0.11900000000000001,0.11900000000000001,0.11,0.1,0.085,0.069,0.055,0.04,0.032,0.024,0.021,0.017,0.015,0.013000000000000001,0.009000000000000001,0.004,-0.005,-0.013999999999999999,-0.027999999999999997,-0.042,-0.057999999999999996,-0.075,-0.08900000000000001,-0.10400000000000001,-0.114,-0.124,-0.13,-0.136,-0.14,-0.145,-0.14800000000000002,-0.152,-0.156,-0.16,-0.16399999999999998,-0.16699999999999998,-0.168,-0.17,-0.168,-0.16699999999999998,-0.166,-0.16399999999999998,-0.16399999999999998,-0.163,-0.163,-0.162,-0.161,-0.161,-0.16,-0.159,-0.158,-0.157,-0.157,-0.157,-0.157,-0.158,-0.159,-0.16,-0.16,-0.161,-0.16,-0.159,-0.158,-0.157,-0.156,-0.156,-0.155,-0.154,-0.154,-0.154,-0.155,-0.156,-0.15,-0.145,-0.127,-0.11,-0.076,-0.040999999999999995,0.016,0.07200000000000001,0.146,0.22,0.294,0.368,0.42200000000000004,0.475,0.49200000000000005,0.51,0.48700000000000004,0.46299999999999997,0.41100000000000003,0.359,0.3,0.24100000000000002,0.195,0.15,0.125,0.099,0.092,0.085,0.091,0.09699999999999999,0.11,0.122,0.133,0.145,0.15,0.156,0.158,0.16,0.163,0.165,0.16899999999999998,0.17300000000000001,0.17300000000000001,0.17300000000000001,0.16399999999999998,0.156,0.134,0.113,0.083,0.052000000000000005,0.019,-0.013000000000000001,-0.038,-0.064,-0.08,-0.09699999999999999,-0.105,-0.113,-0.115,-0.11699999999999999,-0.115,-0.113,-0.11,-0.107,-0.10400000000000001,-0.102,-0.1,-0.099,-0.099,-0.098,-0.09699999999999999,-0.095,-0.095,-0.095,-0.095,-0.095,-0.094,-0.094,-0.09300000000000001,-0.092,-0.091,-0.09,-0.08900000000000001,-0.08900000000000001,-0.09,-0.091,-0.092,-0.09300000000000001,-0.09300000000000001,-0.09300000000000001,-0.092,-0.091,-0.08900000000000001,-0.086,-0.084,-0.081,-0.078,-0.076,-0.075,-0.073,-0.071,-0.069,-0.064,-0.057999999999999996,-0.052000000000000005,-0.046,-0.044000000000000004,-0.040999999999999995,-0.039,-0.038,-0.038,-0.039,-0.039,-0.04,-0.039,-0.038,N
6,0.195,0.203,0.214,0.226,0.23800000000000002,0.249,0.251,0.253,0.24,0.228,0.203,0.17800000000000002,0.14800000000000002,0.11800000000000001,0.08900000000000001,0.06,0.037000000000000005,0.013999999999999999,-0.003,-0.019,-0.032,-0.044000000000000004,-0.051,-0.057999999999999996,-0.062,-0.065,-0.066,-0.068,-0.067,-0.067,-0.065,-0.064,-0.062,-0.059000000000000004,-0.059000000000000004,-0.059000000000000004,-0.059000000000000004,-0.059000000000000004,-0.059000000000000004,-0.059000000000000004,-0.059000000000000004,-0.059000000000000004,-0.059000000000000004,-0.059000000000000004,-0.059000000000000004,-0.057999999999999996,-0.057,-0.055999999999999994,-0.055999999999999994,-0.055,-0.055999999999999994,-0.055999999999999994,-0.057,-0.057999999999999996,-0.057,-0.055,-0.052000000000000005,-0.05,-0.046,-0.042,-0.038,-0.033,-0.027999999999999997,-0.023,-0.018000000000000002,-0.013000000000000001,-0.008,-0.003,0.001,0.005,0.008,0.01,0.012,0.015,0.018000000000000002,0.021,0.023,0.026000000000000002,0.028999999999999998,0.031,0.035,0.038,0.04,0.042,0.043,0.044000000000000004,0.043,0.042,0.04,0.038,0.036000000000000004,0.035,0.032,0.028999999999999998,0.026000000000000002,0.024,0.02,0.016,0.01,0.004,-0.004,-0.012,-0.022000000000000002,-0.032,-0.044000000000000004,-0.055999999999999994,-0.066,-0.077,-0.086,-0.095,-0.105,-0.114,-0.12300000000000001,-0.131,-0.13699999999999998,-0.14400000000000002,-0.14800000000000002,-0.153,-0.156,-0.158,-0.158,-0.158,-0.156,-0.153,-0.149,-0.145,-0.14,-0.136,-0.131,-0.125,-0.121,-0.11699999999999999,-0.113,-0.109,-0.105,-0.1,-0.094,-0.087,-0.081,-0.075,-0.07,-0.065,-0.062,-0.057999999999999996,-0.055999999999999994,-0.053,-0.05,-0.048,-0.045,-0.042,-0.04,-0.039,-0.037000000000000005,-0.036000000000000004,-0.033,-0.031,-0.028999999999999998,-0.027000000000000003,-0.025,-0.023,-0.022000000000000002,-0.021,-0.019,-0.018000000000000002,-0.018000000000000002,-0.017,-0.017,-0.017,-0.018000000000000002,-0.019,-0.019,-0.019,-0.018000000000000002,-0.016,-0.012,-0.009000000000000001,-0.003,0.002,0.01,0.018000000000000002,0.027999999999999997,0.037000000000000005,0.048,0.059000000000000004,0.071,0.08199999999999999,0.09,0.098,0.10300000000000001,0.10800000000000001,0.11199999999999999,0.11599999999999999,0.122,0.129,0.136,0.14400000000000002,0.14800000000000002,0.153,0.15,0.147,0.135,0.12300000000000001,0.107,0.091,0.077,0.064,0.057999999999999996,0.052000000000000005,0.05,0.049,0.046,0.044000000000000004,0.038,0.031,0.021,0.01,-0.004,-0.018000000000000002,-0.034,-0.05,-0.063,-0.077,-0.08800000000000001,-0.099,-0.106,-0.113,-0.11699999999999999,-0.12,-0.122,-0.124,-0.126,-0.127,-0.13,-0.132,-0.134,-0.136,-0.13699999999999998,-0.138,-0.139,-0.139,-0.139,-0.138,-0.138,-0.138,-0.138,-0.138,-0.138,-0.13699999999999998,-0.136,-0.135,-0.134,-0.134,-0.133,-0.132,-0.13,-0.129,-0.128,-0.127,-0.126,-0.125,-0.12300000000000001,-0.121,-0.11800000000000001,-0.11599999999999999,-0.114,-0.11199999999999999,-0.11199999999999999,-0.11199999999999999,-0.11199999999999999,-0.111,-0.106,-0.1,-0.084,-0.067,-0.031,0.005,0.068,0.131,0.213,0.29600000000000004,0.38299999999999995,0.47,0.5379999999999999,0.606,0.634,0.6629999999999999,0.644,0.625,0.5710000000000001,0.516,0.446,0.376,0.313,0.249,0.209,0.168,0.152,0.136,0.138,0.139,0.149,0.159,0.16699999999999998,0.17600000000000002,0.182,0.188,0.193,0.198,0.20600000000000002,0.214,0.225,0.235,0.242,0.248,0.24600000000000002,0.243,0.22699999999999998,0.212,0.185,0.158,0.128,0.098,0.071,0.044000000000000004,0.023,0.002,-0.013000000000000001,-0.028999999999999998,-0.038,-0.048,-0.052000000000000005,-0.057,-0.059000000000000004,-0.06,-0.061,-0.062,-0.062,-0.063,-0.063,-0.063,-0.062,-0.06,-0.059000000000000004,-0.057999999999999996,-0.057999999999999996,-0.057,-0.059000000000000004,-0.06,-0.064,-0.067,-0.069,-0.07,-0.07200000000000001,-0.073,-0.073,-0.07200000000000001,-0.071,-0.07,-0.069,-0.067,-0.065,-0.063,-0.06,-0.057999999999999996,-0.057,-0.055999999999999994,-0.055999999999999994,-0.055,-0.055,-0.055,-0.054000000000000006,-0.053,-0.049,-0.044000000000000004,-0.039,-0.033,-0.03,-0.026000000000000002,-0.022000000000000002,-0.018000000000000002,-0.013000000000000001,-0.009000000000000001,-0.004,0.001,0.005,0.009000000000000001,0.011000000000000001,0.013000000000000001,0.013999999999999999,0.015,0.016,0.016,0.016,0.015,0.015,0.015,0.015,0.013999999999999999,0.012,0.011000000000000001,0.008,0.005,0.001,-0.003,-0.009000000000000001,-0.013999999999999999,-0.021,-0.027999999999999997,-0.036000000000000004,-0.043,-0.052000000000000005,-0.062,-0.07200000000000001,-0.08199999999999999,-0.094,-0.106,-0.11800000000000001,-0.131,-0.14300000000000002,-0.156,-0.16399999999999998,-0.17300000000000001,-0.179,-0.185,-0.187,-0.19,-0.19,-0.19,-0.188,-0.18600000000000003,-0.183,-0.179,-0.175,-0.171,-0.16399999999999998,-0.158,-0.152,-0.147,-0.142,-0.13699999999999998,-0.133,-0.129,-0.125,-0.121,-0.11699999999999999,-0.113,-0.109,-0.105,-0.1,-0.096,-0.092,-0.087,-0.084,-0.08,-0.077,-0.075,-0.07200000000000001,-0.07,-0.069,-0.067,-0.065,-0.063,-0.06,-0.057999999999999996,-0.057,-0.055999999999999994,-0.055999999999999994,-0.055,-0.055,-0.054000000000000006,-0.054000000000000006,-0.054000000000000006,-0.055,-0.055,-0.055999999999999994,-0.055999999999999994,-0.055999999999999994,-0.055,-0.052000000000000005,-0.05,-0.045,-0.040999999999999995,-0.036000000000000004,-0.03,-0.023,-0.016,-0.009000000000000001,-0.001,0.006999999999999999,0.015,0.024,0.032,0.04,0.048,0.053,0.057999999999999996,0.063,0.068,0.077,0.085,0.096,0.106,0.113,0.12,0.11900000000000001,0.11900000000000001,0.11,0.1,0.085,0.069,0.055,0.04,0.032,0.024,0.021,0.017,0.015,0.013000000000000001,0.009000000000000001,0.004,-0.005,-0.013999999999999999,-0.027999999999999997,-0.042,-0.057999999999999996,-0.075,-0.08900000000000001,-0.10400000000000001,-0.114,-0.124,-0.13,-0.136,-0.14,-0.145,-0.14800000000000002,-0.152,-0.156,-0.16,-0.16399999999999998,-0.16699999999999998,-0.168,-0.17,-0.168,-0.16699999999999998,-0.166,-0.16399999999999998,-0.16399999999999998,-0.163,-0.163,-0.162,-0.161,-0.161,-0.16,-0.159,-0.158,-0.157,-0.157,-0.157,-0.157,-0.158,-0.159,-0.16,-0.16,-0.161,-0.16,-0.159,-0.158,-0.157,-0.156,-0.156,-0.155,-0.154,-0.154,-0.154,-0.155,-0.156,-0.15,-0.145,-0.127,-0.11,-0.076,-0.040999999999999995,0.016,0.07200000000000001,0.146,0.22,0.294,0.368,0.42200000000000004,0.475,0.49200000000000005,0.51,0.48700000000000004,0.46299999999999997,0.41100000000000003,0.359,0.3,0.24100000000000002,0.195,0.15,0.125,0.099,0.092,0.085,0.091,0.09699999999999999,0.11,0.122,0.133,0.145,0.15,0.156,0.158,0.16,0.163,0.165,0.16899999999999998,0.17300000000000001,0.17300000000000001,0.17300000000000001,0.16399999999999998,0.156,0.134,0.113,0.083,0.052000000000000005,0.019,-0.013000000000000001,-0.038,-0.064,-0.08,-0.09699999999999999,-0.105,-0.113,-0.115,-0.11699999999999999,-0.115,-0.113,-0.11,-0.107,-0.10400000000000001,-0.102,-0.1,-0.099,-0.099,-0.098,-0.09699999999999999,-0.095,-0.095,-0.095,-0.095,-0.095,-0.094,-0.094,-0.09300000000000001,-0.092,-0.091,-0.09,-0.08900000000000001,-0.08900000000000001,-0.09,-0.091,-0.092,-0.09300000000000001,-0.09300000000000001,-0.09300000000000001,-0.092,-0.091,-0.08900000000000001,-0.086,-0.084,-0.081,-0.078,-0.076,-0.075,-0.073,-0.071,-0.069,-0.064,-0.057999999999999996,-0.052000000000000005,-0.046,-0.044000000000000004,-0.040999999999999995,-0.039,-0.038,-0.038,-0.039,-0.039,-0.04,-0.039,-0.038,-0.035,-0.032,-0.028999999999999998,-0.026000000000000002,-0.023,-0.019,-0.017,-0.015,-0.016,-0.017,-0.021,-0.024,-0.026000000000000002,-0.028999999999999998,-0.031,-0.033,-0.035,-0.037000000000000005,-0.04,-0.044000000000000004,-0.052000000000000005,-0.059000000000000004,-0.07,-0.08,-0.091,-0.10300000000000001,-0.11199999999999999,-0.122,-0.132,-0.141,-0.15,-0.158,-0.163,-0.16699999999999998,-0.17,-0.17300000000000001,-0.174,-0.17600000000000002,-0.175,-0.175,-0.174,-0.17300000000000001,-0.171,-0.17,-0.16699999999999998,-0.165,-0.163,-0.16,-0.157,-0.153,-0.14800000000000002,-0.14300000000000002,-0.136,-0.13,-0.122,-0.114,-0.107,-0.1,-0.094,-0.08900000000000001,-0.083,-0.078,-0.073,-0.069,-0.065,-0.06,-0.055999999999999994,-0.051,-0.045,-0.04,-0.035,-0.03,-0.024,-0.017,-0.012,-0.006,-0.003,0.0,-0.001,-0.001,-0.002,-0.003,-0.004,-0.004,-0.004,-0.003,-0.001,0.001,0.004,0.008,0.011000000000000001,0.013999999999999999,0.017,0.021,0.024,0.027000000000000003,0.032,0.038,0.047,0.055999999999999994,0.067,0.078,0.08900000000000001,0.099,0.107,0.11599999999999999,0.121,0.126,0.131,0.135,0.141,0.147,0.156,0.165,0.17600000000000002,0.187,0.192,0.198,0.196,0.19399999999999998,0.18600000000000003,0.177,0.165,0.153,0.14300000000000002,0.133,0.127,0.121,0.11699999999999999,0.11199999999999999,0.107,0.10300000000000001,0.095,0.087,0.077,0.066,0.054000000000000006,0.042,0.03,0.018000000000000002,0.009000000000000001,-0.001,-0.01,-0.018000000000000002,-0.025,-0.031,-0.036000000000000004,-0.04,-0.042,-0.044000000000000004,-0.045,-0.045,-0.045,-0.045,-0.045,-0.045,-0.046,-0.046,-0.047,-0.048,-0.049,-0.05,-0.05,-0.051,-0.051,-0.052000000000000005,-0.052000000000000005,-0.052000000000000005,-0.052000000000000005,-0.052000000000000005,-0.051,-0.051,-0.049,-0.046,-0.044000000000000004,-0.042,-0.039,-0.036000000000000004,-0.034,-0.032,-0.031,-0.03,-0.03,-0.03,-0.031,-0.031,-0.032,-0.032,-0.03,-0.027999999999999997,-0.016,-0.004,0.026000000000000002,0.055999999999999994,0.113,0.171,0.252,0.33399999999999996,0.425,0.516,0.596,0.675,0.7190000000000001,0.762,0.757,0.752,0.7040000000000001,0.657,0.5870000000000001,0.517,0.44799999999999995,0.379,0.32799999999999996,0.278,0.253,0.22899999999999998,0.22699999999999998,0.225,0.237,0.248,0.261,0.27399999999999997,0.28,0.285,0.282,0.27899999999999997,0.273,0.268,0.263,0.259,0.255,0.252,0.244,0.235,0.21899999999999997,0.20199999999999999,0.177,0.151,0.124,0.096,0.073,0.051,0.035,0.018000000000000002,0.012,0.005,0.004,0.002,0.003,0.004,0.006,0.008,0.01,0.013000000000000001,0.013999999999999999,0.015,0.016,0.016,0.016,0.015,0.015,0.015,0.015,0.015,0.015,0.015,0.015,0.015,0.015,0.015,0.015,0.015,0.015,0.015,0.015,0.015,0.016,0.016,0.017,0.018000000000000002,0.02,0.022000000000000002,0.023,0.024,0.026000000000000002,0.027999999999999997,0.03,0.032,0.035,0.037000000000000005,0.04,0.044000000000000004,0.048,0.052000000000000005,0.055,0.057,0.061,0.065,0.068,0.071,0.07400000000000001,0.077,0.078,0.08,0.08199999999999999,0.083,0.085,0.086,N
7,0.198,0.20600000000000002,0.214,0.225,0.235,0.242,0.248,0.24600000000000002,0.243,0.22699999999999998,0.212,0.185,0.158,0.128,0.098,0.071,0.044000000000000004,0.023,0.002,-0.013000000000000001,-0.028999999999999998,-0.038,-0.048,-0.052000000000000005,-0.057,-0.059000000000000004,-0.06,-0.061,-0.062,-0.062,-0.063,-0.063,-0.063,-0.062,-0.06,-0.059000000000000004,-0.057999999999999996,-0.057999999999999996,-0.057,-0.059000000000000004,-0.06,-0.064,-0.067,-0.069,-0.07,-0.07200000000000001,-0.073,-0.073,-0.07200000000000001,-0.071,-0.07,-0.069,-0.067,-0.065,-0.063,-0.06,-0.057999999999999996,-0.057,-0.055999999999999994,-0.055999999999999994,-0.055,-0.055,-0.055,-0.054000000000000006,-0.053,-0.049,-0.044000000000000004,-0.039,-0.033,-0.03,-0.026000000000000002,-0.022000000000000002,-0.018000000000000002,-0.013000000000000001,-0.009000000000000001,-0.004,0.001,0.005,0.009000000000000001,0.011000000000000001,0.013000000000000001,0.013999999999999999,0.015,0.016,0.016,0.016,0.015,0.015,0.015,0.015,0.013999999999999999,0.012,0.011000000000000001,0.008,0.005,0.001,-0.003,-0.009000000000000001,-0.013999999999999999,-0.021,-0.027999999999999997,-0.036000000000000004,-0.043,-0.052000000000000005,-0.062,-0.07200000000000001,-0.08199999999999999,-0.094,-0.106,-0.11800000000000001,-0.131,-0.14300000000000002,-0.156,-0.16399999999999998,-0.17300000000000001,-0.179,-0.185,-0.187,-0.19,-0.19,-0.19,-0.188,-0.18600000000000003,-0.183,-0.179,-0.175,-0.171,-0.16399999999999998,-0.158,-0.152,-0.147,-0.142,-0.13699999999999998,-0.133,-0.129,-0.125,-0.121,-0.11699999999999999,-0.113,-0.109,-0.105,-0.1,-0.096,-0.092,-0.087,-0.084,-0.08,-0.077,-0.075,-0.07200000000000001,-0.07,-0.069,-0.067,-0.065,-0.063,-0.06,-0.057999999999999996,-0.057,-0.055999999999999994,-0.055999999999999994,-0.055,-0.055,-0.054000000000000006,-0.054000000000000006,-0.054000000000000006,-0.055,-0.055,-0.055999999999999994,-0.055999999999999994,-0.055999999999999994,-0.055,-0.052000000000000005,-0.05,-0.045,-0.040999999999999995,-0.036000000000000004,-0.03,-0.023,-0.016,-0.009000000000000001,-0.001,0.006999999999999999,0.015,0.024,0.032,0.04,0.048,0.053,0.057999999999999996,0.063,0.068,0.077,0.085,0.096,0.106,0.113,0.12,0.11900000000000001,0.11900000000000001,0.11,0.1,0.085,0.069,0.055,0.04,0.032,0.024,0.021,0.017,0.015,0.013000000000000001,0.009000000000000001,0.004,-0.005,-0.013999999999999999,-0.027999999999999997,-0.042,-0.057999999999999996,-0.075,-0.08900000000000001,-0.10400000000000001,-0.114,-0.124,-0.13,-0.136,-0.14,-0.145,-0.14800000000000002,-0.152,-0.156,-0.16,-0.16399999999999998,-0.16699999999999998,-0.168,-0.17,-0.168,-0.16699999999999998,-0.166,-0.16399999999999998,-0.16399999999999998,-0.163,-0.163,-0.162,-0.161,-0.161,-0.16,-0.159,-0.158,-0.157,-0.157,-0.157,-0.157,-0.158,-0.159,-0.16,-0.16,-0.161,-0.16,-0.159,-0.158,-0.157,-0.156,-0.156,-0.155,-0.154,-0.154,-0.154,-0.155,-0.156,-0.15,-0.145,-0.127,-0.11,-0.076,-0.040999999999999995,0.016,0.07200000000000001,0.146,0.22,0.294,0.368,0.42200000000000004,0.475,0.49200000000000005,0.51,0.48700000000000004,0.46299999999999997,0.41100000000000003,0.359,0.3,0.24100000000000002,0.195,0.15,0.125,0.099,0.092,0.085,0.091,0.09699999999999999,0.11,0.122,0.133,0.145,0.15,0.156,0.158,0.16,0.163,0.165,0.16899999999999998,0.17300000000000001,0.17300000000000001,0.17300000000000001,0.16399999999999998,0.156,0.134,0.113,0.083,0.052000000000000005,0.019,-0.013000000000000001,-0.038,-0.064,-0.08,-0.09699999999999999,-0.105,-0.113,-0.115,-0.11699999999999999,-0.115,-0.113,-0.11,-0.107,-0.10400000000000001,-0.102,-0.1,-0.099,-0.099,-0.098,-0.09699999999999999,-0.095,-0.095,-0.095,-0.095,-0.095,-0.094,-0.094,-0.09300000000000001,-0.092,-0.091,-0.09,-0.08900000000000001,-0.08900000000000001,-0.09,-0.091,-0.092,-0.09300000000000001,-0.09300000000000001,-0.09300000000000001,-0.092,-0.091,-0.08900000000000001,-0.086,-0.084,-0.081,-0.078,-0.076,-0.075,-0.073,-0.071,-0.069,-0.064,-0.057999999999999996,-0.052000000000000005,-0.046,-0.044000000000000004,-0.040999999999999995,-0.039,-0.038,-0.038,-0.039,-0.039,-0.04,-0.039,-0.038,-0.035,-0.032,-0.028999999999999998,-0.026000000000000002,-0.023,-0.019,-0.017,-0.015,-0.016,-0.017,-0.021,-0.024,-0.026000000000000002,-0.028999999999999998,-0.031,-0.033,-0.035,-0.037000000000000005,-0.04,-0.044000000000000004,-0.052000000000000005,-0.059000000000000004,-0.07,-0.08,-0.091,-0.10300000000000001,-0.11199999999999999,-0.122,-0.132,-0.141,-0.15,-0.158,-0.163,-0.16699999999999998,-0.17,-0.17300000000000001,-0.174,-0.17600000000000002,-0.175,-0.175,-0.174,-0.17300000000000001,-0.171,-0.17,-0.16699999999999998,-0.165,-0.163,-0.16,-0.157,-0.153,-0.14800000000000002,-0.14300000000000002,-0.136,-0.13,-0.122,-0.114,-0.107,-0.1,-0.094,-0.08900000000000001,-0.083,-0.078,-0.073,-0.069,-0.065,-0.06,-0.055999999999999994,-0.051,-0.045,-0.04,-0.035,-0.03,-0.024,-0.017,-0.012,-0.006,-0.003,0.0,-0.001,-0.001,-0.002,-0.003,-0.004,-0.004,-0.004,-0.003,-0.001,0.001,0.004,0.008,0.011000000000000001,0.013999999999999999,0.017,0.021,0.024,0.027000000000000003,0.032,0.038,0.047,0.055999999999999994,0.067,0.078,0.08900000000000001,0.099,0.107,0.11599999999999999,0.121,0.126,0.131,0.135,0.141,0.147,0.156,0.165,0.17600000000000002,0.187,0.192,0.198,0.196,0.19399999999999998,0.18600000000000003,0.177,0.165,0.153,0.14300000000000002,0.133,0.127,0.121,0.11699999999999999,0.11199999999999999,0.107,0.10300000000000001,0.095,0.087,0.077,0.066,0.054000000000000006,0.042,0.03,0.018000000000000002,0.009000000000000001,-0.001,-0.01,-0.018000000000000002,-0.025,-0.031,-0.036000000000000004,-0.04,-0.042,-0.044000000000000004,-0.045,-0.045,-0.045,-0.045,-0.045,-0.045,-0.046,-0.046,-0.047,-0.048,-0.049,-0.05,-0.05,-0.051,-0.051,-0.052000000000000005,-0.052000000000000005,-0.052000000000000005,-0.052000000000000005,-0.052000000000000005,-0.051,-0.051,-0.049,-0.046,-0.044000000000000004,-0.042,-0.039,-0.036000000000000004,-0.034,-0.032,-0.031,-0.03,-0.03,-0.03,-0.031,-0.031,-0.032,-0.032,-0.03,-0.027999999999999997,-0.016,-0.004,0.026000000000000002,0.055999999999999994,0.113,0.171,0.252,0.33399999999999996,0.425,0.516,0.596,0.675,0.7190000000000001,0.762,0.757,0.752,0.7040000000000001,0.657,0.5870000000000001,0.517,0.44799999999999995,0.379,0.32799999999999996,0.278,0.253,0.22899999999999998,0.22699999999999998,0.225,0.237,0.248,0.261,0.27399999999999997,0.28,0.285,0.282,0.27899999999999997,0.273,0.268,0.263,0.259,0.255,0.252,0.244,0.235,0.21899999999999997,0.20199999999999999,0.177,0.151,0.124,0.096,0.073,0.051,0.035,0.018000000000000002,0.012,0.005,0.004,0.002,0.003,0.004,0.006,0.008,0.01,0.013000000000000001,0.013999999999999999,0.015,0.016,0.016,0.016,0.015,0.015,0.015,0.015,0.015,0.015,0.015,0.015,0.015,0.015,0.015,0.015,0.015,0.015,0.015,0.015,0.015,0.016,0.016,0.017,0.018000000000000002,0.02,0.022000000000000002,0.023,0.024,0.026000000000000002,0.027999999999999997,0.03,0.032,0.035,0.037000000000000005,0.04,0.044000000000000004,0.048,0.052000000000000005,0.055,0.057,0.061,0.065,0.068,0.071,0.07400000000000001,0.077,0.078,0.08,0.08199999999999999,0.083,0.085,0.086,0.086,0.086,0.086,0.086,0.086,0.085,0.083,0.081,0.077,0.073,0.069,0.064,0.057999999999999996,0.053,0.046,0.04,0.032,0.024,0.015,0.005,-0.005,-0.016,-0.028999999999999998,-0.040999999999999995,-0.053,-0.066,-0.077,-0.087,-0.098,-0.10800000000000001,-0.11699999999999999,-0.126,-0.134,-0.141,-0.146,-0.151,-0.154,-0.157,-0.157,-0.157,-0.156,-0.154,-0.151,-0.147,-0.142,-0.13699999999999998,-0.13,-0.12300000000000001,-0.11599999999999999,-0.109,-0.10300000000000001,-0.096,-0.09,-0.083,-0.076,-0.068,-0.059000000000000004,-0.051,-0.042,-0.033,-0.025,-0.016,-0.009000000000000001,-0.002,0.003,0.009000000000000001,0.011000000000000001,0.013999999999999999,0.017,0.019,0.021,0.022000000000000002,0.022000000000000002,0.023,0.024,0.026000000000000002,0.027999999999999997,0.03,0.032,0.035,0.037000000000000005,0.04,0.044000000000000004,0.048,0.05,0.053,0.057,0.06,0.065,0.07,0.078,0.086,0.09699999999999999,0.107,0.11900000000000001,0.131,0.14,0.15,0.157,0.16399999999999998,0.17,0.17600000000000002,0.183,0.19,0.19899999999999998,0.20800000000000002,0.218,0.228,0.231,0.23399999999999999,0.22899999999999998,0.225,0.212,0.19899999999999998,0.183,0.16699999999999998,0.154,0.14,0.133,0.126,0.12300000000000001,0.12,0.11599999999999999,0.111,0.105,0.098,0.087,0.077,0.063,0.05,0.036000000000000004,0.022000000000000002,0.008,-0.005,-0.017,-0.027999999999999997,-0.036000000000000004,-0.044000000000000004,-0.051,-0.057,-0.061,-0.065,-0.067,-0.07,-0.073,-0.076,-0.078,-0.08,-0.08199999999999999,-0.084,-0.086,-0.087,-0.08800000000000001,-0.08900000000000001,-0.09,-0.091,-0.091,-0.092,-0.091,-0.09,-0.08900000000000001,-0.087,-0.087,-0.086,-0.085,-0.083,-0.081,-0.079,-0.078,-0.078,-0.076,-0.075,-0.073,-0.071,-0.071,-0.07,-0.069,-0.068,-0.067,-0.067,-0.067,-0.067,-0.063,-0.057999999999999996,-0.042,-0.026000000000000002,0.01,0.046,0.11,0.17300000000000001,0.26,0.348,0.44299999999999995,0.5379999999999999,0.613,0.688,0.721,0.755,0.738,0.721,0.665,0.608,0.5329999999999999,0.45899999999999996,0.389,0.319,0.271,0.222,0.203,0.184,0.185,0.18600000000000003,0.19699999999999998,0.20800000000000002,0.22,0.23199999999999998,0.24,0.247,0.253,0.259,0.267,0.275,0.285,0.295,0.3,0.306,0.299,0.293,0.273,0.253,0.222,0.192,0.159,0.126,0.099,0.071,0.051,0.031,0.018000000000000002,0.004,-0.005,-0.013999999999999999,-0.019,-0.024,-0.026000000000000002,-0.027999999999999997,-0.028999999999999998,-0.028999999999999998,-0.028999999999999998,-0.027999999999999997,-0.027999999999999997,-0.027999999999999997,-0.027999999999999997,-0.027999999999999997,-0.028999999999999998,-0.028999999999999998,-0.03,-0.031,-0.032,-0.032,-0.032,-0.032,-0.032,-0.032,-0.032,-0.031,-0.03,-0.027999999999999997,-0.025,-0.023,-0.021,-0.019,-0.017,-0.013999999999999999,-0.011000000000000001,-0.008,-0.005,-0.002,0.001,0.004,0.009000000000000001,0.013000000000000001,0.017,0.022000000000000002,0.025,0.027999999999999997,0.031,0.035,0.039,0.043,0.049,0.054000000000000006,0.059000000000000004,0.065,0.069,0.07200000000000001,0.076,0.08,0.08199999999999999,0.084,0.085,0.086,0.086,0.086,0.086,0.086,0.086,N
8,0.156,0.158,0.16,0.163,0.165,0.16899999999999998,0.17300000000000001,0.17300000000000001,0.17300000000000001,0.16399999999999998,0.156,0.134,0.113,0.083,0.052000000000000005,0.019,-0.013000000000000001,-0.038,-0.064,-0.08,-0.09699999999999999,-0.105,-0.113,-0.115,-0.11699999999999999,-0.115,-0.113,-0.11,-0.107,-0.10400000000000001,-0.102,-0.1,-0.099,-0.099,-0.098,-0.09699999999999999,-0.095,-0.095,-0.095,-0.095,-0.095,-0.094,-0.094,-0.09300000000000001,-0.092,-0.091,-0.09,-0.08900000000000001,-0.08900000000000001,-0.09,-0.091,-0.092,-0.09300000000000001,-0.09300000000000001,-0.09300000000000001,-0.092,-0.091,-0.08900000000000001,-0.086,-0.084,-0.081,-0.078,-0.076,-0.075,-0.073,-0.071,-0.069,-0.064,-0.057999999999999996,-0.052000000000000005,-0.046,-0.044000000000000004,-0.040999999999999995,-0.039,-0.038,-0.038,-0.039,-0.039,-0.04,-0.039,-0.038,-0.035,-0.032,-0.028999999999999998,-0.026000000000000002,-0.023,-0.019,-0.017,-0.015,-0.016,-0.017,-0.021,-0.024,-0.026000000000000002,-0.028999999999999998,-0.031,-0.033,-0.035,-0.037000000000000005,-0.04,-0.044000000000000004,-0.052000000000000005,-0.059000000000000004,-0.07,-0.08,-0.091,-0.10300000000000001,-0.11199999999999999,-0.122,-0.132,-0.141,-0.15,-0.158,-0.163,-0.16699999999999998,-0.17,-0.17300000000000001,-0.174,-0.17600000000000002,-0.175,-0.175,-0.174,-0.17300000000000001,-0.171,-0.17,-0.16699999999999998,-0.165,-0.163,-0.16,-0.157,-0.153,-0.14800000000000002,-0.14300000000000002,-0.136,-0.13,-0.122,-0.114,-0.107,-0.1,-0.094,-0.08900000000000001,-0.083,-0.078,-0.073,-0.069,-0.065,-0.06,-0.055999999999999994,-0.051,-0.045,-0.04,-0.035,-0.03,-0.024,-0.017,-0.012,-0.006,-0.003,0.0,-0.001,-0.001,-0.002,-0.003,-0.004,-0.004,-0.004,-0.003,-0.001,0.001,0.004,0.008,0.011000000000000001,0.013999999999999999,0.017,0.021,0.024,0.027000000000000003,0.032,0.038,0.047,0.055999999999999994,0.067,0.078,0.08900000000000001,0.099,0.107,0.11599999999999999,0.121,0.126,0.131,0.135,0.141,0.147,0.156,0.165,0.17600000000000002,0.187,0.192,0.198,0.196,0.19399999999999998,0.18600000000000003,0.177,0.165,0.153,0.14300000000000002,0.133,0.127,0.121,0.11699999999999999,0.11199999999999999,0.107,0.10300000000000001,0.095,0.087,0.077,0.066,0.054000000000000006,0.042,0.03,0.018000000000000002,0.009000000000000001,-0.001,-0.01,-0.018000000000000002,-0.025,-0.031,-0.036000000000000004,-0.04,-0.042,-0.044000000000000004,-0.045,-0.045,-0.045,-0.045,-0.045,-0.045,-0.046,-0.046,-0.047,-0.048,-0.049,-0.05,-0.05,-0.051,-0.051,-0.052000000000000005,-0.052000000000000005,-0.052000000000000005,-0.052000000000000005,-0.052000000000000005,-0.051,-0.051,-0.049,-0.046,-0.044000000000000004,-0.042,-0.039,-0.036000000000000004,-0.034,-0.032,-0.031,-0.03,-0.03,-0.03,-0.031,-0.031,-0.032,-0.032,-0.03,-0.027999999999999997,-0.016,-0.004,0.026000000000000002,0.055999999999999994,0.113,0.171,0.252,0.33399999999999996,0.425,0.516,0.596,0.675,0.7190000000000001,0.762,0.757,0.752,0.7040000000000001,0.657,0.5870000000000001,0.517,0.44799999999999995,0.379,0.32799999999999996,0.278,0.253,0.22899999999999998,0.22699999999999998,0.225,0.237,0.248,0.261,0.27399999999999997,0.28,0.285,0.282,0.27899999999999997,0.273,0.268,0.263,0.259,0.255,0.252,0.244,0.235,0.21899999999999997,0.20199999999999999,0.177,0.151,0.124,0.096,0.073,0.051,0.035,0.018000000000000002,0.012,0.005,0.004,0.002,0.003,0.004,0.006,0.008,0.01,0.013000000000000001,0.013999999999999999,0.015,0.016,0.016,0.016,0.015,0.015,0.015,0.015,0.015,0.015,0.015,0.015,0.015,0.015,0.015,0.015,0.015,0.015,0.015,0.015,0.015,0.016,0.016,0.017,0.018000000000000002,0.02,0.022000000000000002,0.023,0.024,0.026000000000000002,0.027999999999999997,0.03,0.032,0.035,0.037000000000000005,0.04,0.044000000000000004,0.048,0.052000000000000005,0.055,0.057,0.061,0.065,0.068,0.071,0.07400000000000001,0.077,0.078,0.08,0.08199999999999999,0.083,0.085,0.086,0.086,0.086,0.086,0.086,0.086,0.085,0.083,0.081,0.077,0.073,0.069,0.064,0.057999999999999996,0.053,0.046,0.04,0.032,0.024,0.015,0.005,-0.005,-0.016,-0.028999999999999998,-0.040999999999999995,-0.053,-0.066,-0.077,-0.087,-0.098,-0.10800000000000001,-0.11699999999999999,-0.126,-0.134,-0.141,-0.146,-0.151,-0.154,-0.157,-0.157,-0.157,-0.156,-0.154,-0.151,-0.147,-0.142,-0.13699999999999998,-0.13,-0.12300000000000001,-0.11599999999999999,-0.109,-0.10300000000000001,-0.096,-0.09,-0.083,-0.076,-0.068,-0.059000000000000004,-0.051,-0.042,-0.033,-0.025,-0.016,-0.009000000000000001,-0.002,0.003,0.009000000000000001,0.011000000000000001,0.013999999999999999,0.017,0.019,0.021,0.022000000000000002,0.022000000000000002,0.023,0.024,0.026000000000000002,0.027999999999999997,0.03,0.032,0.035,0.037000000000000005,0.04,0.044000000000000004,0.048,0.05,0.053,0.057,0.06,0.065,0.07,0.078,0.086,0.09699999999999999,0.107,0.11900000000000001,0.131,0.14,0.15,0.157,0.16399999999999998,0.17,0.17600000000000002,0.183,0.19,0.19899999999999998,0.20800000000000002,0.218,0.228,0.231,0.23399999999999999,0.22899999999999998,0.225,0.212,0.19899999999999998,0.183,0.16699999999999998,0.154,0.14,0.133,0.126,0.12300000000000001,0.12,0.11599999999999999,0.111,0.105,0.098,0.087,0.077,0.063,0.05,0.036000000000000004,0.022000000000000002,0.008,-0.005,-0.017,-0.027999999999999997,-0.036000000000000004,-0.044000000000000004,-0.051,-0.057,-0.061,-0.065,-0.067,-0.07,-0.073,-0.076,-0.078,-0.08,-0.08199999999999999,-0.084,-0.086,-0.087,-0.08800000000000001,-0.08900000000000001,-0.09,-0.091,-0.091,-0.092,-0.091,-0.09,-0.08900000000000001,-0.087,-0.087,-0.086,-0.085,-0.083,-0.081,-0.079,-0.078,-0.078,-0.076,-0.075,-0.073,-0.071,-0.071,-0.07,-0.069,-0.068,-0.067,-0.067,-0.067,-0.067,-0.063,-0.057999999999999996,-0.042,-0.026000000000000002,0.01,0.046,0.11,0.17300000000000001,0.26,0.348,0.44299999999999995,0.5379999999999999,0.613,0.688,0.721,0.755,0.738,0.721,0.665,0.608,0.5329999999999999,0.45899999999999996,0.389,0.319,0.271,0.222,0.203,0.184,0.185,0.18600000000000003,0.19699999999999998,0.20800000000000002,0.22,0.23199999999999998,0.24,0.247,0.253,0.259,0.267,0.275,0.285,0.295,0.3,0.306,0.299,0.293,0.273,0.253,0.222,0.192,0.159,0.126,0.099,0.071,0.051,0.031,0.018000000000000002,0.004,-0.005,-0.013999999999999999,-0.019,-0.024,-0.026000000000000002,-0.027999999999999997,-0.028999999999999998,-0.028999999999999998,-0.028999999999999998,-0.027999999999999997,-0.027999999999999997,-0.027999999999999997,-0.027999999999999997,-0.027999999999999997,-0.028999999999999998,-0.028999999999999998,-0.03,-0.031,-0.032,-0.032,-0.032,-0.032,-0.032,-0.032,-0.032,-0.031,-0.03,-0.027999999999999997,-0.025,-0.023,-0.021,-0.019,-0.017,-0.013999999999999999,-0.011000000000000001,-0.008,-0.005,-0.002,0.001,0.004,0.009000000000000001,0.013000000000000001,0.017,0.022000000000000002,0.025,0.027999999999999997,0.031,0.035,0.039,0.043,0.049,0.054000000000000006,0.059000000000000004,0.065,0.069,0.07200000000000001,0.076,0.08,0.08199999999999999,0.084,0.085,0.086,0.086,0.086,0.086,0.086,0.086,0.085,0.084,0.08199999999999999,0.079,0.077,0.073,0.069,0.065,0.06,0.054000000000000006,0.048,0.039,0.031,0.022000000000000002,0.012,0.001,-0.01,-0.022000000000000002,-0.033,-0.045,-0.057,-0.069,-0.081,-0.092,-0.10300000000000001,-0.11,-0.11800000000000001,-0.122,-0.126,-0.129,-0.132,-0.133,-0.135,-0.135,-0.135,-0.134,-0.134,-0.132,-0.131,-0.127,-0.124,-0.11900000000000001,-0.114,-0.107,-0.1,-0.092,-0.084,-0.077,-0.069,-0.063,-0.055999999999999994,-0.051,-0.045,-0.042,-0.038,-0.034,-0.03,-0.027000000000000003,-0.024,-0.021,-0.018000000000000002,-0.017,-0.015,-0.013000000000000001,-0.011000000000000001,-0.009000000000000001,-0.006,-0.003,0.0,0.002,0.004,0.006,0.009000000000000001,0.011000000000000001,0.013000000000000001,0.013999999999999999,0.015,0.016,0.016,0.016,0.015,0.015,0.015,0.015,0.015,0.016,0.016,0.019,0.022000000000000002,0.028999999999999998,0.036000000000000004,0.045,0.055,0.065,0.076,0.087,0.098,0.10800000000000001,0.11800000000000001,0.125,0.133,0.139,0.146,0.154,0.162,0.17,0.17800000000000002,0.182,0.18600000000000003,0.18,0.175,0.161,0.14800000000000002,0.13,0.11199999999999999,0.09699999999999999,0.08199999999999999,0.075,0.068,0.066,0.064,0.061,0.057999999999999996,0.052000000000000005,0.045,0.035,0.025,0.012,0.0,-0.012,-0.025,-0.037000000000000005,-0.049,-0.057,-0.066,-0.065,-0.065,-0.057,-0.049,-0.036000000000000004,-0.023,-0.011000000000000001,0.001,0.008,0.015,0.016,0.017,0.016,0.015,0.015,0.015,0.015,0.015,0.015,0.015,0.015,0.015,0.015,0.015,0.015,0.015,0.015,0.015,0.015,0.015,0.015,0.015,0.015,0.015,0.015,0.015,0.015,0.015,0.015,0.015,0.015,0.015,0.015,0.015,0.015,0.015,0.015,0.015,0.015,0.015,0.015,0.015,0.015,0.015,0.015,0.015,0.015,0.015,0.015,0.015,0.015,0.015,0.015,0.015,0.015,0.015,0.015,0.015,0.015,0.015,0.015,0.015,0.015,0.015,0.015,0.015,0.015,0.015,0.015,0.015,0.015,0.015,0.015,0.015,0.015,0.015,0.015,0.015,0.015,0.015,0.015,0.015,0.015,0.015,0.015,0.015,0.015,0.015,0.015,0.015,0.015,0.015,0.015,0.015,0.015,0.015,0.015,0.015,0.015,0.015,0.015,0.015,0.015,0.015,0.015,0.015,0.015,0.015,0.015,0.015,0.015,0.015,0.015,0.015,0.015,0.015,0.015,0.015,0.015,0.015,0.015,0.015,0.015,0.015,0.015,0.015,0.015,0.015,0.015,0.015,0.015,0.015,0.015,0.015,0.015,0.015,0.015,0.015,0.015,0.015,0.015,0.015,0.015,0.015,0.015,0.015,0.015,0.015,0.015,0.015,0.015,0.015,0.015,0.015,0.015,0.015,0.015,0.015,0.015,N
9,0.273,0.268,0.263,0.259,0.255,0.252,0.244,0.235,0.21899999999999997,0.20199999999999999,0.177,0.151,0.124,0.096,0.073,0.051,0.035,0.018000000000000002,0.012,0.005,0.004,0.002,0.003,0.004,0.006,0.008,0.01,0.013000000000000001,0.013999999999999999,0.015,0.016,0.016,0.016,0.015,0.015,0.015,0.015,0.015,0.015,0.015,0.015,0.015,0.015,0.015,0.015,0.015,0.015,0.015,0.015,0.015,0.016,0.016,0.017,0.018000000000000002,0.02,0.022000000000000002,0.023,0.024,0.026000000000000002,0.027999999999999997,0.03,0.032,0.035,0.037000000000000005,0.04,0.044000000000000004,0.048,0.052000000000000005,0.055,0.057,0.061,0.065,0.068,0.071,0.07400000000000001,0.077,0.078,0.08,0.08199999999999999,0.083,0.085,0.086,0.086,0.086,0.086,0.086,0.086,0.085,0.083,0.081,0.077,0.073,0.069,0.064,0.057999999999999996,0.053,0.046,0.04,0.032,0.024,0.015,0.005,-0.005,-0.016,-0.028999999999999998,-0.040999999999999995,-0.053,-0.066,-0.077,-0.087,-0.098,-0.10800000000000001,-0.11699999999999999,-0.126,-0.134,-0.141,-0.146,-0.151,-0.154,-0.157,-0.157,-0.157,-0.156,-0.154,-0.151,-0.147,-0.142,-0.13699999999999998,-0.13,-0.12300000000000001,-0.11599999999999999,-0.109,-0.10300000000000001,-0.096,-0.09,-0.083,-0.076,-0.068,-0.059000000000000004,-0.051,-0.042,-0.033,-0.025,-0.016,-0.009000000000000001,-0.002,0.003,0.009000000000000001,0.011000000000000001,0.013999999999999999,0.017,0.019,0.021,0.022000000000000002,0.022000000000000002,0.023,0.024,0.026000000000000002,0.027999999999999997,0.03,0.032,0.035,0.037000000000000005,0.04,0.044000000000000004,0.048,0.05,0.053,0.057,0.06,0.065,0.07,0.078,0.086,0.09699999999999999,0.107,0.11900000000000001,0.131,0.14,0.15,0.157,0.16399999999999998,0.17,0.17600000000000002,0.183,0.19,0.19899999999999998,0.20800000000000002,0.218,0.228,0.231,0.23399999999999999,0.22899999999999998,0.225,0.212,0.19899999999999998,0.183,0.16699999999999998,0.154,0.14,0.133,0.126,0.12300000000000001,0.12,0.11599999999999999,0.111,0.105,0.098,0.087,0.077,0.063,0.05,0.036000000000000004,0.022000000000000002,0.008,-0.005,-0.017,-0.027999999999999997,-0.036000000000000004,-0.044000000000000004,-0.051,-0.057,-0.061,-0.065,-0.067,-0.07,-0.073,-0.076,-0.078,-0.08,-0.08199999999999999,-0.084,-0.086,-0.087,-0.08800000000000001,-0.08900000000000001,-0.09,-0.091,-0.091,-0.092,-0.091,-0.09,-0.08900000000000001,-0.087,-0.087,-0.086,-0.085,-0.083,-0.081,-0.079,-0.078,-0.078,-0.076,-0.075,-0.073,-0.071,-0.071,-0.07,-0.069,-0.068,-0.067,-0.067,-0.067,-0.067,-0.063,-0.057999999999999996,-0.042,-0.026000000000000002,0.01,0.046,0.11,0.17300000000000001,0.26,0.348,0.44299999999999995,0.5379999999999999,0.613,0.688,0.721,0.755,0.738,0.721,0.665,0.608,0.5329999999999999,0.45899999999999996,0.389,0.319,0.271,0.222,0.203,0.184,0.185,0.18600000000000003,0.19699999999999998,0.20800000000000002,0.22,0.23199999999999998,0.24,0.247,0.253,0.259,0.267,0.275,0.285,0.295,0.3,0.306,0.299,0.293,0.273,0.253,0.222,0.192,0.159,0.126,0.099,0.071,0.051,0.031,0.018000000000000002,0.004,-0.005,-0.013999999999999999,-0.019,-0.024,-0.026000000000000002,-0.027999999999999997,-0.028999999999999998,-0.028999999999999998,-0.028999999999999998,-0.027999999999999997,-0.027999999999999997,-0.027999999999999997,-0.027999999999999997,-0.027999999999999997,-0.028999999999999998,-0.028999999999999998,-0.03,-0.031,-0.032,-0.032,-0.032,-0.032,-0.032,-0.032,-0.032,-0.031,-0.03,-0.027999999999999997,-0.025,-0.023,-0.021,-0.019,-0.017,-0.013999999999999999,-0.011000000000000001,-0.008,-0.005,-0.002,0.001,0.004,0.009000000000000001,0.013000000000000001,0.017,0.022000000000000002,0.025,0.027999999999999997,0.031,0.035,0.039,0.043,0.049,0.054000000000000006,0.059000000000000004,0.065,0.069,0.07200000000000001,0.076,0.08,0.08199999999999999,0.084,0.085,0.086,0.086,0.086,0.086,0.086,0.086,0.085,0.084,0.08199999999999999,0.079,0.077,0.073,0.069,0.065,0.06,0.054000000000000006,0.048,0.039,0.031,0.022000000000000002,0.012,0.001,-0.01,-0.022000000000000002,-0.033,-0.045,-0.057,-0.069,-0.081,-0.092,-0.10300000000000001,-0.11,-0.11800000000000001,-0.122,-0.126,-0.129,-0.132,-0.133,-0.135,-0.135,-0.135,-0.134,-0.134,-0.132,-0.131,-0.127,-0.124,-0.11900000000000001,-0.114,-0.107,-0.1,-0.092,-0.084,-0.077,-0.069,-0.063,-0.055999999999999994,-0.051,-0.045,-0.042,-0.038,-0.034,-0.03,-0.027000000000000003,-0.024,-0.021,-0.018000000000000002,-0.017,-0.015,-0.013000000000000001,-0.011000000000000001,-0.009000000000000001,-0.006,-0.003,0.0,0.002,0.004,0.006,0.009000000000000001,0.011000000000000001,0.013000000000000001,0.013999999999999999,0.015,0.016,0.016,0.016,0.015,0.015,0.015,0.015,0.015,0.016,0.016,0.019,0.022000000000000002,0.028999999999999998,0.036000000000000004,0.045,0.055,0.065,0.076,0.087,0.098,0.10800000000000001,0.11800000000000001,0.125,0.133,0.139,0.146,0.154,0.162,0.17,0.17800000000000002,0.182,0.18600000000000003,0.18,0.175,0.161,0.14800000000000002,0.13,0.11199999999999999,0.09699999999999999,0.08199999999999999,0.075,0.068,0.066,0.064,0.061,0.057999999999999996,0.052000000000000005,0.045,0.035,0.025,0.012,0.0,-0.012,-0.025,-0.037000000000000005,-0.049,-0.057,-0.066,-0.065,-0.065,-0.057,-0.049,-0.036000000000000004,-0.023,-0.011000000000000001,0.001,0.008,0.015,0.016,0.017,0.016,0.015,0.015,0.015,0.015,0.015,0.015,0.015,0.015,0.015,0.015,0.015,0.015,0.015,0.015,0.015,0.015,0.015,0.015,0.015,0.015,0.015,0.015,0.015,0.015,0.015,0.015,0.015,0.015,0.015,0.015,0.015,0.015,0.015,0.015,0.015,0.015,0.015,0.015,0.015,0.015,0.015,0.015,0.015,0.015,0.015,0.015,0.015,0.015,0.015,0.015,0.015,0.015,0.015,0.015,0.015,0.015,0.015,0.015,0.015,0.015,0.015,0.015,0.015,0.015,0.015,0.015,0.015,0.015,0.015,0.015,0.015,0.015,0.015,0.015,0.015,0.015,0.015,0.015,0.015,0.015,0.015,0.015,0.015,0.015,0.015,0.015,0.015,0.015,0.015,0.015,0.015,0.015,0.015,0.015,0.015,0.015,0.015,0.015,0.015,0.015,0.015,0.015,0.015,0.015,0.015,0.015,0.015,0.015,0.015,0.015,0.015,0.015,0.015,0.015,0.015,0.015,0.015,0.015,0.015,0.015,0.015,0.015,0.015,0.015,0.015,0.015,0.015,0.015,0.015,0.015,0.015,0.015,0.015,0.015,0.015,0.015,0.015,0.015,0.015,0.015,0.015,0.015,0.015,0.015,0.015,0.015,0.015,0.015,0.015,0.015,0.015,0.015,0.015,0.015,0.015,0.015,0.015,0.015,0.015,0.015,0.015,0.015,0.015,0.015,0.015,0.015,0.015,0.015,0.015,0.015,0.015,0.015,0.015,0.015,0.015,0.015,0.015,0.015,0.015,0.015,0.015,0.015,0.015,0.015,0.015,0.015,0.015,0.015,0.015,0.015,0.015,0.015,0.015,0.015,0.015,0.015,0.015,0.015,0.015,0.015,0.015,0.015,0.015,0.015,0.015,0.015,0.015,0.015,0.015,0.015,0.015,0.015,0.015,0.015,0.015,0.015,0.015,0.015,0.015,0.015,0.015,0.015,0.015,0.015,0.015,0.015,0.015,0.015,0.015,0.015,0.015,0.015,0.015,0.015,0.015,0.015,0.015,0.015,0.015,0.015,0.015,0.017,0.018000000000000002,0.024,0.028999999999999998,0.037000000000000005,0.044000000000000004,0.053,0.063,0.07,0.077,0.081,0.085,0.087,0.08900000000000001,0.08800000000000001,0.087,0.087,0.086,0.086,0.086,0.086,0.086,0.086,0.085,0.084,0.083,0.083,0.08199999999999999,0.08199999999999999,0.08199999999999999,0.08199999999999999,0.08199999999999999,0.081,0.08,0.079,0.078,0.076,0.075,0.075,0.075,0.075,0.075,0.075,0.075,0.075,0.075,0.075,0.075,0.075,0.075,0.07400000000000001,0.073,0.07200000000000001,0.071,0.07,0.069,0.068,0.067,0.067,0.067,0.067,0.067,0.066,0.066,0.065,0.064,0.063,0.063,0.063,0.063,0.063,0.063,0.063,0.063,0.062,0.062,0.06,0.059000000000000004,0.059000000000000004,0.057999999999999996,0.059000000000000004,0.059000000000000004,0.059000000000000004,0.059000000000000004,0.059000000000000004,0.059000000000000004,0.059000000000000004,0.059000000000000004,0.059000000000000004,0.059000000000000004,0.059000000000000004,0.059000000000000004,0.059000000000000004,0.059000000000000004,0.059000000000000004,0.059000000000000004,0.059000000000000004,0.057999999999999996,0.057,0.055999999999999994,0.055,0.054000000000000006,0.055,0.055,0.055999999999999994,0.055999999999999994,0.057,0.057999999999999996,0.059000000000000004,0.059000000000000004,0.059000000000000004,0.059000000000000004,0.06,0.06,0.061,0.062,0.061,0.06,0.059000000000000004,0.057,0.057,0.055999999999999994,0.055,0.053,0.052000000000000005,0.052000000000000005,0.052000000000000005,0.052000000000000005,0.052000000000000005,0.053,0.053,0.053,0.052000000000000005,0.051,0.051,0.051,0.051,0.051,0.051,0.051,0.051,0.051,0.051,0.051,0.051,0.051,0.051,0.051,0.051,0.051,0.051,0.051,0.051,0.051,0.051,0.051,0.051,0.051,0.051,0.051,0.051,0.051,0.057,0.063,0.09300000000000001,0.124,0.195,0.266,0.371,0.47700000000000004,0.595,0.713,0.81,0.9079999999999999,0.965,1.023,1.04,1.057,1.055,1.052,1.046,1.041,1.036,1.031,1.026,1.021,1.015,1.01,1.004,0.9990000000000001,0.9940000000000001,0.9890000000000001,0.983,0.977,0.972,0.968,0.963,0.958,0.953,0.948,0.943,0.938,0.934,0.929,0.9229999999999999,0.9179999999999999,0.914,0.909,0.904,0.898,0.894,0.889,0.884,0.879,0.8740000000000001,0.8690000000000001,0.8640000000000001,0.86,0.855,0.85,0.847,0.843,N
10,0.259,0.267,0.275,0.285,0.295,0.3,0.306,0.299,0.293,0.273,0.253,0.222,0.192,0.159,0.126,0.099,0.071,0.051,0.031,0.018000000000000002,0.004,-0.005,-0.013999999999999999,-0.019,-0.024,-0.026000000000000002,-0.027999999999999997,-0.028999999999999998,-0.028999999999999998,-0.028999999999999998,-0.027999999999999997,-0.027999999999999997,-0.027999999999999997,-0.027999999999999997,-0.027999999999999997,-0.028999999999999998,-0.028999999999999998,-0.03,-0.031,-0.032,-0.032,-0.032,-0.032,-0.032,-0.032,-0.032,-0.031,-0.03,-0.027999999999999997,-0.025,-0.023,-0.021,-0.019,-0.017,-0.013999999999999999,-0.011000000000000001,-0.008,-0.005,-0.002,0.001,0.004,0.009000000000000001,0.013000000000000001,0.017,0.022000000000000002,0.025,0.027999999999999997,0.031,0.035,0.039,0.043,0.049,0.054000000000000006,0.059000000000000004,0.065,0.069,0.07200000000000001,0.076,0.08,0.08199999999999999,0.084,0.085,0.086,0.086,0.086,0.086,0.086,0.086,0.085,0.084,0.08199999999999999,0.079,0.077,0.073,0.069,0.065,0.06,0.054000000000000006,0.048,0.039,0.031,0.022000000000000002,0.012,0.001,-0.01,-0.022000000000000002,-0.033,-0.045,-0.057,-0.069,-0.081,-0.092,-0.10300000000000001,-0.11,-0.11800000000000001,-0.122,-0.126,-0.129,-0.132,-0.133,-0.135,-0.135,-0.135,-0.134,-0.134,-0.132,-0.131,-0.127,-0.124,-0.11900000000000001,-0.114,-0.107,-0.1,-0.092,-0.084,-0.077,-0.069,-0.063,-0.055999999999999994,-0.051,-0.045,-0.042,-0.038,-0.034,-0.03,-0.027000000000000003,-0.024,-0.021,-0.018000000000000002,-0.017,-0.015,-0.013000000000000001,-0.011000000000000001,-0.009000000000000001,-0.006,-0.003,0.0,0.002,0.004,0.006,0.009000000000000001,0.011000000000000001,0.013000000000000001,0.013999999999999999,0.015,0.016,0.016,0.016,0.015,0.015,0.015,0.015,0.015,0.016,0.016,0.019,0.022000000000000002,0.028999999999999998,0.036000000000000004,0.045,0.055,0.065,0.076,0.087,0.098,0.10800000000000001,0.11800000000000001,0.125,0.133,0.139,0.146,0.154,0.162,0.17,0.17800000000000002,0.182,0.18600000000000003,0.18,0.175,0.161,0.14800000000000002,0.13,0.11199999999999999,0.09699999999999999,0.08199999999999999,0.075,0.068,0.066,0.064,0.061,0.057999999999999996,0.052000000000000005,0.045,0.035,0.025,0.012,0.0,-0.012,-0.025,-0.037000000000000005,-0.049,-0.057,-0.066,-0.065,-0.065,-0.057,-0.049,-0.036000000000000004,-0.023,-0.011000000000000001,0.001,0.008,0.015,0.016,0.017,0.016,0.015,0.015,0.015,0.015,0.015,0.015,0.015,0.015,0.015,0.015,0.015,0.015,0.015,0.015,0.015,0.015,0.015,0.015,0.015,0.015,0.015,0.015,0.015,0.015,0.015,0.015,0.015,0.015,0.015,0.015,0.015,0.015,0.015,0.015,0.015,0.015,0.015,0.015,0.015,0.015,0.015,0.015,0.015,0.015,0.015,0.015,0.015,0.015,0.015,0.015,0.015,0.015,0.015,0.015,0.015,0.015,0.015,0.015,0.015,0.015,0.015,0.015,0.015,0.015,0.015,0.015,0.015,0.015,0.015,0.015,0.015,0.015,0.015,0.015,0.015,0.015,0.015,0.015,0.015,0.015,0.015,0.015,0.015,0.015,0.015,0.015,0.015,0.015,0.015,0.015,0.015,0.015,0.015,0.015,0.015,0.015,0.015,0.015,0.015,0.015,0.015,0.015,0.015,0.015,0.015,0.015,0.015,0.015,0.015,0.015,0.015,0.015,0.015,0.015,0.015,0.015,0.015,0.015,0.015,0.015,0.015,0.015,0.015,0.015,0.015,0.015,0.015,0.015,0.015,0.015,0.015,0.015,0.015,0.015,0.015,0.015,0.015,0.015,0.015,0.015,0.015,0.015,0.015,0.015,0.015,0.015,0.015,0.015,0.015,0.015,0.015,0.015,0.015,0.015,0.015,0.015,0.015,0.015,0.015,0.015,0.015,0.015,0.015,0.015,0.015,0.015,0.015,0.015,0.015,0.015,0.015,0.015,0.015,0.015,0.015,0.015,0.015,0.015,0.015,0.015,0.015,0.015,0.015,0.015,0.015,0.015,0.015,0.015,0.015,0.015,0.015,0.015,0.015,0.015,0.015,0.015,0.015,0.015,0.015,0.015,0.015,0.015,0.015,0.015,0.015,0.015,0.015,0.015,0.015,0.015,0.015,0.015,0.015,0.015,0.015,0.015,0.015,0.015,0.015,0.015,0.015,0.015,0.015,0.015,0.015,0.015,0.015,0.015,0.015,0.015,0.015,0.015,0.015,0.015,0.015,0.015,0.015,0.015,0.015,0.015,0.015,0.017,0.018000000000000002,0.024,0.028999999999999998,0.037000000000000005,0.044000000000000004,0.053,0.063,0.07,0.077,0.081,0.085,0.087,0.08900000000000001,0.08800000000000001,0.087,0.087,0.086,0.086,0.086,0.086,0.086,0.086,0.085,0.084,0.083,0.083,0.08199999999999999,0.08199999999999999,0.08199999999999999,0.08199999999999999,0.08199999999999999,0.081,0.08,0.079,0.078,0.076,0.075,0.075,0.075,0.075,0.075,0.075,0.075,0.075,0.075,0.075,0.075,0.075,0.075,0.07400000000000001,0.073,0.07200000000000001,0.071,0.07,0.069,0.068,0.067,0.067,0.067,0.067,0.067,0.066,0.066,0.065,0.064,0.063,0.063,0.063,0.063,0.063,0.063,0.063,0.063,0.062,0.062,0.06,0.059000000000000004,0.059000000000000004,0.057999999999999996,0.059000000000000004,0.059000000000000004,0.059000000000000004,0.059000000000000004,0.059000000000000004,0.059000000000000004,0.059000000000000004,0.059000000000000004,0.059000000000000004,0.059000000000000004,0.059000000000000004,0.059000000000000004,0.059000000000000004,0.059000000000000004,0.059000000000000004,0.059000000000000004,0.059000000000000004,0.057999999999999996,0.057,0.055999999999999994,0.055,0.054000000000000006,0.055,0.055,0.055999999999999994,0.055999999999999994,0.057,0.057999999999999996,0.059000000000000004,0.059000000000000004,0.059000000000000004,0.059000000000000004,0.06,0.06,0.061,0.062,0.061,0.06,0.059000000000000004,0.057,0.057,0.055999999999999994,0.055,0.053,0.052000000000000005,0.052000000000000005,0.052000000000000005,0.052000000000000005,0.052000000000000005,0.053,0.053,0.053,0.052000000000000005,0.051,0.051,0.051,0.051,0.051,0.051,0.051,0.051,0.051,0.051,0.051,0.051,0.051,0.051,0.051,0.051,0.051,0.051,0.051,0.051,0.051,0.051,0.051,0.051,0.051,0.051,0.051,0.051,0.051,0.057,0.063,0.09300000000000001,0.124,0.195,0.266,0.371,0.47700000000000004,0.595,0.713,0.81,0.9079999999999999,0.965,1.023,1.04,1.057,1.055,1.052,1.046,1.041,1.036,1.031,1.026,1.021,1.015,1.01,1.004,0.9990000000000001,0.9940000000000001,0.9890000000000001,0.983,0.977,0.972,0.968,0.963,0.958,0.953,0.948,0.943,0.938,0.934,0.929,0.9229999999999999,0.9179999999999999,0.914,0.909,0.904,0.898,0.894,0.889,0.884,0.879,0.8740000000000001,0.8690000000000001,0.8640000000000001,0.86,0.855,0.85,0.847,0.843,0.84,0.836,0.8320000000000001,0.8270000000000001,0.823,0.82,0.815,0.81,0.805,0.8,0.795,0.79,0.7859999999999999,0.7809999999999999,0.778,0.775,0.772,0.768,0.762,0.757,0.753,0.748,0.7440000000000001,0.74,0.736,0.732,0.728,0.725,0.721,0.7170000000000001,0.713,0.708,0.705,0.701,0.698,0.6940000000000001,0.691,0.688,0.685,0.6809999999999999,0.677,0.6729999999999999,0.669,0.665,0.6609999999999999,0.6579999999999999,0.654,0.6509999999999999,0.648,0.645,0.6409999999999999,0.638,0.634,0.631,0.628,0.625,0.623,0.62,0.617,0.613,0.61,0.606,0.602,0.598,0.594,0.59,0.586,0.583,0.581,0.579,0.5770000000000001,0.575,0.5710000000000001,0.568,0.565,0.563,0.5589999999999999,0.556,0.5529999999999999,0.55,0.547,0.544,0.541,0.5379999999999999,0.529,0.521,0.488,0.455,0.382,0.309,0.2,0.092,-0.027999999999999997,-0.14800000000000002,-0.247,-0.34700000000000003,-0.40700000000000003,-0.467,-0.488,-0.51,-0.511,-0.512,-0.509,-0.505,-0.503,-0.501,-0.498,-0.496,-0.49200000000000005,-0.489,-0.48700000000000004,-0.485,-0.483,-0.48100000000000004,-0.47700000000000004,-0.474,-0.47100000000000003,-0.469,-0.467,-0.46399999999999997,-0.461,-0.45799999999999996,-0.456,-0.45399999999999996,-0.451,-0.44799999999999995,-0.445,-0.442,-0.439,-0.436,-0.434,-0.431,-0.428,-0.424,-0.42200000000000004,-0.419,-0.41600000000000004,-0.414,-0.41200000000000003,-0.41,-0.41,-0.41,-0.409,-0.40700000000000003,-0.40399999999999997,-0.401,-0.397,-0.39299999999999996,-0.389,-0.386,-0.382,-0.379,-0.377,-0.375,-0.374,-0.374,-0.373,-0.371,-0.369,-0.36700000000000005,-0.365,-0.363,-0.361,-0.359,-0.35600000000000004,-0.354,-0.35200000000000004,-0.35,-0.34700000000000003,-0.34299999999999997,-0.341,-0.33899999999999997,-0.33899999999999997,-0.33799999999999997,-0.337,-0.336,-0.33399999999999996,-0.332,-0.32899999999999996,-0.326,-0.32299999999999995,-0.32,-0.317,-0.315,-0.314,-0.312,-0.311,-0.31,-0.307,-0.305,-0.302,-0.299,-0.298,-0.29600000000000004,-0.294,-0.292,-0.289,-0.287,-0.28600000000000003,-0.284,-0.282,-0.28,-0.27899999999999997,-0.278,-0.276,-0.275,-0.27399999999999997,-0.272,-0.271,-0.26899999999999996,-0.266,-0.263,-0.262,-0.26,-0.259,-0.257,-0.256,-0.255,-0.254,-0.253,-0.251,-0.248,-0.24600000000000002,-0.244,-0.242,-0.24100000000000002,-0.239,-0.237,-0.235,-0.233,-0.233,-0.233,-0.233,-0.233,-0.233,-0.233,-0.233,-0.23199999999999998,-0.231,-0.23,-0.22899999999999998,-0.228,-0.221,-0.214,-0.196,-0.17800000000000002,-0.151,-0.12300000000000001,-0.092,-0.06,-0.036000000000000004,-0.011000000000000001,0.002,0.015,0.017,0.019,0.018000000000000002,0.016,0.016,0.015,0.015,0.015,0.015,0.015,0.015,0.015,0.015,0.015,0.015,0.015,0.015,0.015,0.015,0.015,0.015,0.015,0.015,0.015,0.015,0.015,0.015,0.015,0.015,0.015,0.015,0.015,0.015,0.015,0.015,0.015,0.015,0.015,0.015,0.015,0.015,0.015,0.015,0.015,0.015,0.015,0.015,N
11,0.943,0.938,0.934,0.929,0.9229999999999999,0.9179999999999999,0.914,0.909,0.904,0.898,0.894,0.889,0.884,0.879,0.8740000000000001,0.8690000000000001,0.8640000000000001,0.86,0.855,0.85,0.847,0.843,0.84,0.836,0.8320000000000001,0.8270000000000001,0.823,0.82,0.815,0.81,0.805,0.8,0.795,0.79,0.7859999999999999,0.7809999999999999,0.778,0.775,0.772,0.768,0.762,0.757,0.753,0.748,0.7440000000000001,0.74,0.736,0.732,0.728,0.725,0.721,0.7170000000000001,0.713,0.708,0.705,0.701,0.698,0.6940000000000001,0.691,0.688,0.685,0.6809999999999999,0.677,0.6729999999999999,0.669,0.665,0.6609999999999999,0.6579999999999999,0.654,0.6509999999999999,0.648,0.645,0.6409999999999999,0.638,0.634,0.631,0.628,0.625,0.623,0.62,0.617,0.613,0.61,0.606,0.602,0.598,0.594,0.59,0.586,0.583,0.581,0.579,0.5770000000000001,0.575,0.5710000000000001,0.568,0.565,0.563,0.5589999999999999,0.556,0.5529999999999999,0.55,0.547,0.544,0.541,0.5379999999999999,0.529,0.521,0.488,0.455,0.382,0.309,0.2,0.092,-0.027999999999999997,-0.14800000000000002,-0.247,-0.34700000000000003,-0.40700000000000003,-0.467,-0.488,-0.51,-0.511,-0.512,-0.509,-0.505,-0.503,-0.501,-0.498,-0.496,-0.49200000000000005,-0.489,-0.48700000000000004,-0.485,-0.483,-0.48100000000000004,-0.47700000000000004,-0.474,-0.47100000000000003,-0.469,-0.467,-0.46399999999999997,-0.461,-0.45799999999999996,-0.456,-0.45399999999999996,-0.451,-0.44799999999999995,-0.445,-0.442,-0.439,-0.436,-0.434,-0.431,-0.428,-0.424,-0.42200000000000004,-0.419,-0.41600000000000004,-0.414,-0.41200000000000003,-0.41,-0.41,-0.41,-0.409,-0.40700000000000003,-0.40399999999999997,-0.401,-0.397,-0.39299999999999996,-0.389,-0.386,-0.382,-0.379,-0.377,-0.375,-0.374,-0.374,-0.373,-0.371,-0.369,-0.36700000000000005,-0.365,-0.363,-0.361,-0.359,-0.35600000000000004,-0.354,-0.35200000000000004,-0.35,-0.34700000000000003,-0.34299999999999997,-0.341,-0.33899999999999997,-0.33899999999999997,-0.33799999999999997,-0.337,-0.336,-0.33399999999999996,-0.332,-0.32899999999999996,-0.326,-0.32299999999999995,-0.32,-0.317,-0.315,-0.314,-0.312,-0.311,-0.31,-0.307,-0.305,-0.302,-0.299,-0.298,-0.29600000000000004,-0.294,-0.292,-0.289,-0.287,-0.28600000000000003,-0.284,-0.282,-0.28,-0.27899999999999997,-0.278,-0.276,-0.275,-0.27399999999999997,-0.272,-0.271,-0.26899999999999996,-0.266,-0.263,-0.262,-0.26,-0.259,-0.257,-0.256,-0.255,-0.254,-0.253,-0.251,-0.248,-0.24600000000000002,-0.244,-0.242,-0.24100000000000002,-0.239,-0.237,-0.235,-0.233,-0.233,-0.233,-0.233,-0.233,-0.233,-0.233,-0.233,-0.23199999999999998,-0.231,-0.23,-0.22899999999999998,-0.228,-0.221,-0.214,-0.196,-0.17800000000000002,-0.151,-0.12300000000000001,-0.092,-0.06,-0.036000000000000004,-0.011000000000000001,0.002,0.015,0.017,0.019,0.018000000000000002,0.016,0.016,0.015,0.015,0.015,0.015,0.015,0.015,0.015,0.015,0.015,0.015,0.015,0.015,0.015,0.015,0.015,0.015,0.015,0.015,0.015,0.015,0.015,0.015,0.015,0.015,0.015,0.015,0.015,0.015,0.015,0.015,0.015,0.015,0.015,0.015,0.015,0.015,0.015,0.015,0.015,0.015,0.015,0.015,0.015,0.015,0.015,0.015,0.015,0.015,0.015,0.015,0.015,0.015,0.015,0.015,0.015,0.015,0.015,0.015,0.015,0.015,0.015,0.015,0.015,0.015,0.015,0.015,0.015,0.015,0.015,0.015,0.015,0.015,0.015,0.015,0.015,0.015,0.015,0.015,0.015,0.015,0.015,0.015,0.015,0.015,0.015,0.015,0.015,0.015,0.015,0.015,0.015,0.015,0.015,0.015,0.015,0.015,0.015,0.015,0.015,0.015,0.015,0.015,0.015,0.015,0.015,0.015,0.015,0.015,0.015,0.015,0.015,0.015,0.015,0.015,0.015,0.015,0.015,0.015,0.015,0.015,0.015,0.015,0.015,0.015,0.015,0.015,0.015,0.015,0.015,0.015,0.015,0.015,0.015,0.015,0.015,0.015,0.015,0.015,0.015,0.015,0.015,0.015,0.015,0.015,0.015,0.015,0.015,0.015,0.015,0.015,0.015,0.015,0.015,0.015,0.015,0.015,0.015,0.015,0.015,0.015,0.015,0.015,0.015,0.015,0.015,0.015,0.015,0.015,0.015,0.015,0.015,0.015,0.015,0.015,0.015,0.015,0.015,0.015,0.015,0.015,0.015,0.015,0.015,0.015,0.015,0.015,0.015,0.015,0.015,0.015,0.015,0.015,0.015,0.015,0.015,0.015,0.015,0.015,0.015,0.015,0.015,0.015,0.015,0.015,0.015,0.015,0.015,0.015,0.015,0.015,0.015,0.015,0.015,0.015,0.015,0.015,0.015,0.015,0.015,0.015,0.015,0.015,0.015,0.015,0.015,0.015,0.015,0.015,0.015,0.015,0.015,0.015,0.015,0.015,0.015,0.015,0.015,0.015,0.015,0.024,0.033,0.057999999999999996,0.08199999999999999,0.113,0.145,0.16899999999999998,0.193,0.2,0.20600000000000002,0.195,0.184,0.16399999999999998,0.145,0.133,0.122,0.129,0.135,0.14800000000000002,0.161,0.17,0.179,0.183,0.187,0.18600000000000003,0.185,0.18100000000000002,0.17800000000000002,0.177,0.17600000000000002,0.175,0.174,0.166,0.159,0.14,0.122,0.094,0.067,0.036000000000000004,0.004,-0.023,-0.051,-0.07,-0.09,-0.1,-0.111,-0.11599999999999999,-0.12,-0.11900000000000001,-0.11800000000000001,-0.113,-0.10800000000000001,-0.10099999999999999,-0.094,-0.087,-0.081,-0.079,-0.077,-0.078,-0.079,-0.08199999999999999,-0.084,-0.086,-0.087,-0.087,-0.086,-0.085,-0.083,-0.081,-0.079,-0.079,-0.079,-0.078,-0.078,-0.077,-0.076,-0.075,-0.073,-0.07200000000000001,-0.071,-0.069,-0.067,-0.065,-0.063,-0.059000000000000004,-0.055999999999999994,-0.052000000000000005,-0.049,-0.045,-0.040999999999999995,-0.038,-0.036000000000000004,-0.033,-0.03,-0.027000000000000003,-0.024,-0.021,-0.018000000000000002,-0.016,-0.013999999999999999,-0.011000000000000001,-0.008,-0.005,-0.003,-0.002,0.0,0.002,0.004,0.006,0.009000000000000001,0.011000000000000001,0.013000000000000001,0.013999999999999999,0.015,0.016,0.016,0.015,0.013999999999999999,0.012,0.011000000000000001,0.008,0.005,0.001,-0.003,-0.009000000000000001,-0.015,-0.023,-0.03,-0.038,-0.045,-0.053,-0.062,-0.071,-0.08,-0.08900000000000001,-0.09699999999999999,-0.10400000000000001,-0.111,-0.11800000000000001,-0.124,-0.129,-0.134,-0.136,-0.138,-0.138,-0.138,-0.135,-0.132,-0.127,-0.122,-0.11599999999999999,-0.11,-0.10300000000000001,-0.096,-0.087,-0.079,-0.069,-0.059000000000000004,-0.049,-0.039,-0.03,-0.021,-0.012,-0.004,0.002,0.009000000000000001,0.013000000000000001,0.018000000000000002,0.022000000000000002,0.026000000000000002,0.03,0.033,0.038,0.043,0.046,0.049,0.051,0.053,0.055,0.055999999999999994,0.057,0.057999999999999996,0.059000000000000004,0.06,0.062,0.064,0.066,0.068,0.069,0.07,0.071,0.07200000000000001,0.073,0.073,0.075,0.077,0.08,0.084,0.09,0.095,0.10300000000000001,0.11,0.12,0.131,0.14,0.15,0.159,0.16699999999999998,0.174,0.18,0.185,0.18899999999999997,0.195,0.20199999999999999,0.21100000000000002,0.21899999999999997,0.226,0.23199999999999998,0.23199999999999998,0.231,0.222,0.214,0.198,0.18100000000000002,0.165,0.14800000000000002,0.138,0.127,0.12300000000000001,0.11800000000000001,0.115,0.11199999999999999,0.107,0.102,0.092,0.083,0.07,0.055999999999999994,0.040999999999999995,0.026000000000000002,0.012,-0.002,-0.013000000000000001,-0.025,-0.034,-0.043,-0.051,-0.059000000000000004,-0.064,-0.068,-0.071,-0.075,-0.077,-0.08,-0.08199999999999999,-0.084,-0.086,-0.08900000000000001,-0.09,-0.091,-0.091,-0.092,-0.092,-0.092,-0.09300000000000001,-0.094,-0.095,-0.096,-0.09699999999999999,-0.098,-0.09699999999999999,-0.096,-0.095,-0.094,-0.092,-0.091,-0.08900000000000001,-0.086,-0.084,-0.08199999999999999,-0.08,-0.079,-0.078,-0.078,-0.077,-0.076,-0.075,-0.075,-0.075,-0.076,-0.073,-0.071,-0.06,-0.05,-0.021,0.008,0.06,0.113,0.192,0.27,0.36200000000000004,0.455,0.5379999999999999,0.622,0.6729999999999999,0.7240000000000001,0.727,0.73,0.688,0.6459999999999999,0.578,0.511,0.44,0.369,0.314,0.259,0.22899999999999998,0.2,0.19399999999999998,0.18899999999999997,0.198,0.20600000000000002,0.21899999999999997,0.231,0.239,0.24600000000000002,0.248,0.251,0.254,0.258,0.266,0.273,0.27899999999999997,0.284,0.281,0.278,0.262,0.24600000000000002,0.217,0.188,0.155,0.122,0.09300000000000001,0.065,0.043,0.022000000000000002,0.008,-0.006,-0.016,-0.026000000000000002,-0.03,-0.035,-0.035,-0.036000000000000004,-0.036000000000000004,-0.036000000000000004,-0.036000000000000004,-0.036000000000000004,-0.036000000000000004,-0.036000000000000004,-0.036000000000000004,-0.036000000000000004,-0.036000000000000004,-0.036000000000000004,-0.036000000000000004,-0.036000000000000004,-0.036000000000000004,-0.036000000000000004,-0.035,-0.035,-0.033,-0.031,-0.028999999999999998,-0.027000000000000003,-0.025,-0.023,-0.022000000000000002,-0.021,-0.019,-0.018000000000000002,-0.017,-0.016,-0.013000000000000001,-0.01,-0.006,-0.003,0.001,0.004,0.006999999999999999,0.01,0.013000000000000001,0.016,0.019,0.022000000000000002,0.025,0.028999999999999998,0.033,0.037000000000000005,0.040999999999999995,0.045,0.049,0.053,0.057,0.06,0.064,0.067,0.07,0.073,0.076,0.079,0.081,0.083,0.083,0.083,0.08199999999999999,0.081,0.079,0.078,0.075,0.07200000000000001,0.069,0.066,0.061,0.055999999999999994,0.049,0.042,0.033,0.025,0.015,0.005,-0.005,-0.015,-0.026000000000000002,-0.038,-0.049,-0.059000000000000004,-0.07,-0.081,-0.092,-0.10400000000000001,-0.113,-0.122,-0.129,-0.135,-0.14,-0.146,-0.14800000000000002,-0.151,-0.151,-0.15,-0.14800000000000002,-0.146,-0.14300000000000002,-0.139,-0.134,-0.13,-0.124,-0.11800000000000001,-0.11199999999999999,-0.106,-0.099,-0.09300000000000001,-0.086,-0.079,-0.073,-0.067,-0.061,-0.055,-0.049,-0.043,-0.038,-0.033,-0.028999999999999998,-0.025,-0.021,-0.016,-0.013000000000000001,-0.01,-0.006999999999999999,-0.004,N
