0,-0.085,-0.084,-0.084,-0.084,-0.085,-0.085,-0.085,-0.085,-0.085,-0.084,-0.083,-0.08199999999999999,-0.081,-0.079,-0.078,-0.077,-0.076,-0.075,-0.073,-0.07200000000000001,-0.07,-0.068,-0.067,-0.066,-0.063,-0.061,-0.059000000000000004,-0.057,-0.055,-0.053,-0.051,-0.049,-0.047,-0.044000000000000004,-0.043,-0.042,-0.039,-0.037000000000000005,-0.035,-0.032,-0.028999999999999998,-0.026000000000000002,-0.024,-0.022000000000000002,-0.02,-0.017,-0.013999999999999999,-0.012,-0.01,-0.008,-0.006,-0.004,-0.001,0.001,0.004,0.008,0.011000000000000001,0.013999999999999999,0.018000000000000002,0.021,0.025,0.028999999999999998,0.032,0.036000000000000004,0.040999999999999995,0.045,0.05,0.055999999999999994,0.061,0.067,0.073,0.079,0.085,0.09,0.095,0.1,0.10400000000000001,0.109,0.113,0.11599999999999999,0.11800000000000001,0.121,0.121,0.122,0.122,0.122,0.121,0.11900000000000001,0.11800000000000001,0.11599999999999999,0.114,0.11199999999999999,0.11,0.10800000000000001,0.106,0.10400000000000001,0.1,0.096,0.091,0.086,0.081,0.077,0.073,0.068,0.064,0.06,0.055,0.05,0.045,0.04,0.035,0.03,0.025,0.02,0.016,0.012,0.008,0.004,0.001,-0.001,-0.004,-0.006,-0.01,-0.013000000000000001,-0.016,-0.019,-0.022000000000000002,-0.024,-0.025,-0.027000000000000003,-0.027999999999999997,-0.028999999999999998,-0.03,-0.03,-0.031,-0.032,-0.032,-0.033,-0.033,-0.034,-0.034,-0.033,-0.034,-0.034,-0.034,-0.034,-0.033,-0.033,-0.032,-0.032,-0.031,-0.03,-0.028999999999999998,-0.027000000000000003,-0.026000000000000002,-0.025,-0.023,-0.022000000000000002,-0.02,-0.019,-0.019,-0.019,-0.018000000000000002,-0.017,-0.016,-0.015,-0.013999999999999999,-0.013000000000000001,-0.012,-0.012,-0.011000000000000001,-0.009000000000000001,-0.009000000000000001,-0.008,-0.008,-0.008,-0.008,-0.008,-0.008,-0.008,-0.008,-0.008,-0.006999999999999999,-0.006999999999999999,-0.006999999999999999,-0.006,-0.006,-0.006,-0.006,-0.006,-0.005,-0.005,-0.004,-0.004,-0.004,-0.005,-0.006,-0.006,-0.006999999999999999,-0.006999999999999999,-0.008,-0.009000000000000001,-0.009000000000000001,-0.009000000000000001,-0.009000000000000001,-0.009000000000000001,-0.01,-0.011000000000000001,-0.011000000000000001,-0.012,-0.012,-0.013000000000000001,-0.013000000000000001,-0.013000000000000001,-0.013000000000000001,-0.013000000000000001,-0.013000000000000001,-0.013000000000000001,-0.013999999999999999,-0.015,-0.015,-0.016,-0.015,-0.015,-0.013000000000000001,-0.012,-0.01,-0.006999999999999999,-0.004,0.0,0.003,0.006,0.008,0.011000000000000001,0.011000000000000001,0.012,0.013000000000000001,0.015,0.017,0.019,0.023,0.027000000000000003,0.032,0.037000000000000005,0.042,0.047,0.051,0.054000000000000006,0.055,0.055,0.052000000000000005,0.05,0.045,0.04,0.035,0.028999999999999998,0.023,0.018000000000000002,0.013000000000000001,0.008,0.003,-0.002,-0.008,-0.013000000000000001,-0.018000000000000002,-0.022000000000000002,-0.027000000000000003,-0.032,-0.036000000000000004,-0.040999999999999995,-0.045,-0.049,-0.051,-0.054000000000000006,-0.055,-0.055999999999999994,-0.055999999999999994,-0.055999999999999994,-0.055,-0.054000000000000006,-0.054000000000000006,-0.053,-0.052000000000000005,-0.051,-0.051,-0.051,-0.051,-0.051,-0.051,-0.051,-0.051,-0.051,-0.051,-0.05,-0.052000000000000005,-0.053,-0.057999999999999996,-0.063,-0.069,-0.075,-0.08,-0.085,-0.08199999999999999,-0.078,-0.055999999999999994,-0.035,0.01,0.055999999999999994,0.121,0.187,0.259,0.331,0.385,0.439,0.455,0.47100000000000003,0.444,0.41600000000000004,0.355,0.294,0.222,0.15,0.08900000000000001,0.027000000000000003,-0.012,-0.052000000000000005,-0.071,-0.091,-0.09699999999999999,-0.10400000000000001,-0.10300000000000001,-0.10300000000000001,-0.1,-0.098,-0.094,-0.091,-0.08900000000000001,-0.087,-0.086,-0.085,-0.085,-0.085,-0.086,-0.086,-0.086,-0.085,-0.085,-0.084,-0.08199999999999999,-0.081,-0.08,-0.079,-0.078,-0.077,-0.075,-0.07400000000000001,-0.07200000000000001,-0.07,-0.068,-0.066,-0.064,-0.062,-0.06,-0.057999999999999996,-0.055999999999999994,-0.054000000000000006,-0.053,-0.052000000000000005,-0.051,-0.049,-0.047,-0.046,-0.043,-0.040999999999999995,-0.039,-0.036000000000000004,-0.033,-0.03,-0.027000000000000003,-0.025,N,,,,,,,,,,,,,,,,,,,,,,,,,,,,,,,,,,,,,,,,,,,,,,,,,,,,,,,,,,,,,,,,,,,,,,,,,,,,,,,,,,,,,,,,,,,,,,,,,,,,,,,,,,,,,,,,,,,,,,,,,,,,,,,,,,,,,,,,,,,,,,,,,,,,,,,,,,,,,,,,,,,,,,,,,,,,,,,,,,,,,,,,,,,,,,,,,,,,,,,,,,,,,,,,,,,,,,,,,,,,,,,,,,,,,,,,,,,,,,,,,,,,,,,,,,,,,,,,,,,,,,,,,,,,,,,,,,,,,,,,,,,,,,,,,,,,,,,,,,,,,,,,,,,,,,,,,,,,,,,,,,,,,,,,,,,,,,,,,,,,,,,,,,,,,,,,,,,,,,,,,,,,,,,,,,,,,,,,,,,,,,,,,,,,,,,,,,,,,,,,,,,,,,,,,,,,,,,,,,,,,,,,,,,,,,,,,,,,,,,,,,,,,,,,,,,,,,,,,,,,,,,,,,,,,,,,,,,,,,,,,,,,,,,,,,,,,,,,,,,,,,,,,,,,,,,,,,,,,,,,,,,,,,,,,,,,,,,,,,,,,,,,,,,,,,,,,,,,,,,,,,,,,,,,,,,,,,,,,,,,,,,,,,,,,,,,,,,,,,,,,,,,,,,,,,,,,,,,,,,,
1,-0.087,-0.086,-0.086,-0.087,-0.08800000000000001,-0.09,-0.091,-0.092,-0.092,-0.092,-0.091,-0.08900000000000001,-0.087,-0.084,-0.081,-0.078,-0.076,-0.07400000000000001,-0.07200000000000001,-0.07,-0.068,-0.066,-0.064,-0.062,-0.06,-0.057999999999999996,-0.057,-0.055,-0.053,-0.05,-0.048,-0.046,-0.043,-0.040999999999999995,-0.039,-0.037000000000000005,-0.036000000000000004,-0.035,-0.033,-0.031,-0.028999999999999998,-0.027000000000000003,-0.025,-0.023,-0.02,-0.018000000000000002,-0.015,-0.012,-0.01,-0.008,-0.006,-0.004,-0.001,0.001,0.004,0.006999999999999999,0.01,0.012,0.016,0.019,0.023,0.026000000000000002,0.03,0.035,0.038,0.042,0.047,0.051,0.057,0.063,0.069,0.075,0.08199999999999999,0.08800000000000001,0.09300000000000001,0.099,0.10400000000000001,0.109,0.113,0.11800000000000001,0.121,0.124,0.125,0.127,0.127,0.128,0.127,0.126,0.124,0.12300000000000001,0.121,0.11900000000000001,0.11599999999999999,0.114,0.11199999999999999,0.11,0.10800000000000001,0.105,0.102,0.099,0.096,0.092,0.08800000000000001,0.084,0.079,0.075,0.07,0.066,0.061,0.055999999999999994,0.051,0.046,0.042,0.037000000000000005,0.032,0.027000000000000003,0.023,0.018000000000000002,0.013999999999999999,0.01,0.006999999999999999,0.004,0.001,-0.002,-0.005,-0.008,-0.01,-0.012,-0.013999999999999999,-0.016,-0.017,-0.018000000000000002,-0.019,-0.019,-0.02,-0.021,-0.022000000000000002,-0.023,-0.024,-0.025,-0.026000000000000002,-0.027000000000000003,-0.027999999999999997,-0.028999999999999998,-0.028999999999999998,-0.028999999999999998,-0.028999999999999998,-0.028999999999999998,-0.027999999999999997,-0.027000000000000003,-0.027000000000000003,-0.026000000000000002,-0.025,-0.025,-0.023,-0.022000000000000002,-0.021,-0.02,-0.02,-0.02,-0.019,-0.019,-0.018000000000000002,-0.018000000000000002,-0.017,-0.016,-0.016,-0.016,-0.015,-0.013999999999999999,-0.013999999999999999,-0.013000000000000001,-0.013000000000000001,-0.012,-0.011000000000000001,-0.011000000000000001,-0.01,-0.009000000000000001,-0.008,-0.008,-0.006999999999999999,-0.006999999999999999,-0.006,-0.005,-0.004,-0.004,-0.003,-0.003,-0.003,-0.004,-0.004,-0.004,-0.004,-0.004,-0.005,-0.005,-0.006,-0.006,-0.006,-0.006,-0.006,-0.006999999999999999,-0.008,-0.009000000000000001,-0.009000000000000001,-0.009000000000000001,-0.01,-0.01,-0.01,-0.009000000000000001,-0.009000000000000001,-0.009000000000000001,-0.008,-0.008,-0.008,-0.009000000000000001,-0.009000000000000001,-0.009000000000000001,-0.009000000000000001,-0.009000000000000001,-0.01,-0.011000000000000001,-0.011000000000000001,-0.011000000000000001,-0.011000000000000001,-0.011000000000000001,-0.011000000000000001,-0.011000000000000001,-0.011000000000000001,-0.011000000000000001,-0.011000000000000001,-0.012,-0.012,-0.012,-0.012,-0.011000000000000001,-0.011000000000000001,-0.01,-0.009000000000000001,-0.009000000000000001,-0.006,-0.004,-0.001,0.002,0.006,0.01,0.013000000000000001,0.016,0.018000000000000002,0.02,0.022000000000000002,0.024,0.025,0.027000000000000003,0.028999999999999998,0.031,0.035,0.038,0.042,0.046,0.05,0.054000000000000006,0.055999999999999994,0.057999999999999996,0.059000000000000004,0.059000000000000004,0.057,0.055,0.051,0.047,0.042,0.037000000000000005,0.032,0.026000000000000002,0.021,0.015,0.01,0.004,-0.0,-0.005,-0.008,-0.012,-0.016,-0.019,-0.022000000000000002,-0.025,-0.027999999999999997,-0.03,-0.032,-0.033,-0.034,-0.034,-0.033,-0.032,-0.031,-0.03,-0.028999999999999998,-0.027999999999999997,-0.027999999999999997,-0.027999999999999997,-0.027999999999999997,-0.027999999999999997,-0.027999999999999997,-0.027999999999999997,-0.027999999999999997,-0.027999999999999997,-0.027999999999999997,-0.027999999999999997,-0.027999999999999997,-0.028999999999999998,-0.03,-0.032,-0.036000000000000004,-0.04,-0.046,-0.051,-0.053,-0.055,-0.046,-0.037000000000000005,-0.008,0.021,0.073,0.125,0.19399999999999998,0.263,0.32899999999999996,0.395,0.436,0.47600000000000003,0.474,0.473,0.43,0.387,0.319,0.252,0.182,0.11199999999999999,0.059000000000000004,0.005,-0.025,-0.055999999999999994,-0.069,-0.08199999999999999,-0.085,-0.08800000000000001,-0.087,-0.085,-0.083,-0.08,-0.078,-0.075,-0.073,-0.07200000000000001,-0.071,-0.071,-0.071,-0.071,-0.071,-0.071,-0.07,-0.07,-0.069,-0.068,-0.067,-0.066,-0.064,-0.062,-0.06,-0.057999999999999996,-0.057,-0.055999999999999994,-0.054000000000000006,-0.052000000000000005,-0.05,-0.049,-0.047,-0.044000000000000004,-0.043,-0.040999999999999995,-0.039,-0.037000000000000005,-0.035,-0.032,-0.03,-0.027999999999999997,-0.026000000000000002,-0.024,-0.022000000000000002,-0.019,-0.017,-0.015,-0.013000000000000001,-0.011000000000000001,-0.008,-0.005,-0.002,0.001,0.003,0.005,0.006999999999999999,0.009000000000000001,0.011000000000000001,0.013000000000000001,0.016,0.019,0.021,0.024,0.026000000000000002,0.028999999999999998,0.03,0.032,0.034,0.037000000000000005,0.040999999999999995,0.045,0.05,0.055,0.06,0.064,0.07,0.075,0.08,0.085,0.09,0.095,0.1,0.105,0.11,0.114,0.11800000000000001,0.122,0.125,0.128,0.129,0.13,0.13,0.13,0.13,0.13,0.129,0.129,0.128,0.126,0.124,0.122,0.11900000000000001,0.11599999999999999,0.113,0.109,0.105,0.10099999999999999,0.096,0.091,0.087,0.08199999999999999,0.077,0.073,0.068,0.064,0.06,0.055999999999999994,0.051,0.047,0.042,0.038,0.034,0.028999999999999998,0.025,0.02,0.017,0.013000000000000001,0.01,0.006999999999999999,0.004,0.001,-0.001,-0.004,-0.005,-0.006999999999999999,-0.008,-0.01,-0.011000000000000001,-0.013000000000000001,-0.013999999999999999,-0.016,-0.017,-0.018000000000000002,-0.019,-0.02,-0.021,-0.022000000000000002,-0.022000000000000002,-0.022000000000000002,-0.021,-0.021,-0.02,-0.02,-0.019,-0.019,-0.018000000000000002,-0.018000000000000002,-0.017,-0.016,-0.016,-0.016,-0.015,-0.013999999999999999,-0.013000000000000001,-0.013000000000000001,-0.012,-0.011000000000000001,-0.01,-0.009000000000000001,-0.008,-0.008,-0.006999999999999999,-0.006999999999999999,-0.006,-0.006,-0.005,-0.005,-0.004,-0.004,-0.003,-0.002,-0.001,-0.001,0.0,0.001,0.001,0.002,0.002,0.002,0.003,0.004,0.004,0.005,0.004,0.004,0.003,0.002,0.002,0.001,0.001,0.001,0.0,0.0,-0.001,-0.002,-0.002,-0.003,-0.004,-0.005,-0.006,-0.006,-0.006,-0.006,-0.006,-0.006,-0.006,-0.006,-0.006999999999999999,-0.006999999999999999,-0.008,-0.009000000000000001,-0.009000000000000001,-0.009000000000000001,-0.01,-0.011000000000000001,-0.012,-0.013000000000000001,-0.013000000000000001,-0.013000000000000001,-0.012,-0.011000000000000001,-0.011000000000000001,-0.011000000000000001,-0.011000000000000001,-0.012,-0.013000000000000001,-0.013000000000000001,-0.013999999999999999,-0.015,-0.015,-0.016,-0.015,-0.013999999999999999,-0.013000000000000001,-0.011000000000000001,-0.008,-0.005,-0.001,0.002,0.006,0.01,0.013000000000000001,0.016,0.018000000000000002,0.02,0.022000000000000002,0.025,0.027000000000000003,0.03,0.034,0.038,0.044000000000000004,0.049,0.054000000000000006,0.057999999999999996,0.062,0.066,0.066,0.067,0.065,0.063,0.057999999999999996,0.053,0.048,0.042,0.036000000000000004,0.028999999999999998,0.023,0.017,0.011000000000000001,0.005,-0.001,-0.006,-0.012,-0.018000000000000002,-0.022000000000000002,-0.026000000000000002,-0.03,-0.033,-0.036000000000000004,-0.038,-0.039,-0.04,-0.04,-0.04,-0.04,-0.04,-0.04,-0.04,-0.04,-0.04,-0.04,-0.04,-0.04,-0.039,-0.039,-0.038,-0.037000000000000005,-0.036000000000000004,-0.035,-0.035,-0.035,-0.035,-0.037000000000000005,-0.039,-0.043,-0.047,-0.053,-0.059000000000000004,-0.062,-0.064,-0.055999999999999994,-0.047,-0.018000000000000002,0.011000000000000001,0.063,0.11599999999999999,0.185,0.253,0.32,0.387,0.428,0.469,0.46799999999999997,0.467,0.425,0.38299999999999995,0.316,0.248,0.17800000000000002,0.10800000000000001,0.055,0.002,-0.028999999999999998,-0.06,-0.073,-0.086,-0.08900000000000001,-0.092,-0.091,-0.08900000000000001,-0.086,-0.083,-0.08,-0.078,-0.076,-0.075,-0.07400000000000001,-0.073,-0.073,-0.073,-0.07400000000000001,-0.075,-0.075,-0.075,-0.075,-0.07400000000000001,-0.073,-0.071,-0.07,-0.069,-0.068,-0.066,-0.064,-0.062,-0.06,-0.057999999999999996,-0.057,-0.055999999999999994,-0.054000000000000006,-0.052000000000000005,-0.051,-0.049,-0.047,-0.046,-0.043,-0.04,-0.038,-0.036000000000000004,-0.034,-0.032,-0.03,-0.028999999999999998,-0.027000000000000003,-0.026000000000000002,-0.024,-0.022000000000000002,-0.019,-0.017,-0.013999999999999999,-0.012,-0.01,-0.008,-0.006,-0.004,-0.001,0.001,0.003,0.006,0.009000000000000001,0.012,0.015,0.019,0.023,0.027000000000000003,0.031,0.035,0.039,0.044000000000000004,0.049,0.054000000000000006,0.059000000000000004,0.064,0.07,0.075,0.08,0.085,0.091,0.09699999999999999,0.102,0.107,0.11199999999999999,0.11599999999999999,0.12,0.124,0.126,0.129,0.13,0.131,0.132,0.132,0.132,0.132,0.131,0.129,0.127,0.125,0.12300000000000001,0.12,0.11699999999999999,0.115,0.111,0.10800000000000001,0.10400000000000001,0.1,0.095,0.091,0.086,0.08199999999999999,0.077,0.07200000000000001,0.067,0.063,0.057999999999999996,0.053,0.049,0.045,0.040999999999999995,0.036000000000000004,0.032,0.027000000000000003,0.024,0.02,0.016,0.013000000000000001,0.009000000000000001,0.006,0.003,-0.001,-0.004,-0.006999999999999999,-0.01,-0.013000000000000001,-0.015,-0.018000000000000002,-0.019,-0.02,-0.021,-0.022000000000000002,-0.023,-0.024,-0.025,-0.026000000000000002,-0.026000000000000002,-0.027000000000000003,-0.027000000000000003,-0.027000000000000003,-0.026000000000000002,-0.026000000000000002,-0.024,-0.023,-0.022000000000000002,-0.02,-0.02,-0.02,-0.02,-0.02,-0.019,-0.019,-0.018000000000000002,-0.018000000000000002,-0.017,-0.016,-0.016,-0.015,-0.013999999999999999,-0.012,-0.011000000000000001,-0.011000000000000001,-0.009000000000000001,-0.008,-0.006999999999999999,-0.006,-0.006,-0.006,-0.005,-0.005,-0.004,-0.004,-0.003,-0.002,-0.002,-0.002,-0.001,-0.001,-0.0,0.0,0.0,0.0,0.0,0.0,0.0,0.001,0.001,0.002,0.002,0.002,0.001,0.001,0.001,0.001,0.0,0.0,-0.001,-0.001,-0.002,-0.002,-0.004,-0.005,-0.006,-0.006,-0.006999999999999999,-0.006999999999999999,-0.008,-0.008,-0.008,-0.008,-0.009000000000000001,-0.009000000000000001,-0.01,-0.011000000000000001,-0.011000000000000001,-0.011000000000000001,-0.011000000000000001,-0.011000000000000001,-0.011000000000000001,-0.012,-0.012,-0.013000000000000001,-0.013000000000000001,-0.013000000000000001,-0.013000000000000001,-0.013000000000000001,-0.013999999999999999,-0.015,-0.017,-0.018000000000000002,-0.019,-0.019,-0.02,-0.02,-0.019,-0.018000000000000002,-0.017,-0.015,-0.013000000000000001,-0.011000000000000001,-0.006999999999999999,-0.003,0.001,0.006,0.01,0.013000000000000001,0.016,0.018000000000000002,0.02,0.022000000000000002,0.025,0.027000000000000003,0.031,0.035,0.039,0.044000000000000004,0.049,0.054000000000000006,0.057999999999999996,0.061,0.062,0.063,0.061,0.059000000000000004,0.055,0.051,0.047,0.042,0.036000000000000004,0.03,0.025,0.019,0.013000000000000001,0.008,0.003,-0.002,-0.008,-0.013000000000000001,-0.017,-0.021,-0.024,-0.027000000000000003,-0.028999999999999998,-0.032,-0.034,-0.037000000000000005,-0.039,-0.04,-0.040999999999999995,-0.042,-0.042,-0.042,-0.042,-0.042,-0.040999999999999995,-0.040999999999999995,-0.040999999999999995,-0.040999999999999995,N
2,-0.075,-0.073,-0.07200000000000001,-0.071,-0.071,-0.071,-0.071,-0.071,-0.071,-0.07,-0.07,-0.069,-0.068,-0.067,-0.066,-0.064,-0.062,-0.06,-0.057999999999999996,-0.057,-0.055999999999999994,-0.054000000000000006,-0.052000000000000005,-0.05,-0.049,-0.047,-0.044000000000000004,-0.043,-0.040999999999999995,-0.039,-0.037000000000000005,-0.035,-0.032,-0.03,-0.027999999999999997,-0.026000000000000002,-0.024,-0.022000000000000002,-0.019,-0.017,-0.015,-0.013000000000000001,-0.011000000000000001,-0.008,-0.005,-0.002,0.001,0.003,0.005,0.006999999999999999,0.009000000000000001,0.011000000000000001,0.013000000000000001,0.016,0.019,0.021,0.024,0.026000000000000002,0.028999999999999998,0.03,0.032,0.034,0.037000000000000005,0.040999999999999995,0.045,0.05,0.055,0.06,0.064,0.07,0.075,0.08,0.085,0.09,0.095,0.1,0.105,0.11,0.114,0.11800000000000001,0.122,0.125,0.128,0.129,0.13,0.13,0.13,0.13,0.13,0.129,0.129,0.128,0.126,0.124,0.122,0.11900000000000001,0.11599999999999999,0.113,0.109,0.105,0.10099999999999999,0.096,0.091,0.087,0.08199999999999999,0.077,0.073,0.068,0.064,0.06,0.055999999999999994,0.051,0.047,0.042,0.038,0.034,0.028999999999999998,0.025,0.02,0.017,0.013000000000000001,0.01,0.006999999999999999,0.004,0.001,-0.001,-0.004,-0.005,-0.006999999999999999,-0.008,-0.01,-0.011000000000000001,-0.013000000000000001,-0.013999999999999999,-0.016,-0.017,-0.018000000000000002,-0.019,-0.02,-0.021,-0.022000000000000002,-0.022000000000000002,-0.022000000000000002,-0.021,-0.021,-0.02,-0.02,-0.019,-0.019,-0.018000000000000002,-0.018000000000000002,-0.017,-0.016,-0.016,-0.016,-0.015,-0.013999999999999999,-0.013000000000000001,-0.013000000000000001,-0.012,-0.011000000000000001,-0.01,-0.009000000000000001,-0.008,-0.008,-0.006999999999999999,-0.006999999999999999,-0.006,-0.006,-0.005,-0.005,-0.004,-0.004,-0.003,-0.002,-0.001,-0.001,0.0,0.001,0.001,0.002,0.002,0.002,0.003,0.004,0.004,0.005,0.004,0.004,0.003,0.002,0.002,0.001,0.001,0.001,0.0,0.0,-0.001,-0.002,-0.002,-0.003,-0.004,-0.005,-0.006,-0.006,-0.006,-0.006,-0.006,-0.006,-0.006,-0.006,-0.006999999999999999,-0.006999999999999999,-0.008,-0.009000000000000001,-0.009000000000000001,-0.009000000000000001,-0.01,-0.011000000000000001,-0.012,-0.013000000000000001,-0.013000000000000001,-0.013000000000000001,-0.012,-0.011000000000000001,-0.011000000000000001,-0.011000000000000001,-0.011000000000000001,-0.012,-0.013000000000000001,-0.013000000000000001,-0.013999999999999999,-0.015,-0.015,-0.016,-0.015,-0.013999999999999999,-0.013000000000000001,-0.011000000000000001,-0.008,-0.005,-0.001,0.002,0.006,0.01,0.013000000000000001,0.016,0.018000000000000002,0.02,0.022000000000000002,0.025,0.027000000000000003,0.03,0.034,0.038,0.044000000000000004,0.049,0.054000000000000006,0.057999999999999996,0.062,0.066,0.066,0.067,0.065,0.063,0.057999999999999996,0.053,0.048,0.042,0.036000000000000004,0.028999999999999998,0.023,0.017,0.011000000000000001,0.005,-0.001,-0.006,-0.012,-0.018000000000000002,-0.022000000000000002,-0.026000000000000002,-0.03,-0.033,-0.036000000000000004,-0.038,-0.039,-0.04,-0.04,-0.04,-0.04,-0.04,-0.04,-0.04,-0.04,-0.04,-0.04,-0.04,-0.04,-0.039,-0.039,-0.038,-0.037000000000000005,-0.036000000000000004,-0.035,-0.035,-0.035,-0.035,-0.037000000000000005,-0.039,-0.043,-0.047,-0.053,-0.059000000000000004,-0.062,-0.064,-0.055999999999999994,-0.047,-0.018000000000000002,0.011000000000000001,0.063,0.11599999999999999,0.185,0.253,0.32,0.387,0.428,0.469,0.46799999999999997,0.467,0.425,0.38299999999999995,0.316,0.248,0.17800000000000002,0.10800000000000001,0.055,0.002,-0.028999999999999998,-0.06,-0.073,-0.086,-0.08900000000000001,-0.092,-0.091,-0.08900000000000001,-0.086,-0.083,-0.08,-0.078,-0.076,-0.075,-0.07400000000000001,-0.073,-0.073,-0.073,-0.07400000000000001,-0.075,-0.075,-0.075,-0.075,-0.07400000000000001,-0.073,-0.071,-0.07,-0.069,-0.068,-0.066,-0.064,-0.062,-0.06,-0.057999999999999996,-0.057,-0.055999999999999994,-0.054000000000000006,-0.052000000000000005,-0.051,-0.049,-0.047,-0.046,-0.043,-0.04,-0.038,-0.036000000000000004,-0.034,-0.032,-0.03,-0.028999999999999998,-0.027000000000000003,-0.026000000000000002,-0.024,-0.022000000000000002,-0.019,-0.017,-0.013999999999999999,-0.012,-0.01,-0.008,-0.006,-0.004,-0.001,0.001,0.003,0.006,0.009000000000000001,0.012,0.015,0.019,0.023,0.027000000000000003,0.031,0.035,0.039,0.044000000000000004,0.049,0.054000000000000006,0.059000000000000004,0.064,0.07,0.075,0.08,0.085,0.091,0.09699999999999999,0.102,0.107,0.11199999999999999,0.11599999999999999,0.12,0.124,0.126,0.129,0.13,0.131,0.132,0.132,0.132,0.132,0.131,0.129,0.127,0.125,0.12300000000000001,0.12,0.11699999999999999,0.115,0.111,0.10800000000000001,0.10400000000000001,0.1,0.095,0.091,0.086,0.08199999999999999,0.077,0.07200000000000001,0.067,0.063,0.057999999999999996,0.053,0.049,0.045,0.040999999999999995,0.036000000000000004,0.032,0.027000000000000003,0.024,0.02,0.016,0.013000000000000001,0.009000000000000001,0.006,0.003,-0.001,-0.004,-0.006999999999999999,-0.01,-0.013000000000000001,-0.015,-0.018000000000000002,-0.019,-0.02,-0.021,-0.022000000000000002,-0.023,-0.024,-0.025,-0.026000000000000002,-0.026000000000000002,-0.027000000000000003,-0.027000000000000003,-0.027000000000000003,-0.026000000000000002,-0.026000000000000002,-0.024,-0.023,-0.022000000000000002,-0.02,-0.02,-0.02,-0.02,-0.02,-0.019,-0.019,-0.018000000000000002,-0.018000000000000002,-0.017,-0.016,-0.016,-0.015,-0.013999999999999999,-0.012,-0.011000000000000001,-0.011000000000000001,-0.009000000000000001,-0.008,-0.006999999999999999,-0.006,-0.006,-0.006,-0.005,-0.005,-0.004,-0.004,-0.003,-0.002,-0.002,-0.002,-0.001,-0.001,-0.0,0.0,0.0,0.0,0.0,0.0,0.0,0.001,0.001,0.002,0.002,0.002,0.001,0.001,0.001,0.001,0.0,0.0,-0.001,-0.001,-0.002,-0.002,-0.004,-0.005,-0.006,-0.006,-0.006999999999999999,-0.006999999999999999,-0.008,-0.008,-0.008,-0.008,-0.009000000000000001,-0.009000000000000001,-0.01,-0.011000000000000001,-0.011000000000000001,-0.011000000000000001,-0.011000000000000001,-0.011000000000000001,-0.011000000000000001,-0.012,-0.012,-0.013000000000000001,-0.013000000000000001,-0.013000000000000001,-0.013000000000000001,-0.013000000000000001,-0.013999999999999999,-0.015,-0.017,-0.018000000000000002,-0.019,-0.019,-0.02,-0.02,-0.019,-0.018000000000000002,-0.017,-0.015,-0.013000000000000001,-0.011000000000000001,-0.006999999999999999,-0.003,0.001,0.006,0.01,0.013000000000000001,0.016,0.018000000000000002,0.02,0.022000000000000002,0.025,0.027000000000000003,0.031,0.035,0.039,0.044000000000000004,0.049,0.054000000000000006,0.057999999999999996,0.061,0.062,0.063,0.061,0.059000000000000004,0.055,0.051,0.047,0.042,0.036000000000000004,0.03,0.025,0.019,0.013000000000000001,0.008,0.003,-0.002,-0.008,-0.013000000000000001,-0.017,-0.021,-0.024,-0.027000000000000003,-0.028999999999999998,-0.032,-0.034,-0.037000000000000005,-0.039,-0.04,-0.040999999999999995,-0.042,-0.042,-0.042,-0.042,-0.042,-0.040999999999999995,-0.040999999999999995,-0.040999999999999995,-0.040999999999999995,-0.040999999999999995,-0.04,-0.04,-0.039,-0.039,-0.039,-0.039,-0.039,-0.040999999999999995,-0.043,-0.048,-0.053,-0.059000000000000004,-0.066,-0.07,-0.07400000000000001,-0.069,-0.064,-0.040999999999999995,-0.018000000000000002,0.028999999999999998,0.077,0.14300000000000002,0.21,0.28,0.35100000000000003,0.402,0.452,0.46399999999999997,0.47600000000000003,0.44299999999999995,0.41100000000000003,0.34700000000000003,0.284,0.214,0.14300000000000002,0.085,0.027000000000000003,-0.009000000000000001,-0.046,-0.063,-0.081,-0.086,-0.091,-0.091,-0.09,-0.08800000000000001,-0.085,-0.083,-0.081,-0.08,-0.078,-0.078,-0.077,-0.078,-0.08,-0.08,-0.081,-0.081,-0.081,-0.081,-0.08,-0.079,-0.078,-0.077,-0.075,-0.07400000000000001,-0.073,-0.071,-0.07,-0.068,-0.066,-0.064,-0.062,-0.06,-0.057999999999999996,-0.057,-0.055,-0.052000000000000005,-0.05,-0.047,-0.045,-0.043,-0.042,-0.04,-0.038,-0.036000000000000004,-0.034,-0.032,-0.028999999999999998,-0.027000000000000003,-0.025,-0.022000000000000002,-0.02,-0.017,-0.015,-0.012,-0.01,-0.008,-0.005,-0.003,-0.001,0.002,0.005,0.006999999999999999,0.01,0.013000000000000001,0.016,0.019,0.022000000000000002,0.026000000000000002,0.03,0.034,0.038,0.043,0.048,0.053,0.057999999999999996,0.064,0.07,0.075,0.081,0.087,0.092,0.098,0.10300000000000001,0.10800000000000001,0.113,0.11800000000000001,0.122,0.125,0.128,0.13,0.132,0.133,0.135,0.135,0.135,0.133,0.132,0.13,0.128,0.126,0.12300000000000001,0.12,0.11699999999999999,0.113,0.109,0.105,0.10099999999999999,0.09699999999999999,0.094,0.09,0.086,0.08199999999999999,0.078,0.073,0.068,0.063,0.057,0.052000000000000005,0.047,0.042,0.037000000000000005,0.033,0.027999999999999997,0.024,0.019,0.016,0.012,0.008,0.004,0.001,-0.001,-0.004,-0.006,-0.009000000000000001,-0.012,-0.013999999999999999,-0.016,-0.017,-0.018000000000000002,-0.019,-0.02,-0.021,-0.022000000000000002,-0.023,-0.024,-0.025,-0.026000000000000002,-0.026000000000000002,-0.026000000000000002,-0.026000000000000002,-0.026000000000000002,-0.025,-0.025,-0.025,-0.024,-0.023,-0.023,-0.022000000000000002,-0.021,-0.02,-0.019,-0.018000000000000002,-0.018000000000000002,-0.017,-0.016,-0.016,-0.016,-0.015,-0.013999999999999999,-0.013000000000000001,-0.013000000000000001,-0.012,-0.011000000000000001,-0.01,-0.009000000000000001,-0.008,-0.008,-0.006999999999999999,-0.006999999999999999,-0.006,-0.006,-0.005,-0.004,-0.002,-0.001,-0.0,0.0,0.0,0.0,0.0,0.0,-0.0,-0.001,-0.001,-0.001,-0.001,-0.001,-0.0,0.0,0.0,0.001,0.001,0.002,0.001,0.001,0.001,0.001,0.001,0.001,0.0,0.0,-0.001,-0.001,-0.001,-0.002,-0.003,-0.004,-0.005,-0.006,-0.006999999999999999,-0.008,-0.008,-0.009000000000000001,-0.009000000000000001,-0.009000000000000001,-0.01,-0.011000000000000001,-0.011000000000000001,-0.012,-0.012,-0.012,-0.012,-0.012,-0.012,-0.012,-0.013000000000000001,-0.013000000000000001,-0.013000000000000001,-0.013000000000000001,-0.013999999999999999,-0.015,-0.015,-0.016,-0.015,-0.015,-0.013999999999999999,-0.013000000000000001,-0.011000000000000001,-0.009000000000000001,-0.006,-0.003,0.001,0.005,0.008,0.012,0.013999999999999999,0.016,0.018000000000000002,0.02,0.024,0.027000000000000003,0.032,0.036000000000000004,0.040999999999999995,0.046,0.051,0.055999999999999994,0.06,0.063,0.065,0.066,0.065,0.063,0.06,0.055999999999999994,0.052000000000000005,0.048,0.042,0.036000000000000004,0.03,0.023,0.016,0.01,0.005,-0.001,-0.006,-0.011000000000000001,-0.016,-0.021,-0.025,-0.03,-0.033,-0.036000000000000004,-0.038,-0.04,-0.040999999999999995,-0.042,-0.042,-0.042,-0.042,-0.040999999999999995,-0.040999999999999995,-0.04,-0.04,-0.04,-0.039,-0.039,-0.038,N
3,-0.076,-0.075,-0.07400000000000001,-0.073,-0.073,-0.073,-0.07400000000000001,-0.075,-0.075,-0.075,-0.075,-0.07400000000000001,-0.073,-0.071,-0.07,-0.069,-0.068,-0.066,-0.064,-0.062,-0.06,-0.057999999999999996,-0.057,-0.055999999999999994,-0.054000000000000006,-0.052000000000000005,-0.051,-0.049,-0.047,-0.046,-0.043,-0.04,-0.038,-0.036000000000000004,-0.034,-0.032,-0.03,-0.028999999999999998,-0.027000000000000003,-0.026000000000000002,-0.024,-0.022000000000000002,-0.019,-0.017,-0.013999999999999999,-0.012,-0.01,-0.008,-0.006,-0.004,-0.001,0.001,0.003,0.006,0.009000000000000001,0.012,0.015,0.019,0.023,0.027000000000000003,0.031,0.035,0.039,0.044000000000000004,0.049,0.054000000000000006,0.059000000000000004,0.064,0.07,0.075,0.08,0.085,0.091,0.09699999999999999,0.102,0.107,0.11199999999999999,0.11599999999999999,0.12,0.124,0.126,0.129,0.13,0.131,0.132,0.132,0.132,0.132,0.131,0.129,0.127,0.125,0.12300000000000001,0.12,0.11699999999999999,0.115,0.111,0.10800000000000001,0.10400000000000001,0.1,0.095,0.091,0.086,0.08199999999999999,0.077,0.07200000000000001,0.067,0.063,0.057999999999999996,0.053,0.049,0.045,0.040999999999999995,0.036000000000000004,0.032,0.027000000000000003,0.024,0.02,0.016,0.013000000000000001,0.009000000000000001,0.006,0.003,-0.001,-0.004,-0.006999999999999999,-0.01,-0.013000000000000001,-0.015,-0.018000000000000002,-0.019,-0.02,-0.021,-0.022000000000000002,-0.023,-0.024,-0.025,-0.026000000000000002,-0.026000000000000002,-0.027000000000000003,-0.027000000000000003,-0.027000000000000003,-0.026000000000000002,-0.026000000000000002,-0.024,-0.023,-0.022000000000000002,-0.02,-0.02,-0.02,-0.02,-0.02,-0.019,-0.019,-0.018000000000000002,-0.018000000000000002,-0.017,-0.016,-0.016,-0.015,-0.013999999999999999,-0.012,-0.011000000000000001,-0.011000000000000001,-0.009000000000000001,-0.008,-0.006999999999999999,-0.006,-0.006,-0.006,-0.005,-0.005,-0.004,-0.004,-0.003,-0.002,-0.002,-0.002,-0.001,-0.001,-0.0,0.0,0.0,0.0,0.0,0.0,0.0,0.001,0.001,0.002,0.002,0.002,0.001,0.001,0.001,0.001,0.0,0.0,-0.001,-0.001,-0.002,-0.002,-0.004,-0.005,-0.006,-0.006,-0.006999999999999999,-0.006999999999999999,-0.008,-0.008,-0.008,-0.008,-0.009000000000000001,-0.009000000000000001,-0.01,-0.011000000000000001,-0.011000000000000001,-0.011000000000000001,-0.011000000000000001,-0.011000000000000001,-0.011000000000000001,-0.012,-0.012,-0.013000000000000001,-0.013000000000000001,-0.013000000000000001,-0.013000000000000001,-0.013000000000000001,-0.013999999999999999,-0.015,-0.017,-0.018000000000000002,-0.019,-0.019,-0.02,-0.02,-0.019,-0.018000000000000002,-0.017,-0.015,-0.013000000000000001,-0.011000000000000001,-0.006999999999999999,-0.003,0.001,0.006,0.01,0.013000000000000001,0.016,0.018000000000000002,0.02,0.022000000000000002,0.025,0.027000000000000003,0.031,0.035,0.039,0.044000000000000004,0.049,0.054000000000000006,0.057999999999999996,0.061,0.062,0.063,0.061,0.059000000000000004,0.055,0.051,0.047,0.042,0.036000000000000004,0.03,0.025,0.019,0.013000000000000001,0.008,0.003,-0.002,-0.008,-0.013000000000000001,-0.017,-0.021,-0.024,-0.027000000000000003,-0.028999999999999998,-0.032,-0.034,-0.037000000000000005,-0.039,-0.04,-0.040999999999999995,-0.042,-0.042,-0.042,-0.042,-0.042,-0.040999999999999995,-0.040999999999999995,-0.040999999999999995,-0.040999999999999995,-0.040999999999999995,-0.04,-0.04,-0.039,-0.039,-0.039,-0.039,-0.039,-0.040999999999999995,-0.043,-0.048,-0.053,-0.059000000000000004,-0.066,-0.07,-0.07400000000000001,-0.069,-0.064,-0.040999999999999995,-0.018000000000000002,0.028999999999999998,0.077,0.14300000000000002,0.21,0.28,0.35100000000000003,0.402,0.452,0.46399999999999997,0.47600000000000003,0.44299999999999995,0.41100000000000003,0.34700000000000003,0.284,0.214,0.14300000000000002,0.085,0.027000000000000003,-0.009000000000000001,-0.046,-0.063,-0.081,-0.086,-0.091,-0.091,-0.09,-0.08800000000000001,-0.085,-0.083,-0.081,-0.08,-0.078,-0.078,-0.077,-0.078,-0.08,-0.08,-0.081,-0.081,-0.081,-0.081,-0.08,-0.079,-0.078,-0.077,-0.075,-0.07400000000000001,-0.073,-0.071,-0.07,-0.068,-0.066,-0.064,-0.062,-0.06,-0.057999999999999996,-0.057,-0.055,-0.052000000000000005,-0.05,-0.047,-0.045,-0.043,-0.042,-0.04,-0.038,-0.036000000000000004,-0.034,-0.032,-0.028999999999999998,-0.027000000000000003,-0.025,-0.022000000000000002,-0.02,-0.017,-0.015,-0.012,-0.01,-0.008,-0.005,-0.003,-0.001,0.002,0.005,0.006999999999999999,0.01,0.013000000000000001,0.016,0.019,0.022000000000000002,0.026000000000000002,0.03,0.034,0.038,0.043,0.048,0.053,0.057999999999999996,0.064,0.07,0.075,0.081,0.087,0.092,0.098,0.10300000000000001,0.10800000000000001,0.113,0.11800000000000001,0.122,0.125,0.128,0.13,0.132,0.133,0.135,0.135,0.135,0.133,0.132,0.13,0.128,0.126,0.12300000000000001,0.12,0.11699999999999999,0.113,0.109,0.105,0.10099999999999999,0.09699999999999999,0.094,0.09,0.086,0.08199999999999999,0.078,0.073,0.068,0.063,0.057,0.052000000000000005,0.047,0.042,0.037000000000000005,0.033,0.027999999999999997,0.024,0.019,0.016,0.012,0.008,0.004,0.001,-0.001,-0.004,-0.006,-0.009000000000000001,-0.012,-0.013999999999999999,-0.016,-0.017,-0.018000000000000002,-0.019,-0.02,-0.021,-0.022000000000000002,-0.023,-0.024,-0.025,-0.026000000000000002,-0.026000000000000002,-0.026000000000000002,-0.026000000000000002,-0.026000000000000002,-0.025,-0.025,-0.025,-0.024,-0.023,-0.023,-0.022000000000000002,-0.021,-0.02,-0.019,-0.018000000000000002,-0.018000000000000002,-0.017,-0.016,-0.016,-0.016,-0.015,-0.013999999999999999,-0.013000000000000001,-0.013000000000000001,-0.012,-0.011000000000000001,-0.01,-0.009000000000000001,-0.008,-0.008,-0.006999999999999999,-0.006999999999999999,-0.006,-0.006,-0.005,-0.004,-0.002,-0.001,-0.0,0.0,0.0,0.0,0.0,0.0,-0.0,-0.001,-0.001,-0.001,-0.001,-0.001,-0.0,0.0,0.0,0.001,0.001,0.002,0.001,0.001,0.001,0.001,0.001,0.001,0.0,0.0,-0.001,-0.001,-0.001,-0.002,-0.003,-0.004,-0.005,-0.006,-0.006999999999999999,-0.008,-0.008,-0.009000000000000001,-0.009000000000000001,-0.009000000000000001,-0.01,-0.011000000000000001,-0.011000000000000001,-0.012,-0.012,-0.012,-0.012,-0.012,-0.012,-0.012,-0.013000000000000001,-0.013000000000000001,-0.013000000000000001,-0.013000000000000001,-0.013999999999999999,-0.015,-0.015,-0.016,-0.015,-0.015,-0.013999999999999999,-0.013000000000000001,-0.011000000000000001,-0.009000000000000001,-0.006,-0.003,0.001,0.005,0.008,0.012,0.013999999999999999,0.016,0.018000000000000002,0.02,0.024,0.027000000000000003,0.032,0.036000000000000004,0.040999999999999995,0.046,0.051,0.055999999999999994,0.06,0.063,0.065,0.066,0.065,0.063,0.06,0.055999999999999994,0.052000000000000005,0.048,0.042,0.036000000000000004,0.03,0.023,0.016,0.01,0.005,-0.001,-0.006,-0.011000000000000001,-0.016,-0.021,-0.025,-0.03,-0.033,-0.036000000000000004,-0.038,-0.04,-0.040999999999999995,-0.042,-0.042,-0.042,-0.042,-0.040999999999999995,-0.040999999999999995,-0.04,-0.04,-0.04,-0.039,-0.039,-0.038,-0.037000000000000005,-0.037000000000000005,-0.036000000000000004,-0.037000000000000005,-0.037000000000000005,-0.037000000000000005,-0.037000000000000005,-0.039,-0.04,-0.044000000000000004,-0.047,-0.053,-0.059000000000000004,-0.065,-0.07,-0.069,-0.067,-0.049,-0.031,0.01,0.051,0.115,0.179,0.252,0.325,0.385,0.445,0.47,0.495,0.475,0.456,0.39899999999999997,0.342,0.271,0.2,0.136,0.073,0.028999999999999998,-0.013999999999999999,-0.037000000000000005,-0.059000000000000004,-0.067,-0.075,-0.077,-0.078,-0.076,-0.075,-0.07400000000000001,-0.073,-0.07200000000000001,-0.07200000000000001,-0.073,-0.07400000000000001,-0.076,-0.078,-0.079,-0.08,-0.081,-0.081,-0.081,-0.081,-0.08,-0.079,-0.078,-0.076,-0.07400000000000001,-0.073,-0.07,-0.068,-0.067,-0.066,-0.065,-0.064,-0.063,-0.061,-0.06,-0.059000000000000004,-0.057,-0.055,-0.053,-0.051,-0.049,-0.047,-0.045,-0.043,-0.040999999999999995,-0.039,-0.037000000000000005,-0.035,-0.033,-0.031,-0.03,-0.027999999999999997,-0.026000000000000002,-0.024,-0.022000000000000002,-0.02,-0.018000000000000002,-0.017,-0.015,-0.013000000000000001,-0.01,-0.006999999999999999,-0.004,-0.001,0.002,0.006,0.009000000000000001,0.012,0.016,0.019,0.023,0.027000000000000003,0.032,0.037000000000000005,0.042,0.047,0.052000000000000005,0.057999999999999996,0.063,0.069,0.07400000000000001,0.079,0.083,0.08800000000000001,0.092,0.09699999999999999,0.10099999999999999,0.106,0.111,0.115,0.11800000000000001,0.121,0.122,0.124,0.124,0.124,0.12300000000000001,0.121,0.11900000000000001,0.11800000000000001,0.11599999999999999,0.113,0.111,0.10800000000000001,0.10400000000000001,0.10099999999999999,0.09699999999999999,0.092,0.087,0.08199999999999999,0.077,0.07200000000000001,0.067,0.063,0.057999999999999996,0.054000000000000006,0.049,0.045,0.040999999999999995,0.036000000000000004,0.032,0.027000000000000003,0.023,0.019,0.015,0.011000000000000001,0.006999999999999999,0.003,0.0,-0.003,-0.006,-0.009000000000000001,-0.012,-0.015,-0.016,-0.018000000000000002,-0.02,-0.022000000000000002,-0.023,-0.025,-0.025,-0.026000000000000002,-0.027000000000000003,-0.028999999999999998,-0.03,-0.03,-0.032,-0.033,-0.035,-0.036000000000000004,-0.037000000000000005,-0.037000000000000005,-0.038,-0.038,-0.037000000000000005,-0.036000000000000004,-0.035,-0.033,-0.032,-0.03,-0.03,-0.028999999999999998,-0.027000000000000003,-0.026000000000000002,-0.025,-0.025,-0.024,-0.024,-0.023,-0.023,-0.022000000000000002,-0.021,-0.02,-0.019,-0.018000000000000002,-0.017,-0.016,-0.015,-0.015,-0.013999999999999999,-0.013999999999999999,-0.013000000000000001,-0.013000000000000001,-0.013000000000000001,-0.013000000000000001,-0.013000000000000001,-0.013000000000000001,-0.013000000000000001,-0.013000000000000001,-0.013000000000000001,-0.013000000000000001,-0.012,-0.012,-0.011000000000000001,-0.011000000000000001,-0.011000000000000001,-0.011000000000000001,-0.012,-0.012,-0.013000000000000001,-0.013000000000000001,-0.013999999999999999,-0.016,-0.017,-0.018000000000000002,-0.018000000000000002,-0.018000000000000002,-0.019,-0.018000000000000002,-0.018000000000000002,-0.017,-0.016,-0.016,-0.016,-0.017,-0.017,-0.018000000000000002,-0.019,-0.02,-0.022000000000000002,-0.023,-0.025,-0.026000000000000002,-0.027999999999999997,-0.028999999999999998,-0.03,-0.03,-0.03,-0.03,-0.03,-0.03,-0.03,-0.03,-0.03,-0.03,-0.03,-0.03,-0.03,-0.03,-0.03,-0.031,-0.032,-0.032,-0.033,-0.034,-0.035,-0.036000000000000004,-0.037000000000000005,-0.037000000000000005,-0.037000000000000005,-0.036000000000000004,-0.035,-0.032,-0.028999999999999998,-0.025,-0.021,-0.017,-0.013000000000000001,-0.011000000000000001,-0.008,-0.006999999999999999,-0.005,-0.004,-0.002,-0.0,0.002,0.005,0.008,0.013000000000000001,0.017,0.022000000000000002,0.026000000000000002,0.03,0.033,0.035,0.037000000000000005,0.037000000000000005,0.037000000000000005,0.035,0.033,0.027999999999999997,0.023,0.017,0.011000000000000001,0.005,-0.001,-0.006,-0.011000000000000001,-0.015,-0.019,-0.024,-0.027999999999999997,-0.032,-0.036000000000000004,-0.04,-0.043,-0.046,-0.049,-0.05,-0.052000000000000005,-0.053,-0.054000000000000006,-0.055,-0.055999999999999994,-0.057,-0.057999999999999996,-0.059000000000000004,-0.06,N
4,-0.08,-0.078,-0.078,-0.077,-0.078,-0.08,-0.08,-0.081,-0.081,-0.081,-0.081,-0.08,-0.079,-0.078,-0.077,-0.075,-0.07400000000000001,-0.073,-0.071,-0.07,-0.068,-0.066,-0.064,-0.062,-0.06,-0.057999999999999996,-0.057,-0.055,-0.052000000000000005,-0.05,-0.047,-0.045,-0.043,-0.042,-0.04,-0.038,-0.036000000000000004,-0.034,-0.032,-0.028999999999999998,-0.027000000000000003,-0.025,-0.022000000000000002,-0.02,-0.017,-0.015,-0.012,-0.01,-0.008,-0.005,-0.003,-0.001,0.002,0.005,0.006999999999999999,0.01,0.013000000000000001,0.016,0.019,0.022000000000000002,0.026000000000000002,0.03,0.034,0.038,0.043,0.048,0.053,0.057999999999999996,0.064,0.07,0.075,0.081,0.087,0.092,0.098,0.10300000000000001,0.10800000000000001,0.113,0.11800000000000001,0.122,0.125,0.128,0.13,0.132,0.133,0.135,0.135,0.135,0.133,0.132,0.13,0.128,0.126,0.12300000000000001,0.12,0.11699999999999999,0.113,0.109,0.105,0.10099999999999999,0.09699999999999999,0.094,0.09,0.086,0.08199999999999999,0.078,0.073,0.068,0.063,0.057,0.052000000000000005,0.047,0.042,0.037000000000000005,0.033,0.027999999999999997,0.024,0.019,0.016,0.012,0.008,0.004,0.001,-0.001,-0.004,-0.006,-0.009000000000000001,-0.012,-0.013999999999999999,-0.016,-0.017,-0.018000000000000002,-0.019,-0.02,-0.021,-0.022000000000000002,-0.023,-0.024,-0.025,-0.026000000000000002,-0.026000000000000002,-0.026000000000000002,-0.026000000000000002,-0.026000000000000002,-0.025,-0.025,-0.025,-0.024,-0.023,-0.023,-0.022000000000000002,-0.021,-0.02,-0.019,-0.018000000000000002,-0.018000000000000002,-0.017,-0.016,-0.016,-0.016,-0.015,-0.013999999999999999,-0.013000000000000001,-0.013000000000000001,-0.012,-0.011000000000000001,-0.01,-0.009000000000000001,-0.008,-0.008,-0.006999999999999999,-0.006999999999999999,-0.006,-0.006,-0.005,-0.004,-0.002,-0.001,-0.0,0.0,0.0,0.0,0.0,0.0,-0.0,-0.001,-0.001,-0.001,-0.001,-0.001,-0.0,0.0,0.0,0.001,0.001,0.002,0.001,0.001,0.001,0.001,0.001,0.001,0.0,0.0,-0.001,-0.001,-0.001,-0.002,-0.003,-0.004,-0.005,-0.006,-0.006999999999999999,-0.008,-0.008,-0.009000000000000001,-0.009000000000000001,-0.009000000000000001,-0.01,-0.011000000000000001,-0.011000000000000001,-0.012,-0.012,-0.012,-0.012,-0.012,-0.012,-0.012,-0.013000000000000001,-0.013000000000000001,-0.013000000000000001,-0.013000000000000001,-0.013999999999999999,-0.015,-0.015,-0.016,-0.015,-0.015,-0.013999999999999999,-0.013000000000000001,-0.011000000000000001,-0.009000000000000001,-0.006,-0.003,0.001,0.005,0.008,0.012,0.013999999999999999,0.016,0.018000000000000002,0.02,0.024,0.027000000000000003,0.032,0.036000000000000004,0.040999999999999995,0.046,0.051,0.055999999999999994,0.06,0.063,0.065,0.066,0.065,0.063,0.06,0.055999999999999994,0.052000000000000005,0.048,0.042,0.036000000000000004,0.03,0.023,0.016,0.01,0.005,-0.001,-0.006,-0.011000000000000001,-0.016,-0.021,-0.025,-0.03,-0.033,-0.036000000000000004,-0.038,-0.04,-0.040999999999999995,-0.042,-0.042,-0.042,-0.042,-0.040999999999999995,-0.040999999999999995,-0.04,-0.04,-0.04,-0.039,-0.039,-0.038,-0.037000000000000005,-0.037000000000000005,-0.036000000000000004,-0.037000000000000005,-0.037000000000000005,-0.037000000000000005,-0.037000000000000005,-0.039,-0.04,-0.044000000000000004,-0.047,-0.053,-0.059000000000000004,-0.065,-0.07,-0.069,-0.067,-0.049,-0.031,0.01,0.051,0.115,0.179,0.252,0.325,0.385,0.445,0.47,0.495,0.475,0.456,0.39899999999999997,0.342,0.271,0.2,0.136,0.073,0.028999999999999998,-0.013999999999999999,-0.037000000000000005,-0.059000000000000004,-0.067,-0.075,-0.077,-0.078,-0.076,-0.075,-0.07400000000000001,-0.073,-0.07200000000000001,-0.07200000000000001,-0.073,-0.07400000000000001,-0.076,-0.078,-0.079,-0.08,-0.081,-0.081,-0.081,-0.081,-0.08,-0.079,-0.078,-0.076,-0.07400000000000001,-0.073,-0.07,-0.068,-0.067,-0.066,-0.065,-0.064,-0.063,-0.061,-0.06,-0.059000000000000004,-0.057,-0.055,-0.053,-0.051,-0.049,-0.047,-0.045,-0.043,-0.040999999999999995,-0.039,-0.037000000000000005,-0.035,-0.033,-0.031,-0.03,-0.027999999999999997,-0.026000000000000002,-0.024,-0.022000000000000002,-0.02,-0.018000000000000002,-0.017,-0.015,-0.013000000000000001,-0.01,-0.006999999999999999,-0.004,-0.001,0.002,0.006,0.009000000000000001,0.012,0.016,0.019,0.023,0.027000000000000003,0.032,0.037000000000000005,0.042,0.047,0.052000000000000005,0.057999999999999996,0.063,0.069,0.07400000000000001,0.079,0.083,0.08800000000000001,0.092,0.09699999999999999,0.10099999999999999,0.106,0.111,0.115,0.11800000000000001,0.121,0.122,0.124,0.124,0.124,0.12300000000000001,0.121,0.11900000000000001,0.11800000000000001,0.11599999999999999,0.113,0.111,0.10800000000000001,0.10400000000000001,0.10099999999999999,0.09699999999999999,0.092,0.087,0.08199999999999999,0.077,0.07200000000000001,0.067,0.063,0.057999999999999996,0.054000000000000006,0.049,0.045,0.040999999999999995,0.036000000000000004,0.032,0.027000000000000003,0.023,0.019,0.015,0.011000000000000001,0.006999999999999999,0.003,0.0,-0.003,-0.006,-0.009000000000000001,-0.012,-0.015,-0.016,-0.018000000000000002,-0.02,-0.022000000000000002,-0.023,-0.025,-0.025,-0.026000000000000002,-0.027000000000000003,-0.028999999999999998,-0.03,-0.03,-0.032,-0.033,-0.035,-0.036000000000000004,-0.037000000000000005,-0.037000000000000005,-0.038,-0.038,-0.037000000000000005,-0.036000000000000004,-0.035,-0.033,-0.032,-0.03,-0.03,-0.028999999999999998,-0.027000000000000003,-0.026000000000000002,-0.025,-0.025,-0.024,-0.024,-0.023,-0.023,-0.022000000000000002,-0.021,-0.02,-0.019,-0.018000000000000002,-0.017,-0.016,-0.015,-0.015,-0.013999999999999999,-0.013999999999999999,-0.013000000000000001,-0.013000000000000001,-0.013000000000000001,-0.013000000000000001,-0.013000000000000001,-0.013000000000000001,-0.013000000000000001,-0.013000000000000001,-0.013000000000000001,-0.013000000000000001,-0.012,-0.012,-0.011000000000000001,-0.011000000000000001,-0.011000000000000001,-0.011000000000000001,-0.012,-0.012,-0.013000000000000001,-0.013000000000000001,-0.013999999999999999,-0.016,-0.017,-0.018000000000000002,-0.018000000000000002,-0.018000000000000002,-0.019,-0.018000000000000002,-0.018000000000000002,-0.017,-0.016,-0.016,-0.016,-0.017,-0.017,-0.018000000000000002,-0.019,-0.02,-0.022000000000000002,-0.023,-0.025,-0.026000000000000002,-0.027999999999999997,-0.028999999999999998,-0.03,-0.03,-0.03,-0.03,-0.03,-0.03,-0.03,-0.03,-0.03,-0.03,-0.03,-0.03,-0.03,-0.03,-0.03,-0.031,-0.032,-0.032,-0.033,-0.034,-0.035,-0.036000000000000004,-0.037000000000000005,-0.037000000000000005,-0.037000000000000005,-0.036000000000000004,-0.035,-0.032,-0.028999999999999998,-0.025,-0.021,-0.017,-0.013000000000000001,-0.011000000000000001,-0.008,-0.006999999999999999,-0.005,-0.004,-0.002,-0.0,0.002,0.005,0.008,0.013000000000000001,0.017,0.022000000000000002,0.026000000000000002,0.03,0.033,0.035,0.037000000000000005,0.037000000000000005,0.037000000000000005,0.035,0.033,0.027999999999999997,0.023,0.017,0.011000000000000001,0.005,-0.001,-0.006,-0.011000000000000001,-0.015,-0.019,-0.024,-0.027999999999999997,-0.032,-0.036000000000000004,-0.04,-0.043,-0.046,-0.049,-0.05,-0.052000000000000005,-0.053,-0.054000000000000006,-0.055,-0.055999999999999994,-0.057,-0.057999999999999996,-0.059000000000000004,-0.06,-0.06,-0.06,-0.06,-0.06,-0.059000000000000004,-0.057999999999999996,-0.057999999999999996,-0.057,-0.057,-0.055999999999999994,-0.055999999999999994,-0.055999999999999994,-0.057999999999999996,-0.06,-0.064,-0.068,-0.07400000000000001,-0.08,-0.085,-0.08900000000000001,-0.085,-0.081,-0.061,-0.04,0.005,0.05,0.11800000000000001,0.185,0.26,0.335,0.395,0.455,0.478,0.502,0.48100000000000004,0.45899999999999996,0.402,0.345,0.273,0.201,0.13699999999999998,0.073,0.027999999999999997,-0.017,-0.042,-0.066,-0.076,-0.086,-0.08800000000000001,-0.09,-0.09,-0.08900000000000001,-0.08900000000000001,-0.08800000000000001,-0.08800000000000001,-0.08800000000000001,-0.08800000000000001,-0.08800000000000001,-0.08900000000000001,-0.09,-0.091,-0.092,-0.092,-0.092,-0.092,-0.092,-0.092,-0.091,-0.09,-0.08800000000000001,-0.087,-0.085,-0.084,-0.08199999999999999,-0.081,-0.079,-0.078,-0.076,-0.07400000000000001,-0.073,-0.07,-0.068,-0.066,-0.063,-0.061,-0.059000000000000004,-0.057,-0.055,-0.053,-0.05,-0.048,-0.046,-0.044000000000000004,-0.043,-0.040999999999999995,-0.04,-0.038,-0.036000000000000004,-0.033,-0.03,-0.027000000000000003,-0.023,-0.02,-0.018000000000000002,-0.015,-0.013000000000000001,-0.011000000000000001,-0.009000000000000001,-0.006999999999999999,-0.005,-0.002,0.001,0.004,0.008,0.011000000000000001,0.015,0.019,0.023,0.027000000000000003,0.032,0.037000000000000005,0.042,0.047,0.053,0.059000000000000004,0.065,0.071,0.077,0.08199999999999999,0.08800000000000001,0.09300000000000001,0.098,0.10300000000000001,0.107,0.111,0.115,0.11800000000000001,0.121,0.124,0.126,0.127,0.128,0.127,0.126,0.125,0.12300000000000001,0.121,0.11800000000000001,0.115,0.11199999999999999,0.11,0.107,0.10400000000000001,0.10099999999999999,0.09699999999999999,0.094,0.08900000000000001,0.084,0.079,0.07400000000000001,0.069,0.064,0.06,0.055,0.05,0.045,0.040999999999999995,0.036000000000000004,0.032,0.027999999999999997,0.025,0.021,0.017,0.013000000000000001,0.009000000000000001,0.005,0.002,-0.002,-0.005,-0.008,-0.011000000000000001,-0.013999999999999999,-0.016,-0.019,-0.02,-0.022000000000000002,-0.024,-0.026000000000000002,-0.027000000000000003,-0.028999999999999998,-0.028999999999999998,-0.03,-0.03,-0.031,-0.031,-0.032,-0.031,-0.031,-0.031,-0.03,-0.03,-0.028999999999999998,-0.028999999999999998,-0.028999999999999998,-0.028999999999999998,-0.028999999999999998,-0.027999999999999997,-0.027000000000000003,-0.025,-0.024,-0.023,-0.022000000000000002,-0.021,-0.02,-0.019,-0.019,-0.018000000000000002,-0.017,-0.016,-0.015,-0.015,-0.013999999999999999,-0.013000000000000001,-0.013000000000000001,-0.012,-0.011000000000000001,-0.011000000000000001,-0.01,-0.009000000000000001,-0.009000000000000001,-0.008,-0.006,-0.006,-0.006,-0.006,-0.006,-0.006,-0.006,-0.006,-0.005,-0.006,-0.006,-0.006,-0.006999999999999999,-0.008,-0.009000000000000001,-0.009000000000000001,-0.009000000000000001,-0.009000000000000001,-0.009000000000000001,-0.009000000000000001,-0.009000000000000001,-0.009000000000000001,-0.009000000000000001,-0.009000000000000001,-0.009000000000000001,-0.01,-0.011000000000000001,-0.011000000000000001,-0.011000000000000001,-0.011000000000000001,-0.012,-0.012,-0.013000000000000001,-0.013000000000000001,-0.013000000000000001,-0.013999999999999999,-0.015,-0.015,-0.016,-0.016,-0.016,-0.016,-0.016,-0.016,-0.016,-0.017,-0.018000000000000002,-0.018000000000000002,-0.019,-0.02,-0.02,-0.021,-0.021,-0.021,-0.022000000000000002,-0.022000000000000002,-0.022000000000000002,-0.022000000000000002,-0.022000000000000002,-0.022000000000000002,-0.022000000000000002,-0.021,-0.021,-0.02,-0.019,-0.017,-0.015,-0.012,-0.009000000000000001,-0.005,-0.001,0.002,0.006,0.008,0.011000000000000001,0.013000000000000001,0.015,0.017,0.02,0.024,0.027000000000000003,0.032,0.036000000000000004,0.040999999999999995,0.046,0.05,0.054000000000000006,0.055999999999999994,0.057999999999999996,0.057,0.055999999999999994,0.053,0.049,0.044000000000000004,0.039,0.033,0.027000000000000003,0.022000000000000002,0.016,0.011000000000000001,0.006,0.001,-0.005,-0.01,-0.016,-0.02,-0.025,-0.03,-0.034,-0.037000000000000005,-0.039,-0.040999999999999995,-0.042,-0.044000000000000004,-0.045,-0.046,-0.046,-0.046,-0.046,N
5,-0.07200000000000001,-0.073,-0.07400000000000001,-0.076,-0.078,-0.079,-0.08,-0.081,-0.081,-0.081,-0.081,-0.08,-0.079,-0.078,-0.076,-0.07400000000000001,-0.073,-0.07,-0.068,-0.067,-0.066,-0.065,-0.064,-0.063,-0.061,-0.06,-0.059000000000000004,-0.057,-0.055,-0.053,-0.051,-0.049,-0.047,-0.045,-0.043,-0.040999999999999995,-0.039,-0.037000000000000005,-0.035,-0.033,-0.031,-0.03,-0.027999999999999997,-0.026000000000000002,-0.024,-0.022000000000000002,-0.02,-0.018000000000000002,-0.017,-0.015,-0.013000000000000001,-0.01,-0.006999999999999999,-0.004,-0.001,0.002,0.006,0.009000000000000001,0.012,0.016,0.019,0.023,0.027000000000000003,0.032,0.037000000000000005,0.042,0.047,0.052000000000000005,0.057999999999999996,0.063,0.069,0.07400000000000001,0.079,0.083,0.08800000000000001,0.092,0.09699999999999999,0.10099999999999999,0.106,0.111,0.115,0.11800000000000001,0.121,0.122,0.124,0.124,0.124,0.12300000000000001,0.121,0.11900000000000001,0.11800000000000001,0.11599999999999999,0.113,0.111,0.10800000000000001,0.10400000000000001,0.10099999999999999,0.09699999999999999,0.092,0.087,0.08199999999999999,0.077,0.07200000000000001,0.067,0.063,0.057999999999999996,0.054000000000000006,0.049,0.045,0.040999999999999995,0.036000000000000004,0.032,0.027000000000000003,0.023,0.019,0.015,0.011000000000000001,0.006999999999999999,0.003,0.0,-0.003,-0.006,-0.009000000000000001,-0.012,-0.015,-0.016,-0.018000000000000002,-0.02,-0.022000000000000002,-0.023,-0.025,-0.025,-0.026000000000000002,-0.027000000000000003,-0.028999999999999998,-0.03,-0.03,-0.032,-0.033,-0.035,-0.036000000000000004,-0.037000000000000005,-0.037000000000000005,-0.038,-0.038,-0.037000000000000005,-0.036000000000000004,-0.035,-0.033,-0.032,-0.03,-0.03,-0.028999999999999998,-0.027000000000000003,-0.026000000000000002,-0.025,-0.025,-0.024,-0.024,-0.023,-0.023,-0.022000000000000002,-0.021,-0.02,-0.019,-0.018000000000000002,-0.017,-0.016,-0.015,-0.015,-0.013999999999999999,-0.013999999999999999,-0.013000000000000001,-0.013000000000000001,-0.013000000000000001,-0.013000000000000001,-0.013000000000000001,-0.013000000000000001,-0.013000000000000001,-0.013000000000000001,-0.013000000000000001,-0.013000000000000001,-0.012,-0.012,-0.011000000000000001,-0.011000000000000001,-0.011000000000000001,-0.011000000000000001,-0.012,-0.012,-0.013000000000000001,-0.013000000000000001,-0.013999999999999999,-0.016,-0.017,-0.018000000000000002,-0.018000000000000002,-0.018000000000000002,-0.019,-0.018000000000000002,-0.018000000000000002,-0.017,-0.016,-0.016,-0.016,-0.017,-0.017,-0.018000000000000002,-0.019,-0.02,-0.022000000000000002,-0.023,-0.025,-0.026000000000000002,-0.027999999999999997,-0.028999999999999998,-0.03,-0.03,-0.03,-0.03,-0.03,-0.03,-0.03,-0.03,-0.03,-0.03,-0.03,-0.03,-0.03,-0.03,-0.03,-0.031,-0.032,-0.032,-0.033,-0.034,-0.035,-0.036000000000000004,-0.037000000000000005,-0.037000000000000005,-0.037000000000000005,-0.036000000000000004,-0.035,-0.032,-0.028999999999999998,-0.025,-0.021,-0.017,-0.013000000000000001,-0.011000000000000001,-0.008,-0.006999999999999999,-0.005,-0.004,-0.002,-0.0,0.002,0.005,0.008,0.013000000000000001,0.017,0.022000000000000002,0.026000000000000002,0.03,0.033,0.035,0.037000000000000005,0.037000000000000005,0.037000000000000005,0.035,0.033,0.027999999999999997,0.023,0.017,0.011000000000000001,0.005,-0.001,-0.006,-0.011000000000000001,-0.015,-0.019,-0.024,-0.027999999999999997,-0.032,-0.036000000000000004,-0.04,-0.043,-0.046,-0.049,-0.05,-0.052000000000000005,-0.053,-0.054000000000000006,-0.055,-0.055999999999999994,-0.057,-0.057999999999999996,-0.059000000000000004,-0.06,-0.06,-0.06,-0.06,-0.06,-0.059000000000000004,-0.057999999999999996,-0.057999999999999996,-0.057,-0.057,-0.055999999999999994,-0.055999999999999994,-0.055999999999999994,-0.057999999999999996,-0.06,-0.064,-0.068,-0.07400000000000001,-0.08,-0.085,-0.08900000000000001,-0.085,-0.081,-0.061,-0.04,0.005,0.05,0.11800000000000001,0.185,0.26,0.335,0.395,0.455,0.478,0.502,0.48100000000000004,0.45899999999999996,0.402,0.345,0.273,0.201,0.13699999999999998,0.073,0.027999999999999997,-0.017,-0.042,-0.066,-0.076,-0.086,-0.08800000000000001,-0.09,-0.09,-0.08900000000000001,-0.08900000000000001,-0.08800000000000001,-0.08800000000000001,-0.08800000000000001,-0.08800000000000001,-0.08800000000000001,-0.08900000000000001,-0.09,-0.091,-0.092,-0.092,-0.092,-0.092,-0.092,-0.092,-0.091,-0.09,-0.08800000000000001,-0.087,-0.085,-0.084,-0.08199999999999999,-0.081,-0.079,-0.078,-0.076,-0.07400000000000001,-0.073,-0.07,-0.068,-0.066,-0.063,-0.061,-0.059000000000000004,-0.057,-0.055,-0.053,-0.05,-0.048,-0.046,-0.044000000000000004,-0.043,-0.040999999999999995,-0.04,-0.038,-0.036000000000000004,-0.033,-0.03,-0.027000000000000003,-0.023,-0.02,-0.018000000000000002,-0.015,-0.013000000000000001,-0.011000000000000001,-0.009000000000000001,-0.006999999999999999,-0.005,-0.002,0.001,0.004,0.008,0.011000000000000001,0.015,0.019,0.023,0.027000000000000003,0.032,0.037000000000000005,0.042,0.047,0.053,0.059000000000000004,0.065,0.071,0.077,0.08199999999999999,0.08800000000000001,0.09300000000000001,0.098,0.10300000000000001,0.107,0.111,0.115,0.11800000000000001,0.121,0.124,0.126,0.127,0.128,0.127,0.126,0.125,0.12300000000000001,0.121,0.11800000000000001,0.115,0.11199999999999999,0.11,0.107,0.10400000000000001,0.10099999999999999,0.09699999999999999,0.094,0.08900000000000001,0.084,0.079,0.07400000000000001,0.069,0.064,0.06,0.055,0.05,0.045,0.040999999999999995,0.036000000000000004,0.032,0.027999999999999997,0.025,0.021,0.017,0.013000000000000001,0.009000000000000001,0.005,0.002,-0.002,-0.005,-0.008,-0.011000000000000001,-0.013999999999999999,-0.016,-0.019,-0.02,-0.022000000000000002,-0.024,-0.026000000000000002,-0.027000000000000003,-0.028999999999999998,-0.028999999999999998,-0.03,-0.03,-0.031,-0.031,-0.032,-0.031,-0.031,-0.031,-0.03,-0.03,-0.028999999999999998,-0.028999999999999998,-0.028999999999999998,-0.028999999999999998,-0.028999999999999998,-0.027999999999999997,-0.027000000000000003,-0.025,-0.024,-0.023,-0.022000000000000002,-0.021,-0.02,-0.019,-0.019,-0.018000000000000002,-0.017,-0.016,-0.015,-0.015,-0.013999999999999999,-0.013000000000000001,-0.013000000000000001,-0.012,-0.011000000000000001,-0.011000000000000001,-0.01,-0.009000000000000001,-0.009000000000000001,-0.008,-0.006,-0.006,-0.006,-0.006,-0.006,-0.006,-0.006,-0.006,-0.005,-0.006,-0.006,-0.006,-0.006999999999999999,-0.008,-0.009000000000000001,-0.009000000000000001,-0.009000000000000001,-0.009000000000000001,-0.009000000000000001,-0.009000000000000001,-0.009000000000000001,-0.009000000000000001,-0.009000000000000001,-0.009000000000000001,-0.009000000000000001,-0.01,-0.011000000000000001,-0.011000000000000001,-0.011000000000000001,-0.011000000000000001,-0.012,-0.012,-0.013000000000000001,-0.013000000000000001,-0.013000000000000001,-0.013999999999999999,-0.015,-0.015,-0.016,-0.016,-0.016,-0.016,-0.016,-0.016,-0.016,-0.017,-0.018000000000000002,-0.018000000000000002,-0.019,-0.02,-0.02,-0.021,-0.021,-0.021,-0.022000000000000002,-0.022000000000000002,-0.022000000000000002,-0.022000000000000002,-0.022000000000000002,-0.022000000000000002,-0.022000000000000002,-0.021,-0.021,-0.02,-0.019,-0.017,-0.015,-0.012,-0.009000000000000001,-0.005,-0.001,0.002,0.006,0.008,0.011000000000000001,0.013000000000000001,0.015,0.017,0.02,0.024,0.027000000000000003,0.032,0.036000000000000004,0.040999999999999995,0.046,0.05,0.054000000000000006,0.055999999999999994,0.057999999999999996,0.057,0.055999999999999994,0.053,0.049,0.044000000000000004,0.039,0.033,0.027000000000000003,0.022000000000000002,0.016,0.011000000000000001,0.006,0.001,-0.005,-0.01,-0.016,-0.02,-0.025,-0.03,-0.034,-0.037000000000000005,-0.039,-0.040999999999999995,-0.042,-0.044000000000000004,-0.045,-0.046,-0.046,-0.046,-0.046,-0.046,-0.046,-0.045,-0.044000000000000004,-0.044000000000000004,-0.044000000000000004,-0.044000000000000004,-0.044000000000000004,-0.044000000000000004,-0.043,-0.043,-0.042,-0.042,-0.040999999999999995,-0.042,-0.042,-0.046,-0.05,-0.055999999999999994,-0.062,-0.067,-0.071,-0.066,-0.061,-0.039,-0.017,0.028999999999999998,0.07400000000000001,0.141,0.207,0.27899999999999997,0.35,0.40299999999999997,0.456,0.47100000000000003,0.485,0.455,0.426,0.364,0.302,0.231,0.16,0.099,0.039,-0.0,-0.04,-0.059000000000000004,-0.079,-0.085,-0.092,-0.092,-0.092,-0.09,-0.08800000000000001,-0.085,-0.08199999999999999,-0.08,-0.078,-0.077,-0.076,-0.076,-0.077,-0.077,-0.078,-0.078,-0.078,-0.078,-0.077,-0.076,-0.07400000000000001,-0.07200000000000001,-0.07,-0.068,-0.066,-0.065,-0.063,-0.062,-0.06,-0.059000000000000004,-0.057999999999999996,-0.057,-0.055999999999999994,-0.054000000000000006,-0.053,-0.051,-0.049,-0.046,-0.044000000000000004,-0.042,-0.04,-0.038,-0.036000000000000004,-0.033,-0.031,-0.028999999999999998,-0.026000000000000002,-0.024,-0.021,-0.019,-0.016,-0.013999999999999999,-0.012,-0.011000000000000001,-0.009000000000000001,-0.006999999999999999,-0.005,-0.003,-0.001,0.002,0.005,0.006999999999999999,0.01,0.013000000000000001,0.016,0.019,0.022000000000000002,0.026000000000000002,0.028999999999999998,0.033,0.036000000000000004,0.04,0.044000000000000004,0.049,0.054000000000000006,0.06,0.066,0.07,0.075,0.079,0.083,0.087,0.092,0.096,0.1,0.10400000000000001,0.109,0.113,0.11699999999999999,0.12,0.12300000000000001,0.125,0.127,0.128,0.128,0.128,0.128,0.127,0.126,0.125,0.12300000000000001,0.122,0.12,0.11800000000000001,0.115,0.11199999999999999,0.10800000000000001,0.10400000000000001,0.099,0.094,0.08900000000000001,0.084,0.079,0.075,0.07,0.065,0.06,0.055999999999999994,0.051,0.046,0.040999999999999995,0.037000000000000005,0.032,0.027999999999999997,0.023,0.02,0.016,0.012,0.009000000000000001,0.006,0.002,-0.0,-0.003,-0.006,-0.008,-0.011000000000000001,-0.013000000000000001,-0.015,-0.016,-0.017,-0.018000000000000002,-0.018000000000000002,-0.018000000000000002,-0.019,-0.02,-0.021,-0.022000000000000002,-0.023,-0.023,-0.024,-0.025,-0.025,-0.025,-0.025,-0.025,-0.024,-0.023,-0.022000000000000002,-0.021,-0.02,-0.019,-0.019,-0.019,-0.018000000000000002,-0.018000000000000002,-0.017,-0.017,-0.017,-0.018000000000000002,-0.017,-0.017,-0.016,-0.016,-0.015,-0.013999999999999999,-0.013999999999999999,-0.013000000000000001,-0.013000000000000001,-0.012,-0.012,-0.012,-0.012,-0.012,-0.011000000000000001,-0.011000000000000001,-0.009000000000000001,-0.008,-0.006999999999999999,-0.006,-0.006,-0.006,-0.006999999999999999,-0.006999999999999999,-0.008,-0.009000000000000001,-0.01,-0.011000000000000001,-0.011000000000000001,-0.011000000000000001,-0.011000000000000001,-0.011000000000000001,-0.011000000000000001,-0.011000000000000001,-0.011000000000000001,-0.011000000000000001,-0.011000000000000001,-0.012,-0.012,-0.013000000000000001,-0.013000000000000001,-0.013000000000000001,-0.013999999999999999,-0.015,-0.016,-0.017,-0.018000000000000002,-0.019,-0.02,-0.02,-0.021,-0.021,-0.022000000000000002,-0.022000000000000002,-0.023,-0.023,-0.024,-0.024,-0.024,-0.023,-0.023,-0.023,-0.023,-0.023,-0.023,-0.023,-0.024,-0.024,-0.025,-0.025,-0.025,-0.026000000000000002,-0.026000000000000002,-0.026000000000000002,-0.026000000000000002,-0.026000000000000002,-0.025,-0.025,-0.024,-0.023,-0.02,-0.018000000000000002,-0.013000000000000001,-0.009000000000000001,-0.005,-0.001,0.003,0.006,0.008,0.01,0.011000000000000001,0.012,0.013999999999999999,0.016,0.02,0.023,0.028999999999999998,0.035,0.042,0.048,0.053,0.057999999999999996,0.06,0.062,0.062,0.061,0.059000000000000004,0.055999999999999994,0.051,0.046,0.04,0.035,0.027999999999999997,0.022000000000000002,0.016,0.01,0.004,-0.002,-0.008,-0.013999999999999999,-0.019,-0.023,-0.027000000000000003,-0.032,-0.035,-0.037000000000000005,-0.039,-0.042,-0.042,-0.043,-0.043,-0.043,-0.043,N
6,-0.08800000000000001,-0.08800000000000001,-0.08800000000000001,-0.08800000000000001,-0.08800000000000001,-0.08900000000000001,-0.09,-0.091,-0.092,-0.092,-0.092,-0.092,-0.092,-0.092,-0.091,-0.09,-0.08800000000000001,-0.087,-0.085,-0.084,-0.08199999999999999,-0.081,-0.079,-0.078,-0.076,-0.07400000000000001,-0.073,-0.07,-0.068,-0.066,-0.063,-0.061,-0.059000000000000004,-0.057,-0.055,-0.053,-0.05,-0.048,-0.046,-0.044000000000000004,-0.043,-0.040999999999999995,-0.04,-0.038,-0.036000000000000004,-0.033,-0.03,-0.027000000000000003,-0.023,-0.02,-0.018000000000000002,-0.015,-0.013000000000000001,-0.011000000000000001,-0.009000000000000001,-0.006999999999999999,-0.005,-0.002,0.001,0.004,0.008,0.011000000000000001,0.015,0.019,0.023,0.027000000000000003,0.032,0.037000000000000005,0.042,0.047,0.053,0.059000000000000004,0.065,0.071,0.077,0.08199999999999999,0.08800000000000001,0.09300000000000001,0.098,0.10300000000000001,0.107,0.111,0.115,0.11800000000000001,0.121,0.124,0.126,0.127,0.128,0.127,0.126,0.125,0.12300000000000001,0.121,0.11800000000000001,0.115,0.11199999999999999,0.11,0.107,0.10400000000000001,0.10099999999999999,0.09699999999999999,0.094,0.08900000000000001,0.084,0.079,0.07400000000000001,0.069,0.064,0.06,0.055,0.05,0.045,0.040999999999999995,0.036000000000000004,0.032,0.027999999999999997,0.025,0.021,0.017,0.013000000000000001,0.009000000000000001,0.005,0.002,-0.002,-0.005,-0.008,-0.011000000000000001,-0.013999999999999999,-0.016,-0.019,-0.02,-0.022000000000000002,-0.024,-0.026000000000000002,-0.027000000000000003,-0.028999999999999998,-0.028999999999999998,-0.03,-0.03,-0.031,-0.031,-0.032,-0.031,-0.031,-0.031,-0.03,-0.03,-0.028999999999999998,-0.028999999999999998,-0.028999999999999998,-0.028999999999999998,-0.028999999999999998,-0.027999999999999997,-0.027000000000000003,-0.025,-0.024,-0.023,-0.022000000000000002,-0.021,-0.02,-0.019,-0.019,-0.018000000000000002,-0.017,-0.016,-0.015,-0.015,-0.013999999999999999,-0.013000000000000001,-0.013000000000000001,-0.012,-0.011000000000000001,-0.011000000000000001,-0.01,-0.009000000000000001,-0.009000000000000001,-0.008,-0.006,-0.006,-0.006,-0.006,-0.006,-0.006,-0.006,-0.006,-0.005,-0.006,-0.006,-0.006,-0.006999999999999999,-0.008,-0.009000000000000001,-0.009000000000000001,-0.009000000000000001,-0.009000000000000001,-0.009000000000000001,-0.009000000000000001,-0.009000000000000001,-0.009000000000000001,-0.009000000000000001,-0.009000000000000001,-0.009000000000000001,-0.01,-0.011000000000000001,-0.011000000000000001,-0.011000000000000001,-0.011000000000000001,-0.012,-0.012,-0.013000000000000001,-0.013000000000000001,-0.013000000000000001,-0.013999999999999999,-0.015,-0.015,-0.016,-0.016,-0.016,-0.016,-0.016,-0.016,-0.016,-0.017,-0.018000000000000002,-0.018000000000000002,-0.019,-0.02,-0.02,-0.021,-0.021,-0.021,-0.022000000000000002,-0.022000000000000002,-0.022000000000000002,-0.022000000000000002,-0.022000000000000002,-0.022000000000000002,-0.022000000000000002,-0.021,-0.021,-0.02,-0.019,-0.017,-0.015,-0.012,-0.009000000000000001,-0.005,-0.001,0.002,0.006,0.008,0.011000000000000001,0.013000000000000001,0.015,0.017,0.02,0.024,0.027000000000000003,0.032,0.036000000000000004,0.040999999999999995,0.046,0.05,0.054000000000000006,0.055999999999999994,0.057999999999999996,0.057,0.055999999999999994,0.053,0.049,0.044000000000000004,0.039,0.033,0.027000000000000003,0.022000000000000002,0.016,0.011000000000000001,0.006,0.001,-0.005,-0.01,-0.016,-0.02,-0.025,-0.03,-0.034,-0.037000000000000005,-0.039,-0.040999999999999995,-0.042,-0.044000000000000004,-0.045,-0.046,-0.046,-0.046,-0.046,-0.046,-0.046,-0.045,-0.044000000000000004,-0.044000000000000004,-0.044000000000000004,-0.044000000000000004,-0.044000000000000004,-0.044000000000000004,-0.043,-0.043,-0.042,-0.042,-0.040999999999999995,-0.042,-0.042,-0.046,-0.05,-0.055999999999999994,-0.062,-0.067,-0.071,-0.066,-0.061,-0.039,-0.017,0.028999999999999998,0.07400000000000001,0.141,0.207,0.27899999999999997,0.35,0.40299999999999997,0.456,0.47100000000000003,0.485,0.455,0.426,0.364,0.302,0.231,0.16,0.099,0.039,-0.0,-0.04,-0.059000000000000004,-0.079,-0.085,-0.092,-0.092,-0.092,-0.09,-0.08800000000000001,-0.085,-0.08199999999999999,-0.08,-0.078,-0.077,-0.076,-0.076,-0.077,-0.077,-0.078,-0.078,-0.078,-0.078,-0.077,-0.076,-0.07400000000000001,-0.07200000000000001,-0.07,-0.068,-0.066,-0.065,-0.063,-0.062,-0.06,-0.059000000000000004,-0.057999999999999996,-0.057,-0.055999999999999994,-0.054000000000000006,-0.053,-0.051,-0.049,-0.046,-0.044000000000000004,-0.042,-0.04,-0.038,-0.036000000000000004,-0.033,-0.031,-0.028999999999999998,-0.026000000000000002,-0.024,-0.021,-0.019,-0.016,-0.013999999999999999,-0.012,-0.011000000000000001,-0.009000000000000001,-0.006999999999999999,-0.005,-0.003,-0.001,0.002,0.005,0.006999999999999999,0.01,0.013000000000000001,0.016,0.019,0.022000000000000002,0.026000000000000002,0.028999999999999998,0.033,0.036000000000000004,0.04,0.044000000000000004,0.049,0.054000000000000006,0.06,0.066,0.07,0.075,0.079,0.083,0.087,0.092,0.096,0.1,0.10400000000000001,0.109,0.113,0.11699999999999999,0.12,0.12300000000000001,0.125,0.127,0.128,0.128,0.128,0.128,0.127,0.126,0.125,0.12300000000000001,0.122,0.12,0.11800000000000001,0.115,0.11199999999999999,0.10800000000000001,0.10400000000000001,0.099,0.094,0.08900000000000001,0.084,0.079,0.075,0.07,0.065,0.06,0.055999999999999994,0.051,0.046,0.040999999999999995,0.037000000000000005,0.032,0.027999999999999997,0.023,0.02,0.016,0.012,0.009000000000000001,0.006,0.002,-0.0,-0.003,-0.006,-0.008,-0.011000000000000001,-0.013000000000000001,-0.015,-0.016,-0.017,-0.018000000000000002,-0.018000000000000002,-0.018000000000000002,-0.019,-0.02,-0.021,-0.022000000000000002,-0.023,-0.023,-0.024,-0.025,-0.025,-0.025,-0.025,-0.025,-0.024,-0.023,-0.022000000000000002,-0.021,-0.02,-0.019,-0.019,-0.019,-0.018000000000000002,-0.018000000000000002,-0.017,-0.017,-0.017,-0.018000000000000002,-0.017,-0.017,-0.016,-0.016,-0.015,-0.013999999999999999,-0.013999999999999999,-0.013000000000000001,-0.013000000000000001,-0.012,-0.012,-0.012,-0.012,-0.012,-0.011000000000000001,-0.011000000000000001,-0.009000000000000001,-0.008,-0.006999999999999999,-0.006,-0.006,-0.006,-0.006999999999999999,-0.006999999999999999,-0.008,-0.009000000000000001,-0.01,-0.011000000000000001,-0.011000000000000001,-0.011000000000000001,-0.011000000000000001,-0.011000000000000001,-0.011000000000000001,-0.011000000000000001,-0.011000000000000001,-0.011000000000000001,-0.011000000000000001,-0.012,-0.012,-0.013000000000000001,-0.013000000000000001,-0.013000000000000001,-0.013999999999999999,-0.015,-0.016,-0.017,-0.018000000000000002,-0.019,-0.02,-0.02,-0.021,-0.021,-0.022000000000000002,-0.022000000000000002,-0.023,-0.023,-0.024,-0.024,-0.024,-0.023,-0.023,-0.023,-0.023,-0.023,-0.023,-0.023,-0.024,-0.024,-0.025,-0.025,-0.025,-0.026000000000000002,-0.026000000000000002,-0.026000000000000002,-0.026000000000000002,-0.026000000000000002,-0.025,-0.025,-0.024,-0.023,-0.02,-0.018000000000000002,-0.013000000000000001,-0.009000000000000001,-0.005,-0.001,0.003,0.006,0.008,0.01,0.011000000000000001,0.012,0.013999999999999999,0.016,0.02,0.023,0.028999999999999998,0.035,0.042,0.048,0.053,0.057999999999999996,0.06,0.062,0.062,0.061,0.059000000000000004,0.055999999999999994,0.051,0.046,0.04,0.035,0.027999999999999997,0.022000000000000002,0.016,0.01,0.004,-0.002,-0.008,-0.013999999999999999,-0.019,-0.023,-0.027000000000000003,-0.032,-0.035,-0.037000000000000005,-0.039,-0.042,-0.042,-0.043,-0.043,-0.043,-0.043,-0.043,-0.044000000000000004,-0.044000000000000004,-0.044000000000000004,-0.044000000000000004,-0.044000000000000004,-0.044000000000000004,-0.044000000000000004,-0.044000000000000004,-0.044000000000000004,-0.044000000000000004,-0.044000000000000004,-0.044000000000000004,-0.044000000000000004,-0.044000000000000004,-0.045,-0.046,-0.049,-0.053,-0.057999999999999996,-0.063,-0.067,-0.071,-0.068,-0.065,-0.046,-0.027000000000000003,0.013999999999999999,0.055999999999999994,0.11800000000000001,0.18100000000000002,0.251,0.322,0.37799999999999995,0.434,0.45399999999999996,0.474,0.45,0.425,0.36700000000000005,0.309,0.24,0.171,0.111,0.05,0.011000000000000001,-0.028999999999999998,-0.049,-0.07,-0.077,-0.084,-0.085,-0.086,-0.085,-0.084,-0.08199999999999999,-0.08,-0.078,-0.076,-0.075,-0.07400000000000001,-0.075,-0.076,-0.078,-0.08,-0.081,-0.08199999999999999,-0.083,-0.083,-0.08199999999999999,-0.081,-0.08,-0.078,-0.076,-0.07400000000000001,-0.07200000000000001,-0.07,-0.068,-0.066,-0.063,-0.061,-0.059000000000000004,-0.057,-0.055999999999999994,-0.054000000000000006,-0.053,-0.051,-0.049,-0.046,-0.044000000000000004,-0.042,-0.04,-0.039,-0.037000000000000005,-0.035,-0.034,-0.033,-0.032,-0.03,-0.028999999999999998,-0.027000000000000003,-0.025,-0.023,-0.021,-0.019,-0.016,-0.013000000000000001,-0.01,-0.006,-0.003,0.0,0.004,0.006999999999999999,0.011000000000000001,0.015,0.018000000000000002,0.02,0.023,0.025,0.027999999999999997,0.031,0.035,0.038,0.042,0.047,0.052000000000000005,0.057,0.062,0.067,0.07200000000000001,0.077,0.08199999999999999,0.08800000000000001,0.094,0.10099999999999999,0.106,0.111,0.115,0.11900000000000001,0.121,0.12300000000000001,0.12300000000000001,0.12300000000000001,0.12300000000000001,0.122,0.121,0.12,0.11800000000000001,0.115,0.113,0.11,0.10800000000000001,0.105,0.10300000000000001,0.10099999999999999,0.09699999999999999,0.092,0.08800000000000001,0.084,0.079,0.075,0.07,0.066,0.062,0.057999999999999996,0.054000000000000006,0.049,0.045,0.04,0.036000000000000004,0.032,0.027999999999999997,0.023,0.019,0.015,0.011000000000000001,0.008,0.004,0.001,-0.002,-0.005,-0.006999999999999999,-0.01,-0.012,-0.013000000000000001,-0.015,-0.016,-0.017,-0.018000000000000002,-0.019,-0.02,-0.021,-0.023,-0.024,-0.025,-0.026000000000000002,-0.026000000000000002,-0.026000000000000002,-0.026000000000000002,-0.026000000000000002,-0.025,-0.024,-0.023,-0.022000000000000002,-0.021,-0.02,-0.019,-0.018000000000000002,-0.017,-0.016,-0.015,-0.015,-0.015,-0.015,-0.015,-0.013999999999999999,-0.013000000000000001,-0.012,-0.011000000000000001,-0.009000000000000001,-0.008,-0.006999999999999999,-0.006,-0.006,-0.005,-0.005,-0.005,-0.004,-0.004,-0.003,-0.003,-0.003,-0.003,-0.002,-0.002,-0.001,-0.001,-0.001,-0.002,-0.002,-0.002,-0.001,-0.001,-0.0,0.0,0.0,0.0,0.0,0.001,0.001,0.002,0.002,0.002,0.002,0.002,0.002,0.002,0.002,0.002,0.002,0.002,0.002,0.002,0.002,0.002,0.002,0.002,0.002,0.001,0.001,0.0,-0.001,-0.002,-0.002,-0.003,-0.004,-0.004,-0.005,-0.005,-0.006,-0.006999999999999999,-0.008,-0.009000000000000001,-0.009000000000000001,-0.009000000000000001,-0.009000000000000001,-0.009000000000000001,-0.009000000000000001,-0.009000000000000001,-0.01,-0.011000000000000001,-0.011000000000000001,-0.012,-0.012,-0.012,-0.011000000000000001,-0.011000000000000001,-0.008,-0.006,-0.003,0.001,0.006,0.01,0.013999999999999999,0.018000000000000002,0.02,0.023,0.025,0.026000000000000002,0.028999999999999998,0.031,0.034,0.037000000000000005,0.042,0.046,0.052000000000000005,0.057,0.062,0.066,0.068,0.07,0.07,0.069,0.066,0.063,0.057999999999999996,0.053,0.048,0.042,0.036000000000000004,0.028999999999999998,0.023,0.017,0.011000000000000001,0.006,0.001,-0.004,-0.008,-0.013000000000000001,-0.017,-0.021,-0.024,-0.027000000000000003,-0.03,-0.032,-0.034,-0.036000000000000004,-0.036000000000000004,-0.037000000000000005,-0.037000000000000005,-0.037000000000000005,-0.037000000000000005,N
7,-0.08,-0.078,-0.077,-0.076,-0.076,-0.077,-0.077,-0.078,-0.078,-0.078,-0.078,-0.077,-0.076,-0.07400000000000001,-0.07200000000000001,-0.07,-0.068,-0.066,-0.065,-0.063,-0.062,-0.06,-0.059000000000000004,-0.057999999999999996,-0.057,-0.055999999999999994,-0.054000000000000006,-0.053,-0.051,-0.049,-0.046,-0.044000000000000004,-0.042,-0.04,-0.038,-0.036000000000000004,-0.033,-0.031,-0.028999999999999998,-0.026000000000000002,-0.024,-0.021,-0.019,-0.016,-0.013999999999999999,-0.012,-0.011000000000000001,-0.009000000000000001,-0.006999999999999999,-0.005,-0.003,-0.001,0.002,0.005,0.006999999999999999,0.01,0.013000000000000001,0.016,0.019,0.022000000000000002,0.026000000000000002,0.028999999999999998,0.033,0.036000000000000004,0.04,0.044000000000000004,0.049,0.054000000000000006,0.06,0.066,0.07,0.075,0.079,0.083,0.087,0.092,0.096,0.1,0.10400000000000001,0.109,0.113,0.11699999999999999,0.12,0.12300000000000001,0.125,0.127,0.128,0.128,0.128,0.128,0.127,0.126,0.125,0.12300000000000001,0.122,0.12,0.11800000000000001,0.115,0.11199999999999999,0.10800000000000001,0.10400000000000001,0.099,0.094,0.08900000000000001,0.084,0.079,0.075,0.07,0.065,0.06,0.055999999999999994,0.051,0.046,0.040999999999999995,0.037000000000000005,0.032,0.027999999999999997,0.023,0.02,0.016,0.012,0.009000000000000001,0.006,0.002,-0.0,-0.003,-0.006,-0.008,-0.011000000000000001,-0.013000000000000001,-0.015,-0.016,-0.017,-0.018000000000000002,-0.018000000000000002,-0.018000000000000002,-0.019,-0.02,-0.021,-0.022000000000000002,-0.023,-0.023,-0.024,-0.025,-0.025,-0.025,-0.025,-0.025,-0.024,-0.023,-0.022000000000000002,-0.021,-0.02,-0.019,-0.019,-0.019,-0.018000000000000002,-0.018000000000000002,-0.017,-0.017,-0.017,-0.018000000000000002,-0.017,-0.017,-0.016,-0.016,-0.015,-0.013999999999999999,-0.013999999999999999,-0.013000000000000001,-0.013000000000000001,-0.012,-0.012,-0.012,-0.012,-0.012,-0.011000000000000001,-0.011000000000000001,-0.009000000000000001,-0.008,-0.006999999999999999,-0.006,-0.006,-0.006,-0.006999999999999999,-0.006999999999999999,-0.008,-0.009000000000000001,-0.01,-0.011000000000000001,-0.011000000000000001,-0.011000000000000001,-0.011000000000000001,-0.011000000000000001,-0.011000000000000001,-0.011000000000000001,-0.011000000000000001,-0.011000000000000001,-0.011000000000000001,-0.012,-0.012,-0.013000000000000001,-0.013000000000000001,-0.013000000000000001,-0.013999999999999999,-0.015,-0.016,-0.017,-0.018000000000000002,-0.019,-0.02,-0.02,-0.021,-0.021,-0.022000000000000002,-0.022000000000000002,-0.023,-0.023,-0.024,-0.024,-0.024,-0.023,-0.023,-0.023,-0.023,-0.023,-0.023,-0.023,-0.024,-0.024,-0.025,-0.025,-0.025,-0.026000000000000002,-0.026000000000000002,-0.026000000000000002,-0.026000000000000002,-0.026000000000000002,-0.025,-0.025,-0.024,-0.023,-0.02,-0.018000000000000002,-0.013000000000000001,-0.009000000000000001,-0.005,-0.001,0.003,0.006,0.008,0.01,0.011000000000000001,0.012,0.013999999999999999,0.016,0.02,0.023,0.028999999999999998,0.035,0.042,0.048,0.053,0.057999999999999996,0.06,0.062,0.062,0.061,0.059000000000000004,0.055999999999999994,0.051,0.046,0.04,0.035,0.027999999999999997,0.022000000000000002,0.016,0.01,0.004,-0.002,-0.008,-0.013999999999999999,-0.019,-0.023,-0.027000000000000003,-0.032,-0.035,-0.037000000000000005,-0.039,-0.042,-0.042,-0.043,-0.043,-0.043,-0.043,-0.043,-0.044000000000000004,-0.044000000000000004,-0.044000000000000004,-0.044000000000000004,-0.044000000000000004,-0.044000000000000004,-0.044000000000000004,-0.044000000000000004,-0.044000000000000004,-0.044000000000000004,-0.044000000000000004,-0.044000000000000004,-0.044000000000000004,-0.044000000000000004,-0.045,-0.046,-0.049,-0.053,-0.057999999999999996,-0.063,-0.067,-0.071,-0.068,-0.065,-0.046,-0.027000000000000003,0.013999999999999999,0.055999999999999994,0.11800000000000001,0.18100000000000002,0.251,0.322,0.37799999999999995,0.434,0.45399999999999996,0.474,0.45,0.425,0.36700000000000005,0.309,0.24,0.171,0.111,0.05,0.011000000000000001,-0.028999999999999998,-0.049,-0.07,-0.077,-0.084,-0.085,-0.086,-0.085,-0.084,-0.08199999999999999,-0.08,-0.078,-0.076,-0.075,-0.07400000000000001,-0.075,-0.076,-0.078,-0.08,-0.081,-0.08199999999999999,-0.083,-0.083,-0.08199999999999999,-0.081,-0.08,-0.078,-0.076,-0.07400000000000001,-0.07200000000000001,-0.07,-0.068,-0.066,-0.063,-0.061,-0.059000000000000004,-0.057,-0.055999999999999994,-0.054000000000000006,-0.053,-0.051,-0.049,-0.046,-0.044000000000000004,-0.042,-0.04,-0.039,-0.037000000000000005,-0.035,-0.034,-0.033,-0.032,-0.03,-0.028999999999999998,-0.027000000000000003,-0.025,-0.023,-0.021,-0.019,-0.016,-0.013000000000000001,-0.01,-0.006,-0.003,0.0,0.004,0.006999999999999999,0.011000000000000001,0.015,0.018000000000000002,0.02,0.023,0.025,0.027999999999999997,0.031,0.035,0.038,0.042,0.047,0.052000000000000005,0.057,0.062,0.067,0.07200000000000001,0.077,0.08199999999999999,0.08800000000000001,0.094,0.10099999999999999,0.106,0.111,0.115,0.11900000000000001,0.121,0.12300000000000001,0.12300000000000001,0.12300000000000001,0.12300000000000001,0.122,0.121,0.12,0.11800000000000001,0.115,0.113,0.11,0.10800000000000001,0.105,0.10300000000000001,0.10099999999999999,0.09699999999999999,0.092,0.08800000000000001,0.084,0.079,0.075,0.07,0.066,0.062,0.057999999999999996,0.054000000000000006,0.049,0.045,0.04,0.036000000000000004,0.032,0.027999999999999997,0.023,0.019,0.015,0.011000000000000001,0.008,0.004,0.001,-0.002,-0.005,-0.006999999999999999,-0.01,-0.012,-0.013000000000000001,-0.015,-0.016,-0.017,-0.018000000000000002,-0.019,-0.02,-0.021,-0.023,-0.024,-0.025,-0.026000000000000002,-0.026000000000000002,-0.026000000000000002,-0.026000000000000002,-0.026000000000000002,-0.025,-0.024,-0.023,-0.022000000000000002,-0.021,-0.02,-0.019,-0.018000000000000002,-0.017,-0.016,-0.015,-0.015,-0.015,-0.015,-0.015,-0.013999999999999999,-0.013000000000000001,-0.012,-0.011000000000000001,-0.009000000000000001,-0.008,-0.006999999999999999,-0.006,-0.006,-0.005,-0.005,-0.005,-0.004,-0.004,-0.003,-0.003,-0.003,-0.003,-0.002,-0.002,-0.001,-0.001,-0.001,-0.002,-0.002,-0.002,-0.001,-0.001,-0.0,0.0,0.0,0.0,0.0,0.001,0.001,0.002,0.002,0.002,0.002,0.002,0.002,0.002,0.002,0.002,0.002,0.002,0.002,0.002,0.002,0.002,0.002,0.002,0.002,0.001,0.001,0.0,-0.001,-0.002,-0.002,-0.003,-0.004,-0.004,-0.005,-0.005,-0.006,-0.006999999999999999,-0.008,-0.009000000000000001,-0.009000000000000001,-0.009000000000000001,-0.009000000000000001,-0.009000000000000001,-0.009000000000000001,-0.009000000000000001,-0.01,-0.011000000000000001,-0.011000000000000001,-0.012,-0.012,-0.012,-0.011000000000000001,-0.011000000000000001,-0.008,-0.006,-0.003,0.001,0.006,0.01,0.013999999999999999,0.018000000000000002,0.02,0.023,0.025,0.026000000000000002,0.028999999999999998,0.031,0.034,0.037000000000000005,0.042,0.046,0.052000000000000005,0.057,0.062,0.066,0.068,0.07,0.07,0.069,0.066,0.063,0.057999999999999996,0.053,0.048,0.042,0.036000000000000004,0.028999999999999998,0.023,0.017,0.011000000000000001,0.006,0.001,-0.004,-0.008,-0.013000000000000001,-0.017,-0.021,-0.024,-0.027000000000000003,-0.03,-0.032,-0.034,-0.036000000000000004,-0.036000000000000004,-0.037000000000000005,-0.037000000000000005,-0.037000000000000005,-0.037000000000000005,-0.037000000000000005,-0.037000000000000005,-0.037000000000000005,-0.038,-0.039,-0.039,-0.039,-0.039,-0.039,-0.039,-0.039,-0.04,-0.04,-0.042,-0.043,-0.046,-0.049,-0.054000000000000006,-0.059000000000000004,-0.065,-0.071,-0.073,-0.07400000000000001,-0.062,-0.05,-0.016,0.017,0.07400000000000001,0.13,0.201,0.271,0.336,0.401,0.43700000000000006,0.473,0.46399999999999997,0.456,0.408,0.36,0.29100000000000004,0.223,0.158,0.092,0.045,-0.002,-0.027999999999999997,-0.054000000000000006,-0.064,-0.075,-0.078,-0.081,-0.08199999999999999,-0.08199999999999999,-0.08199999999999999,-0.081,-0.08,-0.08,-0.079,-0.079,-0.079,-0.08,-0.08,-0.081,-0.081,-0.081,-0.081,-0.081,-0.08,-0.079,-0.078,-0.077,-0.076,-0.075,-0.073,-0.07200000000000001,-0.07,-0.068,-0.066,-0.064,-0.061,-0.059000000000000004,-0.057,-0.055999999999999994,-0.054000000000000006,-0.051,-0.049,-0.047,-0.044000000000000004,-0.042,-0.039,-0.037000000000000005,-0.036000000000000004,-0.034,-0.032,-0.028999999999999998,-0.027000000000000003,-0.024,-0.022000000000000002,-0.019,-0.017,-0.015,-0.013000000000000001,-0.011000000000000001,-0.008,-0.006,-0.003,0.0,0.003,0.006,0.009000000000000001,0.012,0.013999999999999999,0.016,0.019,0.022000000000000002,0.026000000000000002,0.028999999999999998,0.033,0.036000000000000004,0.040999999999999995,0.045,0.05,0.055,0.06,0.064,0.07,0.075,0.08,0.086,0.092,0.098,0.10300000000000001,0.10800000000000001,0.11199999999999999,0.11599999999999999,0.121,0.125,0.128,0.13,0.132,0.133,0.134,0.134,0.133,0.133,0.131,0.13,0.128,0.127,0.125,0.12300000000000001,0.121,0.11800000000000001,0.115,0.11199999999999999,0.10800000000000001,0.10400000000000001,0.099,0.094,0.08900000000000001,0.083,0.078,0.07200000000000001,0.067,0.061,0.055999999999999994,0.051,0.047,0.042,0.038,0.035,0.03,0.026000000000000002,0.022000000000000002,0.018000000000000002,0.013999999999999999,0.011000000000000001,0.006999999999999999,0.003,-0.001,-0.004,-0.006999999999999999,-0.01,-0.012,-0.015,-0.016,-0.018000000000000002,-0.019,-0.02,-0.022000000000000002,-0.024,-0.025,-0.026000000000000002,-0.027000000000000003,-0.027000000000000003,-0.027000000000000003,-0.027000000000000003,-0.027999999999999997,-0.028999999999999998,-0.028999999999999998,-0.028999999999999998,-0.028999999999999998,-0.027999999999999997,-0.027000000000000003,-0.025,-0.023,-0.022000000000000002,-0.021,-0.02,-0.02,-0.02,-0.02,-0.02,-0.02,-0.019,-0.018000000000000002,-0.017,-0.016,-0.015,-0.013999999999999999,-0.013000000000000001,-0.013000000000000001,-0.012,-0.011000000000000001,-0.01,-0.009000000000000001,-0.009000000000000001,-0.008,-0.008,-0.008,-0.008,-0.006999999999999999,-0.006,-0.006,-0.005,-0.004,-0.004,-0.004,-0.004,-0.003,-0.003,-0.003,-0.002,-0.002,-0.002,-0.002,-0.002,-0.002,-0.002,-0.003,-0.003,-0.004,-0.004,-0.004,-0.005,-0.005,-0.005,-0.006,-0.006,-0.006,-0.006999999999999999,-0.008,-0.009000000000000001,-0.009000000000000001,-0.009000000000000001,-0.01,-0.011000000000000001,-0.011000000000000001,-0.012,-0.012,-0.013000000000000001,-0.013000000000000001,-0.013000000000000001,-0.013999999999999999,-0.013999999999999999,-0.013999999999999999,-0.015,-0.015,-0.015,-0.016,-0.016,-0.018000000000000002,-0.019,-0.019,-0.02,-0.02,-0.019,-0.019,-0.019,-0.02,-0.02,-0.02,-0.02,-0.02,-0.02,-0.019,-0.018000000000000002,-0.015,-0.012,-0.006999999999999999,-0.003,0.001,0.006,0.008,0.011000000000000001,0.013000000000000001,0.013999999999999999,0.016,0.018000000000000002,0.021,0.025,0.028999999999999998,0.033,0.039,0.044000000000000004,0.05,0.055,0.057999999999999996,0.062,0.062,0.063,0.06,0.057999999999999996,0.054000000000000006,0.049,0.043,0.037000000000000005,0.032,0.026000000000000002,0.02,0.015,0.009000000000000001,0.004,-0.001,-0.006999999999999999,-0.012,-0.017,-0.021,-0.026000000000000002,-0.03,-0.034,-0.037000000000000005,-0.04,-0.042,-0.044000000000000004,-0.044000000000000004,-0.045,-0.045,-0.046,-0.045,-0.044000000000000004,-0.044000000000000004,-0.044000000000000004,N
8,-0.076,-0.075,-0.07400000000000001,-0.075,-0.076,-0.078,-0.08,-0.081,-0.08199999999999999,-0.083,-0.083,-0.08199999999999999,-0.081,-0.08,-0.078,-0.076,-0.07400000000000001,-0.07200000000000001,-0.07,-0.068,-0.066,-0.063,-0.061,-0.059000000000000004,-0.057,-0.055999999999999994,-0.054000000000000006,-0.053,-0.051,-0.049,-0.046,-0.044000000000000004,-0.042,-0.04,-0.039,-0.037000000000000005,-0.035,-0.034,-0.033,-0.032,-0.03,-0.028999999999999998,-0.027000000000000003,-0.025,-0.023,-0.021,-0.019,-0.016,-0.013000000000000001,-0.01,-0.006,-0.003,0.0,0.004,0.006999999999999999,0.011000000000000001,0.015,0.018000000000000002,0.02,0.023,0.025,0.027999999999999997,0.031,0.035,0.038,0.042,0.047,0.052000000000000005,0.057,0.062,0.067,0.07200000000000001,0.077,0.08199999999999999,0.08800000000000001,0.094,0.10099999999999999,0.106,0.111,0.115,0.11900000000000001,0.121,0.12300000000000001,0.12300000000000001,0.12300000000000001,0.12300000000000001,0.122,0.121,0.12,0.11800000000000001,0.115,0.113,0.11,0.10800000000000001,0.105,0.10300000000000001,0.10099999999999999,0.09699999999999999,0.092,0.08800000000000001,0.084,0.079,0.075,0.07,0.066,0.062,0.057999999999999996,0.054000000000000006,0.049,0.045,0.04,0.036000000000000004,0.032,0.027999999999999997,0.023,0.019,0.015,0.011000000000000001,0.008,0.004,0.001,-0.002,-0.005,-0.006999999999999999,-0.01,-0.012,-0.013000000000000001,-0.015,-0.016,-0.017,-0.018000000000000002,-0.019,-0.02,-0.021,-0.023,-0.024,-0.025,-0.026000000000000002,-0.026000000000000002,-0.026000000000000002,-0.026000000000000002,-0.026000000000000002,-0.025,-0.024,-0.023,-0.022000000000000002,-0.021,-0.02,-0.019,-0.018000000000000002,-0.017,-0.016,-0.015,-0.015,-0.015,-0.015,-0.015,-0.013999999999999999,-0.013000000000000001,-0.012,-0.011000000000000001,-0.009000000000000001,-0.008,-0.006999999999999999,-0.006,-0.006,-0.005,-0.005,-0.005,-0.004,-0.004,-0.003,-0.003,-0.003,-0.003,-0.002,-0.002,-0.001,-0.001,-0.001,-0.002,-0.002,-0.002,-0.001,-0.001,-0.0,0.0,0.0,0.0,0.0,0.001,0.001,0.002,0.002,0.002,0.002,0.002,0.002,0.002,0.002,0.002,0.002,0.002,0.002,0.002,0.002,0.002,0.002,0.002,0.002,0.001,0.001,0.0,-0.001,-0.002,-0.002,-0.003,-0.004,-0.004,-0.005,-0.005,-0.006,-0.006999999999999999,-0.008,-0.009000000000000001,-0.009000000000000001,-0.009000000000000001,-0.009000000000000001,-0.009000000000000001,-0.009000000000000001,-0.009000000000000001,-0.01,-0.011000000000000001,-0.011000000000000001,-0.012,-0.012,-0.012,-0.011000000000000001,-0.011000000000000001,-0.008,-0.006,-0.003,0.001,0.006,0.01,0.013999999999999999,0.018000000000000002,0.02,0.023,0.025,0.026000000000000002,0.028999999999999998,0.031,0.034,0.037000000000000005,0.042,0.046,0.052000000000000005,0.057,0.062,0.066,0.068,0.07,0.07,0.069,0.066,0.063,0.057999999999999996,0.053,0.048,0.042,0.036000000000000004,0.028999999999999998,0.023,0.017,0.011000000000000001,0.006,0.001,-0.004,-0.008,-0.013000000000000001,-0.017,-0.021,-0.024,-0.027000000000000003,-0.03,-0.032,-0.034,-0.036000000000000004,-0.036000000000000004,-0.037000000000000005,-0.037000000000000005,-0.037000000000000005,-0.037000000000000005,-0.037000000000000005,-0.037000000000000005,-0.037000000000000005,-0.038,-0.039,-0.039,-0.039,-0.039,-0.039,-0.039,-0.039,-0.04,-0.04,-0.042,-0.043,-0.046,-0.049,-0.054000000000000006,-0.059000000000000004,-0.065,-0.071,-0.073,-0.07400000000000001,-0.062,-0.05,-0.016,0.017,0.07400000000000001,0.13,0.201,0.271,0.336,0.401,0.43700000000000006,0.473,0.46399999999999997,0.456,0.408,0.36,0.29100000000000004,0.223,0.158,0.092,0.045,-0.002,-0.027999999999999997,-0.054000000000000006,-0.064,-0.075,-0.078,-0.081,-0.08199999999999999,-0.08199999999999999,-0.08199999999999999,-0.081,-0.08,-0.08,-0.079,-0.079,-0.079,-0.08,-0.08,-0.081,-0.081,-0.081,-0.081,-0.081,-0.08,-0.079,-0.078,-0.077,-0.076,-0.075,-0.073,-0.07200000000000001,-0.07,-0.068,-0.066,-0.064,-0.061,-0.059000000000000004,-0.057,-0.055999999999999994,-0.054000000000000006,-0.051,-0.049,-0.047,-0.044000000000000004,-0.042,-0.039,-0.037000000000000005,-0.036000000000000004,-0.034,-0.032,-0.028999999999999998,-0.027000000000000003,-0.024,-0.022000000000000002,-0.019,-0.017,-0.015,-0.013000000000000001,-0.011000000000000001,-0.008,-0.006,-0.003,0.0,0.003,0.006,0.009000000000000001,0.012,0.013999999999999999,0.016,0.019,0.022000000000000002,0.026000000000000002,0.028999999999999998,0.033,0.036000000000000004,0.040999999999999995,0.045,0.05,0.055,0.06,0.064,0.07,0.075,0.08,0.086,0.092,0.098,0.10300000000000001,0.10800000000000001,0.11199999999999999,0.11599999999999999,0.121,0.125,0.128,0.13,0.132,0.133,0.134,0.134,0.133,0.133,0.131,0.13,0.128,0.127,0.125,0.12300000000000001,0.121,0.11800000000000001,0.115,0.11199999999999999,0.10800000000000001,0.10400000000000001,0.099,0.094,0.08900000000000001,0.083,0.078,0.07200000000000001,0.067,0.061,0.055999999999999994,0.051,0.047,0.042,0.038,0.035,0.03,0.026000000000000002,0.022000000000000002,0.018000000000000002,0.013999999999999999,0.011000000000000001,0.006999999999999999,0.003,-0.001,-0.004,-0.006999999999999999,-0.01,-0.012,-0.015,-0.016,-0.018000000000000002,-0.019,-0.02,-0.022000000000000002,-0.024,-0.025,-0.026000000000000002,-0.027000000000000003,-0.027000000000000003,-0.027000000000000003,-0.027000000000000003,-0.027999999999999997,-0.028999999999999998,-0.028999999999999998,-0.028999999999999998,-0.028999999999999998,-0.027999999999999997,-0.027000000000000003,-0.025,-0.023,-0.022000000000000002,-0.021,-0.02,-0.02,-0.02,-0.02,-0.02,-0.02,-0.019,-0.018000000000000002,-0.017,-0.016,-0.015,-0.013999999999999999,-0.013000000000000001,-0.013000000000000001,-0.012,-0.011000000000000001,-0.01,-0.009000000000000001,-0.009000000000000001,-0.008,-0.008,-0.008,-0.008,-0.006999999999999999,-0.006,-0.006,-0.005,-0.004,-0.004,-0.004,-0.004,-0.003,-0.003,-0.003,-0.002,-0.002,-0.002,-0.002,-0.002,-0.002,-0.002,-0.003,-0.003,-0.004,-0.004,-0.004,-0.005,-0.005,-0.005,-0.006,-0.006,-0.006,-0.006999999999999999,-0.008,-0.009000000000000001,-0.009000000000000001,-0.009000000000000001,-0.01,-0.011000000000000001,-0.011000000000000001,-0.012,-0.012,-0.013000000000000001,-0.013000000000000001,-0.013000000000000001,-0.013999999999999999,-0.013999999999999999,-0.013999999999999999,-0.015,-0.015,-0.015,-0.016,-0.016,-0.018000000000000002,-0.019,-0.019,-0.02,-0.02,-0.019,-0.019,-0.019,-0.02,-0.02,-0.02,-0.02,-0.02,-0.02,-0.019,-0.018000000000000002,-0.015,-0.012,-0.006999999999999999,-0.003,0.001,0.006,0.008,0.011000000000000001,0.013000000000000001,0.013999999999999999,0.016,0.018000000000000002,0.021,0.025,0.028999999999999998,0.033,0.039,0.044000000000000004,0.05,0.055,0.057999999999999996,0.062,0.062,0.063,0.06,0.057999999999999996,0.054000000000000006,0.049,0.043,0.037000000000000005,0.032,0.026000000000000002,0.02,0.015,0.009000000000000001,0.004,-0.001,-0.006999999999999999,-0.012,-0.017,-0.021,-0.026000000000000002,-0.03,-0.034,-0.037000000000000005,-0.04,-0.042,-0.044000000000000004,-0.044000000000000004,-0.045,-0.045,-0.046,-0.045,-0.044000000000000004,-0.044000000000000004,-0.044000000000000004,-0.044000000000000004,-0.044000000000000004,-0.045,-0.046,-0.045,-0.045,-0.045,-0.045,-0.045,-0.044000000000000004,-0.044000000000000004,-0.044000000000000004,-0.045,-0.047,-0.051,-0.055999999999999994,-0.063,-0.069,-0.073,-0.077,-0.07200000000000001,-0.067,-0.044000000000000004,-0.02,0.027000000000000003,0.07400000000000001,0.142,0.209,0.28,0.35,0.402,0.45299999999999996,0.466,0.479,0.447,0.41600000000000004,0.354,0.29100000000000004,0.22,0.149,0.08900000000000001,0.03,-0.008,-0.047,-0.066,-0.084,-0.091,-0.09699999999999999,-0.09699999999999999,-0.098,-0.096,-0.095,-0.09300000000000001,-0.091,-0.08900000000000001,-0.087,-0.087,-0.087,-0.087,-0.087,-0.087,-0.08800000000000001,-0.087,-0.087,-0.086,-0.085,-0.084,-0.08199999999999999,-0.081,-0.08,-0.079,-0.078,-0.076,-0.075,-0.073,-0.07200000000000001,-0.07,-0.068,-0.066,-0.064,-0.062,-0.06,-0.057999999999999996,-0.057,-0.055,-0.053,-0.051,-0.048,-0.045,-0.042,-0.04,-0.037000000000000005,-0.035,-0.033,-0.031,-0.028999999999999998,-0.027000000000000003,-0.025,-0.023,-0.02,-0.018000000000000002,-0.016,-0.013999999999999999,-0.012,-0.01,-0.006999999999999999,-0.004,-0.002,0.001,0.004,0.006,0.009000000000000001,0.012,0.015,0.018000000000000002,0.022000000000000002,0.026000000000000002,0.031,0.036000000000000004,0.040999999999999995,0.046,0.051,0.057,0.062,0.068,0.073,0.078,0.084,0.08900000000000001,0.094,0.1,0.105,0.11,0.114,0.11800000000000001,0.121,0.12300000000000001,0.124,0.125,0.125,0.125,0.125,0.125,0.125,0.12300000000000001,0.122,0.12,0.11699999999999999,0.114,0.111,0.107,0.10400000000000001,0.1,0.096,0.092,0.08800000000000001,0.084,0.08,0.075,0.07,0.065,0.06,0.054000000000000006,0.049,0.044000000000000004,0.039,0.034,0.03,0.025,0.02,0.016,0.012,0.009000000000000001,0.006,0.002,-0.001,-0.005,-0.008,-0.011000000000000001,-0.015,-0.018000000000000002,-0.02,-0.023,-0.025,-0.027000000000000003,-0.028999999999999998,-0.03,-0.031,-0.032,-0.033,-0.034,-0.035,-0.036000000000000004,-0.036000000000000004,-0.037000000000000005,-0.037000000000000005,-0.037000000000000005,-0.037000000000000005,-0.037000000000000005,-0.037000000000000005,-0.037000000000000005,-0.036000000000000004,-0.036000000000000004,-0.035,-0.035,-0.034,-0.033,-0.032,-0.031,-0.03,-0.028999999999999998,-0.027999999999999997,-0.027000000000000003,-0.027000000000000003,-0.025,-0.024,-0.023,-0.022000000000000002,-0.021,-0.02,-0.019,-0.018000000000000002,-0.017,-0.016,-0.015,-0.013999999999999999,-0.013999999999999999,-0.013000000000000001,-0.013000000000000001,-0.013000000000000001,-0.013000000000000001,-0.012,-0.012,-0.011000000000000001,-0.011000000000000001,-0.011000000000000001,-0.011000000000000001,-0.011000000000000001,-0.011000000000000001,-0.011000000000000001,-0.01,-0.009000000000000001,-0.009000000000000001,-0.009000000000000001,-0.008,-0.008,-0.008,-0.008,-0.008,-0.008,-0.008,-0.008,-0.009000000000000001,-0.009000000000000001,-0.01,-0.011000000000000001,-0.011000000000000001,-0.012,-0.013000000000000001,-0.015,-0.016,-0.016,-0.017,-0.017,-0.018000000000000002,-0.018000000000000002,-0.019,-0.02,-0.021,-0.022000000000000002,-0.023,-0.023,-0.024,-0.025,-0.025,-0.025,-0.026000000000000002,-0.026000000000000002,-0.027000000000000003,-0.027999999999999997,-0.028999999999999998,-0.028999999999999998,-0.03,-0.032,-0.032,-0.033,-0.034,-0.034,-0.034,-0.033,-0.034,-0.034,-0.034,-0.033,-0.031,-0.028999999999999998,-0.026000000000000002,-0.022000000000000002,-0.019,-0.015,-0.011000000000000001,-0.008,-0.004,-0.001,0.001,0.004,0.005,0.006999999999999999,0.009000000000000001,0.012,0.015,0.019,0.023,0.027000000000000003,0.032,0.036000000000000004,0.039,0.042,0.043,0.044000000000000004,0.044000000000000004,0.043,0.04,0.037000000000000005,0.031,0.026000000000000002,0.02,0.015,0.009000000000000001,0.004,-0.001,-0.006999999999999999,-0.012,-0.017,-0.022000000000000002,-0.026000000000000002,-0.032,-0.037000000000000005,-0.040999999999999995,-0.046,-0.049,-0.051,-0.053,-0.054000000000000006,-0.054000000000000006,-0.054000000000000006,-0.055,-0.055999999999999994,-0.055999999999999994,-0.055999999999999994,-0.055999999999999994,-0.055999999999999994,-0.055999999999999994,N
9,-0.079,-0.079,-0.079,-0.08,-0.08,-0.081,-0.081,-0.081,-0.081,-0.081,-0.08,-0.079,-0.078,-0.077,-0.076,-0.075,-0.073,-0.07200000000000001,-0.07,-0.068,-0.066,-0.064,-0.061,-0.059000000000000004,-0.057,-0.055999999999999994,-0.054000000000000006,-0.051,-0.049,-0.047,-0.044000000000000004,-0.042,-0.039,-0.037000000000000005,-0.036000000000000004,-0.034,-0.032,-0.028999999999999998,-0.027000000000000003,-0.024,-0.022000000000000002,-0.019,-0.017,-0.015,-0.013000000000000001,-0.011000000000000001,-0.008,-0.006,-0.003,0.0,0.003,0.006,0.009000000000000001,0.012,0.013999999999999999,0.016,0.019,0.022000000000000002,0.026000000000000002,0.028999999999999998,0.033,0.036000000000000004,0.040999999999999995,0.045,0.05,0.055,0.06,0.064,0.07,0.075,0.08,0.086,0.092,0.098,0.10300000000000001,0.10800000000000001,0.11199999999999999,0.11599999999999999,0.121,0.125,0.128,0.13,0.132,0.133,0.134,0.134,0.133,0.133,0.131,0.13,0.128,0.127,0.125,0.12300000000000001,0.121,0.11800000000000001,0.115,0.11199999999999999,0.10800000000000001,0.10400000000000001,0.099,0.094,0.08900000000000001,0.083,0.078,0.07200000000000001,0.067,0.061,0.055999999999999994,0.051,0.047,0.042,0.038,0.035,0.03,0.026000000000000002,0.022000000000000002,0.018000000000000002,0.013999999999999999,0.011000000000000001,0.006999999999999999,0.003,-0.001,-0.004,-0.006999999999999999,-0.01,-0.012,-0.015,-0.016,-0.018000000000000002,-0.019,-0.02,-0.022000000000000002,-0.024,-0.025,-0.026000000000000002,-0.027000000000000003,-0.027000000000000003,-0.027000000000000003,-0.027000000000000003,-0.027999999999999997,-0.028999999999999998,-0.028999999999999998,-0.028999999999999998,-0.028999999999999998,-0.027999999999999997,-0.027000000000000003,-0.025,-0.023,-0.022000000000000002,-0.021,-0.02,-0.02,-0.02,-0.02,-0.02,-0.02,-0.019,-0.018000000000000002,-0.017,-0.016,-0.015,-0.013999999999999999,-0.013000000000000001,-0.013000000000000001,-0.012,-0.011000000000000001,-0.01,-0.009000000000000001,-0.009000000000000001,-0.008,-0.008,-0.008,-0.008,-0.006999999999999999,-0.006,-0.006,-0.005,-0.004,-0.004,-0.004,-0.004,-0.003,-0.003,-0.003,-0.002,-0.002,-0.002,-0.002,-0.002,-0.002,-0.002,-0.003,-0.003,-0.004,-0.004,-0.004,-0.005,-0.005,-0.005,-0.006,-0.006,-0.006,-0.006999999999999999,-0.008,-0.009000000000000001,-0.009000000000000001,-0.009000000000000001,-0.01,-0.011000000000000001,-0.011000000000000001,-0.012,-0.012,-0.013000000000000001,-0.013000000000000001,-0.013000000000000001,-0.013999999999999999,-0.013999999999999999,-0.013999999999999999,-0.015,-0.015,-0.015,-0.016,-0.016,-0.018000000000000002,-0.019,-0.019,-0.02,-0.02,-0.019,-0.019,-0.019,-0.02,-0.02,-0.02,-0.02,-0.02,-0.02,-0.019,-0.018000000000000002,-0.015,-0.012,-0.006999999999999999,-0.003,0.001,0.006,0.008,0.011000000000000001,0.013000000000000001,0.013999999999999999,0.016,0.018000000000000002,0.021,0.025,0.028999999999999998,0.033,0.039,0.044000000000000004,0.05,0.055,0.057999999999999996,0.062,0.062,0.063,0.06,0.057999999999999996,0.054000000000000006,0.049,0.043,0.037000000000000005,0.032,0.026000000000000002,0.02,0.015,0.009000000000000001,0.004,-0.001,-0.006999999999999999,-0.012,-0.017,-0.021,-0.026000000000000002,-0.03,-0.034,-0.037000000000000005,-0.04,-0.042,-0.044000000000000004,-0.044000000000000004,-0.045,-0.045,-0.046,-0.045,-0.044000000000000004,-0.044000000000000004,-0.044000000000000004,-0.044000000000000004,-0.044000000000000004,-0.045,-0.046,-0.045,-0.045,-0.045,-0.045,-0.045,-0.044000000000000004,-0.044000000000000004,-0.044000000000000004,-0.045,-0.047,-0.051,-0.055999999999999994,-0.063,-0.069,-0.073,-0.077,-0.07200000000000001,-0.067,-0.044000000000000004,-0.02,0.027000000000000003,0.07400000000000001,0.142,0.209,0.28,0.35,0.402,0.45299999999999996,0.466,0.479,0.447,0.41600000000000004,0.354,0.29100000000000004,0.22,0.149,0.08900000000000001,0.03,-0.008,-0.047,-0.066,-0.084,-0.091,-0.09699999999999999,-0.09699999999999999,-0.098,-0.096,-0.095,-0.09300000000000001,-0.091,-0.08900000000000001,-0.087,-0.087,-0.087,-0.087,-0.087,-0.087,-0.08800000000000001,-0.087,-0.087,-0.086,-0.085,-0.084,-0.08199999999999999,-0.081,-0.08,-0.079,-0.078,-0.076,-0.075,-0.073,-0.07200000000000001,-0.07,-0.068,-0.066,-0.064,-0.062,-0.06,-0.057999999999999996,-0.057,-0.055,-0.053,-0.051,-0.048,-0.045,-0.042,-0.04,-0.037000000000000005,-0.035,-0.033,-0.031,-0.028999999999999998,-0.027000000000000003,-0.025,-0.023,-0.02,-0.018000000000000002,-0.016,-0.013999999999999999,-0.012,-0.01,-0.006999999999999999,-0.004,-0.002,0.001,0.004,0.006,0.009000000000000001,0.012,0.015,0.018000000000000002,0.022000000000000002,0.026000000000000002,0.031,0.036000000000000004,0.040999999999999995,0.046,0.051,0.057,0.062,0.068,0.073,0.078,0.084,0.08900000000000001,0.094,0.1,0.105,0.11,0.114,0.11800000000000001,0.121,0.12300000000000001,0.124,0.125,0.125,0.125,0.125,0.125,0.125,0.12300000000000001,0.122,0.12,0.11699999999999999,0.114,0.111,0.107,0.10400000000000001,0.1,0.096,0.092,0.08800000000000001,0.084,0.08,0.075,0.07,0.065,0.06,0.054000000000000006,0.049,0.044000000000000004,0.039,0.034,0.03,0.025,0.02,0.016,0.012,0.009000000000000001,0.006,0.002,-0.001,-0.005,-0.008,-0.011000000000000001,-0.015,-0.018000000000000002,-0.02,-0.023,-0.025,-0.027000000000000003,-0.028999999999999998,-0.03,-0.031,-0.032,-0.033,-0.034,-0.035,-0.036000000000000004,-0.036000000000000004,-0.037000000000000005,-0.037000000000000005,-0.037000000000000005,-0.037000000000000005,-0.037000000000000005,-0.037000000000000005,-0.037000000000000005,-0.036000000000000004,-0.036000000000000004,-0.035,-0.035,-0.034,-0.033,-0.032,-0.031,-0.03,-0.028999999999999998,-0.027999999999999997,-0.027000000000000003,-0.027000000000000003,-0.025,-0.024,-0.023,-0.022000000000000002,-0.021,-0.02,-0.019,-0.018000000000000002,-0.017,-0.016,-0.015,-0.013999999999999999,-0.013999999999999999,-0.013000000000000001,-0.013000000000000001,-0.013000000000000001,-0.013000000000000001,-0.012,-0.012,-0.011000000000000001,-0.011000000000000001,-0.011000000000000001,-0.011000000000000001,-0.011000000000000001,-0.011000000000000001,-0.011000000000000001,-0.01,-0.009000000000000001,-0.009000000000000001,-0.009000000000000001,-0.008,-0.008,-0.008,-0.008,-0.008,-0.008,-0.008,-0.008,-0.009000000000000001,-0.009000000000000001,-0.01,-0.011000000000000001,-0.011000000000000001,-0.012,-0.013000000000000001,-0.015,-0.016,-0.016,-0.017,-0.017,-0.018000000000000002,-0.018000000000000002,-0.019,-0.02,-0.021,-0.022000000000000002,-0.023,-0.023,-0.024,-0.025,-0.025,-0.025,-0.026000000000000002,-0.026000000000000002,-0.027000000000000003,-0.027999999999999997,-0.028999999999999998,-0.028999999999999998,-0.03,-0.032,-0.032,-0.033,-0.034,-0.034,-0.034,-0.033,-0.034,-0.034,-0.034,-0.033,-0.031,-0.028999999999999998,-0.026000000000000002,-0.022000000000000002,-0.019,-0.015,-0.011000000000000001,-0.008,-0.004,-0.001,0.001,0.004,0.005,0.006999999999999999,0.009000000000000001,0.012,0.015,0.019,0.023,0.027000000000000003,0.032,0.036000000000000004,0.039,0.042,0.043,0.044000000000000004,0.044000000000000004,0.043,0.04,0.037000000000000005,0.031,0.026000000000000002,0.02,0.015,0.009000000000000001,0.004,-0.001,-0.006999999999999999,-0.012,-0.017,-0.022000000000000002,-0.026000000000000002,-0.032,-0.037000000000000005,-0.040999999999999995,-0.046,-0.049,-0.051,-0.053,-0.054000000000000006,-0.054000000000000006,-0.054000000000000006,-0.055,-0.055999999999999994,-0.055999999999999994,-0.055999999999999994,-0.055999999999999994,-0.055999999999999994,-0.055999999999999994,-0.055999999999999994,-0.055999999999999994,-0.055999999999999994,-0.055999999999999994,-0.057,-0.057,-0.057999999999999996,-0.057999999999999996,-0.057999999999999996,-0.057999999999999996,-0.059000000000000004,-0.061,-0.064,-0.069,-0.07400000000000001,-0.08,-0.086,-0.08800000000000001,-0.09,-0.08,-0.07,-0.04,-0.009000000000000001,0.046,0.102,0.175,0.247,0.319,0.39,0.436,0.48200000000000004,0.486,0.49,0.45,0.41100000000000003,0.344,0.27699999999999997,0.20600000000000002,0.135,0.078,0.02,-0.016,-0.051,-0.069,-0.086,-0.091,-0.09699999999999999,-0.09699999999999999,-0.09699999999999999,-0.096,-0.094,-0.09300000000000001,-0.092,-0.091,-0.09,-0.09,-0.09,-0.091,-0.092,-0.09300000000000001,-0.094,-0.094,-0.095,-0.094,-0.094,-0.09300000000000001,-0.092,-0.092,-0.091,-0.08900000000000001,-0.087,-0.085,-0.083,-0.081,-0.079,-0.077,-0.075,-0.07400000000000001,-0.07200000000000001,-0.07,-0.069,-0.068,-0.067,-0.065,-0.063,-0.061,-0.06,-0.057999999999999996,-0.055999999999999994,-0.054000000000000006,-0.051,-0.049,-0.046,-0.043,-0.04,-0.038,-0.036000000000000004,-0.033,-0.03,-0.027999999999999997,-0.025,-0.023,-0.02,-0.018000000000000002,-0.016,-0.013999999999999999,-0.011000000000000001,-0.006999999999999999,-0.004,0.0,0.004,0.008,0.012,0.015,0.019,0.022000000000000002,0.025,0.028999999999999998,0.033,0.037000000000000005,0.042,0.048,0.054000000000000006,0.061,0.067,0.07200000000000001,0.078,0.084,0.08900000000000001,0.095,0.1,0.10400000000000001,0.10800000000000001,0.111,0.115,0.11599999999999999,0.11800000000000001,0.11900000000000001,0.12,0.12,0.12,0.11900000000000001,0.11900000000000001,0.11800000000000001,0.11599999999999999,0.114,0.11199999999999999,0.109,0.106,0.10300000000000001,0.1,0.096,0.092,0.08800000000000001,0.083,0.078,0.073,0.068,0.063,0.057999999999999996,0.054000000000000006,0.049,0.044000000000000004,0.039,0.035,0.03,0.026000000000000002,0.022000000000000002,0.018000000000000002,0.013999999999999999,0.011000000000000001,0.006999999999999999,0.004,0.0,-0.003,-0.006,-0.01,-0.013000000000000001,-0.016,-0.018000000000000002,-0.02,-0.023,-0.025,-0.027000000000000003,-0.028999999999999998,-0.03,-0.031,-0.032,-0.033,-0.034,-0.035,-0.036000000000000004,-0.037000000000000005,-0.038,-0.039,-0.039,-0.039,-0.039,-0.038,-0.037000000000000005,-0.036000000000000004,-0.035,-0.035,-0.034,-0.033,-0.033,-0.032,-0.031,-0.03,-0.03,-0.028999999999999998,-0.027999999999999997,-0.027000000000000003,-0.026000000000000002,-0.025,-0.024,-0.023,-0.022000000000000002,-0.021,-0.02,-0.019,-0.018000000000000002,-0.017,-0.016,-0.015,-0.013000000000000001,-0.012,-0.012,-0.011000000000000001,-0.011000000000000001,-0.01,-0.01,-0.009000000000000001,-0.009000000000000001,-0.009000000000000001,-0.008,-0.008,-0.008,-0.008,-0.008,-0.008,-0.008,-0.008,-0.009000000000000001,-0.009000000000000001,-0.01,-0.011000000000000001,-0.012,-0.013000000000000001,-0.013000000000000001,-0.013000000000000001,-0.013000000000000001,-0.012,-0.012,-0.012,-0.012,-0.012,-0.013000000000000001,-0.013000000000000001,-0.013999999999999999,-0.015,-0.016,-0.016,-0.017,-0.018000000000000002,-0.019,-0.02,-0.021,-0.022000000000000002,-0.022000000000000002,-0.022000000000000002,-0.023,-0.023,-0.024,-0.024,-0.024,-0.023,-0.024,-0.024,-0.025,-0.025,-0.025,-0.026000000000000002,-0.026000000000000002,-0.027000000000000003,-0.027000000000000003,-0.027000000000000003,-0.027999999999999997,-0.027999999999999997,-0.027999999999999997,-0.027999999999999997,-0.027999999999999997,-0.027999999999999997,-0.027000000000000003,-0.027000000000000003,-0.025,-0.023,-0.02,-0.018000000000000002,-0.013000000000000001,-0.009000000000000001,-0.005,-0.001,0.002,0.005,0.006,0.006999999999999999,0.008,0.009000000000000001,0.011000000000000001,0.012,0.016,0.019,0.023,0.027000000000000003,0.032,0.037000000000000005,0.040999999999999995,0.044000000000000004,0.045,0.047,0.045,0.044000000000000004,0.04,0.037000000000000005,0.032,0.027000000000000003,0.023,0.018000000000000002,0.013000000000000001,0.008,0.004,-0.001,-0.006,-0.011000000000000001,-0.015,-0.02,-0.025,-0.03,-0.034,-0.038,-0.040999999999999995,-0.044000000000000004,-0.046,-0.048,-0.049,-0.05,-0.05,-0.05,-0.049,-0.048,N
10,-0.08900000000000001,-0.087,-0.087,-0.087,-0.087,-0.087,-0.087,-0.08800000000000001,-0.087,-0.087,-0.086,-0.085,-0.084,-0.08199999999999999,-0.081,-0.08,-0.079,-0.078,-0.076,-0.075,-0.073,-0.07200000000000001,-0.07,-0.068,-0.066,-0.064,-0.062,-0.06,-0.057999999999999996,-0.057,-0.055,-0.053,-0.051,-0.048,-0.045,-0.042,-0.04,-0.037000000000000005,-0.035,-0.033,-0.031,-0.028999999999999998,-0.027000000000000003,-0.025,-0.023,-0.02,-0.018000000000000002,-0.016,-0.013999999999999999,-0.012,-0.01,-0.006999999999999999,-0.004,-0.002,0.001,0.004,0.006,0.009000000000000001,0.012,0.015,0.018000000000000002,0.022000000000000002,0.026000000000000002,0.031,0.036000000000000004,0.040999999999999995,0.046,0.051,0.057,0.062,0.068,0.073,0.078,0.084,0.08900000000000001,0.094,0.1,0.105,0.11,0.114,0.11800000000000001,0.121,0.12300000000000001,0.124,0.125,0.125,0.125,0.125,0.125,0.125,0.12300000000000001,0.122,0.12,0.11699999999999999,0.114,0.111,0.107,0.10400000000000001,0.1,0.096,0.092,0.08800000000000001,0.084,0.08,0.075,0.07,0.065,0.06,0.054000000000000006,0.049,0.044000000000000004,0.039,0.034,0.03,0.025,0.02,0.016,0.012,0.009000000000000001,0.006,0.002,-0.001,-0.005,-0.008,-0.011000000000000001,-0.015,-0.018000000000000002,-0.02,-0.023,-0.025,-0.027000000000000003,-0.028999999999999998,-0.03,-0.031,-0.032,-0.033,-0.034,-0.035,-0.036000000000000004,-0.036000000000000004,-0.037000000000000005,-0.037000000000000005,-0.037000000000000005,-0.037000000000000005,-0.037000000000000005,-0.037000000000000005,-0.037000000000000005,-0.036000000000000004,-0.036000000000000004,-0.035,-0.035,-0.034,-0.033,-0.032,-0.031,-0.03,-0.028999999999999998,-0.027999999999999997,-0.027000000000000003,-0.027000000000000003,-0.025,-0.024,-0.023,-0.022000000000000002,-0.021,-0.02,-0.019,-0.018000000000000002,-0.017,-0.016,-0.015,-0.013999999999999999,-0.013999999999999999,-0.013000000000000001,-0.013000000000000001,-0.013000000000000001,-0.013000000000000001,-0.012,-0.012,-0.011000000000000001,-0.011000000000000001,-0.011000000000000001,-0.011000000000000001,-0.011000000000000001,-0.011000000000000001,-0.011000000000000001,-0.01,-0.009000000000000001,-0.009000000000000001,-0.009000000000000001,-0.008,-0.008,-0.008,-0.008,-0.008,-0.008,-0.008,-0.008,-0.009000000000000001,-0.009000000000000001,-0.01,-0.011000000000000001,-0.011000000000000001,-0.012,-0.013000000000000001,-0.015,-0.016,-0.016,-0.017,-0.017,-0.018000000000000002,-0.018000000000000002,-0.019,-0.02,-0.021,-0.022000000000000002,-0.023,-0.023,-0.024,-0.025,-0.025,-0.025,-0.026000000000000002,-0.026000000000000002,-0.027000000000000003,-0.027999999999999997,-0.028999999999999998,-0.028999999999999998,-0.03,-0.032,-0.032,-0.033,-0.034,-0.034,-0.034,-0.033,-0.034,-0.034,-0.034,-0.033,-0.031,-0.028999999999999998,-0.026000000000000002,-0.022000000000000002,-0.019,-0.015,-0.011000000000000001,-0.008,-0.004,-0.001,0.001,0.004,0.005,0.006999999999999999,0.009000000000000001,0.012,0.015,0.019,0.023,0.027000000000000003,0.032,0.036000000000000004,0.039,0.042,0.043,0.044000000000000004,0.044000000000000004,0.043,0.04,0.037000000000000005,0.031,0.026000000000000002,0.02,0.015,0.009000000000000001,0.004,-0.001,-0.006999999999999999,-0.012,-0.017,-0.022000000000000002,-0.026000000000000002,-0.032,-0.037000000000000005,-0.040999999999999995,-0.046,-0.049,-0.051,-0.053,-0.054000000000000006,-0.054000000000000006,-0.054000000000000006,-0.055,-0.055999999999999994,-0.055999999999999994,-0.055999999999999994,-0.055999999999999994,-0.055999999999999994,-0.055999999999999994,-0.055999999999999994,-0.055999999999999994,-0.055999999999999994,-0.055999999999999994,-0.057,-0.057,-0.057999999999999996,-0.057999999999999996,-0.057999999999999996,-0.057999999999999996,-0.059000000000000004,-0.061,-0.064,-0.069,-0.07400000000000001,-0.08,-0.086,-0.08800000000000001,-0.09,-0.08,-0.07,-0.04,-0.009000000000000001,0.046,0.102,0.175,0.247,0.319,0.39,0.436,0.48200000000000004,0.486,0.49,0.45,0.41100000000000003,0.344,0.27699999999999997,0.20600000000000002,0.135,0.078,0.02,-0.016,-0.051,-0.069,-0.086,-0.091,-0.09699999999999999,-0.09699999999999999,-0.09699999999999999,-0.096,-0.094,-0.09300000000000001,-0.092,-0.091,-0.09,-0.09,-0.09,-0.091,-0.092,-0.09300000000000001,-0.094,-0.094,-0.095,-0.094,-0.094,-0.09300000000000001,-0.092,-0.092,-0.091,-0.08900000000000001,-0.087,-0.085,-0.083,-0.081,-0.079,-0.077,-0.075,-0.07400000000000001,-0.07200000000000001,-0.07,-0.069,-0.068,-0.067,-0.065,-0.063,-0.061,-0.06,-0.057999999999999996,-0.055999999999999994,-0.054000000000000006,-0.051,-0.049,-0.046,-0.043,-0.04,-0.038,-0.036000000000000004,-0.033,-0.03,-0.027999999999999997,-0.025,-0.023,-0.02,-0.018000000000000002,-0.016,-0.013999999999999999,-0.011000000000000001,-0.006999999999999999,-0.004,0.0,0.004,0.008,0.012,0.015,0.019,0.022000000000000002,0.025,0.028999999999999998,0.033,0.037000000000000005,0.042,0.048,0.054000000000000006,0.061,0.067,0.07200000000000001,0.078,0.084,0.08900000000000001,0.095,0.1,0.10400000000000001,0.10800000000000001,0.111,0.115,0.11599999999999999,0.11800000000000001,0.11900000000000001,0.12,0.12,0.12,0.11900000000000001,0.11900000000000001,0.11800000000000001,0.11599999999999999,0.114,0.11199999999999999,0.109,0.106,0.10300000000000001,0.1,0.096,0.092,0.08800000000000001,0.083,0.078,0.073,0.068,0.063,0.057999999999999996,0.054000000000000006,0.049,0.044000000000000004,0.039,0.035,0.03,0.026000000000000002,0.022000000000000002,0.018000000000000002,0.013999999999999999,0.011000000000000001,0.006999999999999999,0.004,0.0,-0.003,-0.006,-0.01,-0.013000000000000001,-0.016,-0.018000000000000002,-0.02,-0.023,-0.025,-0.027000000000000003,-0.028999999999999998,-0.03,-0.031,-0.032,-0.033,-0.034,-0.035,-0.036000000000000004,-0.037000000000000005,-0.038,-0.039,-0.039,-0.039,-0.039,-0.038,-0.037000000000000005,-0.036000000000000004,-0.035,-0.035,-0.034,-0.033,-0.033,-0.032,-0.031,-0.03,-0.03,-0.028999999999999998,-0.027999999999999997,-0.027000000000000003,-0.026000000000000002,-0.025,-0.024,-0.023,-0.022000000000000002,-0.021,-0.02,-0.019,-0.018000000000000002,-0.017,-0.016,-0.015,-0.013000000000000001,-0.012,-0.012,-0.011000000000000001,-0.011000000000000001,-0.01,-0.01,-0.009000000000000001,-0.009000000000000001,-0.009000000000000001,-0.008,-0.008,-0.008,-0.008,-0.008,-0.008,-0.008,-0.008,-0.009000000000000001,-0.009000000000000001,-0.01,-0.011000000000000001,-0.012,-0.013000000000000001,-0.013000000000000001,-0.013000000000000001,-0.013000000000000001,-0.012,-0.012,-0.012,-0.012,-0.012,-0.013000000000000001,-0.013000000000000001,-0.013999999999999999,-0.015,-0.016,-0.016,-0.017,-0.018000000000000002,-0.019,-0.02,-0.021,-0.022000000000000002,-0.022000000000000002,-0.022000000000000002,-0.023,-0.023,-0.024,-0.024,-0.024,-0.023,-0.024,-0.024,-0.025,-0.025,-0.025,-0.026000000000000002,-0.026000000000000002,-0.027000000000000003,-0.027000000000000003,-0.027000000000000003,-0.027999999999999997,-0.027999999999999997,-0.027999999999999997,-0.027999999999999997,-0.027999999999999997,-0.027999999999999997,-0.027000000000000003,-0.027000000000000003,-0.025,-0.023,-0.02,-0.018000000000000002,-0.013000000000000001,-0.009000000000000001,-0.005,-0.001,0.002,0.005,0.006,0.006999999999999999,0.008,0.009000000000000001,0.011000000000000001,0.012,0.016,0.019,0.023,0.027000000000000003,0.032,0.037000000000000005,0.040999999999999995,0.044000000000000004,0.045,0.047,0.045,0.044000000000000004,0.04,0.037000000000000005,0.032,0.027000000000000003,0.023,0.018000000000000002,0.013000000000000001,0.008,0.004,-0.001,-0.006,-0.011000000000000001,-0.015,-0.02,-0.025,-0.03,-0.034,-0.038,-0.040999999999999995,-0.044000000000000004,-0.046,-0.048,-0.049,-0.05,-0.05,-0.05,-0.049,-0.048,-0.047,-0.046,-0.046,-0.045,-0.045,-0.044000000000000004,-0.044000000000000004,-0.044000000000000004,-0.044000000000000004,-0.044000000000000004,-0.043,-0.043,-0.042,-0.040999999999999995,-0.042,-0.043,-0.047,-0.051,-0.057999999999999996,-0.064,-0.068,-0.071,-0.066,-0.06,-0.036000000000000004,-0.012,0.037000000000000005,0.086,0.155,0.225,0.298,0.371,0.424,0.47700000000000004,0.49,0.503,0.47100000000000003,0.44,0.376,0.312,0.23800000000000002,0.165,0.102,0.04,-0.001,-0.042,-0.061,-0.081,-0.08800000000000001,-0.094,-0.094,-0.094,-0.092,-0.09,-0.08800000000000001,-0.087,-0.085,-0.084,-0.083,-0.08199999999999999,-0.08199999999999999,-0.08199999999999999,-0.08199999999999999,-0.083,-0.083,-0.084,-0.083,-0.083,-0.08199999999999999,-0.081,-0.08,-0.079,-0.078,-0.076,-0.07400000000000001,-0.07200000000000001,-0.069,-0.067,-0.065,-0.063,-0.061,-0.059000000000000004,-0.057,-0.054000000000000006,-0.051,-0.048,-0.045,-0.042,-0.04,-0.037000000000000005,-0.035,-0.033,-0.031,-0.028999999999999998,-0.027000000000000003,-0.025,-0.023,-0.02,-0.019,-0.017,-0.016,-0.013999999999999999,-0.012,-0.01,-0.006999999999999999,-0.005,-0.002,0.001,0.003,0.006,0.009000000000000001,0.012,0.015,0.018000000000000002,0.021,0.025,0.027000000000000003,0.03,0.034,0.037000000000000005,0.043,0.048,0.054000000000000006,0.06,0.065,0.07,0.075,0.08,0.084,0.08900000000000001,0.09300000000000001,0.09699999999999999,0.1,0.10400000000000001,0.10800000000000001,0.111,0.115,0.11800000000000001,0.121,0.12300000000000001,0.125,0.126,0.126,0.126,0.126,0.126,0.125,0.12300000000000001,0.121,0.11900000000000001,0.11599999999999999,0.113,0.111,0.10800000000000001,0.10400000000000001,0.10099999999999999,0.09699999999999999,0.092,0.08800000000000001,0.083,0.078,0.073,0.068,0.064,0.06,0.055999999999999994,0.051,0.046,0.042,0.037000000000000005,0.033,0.028999999999999998,0.025,0.022000000000000002,0.018000000000000002,0.013000000000000001,0.01,0.006,0.004,0.001,-0.001,-0.004,-0.006,-0.008,-0.01,-0.012,-0.013999999999999999,-0.016,-0.018000000000000002,-0.02,-0.021,-0.023,-0.024,-0.025,-0.026000000000000002,-0.026000000000000002,-0.026000000000000002,-0.026000000000000002,-0.026000000000000002,-0.025,-0.024,-0.023,-0.023,-0.022000000000000002,-0.021,-0.02,-0.02,-0.02,-0.019,-0.019,-0.018000000000000002,-0.018000000000000002,-0.017,-0.016,-0.016,-0.015,-0.013999999999999999,-0.012,-0.012,-0.011000000000000001,-0.01,-0.009000000000000001,-0.008,-0.008,-0.006,-0.005,-0.004,-0.003,-0.002,-0.001,-0.001,-0.001,0.0,0.001,0.001,0.002,0.002,0.002,0.002,0.002,0.002,0.002,0.002,0.002,0.002,0.002,0.002,0.002,0.002,0.002,0.002,0.002,0.001,0.001,0.001,0.0,-0.001,-0.002,-0.003,-0.004,-0.004,-0.005,-0.006,-0.006,-0.006,-0.006,-0.006999999999999999,-0.008,-0.009000000000000001,-0.01,-0.01,-0.011000000000000001,-0.011000000000000001,-0.011000000000000001,-0.011000000000000001,-0.011000000000000001,-0.011000000000000001,-0.012,-0.012,-0.013000000000000001,-0.013000000000000001,-0.013000000000000001,-0.013000000000000001,-0.013000000000000001,-0.013999999999999999,-0.015,-0.015,-0.015,-0.015,-0.013999999999999999,-0.013999999999999999,-0.013999999999999999,-0.013999999999999999,-0.013999999999999999,-0.013999999999999999,-0.013000000000000001,-0.012,-0.011000000000000001,-0.008,-0.005,-0.002,0.002,0.005,0.009000000000000001,0.011000000000000001,0.013999999999999999,0.016,0.018000000000000002,0.019,0.02,0.022000000000000002,0.024,0.027000000000000003,0.028999999999999998,0.033,0.036000000000000004,0.040999999999999995,0.046,0.049,0.053,0.055999999999999994,0.057999999999999996,0.057999999999999996,0.057999999999999996,0.055,0.052000000000000005,0.047,0.042,0.036000000000000004,0.03,0.024,0.019,0.013999999999999999,0.009000000000000001,0.004,0.0,-0.004,-0.008,-0.012,-0.015,-0.019,-0.023,-0.026000000000000002,-0.028999999999999998,-0.031,-0.033,-0.034,-0.035,-0.036000000000000004,-0.036000000000000004,N
