0,-0.065,-0.065,-0.054000000000000006,-0.043,-0.043,-0.032,-0.032,-0.043,-0.043,-0.054000000000000006,-0.054000000000000006,-0.043,-0.032,-0.032,-0.032,-0.032,-0.043,-0.043,-0.043,-0.043,-0.032,-0.032,-0.032,-0.032,-0.043,-0.043,-0.043,-0.043,-0.032,-0.032,-0.032,-0.032,-0.043,-0.043,-0.054000000000000006,-0.043,-0.043,-0.032,-0.032,-0.032,-0.043,-0.043,-0.054000000000000006,-0.054000000000000006,-0.043,-0.043,-0.032,-0.032,-0.043,-0.043,-0.054000000000000006,-0.054000000000000006,-0.054000000000000006,-0.043,-0.043,-0.032,-0.043,-0.043,-0.054000000000000006,-0.054000000000000006,-0.054000000000000006,-0.043,-0.032,-0.032,-0.032,-0.032,-0.043,-0.043,-0.032,-0.032,-0.032,-0.032,-0.032,-0.032,-0.032,-0.032,-0.043,-0.032,-0.032,-0.021,-0.021,-0.021,-0.032,-0.032,-0.032,-0.032,-0.021,-0.021,-0.021,-0.021,-0.021,-0.032,-0.032,-0.032,-0.032,-0.021,-0.021,-0.021,-0.021,-0.032,-0.032,-0.032,-0.032,-0.032,-0.021,-0.021,-0.021,-0.032,-0.032,-0.032,-0.032,-0.032,-0.032,-0.021,-0.021,-0.032,-0.032,-0.043,-0.032,-0.032,-0.032,-0.021,-0.021,-0.021,-0.032,-0.032,-0.032,-0.032,-0.032,-0.021,-0.021,-0.021,-0.032,-0.032,-0.032,-0.032,-0.021,-0.01,-0.01,-0.01,-0.021,-0.021,-0.021,-0.021,-0.021,-0.01,0.001,0.001,-0.01,-0.01,-0.021,-0.01,-0.01,-0.01,0.001,0.001,0.001,0.001,-0.01,-0.01,-0.01,0.001,0.001,0.001,0.001,0.001,0.001,-0.01,-0.01,0.001,0.001,0.001,0.001,0.001,0.001,0.001,-0.01,0.001,0.001,0.001,0.001,0.001,0.001,0.001,0.001,0.001,0.001,0.001,0.001,0.001,0.001,0.001,0.001,0.001,0.001,0.001,0.001,0.011000000000000001,0.001,0.001,0.001,0.001,0.001,0.001,0.011000000000000001,0.011000000000000001,0.011000000000000001,0.001,0.001,0.001,0.001,0.001,0.011000000000000001,0.011000000000000001,0.011000000000000001,0.011000000000000001,0.001,0.001,0.001,0.001,0.011000000000000001,0.011000000000000001,0.011000000000000001,0.011000000000000001,0.001,0.001,0.001,0.001,0.001,0.011000000000000001,0.011000000000000001,0.011000000000000001,0.001,0.001,0.001,0.001,0.011000000000000001,0.011000000000000001,0.011000000000000001,0.011000000000000001,0.011000000000000001,0.001,0.001,0.001,0.001,0.011000000000000001,0.011000000000000001,0.011000000000000001,0.011000000000000001,0.001,0.001,0.001,0.001,0.001,0.011000000000000001,0.011000000000000001,0.011000000000000001,0.001,0.001,0.001,0.001,0.001,0.011000000000000001,0.011000000000000001,0.011000000000000001,0.001,0.001,0.001,0.001,0.001,0.011000000000000001,0.011000000000000001,0.011000000000000001,0.001,0.001,0.001,0.001,0.001,0.001,0.011000000000000001,0.011000000000000001,0.011000000000000001,0.001,0.001,0.001,0.001,0.001,0.011000000000000001,0.011000000000000001,0.011000000000000001,0.001,0.001,0.001,0.001,0.001,0.001,0.011000000000000001,0.011000000000000001,0.001,0.001,0.001,0.001,0.001,0.001,0.011000000000000001,0.011000000000000001,0.011000000000000001,0.001,0.001,0.001,0.001,0.011000000000000001,0.011000000000000001,0.022000000000000002,0.022000000000000002,0.022000000000000002,0.011000000000000001,0.011000000000000001,0.011000000000000001,0.011000000000000001,0.011000000000000001,0.022000000000000002,0.011000000000000001,0.011000000000000001,0.011000000000000001,0.001,0.011000000000000001,0.011000000000000001,0.011000000000000001,0.022000000000000002,0.022000000000000002,0.022000000000000002,0.011000000000000001,0.011000000000000001,0.001,0.001,0.011000000000000001,0.011000000000000001,0.011000000000000001,0.011000000000000001,0.001,0.001,0.001,0.001,0.001,0.001,0.001,-0.01,-0.01,-0.021,-0.021,-0.021,-0.021,-0.01,-0.01,-0.01,-0.01,-0.01,-0.021,-0.021,-0.021,-0.01,-0.01,0.001,0.001,0.001,0.001,0.001,0.011000000000000001,0.011000000000000001,0.034,0.034,0.044000000000000004,0.055999999999999994,0.08800000000000001,0.154,0.22,0.308,0.396,0.47200000000000003,0.527,0.5489999999999999,0.56,0.5489999999999999,0.527,0.494,0.451,0.396,0.308,0.22,0.133,0.055999999999999994,0.001,-0.032,-0.076,-0.098,-0.098,-0.098,-0.087,-0.087,-0.098,-0.087,-0.087,-0.076,-0.076,-0.065,-0.065,-0.065,-0.065,-0.065,-0.065,-0.054000000000000006,-0.054000000000000006,-0.054000000000000006,-0.054000000000000006,-0.054000000000000006,-0.054000000000000006,-0.065,-0.054000000000000006,-0.054000000000000006,-0.054000000000000006,-0.043,-0.043,-0.043,-0.054000000000000006,-0.054000000000000006,-0.065,-0.065,-0.054000000000000006,-0.054000000000000006,-0.054000000000000006,-0.054000000000000006,-0.054000000000000006,-0.065,-0.065,-0.065,-0.065,-0.054000000000000006,-0.054000000000000006,-0.054000000000000006,-0.054000000000000006,-0.054000000000000006,-0.065,-0.065,-0.054000000000000006,-0.054000000000000006,-0.054000000000000006,-0.054000000000000006,-0.054000000000000006,-0.054000000000000006,-0.065,-0.065,-0.065,-0.054000000000000006,-0.054000000000000006,-0.054000000000000006,-0.054000000000000006,-0.054000000000000006,-0.054000000000000006,-0.054000000000000006,-0.054000000000000006,-0.043,-0.043,-0.043,-0.043,-0.054000000000000006,-0.054000000000000006,-0.054000000000000006,-0.054000000000000006,-0.054000000000000006,-0.054000000000000006,-0.043,-0.043,-0.043,-0.054000000000000006,-0.054000000000000006,-0.054000000000000006,-0.043,-0.043,-0.032,-0.032,-0.032,-0.032,-0.043,-0.043,-0.043,-0.032,-0.032,-0.032,-0.032,-0.032,-0.032,-0.043,-0.043,-0.032,-0.032,-0.021,-0.032,-0.032,-0.032,-0.043,-0.043,-0.043,-0.032,-0.032,-0.021,-0.032,-0.032,-0.032,-0.043,-0.043,-0.032,-0.032,-0.032,-0.032,-0.032,-0.043,-0.043,-0.032,-0.032,-0.032,-0.021,-0.032,-0.032,-0.032,-0.032,-0.043,-0.032,-0.032,-0.032,-0.032,-0.032,-0.032,-0.032,-0.032,-0.032,-0.032,-0.021,-0.021,-0.021,-0.021,-0.032,-0.032,-0.032,-0.021,-0.01,-0.01,-0.01,-0.01,-0.01,-0.021,-0.021,-0.021,-0.021,-0.01,-0.01,-0.01,-0.01,-0.01,-0.01,-0.01,-0.01,0.001,0.001,0.001,0.001,-0.01,-0.01,-0.01,-0.01,0.001,0.001,0.001,0.001,0.001,-0.01,-0.01,-0.01,0.001,0.001,0.001,0.001,0.001,-0.01,-0.01,0.001,0.001,0.001,0.001,0.001,0.001,0.001,-0.01,0.001,0.001,0.001,0.001,0.001,0.001,0.001,0.001,0.001,0.001,0.001,0.001,0.001,0.001,0.001,0.001,0.001,0.001,0.001,0.001,0.011000000000000001,0.001,0.001,0.001,0.001,0.001,0.001,0.001,N,,,,,,,,,,,,,,,,,,,,,,,,,,,,,,,,,,,,,,,,,,,,,,,,,,,,,,,,,,,,,,,,,,,,,,,,,,,,,,,,,,,,,,,,,,,,,,,,,,,,,,,,,,,,,,,,,,,,,,,,,,,,,,,,,,,,,,,,,,,,,,,,,,,,,,,,,,,,,,,,,,,,,,,,,,,,,,,,,,,,,,,,,,,,,,,,,,,,,,,,,,,,,,,,,,,,,,,,,,,,,,,,,,,,,,,,,,,,,,,,,,,,,,,,,,,,,,,,,,,,,,,,,,,,,,,,,,,,,,,,,,,,,,,,,,,,,,,,,,,,,,,,,,,,,,,,,,,,,,,,,,,,,,,,,,,,,,,,,,,,,,,,,,,,,,,,,,,,,,,,,,,,,,,,,,,,,,,,,,,
1,-0.076,-0.076,-0.076,-0.076,-0.076,-0.054000000000000006,-0.054000000000000006,-0.054000000000000006,-0.054000000000000006,-0.054000000000000006,-0.054000000000000006,-0.065,-0.065,-0.054000000000000006,-0.054000000000000006,-0.054000000000000006,-0.054000000000000006,-0.054000000000000006,-0.054000000000000006,-0.054000000000000006,-0.065,-0.054000000000000006,-0.054000000000000006,-0.054000000000000006,-0.054000000000000006,-0.054000000000000006,-0.054000000000000006,-0.065,-0.065,-0.065,-0.054000000000000006,-0.054000000000000006,-0.054000000000000006,-0.054000000000000006,-0.054000000000000006,-0.054000000000000006,-0.065,-0.065,-0.054000000000000006,-0.054000000000000006,-0.054000000000000006,-0.054000000000000006,-0.054000000000000006,-0.054000000000000006,-0.065,-0.065,-0.054000000000000006,-0.054000000000000006,-0.054000000000000006,-0.054000000000000006,-0.054000000000000006,-0.054000000000000006,-0.065,-0.065,-0.054000000000000006,-0.054000000000000006,-0.054000000000000006,-0.043,-0.054000000000000006,-0.054000000000000006,-0.054000000000000006,-0.065,-0.054000000000000006,-0.054000000000000006,-0.043,-0.043,-0.043,-0.043,-0.054000000000000006,-0.054000000000000006,-0.054000000000000006,-0.054000000000000006,-0.043,-0.043,-0.043,-0.032,-0.043,-0.043,-0.043,-0.043,-0.043,-0.032,-0.032,-0.032,-0.043,-0.043,-0.043,-0.043,-0.032,-0.032,-0.032,-0.032,-0.032,-0.043,-0.043,-0.054000000000000006,-0.054000000000000006,-0.043,-0.032,-0.032,-0.032,-0.032,-0.043,-0.043,-0.032,-0.032,-0.032,-0.032,-0.032,-0.032,-0.043,-0.043,-0.043,-0.043,-0.032,-0.032,-0.032,-0.032,-0.032,-0.032,-0.032,-0.032,-0.032,-0.021,-0.021,-0.032,-0.032,-0.032,-0.032,-0.032,-0.032,-0.032,-0.021,-0.021,-0.021,-0.032,-0.032,-0.021,-0.021,-0.021,-0.01,-0.01,-0.021,-0.021,-0.021,-0.032,-0.021,-0.021,-0.01,-0.01,-0.01,-0.01,-0.01,-0.021,-0.01,0.001,0.001,0.001,0.001,0.001,0.001,0.001,0.001,0.001,0.011000000000000001,0.011000000000000001,0.011000000000000001,0.011000000000000001,0.001,0.001,0.001,0.001,0.011000000000000001,0.011000000000000001,0.011000000000000001,0.011000000000000001,0.011000000000000001,0.011000000000000001,0.001,0.011000000000000001,0.011000000000000001,0.011000000000000001,0.022000000000000002,0.022000000000000002,0.011000000000000001,0.011000000000000001,0.011000000000000001,0.011000000000000001,0.011000000000000001,0.011000000000000001,0.022000000000000002,0.022000000000000002,0.022000000000000002,0.011000000000000001,0.011000000000000001,0.011000000000000001,0.011000000000000001,0.011000000000000001,0.022000000000000002,0.022000000000000002,0.022000000000000002,0.022000000000000002,0.011000000000000001,0.011000000000000001,0.011000000000000001,0.022000000000000002,0.022000000000000002,0.022000000000000002,0.034,0.022000000000000002,0.011000000000000001,0.011000000000000001,0.011000000000000001,0.022000000000000002,0.022000000000000002,0.034,0.034,0.034,0.022000000000000002,0.011000000000000001,0.011000000000000001,0.011000000000000001,0.022000000000000002,0.022000000000000002,0.022000000000000002,0.034,0.022000000000000002,0.022000000000000002,0.011000000000000001,0.011000000000000001,0.022000000000000002,0.022000000000000002,0.034,0.022000000000000002,0.022000000000000002,0.011000000000000001,0.011000000000000001,0.011000000000000001,0.011000000000000001,0.022000000000000002,0.022000000000000002,0.022000000000000002,0.022000000000000002,0.011000000000000001,0.011000000000000001,0.011000000000000001,0.011000000000000001,0.011000000000000001,0.022000000000000002,0.022000000000000002,0.022000000000000002,0.022000000000000002,0.011000000000000001,0.011000000000000001,0.011000000000000001,0.011000000000000001,0.022000000000000002,0.022000000000000002,0.022000000000000002,0.022000000000000002,0.011000000000000001,0.011000000000000001,0.011000000000000001,0.011000000000000001,0.022000000000000002,0.022000000000000002,0.022000000000000002,0.022000000000000002,0.011000000000000001,0.011000000000000001,0.011000000000000001,0.011000000000000001,0.011000000000000001,0.022000000000000002,0.022000000000000002,0.022000000000000002,0.011000000000000001,0.011000000000000001,0.011000000000000001,0.011000000000000001,0.011000000000000001,0.022000000000000002,0.022000000000000002,0.022000000000000002,0.011000000000000001,0.011000000000000001,0.011000000000000001,0.011000000000000001,0.011000000000000001,0.011000000000000001,0.022000000000000002,0.022000000000000002,0.011000000000000001,0.011000000000000001,0.011000000000000001,0.011000000000000001,0.011000000000000001,0.011000000000000001,0.011000000000000001,0.022000000000000002,0.022000000000000002,0.011000000000000001,0.011000000000000001,0.011000000000000001,0.011000000000000001,0.011000000000000001,0.011000000000000001,0.022000000000000002,0.022000000000000002,0.022000000000000002,0.011000000000000001,0.011000000000000001,0.011000000000000001,0.011000000000000001,0.011000000000000001,0.022000000000000002,0.022000000000000002,0.011000000000000001,0.011000000000000001,0.011000000000000001,0.001,0.011000000000000001,0.011000000000000001,0.022000000000000002,0.022000000000000002,0.022000000000000002,0.011000000000000001,0.011000000000000001,0.011000000000000001,0.011000000000000001,0.011000000000000001,0.022000000000000002,0.022000000000000002,0.022000000000000002,0.011000000000000001,0.011000000000000001,0.011000000000000001,0.011000000000000001,0.011000000000000001,0.011000000000000001,0.022000000000000002,0.022000000000000002,0.022000000000000002,0.022000000000000002,0.011000000000000001,0.011000000000000001,0.022000000000000002,0.034,0.034,0.034,0.034,0.034,0.022000000000000002,0.011000000000000001,0.011000000000000001,0.022000000000000002,0.034,0.034,0.034,0.034,0.022000000000000002,0.022000000000000002,0.022000000000000002,0.022000000000000002,0.034,0.034,0.034,0.034,0.022000000000000002,0.022000000000000002,0.011000000000000001,0.011000000000000001,0.011000000000000001,0.022000000000000002,0.022000000000000002,0.011000000000000001,0.011000000000000001,0.001,0.001,0.001,0.001,0.001,0.001,0.001,0.001,0.001,0.001,0.001,0.001,0.001,0.001,0.001,0.001,0.001,0.001,0.001,0.001,0.011000000000000001,0.011000000000000001,0.022000000000000002,0.022000000000000002,0.022000000000000002,0.022000000000000002,0.034,0.034,0.034,0.055999999999999994,0.08800000000000001,0.14300000000000002,0.198,0.275,0.35100000000000003,0.428,0.494,0.5379999999999999,0.56,0.56,0.5489999999999999,0.505,0.47200000000000003,0.406,0.33,0.242,0.165,0.08800000000000001,0.034,-0.01,-0.065,-0.087,-0.098,-0.098,-0.076,-0.065,-0.065,-0.065,-0.065,-0.065,-0.065,-0.054000000000000006,-0.043,-0.032,-0.032,-0.032,-0.032,-0.032,-0.032,-0.032,-0.032,-0.032,-0.021,-0.032,-0.032,-0.032,-0.032,-0.032,-0.032,-0.032,-0.032,-0.032,-0.032,-0.032,-0.043,-0.032,-0.032,-0.032,-0.021,-0.021,-0.032,-0.032,-0.032,-0.043,-0.032,-0.032,-0.032,-0.021,-0.032,-0.032,-0.032,-0.032,-0.032,-0.032,-0.032,-0.032,-0.032,-0.032,-0.032,-0.032,-0.043,-0.032,-0.032,-0.032,-0.021,-0.032,-0.032,-0.032,-0.043,-0.032,-0.032,-0.021,-0.021,-0.021,-0.032,-0.032,-0.032,-0.032,-0.032,-0.021,-0.01,-0.01,-0.021,-0.021,-0.032,-0.021,-0.021,-0.021,-0.01,-0.01,-0.01,-0.021,-0.021,-0.021,-0.021,-0.01,-0.01,-0.01,-0.01,-0.01,-0.021,-0.021,-0.021,-0.01,-0.01,-0.01,0.001,-0.01,-0.01,-0.021,-0.021,-0.01,-0.01,0.001,0.001,0.001,-0.01,-0.01,-0.01,-0.01,-0.01,0.001,0.001,-0.01,-0.01,-0.021,-0.021,-0.021,-0.01,-0.01,-0.01,-0.021,-0.032,-0.032,-0.032,-0.032,-0.032,-0.032,-0.032,-0.032,-0.043,-0.043,-0.043,-0.054000000000000006,-0.043,-0.032,-0.032,-0.021,-0.021,-0.032,-0.032,-0.032,-0.032,-0.021,-0.021,-0.01,-0.01,-0.01,-0.01,-0.021,-0.021,-0.01,-0.01,0.001,0.001,0.001,0.001,-0.01,-0.01,0.001,0.001,0.001,0.001,0.001,0.001,0.001,0.001,0.001,0.001,0.001,0.001,0.001,0.001,0.001,0.001,0.001,0.001,0.001,0.001,0.011000000000000001,0.001,0.001,0.001,0.001,0.001,0.011000000000000001,0.011000000000000001,0.011000000000000001,0.011000000000000001,0.011000000000000001,0.001,0.001,0.001,0.011000000000000001,0.011000000000000001,0.022000000000000002,0.034,0.034,0.034,0.034,0.044000000000000004,0.055999999999999994,0.055999999999999994,0.067,0.08800000000000001,0.121,0.17600000000000002,0.253,0.319,0.385,0.462,0.527,0.5820000000000001,0.625,0.636,0.615,0.5710000000000001,0.505,0.406,0.33,0.253,0.198,0.133,0.067,0.011000000000000001,0.001,-0.01,-0.01,-0.01,-0.021,-0.032,-0.043,-0.054000000000000006,-0.054000000000000006,-0.054000000000000006,-0.054000000000000006,-0.043,-0.032,-0.032,-0.043,-0.043,-0.054000000000000006,-0.043,-0.043,-0.032,-0.032,-0.032,-0.043,-0.043,-0.054000000000000006,-0.054000000000000006,-0.054000000000000006,-0.043,-0.032,-0.032,-0.032,-0.043,-0.054000000000000006,-0.054000000000000006,-0.043,-0.043,-0.032,-0.032,-0.032,-0.043,-0.054000000000000006,-0.054000000000000006,-0.054000000000000006,-0.043,-0.043,-0.032,-0.032,-0.043,-0.043,-0.043,-0.043,-0.043,-0.032,-0.032,-0.032,-0.032,-0.032,-0.043,-0.043,-0.043,-0.032,-0.032,-0.032,-0.043,-0.043,-0.054000000000000006,-0.054000000000000006,-0.054000000000000006,-0.054000000000000006,-0.054000000000000006,-0.043,-0.043,-0.054000000000000006,-0.054000000000000006,-0.054000000000000006,-0.054000000000000006,-0.054000000000000006,-0.054000000000000006,-0.043,-0.043,-0.043,-0.054000000000000006,-0.054000000000000006,-0.054000000000000006,-0.054000000000000006,-0.054000000000000006,-0.043,-0.043,-0.043,-0.054000000000000006,-0.054000000000000006,-0.054000000000000006,-0.054000000000000006,-0.054000000000000006,-0.054000000000000006,-0.054000000000000006,-0.054000000000000006,-0.054000000000000006,-0.054000000000000006,-0.054000000000000006,-0.054000000000000006,-0.054000000000000006,-0.054000000000000006,-0.054000000000000006,-0.043,-0.054000000000000006,-0.054000000000000006,-0.054000000000000006,-0.054000000000000006,-0.054000000000000006,-0.054000000000000006,-0.043,-0.043,-0.043,-0.054000000000000006,-0.054000000000000006,-0.065,-0.054000000000000006,-0.054000000000000006,-0.043,-0.043,-0.043,-0.043,-0.054000000000000006,-0.054000000000000006,-0.054000000000000006,-0.043,-0.032,-0.032,-0.032,-0.032,-0.032,-0.032,-0.032,-0.032,-0.021,-0.01,-0.01,-0.01,-0.01,-0.021,-0.021,-0.01,-0.01,0.001,0.001,0.001,0.001,0.001,0.001,0.001,0.001,0.001,0.001,0.001,0.001,0.001,0.001,0.001,0.001,0.001,0.001,0.001,0.001,0.001,0.001,0.001,0.001,0.001,0.001,0.001,0.001,0.001,0.001,0.001,0.001,0.001,0.001,0.001,0.001,0.001,0.001,0.001,0.001,0.001,0.001,0.001,0.001,0.001,0.001,0.001,0.001,0.001,0.001,0.001,0.001,0.001,0.001,0.001,0.001,0.001,0.001,0.001,0.001,0.001,0.001,0.001,0.001,0.001,0.001,0.001,0.001,0.001,0.001,0.001,0.001,0.001,0.001,0.001,0.001,0.011000000000000001,0.001,0.001,0.001,0.001,0.001,0.001,0.001,0.001,0.001,0.001,0.001,0.001,0.001,0.001,0.001,0.001,0.001,0.001,0.001,0.001,0.001,0.001,0.001,0.001,0.011000000000000001,0.011000000000000001,0.001,0.001,0.001,0.001,0.001,0.001,0.001,0.001,0.001,0.001,0.001,0.001,0.001,0.001,0.011000000000000001,0.011000000000000001,0.001,0.001,0.001,0.001,0.001,0.001,0.001,0.001,0.001,0.001,0.001,0.001,0.001,0.001,0.011000000000000001,0.011000000000000001,0.011000000000000001,0.011000000000000001,0.001,0.001,0.001,0.001,0.001,0.011000000000000001,0.011000000000000001,0.011000000000000001,0.001,0.001,0.001,0.001,0.001,0.001,0.011000000000000001,0.011000000000000001,0.001,0.001,0.001,0.001,0.001,0.001,0.011000000000000001,0.011000000000000001,0.011000000000000001,0.001,0.001,0.001,0.001,0.001,0.011000000000000001,0.011000000000000001,0.022000000000000002,0.022000000000000002,0.011000000000000001,0.011000000000000001,0.022000000000000002,0.022000000000000002,0.022000000000000002,0.034,0.022000000000000002,0.022000000000000002,0.022000000000000002,0.022000000000000002,0.022000000000000002,0.022000000000000002,0.034,0.034,0.034,0.022000000000000002,0.022000000000000002,0.011000000000000001,0.011000000000000001,0.011000000000000001,0.022000000000000002,0.022000000000000002,0.034,N
2,-0.065,-0.054000000000000006,-0.043,-0.032,-0.032,-0.032,-0.032,-0.032,-0.032,-0.032,-0.032,-0.032,-0.021,-0.032,-0.032,-0.032,-0.032,-0.032,-0.032,-0.032,-0.032,-0.032,-0.032,-0.032,-0.043,-0.032,-0.032,-0.032,-0.021,-0.021,-0.032,-0.032,-0.032,-0.043,-0.032,-0.032,-0.032,-0.021,-0.032,-0.032,-0.032,-0.032,-0.032,-0.032,-0.032,-0.032,-0.032,-0.032,-0.032,-0.032,-0.043,-0.032,-0.032,-0.032,-0.021,-0.032,-0.032,-0.032,-0.043,-0.032,-0.032,-0.021,-0.021,-0.021,-0.032,-0.032,-0.032,-0.032,-0.032,-0.021,-0.01,-0.01,-0.021,-0.021,-0.032,-0.021,-0.021,-0.021,-0.01,-0.01,-0.01,-0.021,-0.021,-0.021,-0.021,-0.01,-0.01,-0.01,-0.01,-0.01,-0.021,-0.021,-0.021,-0.01,-0.01,-0.01,0.001,-0.01,-0.01,-0.021,-0.021,-0.01,-0.01,0.001,0.001,0.001,-0.01,-0.01,-0.01,-0.01,-0.01,0.001,0.001,-0.01,-0.01,-0.021,-0.021,-0.021,-0.01,-0.01,-0.01,-0.021,-0.032,-0.032,-0.032,-0.032,-0.032,-0.032,-0.032,-0.032,-0.043,-0.043,-0.043,-0.054000000000000006,-0.043,-0.032,-0.032,-0.021,-0.021,-0.032,-0.032,-0.032,-0.032,-0.021,-0.021,-0.01,-0.01,-0.01,-0.01,-0.021,-0.021,-0.01,-0.01,0.001,0.001,0.001,0.001,-0.01,-0.01,0.001,0.001,0.001,0.001,0.001,0.001,0.001,0.001,0.001,0.001,0.001,0.001,0.001,0.001,0.001,0.001,0.001,0.001,0.001,0.001,0.011000000000000001,0.001,0.001,0.001,0.001,0.001,0.011000000000000001,0.011000000000000001,0.011000000000000001,0.011000000000000001,0.011000000000000001,0.001,0.001,0.001,0.011000000000000001,0.011000000000000001,0.022000000000000002,0.034,0.034,0.034,0.034,0.044000000000000004,0.055999999999999994,0.055999999999999994,0.067,0.08800000000000001,0.121,0.17600000000000002,0.253,0.319,0.385,0.462,0.527,0.5820000000000001,0.625,0.636,0.615,0.5710000000000001,0.505,0.406,0.33,0.253,0.198,0.133,0.067,0.011000000000000001,0.001,-0.01,-0.01,-0.01,-0.021,-0.032,-0.043,-0.054000000000000006,-0.054000000000000006,-0.054000000000000006,-0.054000000000000006,-0.043,-0.032,-0.032,-0.043,-0.043,-0.054000000000000006,-0.043,-0.043,-0.032,-0.032,-0.032,-0.043,-0.043,-0.054000000000000006,-0.054000000000000006,-0.054000000000000006,-0.043,-0.032,-0.032,-0.032,-0.043,-0.054000000000000006,-0.054000000000000006,-0.043,-0.043,-0.032,-0.032,-0.032,-0.043,-0.054000000000000006,-0.054000000000000006,-0.054000000000000006,-0.043,-0.043,-0.032,-0.032,-0.043,-0.043,-0.043,-0.043,-0.043,-0.032,-0.032,-0.032,-0.032,-0.032,-0.043,-0.043,-0.043,-0.032,-0.032,-0.032,-0.043,-0.043,-0.054000000000000006,-0.054000000000000006,-0.054000000000000006,-0.054000000000000006,-0.054000000000000006,-0.043,-0.043,-0.054000000000000006,-0.054000000000000006,-0.054000000000000006,-0.054000000000000006,-0.054000000000000006,-0.054000000000000006,-0.043,-0.043,-0.043,-0.054000000000000006,-0.054000000000000006,-0.054000000000000006,-0.054000000000000006,-0.054000000000000006,-0.043,-0.043,-0.043,-0.054000000000000006,-0.054000000000000006,-0.054000000000000006,-0.054000000000000006,-0.054000000000000006,-0.054000000000000006,-0.054000000000000006,-0.054000000000000006,-0.054000000000000006,-0.054000000000000006,-0.054000000000000006,-0.054000000000000006,-0.054000000000000006,-0.054000000000000006,-0.054000000000000006,-0.043,-0.054000000000000006,-0.054000000000000006,-0.054000000000000006,-0.054000000000000006,-0.054000000000000006,-0.054000000000000006,-0.043,-0.043,-0.043,-0.054000000000000006,-0.054000000000000006,-0.065,-0.054000000000000006,-0.054000000000000006,-0.043,-0.043,-0.043,-0.043,-0.054000000000000006,-0.054000000000000006,-0.054000000000000006,-0.043,-0.032,-0.032,-0.032,-0.032,-0.032,-0.032,-0.032,-0.032,-0.021,-0.01,-0.01,-0.01,-0.01,-0.021,-0.021,-0.01,-0.01,0.001,0.001,0.001,0.001,0.001,0.001,0.001,0.001,0.001,0.001,0.001,0.001,0.001,0.001,0.001,0.001,0.001,0.001,0.001,0.001,0.001,0.001,0.001,0.001,0.001,0.001,0.001,0.001,0.001,0.001,0.001,0.001,0.001,0.001,0.001,0.001,0.001,0.001,0.001,0.001,0.001,0.001,0.001,0.001,0.001,0.001,0.001,0.001,0.001,0.001,0.001,0.001,0.001,0.001,0.001,0.001,0.001,0.001,0.001,0.001,0.001,0.001,0.001,0.001,0.001,0.001,0.001,0.001,0.001,0.001,0.001,0.001,0.001,0.001,0.001,0.001,0.011000000000000001,0.001,0.001,0.001,0.001,0.001,0.001,0.001,0.001,0.001,0.001,0.001,0.001,0.001,0.001,0.001,0.001,0.001,0.001,0.001,0.001,0.001,0.001,0.001,0.001,0.011000000000000001,0.011000000000000001,0.001,0.001,0.001,0.001,0.001,0.001,0.001,0.001,0.001,0.001,0.001,0.001,0.001,0.001,0.011000000000000001,0.011000000000000001,0.001,0.001,0.001,0.001,0.001,0.001,0.001,0.001,0.001,0.001,0.001,0.001,0.001,0.001,0.011000000000000001,0.011000000000000001,0.011000000000000001,0.011000000000000001,0.001,0.001,0.001,0.001,0.001,0.011000000000000001,0.011000000000000001,0.011000000000000001,0.001,0.001,0.001,0.001,0.001,0.001,0.011000000000000001,0.011000000000000001,0.001,0.001,0.001,0.001,0.001,0.001,0.011000000000000001,0.011000000000000001,0.011000000000000001,0.001,0.001,0.001,0.001,0.001,0.011000000000000001,0.011000000000000001,0.022000000000000002,0.022000000000000002,0.011000000000000001,0.011000000000000001,0.022000000000000002,0.022000000000000002,0.022000000000000002,0.034,0.022000000000000002,0.022000000000000002,0.022000000000000002,0.022000000000000002,0.022000000000000002,0.022000000000000002,0.034,0.034,0.034,0.022000000000000002,0.022000000000000002,0.011000000000000001,0.011000000000000001,0.011000000000000001,0.022000000000000002,0.022000000000000002,0.034,0.022000000000000002,0.022000000000000002,0.022000000000000002,0.011000000000000001,0.011000000000000001,0.022000000000000002,0.022000000000000002,0.034,0.034,0.034,0.022000000000000002,0.011000000000000001,0.022000000000000002,0.034,0.034,0.034,0.034,0.034,0.022000000000000002,0.011000000000000001,0.011000000000000001,0.022000000000000002,0.022000000000000002,0.034,0.034,0.022000000000000002,0.022000000000000002,0.011000000000000001,0.011000000000000001,0.011000000000000001,0.022000000000000002,0.022000000000000002,0.022000000000000002,0.034,0.022000000000000002,0.011000000000000001,0.011000000000000001,0.011000000000000001,0.022000000000000002,0.034,0.034,0.044000000000000004,0.034,0.034,0.034,0.022000000000000002,0.022000000000000002,0.034,0.034,0.034,0.034,0.034,0.034,0.034,0.034,0.034,0.034,0.034,0.034,0.034,0.022000000000000002,0.022000000000000002,0.022000000000000002,0.022000000000000002,0.034,0.022000000000000002,0.022000000000000002,0.022000000000000002,0.011000000000000001,0.011000000000000001,0.001,0.001,0.011000000000000001,0.011000000000000001,0.011000000000000001,0.011000000000000001,0.011000000000000001,0.001,0.001,0.001,0.001,0.011000000000000001,0.011000000000000001,0.011000000000000001,0.001,0.001,0.001,0.001,0.011000000000000001,0.011000000000000001,0.011000000000000001,0.011000000000000001,0.011000000000000001,0.011000000000000001,0.011000000000000001,0.011000000000000001,0.011000000000000001,0.034,0.034,0.034,0.034,0.044000000000000004,0.067,0.121,0.187,0.264,0.35100000000000003,0.451,0.527,0.593,0.636,0.6579999999999999,0.647,0.625,0.5820000000000001,0.527,0.451,0.341,0.253,0.165,0.08800000000000001,0.034,-0.01,-0.043,-0.065,-0.076,-0.076,-0.076,-0.076,-0.076,-0.076,-0.065,-0.054000000000000006,-0.054000000000000006,-0.054000000000000006,-0.054000000000000006,-0.054000000000000006,-0.054000000000000006,-0.054000000000000006,-0.043,-0.043,-0.043,-0.043,-0.043,-0.043,-0.054000000000000006,-0.043,-0.043,-0.032,-0.043,-0.043,-0.043,-0.054000000000000006,-0.054000000000000006,-0.054000000000000006,-0.043,-0.043,-0.043,-0.043,-0.043,-0.054000000000000006,-0.054000000000000006,-0.054000000000000006,-0.054000000000000006,-0.043,-0.043,-0.043,-0.043,-0.054000000000000006,-0.054000000000000006,-0.054000000000000006,-0.054000000000000006,-0.054000000000000006,-0.043,-0.043,-0.043,-0.043,-0.054000000000000006,-0.054000000000000006,-0.054000000000000006,-0.043,-0.043,-0.043,-0.032,-0.043,-0.043,-0.054000000000000006,-0.054000000000000006,-0.043,-0.043,-0.032,-0.032,-0.032,-0.043,-0.043,-0.043,-0.043,-0.032,-0.032,-0.032,-0.032,-0.032,-0.043,-0.043,-0.032,-0.032,-0.032,-0.021,-0.021,-0.032,-0.032,-0.032,-0.032,-0.032,-0.032,-0.021,-0.021,-0.021,-0.032,-0.032,-0.032,-0.032,-0.021,-0.021,-0.01,-0.021,-0.021,-0.032,-0.032,-0.032,-0.032,-0.021,-0.021,-0.021,-0.032,-0.032,-0.032,-0.032,-0.032,-0.032,-0.021,-0.021,-0.032,-0.032,-0.032,-0.032,-0.032,-0.032,-0.032,-0.021,-0.032,-0.032,-0.032,-0.032,-0.032,-0.032,-0.021,-0.021,-0.021,-0.021,-0.032,-0.032,-0.032,-0.032,-0.021,-0.021,-0.021,-0.021,-0.021,-0.021,-0.021,-0.021,-0.01,-0.01,0.001,-0.01,-0.01,-0.01,-0.01,-0.01,-0.01,0.001,0.001,0.001,0.001,0.001,0.001,0.001,0.001,0.001,0.001,0.001,0.001,0.001,0.001,0.001,0.001,0.011000000000000001,0.011000000000000001,0.011000000000000001,0.011000000000000001,0.011000000000000001,0.011000000000000001,0.011000000000000001,0.011000000000000001,0.011000000000000001,0.022000000000000002,0.022000000000000002,0.011000000000000001,0.011000000000000001,0.011000000000000001,0.011000000000000001,0.011000000000000001,0.011000000000000001,0.022000000000000002,0.022000000000000002,0.022000000000000002,0.022000000000000002,0.011000000000000001,0.011000000000000001,0.011000000000000001,0.011000000000000001,0.022000000000000002,0.034,0.034,0.034,0.022000000000000002,0.022000000000000002,0.011000000000000001,0.022000000000000002,0.034,0.034,0.034,0.034,0.034,0.034,0.022000000000000002,0.022000000000000002,0.034,0.034,0.034,0.034,0.034,0.034,0.034,0.022000000000000002,0.034,0.034,0.034,0.044000000000000004,0.034,0.034,0.022000000000000002,0.022000000000000002,0.022000000000000002,0.034,0.034,0.034,0.034,0.034,0.022000000000000002,0.022000000000000002,0.022000000000000002,0.022000000000000002,0.034,0.034,0.034,0.034,0.022000000000000002,0.022000000000000002,0.022000000000000002,0.022000000000000002,0.022000000000000002,0.034,0.034,0.034,0.022000000000000002,0.022000000000000002,0.011000000000000001,0.011000000000000001,0.022000000000000002,0.022000000000000002,0.022000000000000002,0.034,0.022000000000000002,0.022000000000000002,0.011000000000000001,0.011000000000000001,0.022000000000000002,0.022000000000000002,0.034,0.022000000000000002,0.022000000000000002,0.011000000000000001,0.011000000000000001,0.011000000000000001,0.011000000000000001,0.022000000000000002,0.022000000000000002,0.022000000000000002,0.022000000000000002,0.022000000000000002,0.011000000000000001,0.011000000000000001,0.011000000000000001,0.011000000000000001,0.022000000000000002,0.011000000000000001,0.022000000000000002,0.022000000000000002,0.011000000000000001,0.011000000000000001,0.011000000000000001,0.011000000000000001,0.022000000000000002,0.022000000000000002,0.022000000000000002,0.022000000000000002,0.011000000000000001,0.011000000000000001,0.011000000000000001,0.011000000000000001,0.011000000000000001,0.022000000000000002,0.022000000000000002,0.022000000000000002,0.011000000000000001,0.011000000000000001,0.011000000000000001,0.011000000000000001,0.011000000000000001,0.011000000000000001,0.022000000000000002,0.022000000000000002,0.011000000000000001,0.011000000000000001,0.011000000000000001,N
3,-0.043,-0.032,-0.032,-0.043,-0.043,-0.054000000000000006,-0.043,-0.043,-0.032,-0.032,-0.032,-0.043,-0.043,-0.054000000000000006,-0.054000000000000006,-0.054000000000000006,-0.043,-0.032,-0.032,-0.032,-0.043,-0.054000000000000006,-0.054000000000000006,-0.043,-0.043,-0.032,-0.032,-0.032,-0.043,-0.054000000000000006,-0.054000000000000006,-0.054000000000000006,-0.043,-0.043,-0.032,-0.032,-0.043,-0.043,-0.043,-0.043,-0.043,-0.032,-0.032,-0.032,-0.032,-0.032,-0.043,-0.043,-0.043,-0.032,-0.032,-0.032,-0.043,-0.043,-0.054000000000000006,-0.054000000000000006,-0.054000000000000006,-0.054000000000000006,-0.054000000000000006,-0.043,-0.043,-0.054000000000000006,-0.054000000000000006,-0.054000000000000006,-0.054000000000000006,-0.054000000000000006,-0.054000000000000006,-0.043,-0.043,-0.043,-0.054000000000000006,-0.054000000000000006,-0.054000000000000006,-0.054000000000000006,-0.054000000000000006,-0.043,-0.043,-0.043,-0.054000000000000006,-0.054000000000000006,-0.054000000000000006,-0.054000000000000006,-0.054000000000000006,-0.054000000000000006,-0.054000000000000006,-0.054000000000000006,-0.054000000000000006,-0.054000000000000006,-0.054000000000000006,-0.054000000000000006,-0.054000000000000006,-0.054000000000000006,-0.054000000000000006,-0.043,-0.054000000000000006,-0.054000000000000006,-0.054000000000000006,-0.054000000000000006,-0.054000000000000006,-0.054000000000000006,-0.043,-0.043,-0.043,-0.054000000000000006,-0.054000000000000006,-0.065,-0.054000000000000006,-0.054000000000000006,-0.043,-0.043,-0.043,-0.043,-0.054000000000000006,-0.054000000000000006,-0.054000000000000006,-0.043,-0.032,-0.032,-0.032,-0.032,-0.032,-0.032,-0.032,-0.032,-0.021,-0.01,-0.01,-0.01,-0.01,-0.021,-0.021,-0.01,-0.01,0.001,0.001,0.001,0.001,0.001,0.001,0.001,0.001,0.001,0.001,0.001,0.001,0.001,0.001,0.001,0.001,0.001,0.001,0.001,0.001,0.001,0.001,0.001,0.001,0.001,0.001,0.001,0.001,0.001,0.001,0.001,0.001,0.001,0.001,0.001,0.001,0.001,0.001,0.001,0.001,0.001,0.001,0.001,0.001,0.001,0.001,0.001,0.001,0.001,0.001,0.001,0.001,0.001,0.001,0.001,0.001,0.001,0.001,0.001,0.001,0.001,0.001,0.001,0.001,0.001,0.001,0.001,0.001,0.001,0.001,0.001,0.001,0.001,0.001,0.001,0.001,0.011000000000000001,0.001,0.001,0.001,0.001,0.001,0.001,0.001,0.001,0.001,0.001,0.001,0.001,0.001,0.001,0.001,0.001,0.001,0.001,0.001,0.001,0.001,0.001,0.001,0.001,0.011000000000000001,0.011000000000000001,0.001,0.001,0.001,0.001,0.001,0.001,0.001,0.001,0.001,0.001,0.001,0.001,0.001,0.001,0.011000000000000001,0.011000000000000001,0.001,0.001,0.001,0.001,0.001,0.001,0.001,0.001,0.001,0.001,0.001,0.001,0.001,0.001,0.011000000000000001,0.011000000000000001,0.011000000000000001,0.011000000000000001,0.001,0.001,0.001,0.001,0.001,0.011000000000000001,0.011000000000000001,0.011000000000000001,0.001,0.001,0.001,0.001,0.001,0.001,0.011000000000000001,0.011000000000000001,0.001,0.001,0.001,0.001,0.001,0.001,0.011000000000000001,0.011000000000000001,0.011000000000000001,0.001,0.001,0.001,0.001,0.001,0.011000000000000001,0.011000000000000001,0.022000000000000002,0.022000000000000002,0.011000000000000001,0.011000000000000001,0.022000000000000002,0.022000000000000002,0.022000000000000002,0.034,0.022000000000000002,0.022000000000000002,0.022000000000000002,0.022000000000000002,0.022000000000000002,0.022000000000000002,0.034,0.034,0.034,0.022000000000000002,0.022000000000000002,0.011000000000000001,0.011000000000000001,0.011000000000000001,0.022000000000000002,0.022000000000000002,0.034,0.022000000000000002,0.022000000000000002,0.022000000000000002,0.011000000000000001,0.011000000000000001,0.022000000000000002,0.022000000000000002,0.034,0.034,0.034,0.022000000000000002,0.011000000000000001,0.022000000000000002,0.034,0.034,0.034,0.034,0.034,0.022000000000000002,0.011000000000000001,0.011000000000000001,0.022000000000000002,0.022000000000000002,0.034,0.034,0.022000000000000002,0.022000000000000002,0.011000000000000001,0.011000000000000001,0.011000000000000001,0.022000000000000002,0.022000000000000002,0.022000000000000002,0.034,0.022000000000000002,0.011000000000000001,0.011000000000000001,0.011000000000000001,0.022000000000000002,0.034,0.034,0.044000000000000004,0.034,0.034,0.034,0.022000000000000002,0.022000000000000002,0.034,0.034,0.034,0.034,0.034,0.034,0.034,0.034,0.034,0.034,0.034,0.034,0.034,0.022000000000000002,0.022000000000000002,0.022000000000000002,0.022000000000000002,0.034,0.022000000000000002,0.022000000000000002,0.022000000000000002,0.011000000000000001,0.011000000000000001,0.001,0.001,0.011000000000000001,0.011000000000000001,0.011000000000000001,0.011000000000000001,0.011000000000000001,0.001,0.001,0.001,0.001,0.011000000000000001,0.011000000000000001,0.011000000000000001,0.001,0.001,0.001,0.001,0.011000000000000001,0.011000000000000001,0.011000000000000001,0.011000000000000001,0.011000000000000001,0.011000000000000001,0.011000000000000001,0.011000000000000001,0.011000000000000001,0.034,0.034,0.034,0.034,0.044000000000000004,0.067,0.121,0.187,0.264,0.35100000000000003,0.451,0.527,0.593,0.636,0.6579999999999999,0.647,0.625,0.5820000000000001,0.527,0.451,0.341,0.253,0.165,0.08800000000000001,0.034,-0.01,-0.043,-0.065,-0.076,-0.076,-0.076,-0.076,-0.076,-0.076,-0.065,-0.054000000000000006,-0.054000000000000006,-0.054000000000000006,-0.054000000000000006,-0.054000000000000006,-0.054000000000000006,-0.054000000000000006,-0.043,-0.043,-0.043,-0.043,-0.043,-0.043,-0.054000000000000006,-0.043,-0.043,-0.032,-0.043,-0.043,-0.043,-0.054000000000000006,-0.054000000000000006,-0.054000000000000006,-0.043,-0.043,-0.043,-0.043,-0.043,-0.054000000000000006,-0.054000000000000006,-0.054000000000000006,-0.054000000000000006,-0.043,-0.043,-0.043,-0.043,-0.054000000000000006,-0.054000000000000006,-0.054000000000000006,-0.054000000000000006,-0.054000000000000006,-0.043,-0.043,-0.043,-0.043,-0.054000000000000006,-0.054000000000000006,-0.054000000000000006,-0.043,-0.043,-0.043,-0.032,-0.043,-0.043,-0.054000000000000006,-0.054000000000000006,-0.043,-0.043,-0.032,-0.032,-0.032,-0.043,-0.043,-0.043,-0.043,-0.032,-0.032,-0.032,-0.032,-0.032,-0.043,-0.043,-0.032,-0.032,-0.032,-0.021,-0.021,-0.032,-0.032,-0.032,-0.032,-0.032,-0.032,-0.021,-0.021,-0.021,-0.032,-0.032,-0.032,-0.032,-0.021,-0.021,-0.01,-0.021,-0.021,-0.032,-0.032,-0.032,-0.032,-0.021,-0.021,-0.021,-0.032,-0.032,-0.032,-0.032,-0.032,-0.032,-0.021,-0.021,-0.032,-0.032,-0.032,-0.032,-0.032,-0.032,-0.032,-0.021,-0.032,-0.032,-0.032,-0.032,-0.032,-0.032,-0.021,-0.021,-0.021,-0.021,-0.032,-0.032,-0.032,-0.032,-0.021,-0.021,-0.021,-0.021,-0.021,-0.021,-0.021,-0.021,-0.01,-0.01,0.001,-0.01,-0.01,-0.01,-0.01,-0.01,-0.01,0.001,0.001,0.001,0.001,0.001,0.001,0.001,0.001,0.001,0.001,0.001,0.001,0.001,0.001,0.001,0.001,0.011000000000000001,0.011000000000000001,0.011000000000000001,0.011000000000000001,0.011000000000000001,0.011000000000000001,0.011000000000000001,0.011000000000000001,0.011000000000000001,0.022000000000000002,0.022000000000000002,0.011000000000000001,0.011000000000000001,0.011000000000000001,0.011000000000000001,0.011000000000000001,0.011000000000000001,0.022000000000000002,0.022000000000000002,0.022000000000000002,0.022000000000000002,0.011000000000000001,0.011000000000000001,0.011000000000000001,0.011000000000000001,0.022000000000000002,0.034,0.034,0.034,0.022000000000000002,0.022000000000000002,0.011000000000000001,0.022000000000000002,0.034,0.034,0.034,0.034,0.034,0.034,0.022000000000000002,0.022000000000000002,0.034,0.034,0.034,0.034,0.034,0.034,0.034,0.022000000000000002,0.034,0.034,0.034,0.044000000000000004,0.034,0.034,0.022000000000000002,0.022000000000000002,0.022000000000000002,0.034,0.034,0.034,0.034,0.034,0.022000000000000002,0.022000000000000002,0.022000000000000002,0.022000000000000002,0.034,0.034,0.034,0.034,0.022000000000000002,0.022000000000000002,0.022000000000000002,0.022000000000000002,0.022000000000000002,0.034,0.034,0.034,0.022000000000000002,0.022000000000000002,0.011000000000000001,0.011000000000000001,0.022000000000000002,0.022000000000000002,0.022000000000000002,0.034,0.022000000000000002,0.022000000000000002,0.011000000000000001,0.011000000000000001,0.022000000000000002,0.022000000000000002,0.034,0.022000000000000002,0.022000000000000002,0.011000000000000001,0.011000000000000001,0.011000000000000001,0.011000000000000001,0.022000000000000002,0.022000000000000002,0.022000000000000002,0.022000000000000002,0.022000000000000002,0.011000000000000001,0.011000000000000001,0.011000000000000001,0.011000000000000001,0.022000000000000002,0.011000000000000001,0.022000000000000002,0.022000000000000002,0.011000000000000001,0.011000000000000001,0.011000000000000001,0.011000000000000001,0.022000000000000002,0.022000000000000002,0.022000000000000002,0.022000000000000002,0.011000000000000001,0.011000000000000001,0.011000000000000001,0.011000000000000001,0.011000000000000001,0.022000000000000002,0.022000000000000002,0.022000000000000002,0.011000000000000001,0.011000000000000001,0.011000000000000001,0.011000000000000001,0.011000000000000001,0.011000000000000001,0.022000000000000002,0.022000000000000002,0.011000000000000001,0.011000000000000001,0.011000000000000001,0.011000000000000001,0.011000000000000001,0.011000000000000001,0.011000000000000001,0.022000000000000002,0.011000000000000001,0.011000000000000001,0.001,0.001,0.011000000000000001,0.011000000000000001,0.011000000000000001,0.011000000000000001,0.011000000000000001,0.011000000000000001,0.011000000000000001,0.011000000000000001,0.011000000000000001,0.011000000000000001,0.011000000000000001,0.011000000000000001,0.011000000000000001,0.011000000000000001,0.011000000000000001,0.001,0.001,0.011000000000000001,0.011000000000000001,0.022000000000000002,0.011000000000000001,0.011000000000000001,0.011000000000000001,0.011000000000000001,0.011000000000000001,0.011000000000000001,0.011000000000000001,0.011000000000000001,0.022000000000000002,0.022000000000000002,0.011000000000000001,0.011000000000000001,0.011000000000000001,0.011000000000000001,0.022000000000000002,0.034,0.034,0.034,0.034,0.022000000000000002,0.011000000000000001,0.011000000000000001,0.011000000000000001,0.022000000000000002,0.034,0.034,0.034,0.022000000000000002,0.022000000000000002,0.022000000000000002,0.022000000000000002,0.022000000000000002,0.034,0.034,0.034,0.022000000000000002,0.011000000000000001,0.011000000000000001,0.011000000000000001,0.011000000000000001,0.022000000000000002,0.022000000000000002,0.022000000000000002,0.011000000000000001,0.001,0.001,0.001,0.001,0.001,0.001,0.001,0.001,0.001,0.001,0.001,0.001,0.001,0.001,0.001,0.001,0.001,0.001,0.001,0.001,0.001,0.011000000000000001,0.022000000000000002,0.022000000000000002,0.034,0.022000000000000002,0.034,0.034,0.034,0.055999999999999994,0.08800000000000001,0.14300000000000002,0.209,0.28600000000000003,0.36200000000000004,0.428,0.494,0.5379999999999999,0.56,0.56,0.5489999999999999,0.516,0.483,0.428,0.35100000000000003,0.264,0.17600000000000002,0.111,0.055999999999999994,0.001,-0.043,-0.087,-0.098,-0.098,-0.087,-0.076,-0.065,-0.065,-0.076,-0.076,-0.076,-0.054000000000000006,-0.054000000000000006,-0.043,-0.032,-0.032,-0.032,-0.032,-0.032,-0.032,-0.032,-0.032,-0.021,-0.032,-0.032,-0.032,-0.043,-0.032,-0.032,-0.032,-0.032,-0.032,-0.032,-0.032,-0.043,-0.043,-0.043,-0.032,-0.032,-0.032,-0.032,-0.032,-0.043,-0.032,-0.032,-0.032,-0.032,-0.032,-0.032,-0.032,-0.032,-0.043,-0.043,-0.032,-0.032,-0.032,-0.032,-0.032,-0.032,-0.043,-0.043,-0.032,-0.032,-0.032,-0.032,-0.032,-0.032,-0.032,-0.043,-0.032,-0.032,-0.021,-0.021,-0.021,-0.032,-0.032,-0.032,-0.032,-0.032,-0.021,-0.021,-0.021,-0.021,-0.021,-0.032,-0.032,-0.021,-0.021,-0.01,-0.01,-0.01,-0.021,-0.021,-0.021,-0.021,-0.01,-0.01,-0.01,-0.01,-0.01,-0.021,-0.021,-0.021,-0.021,-0.01,-0.01,-0.01,-0.01,-0.01,-0.01,-0.01,-0.01,-0.01,N
4,-0.054000000000000006,-0.054000000000000006,-0.054000000000000006,-0.054000000000000006,-0.054000000000000006,-0.043,-0.043,-0.043,-0.043,-0.043,-0.043,-0.054000000000000006,-0.043,-0.043,-0.032,-0.043,-0.043,-0.043,-0.054000000000000006,-0.054000000000000006,-0.054000000000000006,-0.043,-0.043,-0.043,-0.043,-0.043,-0.054000000000000006,-0.054000000000000006,-0.054000000000000006,-0.054000000000000006,-0.043,-0.043,-0.043,-0.043,-0.054000000000000006,-0.054000000000000006,-0.054000000000000006,-0.054000000000000006,-0.054000000000000006,-0.043,-0.043,-0.043,-0.043,-0.054000000000000006,-0.054000000000000006,-0.054000000000000006,-0.043,-0.043,-0.043,-0.032,-0.043,-0.043,-0.054000000000000006,-0.054000000000000006,-0.043,-0.043,-0.032,-0.032,-0.032,-0.043,-0.043,-0.043,-0.043,-0.032,-0.032,-0.032,-0.032,-0.032,-0.043,-0.043,-0.032,-0.032,-0.032,-0.021,-0.021,-0.032,-0.032,-0.032,-0.032,-0.032,-0.032,-0.021,-0.021,-0.021,-0.032,-0.032,-0.032,-0.032,-0.021,-0.021,-0.01,-0.021,-0.021,-0.032,-0.032,-0.032,-0.032,-0.021,-0.021,-0.021,-0.032,-0.032,-0.032,-0.032,-0.032,-0.032,-0.021,-0.021,-0.032,-0.032,-0.032,-0.032,-0.032,-0.032,-0.032,-0.021,-0.032,-0.032,-0.032,-0.032,-0.032,-0.032,-0.021,-0.021,-0.021,-0.021,-0.032,-0.032,-0.032,-0.032,-0.021,-0.021,-0.021,-0.021,-0.021,-0.021,-0.021,-0.021,-0.01,-0.01,0.001,-0.01,-0.01,-0.01,-0.01,-0.01,-0.01,0.001,0.001,0.001,0.001,0.001,0.001,0.001,0.001,0.001,0.001,0.001,0.001,0.001,0.001,0.001,0.001,0.011000000000000001,0.011000000000000001,0.011000000000000001,0.011000000000000001,0.011000000000000001,0.011000000000000001,0.011000000000000001,0.011000000000000001,0.011000000000000001,0.022000000000000002,0.022000000000000002,0.011000000000000001,0.011000000000000001,0.011000000000000001,0.011000000000000001,0.011000000000000001,0.011000000000000001,0.022000000000000002,0.022000000000000002,0.022000000000000002,0.022000000000000002,0.011000000000000001,0.011000000000000001,0.011000000000000001,0.011000000000000001,0.022000000000000002,0.034,0.034,0.034,0.022000000000000002,0.022000000000000002,0.011000000000000001,0.022000000000000002,0.034,0.034,0.034,0.034,0.034,0.034,0.022000000000000002,0.022000000000000002,0.034,0.034,0.034,0.034,0.034,0.034,0.034,0.022000000000000002,0.034,0.034,0.034,0.044000000000000004,0.034,0.034,0.022000000000000002,0.022000000000000002,0.022000000000000002,0.034,0.034,0.034,0.034,0.034,0.022000000000000002,0.022000000000000002,0.022000000000000002,0.022000000000000002,0.034,0.034,0.034,0.034,0.022000000000000002,0.022000000000000002,0.022000000000000002,0.022000000000000002,0.022000000000000002,0.034,0.034,0.034,0.022000000000000002,0.022000000000000002,0.011000000000000001,0.011000000000000001,0.022000000000000002,0.022000000000000002,0.022000000000000002,0.034,0.022000000000000002,0.022000000000000002,0.011000000000000001,0.011000000000000001,0.022000000000000002,0.022000000000000002,0.034,0.022000000000000002,0.022000000000000002,0.011000000000000001,0.011000000000000001,0.011000000000000001,0.011000000000000001,0.022000000000000002,0.022000000000000002,0.022000000000000002,0.022000000000000002,0.022000000000000002,0.011000000000000001,0.011000000000000001,0.011000000000000001,0.011000000000000001,0.022000000000000002,0.011000000000000001,0.022000000000000002,0.022000000000000002,0.011000000000000001,0.011000000000000001,0.011000000000000001,0.011000000000000001,0.022000000000000002,0.022000000000000002,0.022000000000000002,0.022000000000000002,0.011000000000000001,0.011000000000000001,0.011000000000000001,0.011000000000000001,0.011000000000000001,0.022000000000000002,0.022000000000000002,0.022000000000000002,0.011000000000000001,0.011000000000000001,0.011000000000000001,0.011000000000000001,0.011000000000000001,0.011000000000000001,0.022000000000000002,0.022000000000000002,0.011000000000000001,0.011000000000000001,0.011000000000000001,0.011000000000000001,0.011000000000000001,0.011000000000000001,0.011000000000000001,0.022000000000000002,0.011000000000000001,0.011000000000000001,0.001,0.001,0.011000000000000001,0.011000000000000001,0.011000000000000001,0.011000000000000001,0.011000000000000001,0.011000000000000001,0.011000000000000001,0.011000000000000001,0.011000000000000001,0.011000000000000001,0.011000000000000001,0.011000000000000001,0.011000000000000001,0.011000000000000001,0.011000000000000001,0.001,0.001,0.011000000000000001,0.011000000000000001,0.022000000000000002,0.011000000000000001,0.011000000000000001,0.011000000000000001,0.011000000000000001,0.011000000000000001,0.011000000000000001,0.011000000000000001,0.011000000000000001,0.022000000000000002,0.022000000000000002,0.011000000000000001,0.011000000000000001,0.011000000000000001,0.011000000000000001,0.022000000000000002,0.034,0.034,0.034,0.034,0.022000000000000002,0.011000000000000001,0.011000000000000001,0.011000000000000001,0.022000000000000002,0.034,0.034,0.034,0.022000000000000002,0.022000000000000002,0.022000000000000002,0.022000000000000002,0.022000000000000002,0.034,0.034,0.034,0.022000000000000002,0.011000000000000001,0.011000000000000001,0.011000000000000001,0.011000000000000001,0.022000000000000002,0.022000000000000002,0.022000000000000002,0.011000000000000001,0.001,0.001,0.001,0.001,0.001,0.001,0.001,0.001,0.001,0.001,0.001,0.001,0.001,0.001,0.001,0.001,0.001,0.001,0.001,0.001,0.001,0.011000000000000001,0.022000000000000002,0.022000000000000002,0.034,0.022000000000000002,0.034,0.034,0.034,0.055999999999999994,0.08800000000000001,0.14300000000000002,0.209,0.28600000000000003,0.36200000000000004,0.428,0.494,0.5379999999999999,0.56,0.56,0.5489999999999999,0.516,0.483,0.428,0.35100000000000003,0.264,0.17600000000000002,0.111,0.055999999999999994,0.001,-0.043,-0.087,-0.098,-0.098,-0.087,-0.076,-0.065,-0.065,-0.076,-0.076,-0.076,-0.054000000000000006,-0.054000000000000006,-0.043,-0.032,-0.032,-0.032,-0.032,-0.032,-0.032,-0.032,-0.032,-0.021,-0.032,-0.032,-0.032,-0.043,-0.032,-0.032,-0.032,-0.032,-0.032,-0.032,-0.032,-0.043,-0.043,-0.043,-0.032,-0.032,-0.032,-0.032,-0.032,-0.043,-0.032,-0.032,-0.032,-0.032,-0.032,-0.032,-0.032,-0.032,-0.043,-0.043,-0.032,-0.032,-0.032,-0.032,-0.032,-0.032,-0.043,-0.043,-0.032,-0.032,-0.032,-0.032,-0.032,-0.032,-0.032,-0.043,-0.032,-0.032,-0.021,-0.021,-0.021,-0.032,-0.032,-0.032,-0.032,-0.032,-0.021,-0.021,-0.021,-0.021,-0.021,-0.032,-0.032,-0.021,-0.021,-0.01,-0.01,-0.01,-0.021,-0.021,-0.021,-0.021,-0.01,-0.01,-0.01,-0.01,-0.01,-0.021,-0.021,-0.021,-0.021,-0.01,-0.01,-0.01,-0.01,-0.01,-0.01,-0.01,-0.01,-0.01,0.001,0.001,0.001,0.001,-0.01,-0.01,-0.01,-0.01,0.001,0.001,-0.01,-0.01,-0.021,-0.021,-0.021,-0.021,-0.021,-0.01,-0.021,-0.032,-0.032,-0.043,-0.043,-0.043,-0.043,-0.043,-0.032,-0.043,-0.043,-0.043,-0.054000000000000006,-0.043,-0.032,-0.032,-0.032,-0.032,-0.032,-0.032,-0.032,-0.032,-0.032,-0.021,-0.01,-0.01,-0.021,-0.021,-0.021,-0.021,-0.021,-0.01,-0.01,-0.01,-0.01,-0.01,-0.01,-0.021,-0.01,-0.01,-0.01,-0.01,0.001,-0.01,-0.01,-0.01,-0.01,0.001,0.001,0.001,0.001,0.001,-0.01,-0.01,-0.01,-0.01,0.001,0.001,0.001,0.001,0.001,0.001,-0.01,0.001,0.001,0.001,0.001,0.001,0.001,0.001,0.001,0.001,0.001,0.001,0.001,0.001,0.001,0.001,0.011000000000000001,0.011000000000000001,0.034,0.044000000000000004,0.055999999999999994,0.055999999999999994,0.055999999999999994,0.067,0.1,0.154,0.231,0.297,0.373,0.451,0.527,0.593,0.636,0.669,0.669,0.636,0.5710000000000001,0.462,0.36200000000000004,0.28600000000000003,0.209,0.14300000000000002,0.067,0.011000000000000001,-0.01,-0.021,-0.032,-0.032,-0.054000000000000006,-0.065,-0.076,-0.076,-0.076,-0.065,-0.065,-0.065,-0.065,-0.076,-0.076,-0.065,-0.065,-0.054000000000000006,-0.054000000000000006,-0.054000000000000006,-0.054000000000000006,-0.065,-0.065,-0.065,-0.065,-0.054000000000000006,-0.054000000000000006,-0.054000000000000006,-0.054000000000000006,-0.054000000000000006,-0.065,-0.065,-0.065,-0.065,-0.054000000000000006,-0.054000000000000006,-0.054000000000000006,-0.054000000000000006,-0.054000000000000006,-0.054000000000000006,-0.065,-0.054000000000000006,-0.054000000000000006,-0.043,-0.043,-0.054000000000000006,-0.065,-0.065,-0.076,-0.065,-0.054000000000000006,-0.054000000000000006,-0.054000000000000006,-0.054000000000000006,-0.054000000000000006,-0.065,-0.065,-0.065,-0.054000000000000006,-0.054000000000000006,-0.043,-0.043,-0.054000000000000006,-0.054000000000000006,-0.054000000000000006,-0.054000000000000006,-0.054000000000000006,-0.054000000000000006,-0.043,-0.043,-0.043,-0.054000000000000006,-0.054000000000000006,-0.054000000000000006,-0.054000000000000006,-0.043,-0.043,-0.043,-0.043,-0.043,-0.043,-0.054000000000000006,-0.054000000000000006,-0.043,-0.043,-0.043,-0.032,-0.043,-0.054000000000000006,-0.054000000000000006,-0.054000000000000006,-0.054000000000000006,-0.043,-0.043,-0.043,-0.043,-0.043,-0.054000000000000006,-0.054000000000000006,-0.043,-0.032,-0.032,-0.032,-0.032,-0.043,-0.054000000000000006,-0.054000000000000006,-0.043,-0.043,-0.032,-0.032,-0.032,-0.043,-0.054000000000000006,-0.054000000000000006,-0.054000000000000006,-0.043,-0.043,-0.032,-0.032,-0.032,-0.032,-0.043,-0.043,-0.032,-0.032,-0.032,-0.021,-0.021,-0.032,-0.032,-0.032,-0.032,-0.021,-0.01,-0.01,-0.01,-0.01,-0.01,-0.01,-0.01,-0.01,-0.01,0.001,0.001,0.001,-0.01,-0.01,-0.01,-0.01,0.001,0.001,0.001,0.001,0.001,0.001,-0.01,-0.01,0.001,0.001,0.001,0.001,0.001,0.001,0.001,0.001,0.001,0.001,0.001,0.001,0.001,0.001,0.001,0.001,0.001,0.001,0.001,0.001,0.001,0.001,0.001,0.001,0.001,0.001,0.001,0.001,0.001,0.001,0.001,0.001,0.001,0.001,0.001,0.001,0.001,0.001,0.001,0.001,0.001,0.001,0.001,0.001,0.001,0.001,0.001,0.001,0.001,0.001,0.001,0.001,0.001,0.001,0.001,0.001,0.001,0.001,0.001,0.001,0.001,0.001,0.011000000000000001,0.001,0.001,0.001,0.001,0.001,0.001,0.001,0.001,0.001,0.001,0.001,0.001,0.001,0.001,0.001,0.001,0.001,0.001,0.001,0.001,0.001,0.001,0.001,0.001,0.001,0.001,0.001,0.001,0.001,0.001,0.001,0.011000000000000001,0.001,0.001,0.001,0.001,0.001,0.001,0.001,0.001,0.001,0.001,0.001,0.001,0.001,0.001,0.001,0.001,0.001,0.001,0.001,0.001,0.001,0.001,0.001,0.001,0.001,0.001,0.001,0.001,0.001,0.001,0.001,0.001,0.001,0.001,0.001,0.001,0.001,0.001,0.001,0.001,0.001,0.001,0.001,0.001,0.001,0.001,0.001,0.001,0.001,0.001,0.001,0.001,0.001,0.001,0.001,0.001,0.001,0.001,0.001,0.001,0.001,0.001,0.001,0.001,0.001,0.001,0.001,0.001,0.001,0.001,0.001,0.001,0.001,0.001,0.001,0.001,0.001,0.001,0.001,0.001,0.001,0.001,0.001,0.001,N
5,-0.076,-0.054000000000000006,-0.054000000000000006,-0.043,-0.032,-0.032,-0.032,-0.032,-0.032,-0.032,-0.032,-0.032,-0.021,-0.032,-0.032,-0.032,-0.043,-0.032,-0.032,-0.032,-0.032,-0.032,-0.032,-0.032,-0.043,-0.043,-0.043,-0.032,-0.032,-0.032,-0.032,-0.032,-0.043,-0.032,-0.032,-0.032,-0.032,-0.032,-0.032,-0.032,-0.032,-0.043,-0.043,-0.032,-0.032,-0.032,-0.032,-0.032,-0.032,-0.043,-0.043,-0.032,-0.032,-0.032,-0.032,-0.032,-0.032,-0.032,-0.043,-0.032,-0.032,-0.021,-0.021,-0.021,-0.032,-0.032,-0.032,-0.032,-0.032,-0.021,-0.021,-0.021,-0.021,-0.021,-0.032,-0.032,-0.021,-0.021,-0.01,-0.01,-0.01,-0.021,-0.021,-0.021,-0.021,-0.01,-0.01,-0.01,-0.01,-0.01,-0.021,-0.021,-0.021,-0.021,-0.01,-0.01,-0.01,-0.01,-0.01,-0.01,-0.01,-0.01,-0.01,0.001,0.001,0.001,0.001,-0.01,-0.01,-0.01,-0.01,0.001,0.001,-0.01,-0.01,-0.021,-0.021,-0.021,-0.021,-0.021,-0.01,-0.021,-0.032,-0.032,-0.043,-0.043,-0.043,-0.043,-0.043,-0.032,-0.043,-0.043,-0.043,-0.054000000000000006,-0.043,-0.032,-0.032,-0.032,-0.032,-0.032,-0.032,-0.032,-0.032,-0.032,-0.021,-0.01,-0.01,-0.021,-0.021,-0.021,-0.021,-0.021,-0.01,-0.01,-0.01,-0.01,-0.01,-0.01,-0.021,-0.01,-0.01,-0.01,-0.01,0.001,-0.01,-0.01,-0.01,-0.01,0.001,0.001,0.001,0.001,0.001,-0.01,-0.01,-0.01,-0.01,0.001,0.001,0.001,0.001,0.001,0.001,-0.01,0.001,0.001,0.001,0.001,0.001,0.001,0.001,0.001,0.001,0.001,0.001,0.001,0.001,0.001,0.001,0.011000000000000001,0.011000000000000001,0.034,0.044000000000000004,0.055999999999999994,0.055999999999999994,0.055999999999999994,0.067,0.1,0.154,0.231,0.297,0.373,0.451,0.527,0.593,0.636,0.669,0.669,0.636,0.5710000000000001,0.462,0.36200000000000004,0.28600000000000003,0.209,0.14300000000000002,0.067,0.011000000000000001,-0.01,-0.021,-0.032,-0.032,-0.054000000000000006,-0.065,-0.076,-0.076,-0.076,-0.065,-0.065,-0.065,-0.065,-0.076,-0.076,-0.065,-0.065,-0.054000000000000006,-0.054000000000000006,-0.054000000000000006,-0.054000000000000006,-0.065,-0.065,-0.065,-0.065,-0.054000000000000006,-0.054000000000000006,-0.054000000000000006,-0.054000000000000006,-0.054000000000000006,-0.065,-0.065,-0.065,-0.065,-0.054000000000000006,-0.054000000000000006,-0.054000000000000006,-0.054000000000000006,-0.054000000000000006,-0.054000000000000006,-0.065,-0.054000000000000006,-0.054000000000000006,-0.043,-0.043,-0.054000000000000006,-0.065,-0.065,-0.076,-0.065,-0.054000000000000006,-0.054000000000000006,-0.054000000000000006,-0.054000000000000006,-0.054000000000000006,-0.065,-0.065,-0.065,-0.054000000000000006,-0.054000000000000006,-0.043,-0.043,-0.054000000000000006,-0.054000000000000006,-0.054000000000000006,-0.054000000000000006,-0.054000000000000006,-0.054000000000000006,-0.043,-0.043,-0.043,-0.054000000000000006,-0.054000000000000006,-0.054000000000000006,-0.054000000000000006,-0.043,-0.043,-0.043,-0.043,-0.043,-0.043,-0.054000000000000006,-0.054000000000000006,-0.043,-0.043,-0.043,-0.032,-0.043,-0.054000000000000006,-0.054000000000000006,-0.054000000000000006,-0.054000000000000006,-0.043,-0.043,-0.043,-0.043,-0.043,-0.054000000000000006,-0.054000000000000006,-0.043,-0.032,-0.032,-0.032,-0.032,-0.043,-0.054000000000000006,-0.054000000000000006,-0.043,-0.043,-0.032,-0.032,-0.032,-0.043,-0.054000000000000006,-0.054000000000000006,-0.054000000000000006,-0.043,-0.043,-0.032,-0.032,-0.032,-0.032,-0.043,-0.043,-0.032,-0.032,-0.032,-0.021,-0.021,-0.032,-0.032,-0.032,-0.032,-0.021,-0.01,-0.01,-0.01,-0.01,-0.01,-0.01,-0.01,-0.01,-0.01,0.001,0.001,0.001,-0.01,-0.01,-0.01,-0.01,0.001,0.001,0.001,0.001,0.001,0.001,-0.01,-0.01,0.001,0.001,0.001,0.001,0.001,0.001,0.001,0.001,0.001,0.001,0.001,0.001,0.001,0.001,0.001,0.001,0.001,0.001,0.001,0.001,0.001,0.001,0.001,0.001,0.001,0.001,0.001,0.001,0.001,0.001,0.001,0.001,0.001,0.001,0.001,0.001,0.001,0.001,0.001,0.001,0.001,0.001,0.001,0.001,0.001,0.001,0.001,0.001,0.001,0.001,0.001,0.001,0.001,0.001,0.001,0.001,0.001,0.001,0.001,0.001,0.001,0.001,0.011000000000000001,0.001,0.001,0.001,0.001,0.001,0.001,0.001,0.001,0.001,0.001,0.001,0.001,0.001,0.001,0.001,0.001,0.001,0.001,0.001,0.001,0.001,0.001,0.001,0.001,0.001,0.001,0.001,0.001,0.001,0.001,0.001,0.011000000000000001,0.001,0.001,0.001,0.001,0.001,0.001,0.001,0.001,0.001,0.001,0.001,0.001,0.001,0.001,0.001,0.001,0.001,0.001,0.001,0.001,0.001,0.001,0.001,0.001,0.001,0.001,0.001,0.001,0.001,0.001,0.001,0.001,0.001,0.001,0.001,0.001,0.001,0.001,0.001,0.001,0.001,0.001,0.001,0.001,0.001,0.001,0.001,0.001,0.001,0.001,0.001,0.001,0.001,0.001,0.001,0.001,0.001,0.001,0.001,0.001,0.001,0.001,0.001,0.001,0.001,0.001,0.001,0.001,0.001,0.001,0.001,0.001,0.001,0.001,0.001,0.001,0.001,0.001,0.001,0.001,0.001,0.001,0.001,0.001,0.001,0.001,0.001,0.001,0.001,0.001,0.001,0.001,0.001,0.001,0.001,0.001,0.001,0.001,0.001,0.001,0.001,0.001,0.001,0.001,0.001,0.001,0.001,0.001,0.001,0.001,0.001,0.001,0.001,0.001,0.001,0.001,0.001,0.001,0.001,0.001,0.001,0.001,0.001,0.011000000000000001,0.011000000000000001,0.011000000000000001,0.001,0.001,0.001,0.001,0.001,0.011000000000000001,0.011000000000000001,0.011000000000000001,0.011000000000000001,0.001,0.001,0.001,0.011000000000000001,0.011000000000000001,0.011000000000000001,0.011000000000000001,0.011000000000000001,0.001,0.001,0.001,0.001,0.001,0.001,0.001,0.001,0.001,0.001,-0.01,-0.01,0.001,0.001,0.001,0.001,0.001,-0.01,-0.01,-0.01,-0.01,0.001,0.001,0.001,0.001,0.001,-0.01,0.001,0.001,0.001,0.001,0.001,0.001,0.001,0.001,0.001,0.001,0.011000000000000001,0.011000000000000001,0.022000000000000002,0.022000000000000002,0.011000000000000001,0.034,0.055999999999999994,0.111,0.187,0.264,0.35100000000000003,0.428,0.483,0.527,0.5489999999999999,0.56,0.5379999999999999,0.516,0.483,0.428,0.341,0.231,0.154,0.077,0.011000000000000001,-0.021,-0.065,-0.087,-0.098,-0.098,-0.087,-0.087,-0.076,-0.076,-0.076,-0.065,-0.054000000000000006,-0.054000000000000006,-0.054000000000000006,-0.054000000000000006,-0.054000000000000006,-0.054000000000000006,-0.043,-0.043,-0.032,-0.043,-0.043,-0.054000000000000006,-0.054000000000000006,-0.054000000000000006,-0.043,-0.043,-0.032,-0.032,-0.043,-0.043,-0.054000000000000006,-0.054000000000000006,-0.043,-0.043,-0.032,-0.032,-0.043,-0.043,-0.054000000000000006,-0.054000000000000006,-0.054000000000000006,-0.043,-0.032,-0.032,-0.032,-0.043,-0.043,-0.054000000000000006,-0.054000000000000006,-0.043,-0.043,-0.032,-0.043,-0.043,-0.054000000000000006,-0.054000000000000006,-0.054000000000000006,-0.054000000000000006,-0.043,-0.032,-0.032,-0.043,-0.043,-0.054000000000000006,-0.054000000000000006,-0.043,-0.043,-0.032,-0.032,-0.032,-0.043,-0.043,-0.054000000000000006,-0.043,-0.032,-0.032,-0.032,-0.032,-0.032,-0.043,-0.043,-0.043,-0.043,-0.032,-0.032,-0.021,-0.032,-0.032,-0.032,-0.032,-0.032,-0.032,-0.021,-0.021,-0.021,-0.032,-0.032,-0.032,-0.032,-0.021,-0.021,-0.021,-0.021,-0.021,-0.032,-0.032,-0.032,-0.032,-0.021,-0.021,-0.021,-0.021,-0.032,-0.032,-0.032,-0.032,-0.021,-0.021,-0.021,-0.021,-0.032,-0.032,-0.032,-0.032,-0.032,-0.021,-0.021,-0.021,-0.032,-0.032,-0.032,-0.032,-0.032,-0.032,-0.021,-0.021,-0.021,-0.032,-0.032,-0.032,-0.032,-0.021,-0.021,-0.01,-0.01,-0.021,-0.032,-0.032,-0.021,-0.021,-0.01,-0.01,-0.01,-0.01,-0.01,-0.021,-0.01,-0.01,-0.01,-0.01,0.001,0.001,-0.01,-0.01,-0.01,-0.01,0.001,0.001,0.001,0.001,0.001,0.001,0.001,0.001,0.001,0.001,0.001,0.001,0.001,0.001,0.001,0.001,0.001,0.001,0.011000000000000001,0.011000000000000001,0.001,0.001,0.001,0.001,0.001,0.011000000000000001,0.011000000000000001,0.011000000000000001,0.011000000000000001,0.011000000000000001,0.001,0.001,0.001,0.011000000000000001,0.011000000000000001,0.011000000000000001,0.011000000000000001,0.011000000000000001,0.011000000000000001,0.001,0.011000000000000001,0.011000000000000001,0.011000000000000001,0.022000000000000002,0.011000000000000001,0.011000000000000001,0.011000000000000001,0.011000000000000001,0.011000000000000001,0.011000000000000001,0.011000000000000001,0.011000000000000001,0.022000000000000002,0.022000000000000002,0.022000000000000002,0.011000000000000001,0.011000000000000001,0.011000000000000001,0.022000000000000002,0.022000000000000002,0.022000000000000002,0.022000000000000002,0.022000000000000002,0.022000000000000002,0.011000000000000001,0.011000000000000001,0.022000000000000002,0.022000000000000002,0.034,0.022000000000000002,0.022000000000000002,0.022000000000000002,0.011000000000000001,0.011000000000000001,0.011000000000000001,0.022000000000000002,0.022000000000000002,0.022000000000000002,0.022000000000000002,0.011000000000000001,0.011000000000000001,0.011000000000000001,0.011000000000000001,0.011000000000000001,0.022000000000000002,0.022000000000000002,0.022000000000000002,0.011000000000000001,0.011000000000000001,0.011000000000000001,0.011000000000000001,0.011000000000000001,0.022000000000000002,0.022000000000000002,0.022000000000000002,0.011000000000000001,0.011000000000000001,0.001,0.011000000000000001,0.011000000000000001,0.011000000000000001,0.011000000000000001,0.011000000000000001,0.011000000000000001,0.011000000000000001,0.011000000000000001,0.001,0.001,0.011000000000000001,0.011000000000000001,0.011000000000000001,0.011000000000000001,0.011000000000000001,0.011000000000000001,0.001,0.001,0.001,0.011000000000000001,0.011000000000000001,0.011000000000000001,0.011000000000000001,0.011000000000000001,0.001,0.001,0.001,0.011000000000000001,0.011000000000000001,0.011000000000000001,0.011000000000000001,0.011000000000000001,0.001,0.001,0.011000000000000001,0.011000000000000001,0.011000000000000001,0.011000000000000001,0.011000000000000001,0.011000000000000001,0.001,0.001,0.001,0.011000000000000001,0.011000000000000001,0.011000000000000001,0.011000000000000001,0.011000000000000001,0.011000000000000001,0.001,N
6,-0.065,-0.065,-0.065,-0.076,-0.076,-0.065,-0.065,-0.054000000000000006,-0.054000000000000006,-0.054000000000000006,-0.054000000000000006,-0.065,-0.065,-0.065,-0.065,-0.054000000000000006,-0.054000000000000006,-0.054000000000000006,-0.054000000000000006,-0.054000000000000006,-0.065,-0.065,-0.065,-0.065,-0.054000000000000006,-0.054000000000000006,-0.054000000000000006,-0.054000000000000006,-0.054000000000000006,-0.054000000000000006,-0.065,-0.054000000000000006,-0.054000000000000006,-0.043,-0.043,-0.054000000000000006,-0.065,-0.065,-0.076,-0.065,-0.054000000000000006,-0.054000000000000006,-0.054000000000000006,-0.054000000000000006,-0.054000000000000006,-0.065,-0.065,-0.065,-0.054000000000000006,-0.054000000000000006,-0.043,-0.043,-0.054000000000000006,-0.054000000000000006,-0.054000000000000006,-0.054000000000000006,-0.054000000000000006,-0.054000000000000006,-0.043,-0.043,-0.043,-0.054000000000000006,-0.054000000000000006,-0.054000000000000006,-0.054000000000000006,-0.043,-0.043,-0.043,-0.043,-0.043,-0.043,-0.054000000000000006,-0.054000000000000006,-0.043,-0.043,-0.043,-0.032,-0.043,-0.054000000000000006,-0.054000000000000006,-0.054000000000000006,-0.054000000000000006,-0.043,-0.043,-0.043,-0.043,-0.043,-0.054000000000000006,-0.054000000000000006,-0.043,-0.032,-0.032,-0.032,-0.032,-0.043,-0.054000000000000006,-0.054000000000000006,-0.043,-0.043,-0.032,-0.032,-0.032,-0.043,-0.054000000000000006,-0.054000000000000006,-0.054000000000000006,-0.043,-0.043,-0.032,-0.032,-0.032,-0.032,-0.043,-0.043,-0.032,-0.032,-0.032,-0.021,-0.021,-0.032,-0.032,-0.032,-0.032,-0.021,-0.01,-0.01,-0.01,-0.01,-0.01,-0.01,-0.01,-0.01,-0.01,0.001,0.001,0.001,-0.01,-0.01,-0.01,-0.01,0.001,0.001,0.001,0.001,0.001,0.001,-0.01,-0.01,0.001,0.001,0.001,0.001,0.001,0.001,0.001,0.001,0.001,0.001,0.001,0.001,0.001,0.001,0.001,0.001,0.001,0.001,0.001,0.001,0.001,0.001,0.001,0.001,0.001,0.001,0.001,0.001,0.001,0.001,0.001,0.001,0.001,0.001,0.001,0.001,0.001,0.001,0.001,0.001,0.001,0.001,0.001,0.001,0.001,0.001,0.001,0.001,0.001,0.001,0.001,0.001,0.001,0.001,0.001,0.001,0.001,0.001,0.001,0.001,0.001,0.001,0.011000000000000001,0.001,0.001,0.001,0.001,0.001,0.001,0.001,0.001,0.001,0.001,0.001,0.001,0.001,0.001,0.001,0.001,0.001,0.001,0.001,0.001,0.001,0.001,0.001,0.001,0.001,0.001,0.001,0.001,0.001,0.001,0.001,0.011000000000000001,0.001,0.001,0.001,0.001,0.001,0.001,0.001,0.001,0.001,0.001,0.001,0.001,0.001,0.001,0.001,0.001,0.001,0.001,0.001,0.001,0.001,0.001,0.001,0.001,0.001,0.001,0.001,0.001,0.001,0.001,0.001,0.001,0.001,0.001,0.001,0.001,0.001,0.001,0.001,0.001,0.001,0.001,0.001,0.001,0.001,0.001,0.001,0.001,0.001,0.001,0.001,0.001,0.001,0.001,0.001,0.001,0.001,0.001,0.001,0.001,0.001,0.001,0.001,0.001,0.001,0.001,0.001,0.001,0.001,0.001,0.001,0.001,0.001,0.001,0.001,0.001,0.001,0.001,0.001,0.001,0.001,0.001,0.001,0.001,0.001,0.001,0.001,0.001,0.001,0.001,0.001,0.001,0.001,0.001,0.001,0.001,0.001,0.001,0.001,0.001,0.001,0.001,0.001,0.001,0.001,0.001,0.001,0.001,0.001,0.001,0.001,0.001,0.001,0.001,0.001,0.001,0.001,0.001,0.001,0.001,0.001,0.001,0.001,0.011000000000000001,0.011000000000000001,0.011000000000000001,0.001,0.001,0.001,0.001,0.001,0.011000000000000001,0.011000000000000001,0.011000000000000001,0.011000000000000001,0.001,0.001,0.001,0.011000000000000001,0.011000000000000001,0.011000000000000001,0.011000000000000001,0.011000000000000001,0.001,0.001,0.001,0.001,0.001,0.001,0.001,0.001,0.001,0.001,-0.01,-0.01,0.001,0.001,0.001,0.001,0.001,-0.01,-0.01,-0.01,-0.01,0.001,0.001,0.001,0.001,0.001,-0.01,0.001,0.001,0.001,0.001,0.001,0.001,0.001,0.001,0.001,0.001,0.011000000000000001,0.011000000000000001,0.022000000000000002,0.022000000000000002,0.011000000000000001,0.034,0.055999999999999994,0.111,0.187,0.264,0.35100000000000003,0.428,0.483,0.527,0.5489999999999999,0.56,0.5379999999999999,0.516,0.483,0.428,0.341,0.231,0.154,0.077,0.011000000000000001,-0.021,-0.065,-0.087,-0.098,-0.098,-0.087,-0.087,-0.076,-0.076,-0.076,-0.065,-0.054000000000000006,-0.054000000000000006,-0.054000000000000006,-0.054000000000000006,-0.054000000000000006,-0.054000000000000006,-0.043,-0.043,-0.032,-0.043,-0.043,-0.054000000000000006,-0.054000000000000006,-0.054000000000000006,-0.043,-0.043,-0.032,-0.032,-0.043,-0.043,-0.054000000000000006,-0.054000000000000006,-0.043,-0.043,-0.032,-0.032,-0.043,-0.043,-0.054000000000000006,-0.054000000000000006,-0.054000000000000006,-0.043,-0.032,-0.032,-0.032,-0.043,-0.043,-0.054000000000000006,-0.054000000000000006,-0.043,-0.043,-0.032,-0.043,-0.043,-0.054000000000000006,-0.054000000000000006,-0.054000000000000006,-0.054000000000000006,-0.043,-0.032,-0.032,-0.043,-0.043,-0.054000000000000006,-0.054000000000000006,-0.043,-0.043,-0.032,-0.032,-0.032,-0.043,-0.043,-0.054000000000000006,-0.043,-0.032,-0.032,-0.032,-0.032,-0.032,-0.043,-0.043,-0.043,-0.043,-0.032,-0.032,-0.021,-0.032,-0.032,-0.032,-0.032,-0.032,-0.032,-0.021,-0.021,-0.021,-0.032,-0.032,-0.032,-0.032,-0.021,-0.021,-0.021,-0.021,-0.021,-0.032,-0.032,-0.032,-0.032,-0.021,-0.021,-0.021,-0.021,-0.032,-0.032,-0.032,-0.032,-0.021,-0.021,-0.021,-0.021,-0.032,-0.032,-0.032,-0.032,-0.032,-0.021,-0.021,-0.021,-0.032,-0.032,-0.032,-0.032,-0.032,-0.032,-0.021,-0.021,-0.021,-0.032,-0.032,-0.032,-0.032,-0.021,-0.021,-0.01,-0.01,-0.021,-0.032,-0.032,-0.021,-0.021,-0.01,-0.01,-0.01,-0.01,-0.01,-0.021,-0.01,-0.01,-0.01,-0.01,0.001,0.001,-0.01,-0.01,-0.01,-0.01,0.001,0.001,0.001,0.001,0.001,0.001,0.001,0.001,0.001,0.001,0.001,0.001,0.001,0.001,0.001,0.001,0.001,0.001,0.011000000000000001,0.011000000000000001,0.001,0.001,0.001,0.001,0.001,0.011000000000000001,0.011000000000000001,0.011000000000000001,0.011000000000000001,0.011000000000000001,0.001,0.001,0.001,0.011000000000000001,0.011000000000000001,0.011000000000000001,0.011000000000000001,0.011000000000000001,0.011000000000000001,0.001,0.011000000000000001,0.011000000000000001,0.011000000000000001,0.022000000000000002,0.011000000000000001,0.011000000000000001,0.011000000000000001,0.011000000000000001,0.011000000000000001,0.011000000000000001,0.011000000000000001,0.011000000000000001,0.022000000000000002,0.022000000000000002,0.022000000000000002,0.011000000000000001,0.011000000000000001,0.011000000000000001,0.022000000000000002,0.022000000000000002,0.022000000000000002,0.022000000000000002,0.022000000000000002,0.022000000000000002,0.011000000000000001,0.011000000000000001,0.022000000000000002,0.022000000000000002,0.034,0.022000000000000002,0.022000000000000002,0.022000000000000002,0.011000000000000001,0.011000000000000001,0.011000000000000001,0.022000000000000002,0.022000000000000002,0.022000000000000002,0.022000000000000002,0.011000000000000001,0.011000000000000001,0.011000000000000001,0.011000000000000001,0.011000000000000001,0.022000000000000002,0.022000000000000002,0.022000000000000002,0.011000000000000001,0.011000000000000001,0.011000000000000001,0.011000000000000001,0.011000000000000001,0.022000000000000002,0.022000000000000002,0.022000000000000002,0.011000000000000001,0.011000000000000001,0.001,0.011000000000000001,0.011000000000000001,0.011000000000000001,0.011000000000000001,0.011000000000000001,0.011000000000000001,0.011000000000000001,0.011000000000000001,0.001,0.001,0.011000000000000001,0.011000000000000001,0.011000000000000001,0.011000000000000001,0.011000000000000001,0.011000000000000001,0.001,0.001,0.001,0.011000000000000001,0.011000000000000001,0.011000000000000001,0.011000000000000001,0.011000000000000001,0.001,0.001,0.001,0.011000000000000001,0.011000000000000001,0.011000000000000001,0.011000000000000001,0.011000000000000001,0.001,0.001,0.011000000000000001,0.011000000000000001,0.011000000000000001,0.011000000000000001,0.011000000000000001,0.011000000000000001,0.001,0.001,0.001,0.011000000000000001,0.011000000000000001,0.011000000000000001,0.011000000000000001,0.011000000000000001,0.011000000000000001,0.001,0.001,0.001,0.011000000000000001,0.011000000000000001,0.011000000000000001,0.011000000000000001,0.001,0.001,0.001,0.001,0.001,0.011000000000000001,0.011000000000000001,0.011000000000000001,0.011000000000000001,0.001,0.001,0.001,0.001,0.011000000000000001,0.011000000000000001,0.011000000000000001,0.011000000000000001,0.001,0.001,0.001,0.001,0.001,0.011000000000000001,0.011000000000000001,0.011000000000000001,0.001,0.001,0.001,0.011000000000000001,0.011000000000000001,0.011000000000000001,0.022000000000000002,0.022000000000000002,0.022000000000000002,0.011000000000000001,0.011000000000000001,0.011000000000000001,0.011000000000000001,0.022000000000000002,0.022000000000000002,0.022000000000000002,0.011000000000000001,0.011000000000000001,0.011000000000000001,0.011000000000000001,0.011000000000000001,0.022000000000000002,0.022000000000000002,0.022000000000000002,0.022000000000000002,0.011000000000000001,0.011000000000000001,0.011000000000000001,0.011000000000000001,0.011000000000000001,0.022000000000000002,0.011000000000000001,0.011000000000000001,0.011000000000000001,0.001,0.001,0.001,0.001,0.001,0.001,0.001,-0.01,-0.01,-0.01,-0.01,-0.01,0.001,0.001,0.001,0.001,0.001,-0.01,-0.01,-0.01,0.001,0.001,0.001,0.001,0.001,0.001,0.001,0.001,0.011000000000000001,0.034,0.034,0.034,0.034,0.044000000000000004,0.067,0.121,0.187,0.275,0.36200000000000004,0.428,0.494,0.5379999999999999,0.5489999999999999,0.5489999999999999,0.5489999999999999,0.516,0.483,0.44,0.36200000000000004,0.275,0.17600000000000002,0.1,0.034,-0.01,-0.054000000000000006,-0.087,-0.098,-0.098,-0.098,-0.087,-0.087,-0.087,-0.076,-0.065,-0.065,-0.065,-0.054000000000000006,-0.054000000000000006,-0.054000000000000006,-0.054000000000000006,-0.054000000000000006,-0.043,-0.043,-0.043,-0.054000000000000006,-0.054000000000000006,-0.054000000000000006,-0.054000000000000006,-0.054000000000000006,-0.043,-0.043,-0.043,-0.043,-0.054000000000000006,-0.054000000000000006,-0.054000000000000006,-0.054000000000000006,-0.054000000000000006,-0.043,-0.043,-0.043,-0.054000000000000006,-0.054000000000000006,-0.054000000000000006,-0.054000000000000006,-0.054000000000000006,-0.043,-0.043,-0.043,-0.054000000000000006,-0.054000000000000006,-0.054000000000000006,-0.054000000000000006,-0.054000000000000006,-0.054000000000000006,-0.043,-0.043,-0.043,-0.054000000000000006,-0.054000000000000006,-0.054000000000000006,-0.054000000000000006,-0.054000000000000006,-0.043,-0.043,-0.043,-0.054000000000000006,-0.054000000000000006,-0.054000000000000006,-0.054000000000000006,-0.054000000000000006,-0.043,-0.043,-0.043,-0.043,-0.054000000000000006,-0.054000000000000006,-0.054000000000000006,-0.043,-0.043,-0.032,-0.032,-0.043,-0.043,-0.043,-0.043,-0.043,-0.032,-0.032,-0.032,-0.032,-0.043,-0.043,-0.043,-0.043,-0.032,-0.032,-0.021,-0.021,-0.032,-0.032,-0.032,-0.032,-0.032,-0.021,-0.021,-0.021,-0.021,-0.032,-0.032,-0.032,-0.032,-0.032,-0.021,-0.021,-0.021,-0.032,-0.032,-0.032,-0.032,-0.021,-0.01,N
7,-0.054000000000000006,-0.054000000000000006,-0.054000000000000006,-0.054000000000000006,-0.054000000000000006,-0.054000000000000006,-0.043,-0.043,-0.032,-0.043,-0.043,-0.054000000000000006,-0.054000000000000006,-0.054000000000000006,-0.043,-0.043,-0.032,-0.032,-0.043,-0.043,-0.054000000000000006,-0.054000000000000006,-0.043,-0.043,-0.032,-0.032,-0.043,-0.043,-0.054000000000000006,-0.054000000000000006,-0.054000000000000006,-0.043,-0.032,-0.032,-0.032,-0.043,-0.043,-0.054000000000000006,-0.054000000000000006,-0.043,-0.043,-0.032,-0.043,-0.043,-0.054000000000000006,-0.054000000000000006,-0.054000000000000006,-0.054000000000000006,-0.043,-0.032,-0.032,-0.043,-0.043,-0.054000000000000006,-0.054000000000000006,-0.043,-0.043,-0.032,-0.032,-0.032,-0.043,-0.043,-0.054000000000000006,-0.043,-0.032,-0.032,-0.032,-0.032,-0.032,-0.043,-0.043,-0.043,-0.043,-0.032,-0.032,-0.021,-0.032,-0.032,-0.032,-0.032,-0.032,-0.032,-0.021,-0.021,-0.021,-0.032,-0.032,-0.032,-0.032,-0.021,-0.021,-0.021,-0.021,-0.021,-0.032,-0.032,-0.032,-0.032,-0.021,-0.021,-0.021,-0.021,-0.032,-0.032,-0.032,-0.032,-0.021,-0.021,-0.021,-0.021,-0.032,-0.032,-0.032,-0.032,-0.032,-0.021,-0.021,-0.021,-0.032,-0.032,-0.032,-0.032,-0.032,-0.032,-0.021,-0.021,-0.021,-0.032,-0.032,-0.032,-0.032,-0.021,-0.021,-0.01,-0.01,-0.021,-0.032,-0.032,-0.021,-0.021,-0.01,-0.01,-0.01,-0.01,-0.01,-0.021,-0.01,-0.01,-0.01,-0.01,0.001,0.001,-0.01,-0.01,-0.01,-0.01,0.001,0.001,0.001,0.001,0.001,0.001,0.001,0.001,0.001,0.001,0.001,0.001,0.001,0.001,0.001,0.001,0.001,0.001,0.011000000000000001,0.011000000000000001,0.001,0.001,0.001,0.001,0.001,0.011000000000000001,0.011000000000000001,0.011000000000000001,0.011000000000000001,0.011000000000000001,0.001,0.001,0.001,0.011000000000000001,0.011000000000000001,0.011000000000000001,0.011000000000000001,0.011000000000000001,0.011000000000000001,0.001,0.011000000000000001,0.011000000000000001,0.011000000000000001,0.022000000000000002,0.011000000000000001,0.011000000000000001,0.011000000000000001,0.011000000000000001,0.011000000000000001,0.011000000000000001,0.011000000000000001,0.011000000000000001,0.022000000000000002,0.022000000000000002,0.022000000000000002,0.011000000000000001,0.011000000000000001,0.011000000000000001,0.022000000000000002,0.022000000000000002,0.022000000000000002,0.022000000000000002,0.022000000000000002,0.022000000000000002,0.011000000000000001,0.011000000000000001,0.022000000000000002,0.022000000000000002,0.034,0.022000000000000002,0.022000000000000002,0.022000000000000002,0.011000000000000001,0.011000000000000001,0.011000000000000001,0.022000000000000002,0.022000000000000002,0.022000000000000002,0.022000000000000002,0.011000000000000001,0.011000000000000001,0.011000000000000001,0.011000000000000001,0.011000000000000001,0.022000000000000002,0.022000000000000002,0.022000000000000002,0.011000000000000001,0.011000000000000001,0.011000000000000001,0.011000000000000001,0.011000000000000001,0.022000000000000002,0.022000000000000002,0.022000000000000002,0.011000000000000001,0.011000000000000001,0.001,0.011000000000000001,0.011000000000000001,0.011000000000000001,0.011000000000000001,0.011000000000000001,0.011000000000000001,0.011000000000000001,0.011000000000000001,0.001,0.001,0.011000000000000001,0.011000000000000001,0.011000000000000001,0.011000000000000001,0.011000000000000001,0.011000000000000001,0.001,0.001,0.001,0.011000000000000001,0.011000000000000001,0.011000000000000001,0.011000000000000001,0.011000000000000001,0.001,0.001,0.001,0.011000000000000001,0.011000000000000001,0.011000000000000001,0.011000000000000001,0.011000000000000001,0.001,0.001,0.011000000000000001,0.011000000000000001,0.011000000000000001,0.011000000000000001,0.011000000000000001,0.011000000000000001,0.001,0.001,0.001,0.011000000000000001,0.011000000000000001,0.011000000000000001,0.011000000000000001,0.011000000000000001,0.011000000000000001,0.001,0.001,0.001,0.011000000000000001,0.011000000000000001,0.011000000000000001,0.011000000000000001,0.001,0.001,0.001,0.001,0.001,0.011000000000000001,0.011000000000000001,0.011000000000000001,0.011000000000000001,0.001,0.001,0.001,0.001,0.011000000000000001,0.011000000000000001,0.011000000000000001,0.011000000000000001,0.001,0.001,0.001,0.001,0.001,0.011000000000000001,0.011000000000000001,0.011000000000000001,0.001,0.001,0.001,0.011000000000000001,0.011000000000000001,0.011000000000000001,0.022000000000000002,0.022000000000000002,0.022000000000000002,0.011000000000000001,0.011000000000000001,0.011000000000000001,0.011000000000000001,0.022000000000000002,0.022000000000000002,0.022000000000000002,0.011000000000000001,0.011000000000000001,0.011000000000000001,0.011000000000000001,0.011000000000000001,0.022000000000000002,0.022000000000000002,0.022000000000000002,0.022000000000000002,0.011000000000000001,0.011000000000000001,0.011000000000000001,0.011000000000000001,0.011000000000000001,0.022000000000000002,0.011000000000000001,0.011000000000000001,0.011000000000000001,0.001,0.001,0.001,0.001,0.001,0.001,0.001,-0.01,-0.01,-0.01,-0.01,-0.01,0.001,0.001,0.001,0.001,0.001,-0.01,-0.01,-0.01,0.001,0.001,0.001,0.001,0.001,0.001,0.001,0.001,0.011000000000000001,0.034,0.034,0.034,0.034,0.044000000000000004,0.067,0.121,0.187,0.275,0.36200000000000004,0.428,0.494,0.5379999999999999,0.5489999999999999,0.5489999999999999,0.5489999999999999,0.516,0.483,0.44,0.36200000000000004,0.275,0.17600000000000002,0.1,0.034,-0.01,-0.054000000000000006,-0.087,-0.098,-0.098,-0.098,-0.087,-0.087,-0.087,-0.076,-0.065,-0.065,-0.065,-0.054000000000000006,-0.054000000000000006,-0.054000000000000006,-0.054000000000000006,-0.054000000000000006,-0.043,-0.043,-0.043,-0.054000000000000006,-0.054000000000000006,-0.054000000000000006,-0.054000000000000006,-0.054000000000000006,-0.043,-0.043,-0.043,-0.043,-0.054000000000000006,-0.054000000000000006,-0.054000000000000006,-0.054000000000000006,-0.054000000000000006,-0.043,-0.043,-0.043,-0.054000000000000006,-0.054000000000000006,-0.054000000000000006,-0.054000000000000006,-0.054000000000000006,-0.043,-0.043,-0.043,-0.054000000000000006,-0.054000000000000006,-0.054000000000000006,-0.054000000000000006,-0.054000000000000006,-0.054000000000000006,-0.043,-0.043,-0.043,-0.054000000000000006,-0.054000000000000006,-0.054000000000000006,-0.054000000000000006,-0.054000000000000006,-0.043,-0.043,-0.043,-0.054000000000000006,-0.054000000000000006,-0.054000000000000006,-0.054000000000000006,-0.054000000000000006,-0.043,-0.043,-0.043,-0.043,-0.054000000000000006,-0.054000000000000006,-0.054000000000000006,-0.043,-0.043,-0.032,-0.032,-0.043,-0.043,-0.043,-0.043,-0.043,-0.032,-0.032,-0.032,-0.032,-0.043,-0.043,-0.043,-0.043,-0.032,-0.032,-0.021,-0.021,-0.032,-0.032,-0.032,-0.032,-0.032,-0.021,-0.021,-0.021,-0.021,-0.032,-0.032,-0.032,-0.032,-0.032,-0.021,-0.021,-0.021,-0.032,-0.032,-0.032,-0.032,-0.021,-0.01,-0.01,-0.01,-0.01,-0.01,-0.01,-0.01,-0.021,-0.01,-0.021,-0.021,-0.032,-0.032,-0.032,-0.043,-0.032,-0.032,-0.032,-0.032,-0.032,-0.043,-0.054000000000000006,-0.054000000000000006,-0.054000000000000006,-0.054000000000000006,-0.043,-0.043,-0.043,-0.043,-0.043,-0.054000000000000006,-0.043,-0.043,-0.032,-0.021,-0.021,-0.021,-0.032,-0.032,-0.032,-0.032,-0.021,-0.01,-0.01,-0.021,-0.021,-0.021,-0.032,-0.021,-0.01,-0.01,-0.01,-0.01,-0.01,-0.01,-0.021,-0.021,-0.01,-0.01,0.001,0.001,0.001,-0.01,-0.01,-0.01,-0.01,-0.01,0.001,0.001,-0.01,-0.01,-0.01,-0.01,-0.01,-0.01,0.001,0.001,0.001,0.001,0.001,-0.01,-0.01,0.001,0.001,0.001,0.001,0.001,0.001,-0.01,0.001,0.001,0.011000000000000001,0.022000000000000002,0.034,0.044000000000000004,0.044000000000000004,0.044000000000000004,0.044000000000000004,0.055999999999999994,0.08800000000000001,0.14300000000000002,0.209,0.264,0.33,0.406,0.483,0.56,0.636,0.703,0.725,0.6920000000000001,0.615,0.505,0.396,0.319,0.253,0.17600000000000002,0.08800000000000001,0.034,-0.01,-0.043,-0.065,-0.065,-0.076,-0.076,-0.076,-0.076,-0.076,-0.065,-0.076,-0.065,-0.065,-0.065,-0.054000000000000006,-0.043,-0.054000000000000006,-0.054000000000000006,-0.054000000000000006,-0.065,-0.065,-0.054000000000000006,-0.054000000000000006,-0.054000000000000006,-0.054000000000000006,-0.054000000000000006,-0.054000000000000006,-0.065,-0.065,-0.065,-0.054000000000000006,-0.054000000000000006,-0.054000000000000006,-0.054000000000000006,-0.054000000000000006,-0.065,-0.065,-0.065,-0.054000000000000006,-0.054000000000000006,-0.054000000000000006,-0.054000000000000006,-0.054000000000000006,-0.054000000000000006,-0.065,-0.065,-0.065,-0.054000000000000006,-0.054000000000000006,-0.043,-0.043,-0.054000000000000006,-0.054000000000000006,-0.054000000000000006,-0.054000000000000006,-0.054000000000000006,-0.054000000000000006,-0.054000000000000006,-0.054000000000000006,-0.054000000000000006,-0.054000000000000006,-0.054000000000000006,-0.054000000000000006,-0.054000000000000006,-0.043,-0.043,-0.043,-0.054000000000000006,-0.054000000000000006,-0.065,-0.054000000000000006,-0.054000000000000006,-0.054000000000000006,-0.043,-0.043,-0.043,-0.043,-0.054000000000000006,-0.054000000000000006,-0.054000000000000006,-0.043,-0.043,-0.043,-0.043,-0.043,-0.054000000000000006,-0.054000000000000006,-0.054000000000000006,-0.043,-0.043,-0.032,-0.032,-0.032,-0.032,-0.043,-0.043,-0.043,-0.043,-0.032,-0.032,-0.043,-0.043,-0.054000000000000006,-0.054000000000000006,-0.043,-0.043,-0.032,-0.032,-0.032,-0.032,-0.043,-0.043,-0.043,-0.032,-0.032,-0.032,-0.032,-0.032,-0.032,-0.043,-0.032,-0.032,-0.032,-0.021,-0.021,-0.021,-0.032,-0.032,-0.032,-0.021,-0.021,-0.01,-0.01,-0.01,-0.01,-0.01,-0.021,-0.021,-0.01,-0.01,0.001,0.001,-0.01,-0.01,-0.01,-0.01,-0.01,0.001,0.001,0.001,0.001,-0.01,0.001,-0.01,0.001,0.001,0.001,0.001,0.001,0.001,0.001,0.001,0.001,0.001,0.001,0.001,0.001,0.001,0.001,0.001,0.001,0.001,0.001,0.001,0.001,0.001,0.001,0.001,0.001,0.001,0.001,0.001,0.001,0.001,0.001,0.001,0.001,0.001,0.001,0.001,0.001,0.001,0.001,0.001,0.001,0.001,0.001,0.001,0.011000000000000001,0.001,0.001,0.001,0.001,0.001,0.001,0.001,0.001,0.011000000000000001,0.011000000000000001,0.001,0.001,0.001,0.001,0.001,0.001,0.001,0.011000000000000001,0.001,0.001,0.001,0.001,0.001,0.001,0.011000000000000001,0.011000000000000001,0.011000000000000001,0.001,0.001,0.001,0.001,0.001,0.001,0.011000000000000001,0.011000000000000001,0.001,0.001,0.001,0.001,0.001,0.001,0.011000000000000001,0.011000000000000001,0.001,0.001,0.001,0.001,0.001,0.001,0.001,0.011000000000000001,0.001,0.001,0.001,0.001,0.001,0.001,0.011000000000000001,0.011000000000000001,0.001,0.001,0.001,0.001,0.001,0.001,0.001,0.001,0.011000000000000001,0.001,0.001,0.001,0.001,0.001,0.001,0.011000000000000001,0.011000000000000001,0.011000000000000001,0.001,0.001,0.001,0.001,0.001,0.001,0.011000000000000001,0.011000000000000001,0.001,0.001,0.001,0.001,0.001,0.001,0.001,0.001,0.001,0.001,0.001,0.001,0.001,0.001,0.011000000000000001,0.011000000000000001,0.001,0.001,0.001,0.001,0.001,0.001,0.001,0.001,0.011000000000000001,0.001,0.001,0.001,0.001,0.001,0.001,0.011000000000000001,0.011000000000000001,0.001,0.001,0.001,0.001,0.001,0.001,0.001,0.011000000000000001,0.001,0.001,0.001,0.001,0.001,0.001,0.001,0.011000000000000001,0.001,0.001,0.001,0.001,0.001,0.001,0.001,0.011000000000000001,N
8,-0.065,-0.065,-0.065,-0.054000000000000006,-0.054000000000000006,-0.054000000000000006,-0.054000000000000006,-0.054000000000000006,-0.043,-0.043,-0.043,-0.054000000000000006,-0.054000000000000006,-0.054000000000000006,-0.054000000000000006,-0.054000000000000006,-0.043,-0.043,-0.043,-0.043,-0.054000000000000006,-0.054000000000000006,-0.054000000000000006,-0.054000000000000006,-0.054000000000000006,-0.043,-0.043,-0.043,-0.054000000000000006,-0.054000000000000006,-0.054000000000000006,-0.054000000000000006,-0.054000000000000006,-0.043,-0.043,-0.043,-0.054000000000000006,-0.054000000000000006,-0.054000000000000006,-0.054000000000000006,-0.054000000000000006,-0.054000000000000006,-0.043,-0.043,-0.043,-0.054000000000000006,-0.054000000000000006,-0.054000000000000006,-0.054000000000000006,-0.054000000000000006,-0.043,-0.043,-0.043,-0.054000000000000006,-0.054000000000000006,-0.054000000000000006,-0.054000000000000006,-0.054000000000000006,-0.043,-0.043,-0.043,-0.043,-0.054000000000000006,-0.054000000000000006,-0.054000000000000006,-0.043,-0.043,-0.032,-0.032,-0.043,-0.043,-0.043,-0.043,-0.043,-0.032,-0.032,-0.032,-0.032,-0.043,-0.043,-0.043,-0.043,-0.032,-0.032,-0.021,-0.021,-0.032,-0.032,-0.032,-0.032,-0.032,-0.021,-0.021,-0.021,-0.021,-0.032,-0.032,-0.032,-0.032,-0.032,-0.021,-0.021,-0.021,-0.032,-0.032,-0.032,-0.032,-0.021,-0.01,-0.01,-0.01,-0.01,-0.01,-0.01,-0.01,-0.021,-0.01,-0.021,-0.021,-0.032,-0.032,-0.032,-0.043,-0.032,-0.032,-0.032,-0.032,-0.032,-0.043,-0.054000000000000006,-0.054000000000000006,-0.054000000000000006,-0.054000000000000006,-0.043,-0.043,-0.043,-0.043,-0.043,-0.054000000000000006,-0.043,-0.043,-0.032,-0.021,-0.021,-0.021,-0.032,-0.032,-0.032,-0.032,-0.021,-0.01,-0.01,-0.021,-0.021,-0.021,-0.032,-0.021,-0.01,-0.01,-0.01,-0.01,-0.01,-0.01,-0.021,-0.021,-0.01,-0.01,0.001,0.001,0.001,-0.01,-0.01,-0.01,-0.01,-0.01,0.001,0.001,-0.01,-0.01,-0.01,-0.01,-0.01,-0.01,0.001,0.001,0.001,0.001,0.001,-0.01,-0.01,0.001,0.001,0.001,0.001,0.001,0.001,-0.01,0.001,0.001,0.011000000000000001,0.022000000000000002,0.034,0.044000000000000004,0.044000000000000004,0.044000000000000004,0.044000000000000004,0.055999999999999994,0.08800000000000001,0.14300000000000002,0.209,0.264,0.33,0.406,0.483,0.56,0.636,0.703,0.725,0.6920000000000001,0.615,0.505,0.396,0.319,0.253,0.17600000000000002,0.08800000000000001,0.034,-0.01,-0.043,-0.065,-0.065,-0.076,-0.076,-0.076,-0.076,-0.076,-0.065,-0.076,-0.065,-0.065,-0.065,-0.054000000000000006,-0.043,-0.054000000000000006,-0.054000000000000006,-0.054000000000000006,-0.065,-0.065,-0.054000000000000006,-0.054000000000000006,-0.054000000000000006,-0.054000000000000006,-0.054000000000000006,-0.054000000000000006,-0.065,-0.065,-0.065,-0.054000000000000006,-0.054000000000000006,-0.054000000000000006,-0.054000000000000006,-0.054000000000000006,-0.065,-0.065,-0.065,-0.054000000000000006,-0.054000000000000006,-0.054000000000000006,-0.054000000000000006,-0.054000000000000006,-0.054000000000000006,-0.065,-0.065,-0.065,-0.054000000000000006,-0.054000000000000006,-0.043,-0.043,-0.054000000000000006,-0.054000000000000006,-0.054000000000000006,-0.054000000000000006,-0.054000000000000006,-0.054000000000000006,-0.054000000000000006,-0.054000000000000006,-0.054000000000000006,-0.054000000000000006,-0.054000000000000006,-0.054000000000000006,-0.054000000000000006,-0.043,-0.043,-0.043,-0.054000000000000006,-0.054000000000000006,-0.065,-0.054000000000000006,-0.054000000000000006,-0.054000000000000006,-0.043,-0.043,-0.043,-0.043,-0.054000000000000006,-0.054000000000000006,-0.054000000000000006,-0.043,-0.043,-0.043,-0.043,-0.043,-0.054000000000000006,-0.054000000000000006,-0.054000000000000006,-0.043,-0.043,-0.032,-0.032,-0.032,-0.032,-0.043,-0.043,-0.043,-0.043,-0.032,-0.032,-0.043,-0.043,-0.054000000000000006,-0.054000000000000006,-0.043,-0.043,-0.032,-0.032,-0.032,-0.032,-0.043,-0.043,-0.043,-0.032,-0.032,-0.032,-0.032,-0.032,-0.032,-0.043,-0.032,-0.032,-0.032,-0.021,-0.021,-0.021,-0.032,-0.032,-0.032,-0.021,-0.021,-0.01,-0.01,-0.01,-0.01,-0.01,-0.021,-0.021,-0.01,-0.01,0.001,0.001,-0.01,-0.01,-0.01,-0.01,-0.01,0.001,0.001,0.001,0.001,-0.01,0.001,-0.01,0.001,0.001,0.001,0.001,0.001,0.001,0.001,0.001,0.001,0.001,0.001,0.001,0.001,0.001,0.001,0.001,0.001,0.001,0.001,0.001,0.001,0.001,0.001,0.001,0.001,0.001,0.001,0.001,0.001,0.001,0.001,0.001,0.001,0.001,0.001,0.001,0.001,0.001,0.001,0.001,0.001,0.001,0.001,0.001,0.011000000000000001,0.001,0.001,0.001,0.001,0.001,0.001,0.001,0.001,0.011000000000000001,0.011000000000000001,0.001,0.001,0.001,0.001,0.001,0.001,0.001,0.011000000000000001,0.001,0.001,0.001,0.001,0.001,0.001,0.011000000000000001,0.011000000000000001,0.011000000000000001,0.001,0.001,0.001,0.001,0.001,0.001,0.011000000000000001,0.011000000000000001,0.001,0.001,0.001,0.001,0.001,0.001,0.011000000000000001,0.011000000000000001,0.001,0.001,0.001,0.001,0.001,0.001,0.001,0.011000000000000001,0.001,0.001,0.001,0.001,0.001,0.001,0.011000000000000001,0.011000000000000001,0.001,0.001,0.001,0.001,0.001,0.001,0.001,0.001,0.011000000000000001,0.001,0.001,0.001,0.001,0.001,0.001,0.011000000000000001,0.011000000000000001,0.011000000000000001,0.001,0.001,0.001,0.001,0.001,0.001,0.011000000000000001,0.011000000000000001,0.001,0.001,0.001,0.001,0.001,0.001,0.001,0.001,0.001,0.001,0.001,0.001,0.001,0.001,0.011000000000000001,0.011000000000000001,0.001,0.001,0.001,0.001,0.001,0.001,0.001,0.001,0.011000000000000001,0.001,0.001,0.001,0.001,0.001,0.001,0.011000000000000001,0.011000000000000001,0.001,0.001,0.001,0.001,0.001,0.001,0.001,0.011000000000000001,0.001,0.001,0.001,0.001,0.001,0.001,0.001,0.011000000000000001,0.001,0.001,0.001,0.001,0.001,0.001,0.001,0.011000000000000001,0.011000000000000001,0.001,0.001,0.001,0.001,0.001,0.001,0.011000000000000001,0.011000000000000001,0.011000000000000001,0.001,0.001,0.001,0.001,0.001,0.001,0.001,0.011000000000000001,0.001,0.001,0.001,0.001,0.001,0.001,0.001,0.011000000000000001,0.001,0.001,0.001,0.001,0.001,0.001,0.001,0.011000000000000001,0.011000000000000001,0.001,0.001,0.001,0.001,0.011000000000000001,0.011000000000000001,0.011000000000000001,0.011000000000000001,0.011000000000000001,0.011000000000000001,0.001,0.011000000000000001,0.011000000000000001,0.011000000000000001,0.011000000000000001,0.022000000000000002,0.022000000000000002,0.011000000000000001,0.011000000000000001,0.011000000000000001,0.011000000000000001,0.011000000000000001,0.022000000000000002,0.022000000000000002,0.011000000000000001,0.011000000000000001,0.011000000000000001,0.001,0.001,0.001,0.011000000000000001,0.001,0.001,0.001,0.001,0.001,-0.01,-0.01,0.001,0.001,0.001,0.001,-0.01,-0.01,-0.01,-0.01,0.001,0.001,0.001,0.001,0.001,0.001,-0.01,0.001,0.001,0.001,0.001,0.011000000000000001,0.001,0.001,0.001,0.011000000000000001,0.022000000000000002,0.034,0.034,0.034,0.055999999999999994,0.077,0.121,0.187,0.275,0.35100000000000003,0.44,0.494,0.5379999999999999,0.5489999999999999,0.5489999999999999,0.527,0.494,0.462,0.41700000000000004,0.35100000000000003,0.253,0.165,0.08800000000000001,0.034,-0.01,-0.054000000000000006,-0.087,-0.098,-0.087,-0.087,-0.087,-0.076,-0.076,-0.076,-0.065,-0.054000000000000006,-0.054000000000000006,-0.054000000000000006,-0.054000000000000006,-0.054000000000000006,-0.054000000000000006,-0.054000000000000006,-0.043,-0.043,-0.032,-0.032,-0.043,-0.054000000000000006,-0.054000000000000006,-0.054000000000000006,-0.043,-0.043,-0.032,-0.032,-0.043,-0.043,-0.054000000000000006,-0.043,-0.043,-0.043,-0.032,-0.032,-0.043,-0.043,-0.043,-0.054000000000000006,-0.054000000000000006,-0.043,-0.032,-0.032,-0.032,-0.043,-0.043,-0.054000000000000006,-0.054000000000000006,-0.043,-0.043,-0.032,-0.032,-0.043,-0.043,-0.043,-0.054000000000000006,-0.043,-0.043,-0.032,-0.032,-0.032,-0.043,-0.043,-0.054000000000000006,-0.043,-0.032,-0.032,-0.032,-0.032,-0.032,-0.043,-0.043,-0.043,-0.043,-0.032,-0.032,-0.032,-0.032,-0.032,-0.032,-0.032,-0.032,-0.032,-0.021,-0.021,-0.021,-0.032,-0.032,-0.032,-0.032,-0.021,-0.021,-0.01,-0.021,-0.021,-0.032,-0.032,-0.032,-0.021,-0.01,-0.01,-0.01,-0.021,-0.021,-0.032,-0.032,-0.021,-0.021,-0.01,-0.01,-0.021,-0.021,-0.032,-0.032,-0.032,-0.021,-0.021,-0.021,-0.021,-0.021,-0.032,-0.032,-0.021,-0.021,-0.021,-0.01,-0.01,-0.021,-0.021,-0.032,-0.032,-0.021,-0.021,-0.01,-0.01,-0.021,-0.021,-0.032,-0.032,-0.021,-0.021,-0.01,-0.01,-0.01,-0.021,-0.021,-0.021,-0.021,-0.01,-0.01,-0.01,-0.01,-0.01,-0.01,-0.01,-0.01,-0.01,0.001,0.001,0.001,0.001,-0.01,-0.01,-0.01,-0.01,0.001,0.001,0.001,0.001,0.001,0.001,0.001,0.001,0.001,0.001,0.001,0.001,0.001,0.001,0.001,0.001,0.001,0.001,0.011000000000000001,0.011000000000000001,0.001,0.001,0.001,0.001,0.001,0.001,0.001,0.011000000000000001,0.011000000000000001,0.001,0.001,0.001,0.001,0.001,0.011000000000000001,0.011000000000000001,0.011000000000000001,0.011000000000000001,0.001,0.001,0.001,0.011000000000000001,0.011000000000000001,0.011000000000000001,0.011000000000000001,0.011000000000000001,0.011000000000000001,0.001,0.001,0.011000000000000001,0.011000000000000001,0.011000000000000001,0.022000000000000002,0.022000000000000002,0.011000000000000001,0.011000000000000001,0.011000000000000001,0.011000000000000001,0.011000000000000001,0.011000000000000001,0.022000000000000002,0.011000000000000001,0.011000000000000001,0.011000000000000001,0.011000000000000001,0.001,0.011000000000000001,0.011000000000000001,0.011000000000000001,0.022000000000000002,0.011000000000000001,0.011000000000000001,0.011000000000000001,0.001,0.011000000000000001,0.011000000000000001,0.011000000000000001,0.011000000000000001,0.011000000000000001,0.011000000000000001,0.001,0.001,0.001,0.011000000000000001,0.011000000000000001,0.011000000000000001,0.011000000000000001,0.011000000000000001,0.001,0.001,0.001,0.001,0.001,0.011000000000000001,0.011000000000000001,0.011000000000000001,0.001,0.001,0.001,0.001,0.001,0.011000000000000001,0.011000000000000001,0.001,0.001,0.001,0.001,0.001,0.001,0.001,0.011000000000000001,0.001,0.001,0.001,0.001,0.001,0.001,0.001,0.001,0.001,0.001,0.001,0.001,0.001,0.001,0.001,0.001,0.001,0.001,0.001,0.001,-0.01,0.001,0.001,0.001,0.001,0.001,0.001,0.001,0.001,-0.01,0.001,0.001,N
9,-0.065,-0.065,-0.065,-0.054000000000000006,-0.043,-0.054000000000000006,-0.054000000000000006,-0.054000000000000006,-0.065,-0.065,-0.054000000000000006,-0.054000000000000006,-0.054000000000000006,-0.054000000000000006,-0.054000000000000006,-0.054000000000000006,-0.065,-0.065,-0.065,-0.054000000000000006,-0.054000000000000006,-0.054000000000000006,-0.054000000000000006,-0.054000000000000006,-0.065,-0.065,-0.065,-0.054000000000000006,-0.054000000000000006,-0.054000000000000006,-0.054000000000000006,-0.054000000000000006,-0.054000000000000006,-0.065,-0.065,-0.065,-0.054000000000000006,-0.054000000000000006,-0.043,-0.043,-0.054000000000000006,-0.054000000000000006,-0.054000000000000006,-0.054000000000000006,-0.054000000000000006,-0.054000000000000006,-0.054000000000000006,-0.054000000000000006,-0.054000000000000006,-0.054000000000000006,-0.054000000000000006,-0.054000000000000006,-0.054000000000000006,-0.043,-0.043,-0.043,-0.054000000000000006,-0.054000000000000006,-0.065,-0.054000000000000006,-0.054000000000000006,-0.054000000000000006,-0.043,-0.043,-0.043,-0.043,-0.054000000000000006,-0.054000000000000006,-0.054000000000000006,-0.043,-0.043,-0.043,-0.043,-0.043,-0.054000000000000006,-0.054000000000000006,-0.054000000000000006,-0.043,-0.043,-0.032,-0.032,-0.032,-0.032,-0.043,-0.043,-0.043,-0.043,-0.032,-0.032,-0.043,-0.043,-0.054000000000000006,-0.054000000000000006,-0.043,-0.043,-0.032,-0.032,-0.032,-0.032,-0.043,-0.043,-0.043,-0.032,-0.032,-0.032,-0.032,-0.032,-0.032,-0.043,-0.032,-0.032,-0.032,-0.021,-0.021,-0.021,-0.032,-0.032,-0.032,-0.021,-0.021,-0.01,-0.01,-0.01,-0.01,-0.01,-0.021,-0.021,-0.01,-0.01,0.001,0.001,-0.01,-0.01,-0.01,-0.01,-0.01,0.001,0.001,0.001,0.001,-0.01,0.001,-0.01,0.001,0.001,0.001,0.001,0.001,0.001,0.001,0.001,0.001,0.001,0.001,0.001,0.001,0.001,0.001,0.001,0.001,0.001,0.001,0.001,0.001,0.001,0.001,0.001,0.001,0.001,0.001,0.001,0.001,0.001,0.001,0.001,0.001,0.001,0.001,0.001,0.001,0.001,0.001,0.001,0.001,0.001,0.001,0.001,0.011000000000000001,0.001,0.001,0.001,0.001,0.001,0.001,0.001,0.001,0.011000000000000001,0.011000000000000001,0.001,0.001,0.001,0.001,0.001,0.001,0.001,0.011000000000000001,0.001,0.001,0.001,0.001,0.001,0.001,0.011000000000000001,0.011000000000000001,0.011000000000000001,0.001,0.001,0.001,0.001,0.001,0.001,0.011000000000000001,0.011000000000000001,0.001,0.001,0.001,0.001,0.001,0.001,0.011000000000000001,0.011000000000000001,0.001,0.001,0.001,0.001,0.001,0.001,0.001,0.011000000000000001,0.001,0.001,0.001,0.001,0.001,0.001,0.011000000000000001,0.011000000000000001,0.001,0.001,0.001,0.001,0.001,0.001,0.001,0.001,0.011000000000000001,0.001,0.001,0.001,0.001,0.001,0.001,0.011000000000000001,0.011000000000000001,0.011000000000000001,0.001,0.001,0.001,0.001,0.001,0.001,0.011000000000000001,0.011000000000000001,0.001,0.001,0.001,0.001,0.001,0.001,0.001,0.001,0.001,0.001,0.001,0.001,0.001,0.001,0.011000000000000001,0.011000000000000001,0.001,0.001,0.001,0.001,0.001,0.001,0.001,0.001,0.011000000000000001,0.001,0.001,0.001,0.001,0.001,0.001,0.011000000000000001,0.011000000000000001,0.001,0.001,0.001,0.001,0.001,0.001,0.001,0.011000000000000001,0.001,0.001,0.001,0.001,0.001,0.001,0.001,0.011000000000000001,0.001,0.001,0.001,0.001,0.001,0.001,0.001,0.011000000000000001,0.011000000000000001,0.001,0.001,0.001,0.001,0.001,0.001,0.011000000000000001,0.011000000000000001,0.011000000000000001,0.001,0.001,0.001,0.001,0.001,0.001,0.001,0.011000000000000001,0.001,0.001,0.001,0.001,0.001,0.001,0.001,0.011000000000000001,0.001,0.001,0.001,0.001,0.001,0.001,0.001,0.011000000000000001,0.011000000000000001,0.001,0.001,0.001,0.001,0.011000000000000001,0.011000000000000001,0.011000000000000001,0.011000000000000001,0.011000000000000001,0.011000000000000001,0.001,0.011000000000000001,0.011000000000000001,0.011000000000000001,0.011000000000000001,0.022000000000000002,0.022000000000000002,0.011000000000000001,0.011000000000000001,0.011000000000000001,0.011000000000000001,0.011000000000000001,0.022000000000000002,0.022000000000000002,0.011000000000000001,0.011000000000000001,0.011000000000000001,0.001,0.001,0.001,0.011000000000000001,0.001,0.001,0.001,0.001,0.001,-0.01,-0.01,0.001,0.001,0.001,0.001,-0.01,-0.01,-0.01,-0.01,0.001,0.001,0.001,0.001,0.001,0.001,-0.01,0.001,0.001,0.001,0.001,0.011000000000000001,0.001,0.001,0.001,0.011000000000000001,0.022000000000000002,0.034,0.034,0.034,0.055999999999999994,0.077,0.121,0.187,0.275,0.35100000000000003,0.44,0.494,0.5379999999999999,0.5489999999999999,0.5489999999999999,0.527,0.494,0.462,0.41700000000000004,0.35100000000000003,0.253,0.165,0.08800000000000001,0.034,-0.01,-0.054000000000000006,-0.087,-0.098,-0.087,-0.087,-0.087,-0.076,-0.076,-0.076,-0.065,-0.054000000000000006,-0.054000000000000006,-0.054000000000000006,-0.054000000000000006,-0.054000000000000006,-0.054000000000000006,-0.054000000000000006,-0.043,-0.043,-0.032,-0.032,-0.043,-0.054000000000000006,-0.054000000000000006,-0.054000000000000006,-0.043,-0.043,-0.032,-0.032,-0.043,-0.043,-0.054000000000000006,-0.043,-0.043,-0.043,-0.032,-0.032,-0.043,-0.043,-0.043,-0.054000000000000006,-0.054000000000000006,-0.043,-0.032,-0.032,-0.032,-0.043,-0.043,-0.054000000000000006,-0.054000000000000006,-0.043,-0.043,-0.032,-0.032,-0.043,-0.043,-0.043,-0.054000000000000006,-0.043,-0.043,-0.032,-0.032,-0.032,-0.043,-0.043,-0.054000000000000006,-0.043,-0.032,-0.032,-0.032,-0.032,-0.032,-0.043,-0.043,-0.043,-0.043,-0.032,-0.032,-0.032,-0.032,-0.032,-0.032,-0.032,-0.032,-0.032,-0.021,-0.021,-0.021,-0.032,-0.032,-0.032,-0.032,-0.021,-0.021,-0.01,-0.021,-0.021,-0.032,-0.032,-0.032,-0.021,-0.01,-0.01,-0.01,-0.021,-0.021,-0.032,-0.032,-0.021,-0.021,-0.01,-0.01,-0.021,-0.021,-0.032,-0.032,-0.032,-0.021,-0.021,-0.021,-0.021,-0.021,-0.032,-0.032,-0.021,-0.021,-0.021,-0.01,-0.01,-0.021,-0.021,-0.032,-0.032,-0.021,-0.021,-0.01,-0.01,-0.021,-0.021,-0.032,-0.032,-0.021,-0.021,-0.01,-0.01,-0.01,-0.021,-0.021,-0.021,-0.021,-0.01,-0.01,-0.01,-0.01,-0.01,-0.01,-0.01,-0.01,-0.01,0.001,0.001,0.001,0.001,-0.01,-0.01,-0.01,-0.01,0.001,0.001,0.001,0.001,0.001,0.001,0.001,0.001,0.001,0.001,0.001,0.001,0.001,0.001,0.001,0.001,0.001,0.001,0.011000000000000001,0.011000000000000001,0.001,0.001,0.001,0.001,0.001,0.001,0.001,0.011000000000000001,0.011000000000000001,0.001,0.001,0.001,0.001,0.001,0.011000000000000001,0.011000000000000001,0.011000000000000001,0.011000000000000001,0.001,0.001,0.001,0.011000000000000001,0.011000000000000001,0.011000000000000001,0.011000000000000001,0.011000000000000001,0.011000000000000001,0.001,0.001,0.011000000000000001,0.011000000000000001,0.011000000000000001,0.022000000000000002,0.022000000000000002,0.011000000000000001,0.011000000000000001,0.011000000000000001,0.011000000000000001,0.011000000000000001,0.011000000000000001,0.022000000000000002,0.011000000000000001,0.011000000000000001,0.011000000000000001,0.011000000000000001,0.001,0.011000000000000001,0.011000000000000001,0.011000000000000001,0.022000000000000002,0.011000000000000001,0.011000000000000001,0.011000000000000001,0.001,0.011000000000000001,0.011000000000000001,0.011000000000000001,0.011000000000000001,0.011000000000000001,0.011000000000000001,0.001,0.001,0.001,0.011000000000000001,0.011000000000000001,0.011000000000000001,0.011000000000000001,0.011000000000000001,0.001,0.001,0.001,0.001,0.001,0.011000000000000001,0.011000000000000001,0.011000000000000001,0.001,0.001,0.001,0.001,0.001,0.011000000000000001,0.011000000000000001,0.001,0.001,0.001,0.001,0.001,0.001,0.001,0.011000000000000001,0.001,0.001,0.001,0.001,0.001,0.001,0.001,0.001,0.001,0.001,0.001,0.001,0.001,0.001,0.001,0.001,0.001,0.001,0.001,0.001,-0.01,0.001,0.001,0.001,0.001,0.001,0.001,0.001,0.001,-0.01,0.001,0.001,0.001,0.001,0.001,0.001,-0.01,-0.01,0.001,0.001,0.001,0.001,0.001,0.001,0.001,0.001,0.001,0.001,0.001,0.001,0.001,0.001,0.001,-0.01,-0.01,-0.01,0.001,0.001,0.001,0.001,0.001,-0.01,-0.01,-0.01,0.001,0.001,0.001,0.001,0.001,0.001,0.001,0.001,0.001,0.001,0.001,0.001,0.001,0.001,0.001,0.001,0.001,0.001,0.001,0.011000000000000001,0.011000000000000001,0.001,0.001,0.001,0.001,0.001,0.011000000000000001,0.011000000000000001,0.001,0.001,0.001,0.001,0.001,0.001,0.001,0.001,0.001,0.001,0.001,-0.01,-0.01,-0.01,-0.01,-0.01,-0.01,-0.021,-0.021,-0.021,-0.021,-0.021,-0.01,-0.01,-0.01,-0.01,-0.01,-0.01,-0.021,-0.01,-0.01,-0.01,0.001,0.001,0.001,0.001,0.001,0.001,0.001,0.011000000000000001,0.011000000000000001,0.022000000000000002,0.034,0.077,0.133,0.209,0.297,0.385,0.462,0.5379999999999999,0.5820000000000001,0.604,0.604,0.5820000000000001,0.5489999999999999,0.505,0.428,0.33,0.242,0.154,0.077,0.011000000000000001,-0.032,-0.076,-0.098,-0.109,-0.098,-0.087,-0.098,-0.098,-0.098,-0.087,-0.087,-0.076,-0.065,-0.065,-0.065,-0.065,-0.065,-0.065,-0.054000000000000006,-0.054000000000000006,-0.054000000000000006,-0.054000000000000006,-0.054000000000000006,-0.054000000000000006,-0.065,-0.054000000000000006,-0.054000000000000006,-0.054000000000000006,-0.054000000000000006,-0.054000000000000006,-0.054000000000000006,-0.054000000000000006,-0.054000000000000006,-0.065,-0.065,-0.054000000000000006,-0.054000000000000006,-0.054000000000000006,-0.054000000000000006,-0.054000000000000006,-0.054000000000000006,-0.065,-0.054000000000000006,-0.054000000000000006,-0.054000000000000006,-0.054000000000000006,-0.054000000000000006,-0.054000000000000006,-0.065,-0.065,-0.065,-0.065,-0.054000000000000006,-0.054000000000000006,-0.054000000000000006,-0.054000000000000006,-0.054000000000000006,-0.065,-0.065,-0.065,-0.054000000000000006,-0.054000000000000006,-0.054000000000000006,-0.054000000000000006,-0.054000000000000006,-0.065,-0.065,-0.065,-0.054000000000000006,-0.054000000000000006,-0.054000000000000006,-0.043,-0.054000000000000006,-0.054000000000000006,-0.054000000000000006,-0.054000000000000006,-0.054000000000000006,-0.054000000000000006,-0.054000000000000006,-0.043,-0.043,-0.054000000000000006,-0.054000000000000006,-0.054000000000000006,-0.054000000000000006,-0.043,-0.043,-0.043,-0.043,-0.043,-0.043,-0.043,-0.043,-0.043,-0.032,-0.032,-0.032,-0.032,-0.043,-0.043,-0.043,-0.043,-0.032,-0.032,-0.032,-0.032,-0.043,-0.043,-0.043,-0.043,-0.032,-0.032,-0.032,-0.032,-0.032,-0.043,N
10,-0.065,-0.054000000000000006,-0.054000000000000006,-0.054000000000000006,-0.054000000000000006,-0.054000000000000006,-0.054000000000000006,-0.054000000000000006,-0.043,-0.043,-0.032,-0.032,-0.043,-0.054000000000000006,-0.054000000000000006,-0.054000000000000006,-0.043,-0.043,-0.032,-0.032,-0.043,-0.043,-0.054000000000000006,-0.043,-0.043,-0.043,-0.032,-0.032,-0.043,-0.043,-0.043,-0.054000000000000006,-0.054000000000000006,-0.043,-0.032,-0.032,-0.032,-0.043,-0.043,-0.054000000000000006,-0.054000000000000006,-0.043,-0.043,-0.032,-0.032,-0.043,-0.043,-0.043,-0.054000000000000006,-0.043,-0.043,-0.032,-0.032,-0.032,-0.043,-0.043,-0.054000000000000006,-0.043,-0.032,-0.032,-0.032,-0.032,-0.032,-0.043,-0.043,-0.043,-0.043,-0.032,-0.032,-0.032,-0.032,-0.032,-0.032,-0.032,-0.032,-0.032,-0.021,-0.021,-0.021,-0.032,-0.032,-0.032,-0.032,-0.021,-0.021,-0.01,-0.021,-0.021,-0.032,-0.032,-0.032,-0.021,-0.01,-0.01,-0.01,-0.021,-0.021,-0.032,-0.032,-0.021,-0.021,-0.01,-0.01,-0.021,-0.021,-0.032,-0.032,-0.032,-0.021,-0.021,-0.021,-0.021,-0.021,-0.032,-0.032,-0.021,-0.021,-0.021,-0.01,-0.01,-0.021,-0.021,-0.032,-0.032,-0.021,-0.021,-0.01,-0.01,-0.021,-0.021,-0.032,-0.032,-0.021,-0.021,-0.01,-0.01,-0.01,-0.021,-0.021,-0.021,-0.021,-0.01,-0.01,-0.01,-0.01,-0.01,-0.01,-0.01,-0.01,-0.01,0.001,0.001,0.001,0.001,-0.01,-0.01,-0.01,-0.01,0.001,0.001,0.001,0.001,0.001,0.001,0.001,0.001,0.001,0.001,0.001,0.001,0.001,0.001,0.001,0.001,0.001,0.001,0.011000000000000001,0.011000000000000001,0.001,0.001,0.001,0.001,0.001,0.001,0.001,0.011000000000000001,0.011000000000000001,0.001,0.001,0.001,0.001,0.001,0.011000000000000001,0.011000000000000001,0.011000000000000001,0.011000000000000001,0.001,0.001,0.001,0.011000000000000001,0.011000000000000001,0.011000000000000001,0.011000000000000001,0.011000000000000001,0.011000000000000001,0.001,0.001,0.011000000000000001,0.011000000000000001,0.011000000000000001,0.022000000000000002,0.022000000000000002,0.011000000000000001,0.011000000000000001,0.011000000000000001,0.011000000000000001,0.011000000000000001,0.011000000000000001,0.022000000000000002,0.011000000000000001,0.011000000000000001,0.011000000000000001,0.011000000000000001,0.001,0.011000000000000001,0.011000000000000001,0.011000000000000001,0.022000000000000002,0.011000000000000001,0.011000000000000001,0.011000000000000001,0.001,0.011000000000000001,0.011000000000000001,0.011000000000000001,0.011000000000000001,0.011000000000000001,0.011000000000000001,0.001,0.001,0.001,0.011000000000000001,0.011000000000000001,0.011000000000000001,0.011000000000000001,0.011000000000000001,0.001,0.001,0.001,0.001,0.001,0.011000000000000001,0.011000000000000001,0.011000000000000001,0.001,0.001,0.001,0.001,0.001,0.011000000000000001,0.011000000000000001,0.001,0.001,0.001,0.001,0.001,0.001,0.001,0.011000000000000001,0.001,0.001,0.001,0.001,0.001,0.001,0.001,0.001,0.001,0.001,0.001,0.001,0.001,0.001,0.001,0.001,0.001,0.001,0.001,0.001,-0.01,0.001,0.001,0.001,0.001,0.001,0.001,0.001,0.001,-0.01,0.001,0.001,0.001,0.001,0.001,0.001,-0.01,-0.01,0.001,0.001,0.001,0.001,0.001,0.001,0.001,0.001,0.001,0.001,0.001,0.001,0.001,0.001,0.001,-0.01,-0.01,-0.01,0.001,0.001,0.001,0.001,0.001,-0.01,-0.01,-0.01,0.001,0.001,0.001,0.001,0.001,0.001,0.001,0.001,0.001,0.001,0.001,0.001,0.001,0.001,0.001,0.001,0.001,0.001,0.001,0.011000000000000001,0.011000000000000001,0.001,0.001,0.001,0.001,0.001,0.011000000000000001,0.011000000000000001,0.001,0.001,0.001,0.001,0.001,0.001,0.001,0.001,0.001,0.001,0.001,-0.01,-0.01,-0.01,-0.01,-0.01,-0.01,-0.021,-0.021,-0.021,-0.021,-0.021,-0.01,-0.01,-0.01,-0.01,-0.01,-0.01,-0.021,-0.01,-0.01,-0.01,0.001,0.001,0.001,0.001,0.001,0.001,0.001,0.011000000000000001,0.011000000000000001,0.022000000000000002,0.034,0.077,0.133,0.209,0.297,0.385,0.462,0.5379999999999999,0.5820000000000001,0.604,0.604,0.5820000000000001,0.5489999999999999,0.505,0.428,0.33,0.242,0.154,0.077,0.011000000000000001,-0.032,-0.076,-0.098,-0.109,-0.098,-0.087,-0.098,-0.098,-0.098,-0.087,-0.087,-0.076,-0.065,-0.065,-0.065,-0.065,-0.065,-0.065,-0.054000000000000006,-0.054000000000000006,-0.054000000000000006,-0.054000000000000006,-0.054000000000000006,-0.054000000000000006,-0.065,-0.054000000000000006,-0.054000000000000006,-0.054000000000000006,-0.054000000000000006,-0.054000000000000006,-0.054000000000000006,-0.054000000000000006,-0.054000000000000006,-0.065,-0.065,-0.054000000000000006,-0.054000000000000006,-0.054000000000000006,-0.054000000000000006,-0.054000000000000006,-0.054000000000000006,-0.065,-0.054000000000000006,-0.054000000000000006,-0.054000000000000006,-0.054000000000000006,-0.054000000000000006,-0.054000000000000006,-0.065,-0.065,-0.065,-0.065,-0.054000000000000006,-0.054000000000000006,-0.054000000000000006,-0.054000000000000006,-0.054000000000000006,-0.065,-0.065,-0.065,-0.054000000000000006,-0.054000000000000006,-0.054000000000000006,-0.054000000000000006,-0.054000000000000006,-0.065,-0.065,-0.065,-0.054000000000000006,-0.054000000000000006,-0.054000000000000006,-0.043,-0.054000000000000006,-0.054000000000000006,-0.054000000000000006,-0.054000000000000006,-0.054000000000000006,-0.054000000000000006,-0.054000000000000006,-0.043,-0.043,-0.054000000000000006,-0.054000000000000006,-0.054000000000000006,-0.054000000000000006,-0.043,-0.043,-0.043,-0.043,-0.043,-0.043,-0.043,-0.043,-0.043,-0.032,-0.032,-0.032,-0.032,-0.043,-0.043,-0.043,-0.043,-0.032,-0.032,-0.032,-0.032,-0.043,-0.043,-0.043,-0.043,-0.032,-0.032,-0.032,-0.032,-0.032,-0.043,-0.032,-0.032,-0.032,-0.021,-0.01,-0.01,-0.021,-0.032,-0.032,-0.032,-0.032,-0.032,-0.032,-0.032,-0.032,-0.043,-0.054000000000000006,-0.054000000000000006,-0.054000000000000006,-0.043,-0.043,-0.043,-0.043,-0.054000000000000006,-0.054000000000000006,-0.065,-0.065,-0.054000000000000006,-0.054000000000000006,-0.043,-0.054000000000000006,-0.054000000000000006,-0.054000000000000006,-0.054000000000000006,-0.054000000000000006,-0.043,-0.032,-0.032,-0.032,-0.032,-0.032,-0.043,-0.032,-0.032,-0.021,-0.021,-0.021,-0.021,-0.021,-0.032,-0.032,-0.032,-0.021,-0.01,-0.01,-0.01,-0.01,-0.021,-0.021,-0.021,-0.01,-0.01,-0.01,-0.01,-0.01,-0.01,-0.01,-0.01,-0.01,-0.01,0.001,0.001,0.001,-0.01,-0.01,-0.01,-0.01,0.001,0.001,0.001,0.001,0.001,0.001,0.001,0.001,0.001,0.001,0.001,0.001,0.011000000000000001,0.011000000000000001,0.011000000000000001,0.011000000000000001,0.022000000000000002,0.034,0.034,0.034,0.044000000000000004,0.077,0.121,0.187,0.253,0.33,0.406,0.47200000000000003,0.527,0.5710000000000001,0.5820000000000001,0.5820000000000001,0.5489999999999999,0.505,0.428,0.341,0.264,0.187,0.121,0.055999999999999994,0.011000000000000001,-0.01,-0.021,-0.021,-0.021,-0.032,-0.054000000000000006,-0.065,-0.076,-0.076,-0.065,-0.054000000000000006,-0.054000000000000006,-0.054000000000000006,-0.054000000000000006,-0.054000000000000006,-0.054000000000000006,-0.054000000000000006,-0.054000000000000006,-0.043,-0.043,-0.043,-0.043,-0.054000000000000006,-0.054000000000000006,-0.054000000000000006,-0.054000000000000006,-0.054000000000000006,-0.043,-0.043,-0.043,-0.054000000000000006,-0.054000000000000006,-0.054000000000000006,-0.054000000000000006,-0.054000000000000006,-0.043,-0.043,-0.043,-0.043,-0.054000000000000006,-0.054000000000000006,-0.054000000000000006,-0.054000000000000006,-0.054000000000000006,-0.043,-0.043,-0.054000000000000006,-0.054000000000000006,-0.054000000000000006,-0.054000000000000006,-0.054000000000000006,-0.054000000000000006,-0.043,-0.043,-0.043,-0.054000000000000006,-0.054000000000000006,-0.054000000000000006,-0.054000000000000006,-0.054000000000000006,-0.054000000000000006,-0.043,-0.043,-0.054000000000000006,-0.054000000000000006,-0.054000000000000006,-0.054000000000000006,-0.054000000000000006,-0.054000000000000006,-0.043,-0.043,-0.043,-0.054000000000000006,-0.054000000000000006,-0.054000000000000006,-0.054000000000000006,-0.043,-0.043,-0.032,-0.043,-0.054000000000000006,-0.054000000000000006,-0.054000000000000006,-0.054000000000000006,-0.043,-0.043,-0.043,-0.043,-0.043,-0.054000000000000006,-0.054000000000000006,-0.054000000000000006,-0.054000000000000006,-0.054000000000000006,-0.043,-0.043,-0.043,-0.054000000000000006,-0.054000000000000006,-0.065,-0.054000000000000006,-0.054000000000000006,-0.043,-0.054000000000000006,-0.054000000000000006,-0.054000000000000006,-0.054000000000000006,-0.054000000000000006,-0.054000000000000006,-0.054000000000000006,-0.054000000000000006,-0.043,-0.043,-0.054000000000000006,-0.054000000000000006,-0.054000000000000006,-0.054000000000000006,-0.054000000000000006,-0.043,-0.032,-0.032,-0.032,-0.043,-0.043,-0.043,-0.043,-0.032,-0.032,-0.021,-0.021,-0.032,-0.032,-0.032,-0.032,-0.021,-0.01,-0.01,-0.01,-0.01,-0.01,-0.01,-0.01,0.001,0.001,0.001,0.001,0.001,0.001,0.001,0.001,0.001,0.001,0.011000000000000001,0.011000000000000001,0.011000000000000001,0.011000000000000001,0.001,0.001,0.001,0.011000000000000001,0.011000000000000001,0.011000000000000001,0.011000000000000001,0.011000000000000001,0.001,0.001,0.001,0.001,0.011000000000000001,0.011000000000000001,0.011000000000000001,0.011000000000000001,0.001,0.001,0.001,0.001,0.011000000000000001,0.011000000000000001,0.011000000000000001,0.011000000000000001,0.001,0.001,0.001,0.001,0.001,0.011000000000000001,0.011000000000000001,0.011000000000000001,0.011000000000000001,0.001,0.001,0.001,0.001,0.011000000000000001,0.011000000000000001,0.011000000000000001,0.011000000000000001,0.011000000000000001,0.001,0.001,0.001,0.011000000000000001,0.011000000000000001,0.011000000000000001,0.011000000000000001,0.011000000000000001,0.001,0.001,0.001,0.011000000000000001,0.011000000000000001,0.011000000000000001,0.011000000000000001,0.011000000000000001,0.001,0.001,0.001,0.001,0.011000000000000001,0.011000000000000001,0.011000000000000001,0.011000000000000001,0.011000000000000001,0.001,0.001,0.001,0.001,0.011000000000000001,0.011000000000000001,0.011000000000000001,0.001,0.001,0.001,0.001,0.001,0.011000000000000001,0.011000000000000001,0.011000000000000001,0.011000000000000001,0.001,0.001,0.001,0.001,0.001,0.011000000000000001,0.011000000000000001,0.011000000000000001,0.001,0.001,0.001,0.001,0.001,0.011000000000000001,0.011000000000000001,0.011000000000000001,0.001,0.001,0.001,0.001,0.001,0.011000000000000001,0.011000000000000001,0.011000000000000001,0.011000000000000001,0.001,0.001,0.001,0.001,0.001,0.011000000000000001,0.011000000000000001,0.011000000000000001,0.001,0.001,0.001,0.001,0.001,0.011000000000000001,0.011000000000000001,0.011000000000000001,0.001,0.001,0.001,0.001,0.001,0.001,0.001,0.011000000000000001,0.001,0.001,0.001,0.001,0.001,0.001,0.011000000000000001,0.011000000000000001,0.001,0.001,0.001,0.001,0.001,0.011000000000000001,0.001,0.011000000000000001,0.001,0.001,0.001,0.001,0.001,0.001,0.001,0.011000000000000001,0.001,0.001,0.001,0.001,0.001,0.001,0.001,0.011000000000000001,0.001,0.001,0.001,0.001,0.001,0.001,0.001,0.001,0.001,0.001,0.001,0.001,0.001,0.001,0.001,0.001,0.001,0.001,0.001,0.001,0.001,0.001,0.001,N
