0,0.135,0.094,0.063,0.042,0.001,-0.03,-0.061,-0.08199999999999999,-0.092,-0.092,-0.092,-0.092,-0.092,-0.113,-0.134,-0.154,-0.154,-0.154,-0.14400000000000002,-0.134,-0.134,-0.134,-0.14400000000000002,-0.154,-0.16399999999999998,-0.154,-0.134,-0.12300000000000001,-0.113,-0.12300000000000001,-0.134,-0.154,-0.154,-0.16399999999999998,-0.154,-0.134,-0.134,-0.12300000000000001,-0.12300000000000001,-0.134,-0.134,-0.134,-0.134,-0.12300000000000001,-0.113,-0.113,-0.134,-0.134,-0.14400000000000002,-0.154,-0.154,-0.134,-0.12300000000000001,-0.102,-0.113,-0.12300000000000001,-0.134,-0.134,-0.134,-0.12300000000000001,-0.113,-0.113,-0.113,-0.134,-0.134,-0.14400000000000002,-0.154,-0.134,-0.12300000000000001,-0.102,-0.092,-0.08199999999999999,-0.092,-0.113,-0.113,-0.113,-0.102,-0.08199999999999999,-0.092,-0.102,-0.113,-0.12300000000000001,-0.12300000000000001,-0.102,-0.102,-0.08199999999999999,-0.08199999999999999,-0.08199999999999999,-0.08199999999999999,-0.092,-0.092,-0.102,-0.092,-0.08199999999999999,-0.071,-0.071,-0.08199999999999999,-0.08199999999999999,-0.113,-0.113,-0.102,-0.08199999999999999,-0.061,-0.04,-0.061,-0.071,-0.08199999999999999,-0.08199999999999999,-0.08199999999999999,-0.08199999999999999,-0.061,-0.051,-0.051,-0.061,-0.08199999999999999,-0.08199999999999999,-0.092,-0.08199999999999999,-0.061,-0.04,-0.04,-0.04,-0.061,-0.08199999999999999,-0.08199999999999999,-0.08199999999999999,-0.071,-0.061,-0.04,-0.04,-0.04,-0.061,-0.071,-0.061,-0.061,-0.04,-0.04,-0.04,-0.04,-0.051,-0.071,-0.08199999999999999,-0.071,-0.061,-0.04,-0.04,-0.04,-0.04,-0.061,-0.061,-0.061,-0.051,-0.03,-0.02,-0.03,-0.051,-0.08199999999999999,-0.08199999999999999,-0.08199999999999999,-0.071,-0.04,-0.03,-0.02,-0.03,-0.04,-0.061,-0.071,-0.051,-0.051,-0.04,-0.04,-0.04,-0.061,-0.08199999999999999,-0.071,-0.061,-0.04,-0.02,-0.02,-0.04,-0.04,-0.04,-0.051,-0.061,-0.061,-0.04,-0.03,-0.04,-0.051,-0.061,-0.061,-0.051,-0.051,-0.04,-0.02,-0.02,-0.04,-0.04,-0.061,-0.061,-0.061,-0.04,-0.02,-0.02,-0.03,-0.03,-0.04,-0.04,-0.04,-0.03,-0.02,-0.009000000000000001,-0.009000000000000001,-0.03,-0.04,-0.051,-0.04,-0.03,-0.009000000000000001,0.001,0.001,0.001,-0.009000000000000001,-0.03,-0.04,-0.03,-0.02,-0.009000000000000001,-0.009000000000000001,-0.009000000000000001,-0.03,-0.03,-0.04,-0.03,-0.009000000000000001,0.001,0.001,0.011000000000000001,0.001,-0.009000000000000001,-0.02,-0.009000000000000001,0.001,0.001,0.001,0.001,0.001,0.001,-0.03,-0.04,-0.03,0.001,0.001,0.011000000000000001,0.001,0.001,-0.02,-0.03,-0.02,-0.009000000000000001,-0.02,0.001,0.001,0.001,0.001,-0.009000000000000001,-0.009000000000000001,0.001,0.001,0.001,0.001,0.001,0.001,-0.009000000000000001,-0.02,0.001,0.021,0.042,0.042,0.042,0.011000000000000001,0.001,0.001,0.001,0.031,0.063,0.083,0.083,0.083,0.063,0.063,0.063,0.083,0.094,0.10400000000000001,0.094,0.083,0.042,0.031,0.021,0.021,0.042,0.052000000000000005,0.063,0.042,0.042,0.001,0.001,0.001,0.001,0.001,0.001,0.001,0.001,-0.04,-0.03,-0.02,-0.009000000000000001,0.001,0.001,0.001,0.001,-0.02,-0.03,-0.03,-0.03,-0.02,0.001,0.001,-0.009000000000000001,-0.03,-0.04,-0.04,-0.03,-0.009000000000000001,0.001,0.001,0.001,-0.009000000000000001,-0.03,-0.04,-0.04,-0.04,-0.04,-0.03,-0.02,-0.03,-0.03,-0.04,-0.03,-0.03,-0.02,-0.009000000000000001,-0.009000000000000001,-0.02,-0.03,-0.04,-0.03,-0.03,-0.04,-0.02,-0.02,-0.02,-0.02,-0.04,-0.04,-0.04,-0.04,-0.02,-0.009000000000000001,0.001,0.001,0.001,0.001,0.011000000000000001,0.042,0.083,0.135,0.17600000000000002,0.217,0.259,0.299,0.341,0.39299999999999996,0.444,0.496,0.547,0.578,0.588,0.598,0.578,0.578,0.578,0.578,0.568,0.547,0.527,0.506,0.485,0.444,0.434,0.424,0.413,0.40299999999999997,0.37200000000000005,0.36200000000000004,0.35100000000000003,0.331,0.31,0.29,0.259,0.19699999999999998,0.135,0.083,0.021,-0.009000000000000001,-0.04,-0.051,-0.061,-0.08199999999999999,-0.08199999999999999,-0.102,-0.113,-0.134,-0.134,-0.113,-0.092,-0.08199999999999999,-0.08199999999999999,-0.092,-0.12300000000000001,-0.134,-0.134,-0.134,-0.12300000000000001,-0.102,-0.08199999999999999,-0.08199999999999999,-0.102,-0.12300000000000001,-0.134,-0.12300000000000001,-0.102,-0.08199999999999999,-0.08199999999999999,-0.102,-0.12300000000000001,-0.134,-0.134,-0.134,-0.113,-0.092,-0.08199999999999999,-0.08199999999999999,-0.08199999999999999,-0.08199999999999999,-0.113,-0.12300000000000001,-0.12300000000000001,-0.102,-0.08199999999999999,-0.071,-0.08199999999999999,-0.08199999999999999,-0.092,-0.113,-0.102,-0.08199999999999999,-0.071,-0.051,-0.051,-0.051,-0.061,-0.08199999999999999,-0.08199999999999999,-0.08199999999999999,-0.061,-0.04,-0.04,-0.04,-0.051,-0.08199999999999999,-0.08199999999999999,-0.08199999999999999,-0.061,-0.04,-0.03,-0.03,-0.04,-0.061,-0.071,-0.071,-0.061,-0.03,-0.03,-0.02,-0.03,-0.04,-0.051,-0.051,-0.04,-0.04,-0.02,-0.02,-0.02,-0.03,-0.04,-0.04,-0.03,-0.009000000000000001,0.001,0.001,0.001,-0.009000000000000001,-0.02,-0.03,-0.03,-0.009000000000000001,0.001,0.001,0.001,0.001,-0.009000000000000001,-0.02,-0.02,0.001,0.001,0.021,0.031,0.021,0.001,0.001,0.001,0.011000000000000001,0.042,0.063,0.073,0.073,0.052000000000000005,0.021,0.011000000000000001,0.021,0.042,0.052000000000000005,0.083,0.083,0.083,0.063,0.042,0.042,0.063,0.083,0.083,N,,,,,,,,,,,,,,,,,,,,,,,,,,,,,,,,,,,,,,,,,,,,,,,,,,,,,,,,,,,,,,,,,,,,,,,,,,,,,,,,,,,,,,,,,,,,,,,,,,,,,,,,,,,,,,,,,,,,,,,,,,,,,,,,,,,,,,,,,,,,,,,,,,,,,,,,,,,,,,,,,,,,,,,,,,,,,,,,,,,,,,,,,,,,,,,,,,,,,,,,,,,,,,,,,,,,,,,,,,,,,,,,,,,,,,,,,,,,,,,,,,,,,,,,,,,,,,,,,,,,,,,,,,,,,,,,,,,,,,,,,,,,,,,,,,,,,,,,,,,,,,,,,,,,,,,,,,,,,,,,,,,,,,,,,,,,,,,,,,,,,,,,,,,,,,,,,,,,,,,,,,,,,,,,,,,,,,,,,,,,,,,,,,,,,,,,,,,,,,,,,,,,,,,,,,,,,,,,,,,,,,,,,,,,,,,,,,,,,,,,,,,,,,,
1,0.165,0.114,0.052000000000000005,0.001,-0.02,-0.061,-0.08199999999999999,-0.08199999999999999,-0.092,-0.12300000000000001,-0.134,-0.16399999999999998,-0.174,-0.16399999999999998,-0.174,-0.14400000000000002,-0.134,-0.134,-0.134,-0.154,-0.154,-0.16399999999999998,-0.154,-0.134,-0.12300000000000001,-0.12300000000000001,-0.134,-0.14400000000000002,-0.174,-0.174,-0.16399999999999998,-0.134,-0.12300000000000001,-0.113,-0.134,-0.14400000000000002,-0.154,-0.174,-0.154,-0.14400000000000002,-0.134,-0.134,-0.14400000000000002,-0.14400000000000002,-0.154,-0.154,-0.154,-0.14400000000000002,-0.134,-0.113,-0.113,-0.113,-0.12300000000000001,-0.134,-0.14400000000000002,-0.14400000000000002,-0.134,-0.12300000000000001,-0.092,-0.102,-0.12300000000000001,-0.134,-0.134,-0.134,-0.134,-0.12300000000000001,-0.102,-0.102,-0.092,-0.113,-0.12300000000000001,-0.134,-0.134,-0.113,-0.092,-0.08199999999999999,-0.102,-0.113,-0.12300000000000001,-0.134,-0.12300000000000001,-0.113,-0.092,-0.08199999999999999,-0.08199999999999999,-0.08199999999999999,-0.092,-0.092,-0.092,-0.102,-0.08199999999999999,-0.08199999999999999,-0.092,-0.092,-0.092,-0.08199999999999999,-0.08199999999999999,-0.071,-0.061,-0.061,-0.061,-0.08199999999999999,-0.092,-0.113,-0.113,-0.102,-0.08199999999999999,-0.08199999999999999,-0.071,-0.071,-0.08199999999999999,-0.08199999999999999,-0.08199999999999999,-0.092,-0.08199999999999999,-0.08199999999999999,-0.08199999999999999,-0.08199999999999999,-0.08199999999999999,-0.08199999999999999,-0.092,-0.08199999999999999,-0.08199999999999999,-0.071,-0.061,-0.04,-0.061,-0.08199999999999999,-0.08199999999999999,-0.08199999999999999,-0.08199999999999999,-0.04,-0.03,-0.03,-0.04,-0.061,-0.08199999999999999,-0.08199999999999999,-0.071,-0.061,-0.04,-0.03,-0.04,-0.051,-0.071,-0.08199999999999999,-0.071,-0.071,-0.051,-0.04,-0.04,-0.061,-0.08199999999999999,-0.08199999999999999,-0.08199999999999999,-0.061,-0.04,-0.04,-0.04,-0.061,-0.071,-0.08199999999999999,-0.092,-0.08199999999999999,-0.071,-0.051,-0.051,-0.061,-0.071,-0.08199999999999999,-0.071,-0.061,-0.04,-0.04,-0.04,-0.061,-0.08199999999999999,-0.08199999999999999,-0.092,-0.08199999999999999,-0.08199999999999999,-0.061,-0.051,-0.051,-0.051,-0.071,-0.08199999999999999,-0.08199999999999999,-0.08199999999999999,-0.08199999999999999,-0.071,-0.061,-0.051,-0.061,-0.071,-0.08199999999999999,-0.08199999999999999,-0.08199999999999999,-0.051,-0.04,-0.04,-0.04,-0.061,-0.08199999999999999,-0.08199999999999999,-0.08199999999999999,-0.061,-0.04,-0.03,-0.04,-0.051,-0.08199999999999999,-0.08199999999999999,-0.08199999999999999,-0.071,-0.051,-0.04,-0.04,-0.051,-0.08199999999999999,-0.08199999999999999,-0.08199999999999999,-0.071,-0.04,-0.03,-0.03,-0.04,-0.04,-0.04,-0.061,-0.061,-0.051,-0.04,-0.04,-0.04,-0.051,-0.061,-0.061,-0.051,-0.04,-0.04,-0.03,-0.02,-0.03,-0.051,-0.061,-0.051,-0.03,-0.02,-0.03,-0.04,-0.061,-0.08199999999999999,-0.08199999999999999,-0.071,-0.04,-0.02,-0.02,-0.009000000000000001,-0.03,-0.051,-0.071,-0.071,-0.061,-0.04,-0.03,-0.02,-0.03,-0.04,-0.061,-0.08199999999999999,-0.071,-0.061,-0.03,-0.02,-0.03,-0.04,-0.051,-0.061,-0.071,-0.071,-0.04,-0.03,-0.009000000000000001,-0.02,-0.04,-0.051,-0.061,-0.061,-0.051,-0.04,-0.03,-0.03,-0.03,-0.04,-0.051,-0.061,-0.061,-0.04,-0.03,-0.02,-0.03,-0.04,-0.051,-0.051,-0.04,-0.02,0.001,0.001,0.001,0.001,-0.02,-0.03,-0.02,0.001,0.001,0.011000000000000001,0.001,0.001,-0.009000000000000001,-0.03,-0.03,-0.02,0.001,0.001,0.001,-0.009000000000000001,-0.03,-0.04,-0.04,-0.04,-0.02,-0.009000000000000001,0.001,-0.009000000000000001,-0.03,-0.04,-0.061,-0.051,-0.04,-0.02,-0.009000000000000001,-0.009000000000000001,-0.03,-0.04,-0.051,-0.04,-0.04,-0.02,0.001,0.001,-0.02,-0.04,-0.04,-0.04,-0.04,-0.02,0.001,0.001,-0.009000000000000001,-0.02,-0.04,-0.04,-0.04,-0.03,-0.009000000000000001,0.001,0.001,-0.02,-0.04,-0.04,-0.04,-0.03,0.001,0.001,0.001,0.001,-0.009000000000000001,-0.02,-0.03,-0.009000000000000001,0.001,0.021,0.042,0.042,0.042,0.063,0.083,0.125,0.17600000000000002,0.248,0.31,0.35100000000000003,0.39299999999999996,0.413,0.444,0.485,0.537,0.598,0.619,0.619,0.609,0.578,0.547,0.527,0.496,0.485,0.485,0.485,0.485,0.465,0.444,0.424,0.413,0.413,0.40299999999999997,0.39299999999999996,0.37200000000000005,0.331,0.27899999999999997,0.259,0.217,0.17600000000000002,0.145,0.114,0.083,0.042,0.001,-0.04,-0.061,-0.071,-0.071,-0.071,-0.08199999999999999,-0.092,-0.113,-0.134,-0.134,-0.134,-0.12300000000000001,-0.113,-0.092,-0.092,-0.102,-0.12300000000000001,-0.134,-0.134,-0.12300000000000001,-0.102,-0.08199999999999999,-0.08199999999999999,-0.092,-0.102,-0.113,-0.113,-0.102,-0.092,-0.08199999999999999,-0.08199999999999999,-0.08199999999999999,-0.102,-0.113,-0.113,-0.102,-0.08199999999999999,-0.08199999999999999,-0.061,-0.071,-0.08199999999999999,-0.102,-0.102,-0.102,-0.092,-0.08199999999999999,-0.071,-0.071,-0.08199999999999999,-0.092,-0.102,-0.113,-0.092,-0.08199999999999999,-0.061,-0.061,-0.071,-0.08199999999999999,-0.092,-0.102,-0.092,-0.08199999999999999,-0.061,-0.061,-0.061,-0.071,-0.08199999999999999,-0.092,-0.08199999999999999,-0.08199999999999999,-0.061,-0.061,-0.051,-0.061,-0.071,-0.08199999999999999,-0.08199999999999999,-0.071,-0.04,-0.04,-0.03,-0.04,-0.051,-0.061,-0.071,-0.061,-0.051,-0.04,-0.03,-0.04,-0.04,-0.061,-0.071,-0.061,-0.04,-0.04,-0.03,-0.03,-0.04,-0.061,-0.061,-0.061,-0.051,-0.04,-0.02,-0.03,-0.04,-0.04,-0.061,-0.071,-0.061,-0.04,-0.03,-0.03,-0.03,-0.04,-0.051,-0.051,-0.061,-0.04,-0.02,-0.009000000000000001,-0.009000000000000001,-0.02,-0.04,-0.04,-0.04,-0.04,-0.02,-0.02,-0.009000000000000001,-0.03,-0.04,-0.04,-0.051,-0.04,-0.03,-0.009000000000000001,-0.009000000000000001,-0.02,-0.04,-0.04,-0.061,-0.051,-0.04,-0.03,-0.009000000000000001,-0.02,-0.03,-0.04,-0.061,-0.071,-0.051,-0.04,-0.02,-0.02,-0.03,-0.04,-0.051,-0.061,-0.061,-0.051,-0.04,-0.04,-0.051,-0.051,-0.071,-0.08199999999999999,-0.061,-0.061,-0.04,-0.04,-0.04,-0.051,-0.061,-0.08199999999999999,-0.08199999999999999,-0.061,-0.061,-0.04,-0.04,-0.04,-0.051,-0.071,-0.071,-0.071,-0.051,-0.04,-0.04,-0.04,-0.04,-0.061,-0.071,-0.061,-0.051,-0.04,-0.04,-0.04,-0.051,-0.061,-0.071,-0.071,-0.061,-0.04,-0.04,-0.04,-0.04,-0.051,-0.061,-0.061,-0.051,-0.04,-0.02,-0.02,-0.03,-0.04,-0.051,-0.061,-0.061,-0.04,-0.04,-0.03,-0.03,-0.04,-0.051,-0.061,-0.071,-0.04,-0.03,-0.02,-0.009000000000000001,-0.02,-0.04,-0.051,-0.051,-0.04,-0.04,-0.04,-0.03,-0.03,-0.04,-0.04,-0.051,-0.051,-0.04,-0.02,-0.009000000000000001,-0.009000000000000001,-0.02,-0.04,-0.051,-0.051,-0.051,-0.04,-0.02,-0.02,-0.02,-0.03,-0.04,-0.051,-0.04,-0.03,-0.02,0.001,-0.009000000000000001,-0.03,-0.04,-0.04,-0.04,-0.03,-0.009000000000000001,0.001,-0.009000000000000001,-0.03,-0.04,-0.04,-0.051,-0.04,-0.03,0.001,0.001,-0.009000000000000001,-0.03,-0.04,-0.04,-0.03,-0.009000000000000001,0.001,0.001,0.001,-0.009000000000000001,-0.02,-0.02,-0.009000000000000001,0.001,0.001,0.021,0.031,0.021,0.011000000000000001,0.011000000000000001,0.011000000000000001,0.031,0.042,0.042,0.052000000000000005,0.042,0.021,0.001,0.001,0.001,0.011000000000000001,0.021,0.021,0.001,0.001,-0.009000000000000001,-0.02,-0.009000000000000001,-0.009000000000000001,0.001,0.001,0.001,-0.009000000000000001,-0.04,-0.051,-0.061,-0.051,-0.03,-0.02,-0.009000000000000001,-0.03,-0.04,-0.051,-0.051,-0.04,-0.02,-0.009000000000000001,-0.02,-0.02,-0.04,-0.051,-0.051,-0.051,-0.04,-0.02,-0.009000000000000001,-0.02,-0.03,-0.04,-0.04,-0.051,-0.04,-0.02,-0.009000000000000001,-0.009000000000000001,-0.03,-0.04,-0.051,-0.061,-0.051,-0.04,-0.009000000000000001,-0.02,-0.03,-0.04,-0.051,-0.061,-0.051,-0.04,-0.02,-0.009000000000000001,-0.02,-0.03,-0.04,-0.04,-0.04,-0.03,-0.009000000000000001,0.001,0.001,0.001,0.001,0.001,0.011000000000000001,0.052000000000000005,0.10400000000000001,0.145,0.19699999999999998,0.217,0.248,0.26899999999999996,0.31,0.35100000000000003,0.39299999999999996,0.444,0.475,0.475,0.45399999999999996,0.444,0.444,0.444,0.444,0.444,0.424,0.40299999999999997,0.37200000000000005,0.35100000000000003,0.331,0.32,0.32,0.331,0.331,0.331,0.32,0.299,0.26899999999999996,0.259,0.23800000000000002,0.217,0.19699999999999998,0.17600000000000002,0.135,0.083,0.031,0.001,-0.03,-0.051,-0.071,-0.071,-0.08199999999999999,-0.092,-0.134,-0.16399999999999998,-0.174,-0.16399999999999998,-0.134,-0.12300000000000001,-0.113,-0.12300000000000001,-0.134,-0.14400000000000002,-0.14400000000000002,-0.134,-0.134,-0.134,-0.12300000000000001,-0.12300000000000001,-0.134,-0.134,-0.14400000000000002,-0.14400000000000002,-0.12300000000000001,-0.102,-0.092,-0.092,-0.12300000000000001,-0.134,-0.14400000000000002,-0.154,-0.154,-0.134,-0.12300000000000001,-0.12300000000000001,-0.134,-0.134,-0.14400000000000002,-0.14400000000000002,-0.134,-0.113,-0.08199999999999999,-0.08199999999999999,-0.08199999999999999,-0.092,-0.113,-0.12300000000000001,-0.12300000000000001,-0.113,-0.08199999999999999,-0.08199999999999999,-0.08199999999999999,-0.08199999999999999,-0.092,-0.113,-0.113,-0.102,-0.08199999999999999,-0.08199999999999999,-0.08199999999999999,-0.08199999999999999,-0.092,-0.12300000000000001,-0.12300000000000001,-0.102,-0.08199999999999999,-0.061,-0.051,-0.051,-0.061,-0.071,-0.08199999999999999,-0.071,-0.061,-0.051,-0.04,-0.04,-0.051,-0.071,-0.08199999999999999,-0.08199999999999999,-0.071,-0.051,-0.04,-0.04,-0.051,-0.061,-0.071,-0.071,-0.071,-0.071,-0.04,-0.04,-0.03,-0.04,-0.051,-0.071,-0.061,-0.04,-0.02,-0.02,-0.02,-0.03,-0.04,-0.051,-0.051,-0.04,-0.03,-0.02,-0.009000000000000001,-0.009000000000000001,-0.02,-0.04,-0.04,-0.04,-0.04,-0.03,-0.02,-0.009000000000000001,-0.02,-0.03,-0.04,-0.04,-0.04,-0.02,0.001,0.001,-0.02,-0.04,-0.051,-0.061,-0.04,-0.03,-0.009000000000000001,0.001,0.001,-0.03,-0.04,-0.04,-0.04,-0.03,-0.02,-0.02,N
2,0.17600000000000002,0.145,0.114,0.083,0.042,0.001,-0.04,-0.061,-0.071,-0.071,-0.071,-0.08199999999999999,-0.092,-0.113,-0.134,-0.134,-0.134,-0.12300000000000001,-0.113,-0.092,-0.092,-0.102,-0.12300000000000001,-0.134,-0.134,-0.12300000000000001,-0.102,-0.08199999999999999,-0.08199999999999999,-0.092,-0.102,-0.113,-0.113,-0.102,-0.092,-0.08199999999999999,-0.08199999999999999,-0.08199999999999999,-0.102,-0.113,-0.113,-0.102,-0.08199999999999999,-0.08199999999999999,-0.061,-0.071,-0.08199999999999999,-0.102,-0.102,-0.102,-0.092,-0.08199999999999999,-0.071,-0.071,-0.08199999999999999,-0.092,-0.102,-0.113,-0.092,-0.08199999999999999,-0.061,-0.061,-0.071,-0.08199999999999999,-0.092,-0.102,-0.092,-0.08199999999999999,-0.061,-0.061,-0.061,-0.071,-0.08199999999999999,-0.092,-0.08199999999999999,-0.08199999999999999,-0.061,-0.061,-0.051,-0.061,-0.071,-0.08199999999999999,-0.08199999999999999,-0.071,-0.04,-0.04,-0.03,-0.04,-0.051,-0.061,-0.071,-0.061,-0.051,-0.04,-0.03,-0.04,-0.04,-0.061,-0.071,-0.061,-0.04,-0.04,-0.03,-0.03,-0.04,-0.061,-0.061,-0.061,-0.051,-0.04,-0.02,-0.03,-0.04,-0.04,-0.061,-0.071,-0.061,-0.04,-0.03,-0.03,-0.03,-0.04,-0.051,-0.051,-0.061,-0.04,-0.02,-0.009000000000000001,-0.009000000000000001,-0.02,-0.04,-0.04,-0.04,-0.04,-0.02,-0.02,-0.009000000000000001,-0.03,-0.04,-0.04,-0.051,-0.04,-0.03,-0.009000000000000001,-0.009000000000000001,-0.02,-0.04,-0.04,-0.061,-0.051,-0.04,-0.03,-0.009000000000000001,-0.02,-0.03,-0.04,-0.061,-0.071,-0.051,-0.04,-0.02,-0.02,-0.03,-0.04,-0.051,-0.061,-0.061,-0.051,-0.04,-0.04,-0.051,-0.051,-0.071,-0.08199999999999999,-0.061,-0.061,-0.04,-0.04,-0.04,-0.051,-0.061,-0.08199999999999999,-0.08199999999999999,-0.061,-0.061,-0.04,-0.04,-0.04,-0.051,-0.071,-0.071,-0.071,-0.051,-0.04,-0.04,-0.04,-0.04,-0.061,-0.071,-0.061,-0.051,-0.04,-0.04,-0.04,-0.051,-0.061,-0.071,-0.071,-0.061,-0.04,-0.04,-0.04,-0.04,-0.051,-0.061,-0.061,-0.051,-0.04,-0.02,-0.02,-0.03,-0.04,-0.051,-0.061,-0.061,-0.04,-0.04,-0.03,-0.03,-0.04,-0.051,-0.061,-0.071,-0.04,-0.03,-0.02,-0.009000000000000001,-0.02,-0.04,-0.051,-0.051,-0.04,-0.04,-0.04,-0.03,-0.03,-0.04,-0.04,-0.051,-0.051,-0.04,-0.02,-0.009000000000000001,-0.009000000000000001,-0.02,-0.04,-0.051,-0.051,-0.051,-0.04,-0.02,-0.02,-0.02,-0.03,-0.04,-0.051,-0.04,-0.03,-0.02,0.001,-0.009000000000000001,-0.03,-0.04,-0.04,-0.04,-0.03,-0.009000000000000001,0.001,-0.009000000000000001,-0.03,-0.04,-0.04,-0.051,-0.04,-0.03,0.001,0.001,-0.009000000000000001,-0.03,-0.04,-0.04,-0.03,-0.009000000000000001,0.001,0.001,0.001,-0.009000000000000001,-0.02,-0.02,-0.009000000000000001,0.001,0.001,0.021,0.031,0.021,0.011000000000000001,0.011000000000000001,0.011000000000000001,0.031,0.042,0.042,0.052000000000000005,0.042,0.021,0.001,0.001,0.001,0.011000000000000001,0.021,0.021,0.001,0.001,-0.009000000000000001,-0.02,-0.009000000000000001,-0.009000000000000001,0.001,0.001,0.001,-0.009000000000000001,-0.04,-0.051,-0.061,-0.051,-0.03,-0.02,-0.009000000000000001,-0.03,-0.04,-0.051,-0.051,-0.04,-0.02,-0.009000000000000001,-0.02,-0.02,-0.04,-0.051,-0.051,-0.051,-0.04,-0.02,-0.009000000000000001,-0.02,-0.03,-0.04,-0.04,-0.051,-0.04,-0.02,-0.009000000000000001,-0.009000000000000001,-0.03,-0.04,-0.051,-0.061,-0.051,-0.04,-0.009000000000000001,-0.02,-0.03,-0.04,-0.051,-0.061,-0.051,-0.04,-0.02,-0.009000000000000001,-0.02,-0.03,-0.04,-0.04,-0.04,-0.03,-0.009000000000000001,0.001,0.001,0.001,0.001,0.001,0.011000000000000001,0.052000000000000005,0.10400000000000001,0.145,0.19699999999999998,0.217,0.248,0.26899999999999996,0.31,0.35100000000000003,0.39299999999999996,0.444,0.475,0.475,0.45399999999999996,0.444,0.444,0.444,0.444,0.444,0.424,0.40299999999999997,0.37200000000000005,0.35100000000000003,0.331,0.32,0.32,0.331,0.331,0.331,0.32,0.299,0.26899999999999996,0.259,0.23800000000000002,0.217,0.19699999999999998,0.17600000000000002,0.135,0.083,0.031,0.001,-0.03,-0.051,-0.071,-0.071,-0.08199999999999999,-0.092,-0.134,-0.16399999999999998,-0.174,-0.16399999999999998,-0.134,-0.12300000000000001,-0.113,-0.12300000000000001,-0.134,-0.14400000000000002,-0.14400000000000002,-0.134,-0.134,-0.134,-0.12300000000000001,-0.12300000000000001,-0.134,-0.134,-0.14400000000000002,-0.14400000000000002,-0.12300000000000001,-0.102,-0.092,-0.092,-0.12300000000000001,-0.134,-0.14400000000000002,-0.154,-0.154,-0.134,-0.12300000000000001,-0.12300000000000001,-0.134,-0.134,-0.14400000000000002,-0.14400000000000002,-0.134,-0.113,-0.08199999999999999,-0.08199999999999999,-0.08199999999999999,-0.092,-0.113,-0.12300000000000001,-0.12300000000000001,-0.113,-0.08199999999999999,-0.08199999999999999,-0.08199999999999999,-0.08199999999999999,-0.092,-0.113,-0.113,-0.102,-0.08199999999999999,-0.08199999999999999,-0.08199999999999999,-0.08199999999999999,-0.092,-0.12300000000000001,-0.12300000000000001,-0.102,-0.08199999999999999,-0.061,-0.051,-0.051,-0.061,-0.071,-0.08199999999999999,-0.071,-0.061,-0.051,-0.04,-0.04,-0.051,-0.071,-0.08199999999999999,-0.08199999999999999,-0.071,-0.051,-0.04,-0.04,-0.051,-0.061,-0.071,-0.071,-0.071,-0.071,-0.04,-0.04,-0.03,-0.04,-0.051,-0.071,-0.061,-0.04,-0.02,-0.02,-0.02,-0.03,-0.04,-0.051,-0.051,-0.04,-0.03,-0.02,-0.009000000000000001,-0.009000000000000001,-0.02,-0.04,-0.04,-0.04,-0.04,-0.03,-0.02,-0.009000000000000001,-0.02,-0.03,-0.04,-0.04,-0.04,-0.02,0.001,0.001,-0.02,-0.04,-0.051,-0.061,-0.04,-0.03,-0.009000000000000001,0.001,0.001,-0.03,-0.04,-0.04,-0.04,-0.03,-0.02,-0.02,-0.02,-0.04,-0.04,-0.051,-0.061,-0.04,-0.02,-0.009000000000000001,-0.02,-0.02,-0.04,-0.04,-0.061,-0.04,-0.04,-0.009000000000000001,-0.009000000000000001,-0.03,-0.04,-0.051,-0.051,-0.04,-0.03,-0.009000000000000001,-0.009000000000000001,-0.03,-0.051,-0.061,-0.071,-0.061,-0.051,-0.03,-0.009000000000000001,-0.009000000000000001,-0.02,-0.04,-0.051,-0.061,-0.04,-0.04,-0.02,-0.04,-0.04,-0.04,-0.04,-0.061,-0.051,-0.04,-0.02,-0.02,-0.02,-0.04,-0.051,-0.061,-0.051,-0.04,-0.009000000000000001,-0.009000000000000001,0.001,-0.03,-0.04,-0.051,-0.04,-0.04,-0.02,-0.009000000000000001,-0.02,-0.02,-0.04,-0.051,-0.051,-0.04,-0.02,-0.009000000000000001,-0.009000000000000001,0.001,-0.02,-0.04,-0.04,-0.04,-0.03,0.001,0.001,0.001,-0.02,-0.04,-0.04,-0.04,-0.04,-0.009000000000000001,0.001,0.001,0.001,-0.03,-0.04,-0.04,-0.04,-0.03,0.001,0.001,0.001,0.001,-0.02,-0.03,-0.04,-0.02,0.001,0.001,0.001,0.001,-0.02,-0.02,-0.03,-0.02,-0.009000000000000001,0.001,0.001,0.001,0.001,-0.02,-0.03,-0.009000000000000001,0.001,0.031,0.031,0.031,0.011000000000000001,0.001,0.001,0.001,0.001,0.021,0.031,0.031,0.021,0.021,0.021,0.031,0.042,0.073,0.083,0.083,0.083,0.073,0.063,0.052000000000000005,0.063,0.063,0.083,0.083,0.063,0.052000000000000005,0.042,0.011000000000000001,0.011000000000000001,0.021,0.031,0.031,0.021,0.001,-0.009000000000000001,-0.02,-0.03,-0.04,-0.03,-0.02,-0.02,-0.03,-0.04,-0.04,-0.04,-0.03,-0.009000000000000001,0.001,0.001,-0.009000000000000001,-0.02,-0.04,-0.04,-0.04,-0.02,0.001,0.001,0.001,-0.009000000000000001,-0.02,-0.04,-0.04,-0.04,-0.03,-0.009000000000000001,0.001,-0.02,-0.04,-0.04,-0.04,-0.04,-0.03,-0.02,-0.02,-0.03,-0.04,-0.04,-0.04,-0.04,-0.04,-0.02,0.001,0.001,-0.02,-0.03,-0.04,-0.04,-0.04,-0.009000000000000001,0.001,0.001,-0.009000000000000001,-0.03,-0.04,-0.04,-0.03,0.001,0.021,0.042,0.063,0.073,0.083,0.094,0.135,0.18600000000000003,0.23800000000000002,0.27899999999999997,0.31,0.35100000000000003,0.37200000000000005,0.39299999999999996,0.413,0.434,0.465,0.475,0.475,0.475,0.444,0.434,0.39299999999999996,0.37200000000000005,0.37200000000000005,0.37200000000000005,0.37200000000000005,0.36200000000000004,0.35100000000000003,0.32,0.31,0.31,0.31,0.31,0.32,0.299,0.259,0.217,0.18600000000000003,0.145,0.125,0.10400000000000001,0.073,0.042,0.001,-0.04,-0.061,-0.08199999999999999,-0.092,-0.102,-0.102,-0.113,-0.113,-0.134,-0.134,-0.14400000000000002,-0.154,-0.14400000000000002,-0.12300000000000001,-0.113,-0.113,-0.134,-0.14400000000000002,-0.14400000000000002,-0.134,-0.134,-0.12300000000000001,-0.113,-0.113,-0.113,-0.134,-0.134,-0.134,-0.12300000000000001,-0.102,-0.08199999999999999,-0.08199999999999999,-0.092,-0.102,-0.134,-0.134,-0.134,-0.12300000000000001,-0.092,-0.08199999999999999,-0.08199999999999999,-0.113,-0.12300000000000001,-0.12300000000000001,-0.113,-0.102,-0.08199999999999999,-0.08199999999999999,-0.071,-0.071,-0.08199999999999999,-0.113,-0.134,-0.12300000000000001,-0.113,-0.092,-0.08199999999999999,-0.08199999999999999,-0.08199999999999999,-0.092,-0.113,-0.102,-0.08199999999999999,-0.071,-0.061,-0.071,-0.08199999999999999,-0.08199999999999999,-0.092,-0.08199999999999999,-0.071,-0.061,-0.051,-0.04,-0.051,-0.071,-0.08199999999999999,-0.08199999999999999,-0.071,-0.051,-0.04,-0.04,-0.04,-0.051,-0.061,-0.061,-0.051,-0.04,-0.04,-0.03,-0.03,-0.04,-0.061,-0.061,-0.071,-0.061,-0.051,-0.03,-0.02,-0.03,-0.04,-0.051,-0.04,-0.03,-0.02,-0.009000000000000001,0.001,-0.009000000000000001,-0.03,-0.04,-0.051,-0.04,-0.03,-0.02,0.001,0.001,-0.009000000000000001,-0.03,-0.04,-0.04,-0.03,0.001,0.001,0.001,0.001,-0.009000000000000001,-0.02,-0.02,0.001,0.001,0.001,0.001,0.001,-0.03,-0.03,-0.04,-0.03,-0.02,-0.009000000000000001,0.001,-0.009000000000000001,-0.02,-0.04,-0.04,-0.051,-0.04,-0.02,0.001,0.001,-0.009000000000000001,-0.03,-0.04,-0.04,-0.03,N
3,0.26899999999999996,0.259,0.23800000000000002,0.217,0.19699999999999998,0.17600000000000002,0.135,0.083,0.031,0.001,-0.03,-0.051,-0.071,-0.071,-0.08199999999999999,-0.092,-0.134,-0.16399999999999998,-0.174,-0.16399999999999998,-0.134,-0.12300000000000001,-0.113,-0.12300000000000001,-0.134,-0.14400000000000002,-0.14400000000000002,-0.134,-0.134,-0.134,-0.12300000000000001,-0.12300000000000001,-0.134,-0.134,-0.14400000000000002,-0.14400000000000002,-0.12300000000000001,-0.102,-0.092,-0.092,-0.12300000000000001,-0.134,-0.14400000000000002,-0.154,-0.154,-0.134,-0.12300000000000001,-0.12300000000000001,-0.134,-0.134,-0.14400000000000002,-0.14400000000000002,-0.134,-0.113,-0.08199999999999999,-0.08199999999999999,-0.08199999999999999,-0.092,-0.113,-0.12300000000000001,-0.12300000000000001,-0.113,-0.08199999999999999,-0.08199999999999999,-0.08199999999999999,-0.08199999999999999,-0.092,-0.113,-0.113,-0.102,-0.08199999999999999,-0.08199999999999999,-0.08199999999999999,-0.08199999999999999,-0.092,-0.12300000000000001,-0.12300000000000001,-0.102,-0.08199999999999999,-0.061,-0.051,-0.051,-0.061,-0.071,-0.08199999999999999,-0.071,-0.061,-0.051,-0.04,-0.04,-0.051,-0.071,-0.08199999999999999,-0.08199999999999999,-0.071,-0.051,-0.04,-0.04,-0.051,-0.061,-0.071,-0.071,-0.071,-0.071,-0.04,-0.04,-0.03,-0.04,-0.051,-0.071,-0.061,-0.04,-0.02,-0.02,-0.02,-0.03,-0.04,-0.051,-0.051,-0.04,-0.03,-0.02,-0.009000000000000001,-0.009000000000000001,-0.02,-0.04,-0.04,-0.04,-0.04,-0.03,-0.02,-0.009000000000000001,-0.02,-0.03,-0.04,-0.04,-0.04,-0.02,0.001,0.001,-0.02,-0.04,-0.051,-0.061,-0.04,-0.03,-0.009000000000000001,0.001,0.001,-0.03,-0.04,-0.04,-0.04,-0.03,-0.02,-0.02,-0.02,-0.04,-0.04,-0.051,-0.061,-0.04,-0.02,-0.009000000000000001,-0.02,-0.02,-0.04,-0.04,-0.061,-0.04,-0.04,-0.009000000000000001,-0.009000000000000001,-0.03,-0.04,-0.051,-0.051,-0.04,-0.03,-0.009000000000000001,-0.009000000000000001,-0.03,-0.051,-0.061,-0.071,-0.061,-0.051,-0.03,-0.009000000000000001,-0.009000000000000001,-0.02,-0.04,-0.051,-0.061,-0.04,-0.04,-0.02,-0.04,-0.04,-0.04,-0.04,-0.061,-0.051,-0.04,-0.02,-0.02,-0.02,-0.04,-0.051,-0.061,-0.051,-0.04,-0.009000000000000001,-0.009000000000000001,0.001,-0.03,-0.04,-0.051,-0.04,-0.04,-0.02,-0.009000000000000001,-0.02,-0.02,-0.04,-0.051,-0.051,-0.04,-0.02,-0.009000000000000001,-0.009000000000000001,0.001,-0.02,-0.04,-0.04,-0.04,-0.03,0.001,0.001,0.001,-0.02,-0.04,-0.04,-0.04,-0.04,-0.009000000000000001,0.001,0.001,0.001,-0.03,-0.04,-0.04,-0.04,-0.03,0.001,0.001,0.001,0.001,-0.02,-0.03,-0.04,-0.02,0.001,0.001,0.001,0.001,-0.02,-0.02,-0.03,-0.02,-0.009000000000000001,0.001,0.001,0.001,0.001,-0.02,-0.03,-0.009000000000000001,0.001,0.031,0.031,0.031,0.011000000000000001,0.001,0.001,0.001,0.001,0.021,0.031,0.031,0.021,0.021,0.021,0.031,0.042,0.073,0.083,0.083,0.083,0.073,0.063,0.052000000000000005,0.063,0.063,0.083,0.083,0.063,0.052000000000000005,0.042,0.011000000000000001,0.011000000000000001,0.021,0.031,0.031,0.021,0.001,-0.009000000000000001,-0.02,-0.03,-0.04,-0.03,-0.02,-0.02,-0.03,-0.04,-0.04,-0.04,-0.03,-0.009000000000000001,0.001,0.001,-0.009000000000000001,-0.02,-0.04,-0.04,-0.04,-0.02,0.001,0.001,0.001,-0.009000000000000001,-0.02,-0.04,-0.04,-0.04,-0.03,-0.009000000000000001,0.001,-0.02,-0.04,-0.04,-0.04,-0.04,-0.03,-0.02,-0.02,-0.03,-0.04,-0.04,-0.04,-0.04,-0.04,-0.02,0.001,0.001,-0.02,-0.03,-0.04,-0.04,-0.04,-0.009000000000000001,0.001,0.001,-0.009000000000000001,-0.03,-0.04,-0.04,-0.03,0.001,0.021,0.042,0.063,0.073,0.083,0.094,0.135,0.18600000000000003,0.23800000000000002,0.27899999999999997,0.31,0.35100000000000003,0.37200000000000005,0.39299999999999996,0.413,0.434,0.465,0.475,0.475,0.475,0.444,0.434,0.39299999999999996,0.37200000000000005,0.37200000000000005,0.37200000000000005,0.37200000000000005,0.36200000000000004,0.35100000000000003,0.32,0.31,0.31,0.31,0.31,0.32,0.299,0.259,0.217,0.18600000000000003,0.145,0.125,0.10400000000000001,0.073,0.042,0.001,-0.04,-0.061,-0.08199999999999999,-0.092,-0.102,-0.102,-0.113,-0.113,-0.134,-0.134,-0.14400000000000002,-0.154,-0.14400000000000002,-0.12300000000000001,-0.113,-0.113,-0.134,-0.14400000000000002,-0.14400000000000002,-0.134,-0.134,-0.12300000000000001,-0.113,-0.113,-0.113,-0.134,-0.134,-0.134,-0.12300000000000001,-0.102,-0.08199999999999999,-0.08199999999999999,-0.092,-0.102,-0.134,-0.134,-0.134,-0.12300000000000001,-0.092,-0.08199999999999999,-0.08199999999999999,-0.113,-0.12300000000000001,-0.12300000000000001,-0.113,-0.102,-0.08199999999999999,-0.08199999999999999,-0.071,-0.071,-0.08199999999999999,-0.113,-0.134,-0.12300000000000001,-0.113,-0.092,-0.08199999999999999,-0.08199999999999999,-0.08199999999999999,-0.092,-0.113,-0.102,-0.08199999999999999,-0.071,-0.061,-0.071,-0.08199999999999999,-0.08199999999999999,-0.092,-0.08199999999999999,-0.071,-0.061,-0.051,-0.04,-0.051,-0.071,-0.08199999999999999,-0.08199999999999999,-0.071,-0.051,-0.04,-0.04,-0.04,-0.051,-0.061,-0.061,-0.051,-0.04,-0.04,-0.03,-0.03,-0.04,-0.061,-0.061,-0.071,-0.061,-0.051,-0.03,-0.02,-0.03,-0.04,-0.051,-0.04,-0.03,-0.02,-0.009000000000000001,0.001,-0.009000000000000001,-0.03,-0.04,-0.051,-0.04,-0.03,-0.02,0.001,0.001,-0.009000000000000001,-0.03,-0.04,-0.04,-0.03,0.001,0.001,0.001,0.001,-0.009000000000000001,-0.02,-0.02,0.001,0.001,0.001,0.001,0.001,-0.03,-0.03,-0.04,-0.03,-0.02,-0.009000000000000001,0.001,-0.009000000000000001,-0.02,-0.04,-0.04,-0.051,-0.04,-0.02,0.001,0.001,-0.009000000000000001,-0.03,-0.04,-0.04,-0.03,-0.009000000000000001,-0.009000000000000001,-0.009000000000000001,-0.02,-0.03,-0.04,-0.03,-0.04,-0.02,0.001,0.001,0.001,0.001,-0.03,-0.04,-0.04,-0.04,-0.02,-0.009000000000000001,-0.009000000000000001,-0.02,-0.03,-0.04,-0.061,-0.051,-0.04,-0.03,-0.02,-0.02,-0.03,-0.04,-0.04,-0.04,-0.02,-0.009000000000000001,0.001,0.001,-0.009000000000000001,-0.04,-0.04,-0.04,-0.03,-0.009000000000000001,0.001,-0.009000000000000001,-0.02,-0.03,-0.04,-0.03,-0.03,0.001,0.001,0.001,0.001,-0.009000000000000001,-0.03,-0.03,-0.03,-0.009000000000000001,0.001,0.001,0.001,-0.009000000000000001,-0.02,-0.02,-0.04,-0.03,-0.009000000000000001,0.001,0.001,0.001,-0.02,-0.04,-0.04,-0.02,-0.02,0.001,0.001,0.001,-0.009000000000000001,-0.02,-0.02,-0.02,-0.009000000000000001,0.001,0.001,0.001,0.001,-0.009000000000000001,-0.02,-0.009000000000000001,0.001,0.011000000000000001,0.011000000000000001,0.021,0.011000000000000001,0.001,-0.02,-0.02,-0.009000000000000001,0.001,0.001,0.021,0.011000000000000001,0.001,-0.02,-0.02,-0.009000000000000001,0.001,0.021,0.042,0.042,0.021,0.001,0.001,0.001,0.011000000000000001,0.031,0.042,0.031,0.031,0.021,0.011000000000000001,0.011000000000000001,0.042,0.063,0.083,0.083,0.083,0.073,0.063,0.063,0.073,0.073,0.083,0.094,0.094,0.083,0.042,0.042,0.021,0.042,0.042,0.042,0.052000000000000005,0.042,0.021,0.001,0.001,0.001,0.001,0.011000000000000001,0.011000000000000001,0.001,0.001,-0.03,-0.04,-0.04,-0.02,-0.009000000000000001,0.001,0.001,0.001,-0.02,-0.04,-0.04,-0.03,-0.009000000000000001,0.001,0.001,-0.009000000000000001,-0.03,-0.03,-0.04,-0.02,0.001,0.001,0.001,0.001,-0.02,-0.03,-0.03,-0.02,0.001,0.001,0.001,0.001,-0.009000000000000001,-0.03,-0.04,-0.03,-0.009000000000000001,0.001,0.001,0.001,-0.009000000000000001,-0.03,-0.04,-0.04,-0.04,-0.02,0.001,0.001,-0.009000000000000001,-0.02,-0.009000000000000001,-0.009000000000000001,0.001,0.001,0.021,0.021,0.021,0.031,0.042,0.063,0.083,0.135,0.17600000000000002,0.228,0.26899999999999996,0.29,0.31,0.341,0.37200000000000005,0.40299999999999997,0.444,0.485,0.496,0.485,0.465,0.444,0.444,0.434,0.424,0.40299999999999997,0.382,0.36200000000000004,0.341,0.331,0.32,0.32,0.32,0.35100000000000003,0.341,0.32,0.31,0.26899999999999996,0.259,0.217,0.217,0.18600000000000003,0.145,0.114,0.073,0.021,-0.009000000000000001,-0.04,-0.061,-0.071,-0.08199999999999999,-0.092,-0.102,-0.113,-0.134,-0.134,-0.134,-0.12300000000000001,-0.092,-0.08199999999999999,-0.08199999999999999,-0.092,-0.12300000000000001,-0.134,-0.134,-0.12300000000000001,-0.102,-0.092,-0.092,-0.102,-0.113,-0.12300000000000001,-0.134,-0.134,-0.113,-0.092,-0.092,-0.08199999999999999,-0.092,-0.113,-0.134,-0.113,-0.102,-0.08199999999999999,-0.08199999999999999,-0.08199999999999999,-0.08199999999999999,-0.102,-0.113,-0.113,-0.092,-0.08199999999999999,-0.071,-0.061,-0.08199999999999999,-0.092,-0.092,-0.102,-0.092,-0.071,-0.071,-0.061,-0.071,-0.08199999999999999,-0.092,-0.113,-0.102,-0.08199999999999999,-0.071,-0.071,-0.071,-0.08199999999999999,-0.08199999999999999,-0.08199999999999999,-0.08199999999999999,-0.071,-0.04,-0.04,-0.04,-0.04,-0.061,-0.071,-0.071,-0.051,-0.04,-0.03,-0.03,-0.04,-0.04,-0.04,-0.061,-0.04,-0.04,-0.03,-0.02,-0.02,-0.04,-0.04,-0.04,-0.04,-0.04,-0.009000000000000001,-0.009000000000000001,0.001,-0.02,-0.04,-0.04,-0.051,-0.04,-0.03,0.001,0.001,0.001,-0.02,-0.03,-0.04,-0.03,-0.009000000000000001,0.001,0.001,0.001,0.001,-0.02,-0.04,-0.04,-0.03,-0.009000000000000001,0.001,0.001,0.001,0.001,-0.02,-0.03,-0.03,-0.02,0.001,0.001,0.001,-0.009000000000000001,-0.03,-0.04,-0.03,-0.009000000000000001,0.001,0.001,0.001,0.001,0.001,-0.009000000000000001,-0.009000000000000001,0.001,0.001,0.011000000000000001,0.011000000000000001,0.001,0.001,-0.03,-0.02,-0.009000000000000001,0.001,0.011000000000000001,0.001,0.001,-0.009000000000000001,-0.02,-0.03,-0.03,-0.02,0.001,0.001,0.001,-0.03,-0.03,N
4,0.145,0.125,0.10400000000000001,0.073,0.042,0.001,-0.04,-0.061,-0.08199999999999999,-0.092,-0.102,-0.102,-0.113,-0.113,-0.134,-0.134,-0.14400000000000002,-0.154,-0.14400000000000002,-0.12300000000000001,-0.113,-0.113,-0.134,-0.14400000000000002,-0.14400000000000002,-0.134,-0.134,-0.12300000000000001,-0.113,-0.113,-0.113,-0.134,-0.134,-0.134,-0.12300000000000001,-0.102,-0.08199999999999999,-0.08199999999999999,-0.092,-0.102,-0.134,-0.134,-0.134,-0.12300000000000001,-0.092,-0.08199999999999999,-0.08199999999999999,-0.113,-0.12300000000000001,-0.12300000000000001,-0.113,-0.102,-0.08199999999999999,-0.08199999999999999,-0.071,-0.071,-0.08199999999999999,-0.113,-0.134,-0.12300000000000001,-0.113,-0.092,-0.08199999999999999,-0.08199999999999999,-0.08199999999999999,-0.092,-0.113,-0.102,-0.08199999999999999,-0.071,-0.061,-0.071,-0.08199999999999999,-0.08199999999999999,-0.092,-0.08199999999999999,-0.071,-0.061,-0.051,-0.04,-0.051,-0.071,-0.08199999999999999,-0.08199999999999999,-0.071,-0.051,-0.04,-0.04,-0.04,-0.051,-0.061,-0.061,-0.051,-0.04,-0.04,-0.03,-0.03,-0.04,-0.061,-0.061,-0.071,-0.061,-0.051,-0.03,-0.02,-0.03,-0.04,-0.051,-0.04,-0.03,-0.02,-0.009000000000000001,0.001,-0.009000000000000001,-0.03,-0.04,-0.051,-0.04,-0.03,-0.02,0.001,0.001,-0.009000000000000001,-0.03,-0.04,-0.04,-0.03,0.001,0.001,0.001,0.001,-0.009000000000000001,-0.02,-0.02,0.001,0.001,0.001,0.001,0.001,-0.03,-0.03,-0.04,-0.03,-0.02,-0.009000000000000001,0.001,-0.009000000000000001,-0.02,-0.04,-0.04,-0.051,-0.04,-0.02,0.001,0.001,-0.009000000000000001,-0.03,-0.04,-0.04,-0.03,-0.009000000000000001,-0.009000000000000001,-0.009000000000000001,-0.02,-0.03,-0.04,-0.03,-0.04,-0.02,0.001,0.001,0.001,0.001,-0.03,-0.04,-0.04,-0.04,-0.02,-0.009000000000000001,-0.009000000000000001,-0.02,-0.03,-0.04,-0.061,-0.051,-0.04,-0.03,-0.02,-0.02,-0.03,-0.04,-0.04,-0.04,-0.02,-0.009000000000000001,0.001,0.001,-0.009000000000000001,-0.04,-0.04,-0.04,-0.03,-0.009000000000000001,0.001,-0.009000000000000001,-0.02,-0.03,-0.04,-0.03,-0.03,0.001,0.001,0.001,0.001,-0.009000000000000001,-0.03,-0.03,-0.03,-0.009000000000000001,0.001,0.001,0.001,-0.009000000000000001,-0.02,-0.02,-0.04,-0.03,-0.009000000000000001,0.001,0.001,0.001,-0.02,-0.04,-0.04,-0.02,-0.02,0.001,0.001,0.001,-0.009000000000000001,-0.02,-0.02,-0.02,-0.009000000000000001,0.001,0.001,0.001,0.001,-0.009000000000000001,-0.02,-0.009000000000000001,0.001,0.011000000000000001,0.011000000000000001,0.021,0.011000000000000001,0.001,-0.02,-0.02,-0.009000000000000001,0.001,0.001,0.021,0.011000000000000001,0.001,-0.02,-0.02,-0.009000000000000001,0.001,0.021,0.042,0.042,0.021,0.001,0.001,0.001,0.011000000000000001,0.031,0.042,0.031,0.031,0.021,0.011000000000000001,0.011000000000000001,0.042,0.063,0.083,0.083,0.083,0.073,0.063,0.063,0.073,0.073,0.083,0.094,0.094,0.083,0.042,0.042,0.021,0.042,0.042,0.042,0.052000000000000005,0.042,0.021,0.001,0.001,0.001,0.001,0.011000000000000001,0.011000000000000001,0.001,0.001,-0.03,-0.04,-0.04,-0.02,-0.009000000000000001,0.001,0.001,0.001,-0.02,-0.04,-0.04,-0.03,-0.009000000000000001,0.001,0.001,-0.009000000000000001,-0.03,-0.03,-0.04,-0.02,0.001,0.001,0.001,0.001,-0.02,-0.03,-0.03,-0.02,0.001,0.001,0.001,0.001,-0.009000000000000001,-0.03,-0.04,-0.03,-0.009000000000000001,0.001,0.001,0.001,-0.009000000000000001,-0.03,-0.04,-0.04,-0.04,-0.02,0.001,0.001,-0.009000000000000001,-0.02,-0.009000000000000001,-0.009000000000000001,0.001,0.001,0.021,0.021,0.021,0.031,0.042,0.063,0.083,0.135,0.17600000000000002,0.228,0.26899999999999996,0.29,0.31,0.341,0.37200000000000005,0.40299999999999997,0.444,0.485,0.496,0.485,0.465,0.444,0.444,0.434,0.424,0.40299999999999997,0.382,0.36200000000000004,0.341,0.331,0.32,0.32,0.32,0.35100000000000003,0.341,0.32,0.31,0.26899999999999996,0.259,0.217,0.217,0.18600000000000003,0.145,0.114,0.073,0.021,-0.009000000000000001,-0.04,-0.061,-0.071,-0.08199999999999999,-0.092,-0.102,-0.113,-0.134,-0.134,-0.134,-0.12300000000000001,-0.092,-0.08199999999999999,-0.08199999999999999,-0.092,-0.12300000000000001,-0.134,-0.134,-0.12300000000000001,-0.102,-0.092,-0.092,-0.102,-0.113,-0.12300000000000001,-0.134,-0.134,-0.113,-0.092,-0.092,-0.08199999999999999,-0.092,-0.113,-0.134,-0.113,-0.102,-0.08199999999999999,-0.08199999999999999,-0.08199999999999999,-0.08199999999999999,-0.102,-0.113,-0.113,-0.092,-0.08199999999999999,-0.071,-0.061,-0.08199999999999999,-0.092,-0.092,-0.102,-0.092,-0.071,-0.071,-0.061,-0.071,-0.08199999999999999,-0.092,-0.113,-0.102,-0.08199999999999999,-0.071,-0.071,-0.071,-0.08199999999999999,-0.08199999999999999,-0.08199999999999999,-0.08199999999999999,-0.071,-0.04,-0.04,-0.04,-0.04,-0.061,-0.071,-0.071,-0.051,-0.04,-0.03,-0.03,-0.04,-0.04,-0.04,-0.061,-0.04,-0.04,-0.03,-0.02,-0.02,-0.04,-0.04,-0.04,-0.04,-0.04,-0.009000000000000001,-0.009000000000000001,0.001,-0.02,-0.04,-0.04,-0.051,-0.04,-0.03,0.001,0.001,0.001,-0.02,-0.03,-0.04,-0.03,-0.009000000000000001,0.001,0.001,0.001,0.001,-0.02,-0.04,-0.04,-0.03,-0.009000000000000001,0.001,0.001,0.001,0.001,-0.02,-0.03,-0.03,-0.02,0.001,0.001,0.001,-0.009000000000000001,-0.03,-0.04,-0.03,-0.009000000000000001,0.001,0.001,0.001,0.001,0.001,-0.009000000000000001,-0.009000000000000001,0.001,0.001,0.011000000000000001,0.011000000000000001,0.001,0.001,-0.03,-0.02,-0.009000000000000001,0.001,0.011000000000000001,0.001,0.001,-0.009000000000000001,-0.02,-0.03,-0.03,-0.02,0.001,0.001,0.001,-0.03,-0.03,-0.04,-0.04,-0.03,-0.02,-0.009000000000000001,-0.02,-0.03,-0.04,-0.04,-0.04,-0.04,-0.02,-0.009000000000000001,-0.02,-0.03,-0.04,-0.051,-0.061,-0.051,-0.04,-0.03,-0.02,-0.009000000000000001,-0.03,-0.04,-0.04,-0.04,-0.03,-0.009000000000000001,0.001,0.001,-0.02,-0.04,-0.051,-0.061,-0.051,-0.04,-0.02,-0.009000000000000001,-0.009000000000000001,-0.02,-0.04,-0.04,-0.02,-0.02,0.001,0.001,0.001,-0.02,-0.04,-0.051,-0.051,-0.04,-0.04,-0.02,-0.02,-0.02,-0.02,-0.04,-0.04,-0.03,-0.02,-0.009000000000000001,-0.009000000000000001,-0.02,-0.02,-0.03,-0.03,-0.02,-0.009000000000000001,0.001,0.001,0.001,-0.02,-0.04,-0.051,-0.051,-0.04,-0.03,-0.009000000000000001,-0.009000000000000001,-0.02,-0.03,-0.04,-0.04,-0.03,-0.02,0.001,0.001,-0.02,-0.03,-0.04,-0.051,-0.04,-0.03,0.001,0.001,0.001,-0.02,-0.04,-0.04,-0.04,-0.04,-0.02,0.001,0.001,0.001,-0.009000000000000001,-0.02,-0.02,0.001,0.001,0.001,0.001,0.001,-0.02,-0.04,-0.04,-0.03,0.001,0.021,0.031,0.042,0.042,0.042,0.042,0.042,0.042,0.073,0.063,0.052000000000000005,0.042,0.031,0.001,0.001,0.001,0.011000000000000001,0.021,0.011000000000000001,0.001,0.001,-0.02,-0.03,-0.04,-0.03,-0.02,-0.02,-0.02,-0.04,-0.051,-0.071,-0.061,-0.051,-0.04,-0.03,-0.03,-0.04,-0.071,-0.08199999999999999,-0.08199999999999999,-0.061,-0.04,-0.03,-0.02,-0.03,-0.04,-0.061,-0.08199999999999999,-0.071,-0.061,-0.04,-0.04,-0.04,-0.051,-0.071,-0.08199999999999999,-0.08199999999999999,-0.071,-0.051,-0.04,-0.04,-0.051,-0.08199999999999999,-0.092,-0.08199999999999999,-0.071,-0.051,-0.04,-0.03,-0.04,-0.04,-0.061,-0.061,-0.051,-0.04,-0.04,-0.04,-0.04,-0.051,-0.071,-0.08199999999999999,-0.08199999999999999,-0.061,-0.04,-0.04,-0.04,-0.04,-0.04,-0.04,-0.02,0.001,0.042,0.083,0.135,0.17600000000000002,0.217,0.248,0.27899999999999997,0.331,0.382,0.434,0.485,0.527,0.537,0.537,0.537,0.527,0.527,0.527,0.496,0.485,0.444,0.424,0.40299999999999997,0.40299999999999997,0.40299999999999997,0.40299999999999997,0.40299999999999997,0.40299999999999997,0.37200000000000005,0.341,0.31,0.26899999999999996,0.248,0.217,0.19699999999999998,0.17600000000000002,0.135,0.073,0.011000000000000001,-0.03,-0.061,-0.08199999999999999,-0.08199999999999999,-0.102,-0.12300000000000001,-0.134,-0.16399999999999998,-0.174,-0.185,-0.174,-0.174,-0.14400000000000002,-0.134,-0.14400000000000002,-0.154,-0.174,-0.174,-0.16399999999999998,-0.154,-0.14400000000000002,-0.14400000000000002,-0.14400000000000002,-0.16399999999999998,-0.174,-0.174,-0.185,-0.174,-0.14400000000000002,-0.14400000000000002,-0.134,-0.14400000000000002,-0.174,-0.185,-0.185,-0.174,-0.154,-0.134,-0.134,-0.134,-0.134,-0.16399999999999998,-0.154,-0.154,-0.134,-0.12300000000000001,-0.12300000000000001,-0.134,-0.134,-0.134,-0.14400000000000002,-0.134,-0.134,-0.102,-0.092,-0.102,-0.134,-0.14400000000000002,-0.154,-0.154,-0.134,-0.113,-0.08199999999999999,-0.102,-0.134,-0.134,-0.134,-0.134,-0.12300000000000001,-0.102,-0.08199999999999999,-0.08199999999999999,-0.092,-0.102,-0.134,-0.134,-0.12300000000000001,-0.102,-0.08199999999999999,-0.071,-0.071,-0.08199999999999999,-0.092,-0.102,-0.113,-0.113,-0.12300000000000001,-0.102,-0.08199999999999999,-0.08199999999999999,-0.092,-0.113,-0.113,-0.092,-0.08199999999999999,-0.071,-0.071,-0.08199999999999999,-0.092,-0.113,-0.113,-0.102,-0.08199999999999999,-0.061,-0.051,-0.061,-0.08199999999999999,-0.08199999999999999,-0.092,-0.092,-0.08199999999999999,-0.061,-0.04,-0.04,-0.04,-0.061,-0.08199999999999999,-0.092,-0.08199999999999999,-0.061,-0.04,-0.04,-0.051,-0.061,-0.08199999999999999,-0.08199999999999999,-0.08199999999999999,-0.071,-0.061,-0.04,-0.04,-0.051,-0.071,-0.08199999999999999,-0.08199999999999999,-0.051,-0.04,-0.02,-0.02,-0.03,-0.051,-0.08199999999999999,-0.092,-0.08199999999999999,-0.08199999999999999,-0.061,-0.04,-0.04,-0.051,-0.071,-0.071,-0.061,-0.04,-0.03,-0.03,-0.04,-0.051,-0.061,-0.08199999999999999,-0.071,-0.051,-0.04,-0.03,-0.04,-0.051,-0.08199999999999999,-0.08199999999999999,-0.08199999999999999,N
5,0.18600000000000003,0.145,0.114,0.073,0.021,-0.009000000000000001,-0.04,-0.061,-0.071,-0.08199999999999999,-0.092,-0.102,-0.113,-0.134,-0.134,-0.134,-0.12300000000000001,-0.092,-0.08199999999999999,-0.08199999999999999,-0.092,-0.12300000000000001,-0.134,-0.134,-0.12300000000000001,-0.102,-0.092,-0.092,-0.102,-0.113,-0.12300000000000001,-0.134,-0.134,-0.113,-0.092,-0.092,-0.08199999999999999,-0.092,-0.113,-0.134,-0.113,-0.102,-0.08199999999999999,-0.08199999999999999,-0.08199999999999999,-0.08199999999999999,-0.102,-0.113,-0.113,-0.092,-0.08199999999999999,-0.071,-0.061,-0.08199999999999999,-0.092,-0.092,-0.102,-0.092,-0.071,-0.071,-0.061,-0.071,-0.08199999999999999,-0.092,-0.113,-0.102,-0.08199999999999999,-0.071,-0.071,-0.071,-0.08199999999999999,-0.08199999999999999,-0.08199999999999999,-0.08199999999999999,-0.071,-0.04,-0.04,-0.04,-0.04,-0.061,-0.071,-0.071,-0.051,-0.04,-0.03,-0.03,-0.04,-0.04,-0.04,-0.061,-0.04,-0.04,-0.03,-0.02,-0.02,-0.04,-0.04,-0.04,-0.04,-0.04,-0.009000000000000001,-0.009000000000000001,0.001,-0.02,-0.04,-0.04,-0.051,-0.04,-0.03,0.001,0.001,0.001,-0.02,-0.03,-0.04,-0.03,-0.009000000000000001,0.001,0.001,0.001,0.001,-0.02,-0.04,-0.04,-0.03,-0.009000000000000001,0.001,0.001,0.001,0.001,-0.02,-0.03,-0.03,-0.02,0.001,0.001,0.001,-0.009000000000000001,-0.03,-0.04,-0.03,-0.009000000000000001,0.001,0.001,0.001,0.001,0.001,-0.009000000000000001,-0.009000000000000001,0.001,0.001,0.011000000000000001,0.011000000000000001,0.001,0.001,-0.03,-0.02,-0.009000000000000001,0.001,0.011000000000000001,0.001,0.001,-0.009000000000000001,-0.02,-0.03,-0.03,-0.02,0.001,0.001,0.001,-0.03,-0.03,-0.04,-0.04,-0.03,-0.02,-0.009000000000000001,-0.02,-0.03,-0.04,-0.04,-0.04,-0.04,-0.02,-0.009000000000000001,-0.02,-0.03,-0.04,-0.051,-0.061,-0.051,-0.04,-0.03,-0.02,-0.009000000000000001,-0.03,-0.04,-0.04,-0.04,-0.03,-0.009000000000000001,0.001,0.001,-0.02,-0.04,-0.051,-0.061,-0.051,-0.04,-0.02,-0.009000000000000001,-0.009000000000000001,-0.02,-0.04,-0.04,-0.02,-0.02,0.001,0.001,0.001,-0.02,-0.04,-0.051,-0.051,-0.04,-0.04,-0.02,-0.02,-0.02,-0.02,-0.04,-0.04,-0.03,-0.02,-0.009000000000000001,-0.009000000000000001,-0.02,-0.02,-0.03,-0.03,-0.02,-0.009000000000000001,0.001,0.001,0.001,-0.02,-0.04,-0.051,-0.051,-0.04,-0.03,-0.009000000000000001,-0.009000000000000001,-0.02,-0.03,-0.04,-0.04,-0.03,-0.02,0.001,0.001,-0.02,-0.03,-0.04,-0.051,-0.04,-0.03,0.001,0.001,0.001,-0.02,-0.04,-0.04,-0.04,-0.04,-0.02,0.001,0.001,0.001,-0.009000000000000001,-0.02,-0.02,0.001,0.001,0.001,0.001,0.001,-0.02,-0.04,-0.04,-0.03,0.001,0.021,0.031,0.042,0.042,0.042,0.042,0.042,0.042,0.073,0.063,0.052000000000000005,0.042,0.031,0.001,0.001,0.001,0.011000000000000001,0.021,0.011000000000000001,0.001,0.001,-0.02,-0.03,-0.04,-0.03,-0.02,-0.02,-0.02,-0.04,-0.051,-0.071,-0.061,-0.051,-0.04,-0.03,-0.03,-0.04,-0.071,-0.08199999999999999,-0.08199999999999999,-0.061,-0.04,-0.03,-0.02,-0.03,-0.04,-0.061,-0.08199999999999999,-0.071,-0.061,-0.04,-0.04,-0.04,-0.051,-0.071,-0.08199999999999999,-0.08199999999999999,-0.071,-0.051,-0.04,-0.04,-0.051,-0.08199999999999999,-0.092,-0.08199999999999999,-0.071,-0.051,-0.04,-0.03,-0.04,-0.04,-0.061,-0.061,-0.051,-0.04,-0.04,-0.04,-0.04,-0.051,-0.071,-0.08199999999999999,-0.08199999999999999,-0.061,-0.04,-0.04,-0.04,-0.04,-0.04,-0.04,-0.02,0.001,0.042,0.083,0.135,0.17600000000000002,0.217,0.248,0.27899999999999997,0.331,0.382,0.434,0.485,0.527,0.537,0.537,0.537,0.527,0.527,0.527,0.496,0.485,0.444,0.424,0.40299999999999997,0.40299999999999997,0.40299999999999997,0.40299999999999997,0.40299999999999997,0.40299999999999997,0.37200000000000005,0.341,0.31,0.26899999999999996,0.248,0.217,0.19699999999999998,0.17600000000000002,0.135,0.073,0.011000000000000001,-0.03,-0.061,-0.08199999999999999,-0.08199999999999999,-0.102,-0.12300000000000001,-0.134,-0.16399999999999998,-0.174,-0.185,-0.174,-0.174,-0.14400000000000002,-0.134,-0.14400000000000002,-0.154,-0.174,-0.174,-0.16399999999999998,-0.154,-0.14400000000000002,-0.14400000000000002,-0.14400000000000002,-0.16399999999999998,-0.174,-0.174,-0.185,-0.174,-0.14400000000000002,-0.14400000000000002,-0.134,-0.14400000000000002,-0.174,-0.185,-0.185,-0.174,-0.154,-0.134,-0.134,-0.134,-0.134,-0.16399999999999998,-0.154,-0.154,-0.134,-0.12300000000000001,-0.12300000000000001,-0.134,-0.134,-0.134,-0.14400000000000002,-0.134,-0.134,-0.102,-0.092,-0.102,-0.134,-0.14400000000000002,-0.154,-0.154,-0.134,-0.113,-0.08199999999999999,-0.102,-0.134,-0.134,-0.134,-0.134,-0.12300000000000001,-0.102,-0.08199999999999999,-0.08199999999999999,-0.092,-0.102,-0.134,-0.134,-0.12300000000000001,-0.102,-0.08199999999999999,-0.071,-0.071,-0.08199999999999999,-0.092,-0.102,-0.113,-0.113,-0.12300000000000001,-0.102,-0.08199999999999999,-0.08199999999999999,-0.092,-0.113,-0.113,-0.092,-0.08199999999999999,-0.071,-0.071,-0.08199999999999999,-0.092,-0.113,-0.113,-0.102,-0.08199999999999999,-0.061,-0.051,-0.061,-0.08199999999999999,-0.08199999999999999,-0.092,-0.092,-0.08199999999999999,-0.061,-0.04,-0.04,-0.04,-0.061,-0.08199999999999999,-0.092,-0.08199999999999999,-0.061,-0.04,-0.04,-0.051,-0.061,-0.08199999999999999,-0.08199999999999999,-0.08199999999999999,-0.071,-0.061,-0.04,-0.04,-0.051,-0.071,-0.08199999999999999,-0.08199999999999999,-0.051,-0.04,-0.02,-0.02,-0.03,-0.051,-0.08199999999999999,-0.092,-0.08199999999999999,-0.08199999999999999,-0.061,-0.04,-0.04,-0.051,-0.071,-0.071,-0.061,-0.04,-0.03,-0.03,-0.04,-0.051,-0.061,-0.08199999999999999,-0.071,-0.051,-0.04,-0.03,-0.04,-0.051,-0.08199999999999999,-0.08199999999999999,-0.08199999999999999,-0.08199999999999999,-0.051,-0.03,-0.02,-0.04,-0.061,-0.08199999999999999,-0.092,-0.08199999999999999,-0.08199999999999999,-0.061,-0.04,-0.04,-0.04,-0.071,-0.08199999999999999,-0.08199999999999999,-0.071,-0.061,-0.04,-0.04,-0.04,-0.04,-0.061,-0.08199999999999999,-0.08199999999999999,-0.08199999999999999,-0.08199999999999999,-0.08199999999999999,-0.08199999999999999,-0.08199999999999999,-0.08199999999999999,-0.071,-0.051,-0.04,-0.04,-0.03,-0.04,-0.051,-0.061,-0.071,-0.061,-0.061,-0.04,-0.04,-0.03,-0.04,-0.061,-0.071,-0.08199999999999999,-0.071,-0.051,-0.04,-0.03,-0.03,-0.03,-0.051,-0.051,-0.051,-0.04,-0.03,-0.02,-0.03,-0.04,-0.051,-0.071,-0.071,-0.051,-0.04,-0.04,-0.03,-0.03,-0.04,-0.051,-0.061,-0.051,-0.03,-0.02,-0.02,-0.03,-0.04,-0.04,-0.051,-0.051,-0.051,-0.03,-0.02,-0.03,-0.04,-0.04,-0.04,-0.04,-0.04,-0.02,0.001,0.001,0.001,-0.02,-0.051,-0.061,-0.061,-0.061,-0.04,-0.03,-0.03,-0.04,-0.04,-0.051,-0.04,-0.02,0.001,0.011000000000000001,0.001,0.001,-0.03,-0.03,-0.02,-0.009000000000000001,0.001,0.011000000000000001,0.001,-0.009000000000000001,-0.02,-0.02,0.001,0.011000000000000001,0.031,0.042,0.052000000000000005,0.052000000000000005,0.052000000000000005,0.042,0.052000000000000005,0.042,0.042,0.031,0.052000000000000005,0.042,0.042,0.031,0.021,0.011000000000000001,0.011000000000000001,0.011000000000000001,0.011000000000000001,0.001,0.001,-0.009000000000000001,-0.04,-0.051,-0.04,-0.03,-0.02,-0.009000000000000001,-0.04,-0.04,-0.04,-0.061,-0.061,-0.04,-0.03,-0.02,-0.02,-0.03,-0.04,-0.04,-0.04,-0.04,-0.03,-0.03,-0.03,-0.04,-0.04,-0.04,-0.04,-0.03,-0.02,-0.02,-0.03,-0.04,-0.051,-0.061,-0.071,-0.061,-0.051,-0.04,-0.03,-0.04,-0.061,-0.071,-0.08199999999999999,-0.071,-0.061,-0.04,-0.03,-0.02,-0.03,-0.04,-0.04,-0.051,-0.04,-0.03,-0.02,-0.02,-0.04,-0.04,-0.051,-0.051,-0.04,-0.009000000000000001,0.001,0.031,0.042,0.052000000000000005,0.073,0.10400000000000001,0.155,0.217,0.26899999999999996,0.331,0.382,0.424,0.444,0.475,0.516,0.5579999999999999,0.598,0.619,0.619,0.598,0.578,0.537,0.496,0.475,0.465,0.475,0.485,0.475,0.444,0.413,0.39299999999999996,0.37200000000000005,0.36200000000000004,0.35100000000000003,0.35100000000000003,0.31,0.26899999999999996,0.217,0.17600000000000002,0.135,0.094,0.073,0.042,0.021,-0.009000000000000001,-0.051,-0.102,-0.12300000000000001,-0.12300000000000001,-0.134,-0.102,-0.102,-0.102,-0.12300000000000001,-0.134,-0.14400000000000002,-0.14400000000000002,-0.134,-0.113,-0.102,-0.102,-0.12300000000000001,-0.134,-0.134,-0.134,-0.12300000000000001,-0.102,-0.092,-0.08199999999999999,-0.08199999999999999,-0.102,-0.12300000000000001,-0.134,-0.12300000000000001,-0.102,-0.092,-0.08199999999999999,-0.08199999999999999,-0.08199999999999999,-0.113,-0.113,-0.113,-0.102,-0.08199999999999999,-0.071,-0.061,-0.071,-0.08199999999999999,-0.08199999999999999,-0.08199999999999999,-0.08199999999999999,-0.051,-0.051,-0.04,-0.051,-0.061,-0.08199999999999999,-0.092,-0.08199999999999999,-0.061,-0.04,-0.04,-0.04,-0.051,-0.071,-0.071,-0.071,-0.051,-0.03,-0.03,-0.04,-0.04,-0.061,-0.071,-0.061,-0.051,-0.04,-0.03,-0.009000000000000001,-0.03,-0.04,-0.04,-0.051,-0.04,-0.03,-0.009000000000000001,0.001,0.001,-0.009000000000000001,-0.04,-0.04,-0.04,-0.02,0.001,0.001,0.001,0.001,-0.02,-0.03,-0.04,-0.02,-0.009000000000000001,0.001,0.001,-0.009000000000000001,-0.02,-0.03,-0.04,-0.03,-0.009000000000000001,0.001,0.001,0.001,0.001,-0.02,-0.03,-0.03,-0.009000000000000001,0.001,0.011000000000000001,0.011000000000000001,0.001,0.001,-0.02,-0.02,0.001,0.001,0.011000000000000001,0.021,0.011000000000000001,0.001,-0.009000000000000001,-0.02,-0.009000000000000001,0.001,0.001,0.011000000000000001,0.001,0.001,-0.02,-0.02,-0.02,-0.009000000000000001,0.001,0.001,0.001,0.001,-0.009000000000000001,-0.03,-0.03,-0.02,0.001,0.001,0.001,0.001,-0.02,-0.03,-0.03,-0.03,-0.02,N
6,0.135,0.073,0.011000000000000001,-0.03,-0.061,-0.08199999999999999,-0.08199999999999999,-0.102,-0.12300000000000001,-0.134,-0.16399999999999998,-0.174,-0.185,-0.174,-0.174,-0.14400000000000002,-0.134,-0.14400000000000002,-0.154,-0.174,-0.174,-0.16399999999999998,-0.154,-0.14400000000000002,-0.14400000000000002,-0.14400000000000002,-0.16399999999999998,-0.174,-0.174,-0.185,-0.174,-0.14400000000000002,-0.14400000000000002,-0.134,-0.14400000000000002,-0.174,-0.185,-0.185,-0.174,-0.154,-0.134,-0.134,-0.134,-0.134,-0.16399999999999998,-0.154,-0.154,-0.134,-0.12300000000000001,-0.12300000000000001,-0.134,-0.134,-0.134,-0.14400000000000002,-0.134,-0.134,-0.102,-0.092,-0.102,-0.134,-0.14400000000000002,-0.154,-0.154,-0.134,-0.113,-0.08199999999999999,-0.102,-0.134,-0.134,-0.134,-0.134,-0.12300000000000001,-0.102,-0.08199999999999999,-0.08199999999999999,-0.092,-0.102,-0.134,-0.134,-0.12300000000000001,-0.102,-0.08199999999999999,-0.071,-0.071,-0.08199999999999999,-0.092,-0.102,-0.113,-0.113,-0.12300000000000001,-0.102,-0.08199999999999999,-0.08199999999999999,-0.092,-0.113,-0.113,-0.092,-0.08199999999999999,-0.071,-0.071,-0.08199999999999999,-0.092,-0.113,-0.113,-0.102,-0.08199999999999999,-0.061,-0.051,-0.061,-0.08199999999999999,-0.08199999999999999,-0.092,-0.092,-0.08199999999999999,-0.061,-0.04,-0.04,-0.04,-0.061,-0.08199999999999999,-0.092,-0.08199999999999999,-0.061,-0.04,-0.04,-0.051,-0.061,-0.08199999999999999,-0.08199999999999999,-0.08199999999999999,-0.071,-0.061,-0.04,-0.04,-0.051,-0.071,-0.08199999999999999,-0.08199999999999999,-0.051,-0.04,-0.02,-0.02,-0.03,-0.051,-0.08199999999999999,-0.092,-0.08199999999999999,-0.08199999999999999,-0.061,-0.04,-0.04,-0.051,-0.071,-0.071,-0.061,-0.04,-0.03,-0.03,-0.04,-0.051,-0.061,-0.08199999999999999,-0.071,-0.051,-0.04,-0.03,-0.04,-0.051,-0.08199999999999999,-0.08199999999999999,-0.08199999999999999,-0.08199999999999999,-0.051,-0.03,-0.02,-0.04,-0.061,-0.08199999999999999,-0.092,-0.08199999999999999,-0.08199999999999999,-0.061,-0.04,-0.04,-0.04,-0.071,-0.08199999999999999,-0.08199999999999999,-0.071,-0.061,-0.04,-0.04,-0.04,-0.04,-0.061,-0.08199999999999999,-0.08199999999999999,-0.08199999999999999,-0.08199999999999999,-0.08199999999999999,-0.08199999999999999,-0.08199999999999999,-0.08199999999999999,-0.071,-0.051,-0.04,-0.04,-0.03,-0.04,-0.051,-0.061,-0.071,-0.061,-0.061,-0.04,-0.04,-0.03,-0.04,-0.061,-0.071,-0.08199999999999999,-0.071,-0.051,-0.04,-0.03,-0.03,-0.03,-0.051,-0.051,-0.051,-0.04,-0.03,-0.02,-0.03,-0.04,-0.051,-0.071,-0.071,-0.051,-0.04,-0.04,-0.03,-0.03,-0.04,-0.051,-0.061,-0.051,-0.03,-0.02,-0.02,-0.03,-0.04,-0.04,-0.051,-0.051,-0.051,-0.03,-0.02,-0.03,-0.04,-0.04,-0.04,-0.04,-0.04,-0.02,0.001,0.001,0.001,-0.02,-0.051,-0.061,-0.061,-0.061,-0.04,-0.03,-0.03,-0.04,-0.04,-0.051,-0.04,-0.02,0.001,0.011000000000000001,0.001,0.001,-0.03,-0.03,-0.02,-0.009000000000000001,0.001,0.011000000000000001,0.001,-0.009000000000000001,-0.02,-0.02,0.001,0.011000000000000001,0.031,0.042,0.052000000000000005,0.052000000000000005,0.052000000000000005,0.042,0.052000000000000005,0.042,0.042,0.031,0.052000000000000005,0.042,0.042,0.031,0.021,0.011000000000000001,0.011000000000000001,0.011000000000000001,0.011000000000000001,0.001,0.001,-0.009000000000000001,-0.04,-0.051,-0.04,-0.03,-0.02,-0.009000000000000001,-0.04,-0.04,-0.04,-0.061,-0.061,-0.04,-0.03,-0.02,-0.02,-0.03,-0.04,-0.04,-0.04,-0.04,-0.03,-0.03,-0.03,-0.04,-0.04,-0.04,-0.04,-0.03,-0.02,-0.02,-0.03,-0.04,-0.051,-0.061,-0.071,-0.061,-0.051,-0.04,-0.03,-0.04,-0.061,-0.071,-0.08199999999999999,-0.071,-0.061,-0.04,-0.03,-0.02,-0.03,-0.04,-0.04,-0.051,-0.04,-0.03,-0.02,-0.02,-0.04,-0.04,-0.051,-0.051,-0.04,-0.009000000000000001,0.001,0.031,0.042,0.052000000000000005,0.073,0.10400000000000001,0.155,0.217,0.26899999999999996,0.331,0.382,0.424,0.444,0.475,0.516,0.5579999999999999,0.598,0.619,0.619,0.598,0.578,0.537,0.496,0.475,0.465,0.475,0.485,0.475,0.444,0.413,0.39299999999999996,0.37200000000000005,0.36200000000000004,0.35100000000000003,0.35100000000000003,0.31,0.26899999999999996,0.217,0.17600000000000002,0.135,0.094,0.073,0.042,0.021,-0.009000000000000001,-0.051,-0.102,-0.12300000000000001,-0.12300000000000001,-0.134,-0.102,-0.102,-0.102,-0.12300000000000001,-0.134,-0.14400000000000002,-0.14400000000000002,-0.134,-0.113,-0.102,-0.102,-0.12300000000000001,-0.134,-0.134,-0.134,-0.12300000000000001,-0.102,-0.092,-0.08199999999999999,-0.08199999999999999,-0.102,-0.12300000000000001,-0.134,-0.12300000000000001,-0.102,-0.092,-0.08199999999999999,-0.08199999999999999,-0.08199999999999999,-0.113,-0.113,-0.113,-0.102,-0.08199999999999999,-0.071,-0.061,-0.071,-0.08199999999999999,-0.08199999999999999,-0.08199999999999999,-0.08199999999999999,-0.051,-0.051,-0.04,-0.051,-0.061,-0.08199999999999999,-0.092,-0.08199999999999999,-0.061,-0.04,-0.04,-0.04,-0.051,-0.071,-0.071,-0.071,-0.051,-0.03,-0.03,-0.04,-0.04,-0.061,-0.071,-0.061,-0.051,-0.04,-0.03,-0.009000000000000001,-0.03,-0.04,-0.04,-0.051,-0.04,-0.03,-0.009000000000000001,0.001,0.001,-0.009000000000000001,-0.04,-0.04,-0.04,-0.02,0.001,0.001,0.001,0.001,-0.02,-0.03,-0.04,-0.02,-0.009000000000000001,0.001,0.001,-0.009000000000000001,-0.02,-0.03,-0.04,-0.03,-0.009000000000000001,0.001,0.001,0.001,0.001,-0.02,-0.03,-0.03,-0.009000000000000001,0.001,0.011000000000000001,0.011000000000000001,0.001,0.001,-0.02,-0.02,0.001,0.001,0.011000000000000001,0.021,0.011000000000000001,0.001,-0.009000000000000001,-0.02,-0.009000000000000001,0.001,0.001,0.011000000000000001,0.001,0.001,-0.02,-0.02,-0.02,-0.009000000000000001,0.001,0.001,0.001,0.001,-0.009000000000000001,-0.03,-0.03,-0.02,0.001,0.001,0.001,0.001,-0.02,-0.03,-0.03,-0.03,-0.02,0.001,0.001,-0.009000000000000001,-0.009000000000000001,-0.03,-0.04,-0.03,-0.02,0.001,0.001,0.001,-0.009000000000000001,-0.03,-0.04,-0.04,-0.04,-0.02,-0.009000000000000001,-0.02,-0.02,-0.04,-0.051,-0.061,-0.04,-0.03,-0.02,-0.009000000000000001,-0.02,-0.03,-0.04,-0.04,-0.04,-0.04,-0.02,-0.02,-0.02,-0.03,-0.04,-0.04,-0.04,-0.04,-0.02,-0.009000000000000001,-0.009000000000000001,-0.009000000000000001,-0.03,-0.04,-0.04,-0.03,-0.009000000000000001,0.001,0.001,-0.009000000000000001,-0.02,-0.03,-0.04,-0.04,-0.04,-0.02,-0.009000000000000001,0.001,-0.02,-0.04,-0.04,-0.03,-0.02,-0.009000000000000001,0.001,0.001,-0.009000000000000001,-0.02,-0.04,-0.04,-0.03,-0.009000000000000001,0.001,0.001,0.001,0.001,-0.03,-0.04,-0.04,-0.02,0.001,0.001,0.001,0.001,-0.02,-0.04,-0.03,-0.009000000000000001,0.001,0.001,0.001,0.001,-0.03,-0.03,-0.04,-0.02,-0.009000000000000001,0.001,0.001,0.001,-0.009000000000000001,-0.03,-0.04,-0.02,-0.009000000000000001,0.001,0.011000000000000001,0.001,0.001,-0.009000000000000001,-0.02,-0.03,-0.009000000000000001,0.001,0.011000000000000001,0.021,0.011000000000000001,0.001,-0.009000000000000001,-0.02,-0.009000000000000001,0.001,0.011000000000000001,0.011000000000000001,0.001,0.001,0.001,0.001,0.001,0.021,0.042,0.063,0.073,0.063,0.063,0.042,0.042,0.063,0.083,0.094,0.083,0.083,0.052000000000000005,0.042,0.042,0.042,0.031,0.042,0.042,0.031,0.001,0.001,-0.009000000000000001,-0.009000000000000001,0.001,0.001,0.001,0.001,-0.009000000000000001,-0.03,-0.03,-0.04,-0.03,0.001,0.001,0.001,-0.009000000000000001,-0.03,-0.04,-0.04,-0.03,-0.04,-0.03,-0.02,-0.02,-0.04,-0.051,-0.051,-0.04,-0.04,-0.02,-0.009000000000000001,-0.009000000000000001,-0.02,-0.04,-0.04,-0.04,-0.03,-0.009000000000000001,0.001,0.001,-0.02,-0.04,-0.051,-0.04,-0.03,-0.02,0.001,0.001,0.001,-0.02,-0.03,-0.04,-0.04,-0.02,-0.009000000000000001,0.001,0.001,-0.009000000000000001,-0.03,-0.03,-0.03,-0.009000000000000001,0.001,0.011000000000000001,0.021,0.042,0.042,0.052000000000000005,0.083,0.135,0.18600000000000003,0.248,0.29,0.31,0.35100000000000003,0.37200000000000005,0.40299999999999997,0.434,0.465,0.496,0.496,0.485,0.465,0.444,0.444,0.434,0.40299999999999997,0.39299999999999996,0.382,0.382,0.36200000000000004,0.35100000000000003,0.341,0.32,0.31,0.32,0.331,0.32,0.299,0.26899999999999996,0.228,0.19699999999999998,0.17600000000000002,0.155,0.135,0.083,0.042,0.011000000000000001,-0.02,-0.051,-0.08199999999999999,-0.08199999999999999,-0.08199999999999999,-0.08199999999999999,-0.08199999999999999,-0.113,-0.134,-0.154,-0.154,-0.14400000000000002,-0.12300000000000001,-0.102,-0.102,-0.102,-0.134,-0.14400000000000002,-0.154,-0.14400000000000002,-0.134,-0.102,-0.102,-0.113,-0.12300000000000001,-0.134,-0.14400000000000002,-0.134,-0.12300000000000001,-0.092,-0.08199999999999999,-0.092,-0.102,-0.113,-0.134,-0.134,-0.12300000000000001,-0.113,-0.102,-0.08199999999999999,-0.092,-0.092,-0.102,-0.102,-0.102,-0.092,-0.08199999999999999,-0.071,-0.08199999999999999,-0.092,-0.113,-0.12300000000000001,-0.102,-0.08199999999999999,-0.08199999999999999,-0.08199999999999999,-0.071,-0.071,-0.08199999999999999,-0.08199999999999999,-0.102,-0.092,-0.08199999999999999,-0.071,-0.071,-0.071,-0.08199999999999999,-0.08199999999999999,-0.092,-0.08199999999999999,-0.08199999999999999,-0.051,-0.04,-0.04,-0.051,-0.071,-0.071,-0.061,-0.051,-0.04,-0.03,-0.03,-0.04,-0.071,-0.08199999999999999,-0.08199999999999999,-0.061,-0.04,-0.03,-0.03,-0.04,-0.051,-0.061,-0.071,-0.051,-0.04,-0.03,-0.02,-0.03,-0.04,-0.051,-0.051,-0.04,-0.03,-0.009000000000000001,-0.009000000000000001,-0.009000000000000001,-0.009000000000000001,-0.02,-0.03,-0.04,-0.03,-0.009000000000000001,0.001,0.001,-0.009000000000000001,-0.03,-0.04,-0.051,-0.04,-0.02,-0.009000000000000001,-0.009000000000000001,-0.009000000000000001,-0.02,-0.04,-0.051,-0.04,-0.03,-0.009000000000000001,0.001,0.001,-0.009000000000000001,-0.03,-0.04,-0.04,-0.03,-0.009000000000000001,0.001,0.001,0.001,-0.02,-0.03,-0.04,-0.03,-0.009000000000000001,0.001,0.001,0.001,-0.02,-0.04,-0.04,-0.03,-0.009000000000000001,0.001,0.001,-0.009000000000000001,N
7,0.135,0.094,0.073,0.042,0.021,-0.009000000000000001,-0.051,-0.102,-0.12300000000000001,-0.12300000000000001,-0.134,-0.102,-0.102,-0.102,-0.12300000000000001,-0.134,-0.14400000000000002,-0.14400000000000002,-0.134,-0.113,-0.102,-0.102,-0.12300000000000001,-0.134,-0.134,-0.134,-0.12300000000000001,-0.102,-0.092,-0.08199999999999999,-0.08199999999999999,-0.102,-0.12300000000000001,-0.134,-0.12300000000000001,-0.102,-0.092,-0.08199999999999999,-0.08199999999999999,-0.08199999999999999,-0.113,-0.113,-0.113,-0.102,-0.08199999999999999,-0.071,-0.061,-0.071,-0.08199999999999999,-0.08199999999999999,-0.08199999999999999,-0.08199999999999999,-0.051,-0.051,-0.04,-0.051,-0.061,-0.08199999999999999,-0.092,-0.08199999999999999,-0.061,-0.04,-0.04,-0.04,-0.051,-0.071,-0.071,-0.071,-0.051,-0.03,-0.03,-0.04,-0.04,-0.061,-0.071,-0.061,-0.051,-0.04,-0.03,-0.009000000000000001,-0.03,-0.04,-0.04,-0.051,-0.04,-0.03,-0.009000000000000001,0.001,0.001,-0.009000000000000001,-0.04,-0.04,-0.04,-0.02,0.001,0.001,0.001,0.001,-0.02,-0.03,-0.04,-0.02,-0.009000000000000001,0.001,0.001,-0.009000000000000001,-0.02,-0.03,-0.04,-0.03,-0.009000000000000001,0.001,0.001,0.001,0.001,-0.02,-0.03,-0.03,-0.009000000000000001,0.001,0.011000000000000001,0.011000000000000001,0.001,0.001,-0.02,-0.02,0.001,0.001,0.011000000000000001,0.021,0.011000000000000001,0.001,-0.009000000000000001,-0.02,-0.009000000000000001,0.001,0.001,0.011000000000000001,0.001,0.001,-0.02,-0.02,-0.02,-0.009000000000000001,0.001,0.001,0.001,0.001,-0.009000000000000001,-0.03,-0.03,-0.02,0.001,0.001,0.001,0.001,-0.02,-0.03,-0.03,-0.03,-0.02,0.001,0.001,-0.009000000000000001,-0.009000000000000001,-0.03,-0.04,-0.03,-0.02,0.001,0.001,0.001,-0.009000000000000001,-0.03,-0.04,-0.04,-0.04,-0.02,-0.009000000000000001,-0.02,-0.02,-0.04,-0.051,-0.061,-0.04,-0.03,-0.02,-0.009000000000000001,-0.02,-0.03,-0.04,-0.04,-0.04,-0.04,-0.02,-0.02,-0.02,-0.03,-0.04,-0.04,-0.04,-0.04,-0.02,-0.009000000000000001,-0.009000000000000001,-0.009000000000000001,-0.03,-0.04,-0.04,-0.03,-0.009000000000000001,0.001,0.001,-0.009000000000000001,-0.02,-0.03,-0.04,-0.04,-0.04,-0.02,-0.009000000000000001,0.001,-0.02,-0.04,-0.04,-0.03,-0.02,-0.009000000000000001,0.001,0.001,-0.009000000000000001,-0.02,-0.04,-0.04,-0.03,-0.009000000000000001,0.001,0.001,0.001,0.001,-0.03,-0.04,-0.04,-0.02,0.001,0.001,0.001,0.001,-0.02,-0.04,-0.03,-0.009000000000000001,0.001,0.001,0.001,0.001,-0.03,-0.03,-0.04,-0.02,-0.009000000000000001,0.001,0.001,0.001,-0.009000000000000001,-0.03,-0.04,-0.02,-0.009000000000000001,0.001,0.011000000000000001,0.001,0.001,-0.009000000000000001,-0.02,-0.03,-0.009000000000000001,0.001,0.011000000000000001,0.021,0.011000000000000001,0.001,-0.009000000000000001,-0.02,-0.009000000000000001,0.001,0.011000000000000001,0.011000000000000001,0.001,0.001,0.001,0.001,0.001,0.021,0.042,0.063,0.073,0.063,0.063,0.042,0.042,0.063,0.083,0.094,0.083,0.083,0.052000000000000005,0.042,0.042,0.042,0.031,0.042,0.042,0.031,0.001,0.001,-0.009000000000000001,-0.009000000000000001,0.001,0.001,0.001,0.001,-0.009000000000000001,-0.03,-0.03,-0.04,-0.03,0.001,0.001,0.001,-0.009000000000000001,-0.03,-0.04,-0.04,-0.03,-0.04,-0.03,-0.02,-0.02,-0.04,-0.051,-0.051,-0.04,-0.04,-0.02,-0.009000000000000001,-0.009000000000000001,-0.02,-0.04,-0.04,-0.04,-0.03,-0.009000000000000001,0.001,0.001,-0.02,-0.04,-0.051,-0.04,-0.03,-0.02,0.001,0.001,0.001,-0.02,-0.03,-0.04,-0.04,-0.02,-0.009000000000000001,0.001,0.001,-0.009000000000000001,-0.03,-0.03,-0.03,-0.009000000000000001,0.001,0.011000000000000001,0.021,0.042,0.042,0.052000000000000005,0.083,0.135,0.18600000000000003,0.248,0.29,0.31,0.35100000000000003,0.37200000000000005,0.40299999999999997,0.434,0.465,0.496,0.496,0.485,0.465,0.444,0.444,0.434,0.40299999999999997,0.39299999999999996,0.382,0.382,0.36200000000000004,0.35100000000000003,0.341,0.32,0.31,0.32,0.331,0.32,0.299,0.26899999999999996,0.228,0.19699999999999998,0.17600000000000002,0.155,0.135,0.083,0.042,0.011000000000000001,-0.02,-0.051,-0.08199999999999999,-0.08199999999999999,-0.08199999999999999,-0.08199999999999999,-0.08199999999999999,-0.113,-0.134,-0.154,-0.154,-0.14400000000000002,-0.12300000000000001,-0.102,-0.102,-0.102,-0.134,-0.14400000000000002,-0.154,-0.14400000000000002,-0.134,-0.102,-0.102,-0.113,-0.12300000000000001,-0.134,-0.14400000000000002,-0.134,-0.12300000000000001,-0.092,-0.08199999999999999,-0.092,-0.102,-0.113,-0.134,-0.134,-0.12300000000000001,-0.113,-0.102,-0.08199999999999999,-0.092,-0.092,-0.102,-0.102,-0.102,-0.092,-0.08199999999999999,-0.071,-0.08199999999999999,-0.092,-0.113,-0.12300000000000001,-0.102,-0.08199999999999999,-0.08199999999999999,-0.08199999999999999,-0.071,-0.071,-0.08199999999999999,-0.08199999999999999,-0.102,-0.092,-0.08199999999999999,-0.071,-0.071,-0.071,-0.08199999999999999,-0.08199999999999999,-0.092,-0.08199999999999999,-0.08199999999999999,-0.051,-0.04,-0.04,-0.051,-0.071,-0.071,-0.061,-0.051,-0.04,-0.03,-0.03,-0.04,-0.071,-0.08199999999999999,-0.08199999999999999,-0.061,-0.04,-0.03,-0.03,-0.04,-0.051,-0.061,-0.071,-0.051,-0.04,-0.03,-0.02,-0.03,-0.04,-0.051,-0.051,-0.04,-0.03,-0.009000000000000001,-0.009000000000000001,-0.009000000000000001,-0.009000000000000001,-0.02,-0.03,-0.04,-0.03,-0.009000000000000001,0.001,0.001,-0.009000000000000001,-0.03,-0.04,-0.051,-0.04,-0.02,-0.009000000000000001,-0.009000000000000001,-0.009000000000000001,-0.02,-0.04,-0.051,-0.04,-0.03,-0.009000000000000001,0.001,0.001,-0.009000000000000001,-0.03,-0.04,-0.04,-0.03,-0.009000000000000001,0.001,0.001,0.001,-0.02,-0.03,-0.04,-0.03,-0.009000000000000001,0.001,0.001,0.001,-0.02,-0.04,-0.04,-0.03,-0.009000000000000001,0.001,0.001,-0.009000000000000001,-0.02,-0.03,-0.04,-0.04,-0.04,-0.009000000000000001,0.001,0.001,-0.009000000000000001,-0.03,-0.04,-0.04,-0.04,-0.02,0.001,0.001,-0.02,-0.03,-0.04,-0.04,-0.04,-0.04,-0.02,-0.009000000000000001,-0.009000000000000001,-0.03,-0.04,-0.04,-0.051,-0.04,-0.03,-0.009000000000000001,0.001,-0.02,-0.04,-0.051,-0.061,-0.061,-0.04,-0.02,-0.02,-0.02,-0.03,-0.04,-0.04,-0.03,-0.009000000000000001,0.001,0.011000000000000001,0.001,0.001,-0.02,-0.02,-0.02,-0.02,0.001,0.001,0.001,0.001,-0.02,-0.03,-0.03,-0.03,-0.009000000000000001,0.001,0.001,0.001,-0.009000000000000001,-0.04,-0.04,-0.03,-0.03,0.001,0.011000000000000001,0.001,-0.009000000000000001,-0.04,-0.04,-0.03,-0.009000000000000001,0.001,0.001,0.011000000000000001,0.001,0.001,0.001,0.001,0.001,0.001,0.021,0.021,0.021,0.001,-0.009000000000000001,-0.009000000000000001,0.001,0.001,0.021,0.031,0.021,0.011000000000000001,0.001,-0.02,-0.02,-0.009000000000000001,0.001,0.011000000000000001,0.021,0.011000000000000001,0.001,-0.009000000000000001,0.001,0.001,0.021,0.021,0.021,0.011000000000000001,0.001,0.001,0.001,0.001,0.011000000000000001,0.042,0.063,0.073,0.073,0.042,0.052000000000000005,0.063,0.083,0.083,0.094,0.094,0.083,0.083,0.063,0.052000000000000005,0.063,0.083,0.083,0.083,0.063,0.042,0.031,0.021,0.021,0.031,0.042,0.042,0.011000000000000001,0.001,0.001,-0.02,-0.03,-0.009000000000000001,0.001,0.001,0.001,-0.009000000000000001,-0.02,-0.03,-0.04,-0.03,-0.009000000000000001,0.001,0.001,0.001,0.001,-0.009000000000000001,-0.009000000000000001,-0.02,0.001,0.001,0.001,0.001,0.001,-0.02,-0.03,-0.03,-0.02,0.001,0.001,0.001,-0.009000000000000001,-0.03,-0.04,-0.03,-0.03,-0.009000000000000001,0.001,0.011000000000000001,0.001,0.001,-0.03,-0.03,-0.02,0.001,0.001,0.001,0.001,0.001,-0.02,-0.02,-0.02,0.001,0.011000000000000001,0.011000000000000001,0.001,0.001,-0.009000000000000001,-0.02,-0.009000000000000001,0.001,0.031,0.052000000000000005,0.083,0.094,0.114,0.135,0.155,0.18600000000000003,0.23800000000000002,0.299,0.35100000000000003,0.37200000000000005,0.40299999999999997,0.40299999999999997,0.413,0.444,0.45399999999999996,0.485,0.485,0.485,0.485,0.444,0.424,0.382,0.36200000000000004,0.37200000000000005,0.39299999999999996,0.39299999999999996,0.37200000000000005,0.341,0.31,0.31,0.29,0.27899999999999997,0.299,0.299,0.27899999999999997,0.248,0.207,0.17600000000000002,0.135,0.10400000000000001,0.083,0.052000000000000005,0.021,0.001,-0.051,-0.08199999999999999,-0.092,-0.102,-0.092,-0.08199999999999999,-0.08199999999999999,-0.092,-0.134,-0.14400000000000002,-0.14400000000000002,-0.134,-0.12300000000000001,-0.102,-0.092,-0.092,-0.102,-0.12300000000000001,-0.134,-0.134,-0.113,-0.102,-0.092,-0.08199999999999999,-0.102,-0.12300000000000001,-0.134,-0.134,-0.12300000000000001,-0.102,-0.092,-0.08199999999999999,-0.092,-0.102,-0.113,-0.12300000000000001,-0.12300000000000001,-0.113,-0.08199999999999999,-0.08199999999999999,-0.08199999999999999,-0.08199999999999999,-0.092,-0.102,-0.12300000000000001,-0.102,-0.092,-0.08199999999999999,-0.071,-0.08199999999999999,-0.102,-0.113,-0.134,-0.12300000000000001,-0.102,-0.092,-0.08199999999999999,-0.08199999999999999,-0.08199999999999999,-0.102,-0.102,-0.092,-0.08199999999999999,-0.061,-0.051,-0.061,-0.051,-0.061,-0.071,-0.071,-0.051,-0.04,-0.04,-0.04,-0.04,-0.071,-0.071,-0.061,-0.061,-0.051,-0.04,-0.04,-0.04,-0.04,-0.051,-0.051,-0.061,-0.051,-0.04,-0.03,-0.04,-0.051,-0.071,-0.08199999999999999,-0.071,-0.061,-0.04,-0.03,-0.009000000000000001,0.001,0.001,-0.009000000000000001,-0.009000000000000001,-0.009000000000000001,0.001,0.001,0.001,0.001,-0.02,-0.03,-0.04,-0.03,-0.02,0.001,0.001,0.001,0.001,-0.02,-0.02,-0.03,0.001,0.001,0.011000000000000001,0.011000000000000001,0.001,0.001,0.001,0.001,0.001,0.021,0.021,0.021,0.001,-0.009000000000000001,-0.04,-0.04,-0.04,-0.02,0.001,0.001,0.001,0.001,-0.009000000000000001,-0.02,-0.02,-0.02,-0.009000000000000001,0.001,-0.009000000000000001,-0.03,-0.03,-0.04,-0.04,-0.03,-0.009000000000000001,0.001,0.001,0.001,-0.02,-0.03,-0.04,N
8,0.228,0.19699999999999998,0.17600000000000002,0.155,0.135,0.083,0.042,0.011000000000000001,-0.02,-0.051,-0.08199999999999999,-0.08199999999999999,-0.08199999999999999,-0.08199999999999999,-0.08199999999999999,-0.113,-0.134,-0.154,-0.154,-0.14400000000000002,-0.12300000000000001,-0.102,-0.102,-0.102,-0.134,-0.14400000000000002,-0.154,-0.14400000000000002,-0.134,-0.102,-0.102,-0.113,-0.12300000000000001,-0.134,-0.14400000000000002,-0.134,-0.12300000000000001,-0.092,-0.08199999999999999,-0.092,-0.102,-0.113,-0.134,-0.134,-0.12300000000000001,-0.113,-0.102,-0.08199999999999999,-0.092,-0.092,-0.102,-0.102,-0.102,-0.092,-0.08199999999999999,-0.071,-0.08199999999999999,-0.092,-0.113,-0.12300000000000001,-0.102,-0.08199999999999999,-0.08199999999999999,-0.08199999999999999,-0.071,-0.071,-0.08199999999999999,-0.08199999999999999,-0.102,-0.092,-0.08199999999999999,-0.071,-0.071,-0.071,-0.08199999999999999,-0.08199999999999999,-0.092,-0.08199999999999999,-0.08199999999999999,-0.051,-0.04,-0.04,-0.051,-0.071,-0.071,-0.061,-0.051,-0.04,-0.03,-0.03,-0.04,-0.071,-0.08199999999999999,-0.08199999999999999,-0.061,-0.04,-0.03,-0.03,-0.04,-0.051,-0.061,-0.071,-0.051,-0.04,-0.03,-0.02,-0.03,-0.04,-0.051,-0.051,-0.04,-0.03,-0.009000000000000001,-0.009000000000000001,-0.009000000000000001,-0.009000000000000001,-0.02,-0.03,-0.04,-0.03,-0.009000000000000001,0.001,0.001,-0.009000000000000001,-0.03,-0.04,-0.051,-0.04,-0.02,-0.009000000000000001,-0.009000000000000001,-0.009000000000000001,-0.02,-0.04,-0.051,-0.04,-0.03,-0.009000000000000001,0.001,0.001,-0.009000000000000001,-0.03,-0.04,-0.04,-0.03,-0.009000000000000001,0.001,0.001,0.001,-0.02,-0.03,-0.04,-0.03,-0.009000000000000001,0.001,0.001,0.001,-0.02,-0.04,-0.04,-0.03,-0.009000000000000001,0.001,0.001,-0.009000000000000001,-0.02,-0.03,-0.04,-0.04,-0.04,-0.009000000000000001,0.001,0.001,-0.009000000000000001,-0.03,-0.04,-0.04,-0.04,-0.02,0.001,0.001,-0.02,-0.03,-0.04,-0.04,-0.04,-0.04,-0.02,-0.009000000000000001,-0.009000000000000001,-0.03,-0.04,-0.04,-0.051,-0.04,-0.03,-0.009000000000000001,0.001,-0.02,-0.04,-0.051,-0.061,-0.061,-0.04,-0.02,-0.02,-0.02,-0.03,-0.04,-0.04,-0.03,-0.009000000000000001,0.001,0.011000000000000001,0.001,0.001,-0.02,-0.02,-0.02,-0.02,0.001,0.001,0.001,0.001,-0.02,-0.03,-0.03,-0.03,-0.009000000000000001,0.001,0.001,0.001,-0.009000000000000001,-0.04,-0.04,-0.03,-0.03,0.001,0.011000000000000001,0.001,-0.009000000000000001,-0.04,-0.04,-0.03,-0.009000000000000001,0.001,0.001,0.011000000000000001,0.001,0.001,0.001,0.001,0.001,0.001,0.021,0.021,0.021,0.001,-0.009000000000000001,-0.009000000000000001,0.001,0.001,0.021,0.031,0.021,0.011000000000000001,0.001,-0.02,-0.02,-0.009000000000000001,0.001,0.011000000000000001,0.021,0.011000000000000001,0.001,-0.009000000000000001,0.001,0.001,0.021,0.021,0.021,0.011000000000000001,0.001,0.001,0.001,0.001,0.011000000000000001,0.042,0.063,0.073,0.073,0.042,0.052000000000000005,0.063,0.083,0.083,0.094,0.094,0.083,0.083,0.063,0.052000000000000005,0.063,0.083,0.083,0.083,0.063,0.042,0.031,0.021,0.021,0.031,0.042,0.042,0.011000000000000001,0.001,0.001,-0.02,-0.03,-0.009000000000000001,0.001,0.001,0.001,-0.009000000000000001,-0.02,-0.03,-0.04,-0.03,-0.009000000000000001,0.001,0.001,0.001,0.001,-0.009000000000000001,-0.009000000000000001,-0.02,0.001,0.001,0.001,0.001,0.001,-0.02,-0.03,-0.03,-0.02,0.001,0.001,0.001,-0.009000000000000001,-0.03,-0.04,-0.03,-0.03,-0.009000000000000001,0.001,0.011000000000000001,0.001,0.001,-0.03,-0.03,-0.02,0.001,0.001,0.001,0.001,0.001,-0.02,-0.02,-0.02,0.001,0.011000000000000001,0.011000000000000001,0.001,0.001,-0.009000000000000001,-0.02,-0.009000000000000001,0.001,0.031,0.052000000000000005,0.083,0.094,0.114,0.135,0.155,0.18600000000000003,0.23800000000000002,0.299,0.35100000000000003,0.37200000000000005,0.40299999999999997,0.40299999999999997,0.413,0.444,0.45399999999999996,0.485,0.485,0.485,0.485,0.444,0.424,0.382,0.36200000000000004,0.37200000000000005,0.39299999999999996,0.39299999999999996,0.37200000000000005,0.341,0.31,0.31,0.29,0.27899999999999997,0.299,0.299,0.27899999999999997,0.248,0.207,0.17600000000000002,0.135,0.10400000000000001,0.083,0.052000000000000005,0.021,0.001,-0.051,-0.08199999999999999,-0.092,-0.102,-0.092,-0.08199999999999999,-0.08199999999999999,-0.092,-0.134,-0.14400000000000002,-0.14400000000000002,-0.134,-0.12300000000000001,-0.102,-0.092,-0.092,-0.102,-0.12300000000000001,-0.134,-0.134,-0.113,-0.102,-0.092,-0.08199999999999999,-0.102,-0.12300000000000001,-0.134,-0.134,-0.12300000000000001,-0.102,-0.092,-0.08199999999999999,-0.092,-0.102,-0.113,-0.12300000000000001,-0.12300000000000001,-0.113,-0.08199999999999999,-0.08199999999999999,-0.08199999999999999,-0.08199999999999999,-0.092,-0.102,-0.12300000000000001,-0.102,-0.092,-0.08199999999999999,-0.071,-0.08199999999999999,-0.102,-0.113,-0.134,-0.12300000000000001,-0.102,-0.092,-0.08199999999999999,-0.08199999999999999,-0.08199999999999999,-0.102,-0.102,-0.092,-0.08199999999999999,-0.061,-0.051,-0.061,-0.051,-0.061,-0.071,-0.071,-0.051,-0.04,-0.04,-0.04,-0.04,-0.071,-0.071,-0.061,-0.061,-0.051,-0.04,-0.04,-0.04,-0.04,-0.051,-0.051,-0.061,-0.051,-0.04,-0.03,-0.04,-0.051,-0.071,-0.08199999999999999,-0.071,-0.061,-0.04,-0.03,-0.009000000000000001,0.001,0.001,-0.009000000000000001,-0.009000000000000001,-0.009000000000000001,0.001,0.001,0.001,0.001,-0.02,-0.03,-0.04,-0.03,-0.02,0.001,0.001,0.001,0.001,-0.02,-0.02,-0.03,0.001,0.001,0.011000000000000001,0.011000000000000001,0.001,0.001,0.001,0.001,0.001,0.021,0.021,0.021,0.001,-0.009000000000000001,-0.04,-0.04,-0.04,-0.02,0.001,0.001,0.001,0.001,-0.009000000000000001,-0.02,-0.02,-0.02,-0.009000000000000001,0.001,-0.009000000000000001,-0.03,-0.03,-0.04,-0.04,-0.03,-0.009000000000000001,0.001,0.001,0.001,-0.02,-0.03,-0.04,-0.04,-0.04,-0.03,-0.02,-0.02,-0.04,-0.051,-0.051,-0.04,-0.03,-0.009000000000000001,0.001,0.001,-0.009000000000000001,-0.03,-0.04,-0.051,-0.04,-0.04,-0.02,-0.03,-0.04,-0.051,-0.061,-0.051,-0.03,-0.009000000000000001,0.001,0.001,0.001,-0.009000000000000001,-0.03,-0.04,-0.04,-0.03,-0.009000000000000001,0.001,0.001,-0.009000000000000001,-0.03,-0.04,-0.051,-0.04,-0.009000000000000001,0.001,0.001,-0.02,-0.051,-0.071,-0.071,-0.051,-0.03,-0.009000000000000001,0.001,0.001,0.001,-0.02,-0.04,-0.04,-0.03,-0.009000000000000001,0.001,0.001,-0.009000000000000001,-0.03,-0.04,-0.04,-0.009000000000000001,0.001,0.001,0.001,0.001,-0.02,-0.04,-0.04,-0.03,-0.02,0.001,-0.009000000000000001,-0.009000000000000001,-0.02,-0.04,-0.04,-0.03,0.001,0.001,0.011000000000000001,0.001,0.001,-0.03,-0.04,-0.04,-0.04,-0.02,-0.009000000000000001,-0.009000000000000001,-0.02,-0.04,-0.051,-0.04,-0.03,-0.009000000000000001,0.001,0.001,0.001,0.001,-0.02,-0.04,-0.04,-0.02,-0.009000000000000001,0.001,0.001,0.001,-0.02,-0.03,-0.03,-0.009000000000000001,0.001,0.001,0.001,0.001,-0.009000000000000001,-0.02,-0.03,-0.02,0.001,0.001,0.011000000000000001,0.011000000000000001,0.001,-0.02,-0.02,-0.009000000000000001,0.001,0.031,0.042,0.052000000000000005,0.042,0.031,0.021,0.031,0.042,0.073,0.10400000000000001,0.10400000000000001,0.083,0.083,0.063,0.042,0.042,0.042,0.052000000000000005,0.052000000000000005,0.042,0.021,0.001,-0.009000000000000001,-0.009000000000000001,0.001,0.001,0.001,0.001,-0.02,-0.04,-0.051,-0.051,-0.04,-0.03,-0.03,-0.03,-0.04,-0.051,-0.051,-0.051,-0.04,-0.009000000000000001,0.001,0.001,0.001,-0.02,-0.051,-0.051,-0.061,-0.051,-0.04,-0.03,-0.02,-0.009000000000000001,-0.03,-0.04,-0.04,-0.03,-0.02,-0.02,-0.02,-0.04,-0.051,-0.04,-0.051,-0.04,-0.03,-0.009000000000000001,0.001,0.001,-0.009000000000000001,-0.04,-0.051,-0.051,-0.04,-0.03,-0.02,-0.009000000000000001,-0.009000000000000001,-0.02,-0.04,-0.04,-0.03,-0.02,-0.009000000000000001,0.001,0.001,-0.009000000000000001,0.001,0.011000000000000001,0.052000000000000005,0.094,0.145,0.19699999999999998,0.228,0.259,0.27899999999999997,0.341,0.39299999999999996,0.45399999999999996,0.506,0.547,0.568,0.568,0.537,0.516,0.506,0.506,0.516,0.485,0.475,0.444,0.424,0.424,0.40299999999999997,0.40299999999999997,0.40299999999999997,0.39299999999999996,0.382,0.35100000000000003,0.32,0.29,0.259,0.228,0.19699999999999998,0.17600000000000002,0.145,0.10400000000000001,0.042,0.001,-0.02,-0.04,-0.051,-0.071,-0.08199999999999999,-0.08199999999999999,-0.102,-0.12300000000000001,-0.14400000000000002,-0.14400000000000002,-0.14400000000000002,-0.134,-0.12300000000000001,-0.12300000000000001,-0.134,-0.134,-0.14400000000000002,-0.14400000000000002,-0.14400000000000002,-0.134,-0.134,-0.134,-0.134,-0.154,-0.16399999999999998,-0.16399999999999998,-0.154,-0.154,-0.134,-0.12300000000000001,-0.12300000000000001,-0.134,-0.154,-0.16399999999999998,-0.174,-0.154,-0.134,-0.102,-0.113,-0.134,-0.14400000000000002,-0.16399999999999998,-0.154,-0.14400000000000002,-0.12300000000000001,-0.08199999999999999,-0.08199999999999999,-0.08199999999999999,-0.113,-0.134,-0.14400000000000002,-0.154,-0.134,-0.134,-0.102,-0.092,-0.102,-0.113,-0.113,-0.113,-0.092,-0.08199999999999999,-0.08199999999999999,-0.08199999999999999,-0.08199999999999999,-0.102,-0.12300000000000001,-0.134,-0.134,-0.12300000000000001,-0.08199999999999999,-0.08199999999999999,-0.08199999999999999,-0.08199999999999999,-0.102,-0.113,-0.102,-0.08199999999999999,-0.071,-0.061,-0.061,-0.08199999999999999,-0.092,-0.102,-0.113,-0.12300000000000001,-0.092,-0.08199999999999999,-0.061,-0.061,-0.061,-0.08199999999999999,-0.08199999999999999,-0.092,-0.08199999999999999,-0.071,-0.061,-0.051,-0.061,-0.071,-0.071,-0.071,-0.071,-0.071,-0.061,-0.061,-0.061,-0.071,-0.08199999999999999,-0.08199999999999999,-0.08199999999999999,-0.061,-0.061,-0.051,-0.051,-0.061,-0.08199999999999999,-0.092,-0.071,-0.04,-0.009000000000000001,0.001,-0.009000000000000001,-0.04,-0.04,-0.051,-0.04,-0.04,-0.02,-0.04,-0.04,-0.04,-0.08199999999999999,-0.08199999999999999,-0.08199999999999999,-0.071,-0.04,-0.009000000000000001,0.001,0.001,-0.02,-0.04,-0.051,-0.061,-0.04,-0.02,-0.009000000000000001,-0.009000000000000001,-0.04,-0.051,N
9,0.207,0.17600000000000002,0.135,0.10400000000000001,0.083,0.052000000000000005,0.021,0.001,-0.051,-0.08199999999999999,-0.092,-0.102,-0.092,-0.08199999999999999,-0.08199999999999999,-0.092,-0.134,-0.14400000000000002,-0.14400000000000002,-0.134,-0.12300000000000001,-0.102,-0.092,-0.092,-0.102,-0.12300000000000001,-0.134,-0.134,-0.113,-0.102,-0.092,-0.08199999999999999,-0.102,-0.12300000000000001,-0.134,-0.134,-0.12300000000000001,-0.102,-0.092,-0.08199999999999999,-0.092,-0.102,-0.113,-0.12300000000000001,-0.12300000000000001,-0.113,-0.08199999999999999,-0.08199999999999999,-0.08199999999999999,-0.08199999999999999,-0.092,-0.102,-0.12300000000000001,-0.102,-0.092,-0.08199999999999999,-0.071,-0.08199999999999999,-0.102,-0.113,-0.134,-0.12300000000000001,-0.102,-0.092,-0.08199999999999999,-0.08199999999999999,-0.08199999999999999,-0.102,-0.102,-0.092,-0.08199999999999999,-0.061,-0.051,-0.061,-0.051,-0.061,-0.071,-0.071,-0.051,-0.04,-0.04,-0.04,-0.04,-0.071,-0.071,-0.061,-0.061,-0.051,-0.04,-0.04,-0.04,-0.04,-0.051,-0.051,-0.061,-0.051,-0.04,-0.03,-0.04,-0.051,-0.071,-0.08199999999999999,-0.071,-0.061,-0.04,-0.03,-0.009000000000000001,0.001,0.001,-0.009000000000000001,-0.009000000000000001,-0.009000000000000001,0.001,0.001,0.001,0.001,-0.02,-0.03,-0.04,-0.03,-0.02,0.001,0.001,0.001,0.001,-0.02,-0.02,-0.03,0.001,0.001,0.011000000000000001,0.011000000000000001,0.001,0.001,0.001,0.001,0.001,0.021,0.021,0.021,0.001,-0.009000000000000001,-0.04,-0.04,-0.04,-0.02,0.001,0.001,0.001,0.001,-0.009000000000000001,-0.02,-0.02,-0.02,-0.009000000000000001,0.001,-0.009000000000000001,-0.03,-0.03,-0.04,-0.04,-0.03,-0.009000000000000001,0.001,0.001,0.001,-0.02,-0.03,-0.04,-0.04,-0.04,-0.03,-0.02,-0.02,-0.04,-0.051,-0.051,-0.04,-0.03,-0.009000000000000001,0.001,0.001,-0.009000000000000001,-0.03,-0.04,-0.051,-0.04,-0.04,-0.02,-0.03,-0.04,-0.051,-0.061,-0.051,-0.03,-0.009000000000000001,0.001,0.001,0.001,-0.009000000000000001,-0.03,-0.04,-0.04,-0.03,-0.009000000000000001,0.001,0.001,-0.009000000000000001,-0.03,-0.04,-0.051,-0.04,-0.009000000000000001,0.001,0.001,-0.02,-0.051,-0.071,-0.071,-0.051,-0.03,-0.009000000000000001,0.001,0.001,0.001,-0.02,-0.04,-0.04,-0.03,-0.009000000000000001,0.001,0.001,-0.009000000000000001,-0.03,-0.04,-0.04,-0.009000000000000001,0.001,0.001,0.001,0.001,-0.02,-0.04,-0.04,-0.03,-0.02,0.001,-0.009000000000000001,-0.009000000000000001,-0.02,-0.04,-0.04,-0.03,0.001,0.001,0.011000000000000001,0.001,0.001,-0.03,-0.04,-0.04,-0.04,-0.02,-0.009000000000000001,-0.009000000000000001,-0.02,-0.04,-0.051,-0.04,-0.03,-0.009000000000000001,0.001,0.001,0.001,0.001,-0.02,-0.04,-0.04,-0.02,-0.009000000000000001,0.001,0.001,0.001,-0.02,-0.03,-0.03,-0.009000000000000001,0.001,0.001,0.001,0.001,-0.009000000000000001,-0.02,-0.03,-0.02,0.001,0.001,0.011000000000000001,0.011000000000000001,0.001,-0.02,-0.02,-0.009000000000000001,0.001,0.031,0.042,0.052000000000000005,0.042,0.031,0.021,0.031,0.042,0.073,0.10400000000000001,0.10400000000000001,0.083,0.083,0.063,0.042,0.042,0.042,0.052000000000000005,0.052000000000000005,0.042,0.021,0.001,-0.009000000000000001,-0.009000000000000001,0.001,0.001,0.001,0.001,-0.02,-0.04,-0.051,-0.051,-0.04,-0.03,-0.03,-0.03,-0.04,-0.051,-0.051,-0.051,-0.04,-0.009000000000000001,0.001,0.001,0.001,-0.02,-0.051,-0.051,-0.061,-0.051,-0.04,-0.03,-0.02,-0.009000000000000001,-0.03,-0.04,-0.04,-0.03,-0.02,-0.02,-0.02,-0.04,-0.051,-0.04,-0.051,-0.04,-0.03,-0.009000000000000001,0.001,0.001,-0.009000000000000001,-0.04,-0.051,-0.051,-0.04,-0.03,-0.02,-0.009000000000000001,-0.009000000000000001,-0.02,-0.04,-0.04,-0.03,-0.02,-0.009000000000000001,0.001,0.001,-0.009000000000000001,0.001,0.011000000000000001,0.052000000000000005,0.094,0.145,0.19699999999999998,0.228,0.259,0.27899999999999997,0.341,0.39299999999999996,0.45399999999999996,0.506,0.547,0.568,0.568,0.537,0.516,0.506,0.506,0.516,0.485,0.475,0.444,0.424,0.424,0.40299999999999997,0.40299999999999997,0.40299999999999997,0.39299999999999996,0.382,0.35100000000000003,0.32,0.29,0.259,0.228,0.19699999999999998,0.17600000000000002,0.145,0.10400000000000001,0.042,0.001,-0.02,-0.04,-0.051,-0.071,-0.08199999999999999,-0.08199999999999999,-0.102,-0.12300000000000001,-0.14400000000000002,-0.14400000000000002,-0.14400000000000002,-0.134,-0.12300000000000001,-0.12300000000000001,-0.134,-0.134,-0.14400000000000002,-0.14400000000000002,-0.14400000000000002,-0.134,-0.134,-0.134,-0.134,-0.154,-0.16399999999999998,-0.16399999999999998,-0.154,-0.154,-0.134,-0.12300000000000001,-0.12300000000000001,-0.134,-0.154,-0.16399999999999998,-0.174,-0.154,-0.134,-0.102,-0.113,-0.134,-0.14400000000000002,-0.16399999999999998,-0.154,-0.14400000000000002,-0.12300000000000001,-0.08199999999999999,-0.08199999999999999,-0.08199999999999999,-0.113,-0.134,-0.14400000000000002,-0.154,-0.134,-0.134,-0.102,-0.092,-0.102,-0.113,-0.113,-0.113,-0.092,-0.08199999999999999,-0.08199999999999999,-0.08199999999999999,-0.08199999999999999,-0.102,-0.12300000000000001,-0.134,-0.134,-0.12300000000000001,-0.08199999999999999,-0.08199999999999999,-0.08199999999999999,-0.08199999999999999,-0.102,-0.113,-0.102,-0.08199999999999999,-0.071,-0.061,-0.061,-0.08199999999999999,-0.092,-0.102,-0.113,-0.12300000000000001,-0.092,-0.08199999999999999,-0.061,-0.061,-0.061,-0.08199999999999999,-0.08199999999999999,-0.092,-0.08199999999999999,-0.071,-0.061,-0.051,-0.061,-0.071,-0.071,-0.071,-0.071,-0.071,-0.061,-0.061,-0.061,-0.071,-0.08199999999999999,-0.08199999999999999,-0.08199999999999999,-0.061,-0.061,-0.051,-0.051,-0.061,-0.08199999999999999,-0.092,-0.071,-0.04,-0.009000000000000001,0.001,-0.009000000000000001,-0.04,-0.04,-0.051,-0.04,-0.04,-0.02,-0.04,-0.04,-0.04,-0.08199999999999999,-0.08199999999999999,-0.08199999999999999,-0.071,-0.04,-0.009000000000000001,0.001,0.001,-0.02,-0.04,-0.051,-0.061,-0.04,-0.02,-0.009000000000000001,-0.009000000000000001,-0.04,-0.051,-0.08199999999999999,-0.08199999999999999,-0.08199999999999999,-0.071,-0.04,-0.03,-0.03,-0.04,-0.04,-0.051,-0.04,-0.02,-0.009000000000000001,0.001,-0.02,-0.04,-0.061,-0.08199999999999999,-0.051,-0.04,-0.03,-0.02,-0.04,-0.051,-0.061,-0.071,-0.071,-0.071,-0.04,-0.04,-0.03,-0.051,-0.071,-0.08199999999999999,-0.08199999999999999,-0.071,-0.061,-0.051,-0.04,-0.051,-0.061,-0.071,-0.08199999999999999,-0.061,-0.051,-0.04,-0.04,-0.04,-0.051,-0.061,-0.071,-0.08199999999999999,-0.051,-0.04,-0.04,-0.04,-0.04,-0.071,-0.08199999999999999,-0.08199999999999999,-0.071,-0.051,-0.04,-0.04,-0.04,-0.051,-0.061,-0.08199999999999999,-0.061,-0.04,-0.03,-0.02,-0.03,-0.04,-0.051,-0.061,-0.061,-0.04,-0.03,-0.02,-0.02,-0.04,-0.051,-0.061,-0.061,-0.061,-0.04,-0.03,-0.02,-0.03,-0.04,-0.061,-0.061,-0.051,-0.04,-0.02,-0.02,-0.02,-0.03,-0.051,-0.051,-0.04,-0.02,-0.009000000000000001,0.001,0.001,-0.009000000000000001,-0.03,-0.04,-0.051,-0.04,-0.02,-0.009000000000000001,0.001,-0.02,-0.04,-0.04,-0.04,-0.04,-0.03,-0.009000000000000001,0.001,0.001,-0.02,-0.04,-0.04,-0.04,-0.02,0.001,0.001,0.001,-0.009000000000000001,-0.02,-0.03,-0.02,-0.009000000000000001,0.001,0.011000000000000001,0.011000000000000001,0.011000000000000001,0.001,-0.009000000000000001,-0.02,-0.009000000000000001,0.001,0.011000000000000001,0.021,0.011000000000000001,0.001,-0.009000000000000001,-0.02,0.001,0.011000000000000001,0.042,0.052000000000000005,0.073,0.063,0.052000000000000005,0.052000000000000005,0.052000000000000005,0.073,0.083,0.083,0.083,0.063,0.042,0.021,0.011000000000000001,0.011000000000000001,0.031,0.042,0.052000000000000005,0.052000000000000005,0.042,0.021,0.011000000000000001,0.011000000000000001,0.001,0.021,0.021,0.011000000000000001,0.001,-0.009000000000000001,-0.03,-0.04,-0.009000000000000001,-0.009000000000000001,0.001,0.001,-0.009000000000000001,-0.03,-0.04,-0.04,-0.04,-0.02,0.001,0.001,0.001,-0.009000000000000001,-0.03,-0.04,-0.03,-0.009000000000000001,0.001,0.001,0.001,-0.009000000000000001,-0.03,-0.04,-0.04,-0.04,-0.03,-0.03,-0.02,-0.02,-0.04,-0.04,-0.051,-0.061,-0.04,-0.03,-0.02,-0.02,-0.02,-0.04,-0.04,-0.03,-0.009000000000000001,0.001,0.001,0.011000000000000001,0.001,0.001,-0.009000000000000001,-0.02,-0.009000000000000001,0.001,0.021,0.042,0.042,0.042,0.063,0.073,0.10400000000000001,0.165,0.217,0.26899999999999996,0.299,0.331,0.35100000000000003,0.382,0.424,0.465,0.496,0.516,0.527,0.496,0.485,0.465,0.444,0.424,0.40299999999999997,0.40299999999999997,0.39299999999999996,0.37200000000000005,0.35100000000000003,0.341,0.32,0.31,0.32,0.331,0.341,0.31,0.29,0.248,0.207,0.18600000000000003,0.165,0.135,0.10400000000000001,0.073,0.031,-0.009000000000000001,-0.04,-0.061,-0.071,-0.071,-0.071,-0.08199999999999999,-0.092,-0.113,-0.134,-0.154,-0.14400000000000002,-0.134,-0.12300000000000001,-0.113,-0.113,-0.113,-0.134,-0.14400000000000002,-0.14400000000000002,-0.134,-0.12300000000000001,-0.113,-0.113,-0.12300000000000001,-0.134,-0.134,-0.134,-0.12300000000000001,-0.113,-0.102,-0.092,-0.113,-0.134,-0.14400000000000002,-0.14400000000000002,-0.134,-0.113,-0.092,-0.092,-0.113,-0.12300000000000001,-0.134,-0.14400000000000002,-0.134,-0.12300000000000001,-0.092,-0.08199999999999999,-0.08199999999999999,-0.092,-0.113,-0.12300000000000001,-0.113,-0.092,-0.071,-0.061,-0.071,-0.071,-0.08199999999999999,-0.092,-0.092,-0.08199999999999999,-0.08199999999999999,-0.061,-0.071,-0.071,-0.08199999999999999,-0.092,-0.092,-0.08199999999999999,-0.08199999999999999,-0.051,-0.04,-0.051,-0.061,-0.08199999999999999,-0.08199999999999999,-0.08199999999999999,-0.08199999999999999,-0.061,-0.04,-0.04,-0.051,-0.061,-0.061,-0.061,-0.051,-0.04,-0.03,-0.02,-0.02,-0.04,-0.051,-0.061,-0.04,-0.04,-0.03,-0.02,-0.009000000000000001,-0.04,-0.051,-0.061,-0.061,-0.04,-0.02,-0.009000000000000001,-0.009000000000000001,-0.03,-0.051,-0.051,-0.04,-0.04,-0.02,-0.009000000000000001,0.001,-0.009000000000000001,-0.02,-0.04,-0.04,-0.04,-0.03,-0.009000000000000001,0.001,0.001,-0.02,-0.04,-0.04,-0.04,-0.03,-0.009000000000000001,0.001,0.001,-0.009000000000000001,-0.04,N
10,0.145,0.10400000000000001,0.042,0.001,-0.02,-0.04,-0.051,-0.071,-0.08199999999999999,-0.08199999999999999,-0.102,-0.12300000000000001,-0.14400000000000002,-0.14400000000000002,-0.14400000000000002,-0.134,-0.12300000000000001,-0.12300000000000001,-0.134,-0.134,-0.14400000000000002,-0.14400000000000002,-0.14400000000000002,-0.134,-0.134,-0.134,-0.134,-0.154,-0.16399999999999998,-0.16399999999999998,-0.154,-0.154,-0.134,-0.12300000000000001,-0.12300000000000001,-0.134,-0.154,-0.16399999999999998,-0.174,-0.154,-0.134,-0.102,-0.113,-0.134,-0.14400000000000002,-0.16399999999999998,-0.154,-0.14400000000000002,-0.12300000000000001,-0.08199999999999999,-0.08199999999999999,-0.08199999999999999,-0.113,-0.134,-0.14400000000000002,-0.154,-0.134,-0.134,-0.102,-0.092,-0.102,-0.113,-0.113,-0.113,-0.092,-0.08199999999999999,-0.08199999999999999,-0.08199999999999999,-0.08199999999999999,-0.102,-0.12300000000000001,-0.134,-0.134,-0.12300000000000001,-0.08199999999999999,-0.08199999999999999,-0.08199999999999999,-0.08199999999999999,-0.102,-0.113,-0.102,-0.08199999999999999,-0.071,-0.061,-0.061,-0.08199999999999999,-0.092,-0.102,-0.113,-0.12300000000000001,-0.092,-0.08199999999999999,-0.061,-0.061,-0.061,-0.08199999999999999,-0.08199999999999999,-0.092,-0.08199999999999999,-0.071,-0.061,-0.051,-0.061,-0.071,-0.071,-0.071,-0.071,-0.071,-0.061,-0.061,-0.061,-0.071,-0.08199999999999999,-0.08199999999999999,-0.08199999999999999,-0.061,-0.061,-0.051,-0.051,-0.061,-0.08199999999999999,-0.092,-0.071,-0.04,-0.009000000000000001,0.001,-0.009000000000000001,-0.04,-0.04,-0.051,-0.04,-0.04,-0.02,-0.04,-0.04,-0.04,-0.08199999999999999,-0.08199999999999999,-0.08199999999999999,-0.071,-0.04,-0.009000000000000001,0.001,0.001,-0.02,-0.04,-0.051,-0.061,-0.04,-0.02,-0.009000000000000001,-0.009000000000000001,-0.04,-0.051,-0.08199999999999999,-0.08199999999999999,-0.08199999999999999,-0.071,-0.04,-0.03,-0.03,-0.04,-0.04,-0.051,-0.04,-0.02,-0.009000000000000001,0.001,-0.02,-0.04,-0.061,-0.08199999999999999,-0.051,-0.04,-0.03,-0.02,-0.04,-0.051,-0.061,-0.071,-0.071,-0.071,-0.04,-0.04,-0.03,-0.051,-0.071,-0.08199999999999999,-0.08199999999999999,-0.071,-0.061,-0.051,-0.04,-0.051,-0.061,-0.071,-0.08199999999999999,-0.061,-0.051,-0.04,-0.04,-0.04,-0.051,-0.061,-0.071,-0.08199999999999999,-0.051,-0.04,-0.04,-0.04,-0.04,-0.071,-0.08199999999999999,-0.08199999999999999,-0.071,-0.051,-0.04,-0.04,-0.04,-0.051,-0.061,-0.08199999999999999,-0.061,-0.04,-0.03,-0.02,-0.03,-0.04,-0.051,-0.061,-0.061,-0.04,-0.03,-0.02,-0.02,-0.04,-0.051,-0.061,-0.061,-0.061,-0.04,-0.03,-0.02,-0.03,-0.04,-0.061,-0.061,-0.051,-0.04,-0.02,-0.02,-0.02,-0.03,-0.051,-0.051,-0.04,-0.02,-0.009000000000000001,0.001,0.001,-0.009000000000000001,-0.03,-0.04,-0.051,-0.04,-0.02,-0.009000000000000001,0.001,-0.02,-0.04,-0.04,-0.04,-0.04,-0.03,-0.009000000000000001,0.001,0.001,-0.02,-0.04,-0.04,-0.04,-0.02,0.001,0.001,0.001,-0.009000000000000001,-0.02,-0.03,-0.02,-0.009000000000000001,0.001,0.011000000000000001,0.011000000000000001,0.011000000000000001,0.001,-0.009000000000000001,-0.02,-0.009000000000000001,0.001,0.011000000000000001,0.021,0.011000000000000001,0.001,-0.009000000000000001,-0.02,0.001,0.011000000000000001,0.042,0.052000000000000005,0.073,0.063,0.052000000000000005,0.052000000000000005,0.052000000000000005,0.073,0.083,0.083,0.083,0.063,0.042,0.021,0.011000000000000001,0.011000000000000001,0.031,0.042,0.052000000000000005,0.052000000000000005,0.042,0.021,0.011000000000000001,0.011000000000000001,0.001,0.021,0.021,0.011000000000000001,0.001,-0.009000000000000001,-0.03,-0.04,-0.009000000000000001,-0.009000000000000001,0.001,0.001,-0.009000000000000001,-0.03,-0.04,-0.04,-0.04,-0.02,0.001,0.001,0.001,-0.009000000000000001,-0.03,-0.04,-0.03,-0.009000000000000001,0.001,0.001,0.001,-0.009000000000000001,-0.03,-0.04,-0.04,-0.04,-0.03,-0.03,-0.02,-0.02,-0.04,-0.04,-0.051,-0.061,-0.04,-0.03,-0.02,-0.02,-0.02,-0.04,-0.04,-0.03,-0.009000000000000001,0.001,0.001,0.011000000000000001,0.001,0.001,-0.009000000000000001,-0.02,-0.009000000000000001,0.001,0.021,0.042,0.042,0.042,0.063,0.073,0.10400000000000001,0.165,0.217,0.26899999999999996,0.299,0.331,0.35100000000000003,0.382,0.424,0.465,0.496,0.516,0.527,0.496,0.485,0.465,0.444,0.424,0.40299999999999997,0.40299999999999997,0.39299999999999996,0.37200000000000005,0.35100000000000003,0.341,0.32,0.31,0.32,0.331,0.341,0.31,0.29,0.248,0.207,0.18600000000000003,0.165,0.135,0.10400000000000001,0.073,0.031,-0.009000000000000001,-0.04,-0.061,-0.071,-0.071,-0.071,-0.08199999999999999,-0.092,-0.113,-0.134,-0.154,-0.14400000000000002,-0.134,-0.12300000000000001,-0.113,-0.113,-0.113,-0.134,-0.14400000000000002,-0.14400000000000002,-0.134,-0.12300000000000001,-0.113,-0.113,-0.12300000000000001,-0.134,-0.134,-0.134,-0.12300000000000001,-0.113,-0.102,-0.092,-0.113,-0.134,-0.14400000000000002,-0.14400000000000002,-0.134,-0.113,-0.092,-0.092,-0.113,-0.12300000000000001,-0.134,-0.14400000000000002,-0.134,-0.12300000000000001,-0.092,-0.08199999999999999,-0.08199999999999999,-0.092,-0.113,-0.12300000000000001,-0.113,-0.092,-0.071,-0.061,-0.071,-0.071,-0.08199999999999999,-0.092,-0.092,-0.08199999999999999,-0.08199999999999999,-0.061,-0.071,-0.071,-0.08199999999999999,-0.092,-0.092,-0.08199999999999999,-0.08199999999999999,-0.051,-0.04,-0.051,-0.061,-0.08199999999999999,-0.08199999999999999,-0.08199999999999999,-0.08199999999999999,-0.061,-0.04,-0.04,-0.051,-0.061,-0.061,-0.061,-0.051,-0.04,-0.03,-0.02,-0.02,-0.04,-0.051,-0.061,-0.04,-0.04,-0.03,-0.02,-0.009000000000000001,-0.04,-0.051,-0.061,-0.061,-0.04,-0.02,-0.009000000000000001,-0.009000000000000001,-0.03,-0.051,-0.051,-0.04,-0.04,-0.02,-0.009000000000000001,0.001,-0.009000000000000001,-0.02,-0.04,-0.04,-0.04,-0.03,-0.009000000000000001,0.001,0.001,-0.02,-0.04,-0.04,-0.04,-0.03,-0.009000000000000001,0.001,0.001,-0.009000000000000001,-0.04,-0.04,-0.04,-0.04,-0.03,-0.02,-0.009000000000000001,-0.02,-0.03,-0.04,-0.061,-0.051,-0.04,-0.02,0.001,0.001,-0.03,-0.04,-0.04,-0.04,-0.03,-0.009000000000000001,-0.009000000000000001,0.001,-0.009000000000000001,-0.03,-0.04,-0.04,-0.04,-0.03,-0.03,-0.02,-0.02,-0.03,-0.04,-0.051,-0.051,-0.04,-0.02,-0.02,-0.02,-0.04,-0.04,-0.04,-0.04,-0.04,-0.03,-0.02,-0.009000000000000001,-0.02,-0.04,-0.051,-0.051,-0.04,-0.03,-0.02,-0.009000000000000001,-0.02,-0.03,-0.04,-0.051,-0.04,-0.04,-0.03,-0.02,-0.03,-0.03,-0.04,-0.051,-0.051,-0.04,-0.02,-0.009000000000000001,-0.009000000000000001,-0.02,-0.03,-0.04,-0.051,-0.04,-0.03,-0.009000000000000001,-0.009000000000000001,-0.009000000000000001,-0.04,-0.04,-0.04,-0.04,-0.02,-0.009000000000000001,0.001,0.001,0.001,-0.03,-0.04,-0.03,-0.009000000000000001,0.001,0.001,0.001,-0.009000000000000001,-0.02,-0.03,-0.03,-0.02,0.001,0.001,0.001,0.001,-0.02,-0.04,-0.04,-0.03,-0.02,0.001,0.001,0.001,0.001,-0.02,-0.03,-0.009000000000000001,-0.009000000000000001,0.001,0.011000000000000001,0.001,0.001,-0.009000000000000001,-0.02,-0.02,-0.009000000000000001,0.001,0.001,0.001,0.001,-0.009000000000000001,-0.02,-0.03,-0.02,0.001,0.001,0.001,0.001,0.001,-0.02,-0.02,-0.009000000000000001,0.001,0.011000000000000001,0.021,0.011000000000000001,0.001,0.001,0.001,0.001,0.001,0.021,0.042,0.042,0.031,0.021,0.001,0.011000000000000001,0.031,0.052000000000000005,0.083,0.083,0.083,0.073,0.063,0.052000000000000005,0.063,0.073,0.083,0.083,0.083,0.063,0.042,0.021,0.011000000000000001,0.021,0.031,0.042,0.042,0.021,0.011000000000000001,0.001,-0.02,-0.009000000000000001,0.001,0.001,0.001,0.001,-0.02,-0.04,-0.04,-0.04,-0.03,-0.009000000000000001,0.001,-0.009000000000000001,-0.02,-0.04,-0.04,-0.04,-0.03,-0.03,-0.009000000000000001,0.001,-0.009000000000000001,-0.03,-0.04,-0.04,-0.04,-0.02,-0.009000000000000001,-0.02,-0.03,-0.03,-0.04,-0.061,-0.051,-0.04,-0.009000000000000001,0.001,0.001,-0.02,-0.04,-0.03,-0.04,-0.04,-0.03,-0.02,-0.02,-0.02,-0.03,-0.04,-0.04,-0.04,-0.02,-0.009000000000000001,0.001,0.001,0.001,-0.009000000000000001,0.001,0.001,0.021,0.042,0.083,0.10400000000000001,0.10400000000000001,0.114,0.135,0.165,0.217,0.26899999999999996,0.32,0.37200000000000005,0.40299999999999997,0.413,0.434,0.444,0.475,0.485,0.506,0.506,0.485,0.465,0.424,0.39299999999999996,0.37200000000000005,0.37200000000000005,0.382,0.382,0.382,0.36200000000000004,0.331,0.31,0.31,0.31,0.31,0.31,0.299,0.26899999999999996,0.217,0.17600000000000002,0.135,0.114,0.083,0.063,0.031,0.001,-0.04,-0.061,-0.08199999999999999,-0.102,-0.092,-0.092,-0.113,-0.113,-0.12300000000000001,-0.134,-0.154,-0.14400000000000002,-0.134,-0.12300000000000001,-0.113,-0.113,-0.12300000000000001,-0.134,-0.14400000000000002,-0.154,-0.134,-0.12300000000000001,-0.113,-0.092,-0.102,-0.134,-0.14400000000000002,-0.14400000000000002,-0.154,-0.14400000000000002,-0.12300000000000001,-0.102,-0.092,-0.113,-0.12300000000000001,-0.134,-0.12300000000000001,-0.113,-0.102,-0.08199999999999999,-0.08199999999999999,-0.092,-0.113,-0.134,-0.134,-0.113,-0.102,-0.092,-0.092,-0.102,-0.113,-0.12300000000000001,-0.134,-0.134,-0.113,-0.092,-0.08199999999999999,-0.08199999999999999,-0.092,-0.113,-0.113,-0.12300000000000001,-0.102,-0.08199999999999999,-0.071,-0.051,-0.051,-0.071,-0.08199999999999999,-0.08199999999999999,-0.08199999999999999,-0.061,-0.051,-0.051,-0.051,-0.061,-0.071,-0.071,-0.071,-0.051,-0.04,-0.04,-0.04,-0.04,-0.061,-0.071,-0.08199999999999999,-0.071,-0.04,-0.04,-0.04,-0.04,-0.051,-0.061,-0.071,-0.051,-0.03,-0.02,-0.02,-0.03,-0.04,-0.04,-0.04,-0.04,-0.04,-0.02,-0.009000000000000001,-0.009000000000000001,-0.02,-0.04,-0.04,-0.04,-0.03,-0.009000000000000001,0.001,0.001,-0.009000000000000001,-0.04,-0.04,-0.051,-0.04,-0.02,0.001,0.001,0.001,-0.009000000000000001,-0.04,-0.04,-0.04,-0.02,0.001,0.001,0.001,-0.009000000000000001,-0.03,-0.04,-0.03,-0.009000000000000001,0.001,0.001,N
11,0.18600000000000003,0.165,0.135,0.10400000000000001,0.073,0.031,-0.009000000000000001,-0.04,-0.061,-0.071,-0.071,-0.071,-0.08199999999999999,-0.092,-0.113,-0.134,-0.154,-0.14400000000000002,-0.134,-0.12300000000000001,-0.113,-0.113,-0.113,-0.134,-0.14400000000000002,-0.14400000000000002,-0.134,-0.12300000000000001,-0.113,-0.113,-0.12300000000000001,-0.134,-0.134,-0.134,-0.12300000000000001,-0.113,-0.102,-0.092,-0.113,-0.134,-0.14400000000000002,-0.14400000000000002,-0.134,-0.113,-0.092,-0.092,-0.113,-0.12300000000000001,-0.134,-0.14400000000000002,-0.134,-0.12300000000000001,-0.092,-0.08199999999999999,-0.08199999999999999,-0.092,-0.113,-0.12300000000000001,-0.113,-0.092,-0.071,-0.061,-0.071,-0.071,-0.08199999999999999,-0.092,-0.092,-0.08199999999999999,-0.08199999999999999,-0.061,-0.071,-0.071,-0.08199999999999999,-0.092,-0.092,-0.08199999999999999,-0.08199999999999999,-0.051,-0.04,-0.051,-0.061,-0.08199999999999999,-0.08199999999999999,-0.08199999999999999,-0.08199999999999999,-0.061,-0.04,-0.04,-0.051,-0.061,-0.061,-0.061,-0.051,-0.04,-0.03,-0.02,-0.02,-0.04,-0.051,-0.061,-0.04,-0.04,-0.03,-0.02,-0.009000000000000001,-0.04,-0.051,-0.061,-0.061,-0.04,-0.02,-0.009000000000000001,-0.009000000000000001,-0.03,-0.051,-0.051,-0.04,-0.04,-0.02,-0.009000000000000001,0.001,-0.009000000000000001,-0.02,-0.04,-0.04,-0.04,-0.03,-0.009000000000000001,0.001,0.001,-0.02,-0.04,-0.04,-0.04,-0.03,-0.009000000000000001,0.001,0.001,-0.009000000000000001,-0.04,-0.04,-0.04,-0.04,-0.03,-0.02,-0.009000000000000001,-0.02,-0.03,-0.04,-0.061,-0.051,-0.04,-0.02,0.001,0.001,-0.03,-0.04,-0.04,-0.04,-0.03,-0.009000000000000001,-0.009000000000000001,0.001,-0.009000000000000001,-0.03,-0.04,-0.04,-0.04,-0.03,-0.03,-0.02,-0.02,-0.03,-0.04,-0.051,-0.051,-0.04,-0.02,-0.02,-0.02,-0.04,-0.04,-0.04,-0.04,-0.04,-0.03,-0.02,-0.009000000000000001,-0.02,-0.04,-0.051,-0.051,-0.04,-0.03,-0.02,-0.009000000000000001,-0.02,-0.03,-0.04,-0.051,-0.04,-0.04,-0.03,-0.02,-0.03,-0.03,-0.04,-0.051,-0.051,-0.04,-0.02,-0.009000000000000001,-0.009000000000000001,-0.02,-0.03,-0.04,-0.051,-0.04,-0.03,-0.009000000000000001,-0.009000000000000001,-0.009000000000000001,-0.04,-0.04,-0.04,-0.04,-0.02,-0.009000000000000001,0.001,0.001,0.001,-0.03,-0.04,-0.03,-0.009000000000000001,0.001,0.001,0.001,-0.009000000000000001,-0.02,-0.03,-0.03,-0.02,0.001,0.001,0.001,0.001,-0.02,-0.04,-0.04,-0.03,-0.02,0.001,0.001,0.001,0.001,-0.02,-0.03,-0.009000000000000001,-0.009000000000000001,0.001,0.011000000000000001,0.001,0.001,-0.009000000000000001,-0.02,-0.02,-0.009000000000000001,0.001,0.001,0.001,0.001,-0.009000000000000001,-0.02,-0.03,-0.02,0.001,0.001,0.001,0.001,0.001,-0.02,-0.02,-0.009000000000000001,0.001,0.011000000000000001,0.021,0.011000000000000001,0.001,0.001,0.001,0.001,0.001,0.021,0.042,0.042,0.031,0.021,0.001,0.011000000000000001,0.031,0.052000000000000005,0.083,0.083,0.083,0.073,0.063,0.052000000000000005,0.063,0.073,0.083,0.083,0.083,0.063,0.042,0.021,0.011000000000000001,0.021,0.031,0.042,0.042,0.021,0.011000000000000001,0.001,-0.02,-0.009000000000000001,0.001,0.001,0.001,0.001,-0.02,-0.04,-0.04,-0.04,-0.03,-0.009000000000000001,0.001,-0.009000000000000001,-0.02,-0.04,-0.04,-0.04,-0.03,-0.03,-0.009000000000000001,0.001,-0.009000000000000001,-0.03,-0.04,-0.04,-0.04,-0.02,-0.009000000000000001,-0.02,-0.03,-0.03,-0.04,-0.061,-0.051,-0.04,-0.009000000000000001,0.001,0.001,-0.02,-0.04,-0.03,-0.04,-0.04,-0.03,-0.02,-0.02,-0.02,-0.03,-0.04,-0.04,-0.04,-0.02,-0.009000000000000001,0.001,0.001,0.001,-0.009000000000000001,0.001,0.001,0.021,0.042,0.083,0.10400000000000001,0.10400000000000001,0.114,0.135,0.165,0.217,0.26899999999999996,0.32,0.37200000000000005,0.40299999999999997,0.413,0.434,0.444,0.475,0.485,0.506,0.506,0.485,0.465,0.424,0.39299999999999996,0.37200000000000005,0.37200000000000005,0.382,0.382,0.382,0.36200000000000004,0.331,0.31,0.31,0.31,0.31,0.31,0.299,0.26899999999999996,0.217,0.17600000000000002,0.135,0.114,0.083,0.063,0.031,0.001,-0.04,-0.061,-0.08199999999999999,-0.102,-0.092,-0.092,-0.113,-0.113,-0.12300000000000001,-0.134,-0.154,-0.14400000000000002,-0.134,-0.12300000000000001,-0.113,-0.113,-0.12300000000000001,-0.134,-0.14400000000000002,-0.154,-0.134,-0.12300000000000001,-0.113,-0.092,-0.102,-0.134,-0.14400000000000002,-0.14400000000000002,-0.154,-0.14400000000000002,-0.12300000000000001,-0.102,-0.092,-0.113,-0.12300000000000001,-0.134,-0.12300000000000001,-0.113,-0.102,-0.08199999999999999,-0.08199999999999999,-0.092,-0.113,-0.134,-0.134,-0.113,-0.102,-0.092,-0.092,-0.102,-0.113,-0.12300000000000001,-0.134,-0.134,-0.113,-0.092,-0.08199999999999999,-0.08199999999999999,-0.092,-0.113,-0.113,-0.12300000000000001,-0.102,-0.08199999999999999,-0.071,-0.051,-0.051,-0.071,-0.08199999999999999,-0.08199999999999999,-0.08199999999999999,-0.061,-0.051,-0.051,-0.051,-0.061,-0.071,-0.071,-0.071,-0.051,-0.04,-0.04,-0.04,-0.04,-0.061,-0.071,-0.08199999999999999,-0.071,-0.04,-0.04,-0.04,-0.04,-0.051,-0.061,-0.071,-0.051,-0.03,-0.02,-0.02,-0.03,-0.04,-0.04,-0.04,-0.04,-0.04,-0.02,-0.009000000000000001,-0.009000000000000001,-0.02,-0.04,-0.04,-0.04,-0.03,-0.009000000000000001,0.001,0.001,-0.009000000000000001,-0.04,-0.04,-0.051,-0.04,-0.02,0.001,0.001,0.001,-0.009000000000000001,-0.04,-0.04,-0.04,-0.02,0.001,0.001,0.001,-0.009000000000000001,-0.03,-0.04,-0.03,-0.009000000000000001,0.001,0.001,0.001,0.001,-0.02,-0.04,-0.04,-0.02,-0.009000000000000001,0.001,0.001,0.001,-0.03,-0.04,-0.04,-0.03,-0.02,-0.009000000000000001,0.001,-0.009000000000000001,-0.03,-0.04,-0.061,-0.061,-0.04,-0.04,-0.03,-0.009000000000000001,-0.02,-0.04,-0.04,-0.04,-0.04,-0.03,-0.009000000000000001,0.001,-0.009000000000000001,-0.02,-0.04,-0.051,-0.04,-0.02,0.001,0.001,0.001,-0.02,-0.04,-0.04,-0.04,-0.03,-0.02,0.001,0.001,-0.009000000000000001,-0.03,-0.04,-0.04,-0.04,-0.009000000000000001,0.001,0.001,-0.009000000000000001,-0.02,-0.04,-0.04,-0.04,-0.02,-0.02,-0.009000000000000001,-0.02,-0.03,-0.04,-0.04,-0.04,-0.03,-0.009000000000000001,0.001,0.001,-0.009000000000000001,-0.04,-0.04,-0.03,-0.03,-0.02,-0.009000000000000001,-0.009000000000000001,-0.02,-0.04,-0.051,-0.051,-0.04,-0.03,-0.009000000000000001,0.001,0.001,-0.009000000000000001,-0.03,-0.04,-0.04,-0.03,-0.009000000000000001,0.001,0.001,0.001,-0.009000000000000001,-0.03,-0.03,-0.009000000000000001,0.001,0.001,0.001,0.001,0.001,-0.02,-0.03,-0.02,0.001,0.001,0.011000000000000001,0.001,0.001,0.001,0.001,0.001,0.001,0.001,0.021,0.031,0.021,0.001,0.001,0.001,0.001,0.011000000000000001,0.031,0.042,0.031,0.021,0.001,0.001,0.011000000000000001,0.031,0.042,0.073,0.083,0.073,0.052000000000000005,0.042,0.042,0.052000000000000005,0.063,0.083,0.083,0.063,0.042,0.031,0.021,0.042,0.042,0.042,0.042,0.011000000000000001,0.001,-0.02,-0.009000000000000001,-0.009000000000000001,0.001,0.001,0.001,0.001,-0.009000000000000001,-0.03,-0.04,-0.04,-0.04,-0.02,0.001,0.001,-0.009000000000000001,-0.03,-0.04,-0.04,-0.04,-0.02,-0.009000000000000001,0.001,-0.02,-0.04,-0.051,-0.061,-0.04,-0.04,0.001,0.001,0.001,-0.009000000000000001,-0.03,-0.04,-0.04,-0.04,-0.02,-0.02,-0.02,-0.03,-0.04,-0.061,-0.051,-0.04,-0.04,-0.03,-0.03,-0.04,-0.04,-0.061,-0.061,-0.04,-0.04,-0.03,-0.009000000000000001,-0.02,-0.03,-0.04,-0.04,-0.04,-0.02,0.001,0.001,0.011000000000000001,0.011000000000000001,0.011000000000000001,0.011000000000000001,0.031,0.063,0.10400000000000001,0.155,0.19699999999999998,0.228,0.259,0.29,0.331,0.39299999999999996,0.444,0.485,0.516,0.537,0.537,0.516,0.496,0.485,0.485,0.485,0.45399999999999996,0.434,0.413,0.40299999999999997,0.40299999999999997,0.39299999999999996,0.39299999999999996,0.39299999999999996,0.382,0.35100000000000003,0.331,0.31,0.26899999999999996,0.26899999999999996,0.23800000000000002,0.217,0.207,0.17600000000000002,0.114,0.063,0.001,-0.02,-0.051,-0.061,-0.071,-0.08199999999999999,-0.092,-0.134,-0.14400000000000002,-0.154,-0.16399999999999998,-0.154,-0.134,-0.134,-0.12300000000000001,-0.134,-0.134,-0.16399999999999998,-0.174,-0.174,-0.16399999999999998,-0.154,-0.154,-0.154,-0.16399999999999998,-0.174,-0.174,-0.174,-0.14400000000000002,-0.113,-0.102,-0.113,-0.12300000000000001,-0.134,-0.134,-0.134,-0.134,-0.12300000000000001,-0.12300000000000001,-0.134,-0.134,-0.134,-0.14400000000000002,-0.14400000000000002,-0.134,-0.134,-0.113,-0.092,-0.102,-0.12300000000000001,-0.14400000000000002,-0.134,-0.12300000000000001,-0.113,-0.092,-0.092,-0.102,-0.102,-0.113,-0.12300000000000001,-0.113,-0.102,-0.08199999999999999,-0.08199999999999999,-0.071,-0.08199999999999999,-0.092,-0.102,-0.113,-0.092,-0.08199999999999999,-0.071,-0.061,-0.071,-0.08199999999999999,-0.113,-0.102,-0.092,-0.08199999999999999,-0.051,-0.04,-0.04,-0.061,-0.08199999999999999,-0.092,-0.092,-0.08199999999999999,-0.08199999999999999,-0.071,-0.051,-0.04,-0.051,-0.051,-0.061,-0.04,-0.04,-0.04,-0.04,-0.051,-0.051,-0.061,-0.061,-0.051,-0.04,-0.03,-0.02,-0.02,-0.04,-0.051,-0.051,-0.04,-0.03,0.001,0.001,0.001,0.001,-0.04,-0.051,-0.051,-0.04,-0.03,-0.009000000000000001,0.001,0.001,0.001,-0.02,-0.02,-0.02,-0.009000000000000001,0.001,0.001,0.001,-0.009000000000000001,-0.02,-0.04,-0.04,-0.009000000000000001,0.001,0.011000000000000001,0.001,0.001,-0.009000000000000001,-0.02,-0.009000000000000001,0.001,0.011000000000000001,0.001,0.001,0.001,-0.009000000000000001,-0.02,-0.03,-0.02,0.001,0.001,0.001,0.001,0.001,-0.02,-0.04,-0.03,N
12,0.217,0.17600000000000002,0.135,0.114,0.083,0.063,0.031,0.001,-0.04,-0.061,-0.08199999999999999,-0.102,-0.092,-0.092,-0.113,-0.113,-0.12300000000000001,-0.134,-0.154,-0.14400000000000002,-0.134,-0.12300000000000001,-0.113,-0.113,-0.12300000000000001,-0.134,-0.14400000000000002,-0.154,-0.134,-0.12300000000000001,-0.113,-0.092,-0.102,-0.134,-0.14400000000000002,-0.14400000000000002,-0.154,-0.14400000000000002,-0.12300000000000001,-0.102,-0.092,-0.113,-0.12300000000000001,-0.134,-0.12300000000000001,-0.113,-0.102,-0.08199999999999999,-0.08199999999999999,-0.092,-0.113,-0.134,-0.134,-0.113,-0.102,-0.092,-0.092,-0.102,-0.113,-0.12300000000000001,-0.134,-0.134,-0.113,-0.092,-0.08199999999999999,-0.08199999999999999,-0.092,-0.113,-0.113,-0.12300000000000001,-0.102,-0.08199999999999999,-0.071,-0.051,-0.051,-0.071,-0.08199999999999999,-0.08199999999999999,-0.08199999999999999,-0.061,-0.051,-0.051,-0.051,-0.061,-0.071,-0.071,-0.071,-0.051,-0.04,-0.04,-0.04,-0.04,-0.061,-0.071,-0.08199999999999999,-0.071,-0.04,-0.04,-0.04,-0.04,-0.051,-0.061,-0.071,-0.051,-0.03,-0.02,-0.02,-0.03,-0.04,-0.04,-0.04,-0.04,-0.04,-0.02,-0.009000000000000001,-0.009000000000000001,-0.02,-0.04,-0.04,-0.04,-0.03,-0.009000000000000001,0.001,0.001,-0.009000000000000001,-0.04,-0.04,-0.051,-0.04,-0.02,0.001,0.001,0.001,-0.009000000000000001,-0.04,-0.04,-0.04,-0.02,0.001,0.001,0.001,-0.009000000000000001,-0.03,-0.04,-0.03,-0.009000000000000001,0.001,0.001,0.001,0.001,-0.02,-0.04,-0.04,-0.02,-0.009000000000000001,0.001,0.001,0.001,-0.03,-0.04,-0.04,-0.03,-0.02,-0.009000000000000001,0.001,-0.009000000000000001,-0.03,-0.04,-0.061,-0.061,-0.04,-0.04,-0.03,-0.009000000000000001,-0.02,-0.04,-0.04,-0.04,-0.04,-0.03,-0.009000000000000001,0.001,-0.009000000000000001,-0.02,-0.04,-0.051,-0.04,-0.02,0.001,0.001,0.001,-0.02,-0.04,-0.04,-0.04,-0.03,-0.02,0.001,0.001,-0.009000000000000001,-0.03,-0.04,-0.04,-0.04,-0.009000000000000001,0.001,0.001,-0.009000000000000001,-0.02,-0.04,-0.04,-0.04,-0.02,-0.02,-0.009000000000000001,-0.02,-0.03,-0.04,-0.04,-0.04,-0.03,-0.009000000000000001,0.001,0.001,-0.009000000000000001,-0.04,-0.04,-0.03,-0.03,-0.02,-0.009000000000000001,-0.009000000000000001,-0.02,-0.04,-0.051,-0.051,-0.04,-0.03,-0.009000000000000001,0.001,0.001,-0.009000000000000001,-0.03,-0.04,-0.04,-0.03,-0.009000000000000001,0.001,0.001,0.001,-0.009000000000000001,-0.03,-0.03,-0.009000000000000001,0.001,0.001,0.001,0.001,0.001,-0.02,-0.03,-0.02,0.001,0.001,0.011000000000000001,0.001,0.001,0.001,0.001,0.001,0.001,0.001,0.021,0.031,0.021,0.001,0.001,0.001,0.001,0.011000000000000001,0.031,0.042,0.031,0.021,0.001,0.001,0.011000000000000001,0.031,0.042,0.073,0.083,0.073,0.052000000000000005,0.042,0.042,0.052000000000000005,0.063,0.083,0.083,0.063,0.042,0.031,0.021,0.042,0.042,0.042,0.042,0.011000000000000001,0.001,-0.02,-0.009000000000000001,-0.009000000000000001,0.001,0.001,0.001,0.001,-0.009000000000000001,-0.03,-0.04,-0.04,-0.04,-0.02,0.001,0.001,-0.009000000000000001,-0.03,-0.04,-0.04,-0.04,-0.02,-0.009000000000000001,0.001,-0.02,-0.04,-0.051,-0.061,-0.04,-0.04,0.001,0.001,0.001,-0.009000000000000001,-0.03,-0.04,-0.04,-0.04,-0.02,-0.02,-0.02,-0.03,-0.04,-0.061,-0.051,-0.04,-0.04,-0.03,-0.03,-0.04,-0.04,-0.061,-0.061,-0.04,-0.04,-0.03,-0.009000000000000001,-0.02,-0.03,-0.04,-0.04,-0.04,-0.02,0.001,0.001,0.011000000000000001,0.011000000000000001,0.011000000000000001,0.011000000000000001,0.031,0.063,0.10400000000000001,0.155,0.19699999999999998,0.228,0.259,0.29,0.331,0.39299999999999996,0.444,0.485,0.516,0.537,0.537,0.516,0.496,0.485,0.485,0.485,0.45399999999999996,0.434,0.413,0.40299999999999997,0.40299999999999997,0.39299999999999996,0.39299999999999996,0.39299999999999996,0.382,0.35100000000000003,0.331,0.31,0.26899999999999996,0.26899999999999996,0.23800000000000002,0.217,0.207,0.17600000000000002,0.114,0.063,0.001,-0.02,-0.051,-0.061,-0.071,-0.08199999999999999,-0.092,-0.134,-0.14400000000000002,-0.154,-0.16399999999999998,-0.154,-0.134,-0.134,-0.12300000000000001,-0.134,-0.134,-0.16399999999999998,-0.174,-0.174,-0.16399999999999998,-0.154,-0.154,-0.154,-0.16399999999999998,-0.174,-0.174,-0.174,-0.14400000000000002,-0.113,-0.102,-0.113,-0.12300000000000001,-0.134,-0.134,-0.134,-0.134,-0.12300000000000001,-0.12300000000000001,-0.134,-0.134,-0.134,-0.14400000000000002,-0.14400000000000002,-0.134,-0.134,-0.113,-0.092,-0.102,-0.12300000000000001,-0.14400000000000002,-0.134,-0.12300000000000001,-0.113,-0.092,-0.092,-0.102,-0.102,-0.113,-0.12300000000000001,-0.113,-0.102,-0.08199999999999999,-0.08199999999999999,-0.071,-0.08199999999999999,-0.092,-0.102,-0.113,-0.092,-0.08199999999999999,-0.071,-0.061,-0.071,-0.08199999999999999,-0.113,-0.102,-0.092,-0.08199999999999999,-0.051,-0.04,-0.04,-0.061,-0.08199999999999999,-0.092,-0.092,-0.08199999999999999,-0.08199999999999999,-0.071,-0.051,-0.04,-0.051,-0.051,-0.061,-0.04,-0.04,-0.04,-0.04,-0.051,-0.051,-0.061,-0.061,-0.051,-0.04,-0.03,-0.02,-0.02,-0.04,-0.051,-0.051,-0.04,-0.03,0.001,0.001,0.001,0.001,-0.04,-0.051,-0.051,-0.04,-0.03,-0.009000000000000001,0.001,0.001,0.001,-0.02,-0.02,-0.02,-0.009000000000000001,0.001,0.001,0.001,-0.009000000000000001,-0.02,-0.04,-0.04,-0.009000000000000001,0.001,0.011000000000000001,0.001,0.001,-0.009000000000000001,-0.02,-0.009000000000000001,0.001,0.011000000000000001,0.001,0.001,0.001,-0.009000000000000001,-0.02,-0.03,-0.02,0.001,0.001,0.001,0.001,0.001,-0.02,-0.04,-0.03,-0.009000000000000001,0.001,0.001,0.001,0.001,-0.009000000000000001,-0.03,-0.04,-0.02,0.001,0.001,0.001,0.001,-0.009000000000000001,-0.04,-0.04,-0.04,-0.03,0.001,0.001,-0.009000000000000001,-0.009000000000000001,-0.02,-0.03,-0.02,-0.009000000000000001,0.001,0.001,0.001,-0.009000000000000001,-0.03,-0.04,-0.03,-0.04,-0.02,0.001,0.001,0.001,0.001,-0.02,-0.03,-0.03,-0.009000000000000001,0.001,0.001,0.001,0.001,-0.009000000000000001,-0.03,-0.02,-0.009000000000000001,0.001,0.001,0.001,0.001,0.001,-0.02,-0.009000000000000001,0.001,0.001,0.011000000000000001,0.021,0.011000000000000001,0.001,-0.009000000000000001,0.001,-0.009000000000000001,0.001,0.011000000000000001,0.031,0.021,0.011000000000000001,0.001,-0.009000000000000001,0.001,0.001,0.011000000000000001,0.031,0.042,0.021,0.001,0.001,0.001,0.001,0.021,0.031,0.031,0.021,0.001,0.001,0.001,0.011000000000000001,0.011000000000000001,0.031,0.042,0.031,0.001,0.001,0.001,0.001,0.001,0.021,0.042,0.042,0.042,0.021,0.021,0.021,0.031,0.042,0.052000000000000005,0.063,0.052000000000000005,0.042,0.031,0.021,0.031,0.042,0.083,0.083,0.094,0.094,0.083,0.083,0.083,0.10400000000000001,0.125,0.125,0.125,0.114,0.094,0.083,0.073,0.083,0.083,0.083,0.083,0.083,0.073,0.042,0.042,0.042,0.042,0.052000000000000005,0.063,0.052000000000000005,0.042,0.021,0.021,0.021,0.031,0.042,0.042,0.042,0.031,0.011000000000000001,0.011000000000000001,0.011000000000000001,0.011000000000000001,0.021,0.031,0.042,0.021,0.021,0.001,0.001,0.001,0.021,0.042,0.042,0.031,0.021,0.011000000000000001,0.001,0.001,0.011000000000000001,0.031,0.042,0.031,0.021,0.011000000000000001,0.001,0.001,0.001,0.031,0.042,0.042,0.042,0.031,0.021,0.001,0.001,0.011000000000000001,0.031,0.042,0.042,0.031,0.021,0.011000000000000001,0.001,0.001,0.021,0.031,0.042,0.031,0.042,0.042,0.063,0.094,0.135,0.17600000000000002,0.217,0.26899999999999996,0.299,0.331,0.37200000000000005,0.434,0.475,0.537,0.568,0.578,0.578,0.568,0.5579999999999999,0.547,0.547,0.537,0.516,0.485,0.465,0.444,0.424,0.413,0.413,0.424,0.424,0.413,0.39299999999999996,0.35100000000000003,0.331,0.299,0.26899999999999996,0.259,0.23800000000000002,0.217,0.165,0.10400000000000001,0.042,0.011000000000000001,-0.009000000000000001,-0.02,-0.02,-0.04,-0.051,-0.08199999999999999,-0.092,-0.113,-0.12300000000000001,-0.113,-0.092,-0.08199999999999999,-0.08199999999999999,-0.092,-0.12300000000000001,-0.12300000000000001,-0.134,-0.113,-0.102,-0.08199999999999999,-0.08199999999999999,-0.092,-0.102,-0.113,-0.113,-0.12300000000000001,-0.092,-0.08199999999999999,-0.071,-0.08199999999999999,-0.08199999999999999,-0.102,-0.12300000000000001,-0.113,-0.092,-0.08199999999999999,-0.071,-0.071,-0.08199999999999999,-0.08199999999999999,-0.102,-0.102,-0.092,-0.08199999999999999,-0.08199999999999999,-0.061,-0.071,-0.08199999999999999,-0.092,-0.092,-0.092,-0.08199999999999999,-0.071,-0.061,-0.061,-0.071,-0.092,-0.092,-0.092,-0.08199999999999999,-0.071,-0.051,-0.051,-0.051,-0.071,-0.08199999999999999,-0.08199999999999999,-0.071,-0.051,-0.04,-0.03,-0.04,-0.04,-0.051,-0.061,-0.061,-0.04,-0.04,-0.02,-0.02,-0.04,-0.051,-0.061,-0.061,-0.04,-0.03,-0.009000000000000001,-0.02,-0.02,-0.04,-0.04,-0.051,-0.051,-0.04,-0.03,-0.02,-0.02,-0.03,-0.04,-0.051,-0.04,-0.04,-0.02,-0.009000000000000001,0.001,-0.009000000000000001,-0.02,-0.04,-0.04,-0.04,-0.02,0.001,0.001,0.001,-0.02,-0.03,-0.04,-0.04,-0.02,0.001,0.001,-0.009000000000000001,-0.03,-0.03,-0.03,-0.03,-0.009000000000000001,0.001,0.001,0.001,-0.009000000000000001,-0.02,-0.03,-0.03,-0.03,-0.009000000000000001,-0.009000000000000001,0.001,0.001,-0.02,-0.04,-0.04,-0.03,-0.02,0.001,0.001,0.001,-0.009000000000000001,-0.03,-0.04,-0.03,-0.009000000000000001,0.001,0.001,0.001,-0.009000000000000001,-0.02,-0.04,-0.051,-0.04,-0.02,0.001,0.001,-0.02,-0.03,-0.04,-0.051,-0.04,-0.03,-0.009000000000000001,-0.009000000000000001,-0.03,-0.04,N
