0,-0.075,-0.098,-0.121,-0.136,-0.14300000000000002,-0.14300000000000002,-0.151,-0.151,-0.159,-0.14300000000000002,-0.098,-0.037000000000000005,-0.015,-0.045,-0.091,-0.121,-0.14300000000000002,-0.159,-0.166,-0.159,-0.159,-0.136,-0.113,-0.106,-0.106,-0.106,-0.098,-0.091,-0.083,-0.083,-0.091,-0.106,-0.136,-0.151,-0.174,-0.18899999999999997,-0.23399999999999999,-0.257,-0.287,-0.303,-0.325,-0.348,-0.37799999999999995,-0.39299999999999996,-0.409,-0.41600000000000004,-0.439,-0.461,-0.484,-0.499,-0.499,-0.484,-0.45399999999999996,-0.431,-0.41600000000000004,-0.386,-0.371,-0.363,-0.348,-0.34,-0.318,-0.295,-0.28,-0.249,-0.242,-0.23399999999999999,-0.21899999999999997,-0.204,-0.18100000000000002,-0.151,-0.136,-0.121,-0.098,-0.083,-0.068,-0.045,-0.03,-0.022000000000000002,-0.015,-0.015,-0.015,0.001,0.008,0.008,0.008,0.016,0.023,0.016,0.016,0.023,0.031,0.023,0.016,0.031,0.038,0.046,0.046,0.046,0.054000000000000006,0.054000000000000006,0.054000000000000006,0.054000000000000006,0.054000000000000006,0.054000000000000006,0.046,0.046,0.046,0.016,0.016,0.038,0.069,0.084,0.099,0.092,0.084,0.084,0.084,0.099,0.092,0.099,0.092,0.092,0.092,0.092,0.099,0.107,0.114,0.122,0.122,0.122,0.122,0.114,0.107,0.114,0.114,0.114,0.114,0.114,0.107,0.107,0.107,0.099,0.069,0.092,0.107,0.107,0.107,0.107,0.107,0.107,0.122,0.13699999999999998,0.16699999999999998,0.281,0.213,0.122,0.008,0.001,-0.022000000000000002,0.001,0.031,0.008,0.016,0.001,-0.006999999999999999,0.023,0.031,0.031,0.069,0.054000000000000006,-0.015,-0.075,-0.053,0.008,0.016,0.001,0.001,0.001,0.008,0.016,0.008,0.008,0.016,0.008,0.001,0.001,-0.006999999999999999,-0.006999999999999999,-0.006999999999999999,-0.006999999999999999,-0.006999999999999999,-0.022000000000000002,-0.037000000000000005,-0.045,-0.037000000000000005,-0.045,-0.068,-0.068,-0.045,-0.03,-0.006999999999999999,-0.006999999999999999,-0.015,-0.022000000000000002,-0.03,-0.022000000000000002,-0.006999999999999999,-0.022000000000000002,-0.015,-0.03,-0.03,-0.037000000000000005,-0.037000000000000005,-0.03,-0.022000000000000002,-0.022000000000000002,-0.015,-0.015,-0.006999999999999999,-0.006999999999999999,-0.015,-0.015,-0.015,-0.015,-0.006999999999999999,-0.015,-0.006999999999999999,-0.006999999999999999,-0.006999999999999999,-0.015,-0.015,-0.006999999999999999,0.001,0.001,0.001,0.001,0.001,0.008,0.001,0.001,-0.006999999999999999,0.001,0.008,-0.006999999999999999,-0.006999999999999999,-0.006999999999999999,-0.015,-0.015,-0.015,-0.022000000000000002,-0.015,-0.006999999999999999,-0.006999999999999999,-0.015,-0.03,-0.037000000000000005,-0.03,-0.03,-0.015,-0.006999999999999999,-0.006999999999999999,0.001,0.001,0.001,0.001,0.001,-0.006999999999999999,-0.015,-0.015,-0.006999999999999999,-0.006999999999999999,-0.006999999999999999,0.001,0.001,-0.006999999999999999,0.001,-0.006999999999999999,0.001,0.001,0.001,-0.006999999999999999,-0.015,-0.015,-0.006999999999999999,0.001,0.001,-0.006999999999999999,-0.015,-0.015,0.001,0.016,0.016,0.023,0.031,0.031,0.023,0.023,0.016,0.023,0.031,0.031,0.031,0.023,0.016,0.016,0.008,-0.006999999999999999,-0.006999999999999999,-0.015,-0.006999999999999999,-0.015,-0.006999999999999999,0.008,0.008,0.016,0.016,0.023,0.016,0.008,0.001,0.001,0.001,0.001,-0.006999999999999999,-0.015,0.001,0.001,0.001,0.001,0.001,0.001,0.001,-0.006999999999999999,-0.015,-0.022000000000000002,-0.022000000000000002,-0.022000000000000002,-0.022000000000000002,-0.015,-0.015,-0.015,-0.015,-0.015,-0.015,-0.015,-0.015,-0.015,-0.015,-0.015,-0.015,-0.015,-0.006999999999999999,-0.006999999999999999,-0.022000000000000002,-0.022000000000000002,-0.03,-0.03,-0.022000000000000002,-0.015,-0.006999999999999999,-0.006999999999999999,-0.006999999999999999,0.001,0.001,0.008,0.008,0.016,0.016,0.008,0.001,-0.006999999999999999,-0.006999999999999999,-0.006999999999999999,0.001,0.016,0.008,-0.006999999999999999,0.001,0.008,0.008,0.001,-0.015,-0.015,0.001,0.001,0.001,-0.006999999999999999,-0.022000000000000002,-0.053,-0.083,-0.098,-0.113,-0.136,-0.166,-0.18100000000000002,-0.212,-0.22699999999999998,-0.249,-0.28,-0.295,-0.31,-0.325,-0.348,-0.348,-0.34,-0.31,-0.295,-0.272,-0.257,-0.249,-0.249,-0.242,-0.242,-0.21899999999999997,-0.204,-0.18899999999999997,-0.174,-0.166,-0.151,-0.136,-0.106,-0.091,-0.075,-0.053,-0.037000000000000005,-0.022000000000000002,-0.006999999999999999,0.016,0.016,0.008,0.016,0.016,0.031,0.038,0.054000000000000006,0.069,0.069,0.069,0.054000000000000006,0.046,0.054000000000000006,0.069,0.076,0.084,0.076,0.076,0.076,0.076,0.076,0.076,0.084,0.084,0.084,0.076,0.076,0.076,0.076,0.084,0.084,0.092,0.084,0.092,0.092,0.099,0.092,0.099,0.099,0.092,0.092,0.092,0.092,0.092,0.092,0.099,0.092,0.092,0.092,0.092,0.092,0.092,0.084,0.092,0.099,0.107,0.099,0.099,0.092,0.092,0.092,0.092,0.092,0.092,0.092,0.092,0.092,0.084,0.076,0.076,0.092,0.092,0.092,0.084,0.069,0.076,0.092,0.099,0.092,0.084,0.084,0.076,0.069,0.069,0.069,0.054000000000000006,0.054000000000000006,0.054000000000000006,0.046,0.046,0.046,0.046,0.038,0.038,0.023,0.023,0.023,0.031,0.031,0.023,0.023,0.016,0.016,0.008,0.016,0.008,0.001,-0.015,-0.03,-0.037000000000000005,-0.037000000000000005,-0.022000000000000002,0.008,0.084,0.107,0.046,0.023,0.001,0.001,0.001,0.008,0.008,0.016,0.023,0.016,0.008,0.001,-0.006999999999999999,0.001,-0.006999999999999999,-0.015,-0.015,-0.006999999999999999,-0.006999999999999999,-0.006999999999999999,0.001,0.008,0.016,0.016,0.023,0.023,0.023,0.023,0.023,0.016,0.016,0.023,0.023,0.016,0.016,0.008,0.016,0.016,0.016,0.016,0.016,0.016,0.016,0.016,0.008,0.008,0.001,0.008,0.008,0.008,0.008,0.008,0.016,0.016,0.023,0.031,0.023,0.023,0.016,0.016,0.023,0.023,0.016,0.016,0.016,0.016,0.023,0.023,0.023,0.016,0.023,0.023,0.023,0.023,0.023,0.031,0.031,0.023,0.016,0.016,0.023,0.031,0.031,0.023,0.016,0.008,0.016,0.023,0.031,0.031,0.031,0.038,0.031,0.031,0.023,0.023,0.031,0.031,0.038,0.038,0.031,0.016,0.008,0.016,0.023,0.038,0.046,0.046,0.046,0.038,0.031,0.031,0.031,0.031,0.031,0.038,0.038,0.031,0.031,0.023,0.016,0.016,0.023,0.031,0.038,0.031,0.031,0.023,0.016,0.016,0.001,0.001,0.008,0.008,0.001,0.001,-0.006999999999999999,-0.006999999999999999,-0.006999999999999999,-0.006999999999999999,-0.015,-0.03,-0.037000000000000005,-0.053,-0.075,-0.091,-0.113,-0.136,-0.14300000000000002,-0.151,-0.166,-0.18100000000000002,-0.212,-0.22699999999999998,-0.242,-0.272,-0.295,-0.318,-0.34,-0.355,-0.363,-0.355,-0.325,-0.303,-0.28,-0.257,-0.242,-0.23399999999999999,-0.23399999999999999,-0.21899999999999997,-0.204,-0.18899999999999997,-0.174,-0.159,-0.14300000000000002,-0.136,-0.113,-0.098,-0.075,-0.053,-0.03,-0.015,0.008,0.023,0.031,0.031,0.031,0.038,0.054000000000000006,0.076,0.076,0.069,0.069,0.076,0.084,0.084,0.092,0.092,0.084,0.084,0.084,0.084,0.069,0.054000000000000006,0.069,0.069,0.069,0.054000000000000006,0.046,0.054000000000000006,0.046,0.046,0.046,0.046,0.054000000000000006,0.054000000000000006,0.054000000000000006,0.038,0.023,0.016,0.008,0.016,0.023,0.038,0.046,0.046,0.054000000000000006,0.069,0.076,0.076,0.092,0.099,0.107,0.107,0.114,0.114,0.122,0.122,0.13699999999999998,0.152,0.152,0.14400000000000002,0.14400000000000002,0.14400000000000002,0.13699999999999998,0.13699999999999998,0.152,0.16,0.16699999999999998,0.175,0.182,0.182,0.175,0.175,0.175,0.175,0.175,0.175,0.16699999999999998,0.16699999999999998,0.16,0.152,0.152,0.14400000000000002,0.152,0.152,0.14400000000000002,0.122,0.122,0.114,0.114,0.107,0.099,0.099,0.099,0.092,0.084,0.069,0.069,0.054000000000000006,0.046,0.038,0.031,0.031,0.023,0.023,0.023,0.016,0.016,0.008,0.001,0.001,0.001,0.001,-0.006999999999999999,-0.015,-0.015,-0.03,-0.03,-0.03,-0.03,-0.03,-0.037000000000000005,-0.037000000000000005,-0.045,-0.053,-0.053,-0.045,-0.045,-0.045,-0.045,-0.053,-0.053,-0.053,-0.053,-0.053,-0.053,-0.045,-0.053,-0.068,-0.068,-0.053,-0.053,-0.045,-0.045,-0.053,-0.053,-0.053,-0.053,-0.053,-0.045,-0.037000000000000005,-0.045,-0.045,-0.053,-0.053,-0.053,-0.045,-0.037000000000000005,-0.022000000000000002,-0.015,-0.015,-0.006999999999999999,0.001,-0.015,0.001,0.016,0.031,0.038,0.031,0.023,0.031,0.031,0.031,0.031,0.031,0.023,0.023,0.023,0.031,0.031,0.038,0.038,0.046,0.069,0.069,0.076,0.069,0.046,0.046,0.054000000000000006,0.054000000000000006,0.069,0.076,0.076,0.069,0.046,0.038,0.031,0.038,0.038,0.038,0.038,0.031,0.016,0.008,0.008,0.008,0.016,0.008,0.008,0.001,-0.015,-0.03,-0.053,-0.075,-0.098,-0.113,-0.121,-0.136,-0.14300000000000002,-0.166,-0.18100000000000002,-0.18899999999999997,-0.212,-0.21899999999999997,-0.23399999999999999,-0.257,-0.295,-0.318,-0.34,-0.34,-0.325,-0.303,-0.28,-0.249,-0.22699999999999998,-0.21899999999999997,-0.21899999999999997,-0.212,-0.18100000000000002,-0.174,-0.159,-0.14300000000000002,-0.136,-0.121,-0.106,-0.083,-0.068,-0.037000000000000005,-0.015,0.001,0.001,0.016,0.016,0.031,0.046,0.054000000000000006,0.076,0.076,0.084,0.084,0.092,0.092,0.092,0.076,0.076,0.084,0.092,0.092,0.092,0.092,0.084,0.084,0.092,0.092,0.099,N
1,0.7070000000000001,0.7070000000000001,0.7070000000000001,0.7070000000000001,0.7070000000000001,0.7070000000000001,0.7070000000000001,0.7070000000000001,0.7070000000000001,0.7070000000000001,0.7070000000000001,0.7070000000000001,0.7070000000000001,0.7070000000000001,0.7070000000000001,0.7070000000000001,0.7070000000000001,0.7070000000000001,0.7070000000000001,0.7070000000000001,0.7070000000000001,0.7070000000000001,0.7070000000000001,0.7070000000000001,0.7070000000000001,0.7070000000000001,0.7070000000000001,0.7070000000000001,0.7070000000000001,0.7070000000000001,0.7070000000000001,0.7070000000000001,0.7070000000000001,0.7070000000000001,0.7070000000000001,0.7070000000000001,0.7070000000000001,0.7070000000000001,0.7070000000000001,0.7070000000000001,0.7070000000000001,0.7070000000000001,0.7070000000000001,0.7070000000000001,0.7070000000000001,0.7070000000000001,0.7070000000000001,0.7070000000000001,0.7070000000000001,0.7070000000000001,0.7070000000000001,0.7070000000000001,0.7070000000000001,0.7070000000000001,0.7070000000000001,0.7070000000000001,0.7070000000000001,0.7070000000000001,0.7070000000000001,0.7070000000000001,0.7070000000000001,0.7070000000000001,0.7070000000000001,0.7070000000000001,0.7070000000000001,0.7070000000000001,0.7070000000000001,0.7070000000000001,0.7070000000000001,0.7070000000000001,0.7070000000000001,0.7070000000000001,0.7070000000000001,0.7070000000000001,0.7070000000000001,0.7070000000000001,0.7070000000000001,0.7070000000000001,0.7070000000000001,0.7070000000000001,0.7070000000000001,0.7070000000000001,0.7070000000000001,0.7070000000000001,0.7070000000000001,0.7070000000000001,0.7070000000000001,0.7070000000000001,0.7070000000000001,0.7070000000000001,0.7070000000000001,0.7070000000000001,0.7070000000000001,0.7070000000000001,0.7070000000000001,0.7070000000000001,0.7070000000000001,0.7070000000000001,0.7070000000000001,0.7070000000000001,0.7070000000000001,0.7070000000000001,0.7070000000000001,0.7070000000000001,0.7070000000000001,0.7070000000000001,0.7070000000000001,0.7070000000000001,0.7070000000000001,0.7070000000000001,0.7070000000000001,0.7070000000000001,0.7070000000000001,0.7070000000000001,0.7070000000000001,0.7070000000000001,0.7070000000000001,0.7070000000000001,0.7070000000000001,0.7070000000000001,0.7070000000000001,0.7070000000000001,0.7070000000000001,0.7070000000000001,0.7070000000000001,0.7070000000000001,0.7070000000000001,0.7070000000000001,0.7070000000000001,0.7070000000000001,0.7070000000000001,0.7070000000000001,0.7070000000000001,0.7070000000000001,0.7070000000000001,0.7070000000000001,0.7070000000000001,0.7070000000000001,0.7070000000000001,0.7070000000000001,0.7070000000000001,0.7070000000000001,0.7070000000000001,0.7070000000000001,0.7070000000000001,0.7070000000000001,0.7070000000000001,0.7070000000000001,0.7070000000000001,0.7070000000000001,0.7070000000000001,0.7070000000000001,0.7070000000000001,0.7070000000000001,0.7070000000000001,0.7070000000000001,0.7070000000000001,0.7070000000000001,0.7070000000000001,0.7070000000000001,0.7070000000000001,0.7070000000000001,0.7070000000000001,0.7070000000000001,0.7070000000000001,0.7070000000000001,0.7070000000000001,0.7070000000000001,0.7070000000000001,0.7070000000000001,0.7070000000000001,0.7070000000000001,0.7070000000000001,0.7070000000000001,0.7070000000000001,0.7070000000000001,0.7070000000000001,0.7070000000000001,0.7070000000000001,0.7070000000000001,0.7070000000000001,0.7070000000000001,0.7070000000000001,0.7070000000000001,0.7070000000000001,0.7070000000000001,0.7070000000000001,0.7070000000000001,0.7070000000000001,0.7070000000000001,0.7070000000000001,0.7070000000000001,0.7070000000000001,0.7070000000000001,0.7070000000000001,0.7070000000000001,0.7070000000000001,0.7070000000000001,0.7070000000000001,0.7070000000000001,0.7070000000000001,0.7070000000000001,0.7070000000000001,0.7070000000000001,0.7070000000000001,0.7070000000000001,0.7070000000000001,0.7070000000000001,0.7070000000000001,0.7070000000000001,0.7070000000000001,0.7070000000000001,0.7070000000000001,0.7070000000000001,0.7070000000000001,0.7070000000000001,0.7070000000000001,0.7070000000000001,0.7070000000000001,0.7070000000000001,0.7070000000000001,0.7070000000000001,0.7070000000000001,0.7070000000000001,0.7070000000000001,0.7070000000000001,0.7070000000000001,0.7070000000000001,0.7070000000000001,0.7070000000000001,0.7070000000000001,0.7070000000000001,0.7070000000000001,0.7070000000000001,0.7070000000000001,0.7070000000000001,0.7070000000000001,0.7070000000000001,0.7070000000000001,0.7070000000000001,0.7070000000000001,0.7070000000000001,0.7070000000000001,0.7070000000000001,0.7070000000000001,0.7070000000000001,0.7070000000000001,0.7070000000000001,0.7070000000000001,0.7070000000000001,0.7070000000000001,0.7070000000000001,0.7070000000000001,0.7070000000000001,0.7070000000000001,0.7070000000000001,0.7070000000000001,0.7070000000000001,0.7070000000000001,0.7070000000000001,0.7070000000000001,0.7070000000000001,0.7070000000000001,0.7070000000000001,0.7070000000000001,0.7070000000000001,0.7070000000000001,0.7070000000000001,0.7070000000000001,0.7070000000000001,0.7070000000000001,0.7070000000000001,0.7070000000000001,0.7070000000000001,0.7070000000000001,0.7070000000000001,0.7070000000000001,0.7070000000000001,0.7070000000000001,0.7070000000000001,0.7070000000000001,0.7070000000000001,0.7070000000000001,0.7070000000000001,0.7070000000000001,0.7070000000000001,0.7070000000000001,0.7070000000000001,0.7070000000000001,0.7070000000000001,0.7070000000000001,0.7070000000000001,0.7070000000000001,0.7070000000000001,0.7070000000000001,0.7070000000000001,0.7070000000000001,0.7070000000000001,0.7070000000000001,0.7070000000000001,0.7070000000000001,0.7070000000000001,0.7070000000000001,0.7070000000000001,0.7070000000000001,0.7070000000000001,0.7070000000000001,0.7070000000000001,0.7070000000000001,0.7070000000000001,0.7070000000000001,0.7070000000000001,0.7070000000000001,0.7070000000000001,0.7070000000000001,0.7070000000000001,0.7070000000000001,0.7070000000000001,0.7070000000000001,0.7070000000000001,0.7070000000000001,0.7070000000000001,0.7070000000000001,0.7070000000000001,0.7070000000000001,0.7070000000000001,0.7070000000000001,0.7070000000000001,0.7070000000000001,0.7070000000000001,0.7070000000000001,0.7070000000000001,0.7070000000000001,0.7070000000000001,0.7070000000000001,0.7070000000000001,0.7070000000000001,0.7070000000000001,0.7070000000000001,0.7070000000000001,0.7070000000000001,0.7070000000000001,0.7070000000000001,0.7070000000000001,0.7070000000000001,0.7070000000000001,0.7070000000000001,0.7070000000000001,0.7070000000000001,0.7070000000000001,0.7070000000000001,0.7070000000000001,0.7070000000000001,0.7070000000000001,0.7070000000000001,0.7070000000000001,0.7070000000000001,0.7070000000000001,0.7070000000000001,0.7070000000000001,0.7070000000000001,0.7070000000000001,0.7070000000000001,0.7070000000000001,0.7070000000000001,0.7070000000000001,0.7070000000000001,0.7070000000000001,0.7070000000000001,0.7070000000000001,0.7070000000000001,0.7070000000000001,0.7070000000000001,0.7070000000000001,0.7070000000000001,0.7070000000000001,0.7070000000000001,0.7070000000000001,0.7070000000000001,0.7070000000000001,0.7070000000000001,0.7070000000000001,0.7070000000000001,0.7070000000000001,0.7070000000000001,0.7070000000000001,0.7070000000000001,0.7070000000000001,0.7070000000000001,0.7070000000000001,0.7070000000000001,0.7070000000000001,0.7070000000000001,0.7070000000000001,0.7070000000000001,0.7070000000000001,0.7070000000000001,0.7070000000000001,0.7070000000000001,0.7070000000000001,0.7070000000000001,0.7070000000000001,0.7070000000000001,0.7070000000000001,0.7070000000000001,0.7070000000000001,0.7070000000000001,0.7070000000000001,0.7070000000000001,0.7070000000000001,0.7070000000000001,0.7070000000000001,0.7070000000000001,0.7070000000000001,0.7070000000000001,0.7070000000000001,0.7070000000000001,0.7070000000000001,0.7070000000000001,0.7070000000000001,0.7070000000000001,0.7070000000000001,0.7070000000000001,0.7070000000000001,0.7070000000000001,0.7070000000000001,0.7070000000000001,0.7070000000000001,0.7070000000000001,0.7070000000000001,0.7070000000000001,0.7070000000000001,0.7070000000000001,0.7070000000000001,0.7070000000000001,0.7070000000000001,0.7070000000000001,0.7070000000000001,0.7070000000000001,0.7070000000000001,0.7070000000000001,0.7070000000000001,0.7070000000000001,0.7070000000000001,0.7070000000000001,0.7070000000000001,0.7070000000000001,0.7070000000000001,0.7070000000000001,0.7070000000000001,0.7070000000000001,0.7070000000000001,0.7070000000000001,0.7070000000000001,0.7070000000000001,0.7070000000000001,0.7070000000000001,0.7070000000000001,0.7070000000000001,0.7070000000000001,0.7070000000000001,0.7070000000000001,0.7070000000000001,0.7070000000000001,0.7070000000000001,0.7070000000000001,0.7070000000000001,0.7070000000000001,0.7070000000000001,0.7070000000000001,0.7070000000000001,0.7070000000000001,0.7070000000000001,0.7070000000000001,0.7070000000000001,0.7070000000000001,0.7070000000000001,0.7070000000000001,0.7070000000000001,0.7070000000000001,0.7070000000000001,0.7070000000000001,0.7070000000000001,0.7070000000000001,0.7070000000000001,0.7070000000000001,0.7070000000000001,0.7070000000000001,0.7070000000000001,0.7070000000000001,0.7070000000000001,0.7070000000000001,0.7070000000000001,0.7070000000000001,0.7070000000000001,0.7070000000000001,0.7070000000000001,0.7070000000000001,0.7070000000000001,0.7070000000000001,0.7070000000000001,0.7070000000000001,0.7070000000000001,0.7070000000000001,0.7070000000000001,0.7070000000000001,0.7070000000000001,0.7070000000000001,0.7070000000000001,0.7070000000000001,0.7070000000000001,0.7070000000000001,0.7070000000000001,0.7070000000000001,0.7070000000000001,0.7070000000000001,0.7070000000000001,0.7070000000000001,0.7070000000000001,0.7070000000000001,0.7070000000000001,0.7070000000000001,0.7070000000000001,0.7070000000000001,0.7070000000000001,0.7070000000000001,0.7070000000000001,0.7070000000000001,0.7070000000000001,0.7070000000000001,0.7070000000000001,0.7070000000000001,0.7070000000000001,0.7070000000000001,0.7070000000000001,0.7070000000000001,0.7070000000000001,0.7070000000000001,0.7070000000000001,0.7070000000000001,0.7070000000000001,0.7070000000000001,0.7070000000000001,0.7070000000000001,0.7070000000000001,0.7070000000000001,0.7070000000000001,0.7070000000000001,0.7070000000000001,0.7070000000000001,0.705,0.705,0.6970000000000001,0.682,0.667,0.667,0.659,0.667,0.659,0.659,0.652,0.652,0.645,0.637,0.629,0.629,0.637,0.645,0.637,0.629,0.629,0.622,0.614,0.599,0.599,0.591,0.591,0.584,0.584,0.584,0.584,0.584,0.584,0.5760000000000001,0.569,0.569,0.561,0.5529999999999999,0.546,0.523,0.523,0.531,0.531,0.531,0.523,0.523,0.516,0.516,0.508,0.508,0.501,0.501,0.501,0.501,0.493,0.493,0.493,0.493,0.493,0.485,0.478,0.478,0.46299999999999997,0.46299999999999997,0.46299999999999997,0.46299999999999997,0.46299999999999997,0.46299999999999997,0.455,0.455,0.447,0.447,0.44,0.44,0.425,0.425,0.425,0.43200000000000005,0.425,0.425,0.425,0.425,0.41700000000000004,0.41,0.41,0.41,0.39399999999999996,0.39399999999999996,0.39399999999999996,0.387,0.379,0.379,0.37200000000000005,0.37200000000000005,0.364,0.37200000000000005,0.37200000000000005,0.37200000000000005,0.364,0.35600000000000004,0.349,0.341,0.326,0.341,0.349,0.349,0.326,0.341,0.326,0.341,0.326,0.326,0.319,0.319,0.326,0.326,0.319,0.319,0.311,0.304,0.304,0.29600000000000004,0.29600000000000004,0.29600000000000004,0.29600000000000004,0.29600000000000004,0.28800000000000003,0.28800000000000003,0.281,0.281,0.281,0.281,0.281,0.281,0.273,0.258,0.258,0.273,0.273,0.281,0.273,0.273,0.258,0.258,0.25,0.258,0.258,0.258,0.25,0.25,0.25,0.258,0.258,0.273,0.273,0.281,0.273,0.25,0.22,0.205,0.175,0.16,0.14400000000000002,0.13699999999999998,0.114,0.099,0.069,0.038,0.023,0.008,-0.015,-0.03,-0.068,-0.091,-0.106,-0.136,-0.151,-0.159,-0.159,-0.151,-0.136,-0.113,-0.091,-0.091,-0.091,-0.083,-0.083,-0.068,-0.053,-0.037000000000000005,-0.03,-0.037000000000000005,-0.045,-0.03,0.001,0.023,0.046,0.069,0.076,0.084,0.107,0.114,0.122,0.13699999999999998,0.14400000000000002,0.152,0.16,0.16,0.16,0.152,0.16,0.152,0.16,0.16,0.16699999999999998,0.16699999999999998,0.16699999999999998,0.175,0.16,0.14400000000000002,0.14400000000000002,0.152,0.16,0.16,0.16,0.152,0.152,0.152,0.152,0.14400000000000002,0.152,0.152,0.152,0.152,0.14400000000000002,0.14400000000000002,0.14400000000000002,0.13699999999999998,0.13699999999999998,0.13699999999999998,0.14400000000000002,0.13699999999999998,0.122,0.114,0.114,0.122,0.122,0.122,0.122,0.13699999999999998,0.152,0.14400000000000002,0.14400000000000002,0.14400000000000002,0.14400000000000002,0.13699999999999998,0.122,0.114,0.122,0.122,0.122,0.114,0.107,0.099,0.107,0.107,0.099,0.107,0.114,0.107,0.114,0.107,0.107,0.107,0.107,0.107,0.092,0.054000000000000006,0.046,0.076,0.092,0.084,0.084,0.076,0.069,0.069,0.076,0.069,0.076,0.069,0.046,0.046,0.046,0.046,0.054000000000000006,0.046,0.046,0.046,0.046,0.038,0.038,0.031,0.031,0.031,0.031,0.031,0.023,0.031,0.023,0.016,0.016,0.023,0.023,0.023,0.016,0.023,0.016,0.023,0.023,0.016,0.008,0.016,0.016,0.016,0.008,0.008,0.016,0.008,0.001,0.008,0.008,0.001,0.001,-0.006999999999999999,-0.022000000000000002,-0.022000000000000002,-0.022000000000000002,-0.015,-0.015,-0.006999999999999999,-0.006999999999999999,-0.006999999999999999,-0.015,-0.022000000000000002,-0.022000000000000002,-0.022000000000000002,-0.03,-0.022000000000000002,-0.015,-0.022000000000000002,-0.03,-0.037000000000000005,-0.037000000000000005,-0.037000000000000005,-0.037000000000000005,-0.022000000000000002,-0.015,-0.015,-0.022000000000000002,-0.037000000000000005,-0.045,-0.075,-0.075,-0.053,-0.03,-0.03,-0.03,-0.03,-0.037000000000000005,-0.037000000000000005,-0.037000000000000005,-0.037000000000000005,-0.037000000000000005,-0.03,-0.037000000000000005,-0.045,-0.037000000000000005,-0.037000000000000005,-0.053,-0.045,-0.037000000000000005,-0.03,-0.037000000000000005,-0.037000000000000005,-0.045,-0.045,-0.045,-0.037000000000000005,-0.037000000000000005,-0.037000000000000005,-0.037000000000000005,-0.045,-0.053,-0.053,-0.053,-0.053,-0.045,-0.053,-0.053,-0.053,-0.045,-0.053,-0.053,-0.045,-0.053,-0.053,-0.053,-0.045,-0.053,-0.068,-0.083,-0.075,-0.075,-0.068,-0.053,-0.053,-0.068,-0.068,-0.075,-0.075,-0.083,-0.091,-0.083,-0.075,-0.075,-0.075,-0.075,-0.083,-0.083,-0.083,-0.083,-0.083,-0.083,-0.091,-0.098,-0.091,-0.091,-0.083,-0.083,-0.091,-0.098,-0.113,-0.113,-0.098,-0.083,-0.075,-0.075,-0.083,-0.075,-0.075,N
