0,-0.059000000000000004,-0.08900000000000001,-0.08900000000000001,-0.12,-0.12,-0.12,-0.12,-0.12,-0.12,-0.12,-0.12,-0.12,-0.08900000000000001,-0.12,-0.12,-0.12,-0.12,-0.08900000000000001,-0.08900000000000001,-0.08900000000000001,-0.08900000000000001,-0.08900000000000001,-0.08900000000000001,-0.08900000000000001,-0.08900000000000001,-0.08900000000000001,-0.08900000000000001,-0.08900000000000001,-0.08900000000000001,-0.08900000000000001,-0.08900000000000001,-0.08900000000000001,-0.08900000000000001,-0.08900000000000001,-0.059000000000000004,-0.059000000000000004,-0.059000000000000004,-0.059000000000000004,-0.059000000000000004,-0.08900000000000001,-0.08900000000000001,-0.08900000000000001,-0.12,-0.08900000000000001,-0.12,-0.151,-0.151,-0.151,-0.151,-0.151,-0.151,-0.151,-0.12,-0.12,-0.12,-0.08900000000000001,-0.12,-0.12,-0.12,-0.12,-0.12,-0.12,-0.12,-0.08900000000000001,-0.08900000000000001,-0.08900000000000001,-0.08900000000000001,-0.08900000000000001,-0.08900000000000001,-0.08900000000000001,-0.08900000000000001,-0.12,-0.12,-0.151,-0.151,-0.151,-0.151,-0.151,-0.151,-0.151,-0.151,-0.151,-0.151,-0.151,-0.151,-0.151,-0.151,-0.151,-0.151,-0.151,-0.151,-0.151,-0.151,-0.151,-0.151,-0.151,-0.151,-0.151,-0.151,-0.151,-0.151,-0.151,-0.151,-0.18100000000000002,-0.18100000000000002,-0.18100000000000002,-0.151,-0.151,-0.151,-0.151,-0.151,-0.12,-0.12,-0.12,-0.12,-0.08900000000000001,-0.08900000000000001,-0.059000000000000004,-0.059000000000000004,-0.027999999999999997,-0.027999999999999997,-0.027999999999999997,-0.027999999999999997,-0.027999999999999997,-0.027999999999999997,-0.027999999999999997,-0.027999999999999997,-0.027999999999999997,0.003,0.003,0.003,0.003,0.003,0.003,0.032,0.032,0.032,0.032,0.032,0.032,0.003,0.003,0.003,0.003,0.003,0.003,0.003,0.032,0.032,0.063,0.063,0.063,0.063,0.032,0.032,0.003,0.003,0.003,0.003,0.003,0.003,0.032,0.032,0.063,0.032,0.032,0.032,0.032,0.032,0.003,0.003,0.003,0.003,0.003,0.032,0.032,0.063,0.032,0.032,0.032,0.032,0.032,0.032,0.032,0.032,0.032,0.032,0.032,0.003,0.003,0.003,0.003,0.003,0.003,0.003,0.003,0.003,0.003,0.003,0.003,0.032,0.032,0.032,0.032,0.003,0.003,0.003,0.003,0.003,0.003,0.003,0.003,0.003,0.003,0.003,0.003,0.003,0.003,0.003,0.003,0.003,0.003,0.003,0.003,0.003,0.003,0.003,0.003,0.003,0.003,0.003,-0.027999999999999997,-0.027999999999999997,0.003,0.003,0.003,-0.027999999999999997,-0.027999999999999997,-0.027999999999999997,-0.027999999999999997,-0.027999999999999997,-0.027999999999999997,0.003,0.003,0.003,0.003,0.003,0.003,0.003,0.003,0.003,0.003,0.003,0.032,0.032,0.032,0.032,0.032,0.032,0.032,0.003,0.003,0.003,0.003,0.003,0.032,0.032,0.032,0.032,0.032,0.032,0.032,0.063,0.063,0.063,0.032,0.003,0.003,0.003,0.003,0.003,0.003,0.003,0.003,0.003,0.003,0.003,0.003,0.003,0.003,0.003,0.003,0.003,0.003,0.003,0.003,0.003,0.003,0.003,0.003,-0.027999999999999997,-0.027999999999999997,-0.059000000000000004,-0.059000000000000004,-0.059000000000000004,-0.059000000000000004,-0.059000000000000004,-0.059000000000000004,-0.059000000000000004,-0.059000000000000004,-0.059000000000000004,-0.08900000000000001,-0.08900000000000001,-0.08900000000000001,-0.08900000000000001,-0.08900000000000001,-0.08900000000000001,-0.059000000000000004,-0.059000000000000004,-0.059000000000000004,-0.059000000000000004,-0.059000000000000004,-0.059000000000000004,-0.059000000000000004,-0.059000000000000004,-0.059000000000000004,-0.027999999999999997,-0.027999999999999997,-0.027999999999999997,-0.027999999999999997,-0.027999999999999997,-0.059000000000000004,-0.059000000000000004,-0.059000000000000004,-0.059000000000000004,-0.059000000000000004,-0.059000000000000004,-0.027999999999999997,-0.027999999999999997,-0.027999999999999997,-0.027999999999999997,-0.027999999999999997,-0.027999999999999997,-0.027999999999999997,-0.027999999999999997,-0.027999999999999997,0.003,0.003,0.003,0.003,0.003,0.032,0.032,0.032,0.032,0.032,0.032,0.063,0.063,0.063,0.063,0.09300000000000001,0.124,0.155,0.21600000000000003,0.278,0.33899999999999997,0.46,0.552,0.644,0.767,0.8590000000000001,0.98,1.103,1.165,1.2570000000000001,1.317,1.317,1.317,1.226,1.165,1.042,0.95,0.8590000000000001,0.7979999999999999,0.706,0.614,0.522,0.431,0.33899999999999997,0.247,0.155,0.09300000000000001,0.032,0.003,-0.027999999999999997,-0.059000000000000004,-0.08900000000000001,-0.08900000000000001,-0.08900000000000001,-0.08900000000000001,-0.08900000000000001,-0.08900000000000001,-0.08900000000000001,-0.08900000000000001,-0.08900000000000001,-0.059000000000000004,-0.059000000000000004,-0.059000000000000004,-0.027999999999999997,-0.027999999999999997,-0.027999999999999997,-0.059000000000000004,-0.059000000000000004,-0.059000000000000004,-0.059000000000000004,-0.08900000000000001,-0.08900000000000001,-0.08900000000000001,-0.12,-0.08900000000000001,-0.08900000000000001,-0.08900000000000001,-0.08900000000000001,-0.08900000000000001,-0.08900000000000001,-0.08900000000000001,-0.08900000000000001,-0.08900000000000001,-0.08900000000000001,-0.08900000000000001,-0.08900000000000001,-0.08900000000000001,-0.08900000000000001,-0.08900000000000001,-0.08900000000000001,-0.08900000000000001,-0.08900000000000001,-0.059000000000000004,-0.08900000000000001,-0.08900000000000001,-0.059000000000000004,-0.059000000000000004,-0.08900000000000001,-0.08900000000000001,-0.08900000000000001,-0.08900000000000001,-0.08900000000000001,-0.08900000000000001,-0.08900000000000001,-0.08900000000000001,-0.08900000000000001,-0.12,-0.12,-0.12,-0.12,-0.12,-0.08900000000000001,-0.08900000000000001,-0.08900000000000001,-0.08900000000000001,-0.08900000000000001,-0.08900000000000001,-0.08900000000000001,-0.08900000000000001,-0.08900000000000001,-0.08900000000000001,-0.08900000000000001,-0.08900000000000001,-0.08900000000000001,-0.08900000000000001,-0.12,-0.12,-0.12,-0.12,-0.12,-0.12,-0.12,-0.12,-0.12,-0.12,-0.151,-0.151,-0.18100000000000002,-0.18100000000000002,-0.18100000000000002,-0.212,-0.18100000000000002,-0.18100000000000002,-0.18100000000000002,-0.212,-0.212,-0.212,-0.212,-0.18100000000000002,-0.18100000000000002,-0.18100000000000002,-0.151,-0.151,-0.151,-0.151,-0.12,-0.12,-0.12,-0.12,-0.08900000000000001,-0.08900000000000001,-0.08900000000000001,-0.08900000000000001,-0.12,-0.12,-0.12,-0.151,-0.12,-0.12,-0.12,-0.12,-0.08900000000000001,-0.08900000000000001,-0.059000000000000004,-0.027999999999999997,-0.027999999999999997,-0.027999999999999997,-0.027999999999999997,-0.027999999999999997,0.003,-0.027999999999999997,0.003,0.003,0.003,0.003,0.003,0.003,0.003,0.003,0.003,0.003,0.003,0.003,0.032,0.032,0.032,0.032,0.032,0.032,0.003,0.003,0.003,0.003,0.003,0.003,0.003,0.003,0.003,0.003,0.003,0.032,0.032,0.063,0.063,0.063,0.063,0.063,0.063,0.063,0.063,0.032,0.032,0.032,0.032,0.032,0.032,0.032,0.032,0.003,0.003,0.003,0.003,0.003,0.003,0.003,0.003,0.003,0.003,0.032,0.032,0.003,0.003,0.003,0.003,0.003,0.003,0.003,0.003,0.003,0.003,0.003,0.032,0.032,0.032,0.032,0.032,0.032,0.003,0.003,0.003,0.003,0.003,0.003,0.003,0.003,0.003,0.003,0.003,0.003,0.003,0.003,0.003,0.003,0.003,0.003,0.003,0.003,0.003,0.003,0.003,0.003,0.003,0.003,-0.027999999999999997,-0.027999999999999997,-0.027999999999999997,-0.027999999999999997,-0.027999999999999997,-0.027999999999999997,-0.027999999999999997,-0.027999999999999997,-0.027999999999999997,-0.027999999999999997,-0.027999999999999997,-0.027999999999999997,0.003,0.003,0.003,0.003,0.003,0.003,0.003,0.003,0.003,0.003,0.003,0.003,0.003,0.003,0.003,0.003,0.003,0.003,0.003,0.003,0.003,0.003,0.003,0.003,0.003,0.003,0.003,0.003,0.003,0.003,0.003,0.003,0.003,0.003,0.003,0.003,0.003,0.003,0.003,0.003,0.003,0.003,0.003,0.003,0.003,0.003,0.003,0.003,0.003,0.003,0.003,0.003,0.003,-0.027999999999999997,-0.027999999999999997,-0.027999999999999997,-0.027999999999999997,-0.059000000000000004,-0.059000000000000004,-0.08900000000000001,-0.08900000000000001,-0.08900000000000001,-0.08900000000000001,-0.08900000000000001,-0.08900000000000001,-0.08900000000000001,-0.08900000000000001,-0.08900000000000001,-0.08900000000000001,-0.08900000000000001,-0.08900000000000001,-0.08900000000000001,-0.12,-0.12,-0.08900000000000001,-0.08900000000000001,-0.08900000000000001,-0.059000000000000004,-0.059000000000000004,-0.059000000000000004,-0.059000000000000004,-0.08900000000000001,-0.08900000000000001,-0.08900000000000001,-0.08900000000000001,-0.08900000000000001,-0.08900000000000001,-0.059000000000000004,-0.059000000000000004,-0.059000000000000004,-0.059000000000000004,-0.059000000000000004,-0.08900000000000001,-0.08900000000000001,-0.08900000000000001,-0.08900000000000001,-0.08900000000000001,-0.08900000000000001,-0.059000000000000004,-0.059000000000000004,-0.08900000000000001,-0.059000000000000004,-0.059000000000000004,-0.059000000000000004,-0.059000000000000004,-0.059000000000000004,-0.059000000000000004,-0.059000000000000004,-0.027999999999999997,-0.027999999999999997,-0.059000000000000004,-0.059000000000000004,-0.059000000000000004,-0.027999999999999997,-0.027999999999999997,-0.027999999999999997,0.003,0.003,0.032,0.063,0.09300000000000001,0.155,0.21600000000000003,0.247,0.308,0.4,0.522,0.614,N,,,,,,,,,,,,,,,,,,,,,,,,,,,,,,,,,,,,,,,,,,,,,,,,,,,,,,,,,,,,,,,,,,,,,,,,,,,,,,,,,,,,,,,,,,,,,,,,,,,,,,,,,,,,,,,,,,,,,,,,,,,,,,,,,,,,,,,,,,,,,,,,,,,,,,,,,,,,,,,,,,,,,,,,,,,,,,,,,,,,,,,,,,,,,,,,,,,,,,,,,,,,,,,,,,,,,,,,,,,,,,,,,,,,,,,
1,-0.059000000000000004,-0.08900000000000001,-0.12,-0.12,-0.151,-0.151,-0.151,-0.151,-0.151,-0.151,-0.151,-0.12,-0.08900000000000001,-0.059000000000000004,-0.059000000000000004,-0.059000000000000004,-0.059000000000000004,-0.059000000000000004,-0.059000000000000004,-0.08900000000000001,-0.12,-0.151,-0.151,-0.18100000000000002,-0.18100000000000002,-0.18100000000000002,-0.151,-0.151,-0.151,-0.151,-0.18100000000000002,-0.18100000000000002,-0.18100000000000002,-0.151,-0.151,-0.151,-0.151,-0.151,-0.12,-0.12,-0.12,-0.12,-0.12,-0.08900000000000001,-0.08900000000000001,-0.08900000000000001,-0.08900000000000001,-0.08900000000000001,-0.08900000000000001,-0.08900000000000001,-0.08900000000000001,-0.12,-0.08900000000000001,-0.08900000000000001,-0.059000000000000004,-0.08900000000000001,-0.08900000000000001,-0.08900000000000001,-0.08900000000000001,-0.08900000000000001,-0.12,-0.151,-0.151,-0.151,-0.151,-0.18100000000000002,-0.18100000000000002,-0.18100000000000002,-0.18100000000000002,-0.18100000000000002,-0.18100000000000002,-0.18100000000000002,-0.151,-0.151,-0.12,-0.12,-0.12,-0.12,-0.151,-0.151,-0.151,-0.151,-0.151,-0.12,-0.12,-0.08900000000000001,-0.12,-0.12,-0.12,-0.151,-0.18100000000000002,-0.18100000000000002,-0.212,-0.212,-0.212,-0.212,-0.212,-0.18100000000000002,-0.212,-0.212,-0.18100000000000002,-0.18100000000000002,-0.212,-0.212,-0.212,-0.212,-0.212,-0.18100000000000002,-0.151,-0.12,-0.08900000000000001,-0.08900000000000001,-0.08900000000000001,-0.08900000000000001,-0.12,-0.12,-0.12,-0.12,-0.08900000000000001,-0.08900000000000001,-0.08900000000000001,-0.059000000000000004,-0.059000000000000004,-0.059000000000000004,-0.027999999999999997,-0.027999999999999997,-0.027999999999999997,0.003,0.003,0.003,0.003,0.003,-0.027999999999999997,-0.027999999999999997,-0.027999999999999997,-0.027999999999999997,0.003,0.003,0.003,0.032,0.032,0.032,0.032,0.063,0.063,0.032,0.032,0.032,0.032,0.032,0.032,0.032,0.032,0.003,0.003,0.003,0.003,0.003,0.003,0.003,0.003,0.003,0.003,0.003,0.003,0.003,0.003,0.003,0.003,0.003,0.032,0.032,0.032,0.032,0.063,0.063,0.063,0.063,0.032,0.032,0.003,0.003,0.003,0.003,0.003,0.003,0.003,0.003,0.003,0.003,0.003,0.032,0.032,0.032,0.032,0.003,0.003,0.003,0.003,0.003,0.003,0.003,0.003,0.003,0.003,0.003,0.003,0.003,0.003,0.003,0.003,0.003,0.003,0.003,0.003,0.003,0.003,0.003,0.003,0.003,0.003,0.003,0.003,0.003,0.003,0.003,0.003,0.003,0.003,0.003,0.003,0.003,0.003,0.003,0.003,0.003,0.003,0.003,0.003,0.003,0.003,-0.027999999999999997,-0.027999999999999997,-0.027999999999999997,-0.027999999999999997,-0.059000000000000004,-0.059000000000000004,-0.027999999999999997,0.003,0.003,0.032,0.032,0.032,0.032,0.032,0.003,0.003,0.003,0.003,0.003,0.003,0.003,0.003,0.003,0.003,0.003,0.003,0.003,0.003,0.003,0.003,0.003,0.003,0.032,0.032,0.032,0.032,0.003,0.003,0.003,0.003,0.003,0.003,0.003,0.003,0.003,-0.027999999999999997,-0.027999999999999997,-0.059000000000000004,-0.027999999999999997,-0.027999999999999997,0.003,0.003,0.003,0.003,0.003,0.003,-0.027999999999999997,-0.059000000000000004,-0.059000000000000004,-0.059000000000000004,-0.059000000000000004,-0.059000000000000004,-0.027999999999999997,-0.027999999999999997,-0.027999999999999997,-0.059000000000000004,-0.059000000000000004,-0.08900000000000001,-0.12,-0.12,-0.151,-0.151,-0.151,-0.12,-0.08900000000000001,-0.08900000000000001,-0.08900000000000001,-0.08900000000000001,-0.08900000000000001,-0.08900000000000001,-0.08900000000000001,-0.08900000000000001,-0.08900000000000001,-0.059000000000000004,-0.059000000000000004,-0.059000000000000004,-0.059000000000000004,-0.08900000000000001,-0.08900000000000001,-0.08900000000000001,-0.059000000000000004,-0.059000000000000004,-0.059000000000000004,-0.027999999999999997,-0.027999999999999997,-0.027999999999999997,-0.059000000000000004,-0.027999999999999997,-0.059000000000000004,-0.059000000000000004,-0.059000000000000004,-0.059000000000000004,-0.059000000000000004,-0.08900000000000001,-0.08900000000000001,-0.08900000000000001,-0.08900000000000001,-0.059000000000000004,-0.059000000000000004,-0.059000000000000004,-0.059000000000000004,-0.059000000000000004,-0.059000000000000004,-0.059000000000000004,-0.059000000000000004,-0.027999999999999997,-0.027999999999999997,-0.027999999999999997,0.003,0.003,0.003,0.003,0.032,0.063,0.09300000000000001,0.155,0.21600000000000003,0.278,0.33899999999999997,0.431,0.522,0.614,0.706,0.828,0.919,1.042,1.1340000000000001,1.226,1.287,1.317,1.287,1.226,1.1340000000000001,1.042,0.919,0.828,0.767,0.706,0.644,0.552,0.46,0.37,0.247,0.185,0.124,0.063,0.032,0.003,-0.027999999999999997,-0.059000000000000004,-0.08900000000000001,-0.12,-0.151,-0.151,-0.18100000000000002,-0.18100000000000002,-0.18100000000000002,-0.18100000000000002,-0.151,-0.18100000000000002,-0.18100000000000002,-0.18100000000000002,-0.18100000000000002,-0.18100000000000002,-0.151,-0.151,-0.151,-0.151,-0.151,-0.151,-0.151,-0.151,-0.151,-0.151,-0.151,-0.12,-0.12,-0.12,-0.151,-0.151,-0.18100000000000002,-0.18100000000000002,-0.18100000000000002,-0.18100000000000002,-0.18100000000000002,-0.18100000000000002,-0.151,-0.151,-0.12,-0.12,-0.08900000000000001,-0.08900000000000001,-0.08900000000000001,-0.12,-0.12,-0.12,-0.12,-0.08900000000000001,-0.08900000000000001,-0.08900000000000001,-0.08900000000000001,-0.12,-0.12,-0.12,-0.12,-0.12,-0.12,-0.12,-0.12,-0.12,-0.151,-0.151,-0.151,-0.151,-0.151,-0.151,-0.18100000000000002,-0.18100000000000002,-0.18100000000000002,-0.18100000000000002,-0.18100000000000002,-0.151,-0.151,-0.151,-0.151,-0.151,-0.151,-0.151,-0.151,-0.151,-0.18100000000000002,-0.18100000000000002,-0.18100000000000002,-0.18100000000000002,-0.18100000000000002,-0.212,-0.212,-0.212,-0.18100000000000002,-0.18100000000000002,-0.18100000000000002,-0.18100000000000002,-0.18100000000000002,-0.151,-0.151,-0.151,-0.151,-0.151,-0.151,-0.151,-0.151,-0.18100000000000002,-0.18100000000000002,-0.18100000000000002,-0.18100000000000002,-0.18100000000000002,-0.18100000000000002,-0.18100000000000002,-0.18100000000000002,-0.18100000000000002,-0.151,-0.151,-0.151,-0.151,-0.12,-0.08900000000000001,-0.08900000000000001,-0.08900000000000001,-0.08900000000000001,-0.059000000000000004,-0.059000000000000004,-0.059000000000000004,-0.059000000000000004,-0.027999999999999997,-0.027999999999999997,-0.027999999999999997,-0.027999999999999997,0.003,0.003,0.003,0.032,0.032,0.003,0.003,0.003,0.003,0.003,0.003,0.003,0.032,0.063,0.032,0.003,0.003,0.003,-0.027999999999999997,-0.027999999999999997,-0.027999999999999997,-0.027999999999999997,0.003,0.003,0.003,0.003,0.003,0.003,0.003,0.003,0.003,0.003,0.032,0.032,0.032,0.032,0.032,0.063,0.063,0.063,0.063,0.063,0.063,0.063,0.063,0.063,0.032,0.003,0.003,0.003,0.003,0.003,0.003,0.003,0.003,0.003,0.003,0.003,0.032,0.032,0.032,0.032,0.003,0.003,0.003,0.003,0.003,0.032,0.032,0.063,0.032,0.032,0.032,0.003,0.003,0.003,0.003,0.003,0.003,0.003,0.003,0.003,0.003,0.003,0.003,0.003,0.003,0.003,0.003,-0.027999999999999997,-0.027999999999999997,-0.027999999999999997,-0.059000000000000004,-0.059000000000000004,-0.027999999999999997,-0.027999999999999997,-0.027999999999999997,-0.027999999999999997,0.003,0.003,0.003,0.003,0.003,0.032,0.032,0.032,0.032,0.003,0.003,0.003,0.003,-0.027999999999999997,-0.027999999999999997,-0.027999999999999997,-0.027999999999999997,-0.027999999999999997,-0.027999999999999997,-0.027999999999999997,0.003,0.003,0.003,0.003,-0.027999999999999997,-0.027999999999999997,-0.027999999999999997,0.003,0.003,0.003,0.003,0.003,0.003,0.003,0.003,0.003,0.003,0.003,0.003,0.003,0.003,0.032,0.032,0.063,0.063,0.063,0.063,0.032,0.032,0.003,0.003,0.003,0.003,0.003,0.003,0.003,0.003,0.003,0.003,-0.027999999999999997,-0.027999999999999997,-0.027999999999999997,0.003,0.003,0.003,0.003,0.003,-0.027999999999999997,-0.027999999999999997,-0.059000000000000004,-0.059000000000000004,-0.027999999999999997,-0.027999999999999997,-0.027999999999999997,-0.027999999999999997,0.003,0.003,0.003,0.003,0.003,-0.027999999999999997,-0.027999999999999997,-0.027999999999999997,-0.027999999999999997,-0.059000000000000004,-0.059000000000000004,-0.059000000000000004,-0.059000000000000004,-0.059000000000000004,-0.059000000000000004,-0.059000000000000004,-0.08900000000000001,-0.12,-0.151,-0.151,-0.151,-0.12,-0.12,-0.08900000000000001,-0.08900000000000001,-0.08900000000000001,-0.08900000000000001,-0.08900000000000001,-0.059000000000000004,-0.08900000000000001,-0.08900000000000001,-0.059000000000000004,-0.059000000000000004,-0.059000000000000004,-0.059000000000000004,-0.059000000000000004,-0.08900000000000001,-0.059000000000000004,-0.059000000000000004,-0.059000000000000004,-0.059000000000000004,-0.059000000000000004,-0.059000000000000004,-0.027999999999999997,-0.027999999999999997,-0.059000000000000004,-0.027999999999999997,-0.027999999999999997,-0.027999999999999997,-0.027999999999999997,-0.027999999999999997,0.003,0.003,0.003,0.003,0.003,0.003,0.003,0.003,0.003,0.003,0.003,0.003,0.003,0.063,0.124,0.185,0.247,0.33899999999999997,0.431,0.522,0.644,0.736,0.8590000000000001,0.98,1.073,1.165,1.226,1.317,1.317,1.317,1.2570000000000001,1.195,1.103,1.011,0.919,0.828,0.736,0.675,0.583,0.46,0.33899999999999997,0.247,0.155,0.09300000000000001,0.032,0.003,-0.027999999999999997,-0.059000000000000004,-0.08900000000000001,-0.12,-0.151,-0.151,-0.151,-0.12,-0.08900000000000001,-0.08900000000000001,-0.059000000000000004,-0.059000000000000004,-0.059000000000000004,-0.059000000000000004,-0.08900000000000001,-0.12,-0.12,-0.12,-0.12,-0.151,-0.151,-0.12,-0.151,-0.151,-0.151,-0.18100000000000002,-0.18100000000000002,-0.18100000000000002,-0.18100000000000002,-0.151,-0.151,-0.12,-0.12,-0.12,-0.12,-0.12,-0.12,-0.12,-0.08900000000000001,-0.059000000000000004,-0.059000000000000004,-0.027999999999999997,-0.027999999999999997,-0.059000000000000004,-0.059000000000000004,-0.08900000000000001,-0.12,-0.12,-0.12,-0.12,-0.12,-0.151,-0.151,-0.151,-0.18100000000000002,-0.18100000000000002,-0.18100000000000002,-0.18100000000000002,-0.18100000000000002,-0.151,-0.151,-0.151,-0.151,-0.151,-0.12,-0.12,-0.12,-0.12,-0.12,-0.12,-0.08900000000000001,-0.08900000000000001,-0.08900000000000001,-0.08900000000000001,-0.08900000000000001,-0.12,-0.12,-0.151,-0.151,-0.151,-0.151,-0.18100000000000002,-0.18100000000000002,-0.151,-0.151,-0.151,-0.151,-0.151,-0.151,-0.18100000000000002,-0.18100000000000002,-0.212,-0.212,-0.212,-0.212,-0.18100000000000002,-0.18100000000000002,-0.18100000000000002,-0.18100000000000002,-0.18100000000000002,-0.18100000000000002,-0.212,-0.212,-0.212,-0.212,-0.18100000000000002,-0.18100000000000002,-0.151,-0.151,-0.151,-0.151,-0.151,-0.151,-0.151,-0.12,-0.08900000000000001,-0.08900000000000001,-0.08900000000000001,-0.08900000000000001,-0.08900000000000001,-0.08900000000000001,-0.08900000000000001,-0.08900000000000001,-0.12,-0.12,-0.08900000000000001,-0.08900000000000001,-0.059000000000000004,-0.059000000000000004,-0.059000000000000004,-0.059000000000000004,-0.027999999999999997,0.003,0.003,0.003,0.032,0.063,0.063,0.063,0.063,0.063,0.063,0.063,0.032,0.032,0.003,0.003,0.003,0.003,0.003,0.003,0.003,0.003,0.003,0.003,0.003,0.003,0.003,0.003,0.003,0.003,0.003,0.003,0.003,0.003,0.003,0.003,0.003,0.003,0.032,0.063,0.063,0.063,0.063,0.063,0.063,0.032,0.003,0.003,0.003,0.003,0.003,0.003,0.003,0.032,0.032,0.063,0.063,0.032,0.032,0.003,0.003,0.003,0.003,0.003,0.032,0.063,0.063,0.063,0.032,0.032,0.003,N
2,-0.059000000000000004,-0.08900000000000001,-0.12,-0.151,-0.151,-0.18100000000000002,-0.18100000000000002,-0.18100000000000002,-0.18100000000000002,-0.151,-0.18100000000000002,-0.18100000000000002,-0.18100000000000002,-0.18100000000000002,-0.18100000000000002,-0.151,-0.151,-0.151,-0.151,-0.151,-0.151,-0.151,-0.151,-0.151,-0.151,-0.151,-0.12,-0.12,-0.12,-0.151,-0.151,-0.18100000000000002,-0.18100000000000002,-0.18100000000000002,-0.18100000000000002,-0.18100000000000002,-0.18100000000000002,-0.151,-0.151,-0.12,-0.12,-0.08900000000000001,-0.08900000000000001,-0.08900000000000001,-0.12,-0.12,-0.12,-0.12,-0.08900000000000001,-0.08900000000000001,-0.08900000000000001,-0.08900000000000001,-0.12,-0.12,-0.12,-0.12,-0.12,-0.12,-0.12,-0.12,-0.12,-0.151,-0.151,-0.151,-0.151,-0.151,-0.151,-0.18100000000000002,-0.18100000000000002,-0.18100000000000002,-0.18100000000000002,-0.18100000000000002,-0.151,-0.151,-0.151,-0.151,-0.151,-0.151,-0.151,-0.151,-0.151,-0.18100000000000002,-0.18100000000000002,-0.18100000000000002,-0.18100000000000002,-0.18100000000000002,-0.212,-0.212,-0.212,-0.18100000000000002,-0.18100000000000002,-0.18100000000000002,-0.18100000000000002,-0.18100000000000002,-0.151,-0.151,-0.151,-0.151,-0.151,-0.151,-0.151,-0.151,-0.18100000000000002,-0.18100000000000002,-0.18100000000000002,-0.18100000000000002,-0.18100000000000002,-0.18100000000000002,-0.18100000000000002,-0.18100000000000002,-0.18100000000000002,-0.151,-0.151,-0.151,-0.151,-0.12,-0.08900000000000001,-0.08900000000000001,-0.08900000000000001,-0.08900000000000001,-0.059000000000000004,-0.059000000000000004,-0.059000000000000004,-0.059000000000000004,-0.027999999999999997,-0.027999999999999997,-0.027999999999999997,-0.027999999999999997,0.003,0.003,0.003,0.032,0.032,0.003,0.003,0.003,0.003,0.003,0.003,0.003,0.032,0.063,0.032,0.003,0.003,0.003,-0.027999999999999997,-0.027999999999999997,-0.027999999999999997,-0.027999999999999997,0.003,0.003,0.003,0.003,0.003,0.003,0.003,0.003,0.003,0.003,0.032,0.032,0.032,0.032,0.032,0.063,0.063,0.063,0.063,0.063,0.063,0.063,0.063,0.063,0.032,0.003,0.003,0.003,0.003,0.003,0.003,0.003,0.003,0.003,0.003,0.003,0.032,0.032,0.032,0.032,0.003,0.003,0.003,0.003,0.003,0.032,0.032,0.063,0.032,0.032,0.032,0.003,0.003,0.003,0.003,0.003,0.003,0.003,0.003,0.003,0.003,0.003,0.003,0.003,0.003,0.003,0.003,-0.027999999999999997,-0.027999999999999997,-0.027999999999999997,-0.059000000000000004,-0.059000000000000004,-0.027999999999999997,-0.027999999999999997,-0.027999999999999997,-0.027999999999999997,0.003,0.003,0.003,0.003,0.003,0.032,0.032,0.032,0.032,0.003,0.003,0.003,0.003,-0.027999999999999997,-0.027999999999999997,-0.027999999999999997,-0.027999999999999997,-0.027999999999999997,-0.027999999999999997,-0.027999999999999997,0.003,0.003,0.003,0.003,-0.027999999999999997,-0.027999999999999997,-0.027999999999999997,0.003,0.003,0.003,0.003,0.003,0.003,0.003,0.003,0.003,0.003,0.003,0.003,0.003,0.003,0.032,0.032,0.063,0.063,0.063,0.063,0.032,0.032,0.003,0.003,0.003,0.003,0.003,0.003,0.003,0.003,0.003,0.003,-0.027999999999999997,-0.027999999999999997,-0.027999999999999997,0.003,0.003,0.003,0.003,0.003,-0.027999999999999997,-0.027999999999999997,-0.059000000000000004,-0.059000000000000004,-0.027999999999999997,-0.027999999999999997,-0.027999999999999997,-0.027999999999999997,0.003,0.003,0.003,0.003,0.003,-0.027999999999999997,-0.027999999999999997,-0.027999999999999997,-0.027999999999999997,-0.059000000000000004,-0.059000000000000004,-0.059000000000000004,-0.059000000000000004,-0.059000000000000004,-0.059000000000000004,-0.059000000000000004,-0.08900000000000001,-0.12,-0.151,-0.151,-0.151,-0.12,-0.12,-0.08900000000000001,-0.08900000000000001,-0.08900000000000001,-0.08900000000000001,-0.08900000000000001,-0.059000000000000004,-0.08900000000000001,-0.08900000000000001,-0.059000000000000004,-0.059000000000000004,-0.059000000000000004,-0.059000000000000004,-0.059000000000000004,-0.08900000000000001,-0.059000000000000004,-0.059000000000000004,-0.059000000000000004,-0.059000000000000004,-0.059000000000000004,-0.059000000000000004,-0.027999999999999997,-0.027999999999999997,-0.059000000000000004,-0.027999999999999997,-0.027999999999999997,-0.027999999999999997,-0.027999999999999997,-0.027999999999999997,0.003,0.003,0.003,0.003,0.003,0.003,0.003,0.003,0.003,0.003,0.003,0.003,0.003,0.063,0.124,0.185,0.247,0.33899999999999997,0.431,0.522,0.644,0.736,0.8590000000000001,0.98,1.073,1.165,1.226,1.317,1.317,1.317,1.2570000000000001,1.195,1.103,1.011,0.919,0.828,0.736,0.675,0.583,0.46,0.33899999999999997,0.247,0.155,0.09300000000000001,0.032,0.003,-0.027999999999999997,-0.059000000000000004,-0.08900000000000001,-0.12,-0.151,-0.151,-0.151,-0.12,-0.08900000000000001,-0.08900000000000001,-0.059000000000000004,-0.059000000000000004,-0.059000000000000004,-0.059000000000000004,-0.08900000000000001,-0.12,-0.12,-0.12,-0.12,-0.151,-0.151,-0.12,-0.151,-0.151,-0.151,-0.18100000000000002,-0.18100000000000002,-0.18100000000000002,-0.18100000000000002,-0.151,-0.151,-0.12,-0.12,-0.12,-0.12,-0.12,-0.12,-0.12,-0.08900000000000001,-0.059000000000000004,-0.059000000000000004,-0.027999999999999997,-0.027999999999999997,-0.059000000000000004,-0.059000000000000004,-0.08900000000000001,-0.12,-0.12,-0.12,-0.12,-0.12,-0.151,-0.151,-0.151,-0.18100000000000002,-0.18100000000000002,-0.18100000000000002,-0.18100000000000002,-0.18100000000000002,-0.151,-0.151,-0.151,-0.151,-0.151,-0.12,-0.12,-0.12,-0.12,-0.12,-0.12,-0.08900000000000001,-0.08900000000000001,-0.08900000000000001,-0.08900000000000001,-0.08900000000000001,-0.12,-0.12,-0.151,-0.151,-0.151,-0.151,-0.18100000000000002,-0.18100000000000002,-0.151,-0.151,-0.151,-0.151,-0.151,-0.151,-0.18100000000000002,-0.18100000000000002,-0.212,-0.212,-0.212,-0.212,-0.18100000000000002,-0.18100000000000002,-0.18100000000000002,-0.18100000000000002,-0.18100000000000002,-0.18100000000000002,-0.212,-0.212,-0.212,-0.212,-0.18100000000000002,-0.18100000000000002,-0.151,-0.151,-0.151,-0.151,-0.151,-0.151,-0.151,-0.12,-0.08900000000000001,-0.08900000000000001,-0.08900000000000001,-0.08900000000000001,-0.08900000000000001,-0.08900000000000001,-0.08900000000000001,-0.08900000000000001,-0.12,-0.12,-0.08900000000000001,-0.08900000000000001,-0.059000000000000004,-0.059000000000000004,-0.059000000000000004,-0.059000000000000004,-0.027999999999999997,0.003,0.003,0.003,0.032,0.063,0.063,0.063,0.063,0.063,0.063,0.063,0.032,0.032,0.003,0.003,0.003,0.003,0.003,0.003,0.003,0.003,0.003,0.003,0.003,0.003,0.003,0.003,0.003,0.003,0.003,0.003,0.003,0.003,0.003,0.003,0.003,0.003,0.032,0.063,0.063,0.063,0.063,0.063,0.063,0.032,0.003,0.003,0.003,0.003,0.003,0.003,0.003,0.032,0.032,0.063,0.063,0.032,0.032,0.003,0.003,0.003,0.003,0.003,0.032,0.063,0.063,0.063,0.032,0.032,0.003,0.003,0.003,0.003,0.003,0.003,0.003,0.003,0.003,0.003,0.003,0.003,0.003,0.003,0.003,0.003,0.003,0.003,0.003,0.003,0.003,0.003,0.003,0.003,0.003,0.003,0.003,0.003,0.003,0.003,0.003,0.003,0.003,0.003,0.003,0.003,0.003,-0.027999999999999997,-0.027999999999999997,0.003,0.003,0.003,0.003,0.003,0.003,0.003,0.003,0.003,0.003,0.003,0.003,0.003,0.003,0.003,0.003,0.003,0.032,0.063,0.063,0.063,0.063,0.063,0.032,0.032,0.003,0.003,0.003,0.003,0.003,0.003,0.003,0.003,0.003,0.003,0.003,0.003,0.003,0.003,0.003,0.003,0.003,0.003,0.003,0.003,0.003,0.003,0.003,0.003,0.003,0.003,0.003,0.003,0.003,0.003,0.003,0.003,0.003,0.003,0.003,0.003,0.003,0.003,-0.027999999999999997,-0.027999999999999997,-0.059000000000000004,-0.059000000000000004,-0.08900000000000001,-0.08900000000000001,-0.08900000000000001,-0.12,-0.12,-0.12,-0.12,-0.08900000000000001,-0.059000000000000004,-0.059000000000000004,-0.059000000000000004,-0.027999999999999997,-0.027999999999999997,0.003,0.003,-0.027999999999999997,-0.027999999999999997,-0.027999999999999997,-0.027999999999999997,-0.059000000000000004,-0.059000000000000004,-0.059000000000000004,-0.059000000000000004,-0.08900000000000001,-0.08900000000000001,-0.08900000000000001,-0.059000000000000004,-0.059000000000000004,-0.027999999999999997,-0.027999999999999997,-0.027999999999999997,0.003,0.003,0.003,0.003,0.003,-0.027999999999999997,-0.027999999999999997,-0.027999999999999997,-0.027999999999999997,-0.027999999999999997,-0.027999999999999997,-0.027999999999999997,-0.027999999999999997,-0.027999999999999997,-0.027999999999999997,-0.027999999999999997,-0.027999999999999997,-0.027999999999999997,-0.027999999999999997,-0.027999999999999997,0.003,0.003,0.003,0.003,0.032,0.063,0.09300000000000001,0.124,0.155,0.247,0.308,0.37,0.46,0.583,0.675,0.767,0.888,1.011,1.103,1.226,1.317,1.3780000000000001,1.409,1.3780000000000001,1.317,1.226,1.103,1.011,0.888,0.7979999999999999,0.736,0.644,0.552,0.46,0.37,0.278,0.155,0.09300000000000001,0.003,-0.027999999999999997,-0.059000000000000004,-0.12,-0.12,-0.12,-0.08900000000000001,-0.08900000000000001,-0.059000000000000004,-0.059000000000000004,-0.059000000000000004,-0.08900000000000001,-0.08900000000000001,-0.08900000000000001,-0.12,-0.08900000000000001,-0.08900000000000001,-0.08900000000000001,-0.08900000000000001,-0.08900000000000001,-0.08900000000000001,-0.08900000000000001,-0.08900000000000001,-0.12,-0.12,-0.151,-0.151,-0.151,-0.151,-0.151,-0.151,-0.12,-0.12,-0.08900000000000001,-0.08900000000000001,-0.08900000000000001,-0.059000000000000004,-0.08900000000000001,-0.08900000000000001,-0.12,-0.12,-0.12,-0.12,-0.12,-0.12,-0.12,-0.12,-0.12,-0.12,-0.12,-0.12,-0.151,-0.151,-0.151,-0.151,-0.12,-0.12,-0.12,-0.12,-0.12,-0.12,-0.12,-0.08900000000000001,-0.08900000000000001,-0.08900000000000001,-0.08900000000000001,-0.059000000000000004,-0.08900000000000001,-0.08900000000000001,-0.08900000000000001,-0.12,-0.12,-0.151,-0.151,-0.12,-0.12,-0.12,-0.12,-0.12,-0.12,-0.151,-0.151,-0.18100000000000002,-0.18100000000000002,-0.212,-0.18100000000000002,-0.18100000000000002,-0.18100000000000002,-0.18100000000000002,-0.151,-0.151,-0.151,-0.151,-0.151,-0.151,-0.151,-0.151,-0.151,-0.151,-0.151,-0.151,-0.151,-0.151,-0.151,-0.151,-0.12,-0.12,-0.151,-0.151,-0.151,-0.151,-0.151,-0.151,-0.151,-0.12,-0.12,-0.12,-0.12,-0.12,-0.08900000000000001,-0.08900000000000001,-0.08900000000000001,-0.08900000000000001,-0.059000000000000004,-0.059000000000000004,-0.059000000000000004,-0.059000000000000004,-0.027999999999999997,-0.027999999999999997,-0.027999999999999997,0.003,0.003,0.003,0.003,0.003,0.003,0.032,0.032,0.032,0.032,0.032,0.003,0.003,0.032,0.032,0.032,0.032,0.032,0.032,0.032,0.032,0.032,0.003,0.003,0.003,0.003,0.003,0.003,0.003,0.003,0.032,0.032,0.003,0.003,0.003,0.003,0.003,0.003,0.003,0.003,0.032,0.032,0.063,0.063,0.063,0.063,0.063,0.09300000000000001,0.09300000000000001,0.124,0.124,0.124,0.124,0.09300000000000001,0.063,0.063,0.032,0.003,0.003,0.003,0.003,0.003,0.003,0.003,0.003,0.003,0.003,0.003,0.003,0.003,0.003,0.003,0.003,0.003,0.032,0.032,N
3,-0.08900000000000001,-0.12,-0.151,-0.151,-0.151,-0.12,-0.08900000000000001,-0.08900000000000001,-0.059000000000000004,-0.059000000000000004,-0.059000000000000004,-0.059000000000000004,-0.08900000000000001,-0.12,-0.12,-0.12,-0.12,-0.151,-0.151,-0.12,-0.151,-0.151,-0.151,-0.18100000000000002,-0.18100000000000002,-0.18100000000000002,-0.18100000000000002,-0.151,-0.151,-0.12,-0.12,-0.12,-0.12,-0.12,-0.12,-0.12,-0.08900000000000001,-0.059000000000000004,-0.059000000000000004,-0.027999999999999997,-0.027999999999999997,-0.059000000000000004,-0.059000000000000004,-0.08900000000000001,-0.12,-0.12,-0.12,-0.12,-0.12,-0.151,-0.151,-0.151,-0.18100000000000002,-0.18100000000000002,-0.18100000000000002,-0.18100000000000002,-0.18100000000000002,-0.151,-0.151,-0.151,-0.151,-0.151,-0.12,-0.12,-0.12,-0.12,-0.12,-0.12,-0.08900000000000001,-0.08900000000000001,-0.08900000000000001,-0.08900000000000001,-0.08900000000000001,-0.12,-0.12,-0.151,-0.151,-0.151,-0.151,-0.18100000000000002,-0.18100000000000002,-0.151,-0.151,-0.151,-0.151,-0.151,-0.151,-0.18100000000000002,-0.18100000000000002,-0.212,-0.212,-0.212,-0.212,-0.18100000000000002,-0.18100000000000002,-0.18100000000000002,-0.18100000000000002,-0.18100000000000002,-0.18100000000000002,-0.212,-0.212,-0.212,-0.212,-0.18100000000000002,-0.18100000000000002,-0.151,-0.151,-0.151,-0.151,-0.151,-0.151,-0.151,-0.12,-0.08900000000000001,-0.08900000000000001,-0.08900000000000001,-0.08900000000000001,-0.08900000000000001,-0.08900000000000001,-0.08900000000000001,-0.08900000000000001,-0.12,-0.12,-0.08900000000000001,-0.08900000000000001,-0.059000000000000004,-0.059000000000000004,-0.059000000000000004,-0.059000000000000004,-0.027999999999999997,0.003,0.003,0.003,0.032,0.063,0.063,0.063,0.063,0.063,0.063,0.063,0.032,0.032,0.003,0.003,0.003,0.003,0.003,0.003,0.003,0.003,0.003,0.003,0.003,0.003,0.003,0.003,0.003,0.003,0.003,0.003,0.003,0.003,0.003,0.003,0.003,0.003,0.032,0.063,0.063,0.063,0.063,0.063,0.063,0.032,0.003,0.003,0.003,0.003,0.003,0.003,0.003,0.032,0.032,0.063,0.063,0.032,0.032,0.003,0.003,0.003,0.003,0.003,0.032,0.063,0.063,0.063,0.032,0.032,0.003,0.003,0.003,0.003,0.003,0.003,0.003,0.003,0.003,0.003,0.003,0.003,0.003,0.003,0.003,0.003,0.003,0.003,0.003,0.003,0.003,0.003,0.003,0.003,0.003,0.003,0.003,0.003,0.003,0.003,0.003,0.003,0.003,0.003,0.003,0.003,0.003,-0.027999999999999997,-0.027999999999999997,0.003,0.003,0.003,0.003,0.003,0.003,0.003,0.003,0.003,0.003,0.003,0.003,0.003,0.003,0.003,0.003,0.003,0.032,0.063,0.063,0.063,0.063,0.063,0.032,0.032,0.003,0.003,0.003,0.003,0.003,0.003,0.003,0.003,0.003,0.003,0.003,0.003,0.003,0.003,0.003,0.003,0.003,0.003,0.003,0.003,0.003,0.003,0.003,0.003,0.003,0.003,0.003,0.003,0.003,0.003,0.003,0.003,0.003,0.003,0.003,0.003,0.003,0.003,-0.027999999999999997,-0.027999999999999997,-0.059000000000000004,-0.059000000000000004,-0.08900000000000001,-0.08900000000000001,-0.08900000000000001,-0.12,-0.12,-0.12,-0.12,-0.08900000000000001,-0.059000000000000004,-0.059000000000000004,-0.059000000000000004,-0.027999999999999997,-0.027999999999999997,0.003,0.003,-0.027999999999999997,-0.027999999999999997,-0.027999999999999997,-0.027999999999999997,-0.059000000000000004,-0.059000000000000004,-0.059000000000000004,-0.059000000000000004,-0.08900000000000001,-0.08900000000000001,-0.08900000000000001,-0.059000000000000004,-0.059000000000000004,-0.027999999999999997,-0.027999999999999997,-0.027999999999999997,0.003,0.003,0.003,0.003,0.003,-0.027999999999999997,-0.027999999999999997,-0.027999999999999997,-0.027999999999999997,-0.027999999999999997,-0.027999999999999997,-0.027999999999999997,-0.027999999999999997,-0.027999999999999997,-0.027999999999999997,-0.027999999999999997,-0.027999999999999997,-0.027999999999999997,-0.027999999999999997,-0.027999999999999997,0.003,0.003,0.003,0.003,0.032,0.063,0.09300000000000001,0.124,0.155,0.247,0.308,0.37,0.46,0.583,0.675,0.767,0.888,1.011,1.103,1.226,1.317,1.3780000000000001,1.409,1.3780000000000001,1.317,1.226,1.103,1.011,0.888,0.7979999999999999,0.736,0.644,0.552,0.46,0.37,0.278,0.155,0.09300000000000001,0.003,-0.027999999999999997,-0.059000000000000004,-0.12,-0.12,-0.12,-0.08900000000000001,-0.08900000000000001,-0.059000000000000004,-0.059000000000000004,-0.059000000000000004,-0.08900000000000001,-0.08900000000000001,-0.08900000000000001,-0.12,-0.08900000000000001,-0.08900000000000001,-0.08900000000000001,-0.08900000000000001,-0.08900000000000001,-0.08900000000000001,-0.08900000000000001,-0.08900000000000001,-0.12,-0.12,-0.151,-0.151,-0.151,-0.151,-0.151,-0.151,-0.12,-0.12,-0.08900000000000001,-0.08900000000000001,-0.08900000000000001,-0.059000000000000004,-0.08900000000000001,-0.08900000000000001,-0.12,-0.12,-0.12,-0.12,-0.12,-0.12,-0.12,-0.12,-0.12,-0.12,-0.12,-0.12,-0.151,-0.151,-0.151,-0.151,-0.12,-0.12,-0.12,-0.12,-0.12,-0.12,-0.12,-0.08900000000000001,-0.08900000000000001,-0.08900000000000001,-0.08900000000000001,-0.059000000000000004,-0.08900000000000001,-0.08900000000000001,-0.08900000000000001,-0.12,-0.12,-0.151,-0.151,-0.12,-0.12,-0.12,-0.12,-0.12,-0.12,-0.151,-0.151,-0.18100000000000002,-0.18100000000000002,-0.212,-0.18100000000000002,-0.18100000000000002,-0.18100000000000002,-0.18100000000000002,-0.151,-0.151,-0.151,-0.151,-0.151,-0.151,-0.151,-0.151,-0.151,-0.151,-0.151,-0.151,-0.151,-0.151,-0.151,-0.151,-0.12,-0.12,-0.151,-0.151,-0.151,-0.151,-0.151,-0.151,-0.151,-0.12,-0.12,-0.12,-0.12,-0.12,-0.08900000000000001,-0.08900000000000001,-0.08900000000000001,-0.08900000000000001,-0.059000000000000004,-0.059000000000000004,-0.059000000000000004,-0.059000000000000004,-0.027999999999999997,-0.027999999999999997,-0.027999999999999997,0.003,0.003,0.003,0.003,0.003,0.003,0.032,0.032,0.032,0.032,0.032,0.003,0.003,0.032,0.032,0.032,0.032,0.032,0.032,0.032,0.032,0.032,0.003,0.003,0.003,0.003,0.003,0.003,0.003,0.003,0.032,0.032,0.003,0.003,0.003,0.003,0.003,0.003,0.003,0.003,0.032,0.032,0.063,0.063,0.063,0.063,0.063,0.09300000000000001,0.09300000000000001,0.124,0.124,0.124,0.124,0.09300000000000001,0.063,0.063,0.032,0.003,0.003,0.003,0.003,0.003,0.003,0.003,0.003,0.003,0.003,0.003,0.003,0.003,0.003,0.003,0.003,0.003,0.032,0.032,0.003,0.003,0.003,0.003,0.003,0.003,0.003,0.003,0.003,0.003,0.003,0.003,0.032,0.032,0.063,0.063,0.063,0.032,0.032,0.003,0.003,0.003,0.003,0.003,0.003,0.003,0.003,0.003,0.003,0.003,0.003,0.003,0.003,0.003,0.003,0.003,0.003,0.003,0.003,0.003,-0.027999999999999997,-0.027999999999999997,-0.027999999999999997,-0.027999999999999997,-0.027999999999999997,-0.027999999999999997,-0.027999999999999997,-0.027999999999999997,-0.027999999999999997,0.003,0.003,0.003,0.003,0.003,0.003,0.003,0.003,0.032,0.063,0.063,0.063,0.063,0.063,0.063,0.063,0.063,0.032,0.032,0.032,0.003,0.003,0.003,0.003,0.003,0.003,0.003,0.032,0.003,0.003,0.003,0.003,0.003,0.003,0.003,0.003,0.003,0.003,0.003,0.003,0.003,0.003,0.003,0.003,0.003,0.003,0.003,0.003,0.003,-0.027999999999999997,-0.027999999999999997,-0.027999999999999997,-0.027999999999999997,-0.059000000000000004,-0.059000000000000004,-0.059000000000000004,-0.059000000000000004,-0.027999999999999997,-0.027999999999999997,-0.027999999999999997,-0.027999999999999997,-0.027999999999999997,-0.059000000000000004,-0.059000000000000004,-0.059000000000000004,-0.059000000000000004,-0.059000000000000004,-0.059000000000000004,-0.059000000000000004,-0.059000000000000004,-0.059000000000000004,-0.08900000000000001,-0.08900000000000001,-0.08900000000000001,-0.08900000000000001,-0.08900000000000001,-0.08900000000000001,-0.08900000000000001,-0.08900000000000001,-0.08900000000000001,-0.059000000000000004,-0.059000000000000004,-0.059000000000000004,-0.059000000000000004,-0.059000000000000004,-0.059000000000000004,-0.059000000000000004,-0.027999999999999997,-0.027999999999999997,-0.027999999999999997,-0.027999999999999997,0.003,0.003,0.003,0.003,0.003,0.003,0.003,0.003,-0.027999999999999997,-0.027999999999999997,-0.059000000000000004,-0.059000000000000004,-0.059000000000000004,-0.059000000000000004,-0.027999999999999997,-0.027999999999999997,-0.027999999999999997,0.003,0.003,0.003,0.003,0.032,0.063,0.063,0.09300000000000001,0.155,0.21600000000000003,0.308,0.431,0.522,0.644,0.767,0.8590000000000001,0.98,1.073,1.165,1.226,1.287,1.347,1.347,1.317,1.2570000000000001,1.165,1.073,0.98,0.8590000000000001,0.7979999999999999,0.706,0.614,0.522,0.431,0.33899999999999997,0.21600000000000003,0.155,0.063,0.003,-0.027999999999999997,-0.059000000000000004,-0.08900000000000001,-0.12,-0.12,-0.12,-0.12,-0.12,-0.08900000000000001,-0.12,-0.12,-0.12,-0.12,-0.12,-0.12,-0.12,-0.12,-0.151,-0.151,-0.151,-0.151,-0.151,-0.151,-0.151,-0.151,-0.151,-0.151,-0.12,-0.12,-0.12,-0.08900000000000001,-0.08900000000000001,-0.08900000000000001,-0.08900000000000001,-0.08900000000000001,-0.08900000000000001,-0.08900000000000001,-0.08900000000000001,-0.12,-0.151,-0.151,-0.151,-0.151,-0.151,-0.12,-0.12,-0.12,-0.151,-0.151,-0.151,-0.18100000000000002,-0.18100000000000002,-0.151,-0.151,-0.12,-0.08900000000000001,-0.08900000000000001,-0.08900000000000001,-0.08900000000000001,-0.08900000000000001,-0.08900000000000001,-0.08900000000000001,-0.12,-0.12,-0.12,-0.12,-0.12,-0.08900000000000001,-0.12,-0.12,-0.12,-0.12,-0.151,-0.151,-0.151,-0.151,-0.151,-0.151,-0.151,-0.151,-0.151,-0.151,-0.151,-0.18100000000000002,-0.18100000000000002,-0.18100000000000002,-0.212,-0.212,-0.212,-0.243,-0.243,-0.212,-0.212,-0.18100000000000002,-0.18100000000000002,-0.18100000000000002,-0.212,-0.212,-0.212,-0.243,-0.243,-0.212,-0.212,-0.212,-0.18100000000000002,-0.151,-0.12,-0.12,-0.08900000000000001,-0.059000000000000004,-0.059000000000000004,-0.08900000000000001,-0.08900000000000001,-0.12,-0.12,-0.12,-0.12,-0.12,-0.08900000000000001,-0.08900000000000001,-0.08900000000000001,-0.08900000000000001,-0.08900000000000001,-0.12,-0.08900000000000001,-0.08900000000000001,-0.059000000000000004,-0.059000000000000004,-0.027999999999999997,-0.027999999999999997,-0.027999999999999997,-0.027999999999999997,-0.027999999999999997,-0.027999999999999997,-0.027999999999999997,-0.027999999999999997,0.003,0.003,0.003,0.032,0.032,0.032,0.032,0.032,0.032,0.003,0.003,0.003,0.003,0.003,0.003,0.003,0.003,0.003,0.003,0.003,0.003,0.003,0.003,0.003,0.003,0.003,0.003,0.003,0.032,0.032,0.032,0.032,0.032,0.032,0.003,0.003,0.003,0.003,0.003,0.003,0.032,0.063,0.09300000000000001,0.124,0.155,0.155,0.155,0.124,0.09300000000000001,0.063,0.032,0.003,-0.027999999999999997,-0.059000000000000004,-0.059000000000000004,-0.08900000000000001,-0.08900000000000001,-0.08900000000000001,-0.059000000000000004,-0.059000000000000004,-0.059000000000000004,-0.027999999999999997,-0.027999999999999997,0.003,0.003,0.003,0.003,0.003,N
4,-0.08900000000000001,-0.08900000000000001,-0.059000000000000004,-0.059000000000000004,-0.059000000000000004,-0.08900000000000001,-0.08900000000000001,-0.08900000000000001,-0.12,-0.08900000000000001,-0.08900000000000001,-0.08900000000000001,-0.08900000000000001,-0.08900000000000001,-0.08900000000000001,-0.08900000000000001,-0.08900000000000001,-0.12,-0.12,-0.151,-0.151,-0.151,-0.151,-0.151,-0.151,-0.12,-0.12,-0.08900000000000001,-0.08900000000000001,-0.08900000000000001,-0.059000000000000004,-0.08900000000000001,-0.08900000000000001,-0.12,-0.12,-0.12,-0.12,-0.12,-0.12,-0.12,-0.12,-0.12,-0.12,-0.12,-0.12,-0.151,-0.151,-0.151,-0.151,-0.12,-0.12,-0.12,-0.12,-0.12,-0.12,-0.12,-0.08900000000000001,-0.08900000000000001,-0.08900000000000001,-0.08900000000000001,-0.059000000000000004,-0.08900000000000001,-0.08900000000000001,-0.08900000000000001,-0.12,-0.12,-0.151,-0.151,-0.12,-0.12,-0.12,-0.12,-0.12,-0.12,-0.151,-0.151,-0.18100000000000002,-0.18100000000000002,-0.212,-0.18100000000000002,-0.18100000000000002,-0.18100000000000002,-0.18100000000000002,-0.151,-0.151,-0.151,-0.151,-0.151,-0.151,-0.151,-0.151,-0.151,-0.151,-0.151,-0.151,-0.151,-0.151,-0.151,-0.151,-0.12,-0.12,-0.151,-0.151,-0.151,-0.151,-0.151,-0.151,-0.151,-0.12,-0.12,-0.12,-0.12,-0.12,-0.08900000000000001,-0.08900000000000001,-0.08900000000000001,-0.08900000000000001,-0.059000000000000004,-0.059000000000000004,-0.059000000000000004,-0.059000000000000004,-0.027999999999999997,-0.027999999999999997,-0.027999999999999997,0.003,0.003,0.003,0.003,0.003,0.003,0.032,0.032,0.032,0.032,0.032,0.003,0.003,0.032,0.032,0.032,0.032,0.032,0.032,0.032,0.032,0.032,0.003,0.003,0.003,0.003,0.003,0.003,0.003,0.003,0.032,0.032,0.003,0.003,0.003,0.003,0.003,0.003,0.003,0.003,0.032,0.032,0.063,0.063,0.063,0.063,0.063,0.09300000000000001,0.09300000000000001,0.124,0.124,0.124,0.124,0.09300000000000001,0.063,0.063,0.032,0.003,0.003,0.003,0.003,0.003,0.003,0.003,0.003,0.003,0.003,0.003,0.003,0.003,0.003,0.003,0.003,0.003,0.032,0.032,0.003,0.003,0.003,0.003,0.003,0.003,0.003,0.003,0.003,0.003,0.003,0.003,0.032,0.032,0.063,0.063,0.063,0.032,0.032,0.003,0.003,0.003,0.003,0.003,0.003,0.003,0.003,0.003,0.003,0.003,0.003,0.003,0.003,0.003,0.003,0.003,0.003,0.003,0.003,0.003,-0.027999999999999997,-0.027999999999999997,-0.027999999999999997,-0.027999999999999997,-0.027999999999999997,-0.027999999999999997,-0.027999999999999997,-0.027999999999999997,-0.027999999999999997,0.003,0.003,0.003,0.003,0.003,0.003,0.003,0.003,0.032,0.063,0.063,0.063,0.063,0.063,0.063,0.063,0.063,0.032,0.032,0.032,0.003,0.003,0.003,0.003,0.003,0.003,0.003,0.032,0.003,0.003,0.003,0.003,0.003,0.003,0.003,0.003,0.003,0.003,0.003,0.003,0.003,0.003,0.003,0.003,0.003,0.003,0.003,0.003,0.003,-0.027999999999999997,-0.027999999999999997,-0.027999999999999997,-0.027999999999999997,-0.059000000000000004,-0.059000000000000004,-0.059000000000000004,-0.059000000000000004,-0.027999999999999997,-0.027999999999999997,-0.027999999999999997,-0.027999999999999997,-0.027999999999999997,-0.059000000000000004,-0.059000000000000004,-0.059000000000000004,-0.059000000000000004,-0.059000000000000004,-0.059000000000000004,-0.059000000000000004,-0.059000000000000004,-0.059000000000000004,-0.08900000000000001,-0.08900000000000001,-0.08900000000000001,-0.08900000000000001,-0.08900000000000001,-0.08900000000000001,-0.08900000000000001,-0.08900000000000001,-0.08900000000000001,-0.059000000000000004,-0.059000000000000004,-0.059000000000000004,-0.059000000000000004,-0.059000000000000004,-0.059000000000000004,-0.059000000000000004,-0.027999999999999997,-0.027999999999999997,-0.027999999999999997,-0.027999999999999997,0.003,0.003,0.003,0.003,0.003,0.003,0.003,0.003,-0.027999999999999997,-0.027999999999999997,-0.059000000000000004,-0.059000000000000004,-0.059000000000000004,-0.059000000000000004,-0.027999999999999997,-0.027999999999999997,-0.027999999999999997,0.003,0.003,0.003,0.003,0.032,0.063,0.063,0.09300000000000001,0.155,0.21600000000000003,0.308,0.431,0.522,0.644,0.767,0.8590000000000001,0.98,1.073,1.165,1.226,1.287,1.347,1.347,1.317,1.2570000000000001,1.165,1.073,0.98,0.8590000000000001,0.7979999999999999,0.706,0.614,0.522,0.431,0.33899999999999997,0.21600000000000003,0.155,0.063,0.003,-0.027999999999999997,-0.059000000000000004,-0.08900000000000001,-0.12,-0.12,-0.12,-0.12,-0.12,-0.08900000000000001,-0.12,-0.12,-0.12,-0.12,-0.12,-0.12,-0.12,-0.12,-0.151,-0.151,-0.151,-0.151,-0.151,-0.151,-0.151,-0.151,-0.151,-0.151,-0.12,-0.12,-0.12,-0.08900000000000001,-0.08900000000000001,-0.08900000000000001,-0.08900000000000001,-0.08900000000000001,-0.08900000000000001,-0.08900000000000001,-0.08900000000000001,-0.12,-0.151,-0.151,-0.151,-0.151,-0.151,-0.12,-0.12,-0.12,-0.151,-0.151,-0.151,-0.18100000000000002,-0.18100000000000002,-0.151,-0.151,-0.12,-0.08900000000000001,-0.08900000000000001,-0.08900000000000001,-0.08900000000000001,-0.08900000000000001,-0.08900000000000001,-0.08900000000000001,-0.12,-0.12,-0.12,-0.12,-0.12,-0.08900000000000001,-0.12,-0.12,-0.12,-0.12,-0.151,-0.151,-0.151,-0.151,-0.151,-0.151,-0.151,-0.151,-0.151,-0.151,-0.151,-0.18100000000000002,-0.18100000000000002,-0.18100000000000002,-0.212,-0.212,-0.212,-0.243,-0.243,-0.212,-0.212,-0.18100000000000002,-0.18100000000000002,-0.18100000000000002,-0.212,-0.212,-0.212,-0.243,-0.243,-0.212,-0.212,-0.212,-0.18100000000000002,-0.151,-0.12,-0.12,-0.08900000000000001,-0.059000000000000004,-0.059000000000000004,-0.08900000000000001,-0.08900000000000001,-0.12,-0.12,-0.12,-0.12,-0.12,-0.08900000000000001,-0.08900000000000001,-0.08900000000000001,-0.08900000000000001,-0.08900000000000001,-0.12,-0.08900000000000001,-0.08900000000000001,-0.059000000000000004,-0.059000000000000004,-0.027999999999999997,-0.027999999999999997,-0.027999999999999997,-0.027999999999999997,-0.027999999999999997,-0.027999999999999997,-0.027999999999999997,-0.027999999999999997,0.003,0.003,0.003,0.032,0.032,0.032,0.032,0.032,0.032,0.003,0.003,0.003,0.003,0.003,0.003,0.003,0.003,0.003,0.003,0.003,0.003,0.003,0.003,0.003,0.003,0.003,0.003,0.003,0.032,0.032,0.032,0.032,0.032,0.032,0.003,0.003,0.003,0.003,0.003,0.003,0.032,0.063,0.09300000000000001,0.124,0.155,0.155,0.155,0.124,0.09300000000000001,0.063,0.032,0.003,-0.027999999999999997,-0.059000000000000004,-0.059000000000000004,-0.08900000000000001,-0.08900000000000001,-0.08900000000000001,-0.059000000000000004,-0.059000000000000004,-0.059000000000000004,-0.027999999999999997,-0.027999999999999997,0.003,0.003,0.003,0.003,0.003,0.003,0.003,0.003,0.032,0.032,0.063,0.063,0.063,0.063,0.063,0.063,0.063,0.032,0.003,0.003,-0.027999999999999997,-0.027999999999999997,-0.027999999999999997,-0.027999999999999997,-0.027999999999999997,-0.059000000000000004,-0.059000000000000004,-0.059000000000000004,-0.059000000000000004,-0.059000000000000004,-0.059000000000000004,-0.059000000000000004,-0.059000000000000004,-0.059000000000000004,-0.059000000000000004,-0.059000000000000004,-0.027999999999999997,-0.027999999999999997,-0.027999999999999997,-0.027999999999999997,0.003,0.003,0.003,0.032,0.032,0.032,0.032,0.032,0.032,0.003,0.003,-0.027999999999999997,-0.059000000000000004,-0.027999999999999997,-0.027999999999999997,-0.027999999999999997,-0.027999999999999997,-0.027999999999999997,-0.027999999999999997,-0.027999999999999997,-0.027999999999999997,-0.027999999999999997,0.003,0.003,0.003,0.003,0.032,0.063,0.063,0.063,0.063,0.063,0.063,0.063,0.032,0.032,0.003,0.003,0.003,0.003,0.003,-0.027999999999999997,-0.027999999999999997,0.003,0.003,0.003,0.003,-0.027999999999999997,-0.027999999999999997,-0.027999999999999997,0.003,0.003,0.003,0.003,0.003,0.003,0.003,0.003,0.003,-0.027999999999999997,-0.027999999999999997,-0.027999999999999997,-0.027999999999999997,-0.027999999999999997,-0.059000000000000004,-0.059000000000000004,-0.059000000000000004,-0.059000000000000004,-0.08900000000000001,-0.08900000000000001,-0.08900000000000001,-0.08900000000000001,-0.12,-0.12,-0.08900000000000001,-0.059000000000000004,-0.059000000000000004,-0.059000000000000004,-0.059000000000000004,-0.059000000000000004,-0.059000000000000004,-0.08900000000000001,-0.08900000000000001,-0.08900000000000001,-0.08900000000000001,-0.08900000000000001,-0.08900000000000001,-0.08900000000000001,-0.08900000000000001,-0.08900000000000001,-0.08900000000000001,-0.059000000000000004,-0.059000000000000004,-0.059000000000000004,-0.059000000000000004,-0.059000000000000004,-0.059000000000000004,-0.059000000000000004,-0.059000000000000004,-0.027999999999999997,-0.027999999999999997,-0.059000000000000004,-0.059000000000000004,-0.059000000000000004,-0.059000000000000004,-0.027999999999999997,-0.027999999999999997,-0.027999999999999997,-0.027999999999999997,-0.027999999999999997,-0.027999999999999997,-0.059000000000000004,-0.059000000000000004,-0.059000000000000004,-0.059000000000000004,-0.027999999999999997,-0.027999999999999997,-0.027999999999999997,0.003,0.003,0.003,0.003,0.003,0.003,0.032,0.063,0.124,0.155,0.21600000000000003,0.247,0.308,0.37,0.431,0.491,0.583,0.706,0.828,0.95,1.042,1.165,1.226,1.287,1.317,1.317,1.2570000000000001,1.165,1.073,0.98,0.888,0.7979999999999999,0.736,0.644,0.583,0.491,0.4,0.308,0.21600000000000003,0.155,0.063,0.003,0.003,-0.027999999999999997,-0.059000000000000004,-0.059000000000000004,-0.059000000000000004,-0.08900000000000001,-0.12,-0.12,-0.12,-0.12,-0.12,-0.12,-0.08900000000000001,-0.08900000000000001,-0.08900000000000001,-0.08900000000000001,-0.12,-0.151,-0.151,-0.18100000000000002,-0.18100000000000002,-0.18100000000000002,-0.18100000000000002,-0.151,-0.151,-0.12,-0.12,-0.12,-0.08900000000000001,-0.08900000000000001,-0.12,-0.12,-0.151,-0.151,-0.151,-0.151,-0.151,-0.12,-0.08900000000000001,-0.059000000000000004,-0.059000000000000004,-0.059000000000000004,-0.08900000000000001,-0.08900000000000001,-0.12,-0.151,-0.18100000000000002,-0.18100000000000002,-0.151,-0.151,-0.151,-0.151,-0.151,-0.151,-0.12,-0.12,-0.12,-0.12,-0.151,-0.151,-0.151,-0.151,-0.151,-0.151,-0.151,-0.12,-0.151,-0.151,-0.151,-0.18100000000000002,-0.18100000000000002,-0.18100000000000002,-0.151,-0.151,-0.12,-0.12,-0.12,-0.08900000000000001,-0.08900000000000001,-0.08900000000000001,-0.08900000000000001,-0.08900000000000001,-0.12,-0.151,-0.18100000000000002,-0.18100000000000002,-0.212,-0.18100000000000002,-0.18100000000000002,-0.18100000000000002,-0.18100000000000002,-0.18100000000000002,-0.18100000000000002,-0.18100000000000002,-0.212,-0.212,-0.212,-0.212,-0.212,-0.18100000000000002,-0.151,-0.12,-0.12,-0.12,-0.12,-0.12,-0.12,-0.12,-0.12,-0.12,-0.12,-0.151,-0.151,-0.18100000000000002,-0.151,-0.151,-0.151,-0.12,-0.12,-0.08900000000000001,-0.059000000000000004,-0.059000000000000004,-0.059000000000000004,-0.08900000000000001,-0.08900000000000001,-0.08900000000000001,-0.059000000000000004,-0.059000000000000004,-0.027999999999999997,0.003,0.003,0.003,0.032,0.032,0.003,0.003,0.003,0.003,0.003,0.003,0.003,0.003,0.003,0.003,0.032,0.032,0.032,0.032,0.003,0.003,0.003,0.003,0.003,0.032,0.063,0.063,0.063,0.063,0.063,0.032,0.032,0.003,0.003,0.003,0.003,0.003,0.003,0.003,0.003,0.003,0.003,0.032,0.032,0.032,0.032,0.003,0.003,0.003,0.003,0.003,0.003,0.003,0.003,0.003,0.003,0.003,0.003,0.032,0.032,0.063,0.063,0.063,0.063,0.09300000000000001,0.09300000000000001,0.09300000000000001,0.09300000000000001,0.063,0.032,0.032,0.003,0.003,-0.027999999999999997,-0.059000000000000004,-0.059000000000000004,N
5,-0.12,-0.12,-0.12,-0.12,-0.08900000000000001,-0.12,-0.12,-0.12,-0.12,-0.12,-0.12,-0.12,-0.12,-0.151,-0.151,-0.151,-0.151,-0.151,-0.151,-0.151,-0.151,-0.151,-0.151,-0.12,-0.12,-0.12,-0.08900000000000001,-0.08900000000000001,-0.08900000000000001,-0.08900000000000001,-0.08900000000000001,-0.08900000000000001,-0.08900000000000001,-0.08900000000000001,-0.12,-0.151,-0.151,-0.151,-0.151,-0.151,-0.12,-0.12,-0.12,-0.151,-0.151,-0.151,-0.18100000000000002,-0.18100000000000002,-0.151,-0.151,-0.12,-0.08900000000000001,-0.08900000000000001,-0.08900000000000001,-0.08900000000000001,-0.08900000000000001,-0.08900000000000001,-0.08900000000000001,-0.12,-0.12,-0.12,-0.12,-0.12,-0.08900000000000001,-0.12,-0.12,-0.12,-0.12,-0.151,-0.151,-0.151,-0.151,-0.151,-0.151,-0.151,-0.151,-0.151,-0.151,-0.151,-0.18100000000000002,-0.18100000000000002,-0.18100000000000002,-0.212,-0.212,-0.212,-0.243,-0.243,-0.212,-0.212,-0.18100000000000002,-0.18100000000000002,-0.18100000000000002,-0.212,-0.212,-0.212,-0.243,-0.243,-0.212,-0.212,-0.212,-0.18100000000000002,-0.151,-0.12,-0.12,-0.08900000000000001,-0.059000000000000004,-0.059000000000000004,-0.08900000000000001,-0.08900000000000001,-0.12,-0.12,-0.12,-0.12,-0.12,-0.08900000000000001,-0.08900000000000001,-0.08900000000000001,-0.08900000000000001,-0.08900000000000001,-0.12,-0.08900000000000001,-0.08900000000000001,-0.059000000000000004,-0.059000000000000004,-0.027999999999999997,-0.027999999999999997,-0.027999999999999997,-0.027999999999999997,-0.027999999999999997,-0.027999999999999997,-0.027999999999999997,-0.027999999999999997,0.003,0.003,0.003,0.032,0.032,0.032,0.032,0.032,0.032,0.003,0.003,0.003,0.003,0.003,0.003,0.003,0.003,0.003,0.003,0.003,0.003,0.003,0.003,0.003,0.003,0.003,0.003,0.003,0.032,0.032,0.032,0.032,0.032,0.032,0.003,0.003,0.003,0.003,0.003,0.003,0.032,0.063,0.09300000000000001,0.124,0.155,0.155,0.155,0.124,0.09300000000000001,0.063,0.032,0.003,-0.027999999999999997,-0.059000000000000004,-0.059000000000000004,-0.08900000000000001,-0.08900000000000001,-0.08900000000000001,-0.059000000000000004,-0.059000000000000004,-0.059000000000000004,-0.027999999999999997,-0.027999999999999997,0.003,0.003,0.003,0.003,0.003,0.003,0.003,0.003,0.032,0.032,0.063,0.063,0.063,0.063,0.063,0.063,0.063,0.032,0.003,0.003,-0.027999999999999997,-0.027999999999999997,-0.027999999999999997,-0.027999999999999997,-0.027999999999999997,-0.059000000000000004,-0.059000000000000004,-0.059000000000000004,-0.059000000000000004,-0.059000000000000004,-0.059000000000000004,-0.059000000000000004,-0.059000000000000004,-0.059000000000000004,-0.059000000000000004,-0.059000000000000004,-0.027999999999999997,-0.027999999999999997,-0.027999999999999997,-0.027999999999999997,0.003,0.003,0.003,0.032,0.032,0.032,0.032,0.032,0.032,0.003,0.003,-0.027999999999999997,-0.059000000000000004,-0.027999999999999997,-0.027999999999999997,-0.027999999999999997,-0.027999999999999997,-0.027999999999999997,-0.027999999999999997,-0.027999999999999997,-0.027999999999999997,-0.027999999999999997,0.003,0.003,0.003,0.003,0.032,0.063,0.063,0.063,0.063,0.063,0.063,0.063,0.032,0.032,0.003,0.003,0.003,0.003,0.003,-0.027999999999999997,-0.027999999999999997,0.003,0.003,0.003,0.003,-0.027999999999999997,-0.027999999999999997,-0.027999999999999997,0.003,0.003,0.003,0.003,0.003,0.003,0.003,0.003,0.003,-0.027999999999999997,-0.027999999999999997,-0.027999999999999997,-0.027999999999999997,-0.027999999999999997,-0.059000000000000004,-0.059000000000000004,-0.059000000000000004,-0.059000000000000004,-0.08900000000000001,-0.08900000000000001,-0.08900000000000001,-0.08900000000000001,-0.12,-0.12,-0.08900000000000001,-0.059000000000000004,-0.059000000000000004,-0.059000000000000004,-0.059000000000000004,-0.059000000000000004,-0.059000000000000004,-0.08900000000000001,-0.08900000000000001,-0.08900000000000001,-0.08900000000000001,-0.08900000000000001,-0.08900000000000001,-0.08900000000000001,-0.08900000000000001,-0.08900000000000001,-0.08900000000000001,-0.059000000000000004,-0.059000000000000004,-0.059000000000000004,-0.059000000000000004,-0.059000000000000004,-0.059000000000000004,-0.059000000000000004,-0.059000000000000004,-0.027999999999999997,-0.027999999999999997,-0.059000000000000004,-0.059000000000000004,-0.059000000000000004,-0.059000000000000004,-0.027999999999999997,-0.027999999999999997,-0.027999999999999997,-0.027999999999999997,-0.027999999999999997,-0.027999999999999997,-0.059000000000000004,-0.059000000000000004,-0.059000000000000004,-0.059000000000000004,-0.027999999999999997,-0.027999999999999997,-0.027999999999999997,0.003,0.003,0.003,0.003,0.003,0.003,0.032,0.063,0.124,0.155,0.21600000000000003,0.247,0.308,0.37,0.431,0.491,0.583,0.706,0.828,0.95,1.042,1.165,1.226,1.287,1.317,1.317,1.2570000000000001,1.165,1.073,0.98,0.888,0.7979999999999999,0.736,0.644,0.583,0.491,0.4,0.308,0.21600000000000003,0.155,0.063,0.003,0.003,-0.027999999999999997,-0.059000000000000004,-0.059000000000000004,-0.059000000000000004,-0.08900000000000001,-0.12,-0.12,-0.12,-0.12,-0.12,-0.12,-0.08900000000000001,-0.08900000000000001,-0.08900000000000001,-0.08900000000000001,-0.12,-0.151,-0.151,-0.18100000000000002,-0.18100000000000002,-0.18100000000000002,-0.18100000000000002,-0.151,-0.151,-0.12,-0.12,-0.12,-0.08900000000000001,-0.08900000000000001,-0.12,-0.12,-0.151,-0.151,-0.151,-0.151,-0.151,-0.12,-0.08900000000000001,-0.059000000000000004,-0.059000000000000004,-0.059000000000000004,-0.08900000000000001,-0.08900000000000001,-0.12,-0.151,-0.18100000000000002,-0.18100000000000002,-0.151,-0.151,-0.151,-0.151,-0.151,-0.151,-0.12,-0.12,-0.12,-0.12,-0.151,-0.151,-0.151,-0.151,-0.151,-0.151,-0.151,-0.12,-0.151,-0.151,-0.151,-0.18100000000000002,-0.18100000000000002,-0.18100000000000002,-0.151,-0.151,-0.12,-0.12,-0.12,-0.08900000000000001,-0.08900000000000001,-0.08900000000000001,-0.08900000000000001,-0.08900000000000001,-0.12,-0.151,-0.18100000000000002,-0.18100000000000002,-0.212,-0.18100000000000002,-0.18100000000000002,-0.18100000000000002,-0.18100000000000002,-0.18100000000000002,-0.18100000000000002,-0.18100000000000002,-0.212,-0.212,-0.212,-0.212,-0.212,-0.18100000000000002,-0.151,-0.12,-0.12,-0.12,-0.12,-0.12,-0.12,-0.12,-0.12,-0.12,-0.12,-0.151,-0.151,-0.18100000000000002,-0.151,-0.151,-0.151,-0.12,-0.12,-0.08900000000000001,-0.059000000000000004,-0.059000000000000004,-0.059000000000000004,-0.08900000000000001,-0.08900000000000001,-0.08900000000000001,-0.059000000000000004,-0.059000000000000004,-0.027999999999999997,0.003,0.003,0.003,0.032,0.032,0.003,0.003,0.003,0.003,0.003,0.003,0.003,0.003,0.003,0.003,0.032,0.032,0.032,0.032,0.003,0.003,0.003,0.003,0.003,0.032,0.063,0.063,0.063,0.063,0.063,0.032,0.032,0.003,0.003,0.003,0.003,0.003,0.003,0.003,0.003,0.003,0.003,0.032,0.032,0.032,0.032,0.003,0.003,0.003,0.003,0.003,0.003,0.003,0.003,0.003,0.003,0.003,0.003,0.032,0.032,0.063,0.063,0.063,0.063,0.09300000000000001,0.09300000000000001,0.09300000000000001,0.09300000000000001,0.063,0.032,0.032,0.003,0.003,-0.027999999999999997,-0.059000000000000004,-0.059000000000000004,-0.059000000000000004,-0.059000000000000004,-0.059000000000000004,-0.059000000000000004,-0.027999999999999997,-0.027999999999999997,0.003,0.003,0.003,0.003,0.003,0.003,0.003,0.003,0.003,0.003,0.003,0.003,0.003,0.003,0.003,0.003,0.003,0.003,0.003,0.032,0.063,0.09300000000000001,0.124,0.09300000000000001,0.09300000000000001,0.063,0.003,0.003,-0.059000000000000004,-0.059000000000000004,-0.08900000000000001,-0.08900000000000001,-0.08900000000000001,-0.08900000000000001,-0.08900000000000001,-0.059000000000000004,-0.059000000000000004,-0.059000000000000004,-0.027999999999999997,0.003,0.003,0.003,0.003,0.003,0.003,0.003,0.003,0.003,0.032,0.003,0.032,0.032,0.063,0.063,0.063,0.032,0.032,0.003,0.003,0.003,0.003,0.003,0.003,0.003,0.003,0.003,0.003,0.003,0.003,0.003,0.003,0.003,0.003,0.003,0.003,0.003,0.003,0.003,0.003,0.032,0.032,0.032,0.003,0.003,0.003,0.003,-0.027999999999999997,-0.027999999999999997,-0.027999999999999997,-0.027999999999999997,-0.059000000000000004,-0.059000000000000004,-0.059000000000000004,-0.08900000000000001,-0.059000000000000004,-0.08900000000000001,-0.059000000000000004,-0.059000000000000004,-0.059000000000000004,-0.059000000000000004,-0.059000000000000004,-0.059000000000000004,-0.059000000000000004,-0.059000000000000004,-0.059000000000000004,-0.059000000000000004,-0.059000000000000004,-0.059000000000000004,-0.08900000000000001,-0.08900000000000001,-0.08900000000000001,-0.08900000000000001,-0.08900000000000001,-0.08900000000000001,-0.059000000000000004,-0.059000000000000004,-0.059000000000000004,-0.027999999999999997,-0.027999999999999997,-0.027999999999999997,-0.059000000000000004,-0.059000000000000004,-0.059000000000000004,-0.08900000000000001,-0.08900000000000001,-0.08900000000000001,-0.08900000000000001,-0.08900000000000001,-0.059000000000000004,-0.059000000000000004,-0.027999999999999997,0.003,0.003,0.003,-0.027999999999999997,-0.027999999999999997,-0.027999999999999997,-0.059000000000000004,-0.059000000000000004,-0.08900000000000001,-0.08900000000000001,-0.08900000000000001,-0.08900000000000001,-0.08900000000000001,-0.08900000000000001,-0.059000000000000004,-0.027999999999999997,0.003,0.032,0.063,0.09300000000000001,0.09300000000000001,0.124,0.155,0.185,0.21600000000000003,0.247,0.308,0.33899999999999997,0.431,0.491,0.583,0.675,0.767,0.888,0.98,1.073,1.1340000000000001,1.195,1.226,1.2570000000000001,1.226,1.165,1.073,1.011,0.95,0.8590000000000001,0.7979999999999999,0.736,0.644,0.522,0.431,0.33899999999999997,0.278,0.185,0.09300000000000001,0.003,0.003,-0.059000000000000004,-0.08900000000000001,-0.08900000000000001,-0.12,-0.12,-0.12,-0.151,-0.151,-0.18100000000000002,-0.18100000000000002,-0.18100000000000002,-0.212,-0.18100000000000002,-0.18100000000000002,-0.151,-0.151,-0.151,-0.151,-0.12,-0.12,-0.08900000000000001,-0.08900000000000001,-0.059000000000000004,-0.059000000000000004,-0.059000000000000004,-0.08900000000000001,-0.08900000000000001,-0.08900000000000001,-0.08900000000000001,-0.12,-0.12,-0.12,-0.12,-0.151,-0.151,-0.151,-0.151,-0.151,-0.151,-0.151,-0.151,-0.151,-0.151,-0.151,-0.151,-0.151,-0.18100000000000002,-0.18100000000000002,-0.151,-0.151,-0.151,-0.151,-0.151,-0.151,-0.151,-0.151,-0.151,-0.151,-0.151,-0.151,-0.151,-0.151,-0.151,-0.151,-0.151,-0.12,-0.12,-0.08900000000000001,-0.08900000000000001,-0.08900000000000001,-0.08900000000000001,-0.059000000000000004,-0.059000000000000004,-0.059000000000000004,-0.027999999999999997,-0.027999999999999997,-0.027999999999999997,-0.027999999999999997,-0.059000000000000004,-0.059000000000000004,-0.08900000000000001,-0.12,-0.151,-0.151,-0.18100000000000002,-0.212,-0.243,-0.243,-0.243,-0.243,-0.243,-0.243,-0.243,-0.243,-0.243,-0.243,-0.243,-0.243,-0.243,-0.212,-0.18100000000000002,-0.151,-0.12,-0.12,-0.08900000000000001,-0.08900000000000001,-0.08900000000000001,-0.12,-0.151,-0.18100000000000002,-0.18100000000000002,-0.18100000000000002,-0.18100000000000002,-0.151,-0.151,-0.151,-0.12,-0.12,-0.12,-0.12,-0.12,-0.12,-0.12,-0.08900000000000001,-0.059000000000000004,-0.059000000000000004,-0.027999999999999997,-0.027999999999999997,-0.027999999999999997,0.003,0.003,0.003,0.003,0.003,0.003,0.003,0.032,0.032,0.032,0.032,0.063,0.032,0.032,0.032,0.032,0.032,0.032,0.032,0.032,0.032,0.032,0.003,0.003,0.003,0.003,0.003,0.003,0.003,0.003,0.003,0.003,0.003,0.003,0.003,0.032,0.032,0.032,0.063,0.063,0.032,0.032,0.032,0.032,0.032,0.032,0.032,0.032,0.032,0.032,0.032,0.032,0.032,0.032,0.032,0.032,0.032,0.032,0.032,0.003,0.003,0.003,0.003,0.003,0.003,0.003,-0.027999999999999997,-0.027999999999999997,0.003,0.003,0.003,0.032,0.063,0.063,0.063,0.063,0.063,N
6,-0.059000000000000004,-0.08900000000000001,-0.12,-0.12,-0.12,-0.12,-0.12,-0.12,-0.08900000000000001,-0.08900000000000001,-0.08900000000000001,-0.08900000000000001,-0.12,-0.151,-0.151,-0.18100000000000002,-0.18100000000000002,-0.18100000000000002,-0.18100000000000002,-0.151,-0.151,-0.12,-0.12,-0.12,-0.08900000000000001,-0.08900000000000001,-0.12,-0.12,-0.151,-0.151,-0.151,-0.151,-0.151,-0.12,-0.08900000000000001,-0.059000000000000004,-0.059000000000000004,-0.059000000000000004,-0.08900000000000001,-0.08900000000000001,-0.12,-0.151,-0.18100000000000002,-0.18100000000000002,-0.151,-0.151,-0.151,-0.151,-0.151,-0.151,-0.12,-0.12,-0.12,-0.12,-0.151,-0.151,-0.151,-0.151,-0.151,-0.151,-0.151,-0.12,-0.151,-0.151,-0.151,-0.18100000000000002,-0.18100000000000002,-0.18100000000000002,-0.151,-0.151,-0.12,-0.12,-0.12,-0.08900000000000001,-0.08900000000000001,-0.08900000000000001,-0.08900000000000001,-0.08900000000000001,-0.12,-0.151,-0.18100000000000002,-0.18100000000000002,-0.212,-0.18100000000000002,-0.18100000000000002,-0.18100000000000002,-0.18100000000000002,-0.18100000000000002,-0.18100000000000002,-0.18100000000000002,-0.212,-0.212,-0.212,-0.212,-0.212,-0.18100000000000002,-0.151,-0.12,-0.12,-0.12,-0.12,-0.12,-0.12,-0.12,-0.12,-0.12,-0.12,-0.151,-0.151,-0.18100000000000002,-0.151,-0.151,-0.151,-0.12,-0.12,-0.08900000000000001,-0.059000000000000004,-0.059000000000000004,-0.059000000000000004,-0.08900000000000001,-0.08900000000000001,-0.08900000000000001,-0.059000000000000004,-0.059000000000000004,-0.027999999999999997,0.003,0.003,0.003,0.032,0.032,0.003,0.003,0.003,0.003,0.003,0.003,0.003,0.003,0.003,0.003,0.032,0.032,0.032,0.032,0.003,0.003,0.003,0.003,0.003,0.032,0.063,0.063,0.063,0.063,0.063,0.032,0.032,0.003,0.003,0.003,0.003,0.003,0.003,0.003,0.003,0.003,0.003,0.032,0.032,0.032,0.032,0.003,0.003,0.003,0.003,0.003,0.003,0.003,0.003,0.003,0.003,0.003,0.003,0.032,0.032,0.063,0.063,0.063,0.063,0.09300000000000001,0.09300000000000001,0.09300000000000001,0.09300000000000001,0.063,0.032,0.032,0.003,0.003,-0.027999999999999997,-0.059000000000000004,-0.059000000000000004,-0.059000000000000004,-0.059000000000000004,-0.059000000000000004,-0.059000000000000004,-0.027999999999999997,-0.027999999999999997,0.003,0.003,0.003,0.003,0.003,0.003,0.003,0.003,0.003,0.003,0.003,0.003,0.003,0.003,0.003,0.003,0.003,0.003,0.003,0.032,0.063,0.09300000000000001,0.124,0.09300000000000001,0.09300000000000001,0.063,0.003,0.003,-0.059000000000000004,-0.059000000000000004,-0.08900000000000001,-0.08900000000000001,-0.08900000000000001,-0.08900000000000001,-0.08900000000000001,-0.059000000000000004,-0.059000000000000004,-0.059000000000000004,-0.027999999999999997,0.003,0.003,0.003,0.003,0.003,0.003,0.003,0.003,0.003,0.032,0.003,0.032,0.032,0.063,0.063,0.063,0.032,0.032,0.003,0.003,0.003,0.003,0.003,0.003,0.003,0.003,0.003,0.003,0.003,0.003,0.003,0.003,0.003,0.003,0.003,0.003,0.003,0.003,0.003,0.003,0.032,0.032,0.032,0.003,0.003,0.003,0.003,-0.027999999999999997,-0.027999999999999997,-0.027999999999999997,-0.027999999999999997,-0.059000000000000004,-0.059000000000000004,-0.059000000000000004,-0.08900000000000001,-0.059000000000000004,-0.08900000000000001,-0.059000000000000004,-0.059000000000000004,-0.059000000000000004,-0.059000000000000004,-0.059000000000000004,-0.059000000000000004,-0.059000000000000004,-0.059000000000000004,-0.059000000000000004,-0.059000000000000004,-0.059000000000000004,-0.059000000000000004,-0.08900000000000001,-0.08900000000000001,-0.08900000000000001,-0.08900000000000001,-0.08900000000000001,-0.08900000000000001,-0.059000000000000004,-0.059000000000000004,-0.059000000000000004,-0.027999999999999997,-0.027999999999999997,-0.027999999999999997,-0.059000000000000004,-0.059000000000000004,-0.059000000000000004,-0.08900000000000001,-0.08900000000000001,-0.08900000000000001,-0.08900000000000001,-0.08900000000000001,-0.059000000000000004,-0.059000000000000004,-0.027999999999999997,0.003,0.003,0.003,-0.027999999999999997,-0.027999999999999997,-0.027999999999999997,-0.059000000000000004,-0.059000000000000004,-0.08900000000000001,-0.08900000000000001,-0.08900000000000001,-0.08900000000000001,-0.08900000000000001,-0.08900000000000001,-0.059000000000000004,-0.027999999999999997,0.003,0.032,0.063,0.09300000000000001,0.09300000000000001,0.124,0.155,0.185,0.21600000000000003,0.247,0.308,0.33899999999999997,0.431,0.491,0.583,0.675,0.767,0.888,0.98,1.073,1.1340000000000001,1.195,1.226,1.2570000000000001,1.226,1.165,1.073,1.011,0.95,0.8590000000000001,0.7979999999999999,0.736,0.644,0.522,0.431,0.33899999999999997,0.278,0.185,0.09300000000000001,0.003,0.003,-0.059000000000000004,-0.08900000000000001,-0.08900000000000001,-0.12,-0.12,-0.12,-0.151,-0.151,-0.18100000000000002,-0.18100000000000002,-0.18100000000000002,-0.212,-0.18100000000000002,-0.18100000000000002,-0.151,-0.151,-0.151,-0.151,-0.12,-0.12,-0.08900000000000001,-0.08900000000000001,-0.059000000000000004,-0.059000000000000004,-0.059000000000000004,-0.08900000000000001,-0.08900000000000001,-0.08900000000000001,-0.08900000000000001,-0.12,-0.12,-0.12,-0.12,-0.151,-0.151,-0.151,-0.151,-0.151,-0.151,-0.151,-0.151,-0.151,-0.151,-0.151,-0.151,-0.151,-0.18100000000000002,-0.18100000000000002,-0.151,-0.151,-0.151,-0.151,-0.151,-0.151,-0.151,-0.151,-0.151,-0.151,-0.151,-0.151,-0.151,-0.151,-0.151,-0.151,-0.151,-0.12,-0.12,-0.08900000000000001,-0.08900000000000001,-0.08900000000000001,-0.08900000000000001,-0.059000000000000004,-0.059000000000000004,-0.059000000000000004,-0.027999999999999997,-0.027999999999999997,-0.027999999999999997,-0.027999999999999997,-0.059000000000000004,-0.059000000000000004,-0.08900000000000001,-0.12,-0.151,-0.151,-0.18100000000000002,-0.212,-0.243,-0.243,-0.243,-0.243,-0.243,-0.243,-0.243,-0.243,-0.243,-0.243,-0.243,-0.243,-0.243,-0.212,-0.18100000000000002,-0.151,-0.12,-0.12,-0.08900000000000001,-0.08900000000000001,-0.08900000000000001,-0.12,-0.151,-0.18100000000000002,-0.18100000000000002,-0.18100000000000002,-0.18100000000000002,-0.151,-0.151,-0.151,-0.12,-0.12,-0.12,-0.12,-0.12,-0.12,-0.12,-0.08900000000000001,-0.059000000000000004,-0.059000000000000004,-0.027999999999999997,-0.027999999999999997,-0.027999999999999997,0.003,0.003,0.003,0.003,0.003,0.003,0.003,0.032,0.032,0.032,0.032,0.063,0.032,0.032,0.032,0.032,0.032,0.032,0.032,0.032,0.032,0.032,0.003,0.003,0.003,0.003,0.003,0.003,0.003,0.003,0.003,0.003,0.003,0.003,0.003,0.032,0.032,0.032,0.063,0.063,0.032,0.032,0.032,0.032,0.032,0.032,0.032,0.032,0.032,0.032,0.032,0.032,0.032,0.032,0.032,0.032,0.032,0.032,0.032,0.003,0.003,0.003,0.003,0.003,0.003,0.003,-0.027999999999999997,-0.027999999999999997,0.003,0.003,0.003,0.032,0.063,0.063,0.063,0.063,0.063,0.032,0.032,0.032,0.003,0.003,0.003,0.003,0.003,0.003,0.003,0.003,0.003,0.003,0.003,0.003,0.003,0.003,0.003,0.003,0.003,0.003,0.003,0.003,0.003,0.003,0.003,0.003,0.003,0.003,0.003,0.003,0.003,0.003,0.003,-0.027999999999999997,0.003,0.003,0.003,0.003,0.003,0.003,0.003,0.032,0.032,0.032,0.003,0.003,0.003,0.003,0.003,-0.027999999999999997,0.003,0.003,0.003,0.003,0.003,0.003,0.003,0.003,0.003,0.003,0.003,0.003,0.003,0.003,0.003,0.003,0.003,0.003,0.003,0.003,0.032,0.032,0.063,0.063,0.063,0.063,0.063,0.063,0.032,0.032,0.032,0.003,0.003,0.003,0.032,0.032,0.063,0.063,0.032,0.003,0.003,-0.027999999999999997,-0.059000000000000004,-0.059000000000000004,-0.08900000000000001,-0.08900000000000001,-0.08900000000000001,-0.12,-0.12,-0.12,-0.12,-0.12,-0.08900000000000001,-0.08900000000000001,-0.059000000000000004,-0.059000000000000004,-0.059000000000000004,-0.059000000000000004,-0.059000000000000004,-0.059000000000000004,-0.059000000000000004,-0.059000000000000004,-0.027999999999999997,-0.027999999999999997,0.003,0.003,0.003,0.003,-0.027999999999999997,-0.027999999999999997,-0.059000000000000004,-0.059000000000000004,-0.08900000000000001,-0.08900000000000001,-0.059000000000000004,-0.059000000000000004,-0.059000000000000004,-0.027999999999999997,-0.027999999999999997,-0.059000000000000004,-0.059000000000000004,-0.059000000000000004,-0.08900000000000001,-0.059000000000000004,-0.059000000000000004,-0.059000000000000004,-0.059000000000000004,-0.027999999999999997,0.003,0.003,0.003,0.003,0.003,-0.027999999999999997,-0.027999999999999997,-0.027999999999999997,-0.027999999999999997,0.003,0.003,0.003,0.003,0.003,0.003,0.003,0.003,0.003,0.003,0.003,0.032,0.09300000000000001,0.185,0.278,0.33899999999999997,0.431,0.522,0.614,0.736,0.828,0.919,1.011,1.1340000000000001,1.226,1.287,1.347,1.347,1.287,1.226,1.103,0.98,0.888,0.828,0.736,0.675,0.583,0.491,0.4,0.308,0.21600000000000003,0.155,0.09300000000000001,0.003,-0.027999999999999997,-0.059000000000000004,-0.08900000000000001,-0.12,-0.151,-0.151,-0.18100000000000002,-0.151,-0.151,-0.12,-0.08900000000000001,-0.08900000000000001,-0.08900000000000001,-0.08900000000000001,-0.08900000000000001,-0.08900000000000001,-0.12,-0.12,-0.151,-0.151,-0.151,-0.151,-0.151,-0.151,-0.151,-0.151,-0.151,-0.151,-0.12,-0.12,-0.08900000000000001,-0.08900000000000001,-0.08900000000000001,-0.08900000000000001,-0.08900000000000001,-0.08900000000000001,-0.12,-0.12,-0.08900000000000001,-0.08900000000000001,-0.08900000000000001,-0.08900000000000001,-0.08900000000000001,-0.08900000000000001,-0.08900000000000001,-0.12,-0.151,-0.151,-0.151,-0.151,-0.151,-0.151,-0.12,-0.12,-0.12,-0.12,-0.12,-0.12,-0.12,-0.151,-0.151,-0.151,-0.151,-0.12,-0.08900000000000001,-0.08900000000000001,-0.059000000000000004,-0.059000000000000004,-0.059000000000000004,-0.059000000000000004,-0.08900000000000001,-0.12,-0.12,-0.12,-0.151,-0.151,-0.151,-0.151,-0.151,-0.151,-0.151,-0.151,-0.151,-0.151,-0.18100000000000002,-0.18100000000000002,-0.212,-0.212,-0.212,-0.212,-0.243,-0.243,-0.243,-0.212,-0.212,-0.18100000000000002,-0.151,-0.151,-0.151,-0.12,-0.12,-0.151,-0.151,-0.151,-0.151,-0.151,-0.12,-0.151,-0.12,-0.151,-0.151,-0.151,-0.151,-0.151,-0.151,-0.151,-0.12,-0.08900000000000001,-0.059000000000000004,-0.059000000000000004,-0.059000000000000004,-0.027999999999999997,-0.027999999999999997,0.003,0.003,0.003,0.003,0.003,0.003,0.003,0.003,0.003,0.003,0.003,0.003,0.003,0.003,0.032,0.032,0.032,0.032,0.032,0.032,0.032,0.003,0.003,0.032,0.032,0.032,0.032,0.032,0.032,0.032,0.003,0.032,0.032,0.032,0.032,0.032,0.063,0.032,0.032,0.032,0.032,0.032,0.032,0.032,0.032,0.032,0.063,0.063,0.063,0.063,0.063,0.063,0.032,0.032,0.003,0.003,0.003,0.003,0.003,0.003,0.003,0.032,0.032,0.063,0.063,0.063,0.063,0.063,0.063,0.032,0.032,0.003,0.003,0.003,0.003,0.003,0.003,0.003,0.003,0.003,0.032,0.032,0.063,0.032,N
7,-0.12,-0.12,-0.151,-0.151,-0.18100000000000002,-0.18100000000000002,-0.18100000000000002,-0.212,-0.18100000000000002,-0.18100000000000002,-0.151,-0.151,-0.151,-0.151,-0.12,-0.12,-0.08900000000000001,-0.08900000000000001,-0.059000000000000004,-0.059000000000000004,-0.059000000000000004,-0.08900000000000001,-0.08900000000000001,-0.08900000000000001,-0.08900000000000001,-0.12,-0.12,-0.12,-0.12,-0.151,-0.151,-0.151,-0.151,-0.151,-0.151,-0.151,-0.151,-0.151,-0.151,-0.151,-0.151,-0.151,-0.18100000000000002,-0.18100000000000002,-0.151,-0.151,-0.151,-0.151,-0.151,-0.151,-0.151,-0.151,-0.151,-0.151,-0.151,-0.151,-0.151,-0.151,-0.151,-0.151,-0.151,-0.12,-0.12,-0.08900000000000001,-0.08900000000000001,-0.08900000000000001,-0.08900000000000001,-0.059000000000000004,-0.059000000000000004,-0.059000000000000004,-0.027999999999999997,-0.027999999999999997,-0.027999999999999997,-0.027999999999999997,-0.059000000000000004,-0.059000000000000004,-0.08900000000000001,-0.12,-0.151,-0.151,-0.18100000000000002,-0.212,-0.243,-0.243,-0.243,-0.243,-0.243,-0.243,-0.243,-0.243,-0.243,-0.243,-0.243,-0.243,-0.243,-0.212,-0.18100000000000002,-0.151,-0.12,-0.12,-0.08900000000000001,-0.08900000000000001,-0.08900000000000001,-0.12,-0.151,-0.18100000000000002,-0.18100000000000002,-0.18100000000000002,-0.18100000000000002,-0.151,-0.151,-0.151,-0.12,-0.12,-0.12,-0.12,-0.12,-0.12,-0.12,-0.08900000000000001,-0.059000000000000004,-0.059000000000000004,-0.027999999999999997,-0.027999999999999997,-0.027999999999999997,0.003,0.003,0.003,0.003,0.003,0.003,0.003,0.032,0.032,0.032,0.032,0.063,0.032,0.032,0.032,0.032,0.032,0.032,0.032,0.032,0.032,0.032,0.003,0.003,0.003,0.003,0.003,0.003,0.003,0.003,0.003,0.003,0.003,0.003,0.003,0.032,0.032,0.032,0.063,0.063,0.032,0.032,0.032,0.032,0.032,0.032,0.032,0.032,0.032,0.032,0.032,0.032,0.032,0.032,0.032,0.032,0.032,0.032,0.032,0.003,0.003,0.003,0.003,0.003,0.003,0.003,-0.027999999999999997,-0.027999999999999997,0.003,0.003,0.003,0.032,0.063,0.063,0.063,0.063,0.063,0.032,0.032,0.032,0.003,0.003,0.003,0.003,0.003,0.003,0.003,0.003,0.003,0.003,0.003,0.003,0.003,0.003,0.003,0.003,0.003,0.003,0.003,0.003,0.003,0.003,0.003,0.003,0.003,0.003,0.003,0.003,0.003,0.003,0.003,-0.027999999999999997,0.003,0.003,0.003,0.003,0.003,0.003,0.003,0.032,0.032,0.032,0.003,0.003,0.003,0.003,0.003,-0.027999999999999997,0.003,0.003,0.003,0.003,0.003,0.003,0.003,0.003,0.003,0.003,0.003,0.003,0.003,0.003,0.003,0.003,0.003,0.003,0.003,0.003,0.032,0.032,0.063,0.063,0.063,0.063,0.063,0.063,0.032,0.032,0.032,0.003,0.003,0.003,0.032,0.032,0.063,0.063,0.032,0.003,0.003,-0.027999999999999997,-0.059000000000000004,-0.059000000000000004,-0.08900000000000001,-0.08900000000000001,-0.08900000000000001,-0.12,-0.12,-0.12,-0.12,-0.12,-0.08900000000000001,-0.08900000000000001,-0.059000000000000004,-0.059000000000000004,-0.059000000000000004,-0.059000000000000004,-0.059000000000000004,-0.059000000000000004,-0.059000000000000004,-0.059000000000000004,-0.027999999999999997,-0.027999999999999997,0.003,0.003,0.003,0.003,-0.027999999999999997,-0.027999999999999997,-0.059000000000000004,-0.059000000000000004,-0.08900000000000001,-0.08900000000000001,-0.059000000000000004,-0.059000000000000004,-0.059000000000000004,-0.027999999999999997,-0.027999999999999997,-0.059000000000000004,-0.059000000000000004,-0.059000000000000004,-0.08900000000000001,-0.059000000000000004,-0.059000000000000004,-0.059000000000000004,-0.059000000000000004,-0.027999999999999997,0.003,0.003,0.003,0.003,0.003,-0.027999999999999997,-0.027999999999999997,-0.027999999999999997,-0.027999999999999997,0.003,0.003,0.003,0.003,0.003,0.003,0.003,0.003,0.003,0.003,0.003,0.032,0.09300000000000001,0.185,0.278,0.33899999999999997,0.431,0.522,0.614,0.736,0.828,0.919,1.011,1.1340000000000001,1.226,1.287,1.347,1.347,1.287,1.226,1.103,0.98,0.888,0.828,0.736,0.675,0.583,0.491,0.4,0.308,0.21600000000000003,0.155,0.09300000000000001,0.003,-0.027999999999999997,-0.059000000000000004,-0.08900000000000001,-0.12,-0.151,-0.151,-0.18100000000000002,-0.151,-0.151,-0.12,-0.08900000000000001,-0.08900000000000001,-0.08900000000000001,-0.08900000000000001,-0.08900000000000001,-0.08900000000000001,-0.12,-0.12,-0.151,-0.151,-0.151,-0.151,-0.151,-0.151,-0.151,-0.151,-0.151,-0.151,-0.12,-0.12,-0.08900000000000001,-0.08900000000000001,-0.08900000000000001,-0.08900000000000001,-0.08900000000000001,-0.08900000000000001,-0.12,-0.12,-0.08900000000000001,-0.08900000000000001,-0.08900000000000001,-0.08900000000000001,-0.08900000000000001,-0.08900000000000001,-0.08900000000000001,-0.12,-0.151,-0.151,-0.151,-0.151,-0.151,-0.151,-0.12,-0.12,-0.12,-0.12,-0.12,-0.12,-0.12,-0.151,-0.151,-0.151,-0.151,-0.12,-0.08900000000000001,-0.08900000000000001,-0.059000000000000004,-0.059000000000000004,-0.059000000000000004,-0.059000000000000004,-0.08900000000000001,-0.12,-0.12,-0.12,-0.151,-0.151,-0.151,-0.151,-0.151,-0.151,-0.151,-0.151,-0.151,-0.151,-0.18100000000000002,-0.18100000000000002,-0.212,-0.212,-0.212,-0.212,-0.243,-0.243,-0.243,-0.212,-0.212,-0.18100000000000002,-0.151,-0.151,-0.151,-0.12,-0.12,-0.151,-0.151,-0.151,-0.151,-0.151,-0.12,-0.151,-0.12,-0.151,-0.151,-0.151,-0.151,-0.151,-0.151,-0.151,-0.12,-0.08900000000000001,-0.059000000000000004,-0.059000000000000004,-0.059000000000000004,-0.027999999999999997,-0.027999999999999997,0.003,0.003,0.003,0.003,0.003,0.003,0.003,0.003,0.003,0.003,0.003,0.003,0.003,0.003,0.032,0.032,0.032,0.032,0.032,0.032,0.032,0.003,0.003,0.032,0.032,0.032,0.032,0.032,0.032,0.032,0.003,0.032,0.032,0.032,0.032,0.032,0.063,0.032,0.032,0.032,0.032,0.032,0.032,0.032,0.032,0.032,0.063,0.063,0.063,0.063,0.063,0.063,0.032,0.032,0.003,0.003,0.003,0.003,0.003,0.003,0.003,0.032,0.032,0.063,0.063,0.063,0.063,0.063,0.063,0.032,0.032,0.003,0.003,0.003,0.003,0.003,0.003,0.003,0.003,0.003,0.032,0.032,0.063,0.032,0.032,0.032,0.003,0.003,0.003,0.003,0.032,0.032,0.032,0.032,0.003,0.003,0.003,0.003,-0.027999999999999997,-0.027999999999999997,-0.027999999999999997,-0.027999999999999997,0.003,0.003,0.003,0.032,0.063,0.063,0.063,0.032,0.003,0.003,-0.027999999999999997,-0.059000000000000004,-0.059000000000000004,-0.08900000000000001,-0.08900000000000001,-0.059000000000000004,-0.059000000000000004,-0.059000000000000004,-0.027999999999999997,0.003,0.003,0.032,0.032,0.032,0.003,0.003,0.003,0.003,0.003,0.003,0.032,0.063,0.063,0.063,0.063,0.032,0.003,0.003,0.003,0.003,0.003,0.003,0.003,0.003,0.003,0.003,0.003,0.003,0.032,0.032,0.032,0.032,0.032,0.032,0.003,0.003,0.003,0.003,0.003,0.003,0.003,0.003,0.003,0.003,0.003,0.003,0.003,0.003,0.003,0.003,0.003,0.003,0.003,-0.027999999999999997,-0.027999999999999997,-0.027999999999999997,0.003,-0.027999999999999997,-0.027999999999999997,-0.027999999999999997,-0.027999999999999997,-0.027999999999999997,-0.027999999999999997,-0.059000000000000004,-0.027999999999999997,-0.027999999999999997,-0.027999999999999997,-0.027999999999999997,-0.059000000000000004,-0.059000000000000004,-0.059000000000000004,-0.059000000000000004,-0.08900000000000001,-0.12,-0.12,-0.12,-0.08900000000000001,-0.08900000000000001,-0.059000000000000004,-0.059000000000000004,-0.059000000000000004,-0.059000000000000004,-0.08900000000000001,-0.08900000000000001,-0.08900000000000001,-0.08900000000000001,-0.08900000000000001,-0.08900000000000001,-0.059000000000000004,-0.059000000000000004,-0.027999999999999997,-0.027999999999999997,-0.027999999999999997,-0.027999999999999997,-0.027999999999999997,-0.027999999999999997,-0.027999999999999997,-0.027999999999999997,0.003,0.003,0.003,0.003,0.003,0.003,0.003,-0.027999999999999997,-0.059000000000000004,-0.059000000000000004,-0.059000000000000004,-0.059000000000000004,-0.059000000000000004,-0.027999999999999997,0.003,0.003,0.003,0.003,0.003,0.003,0.003,0.003,0.032,0.063,0.124,0.185,0.247,0.33899999999999997,0.46,0.552,0.675,0.767,0.888,1.042,1.165,1.2570000000000001,1.317,1.347,1.3780000000000001,1.347,1.2570000000000001,1.165,1.073,0.98,0.919,0.828,0.736,0.644,0.522,0.4,0.308,0.185,0.09300000000000001,0.032,0.003,-0.027999999999999997,-0.059000000000000004,-0.08900000000000001,-0.08900000000000001,-0.08900000000000001,-0.12,-0.12,-0.151,-0.151,-0.151,-0.151,-0.151,-0.12,-0.12,-0.12,-0.08900000000000001,-0.08900000000000001,-0.059000000000000004,-0.059000000000000004,-0.059000000000000004,-0.059000000000000004,-0.059000000000000004,-0.059000000000000004,-0.08900000000000001,-0.08900000000000001,-0.12,-0.12,-0.12,-0.08900000000000001,-0.08900000000000001,-0.08900000000000001,-0.08900000000000001,-0.12,-0.12,-0.151,-0.151,-0.18100000000000002,-0.18100000000000002,-0.212,-0.212,-0.18100000000000002,-0.151,-0.151,-0.12,-0.08900000000000001,-0.059000000000000004,-0.059000000000000004,-0.059000000000000004,-0.08900000000000001,-0.08900000000000001,-0.12,-0.12,-0.12,-0.08900000000000001,-0.08900000000000001,-0.059000000000000004,-0.059000000000000004,-0.059000000000000004,-0.08900000000000001,-0.08900000000000001,-0.12,-0.12,-0.151,-0.151,-0.151,-0.18100000000000002,-0.18100000000000002,-0.18100000000000002,-0.18100000000000002,-0.18100000000000002,-0.151,-0.151,-0.151,-0.151,-0.151,-0.151,-0.151,-0.151,-0.12,-0.12,-0.12,-0.12,-0.12,-0.12,-0.151,-0.12,-0.151,-0.151,-0.151,-0.151,-0.151,-0.18100000000000002,-0.18100000000000002,-0.18100000000000002,-0.18100000000000002,-0.18100000000000002,-0.18100000000000002,-0.151,-0.151,-0.151,-0.18100000000000002,-0.212,-0.212,-0.212,-0.212,-0.212,-0.18100000000000002,-0.18100000000000002,-0.18100000000000002,-0.151,-0.151,-0.12,-0.12,-0.08900000000000001,-0.08900000000000001,-0.08900000000000001,-0.08900000000000001,-0.12,-0.12,-0.12,-0.12,-0.12,-0.08900000000000001,-0.08900000000000001,-0.08900000000000001,-0.08900000000000001,-0.08900000000000001,-0.08900000000000001,-0.059000000000000004,-0.059000000000000004,-0.027999999999999997,0.003,0.003,0.003,0.003,0.003,0.003,0.003,0.003,0.003,0.003,0.003,0.032,0.032,0.063,0.063,0.063,0.09300000000000001,0.09300000000000001,0.124,0.124,0.155,0.124,0.124,0.09300000000000001,0.063,0.032,0.003,0.003,-0.027999999999999997,-0.059000000000000004,-0.059000000000000004,-0.059000000000000004,-0.059000000000000004,-0.059000000000000004,-0.027999999999999997,-0.027999999999999997,0.003,0.003,0.003,0.003,0.003,0.003,0.003,0.032,0.032,0.063,0.063,0.063,0.09300000000000001,0.09300000000000001,0.09300000000000001,0.09300000000000001,0.09300000000000001,0.09300000000000001,0.09300000000000001,0.09300000000000001,0.063,0.032,0.003,0.003,0.003,0.003,-0.027999999999999997,-0.027999999999999997,-0.027999999999999997,-0.027999999999999997,-0.027999999999999997,-0.027999999999999997,-0.027999999999999997,-0.027999999999999997,-0.027999999999999997,-0.027999999999999997,-0.027999999999999997,-0.027999999999999997,0.003,0.003,0.003,N
8,-0.151,-0.151,-0.18100000000000002,-0.151,-0.151,-0.12,-0.08900000000000001,-0.08900000000000001,-0.08900000000000001,-0.08900000000000001,-0.08900000000000001,-0.08900000000000001,-0.12,-0.12,-0.151,-0.151,-0.151,-0.151,-0.151,-0.151,-0.151,-0.151,-0.151,-0.151,-0.12,-0.12,-0.08900000000000001,-0.08900000000000001,-0.08900000000000001,-0.08900000000000001,-0.08900000000000001,-0.08900000000000001,-0.12,-0.12,-0.08900000000000001,-0.08900000000000001,-0.08900000000000001,-0.08900000000000001,-0.08900000000000001,-0.08900000000000001,-0.08900000000000001,-0.12,-0.151,-0.151,-0.151,-0.151,-0.151,-0.151,-0.12,-0.12,-0.12,-0.12,-0.12,-0.12,-0.12,-0.151,-0.151,-0.151,-0.151,-0.12,-0.08900000000000001,-0.08900000000000001,-0.059000000000000004,-0.059000000000000004,-0.059000000000000004,-0.059000000000000004,-0.08900000000000001,-0.12,-0.12,-0.12,-0.151,-0.151,-0.151,-0.151,-0.151,-0.151,-0.151,-0.151,-0.151,-0.151,-0.18100000000000002,-0.18100000000000002,-0.212,-0.212,-0.212,-0.212,-0.243,-0.243,-0.243,-0.212,-0.212,-0.18100000000000002,-0.151,-0.151,-0.151,-0.12,-0.12,-0.151,-0.151,-0.151,-0.151,-0.151,-0.12,-0.151,-0.12,-0.151,-0.151,-0.151,-0.151,-0.151,-0.151,-0.151,-0.12,-0.08900000000000001,-0.059000000000000004,-0.059000000000000004,-0.059000000000000004,-0.027999999999999997,-0.027999999999999997,0.003,0.003,0.003,0.003,0.003,0.003,0.003,0.003,0.003,0.003,0.003,0.003,0.003,0.003,0.032,0.032,0.032,0.032,0.032,0.032,0.032,0.003,0.003,0.032,0.032,0.032,0.032,0.032,0.032,0.032,0.003,0.032,0.032,0.032,0.032,0.032,0.063,0.032,0.032,0.032,0.032,0.032,0.032,0.032,0.032,0.032,0.063,0.063,0.063,0.063,0.063,0.063,0.032,0.032,0.003,0.003,0.003,0.003,0.003,0.003,0.003,0.032,0.032,0.063,0.063,0.063,0.063,0.063,0.063,0.032,0.032,0.003,0.003,0.003,0.003,0.003,0.003,0.003,0.003,0.003,0.032,0.032,0.063,0.032,0.032,0.032,0.003,0.003,0.003,0.003,0.032,0.032,0.032,0.032,0.003,0.003,0.003,0.003,-0.027999999999999997,-0.027999999999999997,-0.027999999999999997,-0.027999999999999997,0.003,0.003,0.003,0.032,0.063,0.063,0.063,0.032,0.003,0.003,-0.027999999999999997,-0.059000000000000004,-0.059000000000000004,-0.08900000000000001,-0.08900000000000001,-0.059000000000000004,-0.059000000000000004,-0.059000000000000004,-0.027999999999999997,0.003,0.003,0.032,0.032,0.032,0.003,0.003,0.003,0.003,0.003,0.003,0.032,0.063,0.063,0.063,0.063,0.032,0.003,0.003,0.003,0.003,0.003,0.003,0.003,0.003,0.003,0.003,0.003,0.003,0.032,0.032,0.032,0.032,0.032,0.032,0.003,0.003,0.003,0.003,0.003,0.003,0.003,0.003,0.003,0.003,0.003,0.003,0.003,0.003,0.003,0.003,0.003,0.003,0.003,-0.027999999999999997,-0.027999999999999997,-0.027999999999999997,0.003,-0.027999999999999997,-0.027999999999999997,-0.027999999999999997,-0.027999999999999997,-0.027999999999999997,-0.027999999999999997,-0.059000000000000004,-0.027999999999999997,-0.027999999999999997,-0.027999999999999997,-0.027999999999999997,-0.059000000000000004,-0.059000000000000004,-0.059000000000000004,-0.059000000000000004,-0.08900000000000001,-0.12,-0.12,-0.12,-0.08900000000000001,-0.08900000000000001,-0.059000000000000004,-0.059000000000000004,-0.059000000000000004,-0.059000000000000004,-0.08900000000000001,-0.08900000000000001,-0.08900000000000001,-0.08900000000000001,-0.08900000000000001,-0.08900000000000001,-0.059000000000000004,-0.059000000000000004,-0.027999999999999997,-0.027999999999999997,-0.027999999999999997,-0.027999999999999997,-0.027999999999999997,-0.027999999999999997,-0.027999999999999997,-0.027999999999999997,0.003,0.003,0.003,0.003,0.003,0.003,0.003,-0.027999999999999997,-0.059000000000000004,-0.059000000000000004,-0.059000000000000004,-0.059000000000000004,-0.059000000000000004,-0.027999999999999997,0.003,0.003,0.003,0.003,0.003,0.003,0.003,0.003,0.032,0.063,0.124,0.185,0.247,0.33899999999999997,0.46,0.552,0.675,0.767,0.888,1.042,1.165,1.2570000000000001,1.317,1.347,1.3780000000000001,1.347,1.2570000000000001,1.165,1.073,0.98,0.919,0.828,0.736,0.644,0.522,0.4,0.308,0.185,0.09300000000000001,0.032,0.003,-0.027999999999999997,-0.059000000000000004,-0.08900000000000001,-0.08900000000000001,-0.08900000000000001,-0.12,-0.12,-0.151,-0.151,-0.151,-0.151,-0.151,-0.12,-0.12,-0.12,-0.08900000000000001,-0.08900000000000001,-0.059000000000000004,-0.059000000000000004,-0.059000000000000004,-0.059000000000000004,-0.059000000000000004,-0.059000000000000004,-0.08900000000000001,-0.08900000000000001,-0.12,-0.12,-0.12,-0.08900000000000001,-0.08900000000000001,-0.08900000000000001,-0.08900000000000001,-0.12,-0.12,-0.151,-0.151,-0.18100000000000002,-0.18100000000000002,-0.212,-0.212,-0.18100000000000002,-0.151,-0.151,-0.12,-0.08900000000000001,-0.059000000000000004,-0.059000000000000004,-0.059000000000000004,-0.08900000000000001,-0.08900000000000001,-0.12,-0.12,-0.12,-0.08900000000000001,-0.08900000000000001,-0.059000000000000004,-0.059000000000000004,-0.059000000000000004,-0.08900000000000001,-0.08900000000000001,-0.12,-0.12,-0.151,-0.151,-0.151,-0.18100000000000002,-0.18100000000000002,-0.18100000000000002,-0.18100000000000002,-0.18100000000000002,-0.151,-0.151,-0.151,-0.151,-0.151,-0.151,-0.151,-0.151,-0.12,-0.12,-0.12,-0.12,-0.12,-0.12,-0.151,-0.12,-0.151,-0.151,-0.151,-0.151,-0.151,-0.18100000000000002,-0.18100000000000002,-0.18100000000000002,-0.18100000000000002,-0.18100000000000002,-0.18100000000000002,-0.151,-0.151,-0.151,-0.18100000000000002,-0.212,-0.212,-0.212,-0.212,-0.212,-0.18100000000000002,-0.18100000000000002,-0.18100000000000002,-0.151,-0.151,-0.12,-0.12,-0.08900000000000001,-0.08900000000000001,-0.08900000000000001,-0.08900000000000001,-0.12,-0.12,-0.12,-0.12,-0.12,-0.08900000000000001,-0.08900000000000001,-0.08900000000000001,-0.08900000000000001,-0.08900000000000001,-0.08900000000000001,-0.059000000000000004,-0.059000000000000004,-0.027999999999999997,0.003,0.003,0.003,0.003,0.003,0.003,0.003,0.003,0.003,0.003,0.003,0.032,0.032,0.063,0.063,0.063,0.09300000000000001,0.09300000000000001,0.124,0.124,0.155,0.124,0.124,0.09300000000000001,0.063,0.032,0.003,0.003,-0.027999999999999997,-0.059000000000000004,-0.059000000000000004,-0.059000000000000004,-0.059000000000000004,-0.059000000000000004,-0.027999999999999997,-0.027999999999999997,0.003,0.003,0.003,0.003,0.003,0.003,0.003,0.032,0.032,0.063,0.063,0.063,0.09300000000000001,0.09300000000000001,0.09300000000000001,0.09300000000000001,0.09300000000000001,0.09300000000000001,0.09300000000000001,0.09300000000000001,0.063,0.032,0.003,0.003,0.003,0.003,-0.027999999999999997,-0.027999999999999997,-0.027999999999999997,-0.027999999999999997,-0.027999999999999997,-0.027999999999999997,-0.027999999999999997,-0.027999999999999997,-0.027999999999999997,-0.027999999999999997,-0.027999999999999997,-0.027999999999999997,0.003,0.003,0.003,0.003,0.003,0.003,0.003,0.003,0.032,0.032,0.032,0.063,0.063,0.063,0.032,0.032,0.003,0.003,0.003,0.003,0.003,0.003,0.003,0.003,-0.027999999999999997,-0.059000000000000004,-0.059000000000000004,-0.059000000000000004,-0.08900000000000001,-0.059000000000000004,-0.059000000000000004,-0.027999999999999997,-0.027999999999999997,-0.027999999999999997,0.003,0.003,0.003,0.003,0.003,0.003,0.003,0.003,0.003,0.003,0.003,0.003,0.003,0.003,0.032,0.003,0.003,0.003,0.003,0.003,0.003,0.003,0.003,0.003,0.032,0.032,0.032,0.032,0.032,0.003,0.003,0.003,0.003,0.003,0.003,0.003,0.003,0.003,0.003,0.003,0.003,0.032,0.032,0.032,0.003,0.003,0.003,0.003,0.003,0.003,0.003,0.003,0.003,0.003,0.003,-0.027999999999999997,0.003,0.003,0.003,0.003,0.003,0.003,0.003,0.003,0.003,0.003,-0.027999999999999997,-0.059000000000000004,-0.059000000000000004,-0.059000000000000004,-0.059000000000000004,-0.027999999999999997,-0.027999999999999997,-0.027999999999999997,-0.027999999999999997,-0.027999999999999997,-0.059000000000000004,-0.08900000000000001,-0.12,-0.12,-0.151,-0.151,-0.151,-0.151,-0.12,-0.08900000000000001,-0.059000000000000004,-0.059000000000000004,-0.027999999999999997,-0.027999999999999997,-0.059000000000000004,-0.059000000000000004,-0.059000000000000004,-0.059000000000000004,-0.059000000000000004,-0.059000000000000004,-0.027999999999999997,0.003,0.003,0.003,0.032,0.032,0.032,0.003,0.003,0.003,-0.027999999999999997,-0.059000000000000004,-0.059000000000000004,-0.08900000000000001,-0.12,-0.12,-0.12,-0.08900000000000001,-0.08900000000000001,-0.059000000000000004,-0.059000000000000004,-0.059000000000000004,-0.027999999999999997,0.003,0.003,0.003,0.032,0.063,0.09300000000000001,0.124,0.155,0.21600000000000003,0.247,0.308,0.37,0.46,0.522,0.614,0.736,0.8590000000000001,0.98,1.103,1.195,1.287,1.347,1.347,1.347,1.2570000000000001,1.195,1.103,0.98,0.888,0.828,0.736,0.614,0.522,0.4,0.308,0.21600000000000003,0.155,0.063,0.003,-0.027999999999999997,-0.059000000000000004,-0.08900000000000001,-0.08900000000000001,-0.08900000000000001,-0.08900000000000001,-0.08900000000000001,-0.08900000000000001,-0.08900000000000001,-0.12,-0.12,-0.151,-0.151,-0.151,-0.151,-0.151,-0.151,-0.12,-0.12,-0.08900000000000001,-0.08900000000000001,-0.08900000000000001,-0.08900000000000001,-0.08900000000000001,-0.08900000000000001,-0.12,-0.12,-0.12,-0.151,-0.151,-0.151,-0.151,-0.151,-0.12,-0.12,-0.08900000000000001,-0.08900000000000001,-0.059000000000000004,-0.027999999999999997,0.003,0.003,0.003,0.003,-0.027999999999999997,-0.059000000000000004,-0.08900000000000001,-0.12,-0.151,-0.18100000000000002,-0.18100000000000002,-0.18100000000000002,-0.18100000000000002,-0.151,-0.151,-0.151,-0.12,-0.12,-0.12,-0.12,-0.08900000000000001,-0.08900000000000001,-0.08900000000000001,-0.08900000000000001,-0.12,-0.12,-0.151,-0.12,-0.12,-0.08900000000000001,-0.08900000000000001,-0.08900000000000001,-0.08900000000000001,-0.08900000000000001,-0.12,-0.151,-0.151,-0.18100000000000002,-0.18100000000000002,-0.151,-0.151,-0.151,-0.12,-0.12,-0.12,-0.12,-0.151,-0.151,-0.18100000000000002,-0.18100000000000002,-0.212,-0.212,-0.212,-0.212,-0.212,-0.18100000000000002,-0.18100000000000002,-0.18100000000000002,-0.151,-0.151,-0.151,-0.151,-0.151,-0.151,-0.151,-0.151,-0.151,-0.151,-0.151,-0.151,-0.151,-0.151,-0.12,-0.12,-0.12,-0.12,-0.12,-0.12,-0.12,-0.12,-0.08900000000000001,-0.08900000000000001,-0.08900000000000001,-0.08900000000000001,-0.08900000000000001,-0.08900000000000001,-0.08900000000000001,-0.08900000000000001,-0.08900000000000001,-0.059000000000000004,-0.027999999999999997,0.003,0.003,0.003,0.003,0.003,0.003,0.003,0.003,0.003,0.003,0.003,0.003,0.003,0.032,0.032,0.063,0.063,0.09300000000000001,0.09300000000000001,0.09300000000000001,0.09300000000000001,0.09300000000000001,0.063,0.063,0.032,0.003,0.003,0.003,0.003,0.003,0.003,0.003,0.003,0.003,0.003,0.003,0.003,0.003,0.003,0.003,0.003,0.003,0.032,0.003,0.003,0.003,0.003,0.003,0.003,0.003,0.032,0.063,0.063,0.063,0.09300000000000001,0.063,0.063,0.063,0.032,0.032,0.003,0.003,0.003,0.003,0.003,-0.027999999999999997,-0.027999999999999997,-0.027999999999999997,-0.027999999999999997,0.003,0.003,0.003,0.003,0.032,0.032,0.032,0.003,0.003,0.003,N
9,-0.08900000000000001,-0.08900000000000001,-0.12,-0.12,-0.151,-0.151,-0.151,-0.151,-0.151,-0.12,-0.12,-0.12,-0.08900000000000001,-0.08900000000000001,-0.059000000000000004,-0.059000000000000004,-0.059000000000000004,-0.059000000000000004,-0.059000000000000004,-0.059000000000000004,-0.08900000000000001,-0.08900000000000001,-0.12,-0.12,-0.12,-0.08900000000000001,-0.08900000000000001,-0.08900000000000001,-0.08900000000000001,-0.12,-0.12,-0.151,-0.151,-0.18100000000000002,-0.18100000000000002,-0.212,-0.212,-0.18100000000000002,-0.151,-0.151,-0.12,-0.08900000000000001,-0.059000000000000004,-0.059000000000000004,-0.059000000000000004,-0.08900000000000001,-0.08900000000000001,-0.12,-0.12,-0.12,-0.08900000000000001,-0.08900000000000001,-0.059000000000000004,-0.059000000000000004,-0.059000000000000004,-0.08900000000000001,-0.08900000000000001,-0.12,-0.12,-0.151,-0.151,-0.151,-0.18100000000000002,-0.18100000000000002,-0.18100000000000002,-0.18100000000000002,-0.18100000000000002,-0.151,-0.151,-0.151,-0.151,-0.151,-0.151,-0.151,-0.151,-0.12,-0.12,-0.12,-0.12,-0.12,-0.12,-0.151,-0.12,-0.151,-0.151,-0.151,-0.151,-0.151,-0.18100000000000002,-0.18100000000000002,-0.18100000000000002,-0.18100000000000002,-0.18100000000000002,-0.18100000000000002,-0.151,-0.151,-0.151,-0.18100000000000002,-0.212,-0.212,-0.212,-0.212,-0.212,-0.18100000000000002,-0.18100000000000002,-0.18100000000000002,-0.151,-0.151,-0.12,-0.12,-0.08900000000000001,-0.08900000000000001,-0.08900000000000001,-0.08900000000000001,-0.12,-0.12,-0.12,-0.12,-0.12,-0.08900000000000001,-0.08900000000000001,-0.08900000000000001,-0.08900000000000001,-0.08900000000000001,-0.08900000000000001,-0.059000000000000004,-0.059000000000000004,-0.027999999999999997,0.003,0.003,0.003,0.003,0.003,0.003,0.003,0.003,0.003,0.003,0.003,0.032,0.032,0.063,0.063,0.063,0.09300000000000001,0.09300000000000001,0.124,0.124,0.155,0.124,0.124,0.09300000000000001,0.063,0.032,0.003,0.003,-0.027999999999999997,-0.059000000000000004,-0.059000000000000004,-0.059000000000000004,-0.059000000000000004,-0.059000000000000004,-0.027999999999999997,-0.027999999999999997,0.003,0.003,0.003,0.003,0.003,0.003,0.003,0.032,0.032,0.063,0.063,0.063,0.09300000000000001,0.09300000000000001,0.09300000000000001,0.09300000000000001,0.09300000000000001,0.09300000000000001,0.09300000000000001,0.09300000000000001,0.063,0.032,0.003,0.003,0.003,0.003,-0.027999999999999997,-0.027999999999999997,-0.027999999999999997,-0.027999999999999997,-0.027999999999999997,-0.027999999999999997,-0.027999999999999997,-0.027999999999999997,-0.027999999999999997,-0.027999999999999997,-0.027999999999999997,-0.027999999999999997,0.003,0.003,0.003,0.003,0.003,0.003,0.003,0.003,0.032,0.032,0.032,0.063,0.063,0.063,0.032,0.032,0.003,0.003,0.003,0.003,0.003,0.003,0.003,0.003,-0.027999999999999997,-0.059000000000000004,-0.059000000000000004,-0.059000000000000004,-0.08900000000000001,-0.059000000000000004,-0.059000000000000004,-0.027999999999999997,-0.027999999999999997,-0.027999999999999997,0.003,0.003,0.003,0.003,0.003,0.003,0.003,0.003,0.003,0.003,0.003,0.003,0.003,0.003,0.032,0.003,0.003,0.003,0.003,0.003,0.003,0.003,0.003,0.003,0.032,0.032,0.032,0.032,0.032,0.003,0.003,0.003,0.003,0.003,0.003,0.003,0.003,0.003,0.003,0.003,0.003,0.032,0.032,0.032,0.003,0.003,0.003,0.003,0.003,0.003,0.003,0.003,0.003,0.003,0.003,-0.027999999999999997,0.003,0.003,0.003,0.003,0.003,0.003,0.003,0.003,0.003,0.003,-0.027999999999999997,-0.059000000000000004,-0.059000000000000004,-0.059000000000000004,-0.059000000000000004,-0.027999999999999997,-0.027999999999999997,-0.027999999999999997,-0.027999999999999997,-0.027999999999999997,-0.059000000000000004,-0.08900000000000001,-0.12,-0.12,-0.151,-0.151,-0.151,-0.151,-0.12,-0.08900000000000001,-0.059000000000000004,-0.059000000000000004,-0.027999999999999997,-0.027999999999999997,-0.059000000000000004,-0.059000000000000004,-0.059000000000000004,-0.059000000000000004,-0.059000000000000004,-0.059000000000000004,-0.027999999999999997,0.003,0.003,0.003,0.032,0.032,0.032,0.003,0.003,0.003,-0.027999999999999997,-0.059000000000000004,-0.059000000000000004,-0.08900000000000001,-0.12,-0.12,-0.12,-0.08900000000000001,-0.08900000000000001,-0.059000000000000004,-0.059000000000000004,-0.059000000000000004,-0.027999999999999997,0.003,0.003,0.003,0.032,0.063,0.09300000000000001,0.124,0.155,0.21600000000000003,0.247,0.308,0.37,0.46,0.522,0.614,0.736,0.8590000000000001,0.98,1.103,1.195,1.287,1.347,1.347,1.347,1.2570000000000001,1.195,1.103,0.98,0.888,0.828,0.736,0.614,0.522,0.4,0.308,0.21600000000000003,0.155,0.063,0.003,-0.027999999999999997,-0.059000000000000004,-0.08900000000000001,-0.08900000000000001,-0.08900000000000001,-0.08900000000000001,-0.08900000000000001,-0.08900000000000001,-0.08900000000000001,-0.12,-0.12,-0.151,-0.151,-0.151,-0.151,-0.151,-0.151,-0.12,-0.12,-0.08900000000000001,-0.08900000000000001,-0.08900000000000001,-0.08900000000000001,-0.08900000000000001,-0.08900000000000001,-0.12,-0.12,-0.12,-0.151,-0.151,-0.151,-0.151,-0.151,-0.12,-0.12,-0.08900000000000001,-0.08900000000000001,-0.059000000000000004,-0.027999999999999997,0.003,0.003,0.003,0.003,-0.027999999999999997,-0.059000000000000004,-0.08900000000000001,-0.12,-0.151,-0.18100000000000002,-0.18100000000000002,-0.18100000000000002,-0.18100000000000002,-0.151,-0.151,-0.151,-0.12,-0.12,-0.12,-0.12,-0.08900000000000001,-0.08900000000000001,-0.08900000000000001,-0.08900000000000001,-0.12,-0.12,-0.151,-0.12,-0.12,-0.08900000000000001,-0.08900000000000001,-0.08900000000000001,-0.08900000000000001,-0.08900000000000001,-0.12,-0.151,-0.151,-0.18100000000000002,-0.18100000000000002,-0.151,-0.151,-0.151,-0.12,-0.12,-0.12,-0.12,-0.151,-0.151,-0.18100000000000002,-0.18100000000000002,-0.212,-0.212,-0.212,-0.212,-0.212,-0.18100000000000002,-0.18100000000000002,-0.18100000000000002,-0.151,-0.151,-0.151,-0.151,-0.151,-0.151,-0.151,-0.151,-0.151,-0.151,-0.151,-0.151,-0.151,-0.151,-0.12,-0.12,-0.12,-0.12,-0.12,-0.12,-0.12,-0.12,-0.08900000000000001,-0.08900000000000001,-0.08900000000000001,-0.08900000000000001,-0.08900000000000001,-0.08900000000000001,-0.08900000000000001,-0.08900000000000001,-0.08900000000000001,-0.059000000000000004,-0.027999999999999997,0.003,0.003,0.003,0.003,0.003,0.003,0.003,0.003,0.003,0.003,0.003,0.003,0.003,0.032,0.032,0.063,0.063,0.09300000000000001,0.09300000000000001,0.09300000000000001,0.09300000000000001,0.09300000000000001,0.063,0.063,0.032,0.003,0.003,0.003,0.003,0.003,0.003,0.003,0.003,0.003,0.003,0.003,0.003,0.003,0.003,0.003,0.003,0.003,0.032,0.003,0.003,0.003,0.003,0.003,0.003,0.003,0.032,0.063,0.063,0.063,0.09300000000000001,0.063,0.063,0.063,0.032,0.032,0.003,0.003,0.003,0.003,0.003,-0.027999999999999997,-0.027999999999999997,-0.027999999999999997,-0.027999999999999997,0.003,0.003,0.003,0.003,0.032,0.032,0.032,0.003,0.003,0.003,0.003,0.003,-0.027999999999999997,-0.027999999999999997,-0.027999999999999997,-0.027999999999999997,0.003,0.003,0.003,0.003,0.003,0.003,0.003,0.003,0.003,0.003,0.003,0.032,0.063,0.063,0.09300000000000001,0.09300000000000001,0.124,0.09300000000000001,0.09300000000000001,0.063,0.003,0.003,-0.027999999999999997,-0.059000000000000004,-0.059000000000000004,-0.059000000000000004,-0.027999999999999997,-0.027999999999999997,-0.027999999999999997,0.003,-0.027999999999999997,-0.027999999999999997,-0.027999999999999997,-0.027999999999999997,-0.027999999999999997,-0.027999999999999997,0.003,0.003,0.003,0.003,0.003,0.003,0.003,0.003,0.032,0.032,0.063,0.063,0.063,0.063,0.063,0.032,0.003,0.003,0.003,0.003,0.003,-0.027999999999999997,-0.027999999999999997,0.003,0.003,0.003,0.003,0.003,0.003,0.003,0.003,0.003,0.003,0.003,0.003,0.003,0.003,0.003,0.003,0.003,0.003,0.003,0.003,0.003,0.003,0.003,0.003,0.003,0.003,0.003,-0.027999999999999997,-0.027999999999999997,-0.027999999999999997,-0.059000000000000004,-0.059000000000000004,-0.059000000000000004,-0.08900000000000001,-0.08900000000000001,-0.12,-0.12,-0.12,-0.12,-0.08900000000000001,-0.08900000000000001,-0.08900000000000001,-0.08900000000000001,-0.08900000000000001,-0.059000000000000004,-0.027999999999999997,0.003,0.003,0.003,0.003,0.003,-0.027999999999999997,-0.027999999999999997,-0.027999999999999997,-0.027999999999999997,-0.027999999999999997,-0.027999999999999997,-0.027999999999999997,-0.059000000000000004,-0.059000000000000004,-0.059000000000000004,-0.08900000000000001,-0.08900000000000001,-0.08900000000000001,-0.08900000000000001,-0.08900000000000001,-0.08900000000000001,-0.08900000000000001,-0.08900000000000001,-0.08900000000000001,-0.059000000000000004,-0.059000000000000004,-0.027999999999999997,0.003,0.003,0.003,0.003,0.003,0.003,0.003,0.003,0.003,0.003,0.003,0.003,0.003,0.003,0.003,0.003,0.003,0.003,0.032,0.063,0.124,0.185,0.247,0.33899999999999997,0.431,0.522,0.614,0.736,0.828,0.98,1.103,1.226,1.317,1.3780000000000001,1.3780000000000001,1.3780000000000001,1.287,1.195,1.073,0.98,0.888,0.7979999999999999,0.706,0.614,0.522,0.431,0.308,0.247,0.155,0.09300000000000001,0.032,0.003,-0.027999999999999997,-0.059000000000000004,-0.059000000000000004,-0.059000000000000004,-0.08900000000000001,-0.08900000000000001,-0.12,-0.151,-0.151,-0.18100000000000002,-0.151,-0.151,-0.12,-0.08900000000000001,-0.059000000000000004,-0.059000000000000004,-0.059000000000000004,-0.059000000000000004,-0.08900000000000001,-0.12,-0.12,-0.151,-0.151,-0.12,-0.08900000000000001,-0.08900000000000001,-0.08900000000000001,-0.08900000000000001,-0.08900000000000001,-0.08900000000000001,-0.12,-0.12,-0.12,-0.151,-0.151,-0.151,-0.151,-0.151,-0.151,-0.151,-0.151,-0.151,-0.12,-0.12,-0.08900000000000001,-0.12,-0.12,-0.12,-0.12,-0.12,-0.12,-0.12,-0.12,-0.12,-0.12,-0.12,-0.08900000000000001,-0.08900000000000001,-0.12,-0.12,-0.12,-0.12,-0.12,-0.151,-0.151,-0.151,-0.151,-0.151,-0.151,-0.151,-0.151,-0.12,-0.12,-0.08900000000000001,-0.08900000000000001,-0.08900000000000001,-0.08900000000000001,-0.059000000000000004,-0.08900000000000001,-0.12,-0.12,-0.151,-0.151,-0.18100000000000002,-0.151,-0.151,-0.151,-0.151,-0.18100000000000002,-0.18100000000000002,-0.212,-0.212,-0.243,-0.243,-0.243,-0.212,-0.212,-0.18100000000000002,-0.18100000000000002,-0.151,-0.151,-0.12,-0.151,-0.12,-0.151,-0.151,-0.151,-0.151,-0.151,-0.151,-0.151,-0.151,-0.151,-0.151,-0.151,-0.151,-0.151,-0.12,-0.12,-0.12,-0.12,-0.12,-0.12,-0.08900000000000001,-0.08900000000000001,-0.059000000000000004,-0.059000000000000004,-0.059000000000000004,-0.027999999999999997,-0.027999999999999997,0.003,0.003,0.003,0.003,0.003,0.003,0.003,0.003,0.003,0.003,0.003,0.003,0.003,0.003,0.003,0.003,0.003,0.003,0.003,0.003,0.003,0.003,0.032,0.063,0.09300000000000001,0.09300000000000001,0.124,0.155,0.155,0.155,0.124,0.063,0.032,0.003,0.003,-0.027999999999999997,-0.059000000000000004,-0.059000000000000004,-0.059000000000000004,-0.027999999999999997,-0.027999999999999997,-0.027999999999999997,-0.027999999999999997,0.003,0.003,0.003,0.003,0.003,0.003,0.003,0.003,0.003,0.003,0.003,0.003,0.003,0.032,0.032,0.063,0.063,0.063,0.063,0.063,0.063,0.063,0.063,0.063,0.063,0.063,0.032,0.032,0.003,0.003,-0.027999999999999997,-0.059000000000000004,-0.08900000000000001,-0.08900000000000001,N
10,-0.08900000000000001,-0.08900000000000001,-0.08900000000000001,-0.08900000000000001,-0.08900000000000001,-0.12,-0.12,-0.151,-0.151,-0.151,-0.151,-0.151,-0.151,-0.12,-0.12,-0.08900000000000001,-0.08900000000000001,-0.08900000000000001,-0.08900000000000001,-0.08900000000000001,-0.08900000000000001,-0.12,-0.12,-0.12,-0.151,-0.151,-0.151,-0.151,-0.151,-0.12,-0.12,-0.08900000000000001,-0.08900000000000001,-0.059000000000000004,-0.027999999999999997,0.003,0.003,0.003,0.003,-0.027999999999999997,-0.059000000000000004,-0.08900000000000001,-0.12,-0.151,-0.18100000000000002,-0.18100000000000002,-0.18100000000000002,-0.18100000000000002,-0.151,-0.151,-0.151,-0.12,-0.12,-0.12,-0.12,-0.08900000000000001,-0.08900000000000001,-0.08900000000000001,-0.08900000000000001,-0.12,-0.12,-0.151,-0.12,-0.12,-0.08900000000000001,-0.08900000000000001,-0.08900000000000001,-0.08900000000000001,-0.08900000000000001,-0.12,-0.151,-0.151,-0.18100000000000002,-0.18100000000000002,-0.151,-0.151,-0.151,-0.12,-0.12,-0.12,-0.12,-0.151,-0.151,-0.18100000000000002,-0.18100000000000002,-0.212,-0.212,-0.212,-0.212,-0.212,-0.18100000000000002,-0.18100000000000002,-0.18100000000000002,-0.151,-0.151,-0.151,-0.151,-0.151,-0.151,-0.151,-0.151,-0.151,-0.151,-0.151,-0.151,-0.151,-0.151,-0.12,-0.12,-0.12,-0.12,-0.12,-0.12,-0.12,-0.12,-0.08900000000000001,-0.08900000000000001,-0.08900000000000001,-0.08900000000000001,-0.08900000000000001,-0.08900000000000001,-0.08900000000000001,-0.08900000000000001,-0.08900000000000001,-0.059000000000000004,-0.027999999999999997,0.003,0.003,0.003,0.003,0.003,0.003,0.003,0.003,0.003,0.003,0.003,0.003,0.003,0.032,0.032,0.063,0.063,0.09300000000000001,0.09300000000000001,0.09300000000000001,0.09300000000000001,0.09300000000000001,0.063,0.063,0.032,0.003,0.003,0.003,0.003,0.003,0.003,0.003,0.003,0.003,0.003,0.003,0.003,0.003,0.003,0.003,0.003,0.003,0.032,0.003,0.003,0.003,0.003,0.003,0.003,0.003,0.032,0.063,0.063,0.063,0.09300000000000001,0.063,0.063,0.063,0.032,0.032,0.003,0.003,0.003,0.003,0.003,-0.027999999999999997,-0.027999999999999997,-0.027999999999999997,-0.027999999999999997,0.003,0.003,0.003,0.003,0.032,0.032,0.032,0.003,0.003,0.003,0.003,0.003,-0.027999999999999997,-0.027999999999999997,-0.027999999999999997,-0.027999999999999997,0.003,0.003,0.003,0.003,0.003,0.003,0.003,0.003,0.003,0.003,0.003,0.032,0.063,0.063,0.09300000000000001,0.09300000000000001,0.124,0.09300000000000001,0.09300000000000001,0.063,0.003,0.003,-0.027999999999999997,-0.059000000000000004,-0.059000000000000004,-0.059000000000000004,-0.027999999999999997,-0.027999999999999997,-0.027999999999999997,0.003,-0.027999999999999997,-0.027999999999999997,-0.027999999999999997,-0.027999999999999997,-0.027999999999999997,-0.027999999999999997,0.003,0.003,0.003,0.003,0.003,0.003,0.003,0.003,0.032,0.032,0.063,0.063,0.063,0.063,0.063,0.032,0.003,0.003,0.003,0.003,0.003,-0.027999999999999997,-0.027999999999999997,0.003,0.003,0.003,0.003,0.003,0.003,0.003,0.003,0.003,0.003,0.003,0.003,0.003,0.003,0.003,0.003,0.003,0.003,0.003,0.003,0.003,0.003,0.003,0.003,0.003,0.003,0.003,-0.027999999999999997,-0.027999999999999997,-0.027999999999999997,-0.059000000000000004,-0.059000000000000004,-0.059000000000000004,-0.08900000000000001,-0.08900000000000001,-0.12,-0.12,-0.12,-0.12,-0.08900000000000001,-0.08900000000000001,-0.08900000000000001,-0.08900000000000001,-0.08900000000000001,-0.059000000000000004,-0.027999999999999997,0.003,0.003,0.003,0.003,0.003,-0.027999999999999997,-0.027999999999999997,-0.027999999999999997,-0.027999999999999997,-0.027999999999999997,-0.027999999999999997,-0.027999999999999997,-0.059000000000000004,-0.059000000000000004,-0.059000000000000004,-0.08900000000000001,-0.08900000000000001,-0.08900000000000001,-0.08900000000000001,-0.08900000000000001,-0.08900000000000001,-0.08900000000000001,-0.08900000000000001,-0.08900000000000001,-0.059000000000000004,-0.059000000000000004,-0.027999999999999997,0.003,0.003,0.003,0.003,0.003,0.003,0.003,0.003,0.003,0.003,0.003,0.003,0.003,0.003,0.003,0.003,0.003,0.003,0.032,0.063,0.124,0.185,0.247,0.33899999999999997,0.431,0.522,0.614,0.736,0.828,0.98,1.103,1.226,1.317,1.3780000000000001,1.3780000000000001,1.3780000000000001,1.287,1.195,1.073,0.98,0.888,0.7979999999999999,0.706,0.614,0.522,0.431,0.308,0.247,0.155,0.09300000000000001,0.032,0.003,-0.027999999999999997,-0.059000000000000004,-0.059000000000000004,-0.059000000000000004,-0.08900000000000001,-0.08900000000000001,-0.12,-0.151,-0.151,-0.18100000000000002,-0.151,-0.151,-0.12,-0.08900000000000001,-0.059000000000000004,-0.059000000000000004,-0.059000000000000004,-0.059000000000000004,-0.08900000000000001,-0.12,-0.12,-0.151,-0.151,-0.12,-0.08900000000000001,-0.08900000000000001,-0.08900000000000001,-0.08900000000000001,-0.08900000000000001,-0.08900000000000001,-0.12,-0.12,-0.12,-0.151,-0.151,-0.151,-0.151,-0.151,-0.151,-0.151,-0.151,-0.151,-0.12,-0.12,-0.08900000000000001,-0.12,-0.12,-0.12,-0.12,-0.12,-0.12,-0.12,-0.12,-0.12,-0.12,-0.12,-0.08900000000000001,-0.08900000000000001,-0.12,-0.12,-0.12,-0.12,-0.12,-0.151,-0.151,-0.151,-0.151,-0.151,-0.151,-0.151,-0.151,-0.12,-0.12,-0.08900000000000001,-0.08900000000000001,-0.08900000000000001,-0.08900000000000001,-0.059000000000000004,-0.08900000000000001,-0.12,-0.12,-0.151,-0.151,-0.18100000000000002,-0.151,-0.151,-0.151,-0.151,-0.18100000000000002,-0.18100000000000002,-0.212,-0.212,-0.243,-0.243,-0.243,-0.212,-0.212,-0.18100000000000002,-0.18100000000000002,-0.151,-0.151,-0.12,-0.151,-0.12,-0.151,-0.151,-0.151,-0.151,-0.151,-0.151,-0.151,-0.151,-0.151,-0.151,-0.151,-0.151,-0.151,-0.12,-0.12,-0.12,-0.12,-0.12,-0.12,-0.08900000000000001,-0.08900000000000001,-0.059000000000000004,-0.059000000000000004,-0.059000000000000004,-0.027999999999999997,-0.027999999999999997,0.003,0.003,0.003,0.003,0.003,0.003,0.003,0.003,0.003,0.003,0.003,0.003,0.003,0.003,0.003,0.003,0.003,0.003,0.003,0.003,0.003,0.003,0.032,0.063,0.09300000000000001,0.09300000000000001,0.124,0.155,0.155,0.155,0.124,0.063,0.032,0.003,0.003,-0.027999999999999997,-0.059000000000000004,-0.059000000000000004,-0.059000000000000004,-0.027999999999999997,-0.027999999999999997,-0.027999999999999997,-0.027999999999999997,0.003,0.003,0.003,0.003,0.003,0.003,0.003,0.003,0.003,0.003,0.003,0.003,0.003,0.032,0.032,0.063,0.063,0.063,0.063,0.063,0.063,0.063,0.063,0.063,0.063,0.063,0.032,0.032,0.003,0.003,-0.027999999999999997,-0.059000000000000004,-0.08900000000000001,-0.08900000000000001,-0.08900000000000001,-0.059000000000000004,-0.059000000000000004,-0.027999999999999997,-0.027999999999999997,-0.027999999999999997,-0.027999999999999997,0.003,0.003,0.003,0.032,0.032,0.032,0.003,0.003,0.003,0.003,0.003,0.003,0.003,0.003,0.003,-0.027999999999999997,-0.027999999999999997,-0.027999999999999997,-0.027999999999999997,-0.027999999999999997,-0.027999999999999997,-0.027999999999999997,-0.027999999999999997,0.003,-0.027999999999999997,-0.027999999999999997,-0.059000000000000004,-0.059000000000000004,-0.059000000000000004,-0.027999999999999997,-0.027999999999999997,-0.027999999999999997,-0.027999999999999997,-0.027999999999999997,0.003,0.003,0.003,0.003,0.003,0.003,0.003,0.003,0.003,0.003,0.003,0.003,0.032,0.032,0.063,0.063,0.032,0.003,0.003,0.003,-0.027999999999999997,-0.027999999999999997,-0.027999999999999997,-0.027999999999999997,-0.027999999999999997,-0.027999999999999997,-0.027999999999999997,0.003,0.003,0.003,0.003,0.003,0.032,0.032,0.032,0.032,0.003,0.003,-0.027999999999999997,-0.027999999999999997,-0.059000000000000004,-0.059000000000000004,-0.059000000000000004,-0.027999999999999997,0.003,0.003,0.003,0.032,0.003,0.003,0.003,-0.027999999999999997,-0.08900000000000001,-0.12,-0.151,-0.151,-0.151,-0.151,-0.151,-0.12,-0.12,-0.12,-0.12,-0.12,-0.12,-0.12,-0.08900000000000001,-0.08900000000000001,-0.08900000000000001,-0.08900000000000001,-0.08900000000000001,-0.08900000000000001,-0.08900000000000001,-0.08900000000000001,-0.08900000000000001,-0.08900000000000001,-0.059000000000000004,-0.059000000000000004,-0.059000000000000004,-0.059000000000000004,-0.059000000000000004,-0.059000000000000004,-0.059000000000000004,-0.059000000000000004,-0.08900000000000001,-0.08900000000000001,-0.08900000000000001,-0.08900000000000001,-0.08900000000000001,-0.08900000000000001,-0.08900000000000001,-0.08900000000000001,-0.08900000000000001,-0.08900000000000001,-0.12,-0.12,-0.12,-0.12,-0.08900000000000001,-0.059000000000000004,-0.027999999999999997,-0.027999999999999997,0.003,0.003,0.003,-0.027999999999999997,-0.027999999999999997,-0.059000000000000004,-0.059000000000000004,-0.059000000000000004,-0.059000000000000004,-0.059000000000000004,-0.059000000000000004,-0.027999999999999997,0.003,0.003,0.032,0.09300000000000001,0.155,0.21600000000000003,0.247,0.308,0.4,0.46,0.552,0.614,0.736,0.8590000000000001,0.95,1.073,1.165,1.226,1.287,1.317,1.2570000000000001,1.165,1.073,0.98,0.888,0.7979999999999999,0.706,0.644,0.552,0.431,0.33899999999999997,0.247,0.155,0.09300000000000001,0.032,0.003,-0.027999999999999997,-0.059000000000000004,-0.059000000000000004,-0.059000000000000004,-0.059000000000000004,-0.059000000000000004,-0.059000000000000004,-0.059000000000000004,-0.027999999999999997,0.003,0.003,0.003,0.003,-0.027999999999999997,-0.059000000000000004,-0.12,-0.151,-0.18100000000000002,-0.212,-0.243,-0.273,-0.273,-0.273,-0.273,-0.273,-0.243,-0.243,-0.243,-0.212,-0.212,-0.212,-0.212,-0.212,-0.18100000000000002,-0.18100000000000002,-0.18100000000000002,-0.18100000000000002,-0.18100000000000002,-0.18100000000000002,-0.151,-0.151,-0.151,-0.151,-0.151,-0.151,-0.151,-0.151,-0.151,-0.151,-0.151,-0.12,-0.08900000000000001,-0.08900000000000001,-0.08900000000000001,-0.059000000000000004,-0.059000000000000004,-0.059000000000000004,-0.027999999999999997,-0.027999999999999997,0.003,0.003,0.003,-0.027999999999999997,-0.059000000000000004,-0.08900000000000001,-0.151,-0.18100000000000002,-0.212,-0.243,-0.243,-0.243,-0.243,-0.243,-0.243,-0.243,-0.243,-0.243,-0.243,-0.243,-0.243,-0.212,-0.212,-0.212,-0.18100000000000002,-0.18100000000000002,-0.18100000000000002,-0.18100000000000002,-0.212,-0.212,-0.212,-0.18100000000000002,-0.18100000000000002,-0.18100000000000002,-0.18100000000000002,-0.212,-0.212,-0.243,-0.243,-0.243,-0.243,-0.243,-0.212,-0.212,-0.212,-0.212,-0.212,-0.212,-0.212,-0.18100000000000002,-0.212,-0.212,-0.212,-0.212,-0.212,-0.18100000000000002,-0.18100000000000002,-0.151,-0.151,-0.12,-0.08900000000000001,-0.08900000000000001,-0.08900000000000001,-0.08900000000000001,-0.08900000000000001,-0.08900000000000001,-0.12,-0.12,-0.12,-0.12,-0.08900000000000001,-0.059000000000000004,-0.059000000000000004,0.003,0.003,0.003,0.032,0.032,0.032,0.032,0.032,0.003,0.003,0.003,0.003,0.003,0.003,0.003,-0.027999999999999997,-0.027999999999999997,-0.027999999999999997,0.003,0.003,0.003,0.003,0.003,0.003,0.003,0.003,0.003,0.003,0.003,0.003,0.003,0.003,0.003,0.003,0.003,0.003,0.003,0.003,0.032,0.032,0.032,0.032,0.003,0.003,0.003,0.003,0.003,0.003,0.003,0.003,0.003,0.003,0.003,0.003,0.003,0.003,0.003,0.003,0.003,0.003,0.003,0.003,0.003,0.003,0.003,0.003,0.003,0.003,0.003,0.003,0.003,0.003,0.003,0.003,0.003,N
