0,-0.31,-0.282,-0.273,-0.273,-0.255,-0.255,-0.264,-0.273,-0.264,-0.273,-0.264,-0.264,-0.264,-0.255,-0.255,-0.255,-0.255,-0.255,-0.255,-0.255,-0.255,-0.24600000000000002,-0.24600000000000002,-0.24600000000000002,-0.24600000000000002,-0.24600000000000002,-0.24600000000000002,-0.24600000000000002,-0.24600000000000002,-0.24600000000000002,-0.255,-0.255,-0.255,-0.24600000000000002,-0.24600000000000002,-0.237,-0.237,-0.237,-0.24600000000000002,-0.24600000000000002,-0.255,-0.264,-0.264,-0.255,-0.255,-0.24600000000000002,-0.24600000000000002,-0.237,-0.24600000000000002,-0.24600000000000002,-0.24600000000000002,-0.24600000000000002,-0.24600000000000002,-0.237,-0.237,-0.237,-0.237,-0.24600000000000002,-0.237,-0.24600000000000002,-0.24600000000000002,-0.24600000000000002,-0.24600000000000002,-0.237,-0.237,-0.228,-0.228,-0.228,-0.21899999999999997,-0.21,-0.21,-0.21899999999999997,-0.2,-0.21,-0.2,-0.2,-0.2,-0.2,-0.191,-0.191,-0.182,-0.182,-0.182,-0.182,-0.182,-0.182,-0.182,-0.17300000000000001,-0.17300000000000001,-0.182,-0.182,-0.191,-0.191,-0.191,-0.191,-0.191,-0.191,-0.191,-0.2,-0.21,-0.21,-0.21,-0.21899999999999997,-0.21899999999999997,-0.21899999999999997,-0.21899999999999997,-0.21899999999999997,-0.21899999999999997,-0.228,-0.21899999999999997,-0.228,-0.228,-0.21899999999999997,-0.21899999999999997,-0.228,-0.228,-0.228,-0.228,-0.237,-0.237,-0.237,-0.237,-0.228,-0.228,-0.237,-0.237,-0.237,-0.228,-0.228,-0.228,-0.228,-0.228,-0.228,-0.228,-0.237,-0.228,-0.21899999999999997,-0.228,-0.228,-0.228,-0.228,-0.228,-0.228,-0.21899999999999997,-0.21899999999999997,-0.21,-0.21899999999999997,-0.21899999999999997,-0.21,-0.21899999999999997,-0.21899999999999997,-0.228,-0.21899999999999997,-0.21899999999999997,-0.21,-0.21,-0.21,-0.21,-0.21,-0.21,-0.21,-0.2,-0.2,-0.2,-0.2,-0.191,-0.2,-0.2,-0.191,-0.191,-0.182,-0.182,-0.182,-0.182,-0.182,-0.182,-0.191,-0.182,-0.182,-0.182,-0.182,-0.182,-0.191,-0.191,-0.17300000000000001,-0.182,-0.17300000000000001,-0.182,-0.16399999999999998,-0.16399999999999998,-0.16399999999999998,-0.16399999999999998,-0.155,-0.155,-0.155,-0.145,-0.136,-0.136,-0.136,-0.136,-0.136,-0.136,-0.136,-0.136,-0.136,-0.128,-0.136,-0.136,-0.136,-0.136,-0.136,-0.136,-0.136,-0.128,-0.128,-0.136,-0.128,-0.136,-0.136,-0.136,-0.136,-0.145,-0.145,-0.155,-0.155,-0.155,-0.16399999999999998,-0.16399999999999998,-0.155,-0.155,-0.16399999999999998,-0.17300000000000001,-0.16399999999999998,-0.17300000000000001,-0.16399999999999998,-0.155,-0.155,-0.155,-0.155,-0.155,-0.155,-0.155,-0.16399999999999998,-0.16399999999999998,-0.17300000000000001,-0.17300000000000001,-0.182,-0.182,-0.17300000000000001,-0.182,-0.17300000000000001,-0.17300000000000001,-0.17300000000000001,-0.17300000000000001,-0.17300000000000001,-0.17300000000000001,-0.17300000000000001,-0.17300000000000001,-0.17300000000000001,-0.16399999999999998,-0.17300000000000001,-0.16399999999999998,-0.17300000000000001,-0.17300000000000001,-0.16399999999999998,-0.17300000000000001,-0.16399999999999998,-0.17300000000000001,-0.16399999999999998,-0.16399999999999998,-0.16399999999999998,-0.16399999999999998,-0.16399999999999998,-0.155,-0.16399999999999998,-0.16399999999999998,-0.155,-0.155,-0.16399999999999998,-0.16399999999999998,-0.155,-0.155,-0.155,-0.16399999999999998,-0.155,-0.155,-0.145,-0.136,-0.136,-0.128,-0.11800000000000001,-0.109,-0.1,-0.1,-0.091,-0.07200000000000001,-0.054000000000000006,-0.045,-0.027000000000000003,-0.018000000000000002,0.001,0.019,0.046,0.065,0.065,0.046,0.019,-0.018000000000000002,-0.07200000000000001,-0.136,-0.17300000000000001,-0.21,-0.24600000000000002,-0.273,-0.282,-0.301,-0.31,-0.31,-0.31,-0.301,-0.292,-0.273,-0.264,-0.24600000000000002,-0.21899999999999997,-0.21,-0.191,-0.182,-0.17300000000000001,-0.17300000000000001,-0.16399999999999998,-0.16399999999999998,-0.16399999999999998,-0.155,-0.155,-0.155,-0.155,-0.145,-0.155,-0.145,-0.145,-0.155,-0.155,-0.155,-0.145,-0.145,-0.136,-0.136,-0.136,-0.145,-0.145,-0.145,-0.145,-0.145,-0.136,-0.136,-0.136,-0.145,-0.155,-0.145,-0.136,-0.145,-0.136,-0.136,-0.136,-0.136,-0.145,-0.136,-0.145,-0.136,-0.136,-0.136,-0.136,-0.136,-0.145,-0.145,-0.145,-0.145,-0.136,-0.136,-0.145,-0.136,-0.136,-0.136,-0.136,-0.136,-0.136,-0.136,-0.136,-0.128,-0.128,-0.128,-0.11800000000000001,-0.128,-0.11800000000000001,-0.11800000000000001,-0.109,-0.109,-0.109,-0.109,-0.1,-0.1,-0.1,-0.1,-0.091,-0.091,-0.1,-0.1,-0.091,-0.1,-0.091,-0.091,-0.1,-0.091,-0.091,-0.1,-0.109,-0.11800000000000001,-0.11800000000000001,-0.11800000000000001,-0.11800000000000001,-0.11800000000000001,-0.128,-0.136,-0.136,-0.145,-0.145,-0.136,-0.145,-0.145,-0.145,-0.155,-0.155,-0.155,-0.155,-0.145,-0.145,-0.136,-0.145,-0.145,-0.145,-0.145,-0.145,-0.145,-0.155,-0.145,-0.136,-0.136,-0.136,-0.145,-0.145,-0.145,-0.155,-0.155,-0.16399999999999998,-0.16399999999999998,-0.155,-0.16399999999999998,-0.16399999999999998,-0.17300000000000001,-0.17300000000000001,-0.17300000000000001,-0.17300000000000001,-0.17300000000000001,-0.17300000000000001,-0.17300000000000001,-0.17300000000000001,-0.17300000000000001,-0.182,-0.182,-0.182,-0.182,-0.17300000000000001,-0.182,-0.182,-0.182,-0.182,-0.182,-0.17300000000000001,-0.182,-0.17300000000000001,-0.182,-0.17300000000000001,-0.17300000000000001,-0.17300000000000001,-0.17300000000000001,-0.182,-0.182,-0.17300000000000001,-0.17300000000000001,-0.182,-0.182,-0.17300000000000001,-0.17300000000000001,-0.16399999999999998,-0.17300000000000001,-0.16399999999999998,-0.17300000000000001,-0.16399999999999998,-0.16399999999999998,-0.17300000000000001,-0.16399999999999998,-0.17300000000000001,-0.17300000000000001,-0.16399999999999998,-0.16399999999999998,-0.155,-0.155,-0.155,-0.155,-0.155,-0.155,-0.155,-0.155,-0.145,-0.145,-0.155,-0.145,-0.155,-0.155,-0.145,-0.155,-0.145,-0.145,-0.145,-0.145,-0.155,-0.145,-0.145,-0.145,-0.145,-0.145,-0.136,-0.145,-0.155,-0.155,-0.145,-0.145,-0.145,-0.145,-0.136,-0.145,-0.155,-0.145,-0.145,-0.136,-0.136,-0.136,-0.145,-0.145,-0.145,-0.145,-0.145,-0.145,-0.136,-0.136,-0.136,-0.145,-0.136,-0.136,-0.145,-0.136,-0.136,-0.136,-0.128,-0.128,-0.11800000000000001,-0.109,-0.1,-0.091,-0.063,-0.036000000000000004,-0.018000000000000002,0.001,0.019,0.037000000000000005,0.065,0.092,0.12,0.129,0.129,0.10099999999999999,0.055,0.001,-0.027000000000000003,-0.063,-0.109,-0.136,-0.16399999999999998,-0.2,-0.237,-0.264,-0.282,-0.292,-0.301,-0.292,-0.292,-0.282,-0.273,-0.264,-0.24600000000000002,-0.237,-0.21899999999999997,-0.21,-0.2,-0.2,-0.2,-0.191,-0.191,-0.191,-0.191,-0.191,-0.2,-0.191,-0.2,-0.2,-0.191,-0.2,-0.191,-0.191,-0.191,-0.191,-0.191,-0.191,-0.191,-0.191,-0.191,-0.182,-0.182,-0.182,-0.191,-0.191,-0.182,-0.191,-0.182,-0.182,-0.182,-0.182,-0.182,-0.182,-0.182,-0.182,-0.182,-0.182,-0.182,-0.182,-0.182,-0.182,-0.17300000000000001,-0.191,-0.182,-0.182,-0.17300000000000001,-0.17300000000000001,-0.17300000000000001,-0.17300000000000001,-0.17300000000000001,-0.182,-0.17300000000000001,-0.17300000000000001,-0.17300000000000001,-0.16399999999999998,-0.17300000000000001,-0.17300000000000001,-0.16399999999999998,-0.17300000000000001,-0.16399999999999998,-0.16399999999999998,-0.16399999999999998,-0.16399999999999998,-0.155,-0.155,-0.145,-0.155,-0.155,-0.155,-0.145,-0.145,-0.145,-0.145,-0.136,-0.145,-0.145,-0.145,-0.136,-0.136,-0.145,-0.145,-0.136,-0.145,-0.145,-0.155,-0.145,-0.155,-0.16399999999999998,-0.16399999999999998,-0.155,-0.16399999999999998,-0.16399999999999998,-0.155,-0.16399999999999998,-0.16399999999999998,-0.155,-0.16399999999999998,-0.16399999999999998,-0.16399999999999998,-0.16399999999999998,-0.17300000000000001,-0.17300000000000001,-0.182,-0.182,-0.191,-0.17300000000000001,-0.182,-0.17300000000000001,-0.17300000000000001,-0.182,-0.182,-0.182,-0.191,-0.191,-0.2,-0.191,-0.191,-0.182,-0.182,-0.191,-0.191,-0.182,-0.191,-0.182,-0.191,-0.191,-0.191,-0.191,-0.191,-0.191,-0.191,-0.191,-0.191,-0.191,-0.191,-0.182,-0.191,-0.182,-0.182,-0.182,-0.191,-0.191,-0.2,-0.2,-0.21,-0.2,-0.2,-0.2,-0.191,-0.2,-0.2,-0.2,-0.191,-0.182,-0.191,-0.182,-0.182,-0.17300000000000001,-0.182,-0.191,-0.191,-0.191,-0.2,-0.191,-0.191,-0.191,-0.2,-0.2,-0.191,-0.182,-0.182,-0.17300000000000001,-0.17300000000000001,-0.17300000000000001,-0.17300000000000001,-0.17300000000000001,-0.17300000000000001,-0.182,-0.17300000000000001,-0.182,-0.182,-0.17300000000000001,-0.17300000000000001,-0.182,-0.182,-0.17300000000000001,-0.182,-0.17300000000000001,-0.182,-0.182,-0.182,-0.17300000000000001,-0.182,-0.182,-0.182,-0.182,-0.182,-0.182,-0.182,-0.191,-0.191,-0.191,-0.2,-0.2,-0.191,-0.191,-0.191,-0.191,-0.182,-0.182,-0.191,-0.182,-0.17300000000000001,-0.17300000000000001,-0.17300000000000001,-0.17300000000000001,-0.16399999999999998,-0.155,-0.145,-0.145,-0.145,-0.145,-0.136,-0.136,-0.145,-0.155,-0.16399999999999998,-0.16399999999999998,-0.155,-0.145,-0.145,-0.145,-0.155,-0.155,-0.182,-0.182,-0.191,-0.182,-0.191,-0.182,-0.191,-0.191,-0.191,-0.21,-0.21,-0.21,-0.2,-0.21899999999999997,-0.21899999999999997,-0.21899999999999997,-0.21899999999999997,-0.2,-0.2,-0.2,-0.2,-0.2,-0.21,-0.228,-0.237,-0.237,-0.237,-0.255,-0.255,-0.255,-0.255,-0.24600000000000002,-0.24600000000000002,-0.24600000000000002,-0.24600000000000002,-0.255,-0.255,-0.255,-0.264,-0.264,-0.264,-0.273,-0.273,-0.273,-0.273,-0.273,-0.273,-0.273,-0.273,-0.273,-0.273,-0.264,-0.264,-0.264,-0.255,-0.255,-0.264,-0.264,-0.264,-0.264,-0.264,-0.264,-0.255,-0.255,-0.264,-0.264,-0.273,-0.273,-0.273,-0.273,-0.255,-0.24600000000000002,-0.228,-0.228,-0.228,-0.228,-0.21899999999999997,-0.21899999999999997,-0.21,-0.191,-0.182,-0.17300000000000001,-0.155,-0.145,-0.128,-0.1,-0.07200000000000001,-0.054000000000000006,-0.054000000000000006,-0.07200000000000001,-0.1,-0.128,-0.17300000000000001,-0.237,-0.273,-0.319,-0.35600000000000004,-0.38299999999999995,-0.401,-0.42,-0.429,-0.41,-0.41,-0.401,-0.401,-0.392,-0.38299999999999995,-0.365,-0.34700000000000003,-0.33799999999999997,-0.319,-0.301,-0.301,-0.282,-0.273,-0.273,-0.273,-0.273,-0.282,-0.292,-0.292,-0.292,-0.273,-0.273,-0.273,-0.273,-0.273,-0.273,-0.282,-0.273,-0.273,-0.273,-0.273,-0.273,-0.273,-0.282,-0.282,-0.282,-0.273,-0.273,-0.282,-0.282,-0.282,-0.273,-0.292,-0.282,-0.282,-0.273,-0.282,-0.292,-0.292,-0.292,-0.292,-0.301,-0.292,-0.292,-0.292,-0.292,-0.301,N
1,-0.264,-0.24600000000000002,-0.237,-0.228,-0.21,-0.2,-0.191,-0.182,-0.16399999999999998,-0.16399999999999998,-0.16399999999999998,-0.155,-0.155,-0.155,-0.155,-0.155,-0.155,-0.145,-0.155,-0.155,-0.145,-0.155,-0.145,-0.145,-0.145,-0.145,-0.145,-0.145,-0.136,-0.145,-0.145,-0.145,-0.155,-0.145,-0.145,-0.145,-0.145,-0.155,-0.155,-0.155,-0.155,-0.155,-0.155,-0.16399999999999998,-0.155,-0.145,-0.155,-0.155,-0.155,-0.155,-0.155,-0.155,-0.155,-0.155,-0.145,-0.155,-0.145,-0.145,-0.136,-0.136,-0.136,-0.136,-0.136,-0.136,-0.128,-0.136,-0.136,-0.136,-0.128,-0.128,-0.11800000000000001,-0.11800000000000001,-0.109,-0.109,-0.109,-0.109,-0.109,-0.1,-0.1,-0.1,-0.091,-0.091,-0.1,-0.1,-0.1,-0.1,-0.1,-0.1,-0.1,-0.1,-0.1,-0.109,-0.109,-0.109,-0.11800000000000001,-0.11800000000000001,-0.11800000000000001,-0.128,-0.136,-0.136,-0.128,-0.136,-0.128,-0.136,-0.136,-0.136,-0.136,-0.136,-0.136,-0.136,-0.136,-0.136,-0.136,-0.136,-0.145,-0.145,-0.136,-0.145,-0.136,-0.136,-0.145,-0.145,-0.145,-0.145,-0.145,-0.155,-0.145,-0.145,-0.145,-0.155,-0.155,-0.155,-0.145,-0.155,-0.145,-0.145,-0.145,-0.155,-0.155,-0.145,-0.145,-0.155,-0.145,-0.145,-0.145,-0.155,-0.155,-0.155,-0.155,-0.155,-0.145,-0.145,-0.136,-0.145,-0.145,-0.145,-0.145,-0.145,-0.145,-0.145,-0.145,-0.145,-0.145,-0.145,-0.155,-0.145,-0.145,-0.136,-0.136,-0.136,-0.136,-0.136,-0.136,-0.136,-0.136,-0.128,-0.136,-0.11800000000000001,-0.11800000000000001,-0.11800000000000001,-0.109,-0.109,-0.1,-0.1,-0.1,-0.1,-0.1,-0.1,-0.1,-0.1,-0.1,-0.091,-0.091,-0.091,-0.109,-0.1,-0.091,-0.1,-0.091,-0.1,-0.1,-0.1,-0.109,-0.128,-0.128,-0.136,-0.136,-0.145,-0.145,-0.145,-0.145,-0.145,-0.145,-0.155,-0.145,-0.155,-0.155,-0.155,-0.155,-0.145,-0.145,-0.145,-0.155,-0.155,-0.155,-0.16399999999999998,-0.16399999999999998,-0.17300000000000001,-0.16399999999999998,-0.182,-0.17300000000000001,-0.182,-0.182,-0.17300000000000001,-0.17300000000000001,-0.17300000000000001,-0.17300000000000001,-0.17300000000000001,-0.17300000000000001,-0.17300000000000001,-0.17300000000000001,-0.191,-0.182,-0.182,-0.17300000000000001,-0.182,-0.17300000000000001,-0.17300000000000001,-0.17300000000000001,-0.17300000000000001,-0.16399999999999998,-0.17300000000000001,-0.17300000000000001,-0.182,-0.182,-0.182,-0.182,-0.182,-0.17300000000000001,-0.17300000000000001,-0.17300000000000001,-0.182,-0.182,-0.17300000000000001,-0.16399999999999998,-0.16399999999999998,-0.16399999999999998,-0.16399999999999998,-0.16399999999999998,-0.17300000000000001,-0.16399999999999998,-0.155,-0.145,-0.136,-0.145,-0.136,-0.11800000000000001,-0.11800000000000001,-0.1,-0.091,-0.07200000000000001,-0.063,-0.045,-0.027000000000000003,-0.008,0.001,0.001,0.01,0.01,0.001,-0.036000000000000004,-0.08199999999999999,-0.128,-0.16399999999999998,-0.2,-0.228,-0.264,-0.273,-0.292,-0.31,-0.319,-0.32799999999999996,-0.32799999999999996,-0.319,-0.31,-0.301,-0.282,-0.273,-0.255,-0.237,-0.21899999999999997,-0.21,-0.2,-0.2,-0.191,-0.182,-0.182,-0.182,-0.182,-0.182,-0.17300000000000001,-0.182,-0.191,-0.182,-0.17300000000000001,-0.17300000000000001,-0.17300000000000001,-0.182,-0.182,-0.182,-0.17300000000000001,-0.17300000000000001,-0.182,-0.17300000000000001,-0.17300000000000001,-0.16399999999999998,-0.16399999999999998,-0.16399999999999998,-0.17300000000000001,-0.17300000000000001,-0.16399999999999998,-0.16399999999999998,-0.16399999999999998,-0.16399999999999998,-0.155,-0.16399999999999998,-0.16399999999999998,-0.16399999999999998,-0.17300000000000001,-0.17300000000000001,-0.155,-0.155,-0.155,-0.16399999999999998,-0.16399999999999998,-0.16399999999999998,-0.16399999999999998,-0.16399999999999998,-0.16399999999999998,-0.16399999999999998,-0.16399999999999998,-0.16399999999999998,-0.16399999999999998,-0.16399999999999998,-0.155,-0.16399999999999998,-0.155,-0.155,-0.145,-0.155,-0.155,-0.155,-0.145,-0.145,-0.136,-0.136,-0.136,-0.136,-0.136,-0.136,-0.136,-0.136,-0.136,-0.128,-0.128,-0.128,-0.128,-0.128,-0.11800000000000001,-0.11800000000000001,-0.128,-0.11800000000000001,-0.11800000000000001,-0.11800000000000001,-0.11800000000000001,-0.11800000000000001,-0.11800000000000001,-0.11800000000000001,-0.11800000000000001,-0.11800000000000001,-0.11800000000000001,-0.11800000000000001,-0.136,-0.128,-0.128,-0.136,-0.128,-0.128,-0.128,-0.136,-0.136,-0.136,-0.145,-0.145,-0.145,-0.145,-0.136,-0.145,-0.145,-0.155,-0.145,-0.155,-0.155,-0.145,-0.145,-0.155,-0.155,-0.155,-0.155,-0.155,-0.145,-0.155,-0.155,-0.145,-0.155,-0.155,-0.136,-0.145,-0.136,-0.136,-0.136,-0.145,-0.155,-0.155,-0.155,-0.155,-0.145,-0.155,-0.155,-0.145,-0.145,-0.145,-0.136,-0.136,-0.136,-0.136,-0.145,-0.145,-0.145,-0.155,-0.155,-0.145,-0.145,-0.145,-0.155,-0.145,-0.136,-0.136,-0.136,-0.136,-0.136,-0.136,-0.136,-0.136,-0.136,-0.136,-0.136,-0.136,-0.136,-0.136,-0.136,-0.136,-0.136,-0.136,-0.11800000000000001,-0.109,-0.1,-0.1,-0.091,-0.091,-0.091,-0.091,-0.1,-0.1,-0.1,-0.109,-0.109,-0.109,-0.109,-0.1,-0.1,-0.1,-0.1,-0.1,-0.109,-0.109,-0.109,-0.11800000000000001,-0.11800000000000001,-0.11800000000000001,-0.11800000000000001,-0.128,-0.136,-0.136,-0.136,-0.136,-0.136,-0.145,-0.145,-0.136,-0.155,-0.155,-0.155,-0.155,-0.16399999999999998,-0.145,-0.145,-0.145,-0.155,-0.16399999999999998,-0.17300000000000001,-0.17300000000000001,-0.16399999999999998,-0.16399999999999998,-0.16399999999999998,-0.16399999999999998,-0.16399999999999998,-0.17300000000000001,-0.182,-0.191,-0.191,-0.191,-0.191,-0.182,-0.182,-0.182,-0.191,-0.191,-0.182,-0.191,-0.17300000000000001,-0.182,-0.182,-0.191,-0.191,-0.191,-0.2,-0.2,-0.2,-0.182,-0.191,-0.182,-0.191,-0.191,-0.191,-0.2,-0.2,-0.2,-0.2,-0.2,-0.191,-0.191,-0.191,-0.182,-0.191,-0.182,-0.17300000000000001,-0.17300000000000001,-0.17300000000000001,-0.16399999999999998,-0.155,-0.16399999999999998,-0.155,-0.145,-0.136,-0.11800000000000001,-0.109,-0.091,-0.091,-0.07200000000000001,-0.054000000000000006,-0.036000000000000004,-0.008,0.001,0.001,0.001,-0.027000000000000003,-0.07200000000000001,-0.128,-0.182,-0.237,-0.273,-0.292,-0.32799999999999996,-0.35600000000000004,-0.365,-0.365,-0.365,-0.365,-0.365,-0.35600000000000004,-0.33799999999999997,-0.319,-0.301,-0.273,-0.273,-0.24600000000000002,-0.237,-0.237,-0.228,-0.21899999999999997,-0.21899999999999997,-0.21899999999999997,-0.21899999999999997,-0.21899999999999997,-0.21,-0.228,-0.228,-0.228,-0.228,-0.21899999999999997,-0.21899999999999997,-0.21,-0.21,-0.21,-0.21899999999999997,-0.21899999999999997,-0.21899999999999997,-0.21899999999999997,-0.21899999999999997,-0.21899999999999997,-0.21,-0.21899999999999997,-0.21899999999999997,-0.228,-0.237,-0.228,-0.21899999999999997,-0.21,-0.21899999999999997,-0.21,-0.21,-0.21,-0.21,-0.21899999999999997,-0.228,-0.237,-0.228,-0.228,-0.228,-0.228,-0.237,-0.21899999999999997,-0.21,-0.21899999999999997,-0.21,-0.21,-0.21,-0.21899999999999997,-0.21,-0.21,-0.21899999999999997,-0.21899999999999997,-0.21899999999999997,-0.21,-0.2,-0.191,-0.2,-0.191,-0.191,-0.182,-0.17300000000000001,-0.182,-0.17300000000000001,-0.17300000000000001,-0.17300000000000001,-0.17300000000000001,-0.182,-0.17300000000000001,-0.17300000000000001,-0.182,-0.17300000000000001,-0.16399999999999998,-0.17300000000000001,-0.16399999999999998,-0.17300000000000001,-0.17300000000000001,-0.17300000000000001,-0.16399999999999998,-0.16399999999999998,-0.16399999999999998,-0.17300000000000001,-0.16399999999999998,-0.16399999999999998,-0.191,-0.2,-0.2,-0.21,-0.2,-0.2,-0.191,-0.191,-0.191,-0.182,-0.2,-0.21,-0.21,-0.21,-0.2,-0.2,-0.2,-0.2,-0.21,-0.21899999999999997,-0.21899999999999997,-0.237,-0.21899999999999997,-0.21,-0.2,-0.2,-0.191,-0.2,-0.2,-0.21,-0.21,-0.21,-0.21899999999999997,-0.21899999999999997,-0.228,-0.237,-0.21899999999999997,-0.21899999999999997,-0.21,-0.21899999999999997,-0.21,-0.21899999999999997,-0.228,-0.228,-0.21899999999999997,-0.21899999999999997,-0.21899999999999997,-0.21899999999999997,-0.21899999999999997,-0.21899999999999997,-0.228,-0.228,-0.21899999999999997,-0.21899999999999997,-0.21,-0.2,-0.191,-0.2,-0.21,-0.21899999999999997,-0.228,-0.237,-0.237,-0.237,-0.21899999999999997,-0.2,-0.21,-0.21,-0.2,-0.2,-0.191,-0.21,-0.191,-0.191,-0.21,-0.21,-0.21899999999999997,-0.21,-0.21,-0.21,-0.2,-0.2,-0.2,-0.182,-0.182,-0.17300000000000001,-0.17300000000000001,-0.16399999999999998,-0.16399999999999998,-0.16399999999999998,-0.17300000000000001,-0.17300000000000001,-0.182,-0.182,-0.17300000000000001,-0.16399999999999998,-0.155,-0.155,-0.155,-0.155,-0.145,-0.155,-0.155,-0.16399999999999998,-0.17300000000000001,-0.182,-0.191,-0.191,-0.2,-0.2,-0.21,-0.2,-0.2,-0.2,-0.21,-0.21,-0.2,-0.2,-0.2,-0.2,-0.21,-0.21,-0.21,-0.21899999999999997,-0.21899999999999997,-0.21899999999999997,-0.21899999999999997,-0.21899999999999997,-0.21899999999999997,-0.21899999999999997,-0.237,-0.228,-0.228,-0.24600000000000002,-0.24600000000000002,-0.24600000000000002,-0.237,-0.237,-0.237,-0.228,-0.237,-0.237,-0.237,-0.24600000000000002,-0.237,-0.237,-0.24600000000000002,-0.255,-0.24600000000000002,-0.255,-0.24600000000000002,-0.24600000000000002,-0.24600000000000002,-0.24600000000000002,-0.24600000000000002,-0.24600000000000002,-0.237,-0.237,-0.237,-0.237,-0.24600000000000002,-0.237,-0.237,-0.237,-0.228,-0.237,-0.237,-0.228,-0.228,-0.21899999999999997,-0.21899999999999997,-0.228,-0.228,-0.228,-0.21899999999999997,-0.21899999999999997,-0.21,-0.2,-0.191,-0.182,-0.17300000000000001,-0.17300000000000001,-0.16399999999999998,-0.155,-0.145,-0.145,-0.136,-0.11800000000000001,-0.109,-0.091,-0.07200000000000001,-0.054000000000000006,-0.036000000000000004,-0.027000000000000003,-0.036000000000000004,-0.054000000000000006,-0.07200000000000001,-0.11800000000000001,-0.155,-0.21,-0.24600000000000002,-0.273,-0.31,-0.33799999999999997,-0.35600000000000004,-0.365,-0.365,-0.35600000000000004,-0.34700000000000003,-0.32799999999999996,-0.319,-0.301,-0.273,-0.264,-0.24600000000000002,-0.228,-0.21899999999999997,-0.21,-0.2,-0.2,-0.191,-0.2,-0.182,-0.182,-0.182,-0.182,-0.182,-0.191,-0.17300000000000001,-0.182,-0.17300000000000001,-0.16399999999999998,-0.16399999999999998,-0.16399999999999998,-0.16399999999999998,-0.16399999999999998,-0.155,-0.155,-0.155,-0.155,-0.155,-0.155,-0.16399999999999998,-0.16399999999999998,-0.145,-0.155,-0.145,-0.145,-0.136,-0.145,-0.145,-0.145,-0.136,-0.136,-0.136,-0.136,-0.136,-0.136,-0.136,-0.136,-0.136,-0.136,-0.128,-0.128,-0.128,-0.128,-0.128,-0.128,-0.11800000000000001,-0.11800000000000001,-0.11800000000000001,-0.109,-0.109,-0.1,-0.109,-0.109,-0.1,-0.1,-0.1,-0.091,-0.08199999999999999,-0.08199999999999999,-0.07200000000000001,-0.08199999999999999,-0.07200000000000001,-0.07200000000000001,-0.063,-0.063,-0.054000000000000006,-0.054000000000000006,-0.054000000000000006,-0.054000000000000006,-0.054000000000000006,-0.054000000000000006,-0.054000000000000006,-0.045,N
2,0.10099999999999999,0.129,0.138,0.147,0.165,0.174,0.174,0.183,0.183,0.183,0.183,0.183,0.183,0.183,0.193,0.193,0.193,0.193,0.193,0.193,0.20199999999999999,0.20199999999999999,0.20199999999999999,0.20199999999999999,0.193,0.193,0.20199999999999999,0.20199999999999999,0.20199999999999999,0.20199999999999999,0.20199999999999999,0.20199999999999999,0.20199999999999999,0.20199999999999999,0.20199999999999999,0.21100000000000002,0.20199999999999999,0.21100000000000002,0.21100000000000002,0.20199999999999999,0.193,0.193,0.21100000000000002,0.20199999999999999,0.20199999999999999,0.20199999999999999,0.20199999999999999,0.21100000000000002,0.21100000000000002,0.20199999999999999,0.21100000000000002,0.21100000000000002,0.21100000000000002,0.20199999999999999,0.21100000000000002,0.21100000000000002,0.20199999999999999,0.20199999999999999,0.21100000000000002,0.21100000000000002,0.22,0.22,0.22,0.22,0.22899999999999998,0.22899999999999998,0.22899999999999998,0.22899999999999998,0.22899999999999998,0.22899999999999998,0.23800000000000002,0.23800000000000002,0.23800000000000002,0.23800000000000002,0.247,0.23800000000000002,0.247,0.247,0.247,0.247,0.257,0.247,0.257,0.257,0.247,0.257,0.257,0.257,0.247,0.23800000000000002,0.247,0.23800000000000002,0.247,0.23800000000000002,0.23800000000000002,0.23800000000000002,0.23800000000000002,0.22899999999999998,0.22899999999999998,0.22899999999999998,0.22,0.22,0.22,0.22,0.21100000000000002,0.20199999999999999,0.21100000000000002,0.20199999999999999,0.21100000000000002,0.21100000000000002,0.21100000000000002,0.21100000000000002,0.20199999999999999,0.21100000000000002,0.21100000000000002,0.20199999999999999,0.20199999999999999,0.20199999999999999,0.20199999999999999,0.20199999999999999,0.20199999999999999,0.20199999999999999,0.21100000000000002,0.20199999999999999,0.20199999999999999,0.193,0.193,0.193,0.20199999999999999,0.193,0.193,0.193,0.193,0.193,0.20199999999999999,0.20199999999999999,0.193,0.193,0.20199999999999999,0.193,0.20199999999999999,0.193,0.193,0.20199999999999999,0.193,0.20199999999999999,0.20199999999999999,0.193,0.193,0.20199999999999999,0.20199999999999999,0.20199999999999999,0.193,0.193,0.193,0.183,0.193,0.193,0.20199999999999999,0.193,0.20199999999999999,0.20199999999999999,0.193,0.20199999999999999,0.20199999999999999,0.20199999999999999,0.20199999999999999,0.193,0.193,0.20199999999999999,0.20199999999999999,0.21100000000000002,0.21100000000000002,0.22,0.22,0.22899999999999998,0.23800000000000002,0.23800000000000002,0.23800000000000002,0.247,0.247,0.247,0.247,0.247,0.247,0.247,0.247,0.23800000000000002,0.257,0.247,0.247,0.23800000000000002,0.247,0.23800000000000002,0.247,0.247,0.23800000000000002,0.22899999999999998,0.22,0.21100000000000002,0.20199999999999999,0.20199999999999999,0.20199999999999999,0.193,0.193,0.20199999999999999,0.20199999999999999,0.20199999999999999,0.20199999999999999,0.20199999999999999,0.193,0.193,0.193,0.193,0.193,0.183,0.174,0.183,0.183,0.174,0.183,0.183,0.183,0.183,0.174,0.174,0.165,0.165,0.165,0.174,0.174,0.174,0.174,0.174,0.174,0.165,0.174,0.165,0.165,0.165,0.165,0.156,0.165,0.165,0.156,0.156,0.174,0.165,0.156,0.156,0.165,0.156,0.165,0.165,0.156,0.165,0.165,0.165,0.165,0.165,0.174,0.165,0.165,0.165,0.165,0.165,0.174,0.174,0.183,0.193,0.20199999999999999,0.21100000000000002,0.21100000000000002,0.22899999999999998,0.23800000000000002,0.247,0.265,0.275,0.293,0.311,0.311,0.33899999999999997,0.366,0.385,0.385,0.385,0.348,0.302,0.257,0.21100000000000002,0.156,0.129,0.10099999999999999,0.07400000000000001,0.046,0.019,0.01,0.001,0.001,0.001,0.01,0.01,0.027999999999999997,0.046,0.065,0.083,0.10099999999999999,0.11,0.12,0.129,0.138,0.138,0.138,0.138,0.138,0.138,0.138,0.138,0.138,0.147,0.147,0.147,0.147,0.147,0.147,0.147,0.001,0.001,0.001,0.001,0.001,0.001,0.001,0.001,0.001,0.001,0.001,0.001,0.001,0.001,0.001,0.001,0.001,0.001,0.001,0.001,0.001,0.001,0.001,0.001,0.001,0.001,0.001,0.001,0.001,0.001,0.001,0.001,0.001,0.001,0.001,0.001,0.001,0.001,0.001,0.001,0.001,0.001,0.001,0.001,0.001,0.001,0.001,0.001,0.001,0.001,0.001,0.001,0.001,0.001,0.001,0.001,0.001,0.001,0.001,0.001,0.001,0.001,0.001,0.001,0.001,0.001,0.001,0.001,0.001,0.001,0.001,0.001,0.001,0.001,0.001,0.001,0.001,0.001,0.001,0.001,0.001,0.001,0.001,0.001,0.001,0.001,0.001,0.001,0.001,0.001,0.001,0.001,0.001,0.001,0.001,0.001,0.001,0.001,0.001,0.001,0.001,0.001,0.001,0.001,0.001,0.001,0.001,0.001,0.001,0.001,0.001,0.001,0.001,0.001,0.001,0.001,0.001,0.001,0.001,0.001,0.001,0.001,0.001,0.001,0.001,0.001,0.001,0.001,0.001,0.001,0.001,0.001,0.001,0.001,0.001,0.001,0.001,0.001,0.001,0.001,0.001,0.001,0.001,0.001,0.001,0.001,0.001,0.001,0.001,0.001,0.001,0.001,0.001,0.001,0.001,0.001,0.001,0.001,0.001,0.001,0.001,0.001,0.001,0.001,0.001,0.001,0.001,0.001,0.001,0.001,0.001,0.001,0.001,0.001,0.001,0.001,0.001,0.001,0.001,0.001,0.001,0.001,0.001,0.001,0.001,0.001,0.001,0.001,0.001,0.001,0.001,0.001,0.001,0.001,0.001,0.001,0.001,0.001,0.001,0.001,0.001,0.001,0.001,0.001,0.001,0.001,0.001,0.001,0.001,0.001,0.001,0.001,0.001,0.001,0.001,0.001,0.001,0.001,0.001,0.001,0.001,0.001,0.001,0.001,0.001,0.001,0.001,0.001,0.001,0.001,0.001,0.001,0.001,0.001,0.001,0.001,0.001,0.001,0.001,0.001,0.001,0.001,0.001,0.001,0.001,0.001,0.001,0.001,0.001,0.001,0.001,0.001,0.001,0.001,0.001,0.001,-0.11800000000000001,-0.11800000000000001,-0.11800000000000001,-0.11800000000000001,-0.109,-0.11800000000000001,-0.109,-0.11800000000000001,-0.11800000000000001,-0.11800000000000001,-0.11800000000000001,-0.11800000000000001,-0.11800000000000001,-0.11800000000000001,-0.109,-0.11800000000000001,-0.11800000000000001,-0.11800000000000001,-0.128,-0.128,-0.11800000000000001,-0.128,-0.128,-0.11800000000000001,-0.109,-0.11800000000000001,-0.11800000000000001,-0.11800000000000001,-0.11800000000000001,-0.11800000000000001,-0.11800000000000001,-0.11800000000000001,-0.109,-0.11800000000000001,-0.11800000000000001,-0.128,-0.11800000000000001,-0.128,-0.11800000000000001,-0.11800000000000001,-0.109,-0.11800000000000001,-0.11800000000000001,-0.11800000000000001,-0.11800000000000001,-0.11800000000000001,-0.11800000000000001,-0.11800000000000001,-0.11800000000000001,-0.11800000000000001,-0.11800000000000001,-0.11800000000000001,-0.11800000000000001,-0.128,-0.109,-0.11800000000000001,-0.11800000000000001,-0.11800000000000001,-0.11800000000000001,-0.11800000000000001,-0.11800000000000001,-0.11800000000000001,-0.11800000000000001,-0.11800000000000001,-0.109,-0.109,-0.128,-0.11800000000000001,-0.11800000000000001,-0.128,-0.11800000000000001,-0.11800000000000001,-0.109,-0.109,-0.11800000000000001,-0.11800000000000001,-0.11800000000000001,-0.11800000000000001,-0.128,-0.11800000000000001,-0.109,-0.109,-0.11800000000000001,-0.11800000000000001,-0.11800000000000001,-0.128,-0.11800000000000001,-0.11800000000000001,-0.109,-0.109,-0.109,-0.109,-0.11800000000000001,-0.11800000000000001,-0.11800000000000001,-0.11800000000000001,-0.11800000000000001,-0.109,-0.11800000000000001,-0.11800000000000001,-0.11800000000000001,-0.128,-0.11800000000000001,-0.11800000000000001,-0.109,-0.109,-0.109,-0.11800000000000001,-0.109,-0.11800000000000001,-0.11800000000000001,-0.11800000000000001,-0.11800000000000001,-0.109,-0.11800000000000001,-0.11800000000000001,-0.109,-0.11800000000000001,-0.11800000000000001,-0.11800000000000001,-0.109,-0.109,-0.11800000000000001,-0.109,-0.109,-0.11800000000000001,-0.11800000000000001,-0.11800000000000001,-0.11800000000000001,-0.109,-0.11800000000000001,-0.11800000000000001,-0.109,-0.11800000000000001,-0.11800000000000001,-0.11800000000000001,-0.11800000000000001,-0.109,-0.11800000000000001,-0.109,-0.109,-0.11800000000000001,-0.11800000000000001,-0.11800000000000001,-0.11800000000000001,-0.11800000000000001,-0.11800000000000001,-0.11800000000000001,-0.109,-0.11800000000000001,-0.109,-0.11800000000000001,-0.11800000000000001,-0.11800000000000001,-0.109,-0.109,-0.109,-0.109,-0.109,-0.11800000000000001,-0.11800000000000001,-0.11800000000000001,-0.054000000000000006,0.33899999999999997,0.613,0.777,0.853,0.853,0.853,0.853,0.853,0.853,0.853,0.853,0.853,0.853,0.853,0.853,0.853,0.853,0.853,0.853,0.853,0.853,0.853,0.853,0.853,0.853,0.853,0.853,0.853,0.853,0.853,0.853,0.853,0.853,0.853,0.853,0.853,0.853,0.853,0.853,0.853,0.853,0.853,0.853,0.853,0.853,0.853,0.853,0.853,0.853,0.853,0.853,0.853,0.853,0.853,0.853,0.853,0.853,0.853,0.853,0.853,0.853,0.853,0.853,0.853,0.853,0.853,0.853,0.853,0.853,0.853,0.853,0.853,0.853,0.853,0.853,0.853,0.853,0.853,0.853,0.853,0.853,0.853,0.853,0.853,0.853,0.853,0.853,0.853,0.853,0.853,0.853,0.853,0.853,0.853,0.853,0.853,0.853,0.853,0.853,0.853,0.853,0.853,0.853,0.853,0.853,0.853,0.853,0.853,0.853,0.853,0.853,0.853,0.853,0.853,0.853,0.853,0.853,0.853,0.853,0.853,0.853,0.853,0.853,0.853,0.853,0.853,0.853,0.853,0.853,0.853,0.853,0.853,0.853,0.853,0.853,0.853,0.853,0.853,0.853,0.853,0.853,0.853,0.853,0.853,0.47600000000000003,0.20199999999999999,0.027999999999999997,-0.063,-0.109,-0.136,-0.16399999999999998,-0.17300000000000001,-0.182,-0.191,-0.191,-0.2,-0.2,-0.2,-0.2,-0.2,-0.2,-0.2,-0.2,-0.191,-0.2,-0.2,-0.191,-0.191,-0.191,-0.191,-0.191,-0.191,-0.2,-0.191,-0.191,-0.2,-0.191,-0.191,-0.2,-0.191,-0.2,-0.191,-0.191,-0.191,-0.182,-0.191,-0.182,-0.191,-0.191,-0.191,-0.191,-0.2,-0.191,-0.191,-0.191,-0.191,-0.2,-0.191,-0.191,-0.191,-0.191,-0.191,-0.191,-0.191,-0.182,-0.191,-0.191,-0.191,-0.191,-0.191,-0.191,-0.182,-0.182,-0.191,-0.191,-0.191,-0.191,-0.182,-0.191,-0.182,-0.191,-0.191,-0.191,-0.191,-0.191,-0.182,-0.182,-0.191,-0.182,-0.182,-0.191,-0.191,-0.191,-0.182,-0.182,-0.182,-0.182,-0.182,-0.182,-0.191,-0.191,-0.182,-0.191,-0.182,-0.182,-0.182,-0.182,-0.182,-0.182,-0.182,-0.182,-0.182,-0.182,-0.182,-0.182,N
3,-0.2,-0.2,-0.191,-0.2,-0.2,-0.191,-0.191,-0.191,-0.191,-0.191,-0.191,-0.2,-0.191,-0.191,-0.2,-0.191,-0.191,-0.2,-0.191,-0.2,-0.191,-0.191,-0.191,-0.182,-0.191,-0.182,-0.191,-0.191,-0.191,-0.191,-0.2,-0.191,-0.191,-0.191,-0.191,-0.2,-0.191,-0.191,-0.191,-0.191,-0.191,-0.191,-0.191,-0.182,-0.191,-0.191,-0.191,-0.191,-0.191,-0.191,-0.182,-0.182,-0.191,-0.191,-0.191,-0.191,-0.182,-0.191,-0.182,-0.191,-0.191,-0.191,-0.191,-0.191,-0.182,-0.182,-0.191,-0.182,-0.182,-0.191,-0.191,-0.191,-0.182,-0.182,-0.182,-0.182,-0.182,-0.182,-0.191,-0.191,-0.182,-0.191,-0.182,-0.182,-0.182,-0.182,-0.182,-0.182,-0.182,-0.182,-0.182,-0.182,-0.182,-0.182,-0.191,-0.191,-0.182,-0.182,-0.182,-0.182,-0.182,-0.182,-0.182,-0.182,-0.191,-0.182,-0.182,-0.182,-0.182,-0.182,-0.191,-0.191,-0.182,-0.182,-0.182,-0.182,-0.182,-0.182,-0.182,-0.182,-0.182,-0.182,-0.182,-0.182,-0.182,-0.182,-0.182,-0.182,-0.182,-0.191,-0.182,-0.182,-0.182,-0.182,-0.182,-0.182,-0.182,-0.182,-0.182,-0.182,0.001,0.001,0.001,0.001,0.001,0.001,0.001,0.001,0.001,0.001,0.001,0.001,0.001,0.001,0.001,0.001,0.001,0.001,0.001,0.001,0.001,0.001,0.001,0.001,0.001,0.001,0.001,0.001,0.001,0.001,0.001,0.001,0.001,0.001,0.001,0.001,0.001,0.001,0.001,0.001,0.001,0.001,0.001,0.001,0.001,0.001,0.001,0.001,0.001,0.001,0.001,0.001,0.001,0.001,0.001,0.001,0.001,0.001,0.001,0.001,0.001,0.001,0.001,0.001,0.001,0.001,0.001,0.001,0.001,0.001,0.001,0.001,0.001,0.001,0.001,0.001,0.001,0.001,0.001,0.001,0.001,0.001,0.001,0.001,0.001,0.001,0.001,0.001,0.001,0.001,0.001,0.001,0.001,0.001,0.001,0.001,0.001,0.001,0.001,0.001,0.001,0.001,0.001,0.001,0.001,0.001,0.001,0.001,0.001,0.001,0.001,0.001,0.001,0.001,0.001,0.001,0.001,0.001,0.001,0.001,0.001,0.001,0.001,0.001,0.001,0.001,0.001,0.001,0.001,0.001,0.001,0.001,0.001,0.001,0.001,0.001,0.001,0.001,0.001,0.001,0.001,0.001,0.001,0.001,0.001,0.001,0.001,0.001,0.001,0.001,0.001,0.001,0.001,0.001,0.001,0.001,0.001,0.001,0.001,0.001,0.001,0.001,0.001,0.001,0.001,0.001,0.001,0.001,0.001,0.001,0.001,0.001,0.001,0.001,0.001,0.001,0.001,0.001,0.001,0.001,0.001,0.001,0.001,0.001,0.001,0.001,0.001,0.001,0.001,0.001,0.001,0.001,0.001,0.001,0.001,0.001,0.001,0.001,0.001,0.001,0.001,0.001,0.001,0.001,0.001,0.001,0.001,0.001,0.001,0.001,0.001,0.001,0.001,0.001,0.001,0.001,0.001,0.001,0.001,0.001,0.001,0.001,0.001,0.001,0.001,0.001,0.001,0.001,0.001,0.001,0.001,0.001,0.001,0.001,0.001,0.001,0.001,0.001,0.001,0.001,0.001,0.001,0.001,0.001,0.001,0.001,0.001,0.001,0.001,0.001,0.001,0.001,0.001,0.001,0.001,0.001,0.23800000000000002,0.23800000000000002,0.22899999999999998,0.22899999999999998,0.23800000000000002,0.22899999999999998,0.23800000000000002,0.22899999999999998,0.22899999999999998,0.22899999999999998,0.22899999999999998,0.22899999999999998,0.22899999999999998,0.22899999999999998,0.22899999999999998,0.22,0.22,0.22899999999999998,0.21100000000000002,0.22,0.22899999999999998,0.21100000000000002,0.22,0.22,0.22,0.22,0.22,0.22,0.22899999999999998,0.22,0.22,0.22,0.22,0.22,0.22,0.22,0.22899999999999998,0.22,0.22899999999999998,0.22899999999999998,0.22899999999999998,0.22899999999999998,0.22899999999999998,0.22899999999999998,0.23800000000000002,0.22899999999999998,0.22899999999999998,0.23800000000000002,0.23800000000000002,0.247,0.23800000000000002,0.23800000000000002,0.247,0.23800000000000002,0.247,0.247,0.257,0.247,0.257,0.257,0.265,0.265,0.265,0.265,0.275,0.265,0.257,0.265,0.275,0.265,0.275,0.275,0.275,0.275,0.275,0.275,0.275,0.275,0.275,0.275,0.284,0.275,0.284,0.284,0.293,0.293,0.302,0.311,0.311,0.32,0.32,0.33,0.33,0.33,0.33,0.33,0.33,0.33899999999999997,0.33,0.33,0.33899999999999997,0.33,0.33,0.33899999999999997,0.33899999999999997,0.33899999999999997,0.33899999999999997,0.33899999999999997,0.33899999999999997,0.33899999999999997,0.33,0.33,0.32,0.311,0.311,0.293,0.302,0.293,0.302,0.302,0.302,0.302,0.302,0.293,0.284,0.293,0.293,0.293,0.302,0.302,0.293,0.293,0.293,0.293,0.284,0.284,0.284,0.284,0.275,0.275,0.275,0.275,0.284,0.293,0.293,0.284,0.284,0.284,0.284,0.275,0.284,0.284,0.275,0.284,0.284,0.284,0.284,0.284,0.284,0.284,0.284,0.284,0.275,0.284,0.293,0.284,0.293,0.293,0.284,0.284,0.284,0.275,0.275,0.284,0.284,0.284,0.284,0.293,0.293,0.293,0.311,0.311,0.33,0.33899999999999997,0.348,0.35700000000000004,0.375,0.385,0.39299999999999996,0.41200000000000003,0.42100000000000004,0.43,0.45799999999999996,0.47600000000000003,0.503,0.512,0.53,0.503,0.47600000000000003,0.43,0.39299999999999996,0.33899999999999997,0.293,0.257,0.22,0.193,0.156,0.138,0.138,0.138,0.138,0.138,0.147,0.156,0.174,0.193,0.21100000000000002,0.23800000000000002,0.257,0.265,0.275,0.275,0.275,0.275,0.275,0.275,0.275,0.275,0.284,0.275,0.275,0.275,0.275,0.284,0.284,0.284,0.284,0.284,0.284,0.284,0.284,0.284,0.284,0.284,0.293,0.284,0.293,0.284,0.284,0.293,0.284,0.293,0.293,0.293,0.293,0.293,0.293,0.293,0.284,0.284,0.284,0.293,0.293,0.293,0.293,0.284,0.284,0.293,0.293,0.293,0.293,0.293,0.284,0.284,0.284,0.293,0.293,0.293,0.293,0.302,0.302,0.302,0.311,0.311,0.311,0.32,0.32,0.32,0.32,0.32,0.311,0.32,0.33,0.32,0.33899999999999997,0.33899999999999997,0.33899999999999997,0.33,0.33,0.33,0.33,0.33899999999999997,0.33,0.33,0.32,0.33,0.32,0.311,0.311,0.311,0.311,0.311,0.302,0.302,0.302,0.302,0.302,0.293,0.293,0.293,0.293,0.284,0.275,0.275,0.275,0.275,0.275,0.275,0.275,0.275,0.275,0.275,0.275,0.275,0.275,0.275,0.275,0.275,0.265,0.265,0.275,0.265,0.265,0.265,0.265,0.265,0.265,0.265,0.265,0.257,0.265,0.265,0.265,0.257,0.257,0.257,0.257,0.247,0.257,0.265,0.257,0.265,0.265,0.257,0.257,0.257,0.257,0.257,0.265,0.265,0.257,0.257,0.265,0.265,0.265,0.275,0.275,0.275,0.275,0.275,0.275,0.275,0.275,0.275,0.275,0.275,0.275,0.275,0.275,0.275,0.284,0.293,0.302,0.302,0.311,0.311,0.311,0.311,0.311,0.311,0.32,0.32,0.302,0.311,0.32,0.311,0.311,0.311,0.311,0.32,0.311,0.311,0.311,0.311,0.302,0.293,0.293,0.284,0.275,0.275,0.275,0.265,0.275,0.275,0.275,0.275,0.275,0.265,0.265,0.265,0.265,0.265,0.275,0.275,0.275,0.265,0.275,0.257,0.265,0.265,0.265,0.257,0.257,0.257,0.257,0.257,0.257,0.257,0.257,0.257,0.257,0.257,0.265,0.247,0.257,0.247,0.247,0.247,0.257,0.257,0.257,0.247,0.257,0.257,0.257,0.257,0.247,0.247,0.247,0.247,0.257,0.257,0.247,0.247,0.247,0.247,0.247,0.247,0.257,0.257,0.257,0.257,0.247,0.257,0.257,0.265,0.275,0.275,0.284,0.293,0.302,0.311,0.33,0.348,0.366,0.385,0.40299999999999997,0.41200000000000003,0.43,0.45799999999999996,0.485,0.485,0.494,0.45799999999999996,0.41200000000000003,0.375,0.311,0.275,0.23800000000000002,0.20199999999999999,0.165,0.138,0.12,0.11,0.092,0.083,0.10099999999999999,0.10099999999999999,0.11,0.12,0.129,0.147,0.165,0.174,0.193,0.21100000000000002,0.22,0.22899999999999998,0.22899999999999998,0.22899999999999998,0.22,0.22899999999999998,0.23800000000000002,0.22899999999999998,0.22899999999999998,0.22899999999999998,0.22899999999999998,0.23800000000000002,0.23800000000000002,0.22899999999999998,0.22899999999999998,0.22899999999999998,0.22899999999999998,0.23800000000000002,0.22899999999999998,0.23800000000000002,0.22899999999999998,0.22899999999999998,0.23800000000000002,0.22899999999999998,0.23800000000000002,0.22899999999999998,0.23800000000000002,0.23800000000000002,0.23800000000000002,0.23800000000000002,0.247,0.23800000000000002,0.23800000000000002,0.23800000000000002,0.23800000000000002,0.23800000000000002,0.23800000000000002,0.22899999999999998,0.23800000000000002,0.22899999999999998,0.23800000000000002,0.23800000000000002,0.23800000000000002,0.23800000000000002,0.23800000000000002,0.23800000000000002,0.22899999999999998,0.23800000000000002,0.23800000000000002,0.23800000000000002,0.23800000000000002,0.23800000000000002,0.247,0.23800000000000002,0.247,0.23800000000000002,0.247,0.247,0.257,0.247,0.257,0.257,0.265,0.265,0.247,0.257,0.265,0.275,0.275,0.275,0.275,0.275,0.275,0.275,0.275,0.275,0.284,0.284,N
4,0.037000000000000005,0.055,0.07400000000000001,0.07400000000000001,0.083,0.07400000000000001,0.083,0.07400000000000001,0.07400000000000001,0.083,0.092,0.10099999999999999,0.10099999999999999,0.10099999999999999,0.10099999999999999,0.10099999999999999,0.092,0.092,0.10099999999999999,0.11,0.11,0.11,0.11,0.11,0.11,0.11,0.11,0.11,0.11,0.11,0.10099999999999999,0.10099999999999999,0.10099999999999999,0.11,0.11,0.11,0.11,0.11,0.11,0.10099999999999999,0.11,0.11,0.138,0.138,0.138,0.129,0.129,0.12,0.12,0.129,0.129,0.12,0.12,0.12,0.12,0.129,0.11,0.12,0.12,0.12,0.129,0.138,0.138,0.147,0.147,0.147,0.147,0.147,0.138,0.138,0.138,0.147,0.147,0.147,0.165,0.156,0.183,0.193,0.183,0.174,0.174,0.165,0.174,0.174,0.165,0.156,0.156,0.165,0.156,0.156,0.165,0.156,0.165,0.165,0.165,0.165,0.156,0.147,0.138,0.138,0.138,0.138,0.138,0.138,0.138,0.12,0.129,0.11,0.12,0.12,0.129,0.138,0.138,0.129,0.138,0.138,0.138,0.129,0.12,0.12,0.11,0.11,0.12,0.12,0.129,0.129,0.129,0.129,0.129,0.12,0.11,0.11,0.10099999999999999,0.10099999999999999,0.11,0.11,0.10099999999999999,0.10099999999999999,0.11,0.10099999999999999,0.11,0.12,0.12,0.129,0.12,0.12,0.12,0.12,0.129,0.129,0.129,0.129,0.129,0.129,0.129,0.12,0.138,0.138,0.138,0.138,0.138,0.138,0.138,0.138,0.138,0.138,0.147,0.147,0.147,0.147,0.165,0.165,0.174,0.183,0.183,0.183,0.193,0.183,0.183,0.183,0.183,0.183,0.193,0.183,0.183,0.183,0.183,0.174,0.183,0.183,0.193,0.183,0.20199999999999999,0.193,0.193,0.193,0.183,0.183,0.174,0.165,0.165,0.156,0.156,0.147,0.147,0.147,0.147,0.156,0.147,0.156,0.156,0.156,0.165,0.165,0.174,0.165,0.165,0.156,0.165,0.156,0.156,0.156,0.147,0.147,0.147,0.147,0.156,0.156,0.156,0.156,0.156,0.165,0.156,0.156,0.156,0.147,0.156,0.156,0.156,0.156,0.147,0.165,0.156,0.156,0.156,0.165,0.165,0.156,0.156,0.156,0.165,0.156,0.156,0.165,0.165,0.165,0.174,0.174,0.174,0.174,0.183,0.183,0.183,0.183,0.183,0.193,0.20199999999999999,0.21100000000000002,0.22899999999999998,0.23800000000000002,0.247,0.257,0.265,0.275,0.284,0.293,0.302,0.33,0.35700000000000004,0.375,0.39299999999999996,0.41200000000000003,0.41200000000000003,0.40299999999999997,0.375,0.33899999999999997,0.284,0.23800000000000002,0.193,0.147,0.129,0.10099999999999999,0.07400000000000001,0.055,0.055,0.055,0.046,0.055,0.07400000000000001,0.092,0.12,0.138,0.156,0.174,0.183,0.20199999999999999,0.20199999999999999,0.21100000000000002,0.22,0.22,0.22899999999999998,0.22,0.22,0.22,0.22899999999999998,0.22,0.22899999999999998,0.22899999999999998,0.22899999999999998,0.23800000000000002,0.22899999999999998,0.22899999999999998,0.22899999999999998,0.23800000000000002,0.23800000000000002,0.23800000000000002,0.23800000000000002,0.247,0.23800000000000002,0.23800000000000002,0.23800000000000002,0.22899999999999998,0.247,0.247,0.247,0.247,0.247,0.257,0.247,0.247,0.257,0.257,0.257,0.257,0.257,0.257,0.257,0.257,0.257,0.257,0.257,0.265,0.265,0.265,0.265,0.265,0.275,0.275,0.275,0.275,0.275,0.275,0.275,0.275,0.275,0.284,0.284,0.293,0.293,0.302,0.302,0.302,0.311,0.311,0.302,0.311,0.311,0.311,0.311,0.311,0.32,0.33,0.32,0.32,0.33,0.32,0.32,0.32,0.311,0.311,0.001,0.001,0.001,0.001,0.001,0.001,0.001,0.001,0.001,0.001,0.001,0.001,0.001,0.001,0.001,0.001,0.001,0.001,0.001,0.001,0.001,0.001,0.001,0.001,0.001,0.001,0.001,0.001,0.001,0.001,0.001,0.001,0.001,0.001,0.001,0.001,0.001,0.001,0.001,0.001,0.001,0.001,0.001,0.001,0.001,0.001,0.001,0.001,0.001,0.001,0.001,0.001,0.001,0.001,0.001,0.001,0.001,0.001,0.001,0.001,0.001,0.001,0.001,0.001,0.001,0.001,0.001,0.001,0.001,0.001,0.001,0.001,0.001,0.001,0.001,0.001,0.001,0.001,0.001,0.001,0.001,0.001,0.001,0.001,0.001,0.001,0.001,0.001,0.001,0.001,0.001,0.001,0.001,0.001,0.001,0.001,0.001,0.001,0.001,0.001,0.001,0.001,0.001,0.001,0.001,0.001,0.001,0.001,0.001,0.001,0.001,0.001,0.001,0.001,0.001,0.001,0.001,0.001,0.001,0.001,0.001,0.001,0.001,0.001,0.001,0.001,0.001,0.001,0.001,0.001,0.001,0.001,0.001,0.001,0.001,0.001,0.001,0.001,0.001,0.001,0.001,0.001,0.001,0.001,0.001,0.001,0.001,0.001,0.001,0.001,0.001,0.001,0.001,0.001,0.001,0.001,0.001,0.001,0.001,0.001,0.001,0.001,0.001,0.001,0.001,0.001,0.001,0.001,0.001,0.001,0.001,0.001,0.001,0.001,0.001,0.001,0.001,0.001,0.001,0.001,0.001,0.001,0.001,0.001,0.001,0.001,0.001,0.001,0.001,0.001,0.001,0.001,0.001,0.001,0.001,0.001,0.001,0.001,0.001,0.001,0.001,0.001,0.001,0.001,0.001,0.001,0.001,0.001,0.001,0.001,0.001,0.001,0.001,0.001,0.001,0.001,0.001,0.001,0.001,0.001,0.001,0.001,0.001,0.001,0.001,0.001,0.001,0.001,0.001,0.001,0.001,0.001,0.001,0.001,0.001,0.001,0.001,0.001,0.001,0.001,0.001,0.001,0.001,0.001,0.001,0.001,0.001,0.001,0.001,0.001,0.001,0.001,0.001,0.001,0.001,0.001,-0.136,-0.136,-0.136,-0.136,-0.136,-0.136,-0.136,-0.136,-0.136,-0.136,-0.136,-0.136,-0.136,-0.136,-0.136,-0.136,-0.136,-0.136,-0.136,-0.136,-0.136,-0.136,-0.136,-0.136,-0.136,-0.136,-0.136,-0.136,-0.136,-0.136,-0.136,-0.136,-0.136,-0.136,-0.136,-0.136,-0.136,-0.136,-0.136,-0.136,-0.136,-0.136,-0.136,-0.136,-0.136,-0.136,-0.136,-0.136,-0.136,-0.136,-0.136,-0.136,-0.136,-0.136,-0.136,-0.136,-0.136,-0.136,-0.136,-0.136,-0.136,-0.136,-0.136,-0.136,-0.136,-0.136,-0.136,-0.136,-0.136,-0.136,-0.136,-0.136,-0.136,-0.136,-0.136,-0.136,-0.136,-0.136,-0.136,-0.136,-0.136,-0.136,-0.136,-0.145,-0.136,-0.145,-0.136,-0.136,-0.136,-0.136,-0.136,-0.136,-0.136,-0.136,-0.136,-0.136,-0.136,-0.136,-0.136,-0.136,-0.136,-0.136,-0.136,-0.136,-0.136,-0.136,-0.136,-0.136,-0.136,-0.136,-0.136,-0.136,-0.136,-0.136,-0.136,-0.136,-0.136,-0.136,-0.136,-0.136,-0.136,-0.136,-0.136,-0.136,-0.136,-0.136,-0.136,-0.136,-0.136,-0.136,-0.136,-0.136,-0.136,-0.136,-0.136,-0.136,-0.136,-0.136,-0.136,-0.136,-0.136,-0.136,-0.136,-0.136,-0.136,-0.136,-0.136,-0.136,-0.136,-0.136,-0.136,-0.136,-0.136,-0.136,-0.136,-0.136,-0.136,-0.136,-0.136,-0.136,-0.136,-0.136,-0.07200000000000001,0.32,0.595,0.741,0.841,0.853,0.853,0.853,0.853,0.853,0.853,0.853,0.853,0.853,0.853,0.853,0.853,0.853,0.853,0.853,0.853,0.853,0.853,0.853,0.853,0.853,0.853,0.853,0.853,0.853,0.853,0.853,0.853,0.853,0.853,0.853,0.853,0.853,0.853,0.853,0.853,0.853,0.853,0.853,0.853,0.853,0.853,0.853,0.853,0.853,0.853,0.853,0.853,0.853,0.853,0.853,0.853,0.853,0.853,0.853,0.853,0.853,0.853,0.853,0.853,0.853,0.853,0.853,0.853,0.853,0.853,0.853,0.853,0.853,0.853,0.853,0.853,0.853,0.853,0.853,0.853,0.853,0.853,0.853,0.853,0.853,0.853,0.853,0.853,0.853,0.853,0.853,0.853,0.853,0.853,0.853,0.853,0.853,0.853,0.853,0.853,0.853,0.853,0.853,0.853,0.853,0.853,0.853,0.853,0.853,0.853,0.853,0.853,0.853,0.853,0.853,0.853,0.853,0.853,0.853,0.853,0.853,0.853,0.853,0.853,0.853,0.853,0.853,0.853,0.853,0.853,0.853,0.853,0.853,0.853,0.853,0.853,0.853,0.853,0.853,0.853,0.853,0.853,0.853,0.841,0.439,0.174,0.001,-0.08199999999999999,-0.128,-0.155,-0.17300000000000001,-0.2,-0.2,-0.21,-0.21899999999999997,-0.21899999999999997,-0.21899999999999997,-0.21899999999999997,-0.21,-0.21899999999999997,-0.21899999999999997,-0.21899999999999997,-0.21899999999999997,-0.21899999999999997,-0.21899999999999997,-0.21899999999999997,-0.21,-0.21899999999999997,-0.21899999999999997,-0.21899999999999997,-0.21899999999999997,-0.21899999999999997,-0.21899999999999997,-0.21899999999999997,-0.21,-0.21899999999999997,-0.21,-0.21899999999999997,-0.21899999999999997,-0.21899999999999997,-0.21899999999999997,-0.21899999999999997,-0.21,-0.21,-0.21,-0.21,-0.21899999999999997,-0.21899999999999997,-0.21899999999999997,-0.21899999999999997,-0.21,N
5,-0.136,-0.136,-0.136,-0.136,-0.136,-0.136,-0.136,-0.145,-0.136,-0.145,-0.136,-0.136,-0.136,-0.136,-0.136,-0.136,-0.136,-0.136,-0.136,-0.136,-0.136,-0.136,-0.136,-0.136,-0.136,-0.136,-0.136,-0.136,-0.136,-0.136,-0.136,-0.136,-0.136,-0.136,-0.136,-0.136,-0.136,-0.136,-0.136,-0.136,-0.136,-0.136,-0.136,-0.136,-0.136,-0.136,-0.136,-0.136,-0.136,-0.136,-0.136,-0.136,-0.136,-0.136,-0.136,-0.136,-0.136,-0.136,-0.136,-0.136,-0.136,-0.136,-0.136,-0.136,-0.136,-0.136,-0.136,-0.136,-0.136,-0.136,-0.136,-0.136,-0.136,-0.136,-0.136,-0.136,-0.136,-0.136,-0.136,-0.136,-0.136,-0.136,-0.136,-0.136,-0.136,-0.136,-0.07200000000000001,0.32,0.595,0.741,0.841,0.853,0.853,0.853,0.853,0.853,0.853,0.853,0.853,0.853,0.853,0.853,0.853,0.853,0.853,0.853,0.853,0.853,0.853,0.853,0.853,0.853,0.853,0.853,0.853,0.853,0.853,0.853,0.853,0.853,0.853,0.853,0.853,0.853,0.853,0.853,0.853,0.853,0.853,0.853,0.853,0.853,0.853,0.853,0.853,0.853,0.853,0.853,0.853,0.853,0.853,0.853,0.853,0.853,0.853,0.853,0.853,0.853,0.853,0.853,0.853,0.853,0.853,0.853,0.853,0.853,0.853,0.853,0.853,0.853,0.853,0.853,0.853,0.853,0.853,0.853,0.853,0.853,0.853,0.853,0.853,0.853,0.853,0.853,0.853,0.853,0.853,0.853,0.853,0.853,0.853,0.853,0.853,0.853,0.853,0.853,0.853,0.853,0.853,0.853,0.853,0.853,0.853,0.853,0.853,0.853,0.853,0.853,0.853,0.853,0.853,0.853,0.853,0.853,0.853,0.853,0.853,0.853,0.853,0.853,0.853,0.853,0.853,0.853,0.853,0.853,0.853,0.853,0.853,0.853,0.853,0.853,0.853,0.853,0.853,0.853,0.853,0.853,0.853,0.853,0.841,0.439,0.174,0.001,-0.08199999999999999,-0.128,-0.155,-0.17300000000000001,-0.2,-0.2,-0.21,-0.21899999999999997,-0.21899999999999997,-0.21899999999999997,-0.21899999999999997,-0.21,-0.21899999999999997,-0.21899999999999997,-0.21899999999999997,-0.21899999999999997,-0.21899999999999997,-0.21899999999999997,-0.21899999999999997,-0.21,-0.21899999999999997,-0.21899999999999997,-0.21899999999999997,-0.21899999999999997,-0.21899999999999997,-0.21899999999999997,-0.21899999999999997,-0.21,-0.21899999999999997,-0.21,-0.21899999999999997,-0.21899999999999997,-0.21899999999999997,-0.21899999999999997,-0.21899999999999997,-0.21,-0.21,-0.21,-0.21,-0.21899999999999997,-0.21899999999999997,-0.21899999999999997,-0.21899999999999997,-0.21,-0.21899999999999997,-0.21899999999999997,-0.21,-0.21899999999999997,-0.21899999999999997,-0.21,-0.21899999999999997,-0.21,-0.21,-0.21,-0.21,-0.21899999999999997,-0.21899999999999997,-0.21899999999999997,-0.21899999999999997,-0.21,-0.21899999999999997,-0.21899999999999997,-0.21,-0.21899999999999997,-0.21,-0.21899999999999997,-0.21,-0.21,-0.21,-0.21,-0.21,-0.21,-0.21899999999999997,-0.21899999999999997,-0.21899999999999997,-0.21,-0.21,-0.21899999999999997,-0.21,-0.21899999999999997,-0.21,-0.21,-0.21899999999999997,-0.21,-0.21,-0.21,-0.21,-0.21,-0.21,-0.21,-0.21899999999999997,-0.21,-0.21899999999999997,-0.21,-0.2,-0.21899999999999997,-0.21,-0.21,-0.21,-0.21,-0.21,-0.21,-0.21,-0.21,-0.21,-0.21,-0.21,-0.21,-0.21899999999999997,-0.21,-0.2,-0.21,-0.2,-0.21,-0.21,-0.21,-0.21,-0.2,-0.2,-0.21,-0.21,-0.21,-0.21,-0.21,-0.21,-0.21,-0.2,-0.21,-0.2,-0.2,-0.2,-0.21,-0.21,-0.21,-0.2,-0.2,-0.2,-0.21,-0.2,-0.2,-0.21,-0.21,-0.2,-0.2,-0.2,-0.2,-0.2,-0.2,-0.21,-0.21,-0.2,-0.2,-0.2,-0.2,0.001,0.001,0.001,0.001,0.001,0.001,0.001,0.001,0.001,0.001,0.001,0.001,0.001,0.001,0.001,0.001,0.001,0.001,0.001,0.001,0.001,0.001,0.001,0.001,0.001,0.001,0.001,0.001,0.001,0.001,0.001,0.001,0.001,0.001,0.001,0.001,0.001,0.001,0.001,0.001,0.001,0.001,0.001,0.001,0.001,0.001,0.001,0.001,0.001,0.001,0.001,0.001,0.001,0.001,0.001,0.001,0.001,0.001,0.001,0.001,0.001,0.001,0.001,0.001,0.001,0.001,0.001,0.001,0.001,0.001,0.001,0.001,0.001,0.001,0.001,0.001,0.001,0.001,0.001,0.001,0.001,0.001,0.001,0.001,0.001,0.001,0.001,0.001,0.001,0.001,0.001,0.001,0.001,0.001,0.001,0.001,0.001,0.001,0.001,0.001,0.001,0.001,0.001,0.001,0.001,0.001,0.001,0.001,0.001,0.001,0.001,0.001,0.001,0.001,0.001,0.001,0.001,0.001,0.001,0.001,0.001,0.001,0.001,0.001,0.001,0.001,0.001,0.001,0.001,0.001,0.001,0.001,0.001,0.001,0.001,0.001,0.001,0.001,0.001,0.001,0.001,0.001,0.001,0.001,0.001,0.001,0.001,0.001,0.001,0.001,0.001,0.001,0.001,0.001,0.001,0.001,0.001,0.001,0.001,0.001,0.001,0.001,0.001,0.001,0.001,0.001,0.001,0.001,0.001,0.001,0.001,0.001,0.001,0.001,0.001,0.001,0.001,0.001,0.001,0.001,0.001,0.001,0.001,0.001,0.001,0.001,0.001,0.001,0.001,0.001,0.001,0.001,0.001,0.001,0.001,0.001,0.001,0.001,0.001,0.001,0.001,0.001,0.001,0.001,0.001,0.001,0.001,0.001,0.001,0.001,0.001,0.001,0.001,0.001,0.001,0.001,0.001,0.001,0.001,0.001,0.001,0.001,0.001,0.001,0.001,0.001,0.001,0.001,0.001,0.001,0.001,0.001,0.001,0.001,0.001,0.001,0.001,0.001,0.001,0.001,0.001,0.001,0.001,0.001,0.001,0.001,0.001,0.001,0.001,0.001,0.001,0.001,0.001,0.001,0.001,0.001,0.147,0.138,0.138,0.129,0.138,0.129,0.138,0.138,0.138,0.138,0.138,0.138,0.138,0.147,0.147,0.156,0.174,0.183,0.183,0.183,0.193,0.183,0.193,0.193,0.193,0.20199999999999999,0.193,0.193,0.193,0.193,0.193,0.183,0.193,0.193,0.183,0.183,0.20199999999999999,0.193,0.193,0.193,0.183,0.174,0.165,0.165,0.156,0.147,0.147,0.147,0.147,0.147,0.147,0.156,0.165,0.147,0.147,0.138,0.138,0.138,0.138,0.138,0.138,0.138,0.138,0.138,0.138,0.138,0.129,0.129,0.138,0.12,0.12,0.129,0.12,0.129,0.138,0.138,0.138,0.129,0.129,0.12,0.12,0.11,0.11,0.10099999999999999,0.11,0.10099999999999999,0.10099999999999999,0.10099999999999999,0.10099999999999999,0.10099999999999999,0.10099999999999999,0.11,0.12,0.129,0.12,0.11,0.11,0.11,0.10099999999999999,0.11,0.12,0.12,0.12,0.11,0.11,0.10099999999999999,0.10099999999999999,0.10099999999999999,0.10099999999999999,0.11,0.12,0.138,0.138,0.138,0.147,0.147,0.156,0.165,0.183,0.20199999999999999,0.22,0.22899999999999998,0.23800000000000002,0.257,0.275,0.293,0.32,0.33,0.33,0.302,0.265,0.21100000000000002,0.156,0.12,0.07400000000000001,0.027999999999999997,0.001,-0.027000000000000003,-0.045,-0.063,-0.063,-0.07200000000000001,-0.07200000000000001,-0.063,-0.045,-0.018000000000000002,0.001,0.001,0.037000000000000005,0.046,0.055,0.065,0.065,0.065,0.055,0.065,0.065,0.065,0.07400000000000001,0.07400000000000001,0.083,0.07400000000000001,0.07400000000000001,0.07400000000000001,0.083,0.083,0.092,0.083,0.083,0.092,0.083,0.083,0.07400000000000001,0.07400000000000001,0.07400000000000001,0.083,0.083,0.083,0.07400000000000001,0.07400000000000001,0.07400000000000001,0.065,0.07400000000000001,0.07400000000000001,0.065,0.055,0.065,0.083,0.083,0.092,0.083,0.083,0.083,0.083,0.07400000000000001,0.07400000000000001,0.083,0.07400000000000001,0.083,0.083,0.07400000000000001,0.083,0.07400000000000001,0.07400000000000001,0.083,0.083,0.092,0.10099999999999999,0.10099999999999999,0.10099999999999999,0.10099999999999999,0.10099999999999999,0.12,0.10099999999999999,0.12,0.12,0.12,0.129,0.129,0.129,0.129,0.12,0.12,0.129,0.138,0.138,0.138,0.138,0.138,0.12,0.12,0.12,0.129,0.138,0.138,0.138,0.138,0.129,0.12,0.11,0.11,0.11,0.11,0.10099999999999999,0.11,0.10099999999999999,0.092,0.092,0.092,0.07400000000000001,0.092,0.083,0.083,0.07400000000000001,0.065,0.065,0.065,0.083,0.083,0.083,0.083,0.065,0.07400000000000001,0.065,0.065,0.065,0.07400000000000001,0.07400000000000001,0.07400000000000001,0.055,0.055,0.065,0.07400000000000001,0.07400000000000001,0.07400000000000001,0.065,0.065,0.065,0.065,0.065,0.07400000000000001,0.07400000000000001,0.07400000000000001,0.083,0.083,0.065,0.065,0.065,0.055,0.055,0.055,0.055,0.07400000000000001,0.07400000000000001,0.083,0.092,0.10099999999999999,0.10099999999999999,0.092,0.092,0.07400000000000001,0.065,0.065,0.065,0.065,0.07400000000000001,0.083,0.083,0.092,0.083,0.083,0.07400000000000001,0.07400000000000001,0.083,0.083,0.10099999999999999,0.11,0.138,0.138,0.138,0.129,0.12,0.12,0.12,0.12,0.12,0.11,0.12,0.129,0.129,0.12,0.12,0.129,0.129,0.129,0.12,0.129,0.129,0.12,0.12,0.11,0.11,0.11,0.11,0.10099999999999999,0.083,0.083,0.092,0.10099999999999999,0.092,0.083,0.07400000000000001,0.065,0.065,0.055,0.065,N
6,-0.21899999999999997,-0.21899999999999997,-0.21899999999999997,-0.21899999999999997,-0.21899999999999997,-0.21,-0.21899999999999997,-0.21899999999999997,-0.21899999999999997,-0.21899999999999997,-0.21899999999999997,-0.21899999999999997,-0.21899999999999997,-0.21,-0.21899999999999997,-0.21,-0.21899999999999997,-0.21899999999999997,-0.21899999999999997,-0.21899999999999997,-0.21899999999999997,-0.21,-0.21,-0.21,-0.21,-0.21899999999999997,-0.21899999999999997,-0.21899999999999997,-0.21899999999999997,-0.21,-0.21899999999999997,-0.21899999999999997,-0.21,-0.21899999999999997,-0.21899999999999997,-0.21,-0.21899999999999997,-0.21,-0.21,-0.21,-0.21,-0.21899999999999997,-0.21899999999999997,-0.21899999999999997,-0.21899999999999997,-0.21,-0.21899999999999997,-0.21899999999999997,-0.21,-0.21899999999999997,-0.21,-0.21899999999999997,-0.21,-0.21,-0.21,-0.21,-0.21,-0.21,-0.21899999999999997,-0.21899999999999997,-0.21899999999999997,-0.21,-0.21,-0.21899999999999997,-0.21,-0.21899999999999997,-0.21,-0.21,-0.21899999999999997,-0.21,-0.21,-0.21,-0.21,-0.21,-0.21,-0.21,-0.21899999999999997,-0.21,-0.21899999999999997,-0.21,-0.2,-0.21899999999999997,-0.21,-0.21,-0.21,-0.21,-0.21,-0.21,-0.21,-0.21,-0.21,-0.21,-0.21,-0.21,-0.21899999999999997,-0.21,-0.2,-0.21,-0.2,-0.21,-0.21,-0.21,-0.21,-0.2,-0.2,-0.21,-0.21,-0.21,-0.21,-0.21,-0.21,-0.21,-0.2,-0.21,-0.2,-0.2,-0.2,-0.21,-0.21,-0.21,-0.2,-0.2,-0.2,-0.21,-0.2,-0.2,-0.21,-0.21,-0.2,-0.2,-0.2,-0.2,-0.2,-0.2,-0.21,-0.21,-0.2,-0.2,-0.2,-0.2,0.001,0.001,0.001,0.001,0.001,0.001,0.001,0.001,0.001,0.001,0.001,0.001,0.001,0.001,0.001,0.001,0.001,0.001,0.001,0.001,0.001,0.001,0.001,0.001,0.001,0.001,0.001,0.001,0.001,0.001,0.001,0.001,0.001,0.001,0.001,0.001,0.001,0.001,0.001,0.001,0.001,0.001,0.001,0.001,0.001,0.001,0.001,0.001,0.001,0.001,0.001,0.001,0.001,0.001,0.001,0.001,0.001,0.001,0.001,0.001,0.001,0.001,0.001,0.001,0.001,0.001,0.001,0.001,0.001,0.001,0.001,0.001,0.001,0.001,0.001,0.001,0.001,0.001,0.001,0.001,0.001,0.001,0.001,0.001,0.001,0.001,0.001,0.001,0.001,0.001,0.001,0.001,0.001,0.001,0.001,0.001,0.001,0.001,0.001,0.001,0.001,0.001,0.001,0.001,0.001,0.001,0.001,0.001,0.001,0.001,0.001,0.001,0.001,0.001,0.001,0.001,0.001,0.001,0.001,0.001,0.001,0.001,0.001,0.001,0.001,0.001,0.001,0.001,0.001,0.001,0.001,0.001,0.001,0.001,0.001,0.001,0.001,0.001,0.001,0.001,0.001,0.001,0.001,0.001,0.001,0.001,0.001,0.001,0.001,0.001,0.001,0.001,0.001,0.001,0.001,0.001,0.001,0.001,0.001,0.001,0.001,0.001,0.001,0.001,0.001,0.001,0.001,0.001,0.001,0.001,0.001,0.001,0.001,0.001,0.001,0.001,0.001,0.001,0.001,0.001,0.001,0.001,0.001,0.001,0.001,0.001,0.001,0.001,0.001,0.001,0.001,0.001,0.001,0.001,0.001,0.001,0.001,0.001,0.001,0.001,0.001,0.001,0.001,0.001,0.001,0.001,0.001,0.001,0.001,0.001,0.001,0.001,0.001,0.001,0.001,0.001,0.001,0.001,0.001,0.001,0.001,0.001,0.001,0.001,0.001,0.001,0.001,0.001,0.001,0.001,0.001,0.001,0.001,0.001,0.001,0.001,0.001,0.001,0.001,0.001,0.001,0.001,0.001,0.001,0.001,0.001,0.001,0.001,0.001,0.001,0.001,0.001,0.001,0.001,0.001,0.001,0.147,0.138,0.138,0.129,0.138,0.129,0.138,0.138,0.138,0.138,0.138,0.138,0.138,0.147,0.147,0.156,0.174,0.183,0.183,0.183,0.193,0.183,0.193,0.193,0.193,0.20199999999999999,0.193,0.193,0.193,0.193,0.193,0.183,0.193,0.193,0.183,0.183,0.20199999999999999,0.193,0.193,0.193,0.183,0.174,0.165,0.165,0.156,0.147,0.147,0.147,0.147,0.147,0.147,0.156,0.165,0.147,0.147,0.138,0.138,0.138,0.138,0.138,0.138,0.138,0.138,0.138,0.138,0.138,0.129,0.129,0.138,0.12,0.12,0.129,0.12,0.129,0.138,0.138,0.138,0.129,0.129,0.12,0.12,0.11,0.11,0.10099999999999999,0.11,0.10099999999999999,0.10099999999999999,0.10099999999999999,0.10099999999999999,0.10099999999999999,0.10099999999999999,0.11,0.12,0.129,0.12,0.11,0.11,0.11,0.10099999999999999,0.11,0.12,0.12,0.12,0.11,0.11,0.10099999999999999,0.10099999999999999,0.10099999999999999,0.10099999999999999,0.11,0.12,0.138,0.138,0.138,0.147,0.147,0.156,0.165,0.183,0.20199999999999999,0.22,0.22899999999999998,0.23800000000000002,0.257,0.275,0.293,0.32,0.33,0.33,0.302,0.265,0.21100000000000002,0.156,0.12,0.07400000000000001,0.027999999999999997,0.001,-0.027000000000000003,-0.045,-0.063,-0.063,-0.07200000000000001,-0.07200000000000001,-0.063,-0.045,-0.018000000000000002,0.001,0.001,0.037000000000000005,0.046,0.055,0.065,0.065,0.065,0.055,0.065,0.065,0.065,0.07400000000000001,0.07400000000000001,0.083,0.07400000000000001,0.07400000000000001,0.07400000000000001,0.083,0.083,0.092,0.083,0.083,0.092,0.083,0.083,0.07400000000000001,0.07400000000000001,0.07400000000000001,0.083,0.083,0.083,0.07400000000000001,0.07400000000000001,0.07400000000000001,0.065,0.07400000000000001,0.07400000000000001,0.065,0.055,0.065,0.083,0.083,0.092,0.083,0.083,0.083,0.083,0.07400000000000001,0.07400000000000001,0.083,0.07400000000000001,0.083,0.083,0.07400000000000001,0.083,0.07400000000000001,0.07400000000000001,0.083,0.083,0.092,0.10099999999999999,0.10099999999999999,0.10099999999999999,0.10099999999999999,0.10099999999999999,0.12,0.10099999999999999,0.12,0.12,0.12,0.129,0.129,0.129,0.129,0.12,0.12,0.129,0.138,0.138,0.138,0.138,0.138,0.12,0.12,0.12,0.129,0.138,0.138,0.138,0.138,0.129,0.12,0.11,0.11,0.11,0.11,0.10099999999999999,0.11,0.10099999999999999,0.092,0.092,0.092,0.07400000000000001,0.092,0.083,0.083,0.07400000000000001,0.065,0.065,0.065,0.083,0.083,0.083,0.083,0.065,0.07400000000000001,0.065,0.065,0.065,0.07400000000000001,0.07400000000000001,0.07400000000000001,0.055,0.055,0.065,0.07400000000000001,0.07400000000000001,0.07400000000000001,0.065,0.065,0.065,0.065,0.065,0.07400000000000001,0.07400000000000001,0.07400000000000001,0.083,0.083,0.065,0.065,0.065,0.055,0.055,0.055,0.055,0.07400000000000001,0.07400000000000001,0.083,0.092,0.10099999999999999,0.10099999999999999,0.092,0.092,0.07400000000000001,0.065,0.065,0.065,0.065,0.07400000000000001,0.083,0.083,0.092,0.083,0.083,0.07400000000000001,0.07400000000000001,0.083,0.083,0.10099999999999999,0.11,0.138,0.138,0.138,0.129,0.12,0.12,0.12,0.12,0.12,0.11,0.12,0.129,0.129,0.12,0.12,0.129,0.129,0.129,0.12,0.129,0.129,0.12,0.12,0.11,0.11,0.11,0.11,0.10099999999999999,0.083,0.083,0.092,0.10099999999999999,0.092,0.083,0.07400000000000001,0.065,0.065,0.055,0.065,0.07400000000000001,0.083,0.083,0.083,0.083,0.083,0.083,0.083,0.083,0.065,0.055,0.055,0.055,0.055,0.046,0.055,0.055,0.046,0.055,0.055,0.055,0.065,0.065,0.07400000000000001,0.065,0.055,0.046,0.055,0.055,0.055,0.055,0.046,0.046,0.046,0.055,0.065,0.065,0.07400000000000001,0.055,0.065,0.046,0.046,0.046,0.055,0.07400000000000001,0.07400000000000001,0.055,0.046,0.055,0.037000000000000005,0.046,0.055,0.07400000000000001,0.083,0.092,0.092,0.10099999999999999,0.092,0.10099999999999999,0.10099999999999999,0.11,0.12,0.12,0.138,0.138,0.147,0.156,0.183,0.21100000000000002,0.22899999999999998,0.247,0.247,0.247,0.22899999999999998,0.193,0.147,0.11,0.065,0.01,-0.008,-0.036000000000000004,-0.07200000000000001,-0.091,-0.1,-0.109,-0.109,-0.1,-0.091,-0.07200000000000001,-0.054000000000000006,-0.036000000000000004,-0.018000000000000002,0.001,0.001,0.01,0.01,0.01,0.01,0.019,0.019,0.019,0.027999999999999997,0.027999999999999997,0.037000000000000005,0.037000000000000005,0.037000000000000005,0.037000000000000005,0.037000000000000005,0.037000000000000005,0.037000000000000005,0.037000000000000005,0.037000000000000005,0.046,0.037000000000000005,0.046,0.046,0.046,0.046,0.037000000000000005,0.046,0.046,0.037000000000000005,0.037000000000000005,0.046,0.037000000000000005,0.046,0.037000000000000005,0.037000000000000005,0.046,0.037000000000000005,0.046,0.037000000000000005,0.037000000000000005,0.046,0.055,0.055,0.055,0.055,0.055,0.065,0.065,0.055,0.046,0.046,0.055,0.055,0.065,0.065,0.07400000000000001,0.07400000000000001,0.065,0.07400000000000001,0.07400000000000001,0.07400000000000001,0.07400000000000001,0.07400000000000001,0.07400000000000001,0.07400000000000001,0.065,0.07400000000000001,0.083,0.083,0.092,0.092,0.092,0.092,0.083,0.092,0.092,0.092,0.083,0.092,0.083,0.092,0.083,0.083,0.092,0.07400000000000001,0.07400000000000001,0.065,0.055,0.055,0.055,0.055,0.055,0.055,0.055,0.055,0.046,0.046,0.037000000000000005,0.027999999999999997,0.046,0.037000000000000005,0.037000000000000005,0.037000000000000005,0.027999999999999997,0.027999999999999997,0.037000000000000005,0.027999999999999997,0.027999999999999997,0.027999999999999997,0.019,0.027999999999999997,0.019,0.01,0.019,0.019,0.01,0.01,0.019,0.019,0.019,0.019,0.019,0.019,0.01,0.01,0.01,0.01,0.01,0.019,0.001,0.01,0.01,0.01,0.027999999999999997,0.019,0.019,0.019,0.019,0.019,0.019,0.027999999999999997,0.027999999999999997,0.027999999999999997,0.037000000000000005,0.037000000000000005,0.037000000000000005,0.027999999999999997,0.027999999999999997,0.019,0.027999999999999997,0.027999999999999997,0.037000000000000005,0.037000000000000005,0.037000000000000005,0.037000000000000005,N
7,0.001,0.001,0.037000000000000005,0.046,0.055,0.065,0.065,0.065,0.055,0.065,0.065,0.065,0.07400000000000001,0.07400000000000001,0.083,0.07400000000000001,0.07400000000000001,0.07400000000000001,0.083,0.083,0.092,0.083,0.083,0.092,0.083,0.083,0.07400000000000001,0.07400000000000001,0.07400000000000001,0.083,0.083,0.083,0.07400000000000001,0.07400000000000001,0.07400000000000001,0.065,0.07400000000000001,0.07400000000000001,0.065,0.055,0.065,0.083,0.083,0.092,0.083,0.083,0.083,0.083,0.07400000000000001,0.07400000000000001,0.083,0.07400000000000001,0.083,0.083,0.07400000000000001,0.083,0.07400000000000001,0.07400000000000001,0.083,0.083,0.092,0.10099999999999999,0.10099999999999999,0.10099999999999999,0.10099999999999999,0.10099999999999999,0.12,0.10099999999999999,0.12,0.12,0.12,0.129,0.129,0.129,0.129,0.12,0.12,0.129,0.138,0.138,0.138,0.138,0.138,0.12,0.12,0.12,0.129,0.138,0.138,0.138,0.138,0.129,0.12,0.11,0.11,0.11,0.11,0.10099999999999999,0.11,0.10099999999999999,0.092,0.092,0.092,0.07400000000000001,0.092,0.083,0.083,0.07400000000000001,0.065,0.065,0.065,0.083,0.083,0.083,0.083,0.065,0.07400000000000001,0.065,0.065,0.065,0.07400000000000001,0.07400000000000001,0.07400000000000001,0.055,0.055,0.065,0.07400000000000001,0.07400000000000001,0.07400000000000001,0.065,0.065,0.065,0.065,0.065,0.07400000000000001,0.07400000000000001,0.07400000000000001,0.083,0.083,0.065,0.065,0.065,0.055,0.055,0.055,0.055,0.07400000000000001,0.07400000000000001,0.083,0.092,0.10099999999999999,0.10099999999999999,0.092,0.092,0.07400000000000001,0.065,0.065,0.065,0.065,0.07400000000000001,0.083,0.083,0.092,0.083,0.083,0.07400000000000001,0.07400000000000001,0.083,0.083,0.10099999999999999,0.11,0.138,0.138,0.138,0.129,0.12,0.12,0.12,0.12,0.12,0.11,0.12,0.129,0.129,0.12,0.12,0.129,0.129,0.129,0.12,0.129,0.129,0.12,0.12,0.11,0.11,0.11,0.11,0.10099999999999999,0.083,0.083,0.092,0.10099999999999999,0.092,0.083,0.07400000000000001,0.065,0.065,0.055,0.065,0.07400000000000001,0.083,0.083,0.083,0.083,0.083,0.083,0.083,0.083,0.065,0.055,0.055,0.055,0.055,0.046,0.055,0.055,0.046,0.055,0.055,0.055,0.065,0.065,0.07400000000000001,0.065,0.055,0.046,0.055,0.055,0.055,0.055,0.046,0.046,0.046,0.055,0.065,0.065,0.07400000000000001,0.055,0.065,0.046,0.046,0.046,0.055,0.07400000000000001,0.07400000000000001,0.055,0.046,0.055,0.037000000000000005,0.046,0.055,0.07400000000000001,0.083,0.092,0.092,0.10099999999999999,0.092,0.10099999999999999,0.10099999999999999,0.11,0.12,0.12,0.138,0.138,0.147,0.156,0.183,0.21100000000000002,0.22899999999999998,0.247,0.247,0.247,0.22899999999999998,0.193,0.147,0.11,0.065,0.01,-0.008,-0.036000000000000004,-0.07200000000000001,-0.091,-0.1,-0.109,-0.109,-0.1,-0.091,-0.07200000000000001,-0.054000000000000006,-0.036000000000000004,-0.018000000000000002,0.001,0.001,0.01,0.01,0.01,0.01,0.019,0.019,0.019,0.027999999999999997,0.027999999999999997,0.037000000000000005,0.037000000000000005,0.037000000000000005,0.037000000000000005,0.037000000000000005,0.037000000000000005,0.037000000000000005,0.037000000000000005,0.037000000000000005,0.046,0.037000000000000005,0.046,0.046,0.046,0.046,0.037000000000000005,0.046,0.046,0.037000000000000005,0.037000000000000005,0.046,0.037000000000000005,0.046,0.037000000000000005,0.037000000000000005,0.046,0.037000000000000005,0.046,0.037000000000000005,0.037000000000000005,0.046,0.055,0.055,0.055,0.055,0.055,0.065,0.065,0.055,0.046,0.046,0.055,0.055,0.065,0.065,0.07400000000000001,0.07400000000000001,0.065,0.07400000000000001,0.07400000000000001,0.07400000000000001,0.07400000000000001,0.07400000000000001,0.07400000000000001,0.07400000000000001,0.065,0.07400000000000001,0.083,0.083,0.092,0.092,0.092,0.092,0.083,0.092,0.092,0.092,0.083,0.092,0.083,0.092,0.083,0.083,0.092,0.07400000000000001,0.07400000000000001,0.065,0.055,0.055,0.055,0.055,0.055,0.055,0.055,0.055,0.046,0.046,0.037000000000000005,0.027999999999999997,0.046,0.037000000000000005,0.037000000000000005,0.037000000000000005,0.027999999999999997,0.027999999999999997,0.037000000000000005,0.027999999999999997,0.027999999999999997,0.027999999999999997,0.019,0.027999999999999997,0.019,0.01,0.019,0.019,0.01,0.01,0.019,0.019,0.019,0.019,0.019,0.019,0.01,0.01,0.01,0.01,0.01,0.019,0.001,0.01,0.01,0.01,0.027999999999999997,0.019,0.019,0.019,0.019,0.019,0.019,0.027999999999999997,0.027999999999999997,0.027999999999999997,0.037000000000000005,0.037000000000000005,0.037000000000000005,0.027999999999999997,0.027999999999999997,0.019,0.027999999999999997,0.027999999999999997,0.037000000000000005,0.037000000000000005,0.037000000000000005,0.037000000000000005,0.037000000000000005,0.046,0.046,0.046,0.055,0.055,0.046,0.046,0.046,0.046,0.055,0.055,0.065,0.07400000000000001,0.07400000000000001,0.083,0.07400000000000001,0.083,0.092,0.10099999999999999,0.11,0.11,0.11,0.11,0.12,0.11,0.12,0.12,0.129,0.129,0.129,0.129,0.129,0.129,0.12,0.129,0.138,0.138,0.138,0.129,0.129,0.12,0.12,0.11,0.11,0.10099999999999999,0.10099999999999999,0.092,0.092,0.092,0.092,0.092,0.092,0.092,0.083,0.083,0.092,0.083,0.092,0.10099999999999999,0.10099999999999999,0.10099999999999999,0.10099999999999999,0.10099999999999999,0.10099999999999999,0.092,0.092,0.083,0.092,0.083,0.083,0.07400000000000001,0.092,0.083,0.092,0.092,0.092,0.10099999999999999,0.10099999999999999,0.11,0.11,0.10099999999999999,0.10099999999999999,0.10099999999999999,0.11,0.11,0.10099999999999999,0.10099999999999999,0.11,0.10099999999999999,0.11,0.11,0.11,0.11,0.12,0.12,0.11,0.12,0.12,0.12,0.129,0.129,0.12,0.129,0.138,0.129,0.138,0.138,0.138,0.138,0.138,0.147,0.156,0.165,0.174,0.183,0.193,0.20199999999999999,0.21100000000000002,0.22899999999999998,0.247,0.265,0.275,0.293,0.311,0.348,0.366,0.385,0.39299999999999996,0.385,0.33899999999999997,0.311,0.257,0.21100000000000002,0.156,0.138,0.10099999999999999,0.065,0.046,0.01,0.01,0.01,0.01,0.019,0.027999999999999997,0.046,0.055,0.07400000000000001,0.083,0.11,0.129,0.138,0.156,0.165,0.174,0.183,0.183,0.193,0.193,0.193,0.193,0.193,0.20199999999999999,0.20199999999999999,0.20199999999999999,0.193,0.183,0.183,0.20199999999999999,0.193,0.20199999999999999,0.20199999999999999,0.20199999999999999,0.20199999999999999,0.20199999999999999,0.21100000000000002,0.21100000000000002,0.21100000000000002,0.21100000000000002,0.21100000000000002,0.21100000000000002,0.21100000000000002,0.21100000000000002,0.21100000000000002,0.22,0.21100000000000002,0.22,0.22,0.22,0.22,0.22,0.22,0.22899999999999998,0.22899999999999998,0.22,0.22899999999999998,0.22899999999999998,0.22,0.22,0.22,0.22899999999999998,0.22899999999999998,0.23800000000000002,0.23800000000000002,0.23800000000000002,0.23800000000000002,0.247,0.247,0.247,0.247,0.257,0.257,0.257,0.257,0.257,0.257,0.265,0.265,0.275,0.275,0.275,0.284,0.284,0.293,0.293,0.302,0.302,0.302,0.311,0.311,0.302,0.302,0.311,0.302,0.302,0.302,0.302,0.302,0.302,0.302,0.293,0.284,0.275,0.284,0.293,0.284,0.284,0.275,0.275,0.275,0.275,0.275,0.275,0.275,0.275,0.275,0.275,0.275,0.275,0.275,0.275,0.275,0.275,0.275,0.275,0.265,0.275,0.275,0.275,0.275,0.265,0.275,0.275,0.265,0.265,0.275,0.275,0.265,0.265,0.265,0.275,0.265,0.275,0.275,0.275,0.275,0.275,0.275,0.275,0.275,0.275,0.265,0.275,0.275,0.275,0.275,0.275,0.275,0.284,0.284,0.275,0.275,0.284,0.284,0.284,0.284,0.284,0.293,0.293,0.293,0.293,0.293,0.302,0.293,0.302,0.293,0.302,0.302,0.302,0.311,0.311,0.311,0.32,0.33,0.33,0.33,0.33,0.33899999999999997,0.33899999999999997,0.348,0.348,0.35700000000000004,0.348,0.35700000000000004,0.35700000000000004,0.35700000000000004,0.366,0.366,0.366,0.35700000000000004,0.348,0.35700000000000004,0.35700000000000004,0.35700000000000004,0.375,0.366,0.35700000000000004,0.348,0.33899999999999997,0.348,0.33899999999999997,0.33,0.33,0.32,0.32,0.311,0.32,0.32,0.311,0.311,0.32,0.32,0.32,0.311,0.32,0.32,0.33,0.32,0.32,0.32,0.32,0.33,0.33,0.32,0.311,0.311,0.311,0.311,0.311,0.32,0.32,0.33,0.33,0.32,0.32,0.32,0.32,0.32,0.32,0.32,0.32,0.311,0.32,0.311,0.32,0.32,0.32,0.33,0.33,0.33,0.33,0.33,0.33,0.33899999999999997,0.33,0.33,0.33,0.32,0.33899999999999997,0.33,0.33899999999999997,0.348,0.33899999999999997,0.348,0.33899999999999997,0.33899999999999997,0.33899999999999997,0.33899999999999997,0.33899999999999997,0.35700000000000004,0.366,0.375,0.385,0.385,0.40299999999999997,0.40299999999999997,0.42100000000000004,0.43,0.467,0.47600000000000003,0.503,0.521,0.5489999999999999,0.5670000000000001,0.585,0.585,0.595,0.5670000000000001,0.521,0.47600000000000003,0.41200000000000003,0.366,0.32,0.293,0.265,0.23800000000000002,0.22,0.20199999999999999,0.193,0.183,0.183,0.193,0.20199999999999999,0.21100000000000002,0.22899999999999998,0.247,0.275,0.275,0.293,0.302,0.32,0.33,0.33899999999999997,0.33899999999999997,0.348,0.348,0.348,0.348,0.348,0.35700000000000004,0.348,0.33899999999999997,0.35700000000000004,0.348,0.35700000000000004,0.35700000000000004,0.35700000000000004,0.35700000000000004,0.35700000000000004,0.35700000000000004,0.35700000000000004,0.35700000000000004,0.35700000000000004,0.35700000000000004,0.35700000000000004,0.35700000000000004,0.35700000000000004,0.35700000000000004,0.366,0.35700000000000004,0.35700000000000004,0.366,0.366,0.35700000000000004,0.35700000000000004,0.35700000000000004,0.35700000000000004,0.35700000000000004,0.35700000000000004,0.35700000000000004,0.35700000000000004,0.35700000000000004,0.348,0.348,0.348,0.348,0.348,0.348,0.35700000000000004,0.348,0.35700000000000004,0.35700000000000004,0.35700000000000004,0.35700000000000004,0.366,0.366,0.366,0.35700000000000004,0.35700000000000004,0.366,0.375,0.366,0.375,0.385,0.385,0.385,0.39299999999999996,0.39299999999999996,0.40299999999999997,0.40299999999999997,0.40299999999999997,0.41200000000000003,0.41200000000000003,0.41200000000000003,0.41200000000000003,0.41200000000000003,0.41200000000000003,0.40299999999999997,0.41200000000000003,0.40299999999999997,0.40299999999999997,0.40299999999999997,N
8,0.193,0.22,0.22899999999999998,0.247,0.257,0.265,0.275,0.275,0.284,0.284,0.284,0.284,0.275,0.284,0.293,0.293,0.293,0.302,0.302,0.302,0.302,0.302,0.302,0.302,0.302,0.302,0.302,0.302,0.293,0.293,0.293,0.284,0.293,0.302,0.302,0.302,0.293,0.302,0.293,0.293,0.293,0.293,0.293,0.302,0.302,0.302,0.302,0.302,0.302,0.302,0.311,0.302,0.302,0.302,0.311,0.311,0.302,0.302,0.302,0.302,0.302,0.302,0.311,0.302,0.311,0.311,0.32,0.32,0.32,0.32,0.32,0.33,0.33,0.33,0.001,0.001,0.001,0.001,0.001,0.001,0.001,0.001,0.001,0.001,0.001,0.001,0.001,0.001,0.001,0.001,0.001,0.001,0.001,0.001,0.001,0.001,0.001,0.001,0.001,0.001,0.001,0.001,0.001,0.001,0.001,0.001,0.001,0.001,0.001,0.001,0.001,0.001,0.001,0.001,0.001,0.001,0.001,0.001,0.001,0.001,0.001,0.001,0.001,0.001,0.001,0.001,0.001,0.001,0.001,0.001,0.001,0.001,0.001,0.001,0.001,0.001,0.001,0.001,0.001,0.001,0.001,0.001,0.001,0.001,0.001,0.001,0.001,0.001,0.001,0.001,0.001,0.001,0.001,0.001,0.001,0.001,0.001,0.001,0.001,0.001,0.001,0.001,0.001,0.001,0.001,0.001,0.001,0.001,0.001,0.001,0.001,0.001,0.001,0.001,0.001,0.001,0.001,0.001,0.001,0.001,0.001,0.001,0.001,0.001,0.001,0.001,0.001,0.001,0.001,0.001,0.001,0.001,0.001,0.001,0.001,0.001,0.001,0.001,0.001,0.001,0.001,0.001,0.001,0.001,0.001,0.001,0.001,0.001,0.001,0.001,0.001,0.001,0.001,0.001,0.001,0.001,0.001,0.001,0.001,0.001,0.001,0.001,0.001,0.001,0.001,0.001,0.001,0.001,0.001,0.001,0.001,0.001,0.001,0.001,0.001,0.001,0.001,0.001,0.001,0.001,0.001,0.001,0.001,0.001,0.001,0.001,0.001,0.001,0.001,0.001,0.001,0.001,0.001,0.001,0.001,0.001,0.001,0.001,0.001,0.001,0.001,0.001,0.001,0.001,0.001,0.001,0.001,0.001,0.001,0.001,0.001,0.001,0.001,0.001,0.001,0.001,0.001,0.001,0.001,0.001,0.001,0.001,0.001,0.001,0.001,0.001,0.001,0.001,0.001,0.001,0.001,0.001,0.001,0.001,0.001,0.001,0.001,0.001,0.001,0.001,0.001,0.001,0.001,0.001,0.001,0.001,0.001,0.001,0.001,0.001,0.001,0.001,0.001,0.001,0.001,0.001,0.001,0.001,0.001,0.001,0.001,0.001,0.001,0.001,0.001,0.001,0.001,0.001,0.001,0.001,-0.16399999999999998,-0.16399999999999998,-0.16399999999999998,-0.16399999999999998,-0.155,-0.16399999999999998,-0.16399999999999998,-0.16399999999999998,-0.16399999999999998,-0.16399999999999998,-0.16399999999999998,-0.155,-0.155,-0.155,-0.155,-0.16399999999999998,-0.16399999999999998,-0.16399999999999998,-0.17300000000000001,-0.16399999999999998,-0.16399999999999998,-0.16399999999999998,-0.155,-0.16399999999999998,-0.17300000000000001,-0.16399999999999998,-0.16399999999999998,-0.16399999999999998,-0.155,-0.155,-0.155,-0.155,-0.16399999999999998,-0.16399999999999998,-0.16399999999999998,-0.16399999999999998,-0.16399999999999998,-0.16399999999999998,-0.155,-0.155,-0.16399999999999998,-0.16399999999999998,-0.16399999999999998,-0.16399999999999998,-0.16399999999999998,-0.155,-0.155,-0.16399999999999998,-0.16399999999999998,-0.16399999999999998,-0.17300000000000001,-0.17300000000000001,-0.16399999999999998,-0.16399999999999998,-0.16399999999999998,-0.16399999999999998,-0.155,-0.16399999999999998,-0.16399999999999998,-0.16399999999999998,-0.155,-0.16399999999999998,-0.155,-0.155,-0.16399999999999998,-0.16399999999999998,-0.16399999999999998,-0.16399999999999998,-0.16399999999999998,-0.16399999999999998,-0.155,-0.155,-0.155,-0.17300000000000001,-0.16399999999999998,-0.155,-0.16399999999999998,-0.16399999999999998,-0.16399999999999998,-0.155,-0.155,-0.16399999999999998,-0.16399999999999998,-0.17300000000000001,-0.16399999999999998,-0.17300000000000001,-0.16399999999999998,-0.16399999999999998,-0.155,-0.16399999999999998,-0.16399999999999998,-0.16399999999999998,-0.16399999999999998,-0.16399999999999998,-0.16399999999999998,-0.155,-0.155,-0.155,-0.16399999999999998,-0.16399999999999998,-0.16399999999999998,-0.17300000000000001,-0.16399999999999998,-0.16399999999999998,-0.155,-0.155,-0.16399999999999998,-0.16399999999999998,-0.16399999999999998,-0.16399999999999998,-0.16399999999999998,-0.16399999999999998,-0.16399999999999998,-0.155,-0.17300000000000001,-0.16399999999999998,-0.16399999999999998,-0.17300000000000001,-0.16399999999999998,-0.16399999999999998,-0.155,-0.155,-0.155,-0.16399999999999998,-0.155,-0.16399999999999998,-0.16399999999999998,-0.16399999999999998,-0.16399999999999998,-0.155,-0.16399999999999998,-0.16399999999999998,-0.155,-0.17300000000000001,-0.16399999999999998,-0.16399999999999998,-0.16399999999999998,-0.16399999999999998,-0.16399999999999998,-0.155,-0.16399999999999998,-0.16399999999999998,-0.16399999999999998,-0.16399999999999998,-0.155,-0.155,-0.16399999999999998,-0.16399999999999998,-0.16399999999999998,-0.16399999999999998,-0.16399999999999998,-0.16399999999999998,-0.16399999999999998,-0.155,-0.155,-0.155,-0.16399999999999998,-0.155,-0.16399999999999998,-0.16399999999999998,-0.16399999999999998,-0.16399999999999998,-0.1,0.293,0.5579999999999999,0.713,0.823,0.853,0.853,0.853,0.853,0.853,0.853,0.853,0.853,0.853,0.853,0.853,0.853,0.853,0.853,0.853,0.853,0.853,0.853,0.853,0.853,0.853,0.853,0.853,0.853,0.853,0.853,0.853,0.853,0.853,0.853,0.853,0.853,0.853,0.853,0.853,0.853,0.853,0.853,0.853,0.853,0.853,0.853,0.853,0.853,0.853,0.853,0.853,0.853,0.853,0.853,0.853,0.853,0.853,0.853,0.853,0.853,0.853,0.853,0.853,0.853,0.853,0.853,0.853,0.853,0.853,0.853,0.853,0.853,0.853,0.853,0.853,0.853,0.853,0.853,0.853,0.853,0.853,0.853,0.853,0.853,0.853,0.853,0.853,0.853,0.853,0.853,0.853,0.853,0.853,0.853,0.853,0.853,0.853,0.853,0.853,0.853,0.853,0.853,0.853,0.853,0.853,0.853,0.853,0.853,0.853,0.853,0.853,0.853,0.853,0.853,0.853,0.853,0.853,0.853,0.853,0.853,0.853,0.853,0.853,0.853,0.853,0.853,0.853,0.853,0.853,0.853,0.853,0.853,0.853,0.853,0.853,0.853,0.853,0.853,0.853,0.853,0.853,0.853,0.853,0.823,0.41200000000000003,0.147,-0.008,-0.11800000000000001,-0.155,-0.182,-0.21,-0.21899999999999997,-0.237,-0.24600000000000002,-0.24600000000000002,-0.24600000000000002,-0.24600000000000002,-0.24600000000000002,-0.24600000000000002,-0.24600000000000002,-0.24600000000000002,-0.24600000000000002,-0.24600000000000002,-0.24600000000000002,-0.24600000000000002,-0.24600000000000002,-0.24600000000000002,-0.24600000000000002,-0.24600000000000002,-0.24600000000000002,-0.24600000000000002,-0.24600000000000002,-0.24600000000000002,-0.24600000000000002,-0.24600000000000002,-0.24600000000000002,-0.24600000000000002,-0.24600000000000002,-0.24600000000000002,-0.24600000000000002,-0.24600000000000002,-0.237,-0.24600000000000002,-0.237,-0.24600000000000002,-0.24600000000000002,-0.24600000000000002,-0.24600000000000002,-0.24600000000000002,-0.24600000000000002,-0.24600000000000002,-0.24600000000000002,-0.24600000000000002,-0.24600000000000002,-0.24600000000000002,-0.24600000000000002,-0.24600000000000002,-0.24600000000000002,-0.24600000000000002,-0.24600000000000002,-0.237,-0.24600000000000002,-0.24600000000000002,-0.24600000000000002,-0.24600000000000002,-0.24600000000000002,-0.24600000000000002,-0.24600000000000002,-0.24600000000000002,-0.237,-0.24600000000000002,-0.24600000000000002,-0.24600000000000002,-0.24600000000000002,-0.24600000000000002,-0.237,-0.237,-0.237,-0.237,-0.237,-0.24600000000000002,-0.24600000000000002,-0.24600000000000002,-0.24600000000000002,-0.24600000000000002,-0.24600000000000002,-0.24600000000000002,-0.24600000000000002,-0.237,-0.24600000000000002,-0.24600000000000002,-0.24600000000000002,-0.237,-0.237,-0.24600000000000002,-0.24600000000000002,-0.24600000000000002,-0.24600000000000002,-0.24600000000000002,-0.24600000000000002,-0.24600000000000002,-0.237,-0.237,-0.237,-0.237,-0.24600000000000002,-0.237,-0.24600000000000002,-0.237,-0.237,-0.237,-0.237,-0.237,-0.237,-0.24600000000000002,-0.237,-0.24600000000000002,-0.237,-0.237,-0.237,-0.24600000000000002,-0.24600000000000002,-0.237,-0.237,-0.237,-0.237,-0.237,-0.237,-0.237,-0.24600000000000002,-0.24600000000000002,-0.24600000000000002,-0.24600000000000002,-0.237,-0.237,-0.237,-0.237,-0.237,-0.237,-0.237,-0.237,-0.237,-0.237,-0.228,-0.237,-0.237,-0.237,-0.24600000000000002,-0.24600000000000002,-0.237,-0.237,-0.237,-0.228,-0.228,-0.237,-0.237,-0.237,-0.237,-0.228,-0.237,-0.228,0.001,0.001,0.001,0.001,0.001,0.001,0.001,0.001,0.001,0.001,0.001,0.001,0.001,0.001,0.001,0.001,0.001,0.001,0.001,0.001,0.001,0.001,0.001,0.001,0.001,0.001,0.001,0.001,0.001,0.001,0.001,0.001,0.001,0.001,0.001,0.001,0.001,0.001,0.001,0.001,0.001,0.001,0.001,0.001,0.001,0.001,0.001,0.001,0.001,0.001,0.001,0.001,0.001,0.001,0.001,0.001,0.001,0.001,0.001,0.001,0.001,0.001,0.001,0.001,0.001,0.001,0.001,0.001,0.001,0.001,0.001,0.001,0.001,0.001,0.001,0.001,0.001,0.001,0.001,0.001,0.001,0.001,0.001,0.001,0.001,0.001,0.001,0.001,0.001,0.001,0.001,0.001,0.001,0.001,0.001,0.001,0.001,0.001,0.001,0.001,0.001,0.001,0.001,0.001,0.001,0.001,0.001,0.001,0.001,0.001,0.001,0.001,0.001,0.001,0.001,0.001,0.001,0.001,0.001,0.001,0.001,0.001,0.001,0.001,0.001,0.001,0.001,0.001,0.001,0.001,0.001,0.001,0.001,0.001,0.001,0.001,0.001,0.001,0.001,0.001,0.001,0.001,0.001,0.001,0.001,0.001,0.001,0.001,0.001,0.001,0.001,0.001,0.001,0.001,0.001,0.001,0.001,0.001,0.001,0.001,0.001,0.001,0.001,0.001,0.001,0.001,0.001,0.001,0.001,0.001,0.001,0.001,0.001,0.001,0.001,0.001,0.001,0.001,0.001,0.001,0.001,0.001,0.001,0.001,0.001,0.001,0.001,0.001,0.001,0.001,0.001,0.001,0.001,0.001,0.001,0.001,0.001,0.001,0.001,0.001,0.001,0.001,0.001,0.001,0.001,0.001,V
9,-0.24600000000000002,-0.24600000000000002,-0.24600000000000002,-0.24600000000000002,-0.24600000000000002,-0.24600000000000002,-0.24600000000000002,-0.24600000000000002,-0.24600000000000002,-0.24600000000000002,-0.24600000000000002,-0.24600000000000002,-0.24600000000000002,-0.24600000000000002,-0.24600000000000002,-0.24600000000000002,-0.24600000000000002,-0.24600000000000002,-0.24600000000000002,-0.24600000000000002,-0.24600000000000002,-0.24600000000000002,-0.237,-0.24600000000000002,-0.237,-0.24600000000000002,-0.24600000000000002,-0.24600000000000002,-0.24600000000000002,-0.24600000000000002,-0.24600000000000002,-0.24600000000000002,-0.24600000000000002,-0.24600000000000002,-0.24600000000000002,-0.24600000000000002,-0.24600000000000002,-0.24600000000000002,-0.24600000000000002,-0.24600000000000002,-0.24600000000000002,-0.237,-0.24600000000000002,-0.24600000000000002,-0.24600000000000002,-0.24600000000000002,-0.24600000000000002,-0.24600000000000002,-0.24600000000000002,-0.24600000000000002,-0.237,-0.24600000000000002,-0.24600000000000002,-0.24600000000000002,-0.24600000000000002,-0.24600000000000002,-0.237,-0.237,-0.237,-0.237,-0.237,-0.24600000000000002,-0.24600000000000002,-0.24600000000000002,-0.24600000000000002,-0.24600000000000002,-0.24600000000000002,-0.24600000000000002,-0.24600000000000002,-0.237,-0.24600000000000002,-0.24600000000000002,-0.24600000000000002,-0.237,-0.237,-0.24600000000000002,-0.24600000000000002,-0.24600000000000002,-0.24600000000000002,-0.24600000000000002,-0.24600000000000002,-0.24600000000000002,-0.237,-0.237,-0.237,-0.237,-0.24600000000000002,-0.237,-0.24600000000000002,-0.237,-0.237,-0.237,-0.237,-0.237,-0.237,-0.24600000000000002,-0.237,-0.24600000000000002,-0.237,-0.237,-0.237,-0.24600000000000002,-0.24600000000000002,-0.237,-0.237,-0.237,-0.237,-0.237,-0.237,-0.237,-0.24600000000000002,-0.24600000000000002,-0.24600000000000002,-0.24600000000000002,-0.237,-0.237,-0.237,-0.237,-0.237,-0.237,-0.237,-0.237,-0.237,-0.237,-0.228,-0.237,-0.237,-0.237,-0.24600000000000002,-0.24600000000000002,-0.237,-0.237,-0.237,-0.228,-0.228,-0.237,-0.237,-0.237,-0.237,-0.228,-0.237,-0.228,0.001,0.001,0.001,0.001,0.001,0.001,0.001,0.001,0.001,0.001,0.001,0.001,0.001,0.001,0.001,0.001,0.001,0.001,0.001,0.001,0.001,0.001,0.001,0.001,0.001,0.001,0.001,0.001,0.001,0.001,0.001,0.001,0.001,0.001,0.001,0.001,0.001,0.001,0.001,0.001,0.001,0.001,0.001,0.001,0.001,0.001,0.001,0.001,0.001,0.001,0.001,0.001,0.001,0.001,0.001,0.001,0.001,0.001,0.001,0.001,0.001,0.001,0.001,0.001,0.001,0.001,0.001,0.001,0.001,0.001,0.001,0.001,0.001,0.001,0.001,0.001,0.001,0.001,0.001,0.001,0.001,0.001,0.001,0.001,0.001,0.001,0.001,0.001,0.001,0.001,0.001,0.001,0.001,0.001,0.001,0.001,0.001,0.001,0.001,0.001,0.001,0.001,0.001,0.001,0.001,0.001,0.001,0.001,0.001,0.001,0.001,0.001,0.001,0.001,0.001,0.001,0.001,0.001,0.001,0.001,0.001,0.001,0.001,0.001,0.001,0.001,0.001,0.001,0.001,0.001,0.001,0.001,0.001,0.001,0.001,0.001,0.001,0.001,0.001,0.001,0.001,0.001,0.001,0.001,0.001,0.001,0.001,0.001,0.001,0.001,0.001,0.001,0.001,0.001,0.001,0.001,0.001,0.001,0.001,0.001,0.001,0.001,0.001,0.001,0.001,0.001,0.001,0.001,0.001,0.001,0.001,0.001,0.001,0.001,0.001,0.001,0.001,0.001,0.001,0.001,0.001,0.001,0.001,0.001,0.001,0.001,0.001,0.001,0.001,0.001,0.001,0.001,0.001,0.001,0.001,0.001,0.001,0.001,0.001,0.001,0.001,0.001,0.001,0.001,0.001,0.001,0.001,0.001,0.001,0.001,0.001,0.001,0.001,0.001,0.001,0.001,0.001,0.001,0.001,0.001,0.001,0.001,0.001,0.001,0.001,0.001,0.001,0.001,0.001,0.001,0.001,0.001,0.001,0.001,0.001,0.001,0.001,0.001,0.001,0.001,0.001,0.001,0.001,0.001,0.001,0.001,0.001,0.001,0.001,0.001,0.001,0.001,0.001,0.001,0.001,0.001,0.129,0.138,0.138,0.138,0.138,0.138,0.138,0.138,0.147,0.147,0.138,0.138,0.138,0.147,0.147,0.147,0.147,0.147,0.147,0.138,0.147,0.147,0.156,0.156,0.156,0.165,0.165,0.165,0.165,0.165,0.165,0.165,0.174,0.174,0.174,0.165,0.174,0.174,0.165,0.174,0.174,0.174,0.193,0.193,0.193,0.193,0.193,0.193,0.193,0.193,0.20199999999999999,0.20199999999999999,0.21100000000000002,0.21100000000000002,0.22,0.22899999999999998,0.23800000000000002,0.23800000000000002,0.23800000000000002,0.23800000000000002,0.247,0.247,0.247,0.247,0.23800000000000002,0.23800000000000002,0.22899999999999998,0.247,0.247,0.247,0.257,0.257,0.247,0.247,0.247,0.247,0.247,0.247,0.23800000000000002,0.23800000000000002,0.22899999999999998,0.22899999999999998,0.22,0.22,0.22899999999999998,0.21100000000000002,0.22,0.22,0.22,0.22,0.22,0.22,0.21100000000000002,0.22,0.22,0.22,0.22,0.22,0.22,0.22,0.22899999999999998,0.22,0.21100000000000002,0.20199999999999999,0.20199999999999999,0.20199999999999999,0.21100000000000002,0.21100000000000002,0.21100000000000002,0.22,0.21100000000000002,0.21100000000000002,0.22,0.21100000000000002,0.22,0.21100000000000002,0.22,0.21100000000000002,0.22,0.21100000000000002,0.21100000000000002,0.21100000000000002,0.21100000000000002,0.21100000000000002,0.21100000000000002,0.21100000000000002,0.21100000000000002,0.22,0.22,0.22,0.21100000000000002,0.21100000000000002,0.22,0.20199999999999999,0.22,0.22,0.22,0.22,0.22,0.22,0.22899999999999998,0.22899999999999998,0.23800000000000002,0.23800000000000002,0.23800000000000002,0.23800000000000002,0.23800000000000002,0.247,0.265,0.257,0.275,0.275,0.284,0.302,0.311,0.33,0.348,0.366,0.375,0.39299999999999996,0.41200000000000003,0.439,0.44799999999999995,0.45799999999999996,0.467,0.439,0.41200000000000003,0.375,0.311,0.265,0.21100000000000002,0.174,0.147,0.129,0.11,0.092,0.083,0.083,0.07400000000000001,0.083,0.11,0.12,0.138,0.147,0.174,0.193,0.20199999999999999,0.22,0.22,0.22899999999999998,0.22899999999999998,0.22899999999999998,0.23800000000000002,0.23800000000000002,0.23800000000000002,0.23800000000000002,0.247,0.247,0.257,0.265,0.265,0.257,0.257,0.257,0.257,0.257,0.247,0.247,0.23800000000000002,0.247,0.23800000000000002,0.23800000000000002,0.23800000000000002,0.22899999999999998,0.23800000000000002,0.23800000000000002,0.247,0.247,0.247,0.23800000000000002,0.23800000000000002,0.23800000000000002,0.247,0.247,0.247,0.247,0.247,0.23800000000000002,0.23800000000000002,0.23800000000000002,0.247,0.257,0.247,0.247,0.247,0.247,0.247,0.247,0.23800000000000002,0.247,0.247,0.257,0.247,0.247,0.257,0.247,0.257,0.257,0.265,0.275,0.275,0.275,0.275,0.275,0.275,0.275,0.275,0.275,0.275,0.275,0.284,0.275,0.284,0.284,0.284,0.284,0.284,0.284,0.284,0.275,0.284,0.275,0.275,0.275,0.265,0.265,0.265,0.257,0.257,0.257,0.247,0.247,0.23800000000000002,0.23800000000000002,0.23800000000000002,0.23800000000000002,0.22899999999999998,0.23800000000000002,0.23800000000000002,0.22899999999999998,0.22,0.22899999999999998,0.22899999999999998,0.22,0.22899999999999998,0.22899999999999998,0.22,0.22,0.22,0.22,0.22,0.22,0.22,0.21100000000000002,0.21100000000000002,0.21100000000000002,0.21100000000000002,0.21100000000000002,0.21100000000000002,0.21100000000000002,0.193,0.20199999999999999,0.20199999999999999,0.20199999999999999,0.193,0.193,0.193,0.193,0.20199999999999999,0.20199999999999999,0.20199999999999999,0.20199999999999999,0.20199999999999999,0.20199999999999999,0.21100000000000002,0.21100000000000002,0.21100000000000002,0.21100000000000002,0.20199999999999999,0.20199999999999999,0.20199999999999999,0.20199999999999999,0.21100000000000002,0.21100000000000002,0.20199999999999999,0.20199999999999999,0.20199999999999999,0.20199999999999999,0.193,0.20199999999999999,0.21100000000000002,0.21100000000000002,0.22,0.21100000000000002,0.22,0.22,0.21100000000000002,0.21100000000000002,0.21100000000000002,0.22,0.21100000000000002,0.21100000000000002,0.21100000000000002,0.21100000000000002,0.20199999999999999,0.20199999999999999,0.21100000000000002,0.21100000000000002,0.22899999999999998,0.22899999999999998,0.22899999999999998,0.22899999999999998,0.22,0.23800000000000002,0.23800000000000002,0.247,0.257,0.257,0.265,0.257,0.257,0.257,0.265,0.257,0.265,0.265,0.257,0.257,0.257,0.257,0.265,0.265,0.275,0.275,0.275,0.265,0.247,0.247,0.23800000000000002,0.23800000000000002,0.22899999999999998,0.22,0.21100000000000002,0.21100000000000002,0.20199999999999999,0.20199999999999999,0.21100000000000002,0.21100000000000002,0.21100000000000002,0.21100000000000002,0.21100000000000002,0.21100000000000002,0.20199999999999999,0.20199999999999999,0.21100000000000002,0.20199999999999999,0.21100000000000002,0.20199999999999999,0.20199999999999999,0.21100000000000002,0.20199999999999999,0.20199999999999999,0.20199999999999999,0.193,0.193,0.193,0.183,0.193,0.183,0.183,0.193,0.183,0.193,0.20199999999999999,0.193,0.193,0.193,0.193,0.193,0.183,0.193,0.193,0.193,0.20199999999999999,0.183,0.183,0.183,0.183,0.193,0.183,0.183,0.193,0.193,0.193,0.183,0.183,0.183,0.193,0.193,0.193,0.183,0.183,0.193,0.183,0.193,0.193,0.20199999999999999,0.20199999999999999,0.21100000000000002,0.22,0.22899999999999998,0.23800000000000002,0.247,0.247,0.265,0.275,0.284,0.293,0.32,0.33,0.33899999999999997,0.35700000000000004,0.385,0.40299999999999997,0.41200000000000003,0.42100000000000004,0.40299999999999997,0.366,0.311,0.257,0.20199999999999999,0.147,0.12,0.083,0.065,0.037000000000000005,0.019,0.019,0.019,0.019,0.037000000000000005,0.046,0.065,0.07400000000000001,0.092,0.10099999999999999,0.12,0.138,0.147,0.156,0.174,0.165,0.174,0.174,0.174,0.174,0.183,0.193,0.183,0.183,0.193,0.193,0.193,0.193,0.183,0.193,0.193,0.183,0.20199999999999999,0.193,0.193,0.193,0.193,0.193,0.193,0.193,0.193,0.193,0.20199999999999999,0.193,0.183,0.183,0.193,0.183,0.21100000000000002,0.193,0.193,0.183,0.183,0.183,0.183,0.183,0.183,0.193,0.193,0.193,0.183,0.193,0.20199999999999999,0.193,0.193,0.193,0.183,0.193,0.183,0.193,0.20199999999999999,0.193,0.20199999999999999,0.21100000000000002,0.21100000000000002,0.21100000000000002,0.21100000000000002,0.22,0.22899999999999998,0.22,0.22899999999999998,0.22899999999999998,0.22899999999999998,0.22899999999999998,0.22899999999999998,0.22899999999999998,0.22899999999999998,0.22899999999999998,0.23800000000000002,0.23800000000000002,0.247,0.247,0.23800000000000002,0.22899999999999998,0.22899999999999998,0.22899999999999998,0.23800000000000002,0.22899999999999998,0.22,0.22,0.21100000000000002,0.22,0.22,0.21100000000000002,0.21100000000000002,0.21100000000000002,0.20199999999999999,0.20199999999999999,0.193,0.193,0.193,0.183,0.183,0.183,0.193,0.183,N
10,-0.018000000000000002,0.001,0.01,0.027999999999999997,0.037000000000000005,0.055,0.055,0.055,0.055,0.055,0.065,0.055,0.055,0.055,0.065,0.065,0.07400000000000001,0.07400000000000001,0.07400000000000001,0.07400000000000001,0.083,0.07400000000000001,0.07400000000000001,0.07400000000000001,0.07400000000000001,0.07400000000000001,0.083,0.083,0.083,0.083,0.092,0.083,0.083,0.083,0.083,0.083,0.083,0.083,0.083,0.083,0.092,0.092,0.083,0.083,0.083,0.083,0.092,0.083,0.092,0.092,0.083,0.092,0.092,0.092,0.092,0.092,0.092,0.092,0.092,0.10099999999999999,0.092,0.092,0.10099999999999999,0.092,0.10099999999999999,0.10099999999999999,0.10099999999999999,0.11,0.12,0.12,0.12,0.129,0.129,0.129,0.129,0.129,0.129,0.129,0.138,0.138,0.138,0.138,0.138,0.138,0.138,0.138,0.138,0.138,0.138,0.138,0.138,0.138,0.138,0.138,0.138,0.129,0.138,0.129,0.129,0.12,0.129,0.12,0.12,0.12,0.11,0.10099999999999999,0.10099999999999999,0.092,0.10099999999999999,0.11,0.11,0.11,0.11,0.092,0.083,0.07400000000000001,0.07400000000000001,0.07400000000000001,0.07400000000000001,0.065,0.07400000000000001,0.07400000000000001,0.07400000000000001,0.07400000000000001,0.065,0.065,0.065,0.065,0.065,0.07400000000000001,0.07400000000000001,0.07400000000000001,0.07400000000000001,0.07400000000000001,0.07400000000000001,0.065,0.07400000000000001,0.07400000000000001,0.07400000000000001,0.07400000000000001,0.07400000000000001,0.07400000000000001,0.07400000000000001,0.07400000000000001,0.083,0.083,0.083,0.083,0.083,0.092,0.10099999999999999,0.10099999999999999,0.10099999999999999,0.11,0.11,0.10099999999999999,0.10099999999999999,0.10099999999999999,0.10099999999999999,0.092,0.10099999999999999,0.10099999999999999,0.12,0.12,0.12,0.12,0.12,0.12,0.12,0.11,0.129,0.12,0.129,0.129,0.138,0.138,0.138,0.138,0.138,0.138,0.129,0.129,0.129,0.138,0.138,0.147,0.156,0.165,0.156,0.156,0.165,0.156,0.165,0.156,0.156,0.156,0.156,0.165,0.165,0.174,0.174,0.174,0.174,0.174,0.165,0.156,0.156,0.147,0.147,0.147,0.138,0.138,0.138,0.138,0.129,0.12,0.129,0.129,0.138,0.129,0.12,0.12,0.12,0.12,0.12,0.12,0.12,0.11,0.12,0.12,0.12,0.12,0.12,0.11,0.11,0.11,0.10099999999999999,0.10099999999999999,0.11,0.11,0.12,0.12,0.11,0.10099999999999999,0.092,0.092,0.092,0.092,0.10099999999999999,0.11,0.12,0.12,0.12,0.11,0.12,0.11,0.12,0.12,0.129,0.129,0.11,0.11,0.12,0.11,0.11,0.12,0.129,0.129,0.129,0.138,0.138,0.129,0.138,0.138,0.138,0.138,0.129,0.138,0.138,0.156,0.165,0.174,0.183,0.193,0.193,0.193,0.20199999999999999,0.22,0.22899999999999998,0.23800000000000002,0.247,0.265,0.284,0.302,0.311,0.32,0.32,0.311,0.284,0.247,0.193,0.138,0.11,0.055,0.019,0.001,-0.018000000000000002,-0.018000000000000002,-0.018000000000000002,-0.008,0.001,0.001,0.001,0.027999999999999997,0.055,0.07400000000000001,0.092,0.11,0.138,0.138,0.147,0.147,0.138,0.138,0.138,0.147,0.147,0.147,0.147,0.147,0.147,0.138,0.138,0.129,0.147,0.138,0.156,0.156,0.156,0.147,0.138,0.147,0.138,0.138,0.147,0.147,0.156,0.147,0.156,0.156,0.156,0.147,0.156,0.165,0.147,0.147,0.138,0.138,0.138,0.147,0.147,0.156,0.165,0.165,0.156,0.156,0.156,0.165,0.174,0.183,0.174,0.183,0.183,0.183,0.193,0.193,0.20199999999999999,0.20199999999999999,0.193,0.20199999999999999,0.20199999999999999,0.21100000000000002,0.21100000000000002,0.21100000000000002,0.21100000000000002,0.22,0.22899999999999998,0.22899999999999998,0.22899999999999998,0.22899999999999998,0.22899999999999998,0.22,0.21100000000000002,0.22,0.22,0.22899999999999998,0.22899999999999998,0.22899999999999998,0.22899999999999998,0.22899999999999998,0.22,0.22899999999999998,0.23800000000000002,0.23800000000000002,0.22899999999999998,0.22899999999999998,0.22,0.22,0.22899999999999998,0.22,0.22,0.22,0.20199999999999999,0.193,0.193,0.20199999999999999,0.22,0.21100000000000002,0.21100000000000002,0.20199999999999999,0.183,0.174,0.165,0.165,0.183,0.20199999999999999,0.20199999999999999,0.20199999999999999,0.193,0.183,0.174,0.156,0.165,0.174,0.183,0.183,0.193,0.193,0.193,0.20199999999999999,0.193,0.193,0.193,0.193,0.183,0.174,0.183,0.183,0.183,0.174,0.183,0.193,0.183,0.183,0.174,0.165,0.165,0.174,0.193,0.193,0.193,0.193,0.20199999999999999,0.193,0.20199999999999999,0.20199999999999999,0.20199999999999999,0.193,0.193,0.183,0.174,0.174,0.174,0.193,0.193,0.193,0.193,0.193,0.20199999999999999,0.193,0.20199999999999999,0.20199999999999999,0.193,0.193,0.183,0.193,0.193,0.193,0.193,0.20199999999999999,0.20199999999999999,0.21100000000000002,0.20199999999999999,0.20199999999999999,0.21100000000000002,0.21100000000000002,0.20199999999999999,0.22,0.22,0.22,0.22899999999999998,0.23800000000000002,0.247,0.23800000000000002,0.247,0.247,0.247,0.23800000000000002,0.23800000000000002,0.247,0.247,0.23800000000000002,0.247,0.247,0.247,0.247,0.247,0.247,0.23800000000000002,0.23800000000000002,0.23800000000000002,0.247,0.247,0.247,0.23800000000000002,0.23800000000000002,0.247,0.23800000000000002,0.247,0.23800000000000002,0.22899999999999998,0.22899999999999998,0.22899999999999998,0.23800000000000002,0.247,0.247,0.23800000000000002,0.247,0.22899999999999998,0.22899999999999998,0.22899999999999998,0.22899999999999998,0.22,0.21100000000000002,0.21100000000000002,0.20199999999999999,0.193,0.183,0.183,0.183,0.20199999999999999,0.20199999999999999,0.20199999999999999,0.193,0.183,0.183,0.174,0.174,0.183,0.174,0.165,0.174,0.183,0.183,0.193,0.20199999999999999,0.193,0.193,0.193,0.193,0.183,0.183,0.183,0.183,0.183,0.174,0.183,0.183,0.183,0.183,0.193,0.193,0.20199999999999999,0.20199999999999999,0.22,0.22899999999999998,0.23800000000000002,0.22899999999999998,0.21100000000000002,0.21100000000000002,0.22,0.22,0.23800000000000002,0.257,0.257,0.265,0.275,0.275,0.284,0.293,0.302,0.32,0.33,0.348,0.35700000000000004,0.366,0.39299999999999996,0.41200000000000003,0.42100000000000004,0.43,0.41200000000000003,0.41200000000000003,0.385,0.348,0.293,0.257,0.21100000000000002,0.165,0.138,0.12,0.083,0.07400000000000001,0.07400000000000001,0.065,0.083,0.092,0.11,0.129,0.138,0.156,0.174,0.183,0.193,0.20199999999999999,0.21100000000000002,0.20199999999999999,0.20199999999999999,0.20199999999999999,0.20199999999999999,0.193,0.193,0.193,0.20199999999999999,0.20199999999999999,0.20199999999999999,0.20199999999999999,0.193,0.193,0.183,0.193,0.193,0.183,0.174,0.174,0.174,0.165,0.174,0.165,0.174,0.174,0.174,0.165,0.165,0.156,0.156,0.156,0.147,0.147,0.147,0.147,0.147,0.138,0.147,0.138,0.138,0.138,0.138,0.138,0.138,0.138,0.138,0.138,0.138,0.138,0.129,0.138,0.138,0.138,0.138,0.138,0.138,0.138,0.138,0.138,0.138,0.138,0.138,0.138,0.138,0.138,0.138,0.138,0.138,0.138,0.138,0.138,0.138,0.138,0.138,0.147,0.138,0.138,0.138,0.138,0.138,0.138,0.138,0.138,0.138,0.129,0.138,0.129,0.129,0.129,0.12,0.12,0.129,0.12,0.12,0.12,0.11,0.12,0.11,0.11,0.12,0.11,0.12,0.12,0.11,0.11,0.11,0.10099999999999999,0.11,0.11,0.11,0.10099999999999999,0.10099999999999999,0.10099999999999999,0.10099999999999999,0.092,0.10099999999999999,0.092,0.10099999999999999,0.10099999999999999,0.092,0.092,0.092,0.10099999999999999,0.10099999999999999,0.092,0.10099999999999999,0.092,0.092,0.092,0.092,0.10099999999999999,0.10099999999999999,0.092,0.10099999999999999,0.092,0.092,0.092,0.092,0.092,0.10099999999999999,0.11,0.11,0.10099999999999999,0.10099999999999999,0.10099999999999999,0.092,0.092,0.10099999999999999,0.10099999999999999,0.11,0.11,0.11,0.11,0.10099999999999999,0.11,0.11,0.11,0.11,0.11,0.12,0.12,0.12,0.12,0.12,0.11,0.12,0.12,0.12,0.12,0.12,0.12,0.12,0.12,0.12,0.129,0.12,0.129,0.12,0.12,0.129,0.129,0.129,0.138,0.138,0.138,0.138,0.138,0.147,0.138,0.147,0.156,0.156,0.165,0.156,0.156,0.165,0.156,0.165,0.174,0.174,0.165,0.174,0.174,0.165,0.165,0.174,0.165,0.174,0.174,0.165,0.165,0.165,0.156,0.147,0.147,0.147,0.138,0.138,0.138,0.138,0.129,0.138,0.138,0.138,0.138,0.129,0.129,0.138,0.129,0.129,0.138,0.138,0.138,0.138,0.138,0.138,0.138,0.129,0.129,0.12,0.12,0.12,0.11,0.12,0.11,0.12,0.129,0.129,0.12,0.12,0.12,0.12,0.12,0.12,0.12,0.12,0.12,0.11,0.11,0.12,0.11,0.11,0.11,0.11,0.12,0.11,0.12,0.129,0.138,0.129,0.129,0.129,0.12,0.12,0.12,0.129,0.12,0.129,0.129,0.12,0.12,0.11,0.11,0.129,0.138,0.138,0.147,0.147,0.156,0.165,0.174,0.193,0.193,0.22,0.22899999999999998,0.247,0.257,0.275,0.284,0.311,0.33899999999999997,0.348,0.348,0.33,0.302,0.247,0.193,0.147,0.10099999999999999,0.07400000000000001,0.046,0.01,-0.008,-0.036000000000000004,-0.036000000000000004,-0.036000000000000004,-0.036000000000000004,-0.027000000000000003,-0.008,0.001,0.01,0.019,0.037000000000000005,0.065,0.07400000000000001,0.092,0.10099999999999999,0.10099999999999999,0.11,0.11,0.11,0.11,0.12,0.129,0.129,0.129,0.12,0.12,0.12,0.12,0.12,0.129,0.129,0.129,0.129,0.12,0.129,0.129,0.12,0.12,0.12,0.12,0.11,0.11,0.129,0.129,0.12,0.129,0.129,0.12,0.12,0.129,0.12,0.11,0.12,N
11,0.156,0.174,0.183,0.193,0.20199999999999999,0.21100000000000002,0.20199999999999999,0.20199999999999999,0.20199999999999999,0.20199999999999999,0.193,0.193,0.193,0.20199999999999999,0.20199999999999999,0.20199999999999999,0.20199999999999999,0.193,0.193,0.183,0.193,0.193,0.183,0.174,0.174,0.174,0.165,0.174,0.165,0.174,0.174,0.174,0.165,0.165,0.156,0.156,0.156,0.147,0.147,0.147,0.147,0.147,0.138,0.147,0.138,0.138,0.138,0.138,0.138,0.138,0.138,0.138,0.138,0.138,0.138,0.129,0.138,0.138,0.138,0.138,0.138,0.138,0.138,0.138,0.138,0.138,0.138,0.138,0.138,0.138,0.138,0.138,0.138,0.138,0.138,0.138,0.138,0.138,0.138,0.138,0.147,0.138,0.138,0.138,0.138,0.138,0.138,0.138,0.138,0.138,0.129,0.138,0.129,0.129,0.129,0.12,0.12,0.129,0.12,0.12,0.12,0.11,0.12,0.11,0.11,0.12,0.11,0.12,0.12,0.11,0.11,0.11,0.10099999999999999,0.11,0.11,0.11,0.10099999999999999,0.10099999999999999,0.10099999999999999,0.10099999999999999,0.092,0.10099999999999999,0.092,0.10099999999999999,0.10099999999999999,0.092,0.092,0.092,0.10099999999999999,0.10099999999999999,0.092,0.10099999999999999,0.092,0.092,0.092,0.092,0.10099999999999999,0.10099999999999999,0.092,0.10099999999999999,0.092,0.092,0.092,0.092,0.092,0.10099999999999999,0.11,0.11,0.10099999999999999,0.10099999999999999,0.10099999999999999,0.092,0.092,0.10099999999999999,0.10099999999999999,0.11,0.11,0.11,0.11,0.10099999999999999,0.11,0.11,0.11,0.11,0.11,0.12,0.12,0.12,0.12,0.12,0.11,0.12,0.12,0.12,0.12,0.12,0.12,0.12,0.12,0.12,0.129,0.12,0.129,0.12,0.12,0.129,0.129,0.129,0.138,0.138,0.138,0.138,0.138,0.147,0.138,0.147,0.156,0.156,0.165,0.156,0.156,0.165,0.156,0.165,0.174,0.174,0.165,0.174,0.174,0.165,0.165,0.174,0.165,0.174,0.174,0.165,0.165,0.165,0.156,0.147,0.147,0.147,0.138,0.138,0.138,0.138,0.129,0.138,0.138,0.138,0.138,0.129,0.129,0.138,0.129,0.129,0.138,0.138,0.138,0.138,0.138,0.138,0.138,0.129,0.129,0.12,0.12,0.12,0.11,0.12,0.11,0.12,0.129,0.129,0.12,0.12,0.12,0.12,0.12,0.12,0.12,0.12,0.12,0.11,0.11,0.12,0.11,0.11,0.11,0.11,0.12,0.11,0.12,0.129,0.138,0.129,0.129,0.129,0.12,0.12,0.12,0.129,0.12,0.129,0.129,0.12,0.12,0.11,0.11,0.129,0.138,0.138,0.147,0.147,0.156,0.165,0.174,0.193,0.193,0.22,0.22899999999999998,0.247,0.257,0.275,0.284,0.311,0.33899999999999997,0.348,0.348,0.33,0.302,0.247,0.193,0.147,0.10099999999999999,0.07400000000000001,0.046,0.01,-0.008,-0.036000000000000004,-0.036000000000000004,-0.036000000000000004,-0.036000000000000004,-0.027000000000000003,-0.008,0.001,0.01,0.019,0.037000000000000005,0.065,0.07400000000000001,0.092,0.10099999999999999,0.10099999999999999,0.11,0.11,0.11,0.11,0.12,0.129,0.129,0.129,0.12,0.12,0.12,0.12,0.12,0.129,0.129,0.129,0.129,0.12,0.129,0.129,0.12,0.12,0.12,0.12,0.11,0.11,0.129,0.129,0.12,0.129,0.129,0.12,0.12,0.129,0.12,0.11,0.12,0.11,0.11,0.12,0.11,0.11,0.11,0.12,0.12,0.12,0.12,0.129,0.129,0.12,0.129,0.129,0.129,0.138,0.138,0.138,0.138,0.138,0.138,0.138,0.138,0.138,0.138,0.147,0.147,0.147,0.147,0.156,0.165,0.156,0.156,0.165,0.174,0.165,0.156,0.156,0.156,0.165,0.156,0.156,0.156,0.156,0.156,0.147,0.147,0.147,0.138,0.138,0.138,0.138,0.129,0.138,0.129,0.129,0.129,0.12,0.11,0.11,0.11,0.10099999999999999,0.11,0.11,0.11,0.11,0.10099999999999999,0.092,0.092,0.10099999999999999,0.092,0.10099999999999999,0.092,0.092,0.092,0.092,0.092,0.092,0.092,0.092,0.092,0.083,0.083,0.083,0.083,0.092,0.092,0.092,0.092,0.092,0.092,0.092,0.083,0.083,0.083,0.083,0.083,0.083,0.092,0.07400000000000001,0.07400000000000001,0.083,0.083,0.092,0.083,0.083,0.092,0.10099999999999999,0.10099999999999999,0.10099999999999999,0.092,0.092,0.092,0.092,0.083,0.083,0.083,0.10099999999999999,0.092,0.10099999999999999,0.10099999999999999,0.10099999999999999,0.092,0.10099999999999999,0.10099999999999999,0.11,0.11,0.10099999999999999,0.11,0.11,0.11,0.10099999999999999,0.10099999999999999,0.11,0.10099999999999999,0.12,0.12,0.11,0.11,0.10099999999999999,0.11,0.10099999999999999,0.11,0.10099999999999999,0.10099999999999999,0.10099999999999999,0.10099999999999999,0.092,0.092,0.11,0.10099999999999999,0.11,0.12,0.11,0.11,0.11,0.11,0.11,0.11,0.11,0.11,0.11,0.11,0.11,0.11,0.12,0.12,0.129,0.138,0.138,0.147,0.147,0.147,0.138,0.138,0.147,0.156,0.165,0.165,0.156,0.147,0.156,0.147,0.156,0.156,0.156,0.156,0.147,0.147,0.138,0.138,0.129,0.138,0.129,0.11,0.10099999999999999,0.10099999999999999,0.10099999999999999,0.10099999999999999,0.11,0.11,0.11,0.10099999999999999,0.10099999999999999,0.10099999999999999,0.10099999999999999,0.10099999999999999,0.10099999999999999,0.10099999999999999,0.10099999999999999,0.10099999999999999,0.092,0.092,0.10099999999999999,0.092,0.092,0.092,0.092,0.092,0.092,0.083,0.083,0.083,0.083,0.092,0.092,0.092,0.083,0.083,0.092,0.092,0.092,0.092,0.10099999999999999,0.092,0.092,0.083,0.083,0.083,0.07400000000000001,0.083,0.092,0.092,0.092,0.092,0.092,0.083,0.092,0.10099999999999999,0.10099999999999999,0.092,0.092,0.092,0.092,0.10099999999999999,0.092,0.092,0.10099999999999999,0.10099999999999999,0.092,0.092,0.10099999999999999,0.10099999999999999,0.12,0.129,0.138,0.138,0.138,0.138,0.147,0.156,0.156,0.183,0.20199999999999999,0.22,0.22899999999999998,0.257,0.275,0.293,0.311,0.311,0.302,0.275,0.23800000000000002,0.183,0.138,0.092,0.055,0.019,0.001,-0.027000000000000003,-0.045,-0.063,-0.063,-0.063,-0.063,-0.063,-0.054000000000000006,-0.036000000000000004,-0.008,0.001,0.001,0.027999999999999997,0.046,0.055,0.065,0.065,0.055,0.055,0.065,0.065,0.083,0.07400000000000001,0.083,0.07400000000000001,0.07400000000000001,0.07400000000000001,0.083,0.083,0.065,0.055,0.065,0.07400000000000001,0.065,0.07400000000000001,0.083,0.083,0.083,0.083,0.07400000000000001,0.07400000000000001,0.07400000000000001,0.07400000000000001,0.065,0.065,0.07400000000000001,0.07400000000000001,0.07400000000000001,0.083,0.07400000000000001,0.07400000000000001,0.07400000000000001,0.065,0.07400000000000001,0.07400000000000001,0.07400000000000001,0.065,0.07400000000000001,0.07400000000000001,0.07400000000000001,0.083,0.083,0.083,0.07400000000000001,0.07400000000000001,0.07400000000000001,0.065,0.07400000000000001,0.07400000000000001,0.083,0.083,0.092,0.092,0.092,0.083,0.092,0.10099999999999999,0.10099999999999999,0.11,0.12,0.12,0.11,0.11,0.12,0.12,0.129,0.12,0.129,0.129,0.138,0.138,0.138,0.138,0.138,0.138,0.138,0.129,0.12,0.12,0.129,0.12,0.129,0.12,0.12,0.12,0.11,0.11,0.11,0.10099999999999999,0.11,0.10099999999999999,0.092,0.092,0.083,0.083,0.083,0.083,0.083,0.092,0.092,0.092,0.07400000000000001,0.07400000000000001,0.07400000000000001,0.07400000000000001,0.07400000000000001,0.065,0.065,0.065,0.055,0.065,0.065,0.055,0.055,0.055,0.065,0.065,0.055,0.065,0.065,0.055,0.055,0.055,0.055,0.055,0.046,0.046,0.055,0.046,0.055,0.055,0.046,0.055,0.055,0.046,0.046,0.046,0.055,0.055,0.055,0.055,0.046,0.046,0.046,0.037000000000000005,0.046,0.046,0.055,0.046,0.046,0.046,0.046,0.046,0.046,0.065,0.065,0.065,0.046,0.055,0.055,0.046,0.065,0.065,0.065,0.065,0.065,0.07400000000000001,0.065,0.065,0.065,0.055,0.055,0.055,0.046,0.055,0.065,0.065,0.065,0.065,0.065,0.065,0.065,0.055,0.055,0.065,0.065,0.065,0.065,0.065,0.055,0.046,0.065,0.055,0.065,0.055,0.055,0.055,0.065,0.065,0.065,0.055,0.055,0.065,0.065,0.065,0.055,0.055,0.055,0.055,0.065,0.055,0.055,0.055,0.065,0.065,0.055,0.055,0.055,0.055,0.055,0.055,0.046,0.055,0.055,0.046,0.055,0.055,0.046,0.055,0.065,0.065,0.065,0.07400000000000001,0.07400000000000001,0.083,0.083,0.092,0.083,0.083,0.10099999999999999,0.10099999999999999,0.11,0.11,0.11,0.10099999999999999,0.11,0.10099999999999999,0.11,0.11,0.11,0.11,0.11,0.11,0.10099999999999999,0.092,0.092,0.083,0.07400000000000001,0.065,0.046,0.046,0.046,0.055,0.055,0.046,0.046,0.055,0.046,0.037000000000000005,0.019,0.037000000000000005,0.046,0.046,0.055,0.055,0.046,0.046,0.037000000000000005,0.037000000000000005,0.027999999999999997,0.027999999999999997,0.027999999999999997,0.027999999999999997,0.027999999999999997,0.037000000000000005,0.027999999999999997,0.019,0.037000000000000005,0.027999999999999997,0.037000000000000005,0.027999999999999997,0.027999999999999997,0.027999999999999997,0.027999999999999997,0.019,0.027999999999999997,0.019,0.019,0.01,0.01,0.019,0.019,0.019,0.037000000000000005,0.019,0.027999999999999997,0.019,0.019,0.027999999999999997,0.019,0.01,0.019,0.019,0.019,0.019,0.027999999999999997,0.027999999999999997,0.019,N
12,-0.008,0.001,0.001,0.027999999999999997,0.046,0.055,0.065,0.065,0.055,0.055,0.065,0.065,0.083,0.07400000000000001,0.083,0.07400000000000001,0.07400000000000001,0.07400000000000001,0.083,0.083,0.065,0.055,0.065,0.07400000000000001,0.065,0.07400000000000001,0.083,0.083,0.083,0.083,0.07400000000000001,0.07400000000000001,0.07400000000000001,0.07400000000000001,0.065,0.065,0.07400000000000001,0.07400000000000001,0.07400000000000001,0.083,0.07400000000000001,0.07400000000000001,0.07400000000000001,0.065,0.07400000000000001,0.07400000000000001,0.07400000000000001,0.065,0.07400000000000001,0.07400000000000001,0.07400000000000001,0.083,0.083,0.083,0.07400000000000001,0.07400000000000001,0.07400000000000001,0.065,0.07400000000000001,0.07400000000000001,0.083,0.083,0.092,0.092,0.092,0.083,0.092,0.10099999999999999,0.10099999999999999,0.11,0.12,0.12,0.11,0.11,0.12,0.12,0.129,0.12,0.129,0.129,0.138,0.138,0.138,0.138,0.138,0.138,0.138,0.129,0.12,0.12,0.129,0.12,0.129,0.12,0.12,0.12,0.11,0.11,0.11,0.10099999999999999,0.11,0.10099999999999999,0.092,0.092,0.083,0.083,0.083,0.083,0.083,0.092,0.092,0.092,0.07400000000000001,0.07400000000000001,0.07400000000000001,0.07400000000000001,0.07400000000000001,0.065,0.065,0.065,0.055,0.065,0.065,0.055,0.055,0.055,0.065,0.065,0.055,0.065,0.065,0.055,0.055,0.055,0.055,0.055,0.046,0.046,0.055,0.046,0.055,0.055,0.046,0.055,0.055,0.046,0.046,0.046,0.055,0.055,0.055,0.055,0.046,0.046,0.046,0.037000000000000005,0.046,0.046,0.055,0.046,0.046,0.046,0.046,0.046,0.046,0.065,0.065,0.065,0.046,0.055,0.055,0.046,0.065,0.065,0.065,0.065,0.065,0.07400000000000001,0.065,0.065,0.065,0.055,0.055,0.055,0.046,0.055,0.065,0.065,0.065,0.065,0.065,0.065,0.065,0.055,0.055,0.065,0.065,0.065,0.065,0.065,0.055,0.046,0.065,0.055,0.065,0.055,0.055,0.055,0.065,0.065,0.065,0.055,0.055,0.065,0.065,0.065,0.055,0.055,0.055,0.055,0.065,0.055,0.055,0.055,0.065,0.065,0.055,0.055,0.055,0.055,0.055,0.055,0.046,0.055,0.055,0.046,0.055,0.055,0.046,0.055,0.065,0.065,0.065,0.07400000000000001,0.07400000000000001,0.083,0.083,0.092,0.083,0.083,0.10099999999999999,0.10099999999999999,0.11,0.11,0.11,0.10099999999999999,0.11,0.10099999999999999,0.11,0.11,0.11,0.11,0.11,0.11,0.10099999999999999,0.092,0.092,0.083,0.07400000000000001,0.065,0.046,0.046,0.046,0.055,0.055,0.046,0.046,0.055,0.046,0.037000000000000005,0.019,0.037000000000000005,0.046,0.046,0.055,0.055,0.046,0.046,0.037000000000000005,0.037000000000000005,0.027999999999999997,0.027999999999999997,0.027999999999999997,0.027999999999999997,0.027999999999999997,0.037000000000000005,0.027999999999999997,0.019,0.037000000000000005,0.027999999999999997,0.037000000000000005,0.027999999999999997,0.027999999999999997,0.027999999999999997,0.027999999999999997,0.019,0.027999999999999997,0.019,0.019,0.01,0.01,0.019,0.019,0.019,0.037000000000000005,0.019,0.027999999999999997,0.019,0.019,0.027999999999999997,0.019,0.01,0.019,0.019,0.019,0.019,0.027999999999999997,0.027999999999999997,0.019,0.019,0.01,0.019,0.027999999999999997,0.037000000000000005,0.046,0.046,0.055,0.055,0.065,0.07400000000000001,0.092,0.10099999999999999,0.129,0.138,0.147,0.165,0.183,0.21100000000000002,0.22899999999999998,0.22899999999999998,0.22,0.193,0.156,0.11,0.065,0.019,0.001,-0.027000000000000003,-0.054000000000000006,-0.07200000000000001,-0.109,-0.128,-0.136,-0.136,-0.128,-0.128,-0.11800000000000001,-0.109,-0.091,-0.08199999999999999,-0.063,-0.045,-0.027000000000000003,-0.018000000000000002,-0.008,0.001,-0.008,0.001,0.001,0.001,0.001,0.001,0.001,0.001,0.001,0.001,0.01,0.001,0.001,0.001,0.001,0.001,0.001,0.001,0.01,0.01,0.01,0.01,0.019,0.019,0.027999999999999997,0.027999999999999997,0.027999999999999997,0.027999999999999997,0.027999999999999997,0.019,0.019,0.027999999999999997,0.019,0.019,0.019,0.019,0.027999999999999997,0.027999999999999997,0.037000000000000005,0.027999999999999997,0.027999999999999997,0.027999999999999997,0.027999999999999997,0.019,0.01,0.01,0.01,0.01,0.01,0.019,0.027999999999999997,0.019,0.019,0.019,0.019,0.019,0.019,0.027999999999999997,0.037000000000000005,0.037000000000000005,0.046,0.055,0.055,0.055,0.046,0.046,0.065,0.065,0.083,0.083,0.092,0.092,0.10099999999999999,0.10099999999999999,0.11,0.12,0.129,0.129,0.12,0.129,0.12,0.11,0.12,0.11,0.12,0.11,0.12,0.12,0.12,0.11,0.11,0.11,0.10099999999999999,0.092,0.092,0.07400000000000001,0.083,0.07400000000000001,0.092,0.083,0.083,0.083,0.083,0.083,0.092,0.092,0.10099999999999999,0.092,0.092,0.07400000000000001,0.07400000000000001,0.065,0.065,0.055,0.07400000000000001,0.07400000000000001,0.07400000000000001,0.083,0.07400000000000001,0.065,0.065,0.065,0.065,0.065,0.07400000000000001,0.07400000000000001,0.07400000000000001,0.065,0.065,0.055,0.055,0.055,0.055,0.065,0.065,0.07400000000000001,0.07400000000000001,0.07400000000000001,0.07400000000000001,0.07400000000000001,0.07400000000000001,0.065,0.065,0.065,0.055,0.055,0.065,0.065,0.07400000000000001,0.07400000000000001,0.07400000000000001,0.07400000000000001,0.07400000000000001,0.083,0.065,0.065,0.065,0.083,0.092,0.092,0.092,0.083,0.083,0.07400000000000001,0.083,0.092,0.092,0.07400000000000001,0.083,0.065,0.055,0.065,0.055,0.055,0.065,0.07400000000000001,0.07400000000000001,0.065,0.083,0.07400000000000001,0.07400000000000001,0.065,0.065,0.065,0.065,0.065,0.07400000000000001,0.065,0.065,0.055,0.065,0.065,0.065,0.055,0.055,0.037000000000000005,0.046,0.037000000000000005,0.055,0.065,0.065,0.055,0.046,0.046,0.046,0.046,0.055,0.055,0.046,0.037000000000000005,0.046,0.027999999999999997,0.037000000000000005,0.046,0.046,0.055,0.065,0.07400000000000001,0.07400000000000001,0.07400000000000001,0.065,0.065,0.065,0.065,0.065,0.055,0.065,0.046,0.046,0.046,0.055,0.065,0.065,0.065,0.065,0.055,0.046,0.046,0.037000000000000005,0.027999999999999997,0.01,0.001,0.001,0.001,0.001,0.001,0.001,0.001,0.001,0.001,0.001,0.001,0.001,0.001,-0.008,0.001,-0.008,-0.008,0.001,-0.008,0.001,0.001,0.001,0.001,-0.008,-0.018000000000000002,-0.027000000000000003,-0.027000000000000003,-0.036000000000000004,-0.036000000000000004,-0.036000000000000004,-0.027000000000000003,-0.027000000000000003,-0.027000000000000003,-0.018000000000000002,-0.027000000000000003,-0.018000000000000002,-0.027000000000000003,-0.027000000000000003,-0.018000000000000002,-0.018000000000000002,-0.027000000000000003,-0.027000000000000003,-0.036000000000000004,-0.036000000000000004,-0.027000000000000003,-0.036000000000000004,-0.036000000000000004,-0.045,-0.054000000000000006,-0.045,-0.045,-0.036000000000000004,-0.027000000000000003,-0.027000000000000003,-0.027000000000000003,-0.027000000000000003,-0.018000000000000002,-0.027000000000000003,-0.018000000000000002,-0.027000000000000003,-0.027000000000000003,-0.027000000000000003,-0.018000000000000002,-0.027000000000000003,-0.036000000000000004,-0.027000000000000003,-0.027000000000000003,0.001,0.001,0.001,0.001,0.001,0.001,0.001,0.001,0.001,0.019,0.037000000000000005,0.055,0.083,0.092,0.11,0.129,0.138,0.147,0.138,0.129,0.092,0.055,0.001,-0.054000000000000006,-0.1,-0.128,-0.145,-0.17300000000000001,-0.191,-0.2,-0.191,-0.2,-0.182,-0.17300000000000001,-0.16399999999999998,-0.155,-0.136,-0.136,-0.11800000000000001,-0.1,-0.091,-0.07200000000000001,-0.07200000000000001,-0.063,-0.054000000000000006,-0.054000000000000006,-0.036000000000000004,-0.045,-0.054000000000000006,-0.063,-0.07200000000000001,-0.07200000000000001,-0.07200000000000001,-0.07200000000000001,-0.07200000000000001,-0.07200000000000001,-0.07200000000000001,-0.07200000000000001,-0.063,-0.07200000000000001,-0.07200000000000001,-0.07200000000000001,-0.07200000000000001,-0.07200000000000001,-0.07200000000000001,-0.07200000000000001,-0.07200000000000001,-0.07200000000000001,-0.063,-0.063,-0.063,-0.054000000000000006,-0.063,-0.063,-0.063,-0.07200000000000001,-0.08199999999999999,-0.08199999999999999,-0.08199999999999999,-0.08199999999999999,-0.07200000000000001,-0.07200000000000001,-0.063,-0.063,-0.063,-0.063,-0.063,-0.063,-0.063,-0.063,-0.063,-0.054000000000000006,-0.063,-0.063,-0.054000000000000006,-0.063,-0.045,-0.054000000000000006,-0.045,-0.045,-0.045,-0.036000000000000004,-0.036000000000000004,-0.045,-0.036000000000000004,-0.027000000000000003,-0.027000000000000003,-0.027000000000000003,-0.027000000000000003,-0.027000000000000003,-0.018000000000000002,-0.018000000000000002,-0.018000000000000002,-0.008,-0.008,-0.018000000000000002,-0.018000000000000002,0.001,0.001,0.001,0.001,0.001,0.001,0.001,0.001,0.001,0.001,-0.008,0.001,0.001,0.001,-0.008,-0.008,-0.008,-0.018000000000000002,-0.008,-0.018000000000000002,-0.018000000000000002,-0.018000000000000002,-0.018000000000000002,-0.027000000000000003,-0.027000000000000003,-0.018000000000000002,-0.027000000000000003,-0.027000000000000003,-0.027000000000000003,-0.036000000000000004,-0.036000000000000004,-0.036000000000000004,-0.036000000000000004,-0.036000000000000004,-0.036000000000000004,-0.036000000000000004,-0.036000000000000004,-0.036000000000000004,-0.036000000000000004,-0.045,-0.045,-0.036000000000000004,-0.036000000000000004,-0.027000000000000003,-0.027000000000000003,-0.036000000000000004,-0.036000000000000004,-0.036000000000000004,-0.036000000000000004,-0.036000000000000004,-0.045,-0.036000000000000004,-0.036000000000000004,-0.045,-0.045,-0.045,-0.045,-0.036000000000000004,-0.045,-0.036000000000000004,-0.036000000000000004,-0.036000000000000004,-0.036000000000000004,-0.036000000000000004,-0.036000000000000004,-0.036000000000000004,-0.036000000000000004,-0.027000000000000003,-0.027000000000000003,-0.018000000000000002,-0.018000000000000002,-0.027000000000000003,-0.027000000000000003,-0.027000000000000003,-0.027000000000000003,-0.018000000000000002,-0.027000000000000003,-0.018000000000000002,-0.018000000000000002,-0.018000000000000002,-0.008,-0.008,-0.018000000000000002,-0.008,0.001,-0.008,0.001,0.001,-0.008,0.001,0.001,0.001,0.001,0.001,0.001,0.001,0.001,0.001,0.001,0.001,0.001,0.001,0.001,0.001,0.001,0.001,0.001,0.001,0.001,0.001,0.001,0.001,0.001,0.001,0.001,0.001,0.001,0.001,0.001,0.001,-0.008,0.001,-0.008,-0.008,0.001,0.001,0.001,0.001,0.001,0.001,0.001,0.001,0.001,0.001,0.001,0.001,-0.008,-0.008,-0.008,0.001,0.001,-0.008,0.001,0.001,0.001,0.001,0.001,0.001,0.001,0.001,0.001,0.001,0.001,0.001,0.001,0.001,0.001,0.001,0.01,0.01,0.019,0.019,0.019,0.019,0.027999999999999997,0.027999999999999997,0.027999999999999997,0.027999999999999997,0.027999999999999997,0.037000000000000005,0.037000000000000005,0.046,0.037000000000000005,0.046,0.046,0.055,0.055,0.055,0.055,0.046,0.037000000000000005,0.046,0.037000000000000005,0.027999999999999997,0.027999999999999997,0.027999999999999997,0.019,0.019,0.01,0.01,0.01,0.01,0.019,0.01,0.01,0.01,0.01,0.01,0.019,V
