0,-0.013999999999999999,-0.022000000000000002,-0.027000000000000003,-0.032,-0.035,-0.038,-0.039,-0.040999999999999995,-0.043,-0.045,-0.046,-0.048,-0.049,-0.05,-0.051,-0.052000000000000005,-0.053,-0.054000000000000006,-0.054000000000000006,-0.054000000000000006,-0.054000000000000006,-0.054000000000000006,-0.054000000000000006,-0.053,-0.053,-0.052000000000000005,-0.053,-0.053,-0.054000000000000006,-0.054000000000000006,-0.054000000000000006,-0.054000000000000006,-0.054000000000000006,-0.053,-0.052000000000000005,-0.051,-0.051,-0.05,-0.05,-0.049,-0.049,-0.048,-0.047,-0.046,-0.045,-0.044000000000000004,-0.044000000000000004,-0.044000000000000004,-0.044000000000000004,-0.044000000000000004,-0.044000000000000004,-0.044000000000000004,-0.044000000000000004,-0.044000000000000004,-0.044000000000000004,-0.044000000000000004,-0.043,-0.043,-0.040999999999999995,-0.04,-0.038,-0.037000000000000005,-0.036000000000000004,-0.035,-0.034,-0.033,-0.031,-0.028999999999999998,-0.027000000000000003,-0.025,-0.023,-0.021,-0.019,-0.018000000000000002,-0.015,-0.013000000000000001,-0.01,-0.006999999999999999,-0.004,-0.002,0.0,0.003,0.005,0.008,0.01,0.012,0.013000000000000001,0.015,0.017,0.019,0.021,0.023,0.025,0.027000000000000003,0.031,0.035,0.04,0.045,0.048,0.051,0.054000000000000006,0.055999999999999994,0.059000000000000004,0.062,0.065,0.068,0.071,0.073,0.07400000000000001,0.075,0.076,0.076,0.076,0.075,0.073,0.07,0.067,0.063,0.059000000000000004,0.055,0.049,0.044000000000000004,0.037000000000000005,0.031,0.025,0.02,0.016,0.012,0.009000000000000001,0.006,0.003,0.0,-0.004,-0.008,-0.012,-0.016,-0.018000000000000002,-0.02,-0.021,-0.023,-0.024,-0.026000000000000002,-0.027999999999999997,-0.031,-0.032,-0.034,-0.035,-0.037000000000000005,-0.037000000000000005,-0.037000000000000005,-0.037000000000000005,-0.037000000000000005,-0.037000000000000005,-0.037000000000000005,-0.036000000000000004,-0.036000000000000004,-0.035,-0.034,-0.033,-0.033,-0.033,-0.033,-0.033,-0.033,-0.033,-0.033,-0.033,-0.033,-0.033,-0.034,-0.035,-0.036000000000000004,-0.036000000000000004,-0.037000000000000005,-0.037000000000000005,-0.037000000000000005,-0.037000000000000005,-0.037000000000000005,-0.036000000000000004,-0.036000000000000004,-0.035,-0.034,-0.033,-0.033,-0.033,-0.033,-0.033,-0.033,-0.033,-0.034,-0.035,-0.036000000000000004,-0.036000000000000004,-0.037000000000000005,-0.037000000000000005,-0.037000000000000005,-0.036000000000000004,-0.036000000000000004,-0.035,-0.034,-0.033,-0.033,-0.033,-0.033,-0.033,-0.033,-0.033,-0.034,-0.035,-0.036000000000000004,-0.036000000000000004,-0.037000000000000005,-0.037000000000000005,-0.037000000000000005,-0.036000000000000004,-0.036000000000000004,-0.034,-0.033,-0.031,-0.03,-0.028999999999999998,-0.028999999999999998,-0.028999999999999998,-0.03,-0.028999999999999998,-0.028999999999999998,-0.027999999999999997,-0.027999999999999997,-0.027999999999999997,-0.028999999999999998,-0.028999999999999998,-0.03,-0.028999999999999998,-0.028999999999999998,-0.027999999999999997,-0.027000000000000003,-0.025,-0.024,-0.023,-0.023,-0.021,-0.02,-0.017,-0.015,-0.012,-0.009000000000000001,-0.006,-0.003,0.001,0.005,0.008,0.011000000000000001,0.011000000000000001,0.012,0.009000000000000001,0.006999999999999999,0.001,-0.004,-0.01,-0.016,-0.02,-0.025,-0.027000000000000003,-0.03,-0.032,-0.034,-0.035,-0.037000000000000005,-0.037000000000000005,-0.037000000000000005,-0.037000000000000005,-0.037000000000000005,-0.037000000000000005,-0.038,-0.038,-0.039,-0.039,-0.039,-0.039,-0.039,-0.039,-0.039,-0.039,-0.04,-0.04,-0.040999999999999995,-0.04,-0.04,-0.04,-0.040999999999999995,-0.042,-0.044000000000000004,-0.045,-0.046,-0.045,-0.044000000000000004,-0.042,-0.040999999999999995,-0.039,-0.038,-0.036000000000000004,-0.034,-0.033,-0.032,-0.03,-0.028999999999999998,-0.027000000000000003,-0.026000000000000002,-0.025,-0.024,-0.023,-0.023,-0.022000000000000002,-0.022000000000000002,-0.022000000000000002,-0.022000000000000002,-0.021,-0.021,-0.02,-0.02,-0.02,-0.021,-0.021,-0.022000000000000002,-0.022000000000000002,-0.022000000000000002,-0.022000000000000002,-0.023,-0.024,-0.026000000000000002,-0.028999999999999998,-0.032,-0.036000000000000004,-0.04,-0.047,-0.055,-0.064,-0.07200000000000001,-0.075,-0.078,-0.068,-0.057999999999999996,-0.032,-0.005,0.038,0.08,0.13699999999999998,0.19399999999999998,0.26,0.326,0.39399999999999996,0.462,0.517,0.5720000000000001,0.601,0.631,0.629,0.626,0.599,0.5720000000000001,0.5329999999999999,0.495,0.457,0.42,0.38799999999999996,0.355,0.321,0.28800000000000003,0.253,0.218,0.182,0.146,0.11599999999999999,0.085,0.062,0.04,0.025,0.01,0.0,-0.01,-0.016,-0.022000000000000002,-0.025,-0.027999999999999997,-0.031,-0.034,-0.036000000000000004,-0.038,-0.039,-0.04,-0.04,-0.040999999999999995,-0.04,-0.04,-0.04,-0.040999999999999995,-0.042,-0.043,-0.044000000000000004,-0.045,-0.046,-0.047,-0.047,-0.047,-0.047,-0.046,-0.045,-0.044000000000000004,-0.043,-0.043,-0.042,-0.040999999999999995,-0.04,-0.04,-0.04,-0.04,-0.04,-0.04,-0.04,-0.04,-0.039,-0.039,-0.038,-0.038,-0.038,-0.039,-0.038,-0.038,-0.037000000000000005,-0.036000000000000004,-0.035,-0.034,-0.033,-0.032,-0.031,-0.03,-0.028999999999999998,-0.027999999999999997,-0.027000000000000003,-0.026000000000000002,-0.023,-0.021,-0.019,-0.018000000000000002,-0.015,-0.013000000000000001,-0.01,-0.008,-0.006,-0.005,-0.003,-0.001,0.0,0.002,0.004,0.006999999999999999,0.009000000000000001,0.012,0.013000000000000001,0.015,0.016,0.018000000000000002,0.018000000000000002,0.019,0.019,0.019,0.021,0.023,0.026000000000000002,0.028999999999999998,0.032,0.036000000000000004,0.04,0.045,0.05,0.055,0.059000000000000004,0.063,0.067,0.07,0.073,0.076,0.079,0.081,0.08199999999999999,0.083,0.084,0.084,0.085,0.085,0.084,0.083,0.08,0.077,0.07400000000000001,0.07,0.064,0.057999999999999996,0.051,0.045,0.039,0.033,0.027999999999999997,0.024,0.02,0.016,0.013000000000000001,0.01,0.006999999999999999,0.005,0.001,-0.002,-0.005,-0.009000000000000001,-0.012,-0.016,-0.018000000000000002,-0.02,-0.021,-0.023,-0.024,-0.025,-0.026000000000000002,-0.027000000000000003,-0.026000000000000002,-0.026000000000000002,-0.026000000000000002,-0.026000000000000002,-0.026000000000000002,-0.026000000000000002,-0.026000000000000002,-0.026000000000000002,-0.026000000000000002,-0.026000000000000002,-0.026000000000000002,-0.026000000000000002,-0.026000000000000002,-0.026000000000000002,-0.026000000000000002,-0.026000000000000002,-0.026000000000000002,-0.026000000000000002,-0.026000000000000002,-0.026000000000000002,-0.026000000000000002,-0.027000000000000003,-0.027999999999999997,-0.028999999999999998,-0.028999999999999998,-0.028999999999999998,-0.027999999999999997,-0.027000000000000003,-0.026000000000000002,-0.025,-0.026000000000000002,-0.027000000000000003,-0.027999999999999997,-0.028999999999999998,-0.03,-0.031,-0.032,-0.033,-0.033,-0.034,-0.033,-0.033,-0.033,-0.033,-0.033,-0.033,-0.033,-0.033,-0.033,-0.033,-0.033,-0.033,-0.032,-0.032,-0.031,-0.03,-0.028999999999999998,-0.028999999999999998,-0.028999999999999998,-0.03,-0.03,-0.03,-0.03,-0.03,-0.03,-0.03,-0.03,-0.03,-0.03,-0.03,-0.03,-0.03,-0.03,-0.03,-0.03,-0.03,-0.03,-0.03,-0.028999999999999998,-0.028999999999999998,-0.027999999999999997,-0.027999999999999997,-0.027999999999999997,-0.027999999999999997,-0.027000000000000003,-0.027000000000000003,-0.026000000000000002,-0.025,-0.025,-0.025,-0.023,-0.022000000000000002,-0.02,-0.018000000000000002,-0.015,-0.013000000000000001,-0.009000000000000001,-0.006,-0.002,0.001,0.004,0.008,0.009000000000000001,0.011000000000000001,0.01,0.01,0.008,0.006,0.001,-0.003,-0.006999999999999999,-0.012,-0.016,-0.021,-0.024,-0.027999999999999997,-0.031,-0.034,-0.035,-0.037000000000000005,-0.037000000000000005,-0.038,-0.039,-0.04,-0.04,-0.040999999999999995,-0.04,-0.04,-0.04,-0.04,-0.04,-0.04,-0.04,-0.04,-0.04,-0.04,-0.04,-0.04,-0.04,-0.04,-0.04,-0.04,-0.04,-0.04,-0.04,-0.040999999999999995,-0.040999999999999995,-0.042,-0.040999999999999995,-0.040999999999999995,-0.04,-0.039,-0.038,-0.037000000000000005,-0.036000000000000004,-0.036000000000000004,-0.034,-0.033,-0.031,-0.028999999999999998,-0.027000000000000003,-0.026000000000000002,-0.025,-0.025,-0.025,-0.025,-0.024,-0.023,-0.022000000000000002,-0.021,-0.019,-0.018000000000000002,-0.016,-0.013999999999999999,-0.012,-0.011000000000000001,-0.011000000000000001,-0.011000000000000001,-0.011000000000000001,-0.012,-0.013999999999999999,-0.016,-0.018000000000000002,-0.02,-0.024,-0.028999999999999998,-0.037000000000000005,-0.045,-0.054000000000000006,-0.064,-0.07,-0.075,-0.071,-0.066,-0.046,-0.026000000000000002,0.01,0.046,0.098,0.149,0.212,0.275,0.34299999999999997,0.41100000000000003,0.47200000000000003,0.5329999999999999,0.573,0.613,N,,,,,,,,,,,,,,,,,,,,,,,,,,,,,,,,,,,,,,,,,,,,,,,,,,,,,,,,,,,,,,,,,,,,,,,,,,,,,,,,,,,,,,,,,,,,,,,,,,,,,,,,,,,,,,,,,,,,,,,,,,,,,,,,,,,,,,,,,,,,,,,,,,,,,,,,,,,,,,,,,,,,,,,,,,,,,,,,,,,,,,,,,,,,,,,,,,,,,,,,,,,,,,,,,,,,,,,,,,,,,,,,,,,,,,,,,,,,,,,,,,,,,,,,,,,,,,,,,,,,,,,,,,,,
1,0.001,-0.006999999999999999,-0.015,-0.02,-0.025,-0.027999999999999997,-0.032,-0.034,-0.037000000000000005,-0.038,-0.04,-0.04,-0.040999999999999995,-0.040999999999999995,-0.040999999999999995,-0.042,-0.043,-0.043,-0.044000000000000004,-0.044000000000000004,-0.045,-0.044000000000000004,-0.044000000000000004,-0.044000000000000004,-0.044000000000000004,-0.044000000000000004,-0.044000000000000004,-0.044000000000000004,-0.044000000000000004,-0.044000000000000004,-0.044000000000000004,-0.044000000000000004,-0.044000000000000004,-0.044000000000000004,-0.044000000000000004,-0.044000000000000004,-0.044000000000000004,-0.043,-0.043,-0.042,-0.040999999999999995,-0.04,-0.04,-0.04,-0.04,-0.04,-0.04,-0.039,-0.039,-0.037000000000000005,-0.036000000000000004,-0.035,-0.034,-0.033,-0.032,-0.031,-0.03,-0.028999999999999998,-0.027999999999999997,-0.027000000000000003,-0.026000000000000002,-0.023,-0.021,-0.02,-0.019,-0.017,-0.016,-0.013999999999999999,-0.012,-0.009000000000000001,-0.006,-0.004,-0.003,-0.001,0.0,0.002,0.005,0.008,0.011000000000000001,0.012,0.013999999999999999,0.015,0.016,0.016,0.017,0.018000000000000002,0.02,0.021,0.023,0.026000000000000002,0.028999999999999998,0.032,0.036000000000000004,0.04,0.044000000000000004,0.048,0.052000000000000005,0.055999999999999994,0.059000000000000004,0.062,0.065,0.068,0.071,0.07400000000000001,0.076,0.079,0.081,0.08199999999999999,0.083,0.083,0.083,0.083,0.08199999999999999,0.08,0.078,0.07400000000000001,0.07,0.065,0.06,0.055999999999999994,0.051,0.046,0.040999999999999995,0.035,0.03,0.025,0.02,0.016,0.012,0.009000000000000001,0.006,0.004,0.002,0.0,-0.001,-0.003,-0.005,-0.006,-0.008,-0.01,-0.012,-0.013999999999999999,-0.016,-0.017,-0.018000000000000002,-0.018000000000000002,-0.019,-0.019,-0.02,-0.021,-0.022000000000000002,-0.022000000000000002,-0.022000000000000002,-0.022000000000000002,-0.022000000000000002,-0.022000000000000002,-0.022000000000000002,-0.022000000000000002,-0.022000000000000002,-0.022000000000000002,-0.022000000000000002,-0.022000000000000002,-0.022000000000000002,-0.022000000000000002,-0.022000000000000002,-0.022000000000000002,-0.022000000000000002,-0.022000000000000002,-0.023,-0.024,-0.026000000000000002,-0.027999999999999997,-0.03,-0.03,-0.03,-0.03,-0.03,-0.03,-0.03,-0.028999999999999998,-0.028999999999999998,-0.027999999999999997,-0.027999999999999997,-0.027999999999999997,-0.027999999999999997,-0.027999999999999997,-0.027999999999999997,-0.027999999999999997,-0.028999999999999998,-0.028999999999999998,-0.03,-0.03,-0.03,-0.03,-0.03,-0.028999999999999998,-0.028999999999999998,-0.027999999999999997,-0.027000000000000003,-0.026000000000000002,-0.025,-0.025,-0.026000000000000002,-0.026000000000000002,-0.026000000000000002,-0.026000000000000002,-0.026000000000000002,-0.026000000000000002,-0.026000000000000002,-0.026000000000000002,-0.026000000000000002,-0.026000000000000002,-0.026000000000000002,-0.025,-0.025,-0.024,-0.024,-0.024,-0.025,-0.025,-0.026000000000000002,-0.026000000000000002,-0.026000000000000002,-0.026000000000000002,-0.026000000000000002,-0.026000000000000002,-0.026000000000000002,-0.025,-0.025,-0.024,-0.023,-0.022000000000000002,-0.022000000000000002,-0.022000000000000002,-0.022000000000000002,-0.022000000000000002,-0.022000000000000002,-0.021,-0.02,-0.017,-0.013999999999999999,-0.009000000000000001,-0.005,-0.001,0.003,0.006,0.01,0.012,0.013999999999999999,0.013999999999999999,0.013999999999999999,0.011000000000000001,0.009000000000000001,0.005,0.001,-0.004,-0.01,-0.015,-0.02,-0.024,-0.027999999999999997,-0.03,-0.033,-0.034,-0.035,-0.035,-0.036000000000000004,-0.036000000000000004,-0.037000000000000005,-0.037000000000000005,-0.037000000000000005,-0.037000000000000005,-0.037000000000000005,-0.037000000000000005,-0.038,-0.039,-0.04,-0.04,-0.040999999999999995,-0.04,-0.04,-0.04,-0.04,-0.04,-0.04,-0.04,-0.040999999999999995,-0.042,-0.043,-0.043,-0.044000000000000004,-0.044000000000000004,-0.044000000000000004,-0.042,-0.040999999999999995,-0.04,-0.039,-0.038,-0.037000000000000005,-0.036000000000000004,-0.036000000000000004,-0.035,-0.034,-0.033,-0.032,-0.03,-0.028999999999999998,-0.027000000000000003,-0.025,-0.023,-0.021,-0.02,-0.019,-0.018000000000000002,-0.018000000000000002,-0.019,-0.02,-0.021,-0.022000000000000002,-0.022000000000000002,-0.022000000000000002,-0.022000000000000002,-0.023,-0.024,-0.025,-0.026000000000000002,-0.027999999999999997,-0.028999999999999998,-0.03,-0.033,-0.036000000000000004,-0.040999999999999995,-0.046,-0.054000000000000006,-0.061,-0.068,-0.075,-0.07400000000000001,-0.07200000000000001,-0.055,-0.039,-0.005,0.027999999999999997,0.07400000000000001,0.121,0.179,0.23600000000000002,0.301,0.365,0.428,0.49200000000000005,0.539,0.586,0.605,0.624,0.613,0.602,0.57,0.5379999999999999,0.499,0.46,0.424,0.38799999999999996,0.354,0.319,0.28600000000000003,0.252,0.217,0.182,0.14800000000000002,0.114,0.086,0.057,0.038,0.018000000000000002,0.006,-0.005,-0.012,-0.019,-0.023,-0.027999999999999997,-0.031,-0.034,-0.036000000000000004,-0.039,-0.040999999999999995,-0.044000000000000004,-0.045,-0.047,-0.047,-0.047,-0.047,-0.046,-0.045,-0.044000000000000004,-0.044000000000000004,-0.044000000000000004,-0.044000000000000004,-0.044000000000000004,-0.044000000000000004,-0.044000000000000004,-0.044000000000000004,-0.044000000000000004,-0.043,-0.043,-0.042,-0.040999999999999995,-0.04,-0.04,-0.04,-0.04,-0.04,-0.04,-0.04,-0.04,-0.04,-0.04,-0.04,-0.04,-0.04,-0.04,-0.039,-0.039,-0.038,-0.037000000000000005,-0.037000000000000005,-0.037000000000000005,-0.037000000000000005,-0.037000000000000005,-0.036000000000000004,-0.036000000000000004,-0.035,-0.034,-0.033,-0.032,-0.031,-0.03,-0.028999999999999998,-0.027999999999999997,-0.027000000000000003,-0.026000000000000002,-0.023,-0.021,-0.019,-0.018000000000000002,-0.016,-0.013999999999999999,-0.011000000000000001,-0.009000000000000001,-0.006,-0.003,0.001,0.005,0.008,0.011000000000000001,0.013000000000000001,0.015,0.016,0.018000000000000002,0.018000000000000002,0.019,0.019,0.019,0.02,0.022000000000000002,0.024,0.027000000000000003,0.031,0.035,0.04,0.045,0.048,0.052000000000000005,0.055,0.057999999999999996,0.061,0.063,0.066,0.068,0.071,0.073,0.075,0.076,0.078,0.08,0.08199999999999999,0.083,0.083,0.08199999999999999,0.08,0.077,0.073,0.068,0.063,0.057999999999999996,0.053,0.047,0.042,0.036000000000000004,0.03,0.025,0.02,0.016,0.012,0.009000000000000001,0.006999999999999999,0.005,0.002,-0.001,-0.003,-0.006,-0.008,-0.011000000000000001,-0.013000000000000001,-0.016,-0.017,-0.019,-0.019,-0.02,-0.021,-0.022000000000000002,-0.022000000000000002,-0.023,-0.024,-0.025,-0.026000000000000002,-0.027000000000000003,-0.026000000000000002,-0.026000000000000002,-0.025,-0.025,-0.024,-0.024,-0.025,-0.026000000000000002,-0.027000000000000003,-0.028999999999999998,-0.028999999999999998,-0.03,-0.03,-0.031,-0.031,-0.032,-0.031,-0.031,-0.03,-0.028999999999999998,-0.028999999999999998,-0.03,-0.03,-0.03,-0.03,-0.03,-0.03,-0.03,-0.03,-0.03,-0.03,-0.03,-0.03,-0.03,-0.03,-0.03,-0.03,-0.03,-0.03,-0.03,-0.03,-0.03,-0.03,-0.03,-0.03,-0.03,-0.03,-0.03,-0.03,-0.03,-0.03,-0.03,-0.03,-0.03,-0.03,-0.03,-0.03,-0.03,-0.03,-0.031,-0.032,-0.033,-0.033,-0.034,-0.033,-0.033,-0.033,-0.033,-0.032,-0.032,-0.031,-0.031,-0.031,-0.031,-0.031,-0.031,-0.03,-0.03,-0.03,-0.03,-0.028999999999999998,-0.028999999999999998,-0.027999999999999997,-0.027000000000000003,-0.025,-0.024,-0.023,-0.022000000000000002,-0.019,-0.017,-0.013000000000000001,-0.01,-0.006,-0.002,0.001,0.005,0.006999999999999999,0.01,0.01,0.01,0.008,0.006,0.001,-0.003,-0.006999999999999999,-0.012,-0.016,-0.021,-0.024,-0.027999999999999997,-0.03,-0.033,-0.034,-0.035,-0.035,-0.036000000000000004,-0.036000000000000004,-0.037000000000000005,-0.037000000000000005,-0.037000000000000005,-0.037000000000000005,-0.037000000000000005,-0.037000000000000005,-0.037000000000000005,-0.037000000000000005,-0.038,-0.039,-0.04,-0.04,-0.040999999999999995,-0.04,-0.04,-0.04,-0.04,-0.04,-0.04,-0.04,-0.040999999999999995,-0.042,-0.043,-0.043,-0.044000000000000004,-0.044000000000000004,-0.044000000000000004,-0.042,-0.04,-0.038,-0.036000000000000004,-0.034,-0.033,-0.032,-0.032,-0.03,-0.028999999999999998,-0.027000000000000003,-0.026000000000000002,-0.025,-0.024,-0.023,-0.022000000000000002,-0.02,-0.019,-0.018000000000000002,-0.018000000000000002,-0.018000000000000002,-0.018000000000000002,-0.017,-0.016,-0.015,-0.015,-0.015,-0.015,-0.016,-0.018000000000000002,-0.019,-0.02,-0.021,-0.023,-0.026000000000000002,-0.028999999999999998,-0.036000000000000004,-0.044000000000000004,-0.052000000000000005,-0.061,-0.066,-0.07,-0.065,-0.059000000000000004,-0.04,-0.02,0.015,0.05,0.099,0.14800000000000002,0.209,0.27,0.336,0.40299999999999997,0.46299999999999997,0.523,0.564,0.605,0.616,0.627,0.609,0.591,0.556,0.521,0.483,0.444,0.409,0.375,0.341,0.308,0.273,0.23800000000000002,0.203,0.168,0.136,0.10300000000000001,0.077,0.05,0.033,0.015,0.003,-0.008,-0.013999999999999999,-0.021,-0.024,-0.027999999999999997,-0.031,-0.034,-0.036000000000000004,-0.038,-0.039,-0.04,-0.040999999999999995,-0.042,-0.042,-0.042,-0.042,-0.042,-0.042,-0.042,-0.040999999999999995,-0.040999999999999995,-0.04,-0.04,-0.04,-0.04,-0.04,-0.04,-0.04,-0.04,-0.04,-0.04,-0.04,-0.04,-0.04,-0.04,-0.04,-0.04,-0.039,-0.039,-0.038,-0.037000000000000005,-0.037000000000000005,-0.037000000000000005,-0.037000000000000005,-0.037000000000000005,-0.037000000000000005,-0.037000000000000005,-0.036000000000000004,-0.036000000000000004,-0.035,-0.034,-0.033,-0.033,-0.033,-0.033,-0.032,-0.032,-0.031,-0.03,-0.028999999999999998,-0.027999999999999997,-0.027000000000000003,-0.026000000000000002,-0.023,-0.021,-0.019,-0.017,-0.013999999999999999,-0.011000000000000001,-0.008,-0.005,-0.002,0.0,0.002,0.004,0.006,0.008,0.009000000000000001,0.011000000000000001,0.011000000000000001,0.012,0.013000000000000001,0.013999999999999999,0.015,0.016,0.017,0.018000000000000002,0.02,0.023,0.025,0.027000000000000003,0.03,0.034,0.038,0.042,0.045,0.048,0.052000000000000005,0.055,0.059000000000000004,0.062,0.066,0.07,0.07400000000000001,0.077,0.081,0.084,0.085,0.086,0.085,0.083,0.081,0.078,0.076,0.07400000000000001,0.07,0.066,0.061,0.055999999999999994,0.052000000000000005,0.047,0.042,0.037000000000000005,0.032,0.027000000000000003,0.022000000000000002,0.017,0.013999999999999999,0.012,0.009000000000000001,0.006,0.004,0.002,0.0,-0.002,-0.005,-0.008,-0.011000000000000001,-0.013999999999999999,-0.016,-0.018000000000000002,-0.019,-0.02,-0.021,-0.022000000000000002,-0.022000000000000002,-0.022000000000000002,-0.022000000000000002,-0.022000000000000002,-0.022000000000000002,-0.022000000000000002,-0.022000000000000002,-0.022000000000000002,-0.022000000000000002,-0.022000000000000002,-0.022000000000000002,-0.023,-0.024,-0.025,-0.025,-0.026000000000000002,-0.024,-0.023,-0.022000000000000002,-0.022000000000000002,-0.021,-0.021,-0.02,-0.019,-0.018000000000000002,-0.018000000000000002,-0.018000000000000002,-0.019,-0.019,-0.019,-0.019,-0.019,-0.019,-0.019,-0.019,-0.019,-0.019,-0.02,-0.021,-0.022000000000000002,-0.022000000000000002,-0.023,-0.024,-0.025,-0.026000000000000002,-0.027000000000000003,-0.026000000000000002,-0.025,-0.024,-0.023,-0.022000000000000002,-0.022000000000000002,-0.022000000000000002,-0.022000000000000002,-0.022000000000000002,-0.022000000000000002,-0.022000000000000002,-0.023,-0.024,-0.025,-0.026000000000000002,-0.027000000000000003,-0.026000000000000002,-0.026000000000000002,-0.025,-0.025,-0.024,-0.023,-0.022000000000000002,-0.022000000000000002,-0.022000000000000002,-0.022000000000000002,-0.022000000000000002,-0.022000000000000002,-0.022000000000000002,-0.022000000000000002,-0.022000000000000002,-0.022000000000000002,-0.022000000000000002,-0.022000000000000002,-0.021,-0.021,-0.02,-0.019,-0.018000000000000002,-0.017,-0.016,-0.015,-0.013000000000000001,-0.012,-0.012,-0.013000000000000001,-0.012,-0.012,-0.011000000000000001,-0.01,-0.008,-0.006,-0.002,0.002,0.006,0.011000000000000001,0.013000000000000001,N
2,-0.005,-0.012,-0.019,-0.023,-0.027999999999999997,-0.031,-0.034,-0.036000000000000004,-0.039,-0.040999999999999995,-0.044000000000000004,-0.045,-0.047,-0.047,-0.047,-0.047,-0.046,-0.045,-0.044000000000000004,-0.044000000000000004,-0.044000000000000004,-0.044000000000000004,-0.044000000000000004,-0.044000000000000004,-0.044000000000000004,-0.044000000000000004,-0.044000000000000004,-0.043,-0.043,-0.042,-0.040999999999999995,-0.04,-0.04,-0.04,-0.04,-0.04,-0.04,-0.04,-0.04,-0.04,-0.04,-0.04,-0.04,-0.04,-0.04,-0.039,-0.039,-0.038,-0.037000000000000005,-0.037000000000000005,-0.037000000000000005,-0.037000000000000005,-0.037000000000000005,-0.036000000000000004,-0.036000000000000004,-0.035,-0.034,-0.033,-0.032,-0.031,-0.03,-0.028999999999999998,-0.027999999999999997,-0.027000000000000003,-0.026000000000000002,-0.023,-0.021,-0.019,-0.018000000000000002,-0.016,-0.013999999999999999,-0.011000000000000001,-0.009000000000000001,-0.006,-0.003,0.001,0.005,0.008,0.011000000000000001,0.013000000000000001,0.015,0.016,0.018000000000000002,0.018000000000000002,0.019,0.019,0.019,0.02,0.022000000000000002,0.024,0.027000000000000003,0.031,0.035,0.04,0.045,0.048,0.052000000000000005,0.055,0.057999999999999996,0.061,0.063,0.066,0.068,0.071,0.073,0.075,0.076,0.078,0.08,0.08199999999999999,0.083,0.083,0.08199999999999999,0.08,0.077,0.073,0.068,0.063,0.057999999999999996,0.053,0.047,0.042,0.036000000000000004,0.03,0.025,0.02,0.016,0.012,0.009000000000000001,0.006999999999999999,0.005,0.002,-0.001,-0.003,-0.006,-0.008,-0.011000000000000001,-0.013000000000000001,-0.016,-0.017,-0.019,-0.019,-0.02,-0.021,-0.022000000000000002,-0.022000000000000002,-0.023,-0.024,-0.025,-0.026000000000000002,-0.027000000000000003,-0.026000000000000002,-0.026000000000000002,-0.025,-0.025,-0.024,-0.024,-0.025,-0.026000000000000002,-0.027000000000000003,-0.028999999999999998,-0.028999999999999998,-0.03,-0.03,-0.031,-0.031,-0.032,-0.031,-0.031,-0.03,-0.028999999999999998,-0.028999999999999998,-0.03,-0.03,-0.03,-0.03,-0.03,-0.03,-0.03,-0.03,-0.03,-0.03,-0.03,-0.03,-0.03,-0.03,-0.03,-0.03,-0.03,-0.03,-0.03,-0.03,-0.03,-0.03,-0.03,-0.03,-0.03,-0.03,-0.03,-0.03,-0.03,-0.03,-0.03,-0.03,-0.03,-0.03,-0.03,-0.03,-0.03,-0.03,-0.031,-0.032,-0.033,-0.033,-0.034,-0.033,-0.033,-0.033,-0.033,-0.032,-0.032,-0.031,-0.031,-0.031,-0.031,-0.031,-0.031,-0.03,-0.03,-0.03,-0.03,-0.028999999999999998,-0.028999999999999998,-0.027999999999999997,-0.027000000000000003,-0.025,-0.024,-0.023,-0.022000000000000002,-0.019,-0.017,-0.013000000000000001,-0.01,-0.006,-0.002,0.001,0.005,0.006999999999999999,0.01,0.01,0.01,0.008,0.006,0.001,-0.003,-0.006999999999999999,-0.012,-0.016,-0.021,-0.024,-0.027999999999999997,-0.03,-0.033,-0.034,-0.035,-0.035,-0.036000000000000004,-0.036000000000000004,-0.037000000000000005,-0.037000000000000005,-0.037000000000000005,-0.037000000000000005,-0.037000000000000005,-0.037000000000000005,-0.037000000000000005,-0.037000000000000005,-0.038,-0.039,-0.04,-0.04,-0.040999999999999995,-0.04,-0.04,-0.04,-0.04,-0.04,-0.04,-0.04,-0.040999999999999995,-0.042,-0.043,-0.043,-0.044000000000000004,-0.044000000000000004,-0.044000000000000004,-0.042,-0.04,-0.038,-0.036000000000000004,-0.034,-0.033,-0.032,-0.032,-0.03,-0.028999999999999998,-0.027000000000000003,-0.026000000000000002,-0.025,-0.024,-0.023,-0.022000000000000002,-0.02,-0.019,-0.018000000000000002,-0.018000000000000002,-0.018000000000000002,-0.018000000000000002,-0.017,-0.016,-0.015,-0.015,-0.015,-0.015,-0.016,-0.018000000000000002,-0.019,-0.02,-0.021,-0.023,-0.026000000000000002,-0.028999999999999998,-0.036000000000000004,-0.044000000000000004,-0.052000000000000005,-0.061,-0.066,-0.07,-0.065,-0.059000000000000004,-0.04,-0.02,0.015,0.05,0.099,0.14800000000000002,0.209,0.27,0.336,0.40299999999999997,0.46299999999999997,0.523,0.564,0.605,0.616,0.627,0.609,0.591,0.556,0.521,0.483,0.444,0.409,0.375,0.341,0.308,0.273,0.23800000000000002,0.203,0.168,0.136,0.10300000000000001,0.077,0.05,0.033,0.015,0.003,-0.008,-0.013999999999999999,-0.021,-0.024,-0.027999999999999997,-0.031,-0.034,-0.036000000000000004,-0.038,-0.039,-0.04,-0.040999999999999995,-0.042,-0.042,-0.042,-0.042,-0.042,-0.042,-0.042,-0.040999999999999995,-0.040999999999999995,-0.04,-0.04,-0.04,-0.04,-0.04,-0.04,-0.04,-0.04,-0.04,-0.04,-0.04,-0.04,-0.04,-0.04,-0.04,-0.04,-0.039,-0.039,-0.038,-0.037000000000000005,-0.037000000000000005,-0.037000000000000005,-0.037000000000000005,-0.037000000000000005,-0.037000000000000005,-0.037000000000000005,-0.036000000000000004,-0.036000000000000004,-0.035,-0.034,-0.033,-0.033,-0.033,-0.033,-0.032,-0.032,-0.031,-0.03,-0.028999999999999998,-0.027999999999999997,-0.027000000000000003,-0.026000000000000002,-0.023,-0.021,-0.019,-0.017,-0.013999999999999999,-0.011000000000000001,-0.008,-0.005,-0.002,0.0,0.002,0.004,0.006,0.008,0.009000000000000001,0.011000000000000001,0.011000000000000001,0.012,0.013000000000000001,0.013999999999999999,0.015,0.016,0.017,0.018000000000000002,0.02,0.023,0.025,0.027000000000000003,0.03,0.034,0.038,0.042,0.045,0.048,0.052000000000000005,0.055,0.059000000000000004,0.062,0.066,0.07,0.07400000000000001,0.077,0.081,0.084,0.085,0.086,0.085,0.083,0.081,0.078,0.076,0.07400000000000001,0.07,0.066,0.061,0.055999999999999994,0.052000000000000005,0.047,0.042,0.037000000000000005,0.032,0.027000000000000003,0.022000000000000002,0.017,0.013999999999999999,0.012,0.009000000000000001,0.006,0.004,0.002,0.0,-0.002,-0.005,-0.008,-0.011000000000000001,-0.013999999999999999,-0.016,-0.018000000000000002,-0.019,-0.02,-0.021,-0.022000000000000002,-0.022000000000000002,-0.022000000000000002,-0.022000000000000002,-0.022000000000000002,-0.022000000000000002,-0.022000000000000002,-0.022000000000000002,-0.022000000000000002,-0.022000000000000002,-0.022000000000000002,-0.022000000000000002,-0.023,-0.024,-0.025,-0.025,-0.026000000000000002,-0.024,-0.023,-0.022000000000000002,-0.022000000000000002,-0.021,-0.021,-0.02,-0.019,-0.018000000000000002,-0.018000000000000002,-0.018000000000000002,-0.019,-0.019,-0.019,-0.019,-0.019,-0.019,-0.019,-0.019,-0.019,-0.019,-0.02,-0.021,-0.022000000000000002,-0.022000000000000002,-0.023,-0.024,-0.025,-0.026000000000000002,-0.027000000000000003,-0.026000000000000002,-0.025,-0.024,-0.023,-0.022000000000000002,-0.022000000000000002,-0.022000000000000002,-0.022000000000000002,-0.022000000000000002,-0.022000000000000002,-0.022000000000000002,-0.023,-0.024,-0.025,-0.026000000000000002,-0.027000000000000003,-0.026000000000000002,-0.026000000000000002,-0.025,-0.025,-0.024,-0.023,-0.022000000000000002,-0.022000000000000002,-0.022000000000000002,-0.022000000000000002,-0.022000000000000002,-0.022000000000000002,-0.022000000000000002,-0.022000000000000002,-0.022000000000000002,-0.022000000000000002,-0.022000000000000002,-0.022000000000000002,-0.021,-0.021,-0.02,-0.019,-0.018000000000000002,-0.017,-0.016,-0.015,-0.013000000000000001,-0.012,-0.012,-0.013000000000000001,-0.012,-0.012,-0.011000000000000001,-0.01,-0.008,-0.006,-0.002,0.002,0.006,0.011000000000000001,0.013000000000000001,0.015,0.013999999999999999,0.013999999999999999,0.012,0.01,0.006999999999999999,0.004,-0.0,-0.005,-0.009000000000000001,-0.013999999999999999,-0.018000000000000002,-0.022000000000000002,-0.024,-0.027000000000000003,-0.027000000000000003,-0.027000000000000003,-0.027000000000000003,-0.027000000000000003,-0.027999999999999997,-0.028999999999999998,-0.03,-0.031,-0.032,-0.033,-0.033,-0.034,-0.034,-0.034,-0.035,-0.036000000000000004,-0.036000000000000004,-0.037000000000000005,-0.037000000000000005,-0.037000000000000005,-0.037000000000000005,-0.038,-0.039,-0.04,-0.04,-0.040999999999999995,-0.04,-0.04,-0.04,-0.04,-0.039,-0.038,-0.035,-0.033,-0.031,-0.028999999999999998,-0.027000000000000003,-0.025,-0.023,-0.021,-0.02,-0.019,-0.018000000000000002,-0.017,-0.016,-0.016,-0.015,-0.013999999999999999,-0.012,-0.011000000000000001,-0.011000000000000001,-0.011000000000000001,-0.011000000000000001,-0.012,-0.013000000000000001,-0.015,-0.015,-0.015,-0.015,-0.015,-0.015,-0.015,-0.016,-0.017,-0.019,-0.022000000000000002,-0.026000000000000002,-0.03,-0.037000000000000005,-0.044000000000000004,-0.051,-0.057999999999999996,-0.059000000000000004,-0.059000000000000004,-0.048,-0.037000000000000005,-0.009000000000000001,0.019,0.062,0.106,0.163,0.22,0.28800000000000003,0.35700000000000004,0.43,0.503,0.5670000000000001,0.63,0.6679999999999999,0.706,0.711,0.715,0.6890000000000001,0.664,0.622,0.58,0.535,0.49,0.44799999999999995,0.40700000000000003,0.36700000000000005,0.327,0.287,0.24600000000000002,0.20800000000000002,0.16899999999999998,0.136,0.102,0.076,0.05,0.033,0.016,0.005,-0.006,-0.013000000000000001,-0.021,-0.026000000000000002,-0.032,-0.035,-0.038,-0.039,-0.040999999999999995,-0.043,-0.045,-0.046,-0.047,-0.048,-0.048,-0.049,-0.05,-0.051,-0.052000000000000005,-0.053,-0.054000000000000006,-0.054000000000000006,-0.054000000000000006,-0.054000000000000006,-0.054000000000000006,-0.054000000000000006,-0.054000000000000006,-0.054000000000000006,-0.054000000000000006,-0.054000000000000006,-0.054000000000000006,-0.054000000000000006,-0.053,-0.052000000000000005,-0.051,-0.051,-0.05,-0.05,-0.05,-0.05,-0.05,-0.049,-0.048,-0.048,-0.047,-0.047,-0.046,-0.045,-0.044000000000000004,-0.043,-0.043,-0.042,-0.040999999999999995,-0.04,-0.04,-0.04,-0.04,-0.04,-0.04,-0.039,-0.039,-0.038,-0.037000000000000005,-0.036000000000000004,-0.036000000000000004,-0.035,-0.034,-0.033,-0.032,-0.031,-0.03,-0.027999999999999997,-0.027000000000000003,-0.025,-0.023,-0.021,-0.02,-0.017,-0.015,-0.012,-0.01,-0.008,-0.006,-0.003,0.0,0.002,0.004,0.006,0.008,0.01,0.012,0.013000000000000001,0.015,0.017,0.019,0.021,0.024,0.026000000000000002,0.028999999999999998,0.032,0.036000000000000004,0.04,0.044000000000000004,0.048,0.052000000000000005,0.055,0.057999999999999996,0.06,0.062,0.063,0.064,0.065,0.065,0.064,0.062,0.059000000000000004,0.055999999999999994,0.053,0.049,0.045,0.040999999999999995,0.036000000000000004,0.031,0.027000000000000003,0.023,0.02,0.018000000000000002,0.017,0.016,0.015,0.013999999999999999,0.011000000000000001,0.009000000000000001,0.006,0.003,0.0,-0.003,-0.005,-0.006999999999999999,-0.008,-0.009000000000000001,-0.01,-0.011000000000000001,-0.011000000000000001,-0.011000000000000001,-0.011000000000000001,-0.012,-0.013999999999999999,-0.016,-0.017,-0.018000000000000002,-0.018000000000000002,-0.019,-0.018000000000000002,-0.018000000000000002,-0.016,-0.015,-0.013000000000000001,-0.012,-0.013000000000000001,-0.013999999999999999,-0.013999999999999999,-0.015,-0.015,-0.015,-0.015,-0.016,-0.016,-0.017,-0.016,-0.016,-0.015,-0.015,-0.013999999999999999,-0.013999999999999999,-0.013999999999999999,-0.015,-0.015,-0.015,-0.015,-0.015,-0.015,-0.015,-0.015,-0.015,-0.015,-0.015,-0.015,-0.015,-0.015,-0.015,-0.015,-0.016,-0.017,-0.018000000000000002,-0.019,-0.02,-0.021,-0.022000000000000002,-0.022000000000000002,-0.022000000000000002,-0.021,-0.021,-0.02,-0.019,-0.018000000000000002,-0.018000000000000002,-0.018000000000000002,-0.019,-0.019,-0.019,-0.019,-0.02,-0.021,-0.022000000000000002,-0.022000000000000002,-0.022000000000000002,-0.022000000000000002,-0.022000000000000002,-0.021,-0.021,-0.02,-0.019,-0.019,-0.019,-0.02,-0.022000000000000002,-0.022000000000000002,-0.023,-0.022000000000000002,-0.022000000000000002,-0.021,-0.021,-0.019,-0.018000000000000002,-0.016,-0.015,-0.013999999999999999,-0.013000000000000001,-0.012,-0.011000000000000001,-0.009000000000000001,-0.006999999999999999,-0.004,-0.002,0.0,0.003,0.005,N
3,-0.008,-0.013999999999999999,-0.021,-0.024,-0.027999999999999997,-0.031,-0.034,-0.036000000000000004,-0.038,-0.039,-0.04,-0.040999999999999995,-0.042,-0.042,-0.042,-0.042,-0.042,-0.042,-0.042,-0.040999999999999995,-0.040999999999999995,-0.04,-0.04,-0.04,-0.04,-0.04,-0.04,-0.04,-0.04,-0.04,-0.04,-0.04,-0.04,-0.04,-0.04,-0.04,-0.04,-0.039,-0.039,-0.038,-0.037000000000000005,-0.037000000000000005,-0.037000000000000005,-0.037000000000000005,-0.037000000000000005,-0.037000000000000005,-0.037000000000000005,-0.036000000000000004,-0.036000000000000004,-0.035,-0.034,-0.033,-0.033,-0.033,-0.033,-0.032,-0.032,-0.031,-0.03,-0.028999999999999998,-0.027999999999999997,-0.027000000000000003,-0.026000000000000002,-0.023,-0.021,-0.019,-0.017,-0.013999999999999999,-0.011000000000000001,-0.008,-0.005,-0.002,0.0,0.002,0.004,0.006,0.008,0.009000000000000001,0.011000000000000001,0.011000000000000001,0.012,0.013000000000000001,0.013999999999999999,0.015,0.016,0.017,0.018000000000000002,0.02,0.023,0.025,0.027000000000000003,0.03,0.034,0.038,0.042,0.045,0.048,0.052000000000000005,0.055,0.059000000000000004,0.062,0.066,0.07,0.07400000000000001,0.077,0.081,0.084,0.085,0.086,0.085,0.083,0.081,0.078,0.076,0.07400000000000001,0.07,0.066,0.061,0.055999999999999994,0.052000000000000005,0.047,0.042,0.037000000000000005,0.032,0.027000000000000003,0.022000000000000002,0.017,0.013999999999999999,0.012,0.009000000000000001,0.006,0.004,0.002,0.0,-0.002,-0.005,-0.008,-0.011000000000000001,-0.013999999999999999,-0.016,-0.018000000000000002,-0.019,-0.02,-0.021,-0.022000000000000002,-0.022000000000000002,-0.022000000000000002,-0.022000000000000002,-0.022000000000000002,-0.022000000000000002,-0.022000000000000002,-0.022000000000000002,-0.022000000000000002,-0.022000000000000002,-0.022000000000000002,-0.022000000000000002,-0.023,-0.024,-0.025,-0.025,-0.026000000000000002,-0.024,-0.023,-0.022000000000000002,-0.022000000000000002,-0.021,-0.021,-0.02,-0.019,-0.018000000000000002,-0.018000000000000002,-0.018000000000000002,-0.019,-0.019,-0.019,-0.019,-0.019,-0.019,-0.019,-0.019,-0.019,-0.019,-0.02,-0.021,-0.022000000000000002,-0.022000000000000002,-0.023,-0.024,-0.025,-0.026000000000000002,-0.027000000000000003,-0.026000000000000002,-0.025,-0.024,-0.023,-0.022000000000000002,-0.022000000000000002,-0.022000000000000002,-0.022000000000000002,-0.022000000000000002,-0.022000000000000002,-0.022000000000000002,-0.023,-0.024,-0.025,-0.026000000000000002,-0.027000000000000003,-0.026000000000000002,-0.026000000000000002,-0.025,-0.025,-0.024,-0.023,-0.022000000000000002,-0.022000000000000002,-0.022000000000000002,-0.022000000000000002,-0.022000000000000002,-0.022000000000000002,-0.022000000000000002,-0.022000000000000002,-0.022000000000000002,-0.022000000000000002,-0.022000000000000002,-0.022000000000000002,-0.021,-0.021,-0.02,-0.019,-0.018000000000000002,-0.017,-0.016,-0.015,-0.013000000000000001,-0.012,-0.012,-0.013000000000000001,-0.012,-0.012,-0.011000000000000001,-0.01,-0.008,-0.006,-0.002,0.002,0.006,0.011000000000000001,0.013000000000000001,0.015,0.013999999999999999,0.013999999999999999,0.012,0.01,0.006999999999999999,0.004,-0.0,-0.005,-0.009000000000000001,-0.013999999999999999,-0.018000000000000002,-0.022000000000000002,-0.024,-0.027000000000000003,-0.027000000000000003,-0.027000000000000003,-0.027000000000000003,-0.027000000000000003,-0.027999999999999997,-0.028999999999999998,-0.03,-0.031,-0.032,-0.033,-0.033,-0.034,-0.034,-0.034,-0.035,-0.036000000000000004,-0.036000000000000004,-0.037000000000000005,-0.037000000000000005,-0.037000000000000005,-0.037000000000000005,-0.038,-0.039,-0.04,-0.04,-0.040999999999999995,-0.04,-0.04,-0.04,-0.04,-0.039,-0.038,-0.035,-0.033,-0.031,-0.028999999999999998,-0.027000000000000003,-0.025,-0.023,-0.021,-0.02,-0.019,-0.018000000000000002,-0.017,-0.016,-0.016,-0.015,-0.013999999999999999,-0.012,-0.011000000000000001,-0.011000000000000001,-0.011000000000000001,-0.011000000000000001,-0.012,-0.013000000000000001,-0.015,-0.015,-0.015,-0.015,-0.015,-0.015,-0.015,-0.016,-0.017,-0.019,-0.022000000000000002,-0.026000000000000002,-0.03,-0.037000000000000005,-0.044000000000000004,-0.051,-0.057999999999999996,-0.059000000000000004,-0.059000000000000004,-0.048,-0.037000000000000005,-0.009000000000000001,0.019,0.062,0.106,0.163,0.22,0.28800000000000003,0.35700000000000004,0.43,0.503,0.5670000000000001,0.63,0.6679999999999999,0.706,0.711,0.715,0.6890000000000001,0.664,0.622,0.58,0.535,0.49,0.44799999999999995,0.40700000000000003,0.36700000000000005,0.327,0.287,0.24600000000000002,0.20800000000000002,0.16899999999999998,0.136,0.102,0.076,0.05,0.033,0.016,0.005,-0.006,-0.013000000000000001,-0.021,-0.026000000000000002,-0.032,-0.035,-0.038,-0.039,-0.040999999999999995,-0.043,-0.045,-0.046,-0.047,-0.048,-0.048,-0.049,-0.05,-0.051,-0.052000000000000005,-0.053,-0.054000000000000006,-0.054000000000000006,-0.054000000000000006,-0.054000000000000006,-0.054000000000000006,-0.054000000000000006,-0.054000000000000006,-0.054000000000000006,-0.054000000000000006,-0.054000000000000006,-0.054000000000000006,-0.054000000000000006,-0.053,-0.052000000000000005,-0.051,-0.051,-0.05,-0.05,-0.05,-0.05,-0.05,-0.049,-0.048,-0.048,-0.047,-0.047,-0.046,-0.045,-0.044000000000000004,-0.043,-0.043,-0.042,-0.040999999999999995,-0.04,-0.04,-0.04,-0.04,-0.04,-0.04,-0.039,-0.039,-0.038,-0.037000000000000005,-0.036000000000000004,-0.036000000000000004,-0.035,-0.034,-0.033,-0.032,-0.031,-0.03,-0.027999999999999997,-0.027000000000000003,-0.025,-0.023,-0.021,-0.02,-0.017,-0.015,-0.012,-0.01,-0.008,-0.006,-0.003,0.0,0.002,0.004,0.006,0.008,0.01,0.012,0.013000000000000001,0.015,0.017,0.019,0.021,0.024,0.026000000000000002,0.028999999999999998,0.032,0.036000000000000004,0.04,0.044000000000000004,0.048,0.052000000000000005,0.055,0.057999999999999996,0.06,0.062,0.063,0.064,0.065,0.065,0.064,0.062,0.059000000000000004,0.055999999999999994,0.053,0.049,0.045,0.040999999999999995,0.036000000000000004,0.031,0.027000000000000003,0.023,0.02,0.018000000000000002,0.017,0.016,0.015,0.013999999999999999,0.011000000000000001,0.009000000000000001,0.006,0.003,0.0,-0.003,-0.005,-0.006999999999999999,-0.008,-0.009000000000000001,-0.01,-0.011000000000000001,-0.011000000000000001,-0.011000000000000001,-0.011000000000000001,-0.012,-0.013999999999999999,-0.016,-0.017,-0.018000000000000002,-0.018000000000000002,-0.019,-0.018000000000000002,-0.018000000000000002,-0.016,-0.015,-0.013000000000000001,-0.012,-0.013000000000000001,-0.013999999999999999,-0.013999999999999999,-0.015,-0.015,-0.015,-0.015,-0.016,-0.016,-0.017,-0.016,-0.016,-0.015,-0.015,-0.013999999999999999,-0.013999999999999999,-0.013999999999999999,-0.015,-0.015,-0.015,-0.015,-0.015,-0.015,-0.015,-0.015,-0.015,-0.015,-0.015,-0.015,-0.015,-0.015,-0.015,-0.015,-0.016,-0.017,-0.018000000000000002,-0.019,-0.02,-0.021,-0.022000000000000002,-0.022000000000000002,-0.022000000000000002,-0.021,-0.021,-0.02,-0.019,-0.018000000000000002,-0.018000000000000002,-0.018000000000000002,-0.019,-0.019,-0.019,-0.019,-0.02,-0.021,-0.022000000000000002,-0.022000000000000002,-0.022000000000000002,-0.022000000000000002,-0.022000000000000002,-0.021,-0.021,-0.02,-0.019,-0.019,-0.019,-0.02,-0.022000000000000002,-0.022000000000000002,-0.023,-0.022000000000000002,-0.022000000000000002,-0.021,-0.021,-0.019,-0.018000000000000002,-0.016,-0.015,-0.013999999999999999,-0.013000000000000001,-0.012,-0.011000000000000001,-0.009000000000000001,-0.006999999999999999,-0.004,-0.002,0.0,0.003,0.005,0.008,0.01,0.012,0.012,0.013000000000000001,0.011000000000000001,0.01,0.006,0.002,-0.002,-0.006999999999999999,-0.011000000000000001,-0.016,-0.02,-0.024,-0.025,-0.027000000000000003,-0.027999999999999997,-0.028999999999999998,-0.028999999999999998,-0.03,-0.03,-0.03,-0.03,-0.03,-0.03,-0.031,-0.032,-0.033,-0.034,-0.035,-0.035,-0.036000000000000004,-0.036000000000000004,-0.037000000000000005,-0.037000000000000005,-0.037000000000000005,-0.037000000000000005,-0.037000000000000005,-0.037000000000000005,-0.038,-0.039,-0.04,-0.04,-0.04,-0.038,-0.036000000000000004,-0.034,-0.032,-0.03,-0.028999999999999998,-0.027000000000000003,-0.025,-0.023,-0.021,-0.02,-0.019,-0.018000000000000002,-0.018000000000000002,-0.018000000000000002,-0.019,-0.018000000000000002,-0.018000000000000002,-0.016,-0.015,-0.012,-0.01,-0.009000000000000001,-0.008,-0.006999999999999999,-0.006999999999999999,-0.006999999999999999,-0.008,-0.009000000000000001,-0.011000000000000001,-0.011000000000000001,-0.012,-0.013999999999999999,-0.016,-0.018000000000000002,-0.02,-0.023,-0.027000000000000003,-0.032,-0.037000000000000005,-0.043,-0.049,-0.053,-0.057,-0.052000000000000005,-0.047,-0.027000000000000003,-0.006999999999999999,0.031,0.068,0.12,0.172,0.237,0.302,0.374,0.446,0.512,0.579,0.624,0.67,0.682,0.695,0.677,0.659,0.62,0.5820000000000001,0.5379999999999999,0.494,0.455,0.415,0.379,0.34299999999999997,0.306,0.268,0.22899999999999998,0.19,0.154,0.11900000000000001,0.09,0.061,0.040999999999999995,0.021,0.006999999999999999,-0.006,-0.013000000000000001,-0.021,-0.025,-0.028999999999999998,-0.031,-0.034,-0.036000000000000004,-0.038,-0.039,-0.040999999999999995,-0.042,-0.044000000000000004,-0.045,-0.045,-0.046,-0.046,-0.047,-0.047,-0.047,-0.047,-0.047,-0.047,-0.047,-0.047,-0.047,-0.047,-0.047,-0.047,-0.047,-0.046,-0.045,-0.044000000000000004,-0.044000000000000004,-0.044000000000000004,-0.043,-0.043,-0.042,-0.040999999999999995,-0.04,-0.04,-0.04,-0.04,-0.04,-0.04,-0.04,-0.04,-0.04,-0.04,-0.039,-0.039,-0.038,-0.037000000000000005,-0.036000000000000004,-0.036000000000000004,-0.035,-0.034,-0.033,-0.032,-0.03,-0.028999999999999998,-0.027000000000000003,-0.026000000000000002,-0.025,-0.024,-0.022000000000000002,-0.021,-0.018000000000000002,-0.015,-0.012,-0.01,-0.008,-0.006999999999999999,-0.005,-0.004,-0.003,-0.003,-0.001,0.0,0.002,0.004,0.006,0.008,0.01,0.012,0.013000000000000001,0.015,0.017,0.019,0.021,0.023,0.025,0.027000000000000003,0.03,0.034,0.038,0.043,0.046,0.05,0.054000000000000006,0.057,0.061,0.065,0.07,0.07400000000000001,0.077,0.079,0.08,0.08,0.08,0.079,0.078,0.076,0.075,0.073,0.071,0.068,0.065,0.062,0.059000000000000004,0.055,0.05,0.045,0.039,0.034,0.028999999999999998,0.024,0.02,0.016,0.013000000000000001,0.01,0.006999999999999999,0.005,0.001,-0.002,-0.005,-0.008,-0.01,-0.013000000000000001,-0.013999999999999999,-0.016,-0.017,-0.018000000000000002,-0.018000000000000002,-0.019,-0.019,-0.019,-0.019,-0.019,-0.019,-0.019,-0.019,-0.019,-0.019,-0.019,-0.019,-0.019,-0.018000000000000002,-0.018000000000000002,-0.017,-0.016,-0.015,-0.013999999999999999,-0.012,-0.011000000000000001,-0.011000000000000001,-0.011000000000000001,-0.011000000000000001,-0.011000000000000001,-0.011000000000000001,-0.012,-0.013000000000000001,-0.015,-0.015,-0.016,-0.017,-0.018000000000000002,-0.018000000000000002,-0.019,-0.018000000000000002,-0.018000000000000002,-0.017,-0.017,-0.017,-0.018000000000000002,-0.019,-0.02,-0.02,-0.021,-0.02,-0.02,-0.02,-0.02,-0.02,-0.02,-0.02,-0.02,-0.02,-0.02,-0.02,-0.02,-0.02,-0.02,-0.02,-0.021,-0.022000000000000002,-0.023,-0.023,-0.024,-0.024,-0.024,-0.023,-0.022000000000000002,-0.022000000000000002,-0.022000000000000002,-0.022000000000000002,-0.022000000000000002,-0.022000000000000002,-0.022000000000000002,-0.022000000000000002,-0.022000000000000002,-0.022000000000000002,-0.022000000000000002,-0.022000000000000002,-0.022000000000000002,-0.021,-0.021,-0.019,-0.018000000000000002,-0.016,-0.013999999999999999,-0.012,-0.011000000000000001,-0.011000000000000001,-0.011000000000000001,-0.011000000000000001,-0.011000000000000001,-0.01,-0.01,-0.008,-0.006999999999999999,-0.004,-0.002,0.0,0.003,0.005,0.008,0.01,N
4,0.016,0.005,-0.006,-0.013000000000000001,-0.021,-0.026000000000000002,-0.032,-0.035,-0.038,-0.039,-0.040999999999999995,-0.043,-0.045,-0.046,-0.047,-0.048,-0.048,-0.049,-0.05,-0.051,-0.052000000000000005,-0.053,-0.054000000000000006,-0.054000000000000006,-0.054000000000000006,-0.054000000000000006,-0.054000000000000006,-0.054000000000000006,-0.054000000000000006,-0.054000000000000006,-0.054000000000000006,-0.054000000000000006,-0.054000000000000006,-0.054000000000000006,-0.053,-0.052000000000000005,-0.051,-0.051,-0.05,-0.05,-0.05,-0.05,-0.05,-0.049,-0.048,-0.048,-0.047,-0.047,-0.046,-0.045,-0.044000000000000004,-0.043,-0.043,-0.042,-0.040999999999999995,-0.04,-0.04,-0.04,-0.04,-0.04,-0.04,-0.039,-0.039,-0.038,-0.037000000000000005,-0.036000000000000004,-0.036000000000000004,-0.035,-0.034,-0.033,-0.032,-0.031,-0.03,-0.027999999999999997,-0.027000000000000003,-0.025,-0.023,-0.021,-0.02,-0.017,-0.015,-0.012,-0.01,-0.008,-0.006,-0.003,0.0,0.002,0.004,0.006,0.008,0.01,0.012,0.013000000000000001,0.015,0.017,0.019,0.021,0.024,0.026000000000000002,0.028999999999999998,0.032,0.036000000000000004,0.04,0.044000000000000004,0.048,0.052000000000000005,0.055,0.057999999999999996,0.06,0.062,0.063,0.064,0.065,0.065,0.064,0.062,0.059000000000000004,0.055999999999999994,0.053,0.049,0.045,0.040999999999999995,0.036000000000000004,0.031,0.027000000000000003,0.023,0.02,0.018000000000000002,0.017,0.016,0.015,0.013999999999999999,0.011000000000000001,0.009000000000000001,0.006,0.003,0.0,-0.003,-0.005,-0.006999999999999999,-0.008,-0.009000000000000001,-0.01,-0.011000000000000001,-0.011000000000000001,-0.011000000000000001,-0.011000000000000001,-0.012,-0.013999999999999999,-0.016,-0.017,-0.018000000000000002,-0.018000000000000002,-0.019,-0.018000000000000002,-0.018000000000000002,-0.016,-0.015,-0.013000000000000001,-0.012,-0.013000000000000001,-0.013999999999999999,-0.013999999999999999,-0.015,-0.015,-0.015,-0.015,-0.016,-0.016,-0.017,-0.016,-0.016,-0.015,-0.015,-0.013999999999999999,-0.013999999999999999,-0.013999999999999999,-0.015,-0.015,-0.015,-0.015,-0.015,-0.015,-0.015,-0.015,-0.015,-0.015,-0.015,-0.015,-0.015,-0.015,-0.015,-0.015,-0.016,-0.017,-0.018000000000000002,-0.019,-0.02,-0.021,-0.022000000000000002,-0.022000000000000002,-0.022000000000000002,-0.021,-0.021,-0.02,-0.019,-0.018000000000000002,-0.018000000000000002,-0.018000000000000002,-0.019,-0.019,-0.019,-0.019,-0.02,-0.021,-0.022000000000000002,-0.022000000000000002,-0.022000000000000002,-0.022000000000000002,-0.022000000000000002,-0.021,-0.021,-0.02,-0.019,-0.019,-0.019,-0.02,-0.022000000000000002,-0.022000000000000002,-0.023,-0.022000000000000002,-0.022000000000000002,-0.021,-0.021,-0.019,-0.018000000000000002,-0.016,-0.015,-0.013999999999999999,-0.013000000000000001,-0.012,-0.011000000000000001,-0.009000000000000001,-0.006999999999999999,-0.004,-0.002,0.0,0.003,0.005,0.008,0.01,0.012,0.012,0.013000000000000001,0.011000000000000001,0.01,0.006,0.002,-0.002,-0.006999999999999999,-0.011000000000000001,-0.016,-0.02,-0.024,-0.025,-0.027000000000000003,-0.027999999999999997,-0.028999999999999998,-0.028999999999999998,-0.03,-0.03,-0.03,-0.03,-0.03,-0.03,-0.031,-0.032,-0.033,-0.034,-0.035,-0.035,-0.036000000000000004,-0.036000000000000004,-0.037000000000000005,-0.037000000000000005,-0.037000000000000005,-0.037000000000000005,-0.037000000000000005,-0.037000000000000005,-0.038,-0.039,-0.04,-0.04,-0.04,-0.038,-0.036000000000000004,-0.034,-0.032,-0.03,-0.028999999999999998,-0.027000000000000003,-0.025,-0.023,-0.021,-0.02,-0.019,-0.018000000000000002,-0.018000000000000002,-0.018000000000000002,-0.019,-0.018000000000000002,-0.018000000000000002,-0.016,-0.015,-0.012,-0.01,-0.009000000000000001,-0.008,-0.006999999999999999,-0.006999999999999999,-0.006999999999999999,-0.008,-0.009000000000000001,-0.011000000000000001,-0.011000000000000001,-0.012,-0.013999999999999999,-0.016,-0.018000000000000002,-0.02,-0.023,-0.027000000000000003,-0.032,-0.037000000000000005,-0.043,-0.049,-0.053,-0.057,-0.052000000000000005,-0.047,-0.027000000000000003,-0.006999999999999999,0.031,0.068,0.12,0.172,0.237,0.302,0.374,0.446,0.512,0.579,0.624,0.67,0.682,0.695,0.677,0.659,0.62,0.5820000000000001,0.5379999999999999,0.494,0.455,0.415,0.379,0.34299999999999997,0.306,0.268,0.22899999999999998,0.19,0.154,0.11900000000000001,0.09,0.061,0.040999999999999995,0.021,0.006999999999999999,-0.006,-0.013000000000000001,-0.021,-0.025,-0.028999999999999998,-0.031,-0.034,-0.036000000000000004,-0.038,-0.039,-0.040999999999999995,-0.042,-0.044000000000000004,-0.045,-0.045,-0.046,-0.046,-0.047,-0.047,-0.047,-0.047,-0.047,-0.047,-0.047,-0.047,-0.047,-0.047,-0.047,-0.047,-0.047,-0.046,-0.045,-0.044000000000000004,-0.044000000000000004,-0.044000000000000004,-0.043,-0.043,-0.042,-0.040999999999999995,-0.04,-0.04,-0.04,-0.04,-0.04,-0.04,-0.04,-0.04,-0.04,-0.04,-0.039,-0.039,-0.038,-0.037000000000000005,-0.036000000000000004,-0.036000000000000004,-0.035,-0.034,-0.033,-0.032,-0.03,-0.028999999999999998,-0.027000000000000003,-0.026000000000000002,-0.025,-0.024,-0.022000000000000002,-0.021,-0.018000000000000002,-0.015,-0.012,-0.01,-0.008,-0.006999999999999999,-0.005,-0.004,-0.003,-0.003,-0.001,0.0,0.002,0.004,0.006,0.008,0.01,0.012,0.013000000000000001,0.015,0.017,0.019,0.021,0.023,0.025,0.027000000000000003,0.03,0.034,0.038,0.043,0.046,0.05,0.054000000000000006,0.057,0.061,0.065,0.07,0.07400000000000001,0.077,0.079,0.08,0.08,0.08,0.079,0.078,0.076,0.075,0.073,0.071,0.068,0.065,0.062,0.059000000000000004,0.055,0.05,0.045,0.039,0.034,0.028999999999999998,0.024,0.02,0.016,0.013000000000000001,0.01,0.006999999999999999,0.005,0.001,-0.002,-0.005,-0.008,-0.01,-0.013000000000000001,-0.013999999999999999,-0.016,-0.017,-0.018000000000000002,-0.018000000000000002,-0.019,-0.019,-0.019,-0.019,-0.019,-0.019,-0.019,-0.019,-0.019,-0.019,-0.019,-0.019,-0.019,-0.018000000000000002,-0.018000000000000002,-0.017,-0.016,-0.015,-0.013999999999999999,-0.012,-0.011000000000000001,-0.011000000000000001,-0.011000000000000001,-0.011000000000000001,-0.011000000000000001,-0.011000000000000001,-0.012,-0.013000000000000001,-0.015,-0.015,-0.016,-0.017,-0.018000000000000002,-0.018000000000000002,-0.019,-0.018000000000000002,-0.018000000000000002,-0.017,-0.017,-0.017,-0.018000000000000002,-0.019,-0.02,-0.02,-0.021,-0.02,-0.02,-0.02,-0.02,-0.02,-0.02,-0.02,-0.02,-0.02,-0.02,-0.02,-0.02,-0.02,-0.02,-0.02,-0.021,-0.022000000000000002,-0.023,-0.023,-0.024,-0.024,-0.024,-0.023,-0.022000000000000002,-0.022000000000000002,-0.022000000000000002,-0.022000000000000002,-0.022000000000000002,-0.022000000000000002,-0.022000000000000002,-0.022000000000000002,-0.022000000000000002,-0.022000000000000002,-0.022000000000000002,-0.022000000000000002,-0.022000000000000002,-0.021,-0.021,-0.019,-0.018000000000000002,-0.016,-0.013999999999999999,-0.012,-0.011000000000000001,-0.011000000000000001,-0.011000000000000001,-0.011000000000000001,-0.011000000000000001,-0.01,-0.01,-0.008,-0.006999999999999999,-0.004,-0.002,0.0,0.003,0.005,0.008,0.01,0.012,0.013000000000000001,0.013999999999999999,0.013999999999999999,0.013999999999999999,0.011000000000000001,0.009000000000000001,0.005,0.002,-0.002,-0.006,-0.009000000000000001,-0.013000000000000001,-0.016,-0.019,-0.02,-0.022000000000000002,-0.023,-0.024,-0.025,-0.026000000000000002,-0.026000000000000002,-0.026000000000000002,-0.026000000000000002,-0.027000000000000003,-0.027999999999999997,-0.028999999999999998,-0.03,-0.031,-0.032,-0.033,-0.034,-0.035,-0.035,-0.036000000000000004,-0.036000000000000004,-0.037000000000000005,-0.037000000000000005,-0.038,-0.038,-0.039,-0.038,-0.038,-0.037000000000000005,-0.037000000000000005,-0.036000000000000004,-0.036000000000000004,-0.034,-0.033,-0.031,-0.028999999999999998,-0.027000000000000003,-0.025,-0.023,-0.021,-0.019,-0.018000000000000002,-0.016,-0.015,-0.013999999999999999,-0.013000000000000001,-0.012,-0.012,-0.011000000000000001,-0.01,-0.009000000000000001,-0.009000000000000001,-0.009000000000000001,-0.009000000000000001,-0.008,-0.008,-0.006999999999999999,-0.006999999999999999,-0.006999999999999999,-0.008,-0.01,-0.012,-0.013999999999999999,-0.016,-0.017,-0.019,-0.022000000000000002,-0.025,-0.03,-0.036000000000000004,-0.044000000000000004,-0.051,-0.057999999999999996,-0.064,-0.062,-0.06,-0.045,-0.028999999999999998,0.003,0.036000000000000004,0.083,0.131,0.19,0.249,0.317,0.384,0.45,0.515,0.565,0.614,0.635,0.6559999999999999,0.6459999999999999,0.636,0.603,0.5710000000000001,0.53,0.49,0.452,0.414,0.38,0.34600000000000003,0.311,0.275,0.23800000000000002,0.201,0.166,0.132,0.10300000000000001,0.07400000000000001,0.053,0.032,0.018000000000000002,0.005,-0.003,-0.011000000000000001,-0.016,-0.022000000000000002,-0.026000000000000002,-0.03,-0.033,-0.036000000000000004,-0.038,-0.04,-0.04,-0.040999999999999995,-0.04,-0.04,-0.04,-0.04,-0.04,-0.04,-0.04,-0.04,-0.04,-0.04,-0.04,-0.040999999999999995,-0.042,-0.043,-0.043,-0.043,-0.042,-0.040999999999999995,-0.04,-0.04,-0.04,-0.04,-0.04,-0.04,-0.04,-0.04,-0.04,-0.04,-0.039,-0.039,-0.037000000000000005,-0.036000000000000004,-0.035,-0.034,-0.033,-0.032,-0.031,-0.03,-0.028999999999999998,-0.027999999999999997,-0.027000000000000003,-0.027000000000000003,-0.025,-0.024,-0.023,-0.022000000000000002,-0.02,-0.019,-0.018000000000000002,-0.017,-0.016,-0.015,-0.013000000000000001,-0.011000000000000001,-0.01,-0.01,-0.008,-0.006,-0.003,0.0,0.002,0.004,0.006,0.008,0.009000000000000001,0.011000000000000001,0.011000000000000001,0.012,0.013000000000000001,0.015,0.016,0.018000000000000002,0.019,0.021,0.023,0.025,0.027999999999999997,0.032,0.036000000000000004,0.04,0.045,0.049,0.054000000000000006,0.057999999999999996,0.061,0.063,0.066,0.069,0.073,0.076,0.079,0.08199999999999999,0.085,0.087,0.08900000000000001,0.09,0.091,0.091,0.09,0.08900000000000001,0.087,0.085,0.081,0.077,0.07200000000000001,0.066,0.06,0.054000000000000006,0.048,0.042,0.036000000000000004,0.03,0.025,0.021,0.018000000000000002,0.015,0.012,0.01,0.008,0.006,0.004,0.002,0.0,-0.002,-0.005,-0.008,-0.01,-0.013000000000000001,-0.013999999999999999,-0.016,-0.017,-0.018000000000000002,-0.018000000000000002,-0.019,-0.019,-0.019,-0.019,-0.019,-0.019,-0.019,-0.019,-0.019,-0.018000000000000002,-0.018000000000000002,-0.017,-0.016,-0.015,-0.015,-0.015,-0.015,-0.016,-0.018000000000000002,-0.018000000000000002,-0.019,-0.019,-0.019,-0.019,-0.019,-0.019,-0.019,-0.019,-0.019,-0.019,-0.019,-0.019,-0.019,-0.019,-0.02,-0.021,-0.022000000000000002,-0.022000000000000002,-0.022000000000000002,-0.021,-0.021,-0.02,-0.019,-0.018000000000000002,-0.018000000000000002,-0.018000000000000002,-0.019,-0.019,-0.019,-0.019,-0.02,-0.021,-0.022000000000000002,-0.022000000000000002,-0.022000000000000002,-0.022000000000000002,-0.022000000000000002,-0.021,-0.021,-0.02,-0.019,-0.018000000000000002,-0.018000000000000002,-0.018000000000000002,-0.019,-0.019,-0.019,-0.019,-0.02,-0.02,-0.021,-0.02,-0.019,-0.018000000000000002,-0.018000000000000002,-0.018000000000000002,-0.018000000000000002,-0.017,-0.016,-0.015,-0.015,-0.013999999999999999,-0.013000000000000001,-0.012,-0.012,-0.011000000000000001,-0.01,-0.008,-0.006999999999999999,-0.004,-0.002,0.0,0.003,0.006,0.009000000000000001,0.011000000000000001,0.013999999999999999,0.013999999999999999,0.013999999999999999,0.012,N
5,-0.006,-0.013000000000000001,-0.021,-0.025,-0.028999999999999998,-0.031,-0.034,-0.036000000000000004,-0.038,-0.039,-0.040999999999999995,-0.042,-0.044000000000000004,-0.045,-0.045,-0.046,-0.046,-0.047,-0.047,-0.047,-0.047,-0.047,-0.047,-0.047,-0.047,-0.047,-0.047,-0.047,-0.047,-0.047,-0.046,-0.045,-0.044000000000000004,-0.044000000000000004,-0.044000000000000004,-0.043,-0.043,-0.042,-0.040999999999999995,-0.04,-0.04,-0.04,-0.04,-0.04,-0.04,-0.04,-0.04,-0.04,-0.04,-0.039,-0.039,-0.038,-0.037000000000000005,-0.036000000000000004,-0.036000000000000004,-0.035,-0.034,-0.033,-0.032,-0.03,-0.028999999999999998,-0.027000000000000003,-0.026000000000000002,-0.025,-0.024,-0.022000000000000002,-0.021,-0.018000000000000002,-0.015,-0.012,-0.01,-0.008,-0.006999999999999999,-0.005,-0.004,-0.003,-0.003,-0.001,0.0,0.002,0.004,0.006,0.008,0.01,0.012,0.013000000000000001,0.015,0.017,0.019,0.021,0.023,0.025,0.027000000000000003,0.03,0.034,0.038,0.043,0.046,0.05,0.054000000000000006,0.057,0.061,0.065,0.07,0.07400000000000001,0.077,0.079,0.08,0.08,0.08,0.079,0.078,0.076,0.075,0.073,0.071,0.068,0.065,0.062,0.059000000000000004,0.055,0.05,0.045,0.039,0.034,0.028999999999999998,0.024,0.02,0.016,0.013000000000000001,0.01,0.006999999999999999,0.005,0.001,-0.002,-0.005,-0.008,-0.01,-0.013000000000000001,-0.013999999999999999,-0.016,-0.017,-0.018000000000000002,-0.018000000000000002,-0.019,-0.019,-0.019,-0.019,-0.019,-0.019,-0.019,-0.019,-0.019,-0.019,-0.019,-0.019,-0.019,-0.018000000000000002,-0.018000000000000002,-0.017,-0.016,-0.015,-0.013999999999999999,-0.012,-0.011000000000000001,-0.011000000000000001,-0.011000000000000001,-0.011000000000000001,-0.011000000000000001,-0.011000000000000001,-0.012,-0.013000000000000001,-0.015,-0.015,-0.016,-0.017,-0.018000000000000002,-0.018000000000000002,-0.019,-0.018000000000000002,-0.018000000000000002,-0.017,-0.017,-0.017,-0.018000000000000002,-0.019,-0.02,-0.02,-0.021,-0.02,-0.02,-0.02,-0.02,-0.02,-0.02,-0.02,-0.02,-0.02,-0.02,-0.02,-0.02,-0.02,-0.02,-0.02,-0.021,-0.022000000000000002,-0.023,-0.023,-0.024,-0.024,-0.024,-0.023,-0.022000000000000002,-0.022000000000000002,-0.022000000000000002,-0.022000000000000002,-0.022000000000000002,-0.022000000000000002,-0.022000000000000002,-0.022000000000000002,-0.022000000000000002,-0.022000000000000002,-0.022000000000000002,-0.022000000000000002,-0.022000000000000002,-0.021,-0.021,-0.019,-0.018000000000000002,-0.016,-0.013999999999999999,-0.012,-0.011000000000000001,-0.011000000000000001,-0.011000000000000001,-0.011000000000000001,-0.011000000000000001,-0.01,-0.01,-0.008,-0.006999999999999999,-0.004,-0.002,0.0,0.003,0.005,0.008,0.01,0.012,0.013000000000000001,0.013999999999999999,0.013999999999999999,0.013999999999999999,0.011000000000000001,0.009000000000000001,0.005,0.002,-0.002,-0.006,-0.009000000000000001,-0.013000000000000001,-0.016,-0.019,-0.02,-0.022000000000000002,-0.023,-0.024,-0.025,-0.026000000000000002,-0.026000000000000002,-0.026000000000000002,-0.026000000000000002,-0.027000000000000003,-0.027999999999999997,-0.028999999999999998,-0.03,-0.031,-0.032,-0.033,-0.034,-0.035,-0.035,-0.036000000000000004,-0.036000000000000004,-0.037000000000000005,-0.037000000000000005,-0.038,-0.038,-0.039,-0.038,-0.038,-0.037000000000000005,-0.037000000000000005,-0.036000000000000004,-0.036000000000000004,-0.034,-0.033,-0.031,-0.028999999999999998,-0.027000000000000003,-0.025,-0.023,-0.021,-0.019,-0.018000000000000002,-0.016,-0.015,-0.013999999999999999,-0.013000000000000001,-0.012,-0.012,-0.011000000000000001,-0.01,-0.009000000000000001,-0.009000000000000001,-0.009000000000000001,-0.009000000000000001,-0.008,-0.008,-0.006999999999999999,-0.006999999999999999,-0.006999999999999999,-0.008,-0.01,-0.012,-0.013999999999999999,-0.016,-0.017,-0.019,-0.022000000000000002,-0.025,-0.03,-0.036000000000000004,-0.044000000000000004,-0.051,-0.057999999999999996,-0.064,-0.062,-0.06,-0.045,-0.028999999999999998,0.003,0.036000000000000004,0.083,0.131,0.19,0.249,0.317,0.384,0.45,0.515,0.565,0.614,0.635,0.6559999999999999,0.6459999999999999,0.636,0.603,0.5710000000000001,0.53,0.49,0.452,0.414,0.38,0.34600000000000003,0.311,0.275,0.23800000000000002,0.201,0.166,0.132,0.10300000000000001,0.07400000000000001,0.053,0.032,0.018000000000000002,0.005,-0.003,-0.011000000000000001,-0.016,-0.022000000000000002,-0.026000000000000002,-0.03,-0.033,-0.036000000000000004,-0.038,-0.04,-0.04,-0.040999999999999995,-0.04,-0.04,-0.04,-0.04,-0.04,-0.04,-0.04,-0.04,-0.04,-0.04,-0.04,-0.040999999999999995,-0.042,-0.043,-0.043,-0.043,-0.042,-0.040999999999999995,-0.04,-0.04,-0.04,-0.04,-0.04,-0.04,-0.04,-0.04,-0.04,-0.04,-0.039,-0.039,-0.037000000000000005,-0.036000000000000004,-0.035,-0.034,-0.033,-0.032,-0.031,-0.03,-0.028999999999999998,-0.027999999999999997,-0.027000000000000003,-0.027000000000000003,-0.025,-0.024,-0.023,-0.022000000000000002,-0.02,-0.019,-0.018000000000000002,-0.017,-0.016,-0.015,-0.013000000000000001,-0.011000000000000001,-0.01,-0.01,-0.008,-0.006,-0.003,0.0,0.002,0.004,0.006,0.008,0.009000000000000001,0.011000000000000001,0.011000000000000001,0.012,0.013000000000000001,0.015,0.016,0.018000000000000002,0.019,0.021,0.023,0.025,0.027999999999999997,0.032,0.036000000000000004,0.04,0.045,0.049,0.054000000000000006,0.057999999999999996,0.061,0.063,0.066,0.069,0.073,0.076,0.079,0.08199999999999999,0.085,0.087,0.08900000000000001,0.09,0.091,0.091,0.09,0.08900000000000001,0.087,0.085,0.081,0.077,0.07200000000000001,0.066,0.06,0.054000000000000006,0.048,0.042,0.036000000000000004,0.03,0.025,0.021,0.018000000000000002,0.015,0.012,0.01,0.008,0.006,0.004,0.002,0.0,-0.002,-0.005,-0.008,-0.01,-0.013000000000000001,-0.013999999999999999,-0.016,-0.017,-0.018000000000000002,-0.018000000000000002,-0.019,-0.019,-0.019,-0.019,-0.019,-0.019,-0.019,-0.019,-0.019,-0.018000000000000002,-0.018000000000000002,-0.017,-0.016,-0.015,-0.015,-0.015,-0.015,-0.016,-0.018000000000000002,-0.018000000000000002,-0.019,-0.019,-0.019,-0.019,-0.019,-0.019,-0.019,-0.019,-0.019,-0.019,-0.019,-0.019,-0.019,-0.019,-0.02,-0.021,-0.022000000000000002,-0.022000000000000002,-0.022000000000000002,-0.021,-0.021,-0.02,-0.019,-0.018000000000000002,-0.018000000000000002,-0.018000000000000002,-0.019,-0.019,-0.019,-0.019,-0.02,-0.021,-0.022000000000000002,-0.022000000000000002,-0.022000000000000002,-0.022000000000000002,-0.022000000000000002,-0.021,-0.021,-0.02,-0.019,-0.018000000000000002,-0.018000000000000002,-0.018000000000000002,-0.019,-0.019,-0.019,-0.019,-0.02,-0.02,-0.021,-0.02,-0.019,-0.018000000000000002,-0.018000000000000002,-0.018000000000000002,-0.018000000000000002,-0.017,-0.016,-0.015,-0.015,-0.013999999999999999,-0.013000000000000001,-0.012,-0.012,-0.011000000000000001,-0.01,-0.008,-0.006999999999999999,-0.004,-0.002,0.0,0.003,0.006,0.009000000000000001,0.011000000000000001,0.013999999999999999,0.013999999999999999,0.013999999999999999,0.012,0.01,0.006999999999999999,0.005,0.001,-0.003,-0.006999999999999999,-0.012,-0.016,-0.021,-0.024,-0.027000000000000003,-0.027999999999999997,-0.03,-0.03,-0.03,-0.03,-0.031,-0.032,-0.033,-0.034,-0.035,-0.035,-0.035,-0.035,-0.035,-0.035,-0.036000000000000004,-0.036000000000000004,-0.037000000000000005,-0.037000000000000005,-0.037000000000000005,-0.037000000000000005,-0.037000000000000005,-0.037000000000000005,-0.037000000000000005,-0.037000000000000005,-0.038,-0.039,-0.04,-0.04,-0.040999999999999995,-0.04,-0.039,-0.037000000000000005,-0.036000000000000004,-0.034,-0.033,-0.031,-0.028999999999999998,-0.027000000000000003,-0.025,-0.023,-0.021,-0.02,-0.019,-0.018000000000000002,-0.017,-0.016,-0.016,-0.015,-0.015,-0.013999999999999999,-0.013000000000000001,-0.012,-0.012,-0.011000000000000001,-0.01,-0.009000000000000001,-0.008,-0.006999999999999999,-0.006999999999999999,-0.006999999999999999,-0.008,-0.01,-0.012,-0.013999999999999999,-0.017,-0.02,-0.023,-0.027999999999999997,-0.034,-0.042,-0.049,-0.057,-0.064,-0.067,-0.069,-0.059000000000000004,-0.049,-0.024,0.001,0.044000000000000004,0.086,0.141,0.196,0.26,0.32299999999999995,0.389,0.455,0.51,0.5660000000000001,0.596,0.627,0.626,0.625,0.599,0.574,0.537,0.5,0.46299999999999997,0.426,0.392,0.35700000000000004,0.32299999999999995,0.289,0.253,0.218,0.183,0.14800000000000002,0.11699999999999999,0.086,0.062,0.039,0.023,0.008,-0.002,-0.012,-0.018000000000000002,-0.024,-0.027999999999999997,-0.032,-0.034,-0.037000000000000005,-0.038,-0.04,-0.04,-0.040999999999999995,-0.040999999999999995,-0.040999999999999995,-0.042,-0.043,-0.044000000000000004,-0.045,-0.046,-0.047,-0.047,-0.047,-0.047,-0.046,-0.045,-0.043,-0.042,-0.040999999999999995,-0.04,-0.04,-0.04,-0.04,-0.04,-0.04,-0.04,-0.04,-0.04,-0.04,-0.04,-0.04,-0.04,-0.04,-0.04,-0.04,-0.04,-0.04,-0.04,-0.04,-0.039,-0.039,-0.038,-0.038,-0.038,-0.039,-0.038,-0.038,-0.037000000000000005,-0.036000000000000004,-0.034,-0.033,-0.031,-0.028999999999999998,-0.027000000000000003,-0.026000000000000002,-0.024,-0.023,-0.021,-0.02,-0.018000000000000002,-0.016,-0.013000000000000001,-0.011000000000000001,-0.008,-0.005,-0.002,0.0,0.002,0.004,0.006,0.008,0.009000000000000001,0.011000000000000001,0.011000000000000001,0.012,0.013000000000000001,0.015,0.017,0.019,0.021,0.024,0.027000000000000003,0.03,0.034,0.038,0.040999999999999995,0.045,0.048,0.052000000000000005,0.055,0.057999999999999996,0.061,0.063,0.066,0.069,0.073,0.076,0.078,0.08,0.08,0.08,0.079,0.078,0.076,0.07400000000000001,0.071,0.067,0.063,0.059000000000000004,0.055,0.051,0.046,0.040999999999999995,0.034,0.027999999999999997,0.023,0.019,0.015,0.012,0.006999999999999999,0.002,-0.002,-0.006,-0.009000000000000001,-0.013000000000000001,-0.016,-0.019,-0.02,-0.022000000000000002,-0.023,-0.024,-0.025,-0.026000000000000002,-0.026000000000000002,-0.026000000000000002,-0.026000000000000002,-0.026000000000000002,-0.026000000000000002,-0.027000000000000003,-0.027999999999999997,-0.028999999999999998,-0.03,-0.031,-0.032,-0.033,-0.033,-0.034,-0.033,-0.033,-0.033,-0.033,-0.033,-0.033,-0.033,-0.033,-0.033,-0.033,-0.033,-0.033,-0.033,-0.033,-0.033,-0.033,-0.033,-0.033,-0.033,-0.033,-0.033,-0.033,-0.033,-0.033,-0.033,-0.033,-0.033,-0.033,-0.033,-0.033,-0.033,-0.033,-0.033,-0.033,-0.033,-0.033,-0.033,-0.034,-0.035,-0.036000000000000004,-0.036000000000000004,-0.036000000000000004,-0.035,-0.034,-0.033,-0.032,-0.031,-0.03,-0.028999999999999998,-0.028999999999999998,-0.03,-0.031,-0.032,-0.033,-0.033,-0.034,-0.033,-0.033,-0.033,-0.033,-0.033,-0.033,-0.032,-0.032,-0.031,-0.03,-0.028999999999999998,-0.027999999999999997,-0.027000000000000003,-0.027000000000000003,-0.026000000000000002,-0.025,-0.025,-0.026000000000000002,-0.025,-0.025,-0.024,-0.023,-0.022000000000000002,-0.021,-0.02,-0.019,-0.018000000000000002,-0.017,-0.016,-0.015,-0.012,-0.009000000000000001,-0.006,-0.003,0.001,0.005,0.006999999999999999,0.01,0.01,0.01,0.008,N
6,0.018000000000000002,0.005,-0.003,-0.011000000000000001,-0.016,-0.022000000000000002,-0.026000000000000002,-0.03,-0.033,-0.036000000000000004,-0.038,-0.04,-0.04,-0.040999999999999995,-0.04,-0.04,-0.04,-0.04,-0.04,-0.04,-0.04,-0.04,-0.04,-0.04,-0.04,-0.040999999999999995,-0.042,-0.043,-0.043,-0.043,-0.042,-0.040999999999999995,-0.04,-0.04,-0.04,-0.04,-0.04,-0.04,-0.04,-0.04,-0.04,-0.04,-0.039,-0.039,-0.037000000000000005,-0.036000000000000004,-0.035,-0.034,-0.033,-0.032,-0.031,-0.03,-0.028999999999999998,-0.027999999999999997,-0.027000000000000003,-0.027000000000000003,-0.025,-0.024,-0.023,-0.022000000000000002,-0.02,-0.019,-0.018000000000000002,-0.017,-0.016,-0.015,-0.013000000000000001,-0.011000000000000001,-0.01,-0.01,-0.008,-0.006,-0.003,0.0,0.002,0.004,0.006,0.008,0.009000000000000001,0.011000000000000001,0.011000000000000001,0.012,0.013000000000000001,0.015,0.016,0.018000000000000002,0.019,0.021,0.023,0.025,0.027999999999999997,0.032,0.036000000000000004,0.04,0.045,0.049,0.054000000000000006,0.057999999999999996,0.061,0.063,0.066,0.069,0.073,0.076,0.079,0.08199999999999999,0.085,0.087,0.08900000000000001,0.09,0.091,0.091,0.09,0.08900000000000001,0.087,0.085,0.081,0.077,0.07200000000000001,0.066,0.06,0.054000000000000006,0.048,0.042,0.036000000000000004,0.03,0.025,0.021,0.018000000000000002,0.015,0.012,0.01,0.008,0.006,0.004,0.002,0.0,-0.002,-0.005,-0.008,-0.01,-0.013000000000000001,-0.013999999999999999,-0.016,-0.017,-0.018000000000000002,-0.018000000000000002,-0.019,-0.019,-0.019,-0.019,-0.019,-0.019,-0.019,-0.019,-0.019,-0.018000000000000002,-0.018000000000000002,-0.017,-0.016,-0.015,-0.015,-0.015,-0.015,-0.016,-0.018000000000000002,-0.018000000000000002,-0.019,-0.019,-0.019,-0.019,-0.019,-0.019,-0.019,-0.019,-0.019,-0.019,-0.019,-0.019,-0.019,-0.019,-0.02,-0.021,-0.022000000000000002,-0.022000000000000002,-0.022000000000000002,-0.021,-0.021,-0.02,-0.019,-0.018000000000000002,-0.018000000000000002,-0.018000000000000002,-0.019,-0.019,-0.019,-0.019,-0.02,-0.021,-0.022000000000000002,-0.022000000000000002,-0.022000000000000002,-0.022000000000000002,-0.022000000000000002,-0.021,-0.021,-0.02,-0.019,-0.018000000000000002,-0.018000000000000002,-0.018000000000000002,-0.019,-0.019,-0.019,-0.019,-0.02,-0.02,-0.021,-0.02,-0.019,-0.018000000000000002,-0.018000000000000002,-0.018000000000000002,-0.018000000000000002,-0.017,-0.016,-0.015,-0.015,-0.013999999999999999,-0.013000000000000001,-0.012,-0.012,-0.011000000000000001,-0.01,-0.008,-0.006999999999999999,-0.004,-0.002,0.0,0.003,0.006,0.009000000000000001,0.011000000000000001,0.013999999999999999,0.013999999999999999,0.013999999999999999,0.012,0.01,0.006999999999999999,0.005,0.001,-0.003,-0.006999999999999999,-0.012,-0.016,-0.021,-0.024,-0.027000000000000003,-0.027999999999999997,-0.03,-0.03,-0.03,-0.03,-0.031,-0.032,-0.033,-0.034,-0.035,-0.035,-0.035,-0.035,-0.035,-0.035,-0.036000000000000004,-0.036000000000000004,-0.037000000000000005,-0.037000000000000005,-0.037000000000000005,-0.037000000000000005,-0.037000000000000005,-0.037000000000000005,-0.037000000000000005,-0.037000000000000005,-0.038,-0.039,-0.04,-0.04,-0.040999999999999995,-0.04,-0.039,-0.037000000000000005,-0.036000000000000004,-0.034,-0.033,-0.031,-0.028999999999999998,-0.027000000000000003,-0.025,-0.023,-0.021,-0.02,-0.019,-0.018000000000000002,-0.017,-0.016,-0.016,-0.015,-0.015,-0.013999999999999999,-0.013000000000000001,-0.012,-0.012,-0.011000000000000001,-0.01,-0.009000000000000001,-0.008,-0.006999999999999999,-0.006999999999999999,-0.006999999999999999,-0.008,-0.01,-0.012,-0.013999999999999999,-0.017,-0.02,-0.023,-0.027999999999999997,-0.034,-0.042,-0.049,-0.057,-0.064,-0.067,-0.069,-0.059000000000000004,-0.049,-0.024,0.001,0.044000000000000004,0.086,0.141,0.196,0.26,0.32299999999999995,0.389,0.455,0.51,0.5660000000000001,0.596,0.627,0.626,0.625,0.599,0.574,0.537,0.5,0.46299999999999997,0.426,0.392,0.35700000000000004,0.32299999999999995,0.289,0.253,0.218,0.183,0.14800000000000002,0.11699999999999999,0.086,0.062,0.039,0.023,0.008,-0.002,-0.012,-0.018000000000000002,-0.024,-0.027999999999999997,-0.032,-0.034,-0.037000000000000005,-0.038,-0.04,-0.04,-0.040999999999999995,-0.040999999999999995,-0.040999999999999995,-0.042,-0.043,-0.044000000000000004,-0.045,-0.046,-0.047,-0.047,-0.047,-0.047,-0.046,-0.045,-0.043,-0.042,-0.040999999999999995,-0.04,-0.04,-0.04,-0.04,-0.04,-0.04,-0.04,-0.04,-0.04,-0.04,-0.04,-0.04,-0.04,-0.04,-0.04,-0.04,-0.04,-0.04,-0.04,-0.04,-0.039,-0.039,-0.038,-0.038,-0.038,-0.039,-0.038,-0.038,-0.037000000000000005,-0.036000000000000004,-0.034,-0.033,-0.031,-0.028999999999999998,-0.027000000000000003,-0.026000000000000002,-0.024,-0.023,-0.021,-0.02,-0.018000000000000002,-0.016,-0.013000000000000001,-0.011000000000000001,-0.008,-0.005,-0.002,0.0,0.002,0.004,0.006,0.008,0.009000000000000001,0.011000000000000001,0.011000000000000001,0.012,0.013000000000000001,0.015,0.017,0.019,0.021,0.024,0.027000000000000003,0.03,0.034,0.038,0.040999999999999995,0.045,0.048,0.052000000000000005,0.055,0.057999999999999996,0.061,0.063,0.066,0.069,0.073,0.076,0.078,0.08,0.08,0.08,0.079,0.078,0.076,0.07400000000000001,0.071,0.067,0.063,0.059000000000000004,0.055,0.051,0.046,0.040999999999999995,0.034,0.027999999999999997,0.023,0.019,0.015,0.012,0.006999999999999999,0.002,-0.002,-0.006,-0.009000000000000001,-0.013000000000000001,-0.016,-0.019,-0.02,-0.022000000000000002,-0.023,-0.024,-0.025,-0.026000000000000002,-0.026000000000000002,-0.026000000000000002,-0.026000000000000002,-0.026000000000000002,-0.026000000000000002,-0.027000000000000003,-0.027999999999999997,-0.028999999999999998,-0.03,-0.031,-0.032,-0.033,-0.033,-0.034,-0.033,-0.033,-0.033,-0.033,-0.033,-0.033,-0.033,-0.033,-0.033,-0.033,-0.033,-0.033,-0.033,-0.033,-0.033,-0.033,-0.033,-0.033,-0.033,-0.033,-0.033,-0.033,-0.033,-0.033,-0.033,-0.033,-0.033,-0.033,-0.033,-0.033,-0.033,-0.033,-0.033,-0.033,-0.033,-0.033,-0.033,-0.034,-0.035,-0.036000000000000004,-0.036000000000000004,-0.036000000000000004,-0.035,-0.034,-0.033,-0.032,-0.031,-0.03,-0.028999999999999998,-0.028999999999999998,-0.03,-0.031,-0.032,-0.033,-0.033,-0.034,-0.033,-0.033,-0.033,-0.033,-0.033,-0.033,-0.032,-0.032,-0.031,-0.03,-0.028999999999999998,-0.027999999999999997,-0.027000000000000003,-0.027000000000000003,-0.026000000000000002,-0.025,-0.025,-0.026000000000000002,-0.025,-0.025,-0.024,-0.023,-0.022000000000000002,-0.021,-0.02,-0.019,-0.018000000000000002,-0.017,-0.016,-0.015,-0.012,-0.009000000000000001,-0.006,-0.003,0.001,0.005,0.006999999999999999,0.01,0.01,0.01,0.008,0.006,0.001,-0.003,-0.008,-0.013000000000000001,-0.018000000000000002,-0.024,-0.027000000000000003,-0.031,-0.032,-0.034,-0.035,-0.037000000000000005,-0.037000000000000005,-0.037000000000000005,-0.037000000000000005,-0.037000000000000005,-0.037000000000000005,-0.038,-0.038,-0.039,-0.039,-0.039,-0.039,-0.04,-0.04,-0.040999999999999995,-0.04,-0.04,-0.04,-0.04,-0.04,-0.04,-0.04,-0.04,-0.04,-0.04,-0.04,-0.04,-0.04,-0.04,-0.039,-0.039,-0.037000000000000005,-0.036000000000000004,-0.034,-0.033,-0.031,-0.03,-0.028999999999999998,-0.027999999999999997,-0.027000000000000003,-0.027000000000000003,-0.025,-0.024,-0.023,-0.023,-0.022000000000000002,-0.022000000000000002,-0.022000000000000002,-0.022000000000000002,-0.021,-0.021,-0.02,-0.019,-0.018000000000000002,-0.018000000000000002,-0.019,-0.02,-0.021,-0.022000000000000002,-0.022000000000000002,-0.023,-0.024,-0.026000000000000002,-0.027999999999999997,-0.031,-0.033,-0.035,-0.04,-0.045,-0.054000000000000006,-0.063,-0.07,-0.076,-0.07400000000000001,-0.071,-0.055,-0.039,-0.005,0.028999999999999998,0.077,0.126,0.187,0.248,0.316,0.38299999999999995,0.445,0.506,0.5489999999999999,0.5920000000000001,0.607,0.621,0.607,0.5920000000000001,0.56,0.527,0.489,0.451,0.41600000000000004,0.381,0.349,0.317,0.281,0.24600000000000002,0.21100000000000002,0.175,0.141,0.10800000000000001,0.08,0.052000000000000005,0.033,0.013999999999999999,0.002,-0.009000000000000001,-0.015,-0.022000000000000002,-0.026000000000000002,-0.031,-0.034,-0.038,-0.039,-0.040999999999999995,-0.040999999999999995,-0.042,-0.042,-0.042,-0.042,-0.042,-0.042,-0.042,-0.042,-0.042,-0.042,-0.042,-0.042,-0.042,-0.042,-0.042,-0.042,-0.042,-0.042,-0.042,-0.040999999999999995,-0.040999999999999995,-0.04,-0.04,-0.04,-0.04,-0.04,-0.04,-0.04,-0.04,-0.039,-0.039,-0.038,-0.037000000000000005,-0.037000000000000005,-0.037000000000000005,-0.036000000000000004,-0.036000000000000004,-0.035,-0.034,-0.033,-0.033,-0.033,-0.033,-0.032,-0.032,-0.03,-0.028999999999999998,-0.027000000000000003,-0.026000000000000002,-0.025,-0.025,-0.025,-0.026000000000000002,-0.025,-0.025,-0.023,-0.022000000000000002,-0.02,-0.018000000000000002,-0.016,-0.013999999999999999,-0.012,-0.01,-0.008,-0.006999999999999999,-0.004,-0.002,0.0,0.003,0.005,0.008,0.01,0.012,0.013000000000000001,0.015,0.016,0.018000000000000002,0.019,0.02,0.021,0.023,0.026000000000000002,0.03,0.034,0.039,0.043,0.047,0.052000000000000005,0.055999999999999994,0.06,0.063,0.066,0.068,0.071,0.073,0.07400000000000001,0.075,0.076,0.077,0.078,0.078,0.077,0.076,0.075,0.073,0.07,0.067,0.062,0.057,0.051,0.045,0.039,0.032,0.026000000000000002,0.02,0.016,0.013000000000000001,0.011000000000000001,0.009000000000000001,0.006,0.003,-0.0,-0.004,-0.006999999999999999,-0.011000000000000001,-0.013000000000000001,-0.016,-0.018000000000000002,-0.02,-0.021,-0.022000000000000002,-0.022000000000000002,-0.022000000000000002,-0.022000000000000002,-0.023,-0.024,-0.026000000000000002,-0.027999999999999997,-0.03,-0.03,-0.031,-0.032,-0.033,-0.033,-0.033,-0.031,-0.03,-0.028999999999999998,-0.028999999999999998,-0.028999999999999998,-0.03,-0.03,-0.03,-0.03,-0.031,-0.032,-0.033,-0.033,-0.033,-0.031,-0.03,-0.03,-0.03,-0.031,-0.033,-0.033,-0.034,-0.033,-0.033,-0.033,-0.033,-0.033,-0.033,-0.033,-0.033,-0.033,-0.033,-0.033,-0.033,-0.033,-0.033,-0.032,-0.032,-0.031,-0.03,-0.028999999999999998,-0.028999999999999998,-0.03,-0.031,-0.032,-0.033,-0.033,-0.034,-0.033,-0.033,-0.033,-0.033,-0.032,-0.032,-0.03,-0.028999999999999998,-0.027000000000000003,-0.026000000000000002,-0.026000000000000002,-0.026000000000000002,-0.027000000000000003,-0.028999999999999998,-0.028999999999999998,-0.03,-0.03,-0.03,-0.03,-0.03,-0.028999999999999998,-0.028999999999999998,-0.027999999999999997,-0.027000000000000003,-0.026000000000000002,-0.025,-0.025,-0.025,-0.023,-0.022000000000000002,-0.02,-0.018000000000000002,-0.015,-0.013000000000000001,-0.009000000000000001,-0.005,-0.0,0.004,0.008,0.012,0.013000000000000001,0.013999999999999999,0.012,0.01,0.005,0.001,-0.004,-0.01,N
7,0.008,-0.002,-0.012,-0.018000000000000002,-0.024,-0.027999999999999997,-0.032,-0.034,-0.037000000000000005,-0.038,-0.04,-0.04,-0.040999999999999995,-0.040999999999999995,-0.040999999999999995,-0.042,-0.043,-0.044000000000000004,-0.045,-0.046,-0.047,-0.047,-0.047,-0.047,-0.046,-0.045,-0.043,-0.042,-0.040999999999999995,-0.04,-0.04,-0.04,-0.04,-0.04,-0.04,-0.04,-0.04,-0.04,-0.04,-0.04,-0.04,-0.04,-0.04,-0.04,-0.04,-0.04,-0.04,-0.04,-0.04,-0.039,-0.039,-0.038,-0.038,-0.038,-0.039,-0.038,-0.038,-0.037000000000000005,-0.036000000000000004,-0.034,-0.033,-0.031,-0.028999999999999998,-0.027000000000000003,-0.026000000000000002,-0.024,-0.023,-0.021,-0.02,-0.018000000000000002,-0.016,-0.013000000000000001,-0.011000000000000001,-0.008,-0.005,-0.002,0.0,0.002,0.004,0.006,0.008,0.009000000000000001,0.011000000000000001,0.011000000000000001,0.012,0.013000000000000001,0.015,0.017,0.019,0.021,0.024,0.027000000000000003,0.03,0.034,0.038,0.040999999999999995,0.045,0.048,0.052000000000000005,0.055,0.057999999999999996,0.061,0.063,0.066,0.069,0.073,0.076,0.078,0.08,0.08,0.08,0.079,0.078,0.076,0.07400000000000001,0.071,0.067,0.063,0.059000000000000004,0.055,0.051,0.046,0.040999999999999995,0.034,0.027999999999999997,0.023,0.019,0.015,0.012,0.006999999999999999,0.002,-0.002,-0.006,-0.009000000000000001,-0.013000000000000001,-0.016,-0.019,-0.02,-0.022000000000000002,-0.023,-0.024,-0.025,-0.026000000000000002,-0.026000000000000002,-0.026000000000000002,-0.026000000000000002,-0.026000000000000002,-0.026000000000000002,-0.027000000000000003,-0.027999999999999997,-0.028999999999999998,-0.03,-0.031,-0.032,-0.033,-0.033,-0.034,-0.033,-0.033,-0.033,-0.033,-0.033,-0.033,-0.033,-0.033,-0.033,-0.033,-0.033,-0.033,-0.033,-0.033,-0.033,-0.033,-0.033,-0.033,-0.033,-0.033,-0.033,-0.033,-0.033,-0.033,-0.033,-0.033,-0.033,-0.033,-0.033,-0.033,-0.033,-0.033,-0.033,-0.033,-0.033,-0.033,-0.033,-0.034,-0.035,-0.036000000000000004,-0.036000000000000004,-0.036000000000000004,-0.035,-0.034,-0.033,-0.032,-0.031,-0.03,-0.028999999999999998,-0.028999999999999998,-0.03,-0.031,-0.032,-0.033,-0.033,-0.034,-0.033,-0.033,-0.033,-0.033,-0.033,-0.033,-0.032,-0.032,-0.031,-0.03,-0.028999999999999998,-0.027999999999999997,-0.027000000000000003,-0.027000000000000003,-0.026000000000000002,-0.025,-0.025,-0.026000000000000002,-0.025,-0.025,-0.024,-0.023,-0.022000000000000002,-0.021,-0.02,-0.019,-0.018000000000000002,-0.017,-0.016,-0.015,-0.012,-0.009000000000000001,-0.006,-0.003,0.001,0.005,0.006999999999999999,0.01,0.01,0.01,0.008,0.006,0.001,-0.003,-0.008,-0.013000000000000001,-0.018000000000000002,-0.024,-0.027000000000000003,-0.031,-0.032,-0.034,-0.035,-0.037000000000000005,-0.037000000000000005,-0.037000000000000005,-0.037000000000000005,-0.037000000000000005,-0.037000000000000005,-0.038,-0.038,-0.039,-0.039,-0.039,-0.039,-0.04,-0.04,-0.040999999999999995,-0.04,-0.04,-0.04,-0.04,-0.04,-0.04,-0.04,-0.04,-0.04,-0.04,-0.04,-0.04,-0.04,-0.04,-0.039,-0.039,-0.037000000000000005,-0.036000000000000004,-0.034,-0.033,-0.031,-0.03,-0.028999999999999998,-0.027999999999999997,-0.027000000000000003,-0.027000000000000003,-0.025,-0.024,-0.023,-0.023,-0.022000000000000002,-0.022000000000000002,-0.022000000000000002,-0.022000000000000002,-0.021,-0.021,-0.02,-0.019,-0.018000000000000002,-0.018000000000000002,-0.019,-0.02,-0.021,-0.022000000000000002,-0.022000000000000002,-0.023,-0.024,-0.026000000000000002,-0.027999999999999997,-0.031,-0.033,-0.035,-0.04,-0.045,-0.054000000000000006,-0.063,-0.07,-0.076,-0.07400000000000001,-0.071,-0.055,-0.039,-0.005,0.028999999999999998,0.077,0.126,0.187,0.248,0.316,0.38299999999999995,0.445,0.506,0.5489999999999999,0.5920000000000001,0.607,0.621,0.607,0.5920000000000001,0.56,0.527,0.489,0.451,0.41600000000000004,0.381,0.349,0.317,0.281,0.24600000000000002,0.21100000000000002,0.175,0.141,0.10800000000000001,0.08,0.052000000000000005,0.033,0.013999999999999999,0.002,-0.009000000000000001,-0.015,-0.022000000000000002,-0.026000000000000002,-0.031,-0.034,-0.038,-0.039,-0.040999999999999995,-0.040999999999999995,-0.042,-0.042,-0.042,-0.042,-0.042,-0.042,-0.042,-0.042,-0.042,-0.042,-0.042,-0.042,-0.042,-0.042,-0.042,-0.042,-0.042,-0.042,-0.042,-0.040999999999999995,-0.040999999999999995,-0.04,-0.04,-0.04,-0.04,-0.04,-0.04,-0.04,-0.04,-0.039,-0.039,-0.038,-0.037000000000000005,-0.037000000000000005,-0.037000000000000005,-0.036000000000000004,-0.036000000000000004,-0.035,-0.034,-0.033,-0.033,-0.033,-0.033,-0.032,-0.032,-0.03,-0.028999999999999998,-0.027000000000000003,-0.026000000000000002,-0.025,-0.025,-0.025,-0.026000000000000002,-0.025,-0.025,-0.023,-0.022000000000000002,-0.02,-0.018000000000000002,-0.016,-0.013999999999999999,-0.012,-0.01,-0.008,-0.006999999999999999,-0.004,-0.002,0.0,0.003,0.005,0.008,0.01,0.012,0.013000000000000001,0.015,0.016,0.018000000000000002,0.019,0.02,0.021,0.023,0.026000000000000002,0.03,0.034,0.039,0.043,0.047,0.052000000000000005,0.055999999999999994,0.06,0.063,0.066,0.068,0.071,0.073,0.07400000000000001,0.075,0.076,0.077,0.078,0.078,0.077,0.076,0.075,0.073,0.07,0.067,0.062,0.057,0.051,0.045,0.039,0.032,0.026000000000000002,0.02,0.016,0.013000000000000001,0.011000000000000001,0.009000000000000001,0.006,0.003,-0.0,-0.004,-0.006999999999999999,-0.011000000000000001,-0.013000000000000001,-0.016,-0.018000000000000002,-0.02,-0.021,-0.022000000000000002,-0.022000000000000002,-0.022000000000000002,-0.022000000000000002,-0.023,-0.024,-0.026000000000000002,-0.027999999999999997,-0.03,-0.03,-0.031,-0.032,-0.033,-0.033,-0.033,-0.031,-0.03,-0.028999999999999998,-0.028999999999999998,-0.028999999999999998,-0.03,-0.03,-0.03,-0.03,-0.031,-0.032,-0.033,-0.033,-0.033,-0.031,-0.03,-0.03,-0.03,-0.031,-0.033,-0.033,-0.034,-0.033,-0.033,-0.033,-0.033,-0.033,-0.033,-0.033,-0.033,-0.033,-0.033,-0.033,-0.033,-0.033,-0.033,-0.032,-0.032,-0.031,-0.03,-0.028999999999999998,-0.028999999999999998,-0.03,-0.031,-0.032,-0.033,-0.033,-0.034,-0.033,-0.033,-0.033,-0.033,-0.032,-0.032,-0.03,-0.028999999999999998,-0.027000000000000003,-0.026000000000000002,-0.026000000000000002,-0.026000000000000002,-0.027000000000000003,-0.028999999999999998,-0.028999999999999998,-0.03,-0.03,-0.03,-0.03,-0.03,-0.028999999999999998,-0.028999999999999998,-0.027999999999999997,-0.027000000000000003,-0.026000000000000002,-0.025,-0.025,-0.025,-0.023,-0.022000000000000002,-0.02,-0.018000000000000002,-0.015,-0.013000000000000001,-0.009000000000000001,-0.005,-0.0,0.004,0.008,0.012,0.013000000000000001,0.013999999999999999,0.012,0.01,0.005,0.001,-0.004,-0.01,-0.015,-0.02,-0.024,-0.027999999999999997,-0.03,-0.033,-0.034,-0.035,-0.035,-0.036000000000000004,-0.036000000000000004,-0.037000000000000005,-0.037000000000000005,-0.037000000000000005,-0.037000000000000005,-0.037000000000000005,-0.037000000000000005,-0.037000000000000005,-0.037000000000000005,-0.038,-0.039,-0.04,-0.04,-0.040999999999999995,-0.04,-0.04,-0.04,-0.04,-0.04,-0.040999999999999995,-0.042,-0.043,-0.043,-0.044000000000000004,-0.044000000000000004,-0.044000000000000004,-0.042,-0.04,-0.038,-0.036000000000000004,-0.034,-0.032,-0.031,-0.03,-0.028999999999999998,-0.027999999999999997,-0.027000000000000003,-0.027000000000000003,-0.025,-0.024,-0.023,-0.023,-0.022000000000000002,-0.021,-0.02,-0.019,-0.018000000000000002,-0.018000000000000002,-0.018000000000000002,-0.019,-0.019,-0.019,-0.019,-0.02,-0.02,-0.021,-0.02,-0.02,-0.02,-0.021,-0.022000000000000002,-0.024,-0.027000000000000003,-0.031,-0.035,-0.04,-0.046,-0.053,-0.06,-0.066,-0.067,-0.068,-0.055999999999999994,-0.044000000000000004,-0.013999999999999999,0.016,0.061,0.106,0.163,0.221,0.28800000000000003,0.355,0.423,0.49200000000000005,0.547,0.603,0.633,0.662,0.659,0.657,0.628,0.599,0.5589999999999999,0.518,0.478,0.43700000000000006,0.4,0.36200000000000004,0.324,0.28600000000000003,0.249,0.212,0.17600000000000002,0.14,0.109,0.078,0.054000000000000006,0.031,0.015,0.0,-0.009000000000000001,-0.019,-0.025,-0.032,-0.037000000000000005,-0.043,-0.045,-0.048,-0.05,-0.052000000000000005,-0.054000000000000006,-0.055,-0.057,-0.057999999999999996,-0.057999999999999996,-0.057999999999999996,-0.057999999999999996,-0.057,-0.055999999999999994,-0.055,-0.055,-0.054000000000000006,-0.055,-0.055,-0.055999999999999994,-0.057,-0.055999999999999994,-0.055,-0.055,-0.054000000000000006,-0.054000000000000006,-0.053,-0.052000000000000005,-0.051,-0.051,-0.05,-0.05,-0.05,-0.051,-0.052000000000000005,-0.053,-0.053,-0.052000000000000005,-0.051,-0.05,-0.049,-0.048,-0.047,-0.047,-0.046,-0.045,-0.044000000000000004,-0.044000000000000004,-0.044000000000000004,-0.044000000000000004,-0.044000000000000004,-0.043,-0.043,-0.042,-0.040999999999999995,-0.04,-0.039,-0.037000000000000005,-0.036000000000000004,-0.034,-0.033,-0.031,-0.028999999999999998,-0.027000000000000003,-0.025,-0.023,-0.021,-0.019,-0.018000000000000002,-0.016,-0.013999999999999999,-0.012,-0.01,-0.008,-0.006,-0.003,0.0,0.002,0.004,0.006,0.008,0.01,0.012,0.013000000000000001,0.015,0.017,0.019,0.021,0.023,0.025,0.027000000000000003,0.031,0.035,0.04,0.045,0.048,0.052000000000000005,0.055,0.057999999999999996,0.06,0.062,0.064,0.065,0.067,0.068,0.069,0.069,0.068,0.067,0.065,0.063,0.059000000000000004,0.055,0.05,0.045,0.040999999999999995,0.036000000000000004,0.03,0.025,0.02,0.016,0.012,0.009000000000000001,0.006999999999999999,0.005,0.001,-0.002,-0.005,-0.009000000000000001,-0.013000000000000001,-0.017,-0.02,-0.023,-0.024,-0.026000000000000002,-0.026000000000000002,-0.027000000000000003,-0.026000000000000002,-0.026000000000000002,-0.026000000000000002,-0.026000000000000002,-0.026000000000000002,-0.026000000000000002,-0.026000000000000002,-0.027000000000000003,-0.027999999999999997,-0.028999999999999998,-0.028999999999999998,-0.03,-0.03,-0.03,-0.03,-0.03,-0.028999999999999998,-0.028999999999999998,-0.027999999999999997,-0.027000000000000003,-0.026000000000000002,-0.025,-0.025,-0.026000000000000002,-0.026000000000000002,-0.026000000000000002,-0.026000000000000002,-0.026000000000000002,-0.026000000000000002,-0.026000000000000002,-0.026000000000000002,-0.026000000000000002,-0.025,-0.025,-0.024,-0.023,-0.022000000000000002,-0.022000000000000002,-0.022000000000000002,-0.023,-0.024,-0.025,-0.026000000000000002,-0.027999999999999997,-0.027999999999999997,-0.028999999999999998,-0.028999999999999998,-0.03,-0.03,-0.03,-0.03,-0.031,-0.032,-0.033,-0.033,-0.034,-0.033,-0.033,-0.033,-0.033,-0.033,-0.033,-0.033,-0.033,-0.033,-0.033,-0.033,-0.034,-0.035,-0.036000000000000004,-0.036000000000000004,-0.037000000000000005,-0.037000000000000005,-0.037000000000000005,-0.036000000000000004,-0.036000000000000004,-0.035,-0.034,-0.033,-0.033,-0.033,-0.033,-0.033,-0.033,-0.033,-0.033,-0.033,-0.033,-0.033,-0.033,-0.032,-0.032,-0.031,-0.03,-0.028999999999999998,-0.027999999999999997,-0.027000000000000003,-0.026000000000000002,-0.023,-0.021,-0.019,-0.017,-0.013000000000000001,-0.009000000000000001,-0.004,0.001,0.004,0.006999999999999999,0.006999999999999999,N
8,0.013999999999999999,0.002,-0.009000000000000001,-0.015,-0.022000000000000002,-0.026000000000000002,-0.031,-0.034,-0.038,-0.039,-0.040999999999999995,-0.040999999999999995,-0.042,-0.042,-0.042,-0.042,-0.042,-0.042,-0.042,-0.042,-0.042,-0.042,-0.042,-0.042,-0.042,-0.042,-0.042,-0.042,-0.042,-0.042,-0.042,-0.040999999999999995,-0.040999999999999995,-0.04,-0.04,-0.04,-0.04,-0.04,-0.04,-0.04,-0.04,-0.039,-0.039,-0.038,-0.037000000000000005,-0.037000000000000005,-0.037000000000000005,-0.036000000000000004,-0.036000000000000004,-0.035,-0.034,-0.033,-0.033,-0.033,-0.033,-0.032,-0.032,-0.03,-0.028999999999999998,-0.027000000000000003,-0.026000000000000002,-0.025,-0.025,-0.025,-0.026000000000000002,-0.025,-0.025,-0.023,-0.022000000000000002,-0.02,-0.018000000000000002,-0.016,-0.013999999999999999,-0.012,-0.01,-0.008,-0.006999999999999999,-0.004,-0.002,0.0,0.003,0.005,0.008,0.01,0.012,0.013000000000000001,0.015,0.016,0.018000000000000002,0.019,0.02,0.021,0.023,0.026000000000000002,0.03,0.034,0.039,0.043,0.047,0.052000000000000005,0.055999999999999994,0.06,0.063,0.066,0.068,0.071,0.073,0.07400000000000001,0.075,0.076,0.077,0.078,0.078,0.077,0.076,0.075,0.073,0.07,0.067,0.062,0.057,0.051,0.045,0.039,0.032,0.026000000000000002,0.02,0.016,0.013000000000000001,0.011000000000000001,0.009000000000000001,0.006,0.003,-0.0,-0.004,-0.006999999999999999,-0.011000000000000001,-0.013000000000000001,-0.016,-0.018000000000000002,-0.02,-0.021,-0.022000000000000002,-0.022000000000000002,-0.022000000000000002,-0.022000000000000002,-0.023,-0.024,-0.026000000000000002,-0.027999999999999997,-0.03,-0.03,-0.031,-0.032,-0.033,-0.033,-0.033,-0.031,-0.03,-0.028999999999999998,-0.028999999999999998,-0.028999999999999998,-0.03,-0.03,-0.03,-0.03,-0.031,-0.032,-0.033,-0.033,-0.033,-0.031,-0.03,-0.03,-0.03,-0.031,-0.033,-0.033,-0.034,-0.033,-0.033,-0.033,-0.033,-0.033,-0.033,-0.033,-0.033,-0.033,-0.033,-0.033,-0.033,-0.033,-0.033,-0.032,-0.032,-0.031,-0.03,-0.028999999999999998,-0.028999999999999998,-0.03,-0.031,-0.032,-0.033,-0.033,-0.034,-0.033,-0.033,-0.033,-0.033,-0.032,-0.032,-0.03,-0.028999999999999998,-0.027000000000000003,-0.026000000000000002,-0.026000000000000002,-0.026000000000000002,-0.027000000000000003,-0.028999999999999998,-0.028999999999999998,-0.03,-0.03,-0.03,-0.03,-0.03,-0.028999999999999998,-0.028999999999999998,-0.027999999999999997,-0.027000000000000003,-0.026000000000000002,-0.025,-0.025,-0.025,-0.023,-0.022000000000000002,-0.02,-0.018000000000000002,-0.015,-0.013000000000000001,-0.009000000000000001,-0.005,-0.0,0.004,0.008,0.012,0.013000000000000001,0.013999999999999999,0.012,0.01,0.005,0.001,-0.004,-0.01,-0.015,-0.02,-0.024,-0.027999999999999997,-0.03,-0.033,-0.034,-0.035,-0.035,-0.036000000000000004,-0.036000000000000004,-0.037000000000000005,-0.037000000000000005,-0.037000000000000005,-0.037000000000000005,-0.037000000000000005,-0.037000000000000005,-0.037000000000000005,-0.037000000000000005,-0.038,-0.039,-0.04,-0.04,-0.040999999999999995,-0.04,-0.04,-0.04,-0.04,-0.04,-0.040999999999999995,-0.042,-0.043,-0.043,-0.044000000000000004,-0.044000000000000004,-0.044000000000000004,-0.042,-0.04,-0.038,-0.036000000000000004,-0.034,-0.032,-0.031,-0.03,-0.028999999999999998,-0.027999999999999997,-0.027000000000000003,-0.027000000000000003,-0.025,-0.024,-0.023,-0.023,-0.022000000000000002,-0.021,-0.02,-0.019,-0.018000000000000002,-0.018000000000000002,-0.018000000000000002,-0.019,-0.019,-0.019,-0.019,-0.02,-0.02,-0.021,-0.02,-0.02,-0.02,-0.021,-0.022000000000000002,-0.024,-0.027000000000000003,-0.031,-0.035,-0.04,-0.046,-0.053,-0.06,-0.066,-0.067,-0.068,-0.055999999999999994,-0.044000000000000004,-0.013999999999999999,0.016,0.061,0.106,0.163,0.221,0.28800000000000003,0.355,0.423,0.49200000000000005,0.547,0.603,0.633,0.662,0.659,0.657,0.628,0.599,0.5589999999999999,0.518,0.478,0.43700000000000006,0.4,0.36200000000000004,0.324,0.28600000000000003,0.249,0.212,0.17600000000000002,0.14,0.109,0.078,0.054000000000000006,0.031,0.015,0.0,-0.009000000000000001,-0.019,-0.025,-0.032,-0.037000000000000005,-0.043,-0.045,-0.048,-0.05,-0.052000000000000005,-0.054000000000000006,-0.055,-0.057,-0.057999999999999996,-0.057999999999999996,-0.057999999999999996,-0.057999999999999996,-0.057,-0.055999999999999994,-0.055,-0.055,-0.054000000000000006,-0.055,-0.055,-0.055999999999999994,-0.057,-0.055999999999999994,-0.055,-0.055,-0.054000000000000006,-0.054000000000000006,-0.053,-0.052000000000000005,-0.051,-0.051,-0.05,-0.05,-0.05,-0.051,-0.052000000000000005,-0.053,-0.053,-0.052000000000000005,-0.051,-0.05,-0.049,-0.048,-0.047,-0.047,-0.046,-0.045,-0.044000000000000004,-0.044000000000000004,-0.044000000000000004,-0.044000000000000004,-0.044000000000000004,-0.043,-0.043,-0.042,-0.040999999999999995,-0.04,-0.039,-0.037000000000000005,-0.036000000000000004,-0.034,-0.033,-0.031,-0.028999999999999998,-0.027000000000000003,-0.025,-0.023,-0.021,-0.019,-0.018000000000000002,-0.016,-0.013999999999999999,-0.012,-0.01,-0.008,-0.006,-0.003,0.0,0.002,0.004,0.006,0.008,0.01,0.012,0.013000000000000001,0.015,0.017,0.019,0.021,0.023,0.025,0.027000000000000003,0.031,0.035,0.04,0.045,0.048,0.052000000000000005,0.055,0.057999999999999996,0.06,0.062,0.064,0.065,0.067,0.068,0.069,0.069,0.068,0.067,0.065,0.063,0.059000000000000004,0.055,0.05,0.045,0.040999999999999995,0.036000000000000004,0.03,0.025,0.02,0.016,0.012,0.009000000000000001,0.006999999999999999,0.005,0.001,-0.002,-0.005,-0.009000000000000001,-0.013000000000000001,-0.017,-0.02,-0.023,-0.024,-0.026000000000000002,-0.026000000000000002,-0.027000000000000003,-0.026000000000000002,-0.026000000000000002,-0.026000000000000002,-0.026000000000000002,-0.026000000000000002,-0.026000000000000002,-0.026000000000000002,-0.027000000000000003,-0.027999999999999997,-0.028999999999999998,-0.028999999999999998,-0.03,-0.03,-0.03,-0.03,-0.03,-0.028999999999999998,-0.028999999999999998,-0.027999999999999997,-0.027000000000000003,-0.026000000000000002,-0.025,-0.025,-0.026000000000000002,-0.026000000000000002,-0.026000000000000002,-0.026000000000000002,-0.026000000000000002,-0.026000000000000002,-0.026000000000000002,-0.026000000000000002,-0.026000000000000002,-0.025,-0.025,-0.024,-0.023,-0.022000000000000002,-0.022000000000000002,-0.022000000000000002,-0.023,-0.024,-0.025,-0.026000000000000002,-0.027999999999999997,-0.027999999999999997,-0.028999999999999998,-0.028999999999999998,-0.03,-0.03,-0.03,-0.03,-0.031,-0.032,-0.033,-0.033,-0.034,-0.033,-0.033,-0.033,-0.033,-0.033,-0.033,-0.033,-0.033,-0.033,-0.033,-0.033,-0.034,-0.035,-0.036000000000000004,-0.036000000000000004,-0.037000000000000005,-0.037000000000000005,-0.037000000000000005,-0.036000000000000004,-0.036000000000000004,-0.035,-0.034,-0.033,-0.033,-0.033,-0.033,-0.033,-0.033,-0.033,-0.033,-0.033,-0.033,-0.033,-0.033,-0.032,-0.032,-0.031,-0.03,-0.028999999999999998,-0.027999999999999997,-0.027000000000000003,-0.026000000000000002,-0.023,-0.021,-0.019,-0.017,-0.013000000000000001,-0.009000000000000001,-0.004,0.001,0.004,0.006999999999999999,0.006999999999999999,0.006999999999999999,0.004,0.002,-0.002,-0.006,-0.011000000000000001,-0.017,-0.022000000000000002,-0.027000000000000003,-0.028999999999999998,-0.032,-0.034,-0.036000000000000004,-0.037000000000000005,-0.038,-0.039,-0.04,-0.04,-0.040999999999999995,-0.04,-0.04,-0.04,-0.04,-0.04,-0.040999999999999995,-0.042,-0.044000000000000004,-0.045,-0.047,-0.047,-0.047,-0.047,-0.047,-0.047,-0.047,-0.048,-0.048,-0.049,-0.05,-0.05,-0.05,-0.049,-0.047,-0.045,-0.044000000000000004,-0.040999999999999995,-0.039,-0.038,-0.037000000000000005,-0.036000000000000004,-0.036000000000000004,-0.034,-0.033,-0.031,-0.028999999999999998,-0.027000000000000003,-0.025,-0.023,-0.022000000000000002,-0.021,-0.021,-0.02,-0.019,-0.018000000000000002,-0.017,-0.016,-0.016,-0.015,-0.013999999999999999,-0.013000000000000001,-0.012,-0.013000000000000001,-0.013999999999999999,-0.015,-0.016,-0.018000000000000002,-0.02,-0.023,-0.026000000000000002,-0.03,-0.034,-0.039,-0.045,-0.049,-0.054000000000000006,-0.051,-0.047,-0.03,-0.012,0.022000000000000002,0.055999999999999994,0.106,0.155,0.22,0.284,0.359,0.433,0.506,0.579,0.633,0.6859999999999999,0.7070000000000001,0.727,0.713,0.6990000000000001,0.6609999999999999,0.622,0.574,0.526,0.48100000000000004,0.435,0.396,0.35600000000000004,0.317,0.278,0.237,0.19699999999999998,0.16,0.12300000000000001,0.092,0.062,0.039,0.016,0.0,-0.016,-0.024,-0.033,-0.037000000000000005,-0.040999999999999995,-0.044000000000000004,-0.047,-0.05,-0.053,-0.055999999999999994,-0.057999999999999996,-0.061,-0.063,-0.064,-0.065,-0.065,-0.065,-0.066,-0.066,-0.067,-0.068,-0.069,-0.069,-0.069,-0.069,-0.069,-0.069,-0.069,-0.069,-0.069,-0.069,-0.069,-0.069,-0.069,-0.069,-0.069,-0.069,-0.069,-0.068,-0.067,-0.065,-0.064,-0.062,-0.062,-0.061,-0.061,-0.061,-0.06,-0.059000000000000004,-0.059000000000000004,-0.057999999999999996,-0.057,-0.055999999999999994,-0.055,-0.054000000000000006,-0.053,-0.051,-0.05,-0.049,-0.048,-0.047,-0.047,-0.046,-0.045,-0.044000000000000004,-0.044000000000000004,-0.044000000000000004,-0.043,-0.043,-0.040999999999999995,-0.04,-0.038,-0.037000000000000005,-0.036000000000000004,-0.035,-0.034,-0.034,-0.033,-0.032,-0.03,-0.028999999999999998,-0.027000000000000003,-0.025,-0.022000000000000002,-0.02,-0.017,-0.013999999999999999,-0.01,-0.006,-0.002,0.001,0.004,0.008,0.01,0.012,0.013000000000000001,0.015,0.017,0.02,0.023,0.027000000000000003,0.03,0.034,0.038,0.042,0.045,0.048,0.051,0.053,0.054000000000000006,0.054000000000000006,0.054000000000000006,0.054000000000000006,0.053,0.052000000000000005,0.05,0.047,0.044000000000000004,0.040999999999999995,0.038,0.035,0.031,0.027000000000000003,0.023,0.02,0.016,0.013000000000000001,0.009000000000000001,0.006,0.002,-0.002,-0.005,-0.008,-0.01,-0.013000000000000001,-0.013999999999999999,-0.016,-0.017,-0.019,-0.021,-0.023,-0.024,-0.026000000000000002,-0.027000000000000003,-0.027999999999999997,-0.027999999999999997,-0.028999999999999998,-0.028999999999999998,-0.03,-0.03,-0.03,-0.028999999999999998,-0.028999999999999998,-0.027000000000000003,-0.026000000000000002,-0.024,-0.022000000000000002,-0.022000000000000002,-0.023,-0.024,-0.025,-0.026000000000000002,-0.027999999999999997,-0.027999999999999997,-0.027999999999999997,-0.027000000000000003,-0.027000000000000003,-0.025,-0.024,-0.023,-0.023,-0.022000000000000002,-0.022000000000000002,-0.022000000000000002,-0.022000000000000002,-0.022000000000000002,-0.023,-0.023,-0.024,-0.024,-0.024,-0.023,-0.022000000000000002,-0.022000000000000002,-0.022000000000000002,-0.022000000000000002,-0.023,-0.024,-0.025,-0.026000000000000002,-0.027999999999999997,-0.027999999999999997,-0.028999999999999998,-0.028999999999999998,-0.03,-0.03,-0.03,-0.028999999999999998,-0.028999999999999998,-0.027999999999999997,-0.027000000000000003,-0.026000000000000002,-0.025,-0.026000000000000002,-0.027000000000000003,-0.027000000000000003,-0.027999999999999997,-0.027999999999999997,-0.027999999999999997,-0.027999999999999997,-0.027999999999999997,-0.027000000000000003,-0.027000000000000003,-0.026000000000000002,-0.025,-0.025,-0.026000000000000002,-0.026000000000000002,-0.026000000000000002,-0.026000000000000002,-0.026000000000000002,-0.026000000000000002,-0.026000000000000002,-0.026000000000000002,-0.026000000000000002,-0.026000000000000002,-0.026000000000000002,-0.025,-0.025,-0.024,-0.023,-0.022000000000000002,-0.021,-0.02,-0.019,-0.018000000000000002,-0.018000000000000002,-0.018000000000000002,-0.019,-0.018000000000000002,-0.018000000000000002,-0.016,-0.013999999999999999,-0.01,-0.006,-0.002,0.001,0.004,0.008,0.009000000000000001,0.011000000000000001,0.01,N
9,0.015,0.0,-0.009000000000000001,-0.019,-0.025,-0.032,-0.037000000000000005,-0.043,-0.045,-0.048,-0.05,-0.052000000000000005,-0.054000000000000006,-0.055,-0.057,-0.057999999999999996,-0.057999999999999996,-0.057999999999999996,-0.057999999999999996,-0.057,-0.055999999999999994,-0.055,-0.055,-0.054000000000000006,-0.055,-0.055,-0.055999999999999994,-0.057,-0.055999999999999994,-0.055,-0.055,-0.054000000000000006,-0.054000000000000006,-0.053,-0.052000000000000005,-0.051,-0.051,-0.05,-0.05,-0.05,-0.051,-0.052000000000000005,-0.053,-0.053,-0.052000000000000005,-0.051,-0.05,-0.049,-0.048,-0.047,-0.047,-0.046,-0.045,-0.044000000000000004,-0.044000000000000004,-0.044000000000000004,-0.044000000000000004,-0.044000000000000004,-0.043,-0.043,-0.042,-0.040999999999999995,-0.04,-0.039,-0.037000000000000005,-0.036000000000000004,-0.034,-0.033,-0.031,-0.028999999999999998,-0.027000000000000003,-0.025,-0.023,-0.021,-0.019,-0.018000000000000002,-0.016,-0.013999999999999999,-0.012,-0.01,-0.008,-0.006,-0.003,0.0,0.002,0.004,0.006,0.008,0.01,0.012,0.013000000000000001,0.015,0.017,0.019,0.021,0.023,0.025,0.027000000000000003,0.031,0.035,0.04,0.045,0.048,0.052000000000000005,0.055,0.057999999999999996,0.06,0.062,0.064,0.065,0.067,0.068,0.069,0.069,0.068,0.067,0.065,0.063,0.059000000000000004,0.055,0.05,0.045,0.040999999999999995,0.036000000000000004,0.03,0.025,0.02,0.016,0.012,0.009000000000000001,0.006999999999999999,0.005,0.001,-0.002,-0.005,-0.009000000000000001,-0.013000000000000001,-0.017,-0.02,-0.023,-0.024,-0.026000000000000002,-0.026000000000000002,-0.027000000000000003,-0.026000000000000002,-0.026000000000000002,-0.026000000000000002,-0.026000000000000002,-0.026000000000000002,-0.026000000000000002,-0.026000000000000002,-0.027000000000000003,-0.027999999999999997,-0.028999999999999998,-0.028999999999999998,-0.03,-0.03,-0.03,-0.03,-0.03,-0.028999999999999998,-0.028999999999999998,-0.027999999999999997,-0.027000000000000003,-0.026000000000000002,-0.025,-0.025,-0.026000000000000002,-0.026000000000000002,-0.026000000000000002,-0.026000000000000002,-0.026000000000000002,-0.026000000000000002,-0.026000000000000002,-0.026000000000000002,-0.026000000000000002,-0.025,-0.025,-0.024,-0.023,-0.022000000000000002,-0.022000000000000002,-0.022000000000000002,-0.023,-0.024,-0.025,-0.026000000000000002,-0.027999999999999997,-0.027999999999999997,-0.028999999999999998,-0.028999999999999998,-0.03,-0.03,-0.03,-0.03,-0.031,-0.032,-0.033,-0.033,-0.034,-0.033,-0.033,-0.033,-0.033,-0.033,-0.033,-0.033,-0.033,-0.033,-0.033,-0.033,-0.034,-0.035,-0.036000000000000004,-0.036000000000000004,-0.037000000000000005,-0.037000000000000005,-0.037000000000000005,-0.036000000000000004,-0.036000000000000004,-0.035,-0.034,-0.033,-0.033,-0.033,-0.033,-0.033,-0.033,-0.033,-0.033,-0.033,-0.033,-0.033,-0.033,-0.032,-0.032,-0.031,-0.03,-0.028999999999999998,-0.027999999999999997,-0.027000000000000003,-0.026000000000000002,-0.023,-0.021,-0.019,-0.017,-0.013000000000000001,-0.009000000000000001,-0.004,0.001,0.004,0.006999999999999999,0.006999999999999999,0.006999999999999999,0.004,0.002,-0.002,-0.006,-0.011000000000000001,-0.017,-0.022000000000000002,-0.027000000000000003,-0.028999999999999998,-0.032,-0.034,-0.036000000000000004,-0.037000000000000005,-0.038,-0.039,-0.04,-0.04,-0.040999999999999995,-0.04,-0.04,-0.04,-0.04,-0.04,-0.040999999999999995,-0.042,-0.044000000000000004,-0.045,-0.047,-0.047,-0.047,-0.047,-0.047,-0.047,-0.047,-0.048,-0.048,-0.049,-0.05,-0.05,-0.05,-0.049,-0.047,-0.045,-0.044000000000000004,-0.040999999999999995,-0.039,-0.038,-0.037000000000000005,-0.036000000000000004,-0.036000000000000004,-0.034,-0.033,-0.031,-0.028999999999999998,-0.027000000000000003,-0.025,-0.023,-0.022000000000000002,-0.021,-0.021,-0.02,-0.019,-0.018000000000000002,-0.017,-0.016,-0.016,-0.015,-0.013999999999999999,-0.013000000000000001,-0.012,-0.013000000000000001,-0.013999999999999999,-0.015,-0.016,-0.018000000000000002,-0.02,-0.023,-0.026000000000000002,-0.03,-0.034,-0.039,-0.045,-0.049,-0.054000000000000006,-0.051,-0.047,-0.03,-0.012,0.022000000000000002,0.055999999999999994,0.106,0.155,0.22,0.284,0.359,0.433,0.506,0.579,0.633,0.6859999999999999,0.7070000000000001,0.727,0.713,0.6990000000000001,0.6609999999999999,0.622,0.574,0.526,0.48100000000000004,0.435,0.396,0.35600000000000004,0.317,0.278,0.237,0.19699999999999998,0.16,0.12300000000000001,0.092,0.062,0.039,0.016,0.0,-0.016,-0.024,-0.033,-0.037000000000000005,-0.040999999999999995,-0.044000000000000004,-0.047,-0.05,-0.053,-0.055999999999999994,-0.057999999999999996,-0.061,-0.063,-0.064,-0.065,-0.065,-0.065,-0.066,-0.066,-0.067,-0.068,-0.069,-0.069,-0.069,-0.069,-0.069,-0.069,-0.069,-0.069,-0.069,-0.069,-0.069,-0.069,-0.069,-0.069,-0.069,-0.069,-0.069,-0.068,-0.067,-0.065,-0.064,-0.062,-0.062,-0.061,-0.061,-0.061,-0.06,-0.059000000000000004,-0.059000000000000004,-0.057999999999999996,-0.057,-0.055999999999999994,-0.055,-0.054000000000000006,-0.053,-0.051,-0.05,-0.049,-0.048,-0.047,-0.047,-0.046,-0.045,-0.044000000000000004,-0.044000000000000004,-0.044000000000000004,-0.043,-0.043,-0.040999999999999995,-0.04,-0.038,-0.037000000000000005,-0.036000000000000004,-0.035,-0.034,-0.034,-0.033,-0.032,-0.03,-0.028999999999999998,-0.027000000000000003,-0.025,-0.022000000000000002,-0.02,-0.017,-0.013999999999999999,-0.01,-0.006,-0.002,0.001,0.004,0.008,0.01,0.012,0.013000000000000001,0.015,0.017,0.02,0.023,0.027000000000000003,0.03,0.034,0.038,0.042,0.045,0.048,0.051,0.053,0.054000000000000006,0.054000000000000006,0.054000000000000006,0.054000000000000006,0.053,0.052000000000000005,0.05,0.047,0.044000000000000004,0.040999999999999995,0.038,0.035,0.031,0.027000000000000003,0.023,0.02,0.016,0.013000000000000001,0.009000000000000001,0.006,0.002,-0.002,-0.005,-0.008,-0.01,-0.013000000000000001,-0.013999999999999999,-0.016,-0.017,-0.019,-0.021,-0.023,-0.024,-0.026000000000000002,-0.027000000000000003,-0.027999999999999997,-0.027999999999999997,-0.028999999999999998,-0.028999999999999998,-0.03,-0.03,-0.03,-0.028999999999999998,-0.028999999999999998,-0.027000000000000003,-0.026000000000000002,-0.024,-0.022000000000000002,-0.022000000000000002,-0.023,-0.024,-0.025,-0.026000000000000002,-0.027999999999999997,-0.027999999999999997,-0.027999999999999997,-0.027000000000000003,-0.027000000000000003,-0.025,-0.024,-0.023,-0.023,-0.022000000000000002,-0.022000000000000002,-0.022000000000000002,-0.022000000000000002,-0.022000000000000002,-0.023,-0.023,-0.024,-0.024,-0.024,-0.023,-0.022000000000000002,-0.022000000000000002,-0.022000000000000002,-0.022000000000000002,-0.023,-0.024,-0.025,-0.026000000000000002,-0.027999999999999997,-0.027999999999999997,-0.028999999999999998,-0.028999999999999998,-0.03,-0.03,-0.03,-0.028999999999999998,-0.028999999999999998,-0.027999999999999997,-0.027000000000000003,-0.026000000000000002,-0.025,-0.026000000000000002,-0.027000000000000003,-0.027000000000000003,-0.027999999999999997,-0.027999999999999997,-0.027999999999999997,-0.027999999999999997,-0.027999999999999997,-0.027000000000000003,-0.027000000000000003,-0.026000000000000002,-0.025,-0.025,-0.026000000000000002,-0.026000000000000002,-0.026000000000000002,-0.026000000000000002,-0.026000000000000002,-0.026000000000000002,-0.026000000000000002,-0.026000000000000002,-0.026000000000000002,-0.026000000000000002,-0.026000000000000002,-0.025,-0.025,-0.024,-0.023,-0.022000000000000002,-0.021,-0.02,-0.019,-0.018000000000000002,-0.018000000000000002,-0.018000000000000002,-0.019,-0.018000000000000002,-0.018000000000000002,-0.016,-0.013999999999999999,-0.01,-0.006,-0.002,0.001,0.004,0.008,0.009000000000000001,0.011000000000000001,0.01,0.01,0.008,0.006,0.002,-0.002,-0.005,-0.008,-0.011000000000000001,-0.013999999999999999,-0.016,-0.018000000000000002,-0.018000000000000002,-0.019,-0.019,-0.019,-0.019,-0.02,-0.021,-0.022000000000000002,-0.022000000000000002,-0.022000000000000002,-0.022000000000000002,-0.022000000000000002,-0.022000000000000002,-0.023,-0.024,-0.025,-0.026000000000000002,-0.027000000000000003,-0.026000000000000002,-0.026000000000000002,-0.026000000000000002,-0.027000000000000003,-0.027999999999999997,-0.028999999999999998,-0.03,-0.031,-0.032,-0.033,-0.033,-0.034,-0.033,-0.032,-0.03,-0.028999999999999998,-0.027000000000000003,-0.025,-0.023,-0.021,-0.02,-0.019,-0.018000000000000002,-0.018000000000000002,-0.018000000000000002,-0.018000000000000002,-0.017,-0.016,-0.015,-0.013999999999999999,-0.012,-0.011000000000000001,-0.011000000000000001,-0.011000000000000001,-0.01,-0.01,-0.009000000000000001,-0.008,-0.006999999999999999,-0.006999999999999999,-0.006999999999999999,-0.006999999999999999,-0.006999999999999999,-0.008,-0.008,-0.008,-0.008,-0.008,-0.01,-0.012,-0.017,-0.022000000000000002,-0.028999999999999998,-0.036000000000000004,-0.043,-0.05,-0.055,-0.059000000000000004,-0.053,-0.046,-0.023,0.0,0.040999999999999995,0.081,0.136,0.19,0.254,0.318,0.387,0.456,0.517,0.578,0.616,0.654,0.6609999999999999,0.6679999999999999,0.645,0.623,0.586,0.5479999999999999,0.506,0.465,0.426,0.387,0.35100000000000003,0.316,0.27899999999999997,0.242,0.205,0.16699999999999998,0.134,0.10099999999999999,0.07400000000000001,0.047,0.028999999999999998,0.011000000000000001,-0.0,-0.012,-0.019,-0.026000000000000002,-0.03,-0.034,-0.036000000000000004,-0.039,-0.040999999999999995,-0.043,-0.044000000000000004,-0.045,-0.046,-0.047,-0.047,-0.047,-0.047,-0.047,-0.047,-0.047,-0.048,-0.048,-0.049,-0.05,-0.051,-0.051,-0.051,-0.05,-0.049,-0.047,-0.047,-0.046,-0.045,-0.044000000000000004,-0.044000000000000004,-0.044000000000000004,-0.044000000000000004,-0.044000000000000004,-0.043,-0.043,-0.042,-0.040999999999999995,-0.04,-0.04,-0.04,-0.04,-0.04,-0.04,-0.04,-0.04,-0.04,-0.04,-0.039,-0.039,-0.037000000000000005,-0.036000000000000004,-0.035,-0.034,-0.033,-0.032,-0.031,-0.03,-0.028999999999999998,-0.027999999999999997,-0.027000000000000003,-0.026000000000000002,-0.023,-0.021,-0.019,-0.018000000000000002,-0.016,-0.015,-0.013000000000000001,-0.012,-0.01,-0.008,-0.005,-0.002,0.001,0.004,0.006,0.008,0.01,0.012,0.013000000000000001,0.015,0.017,0.019,0.021,0.023,0.025,0.027000000000000003,0.03,0.034,0.038,0.042,0.045,0.048,0.052000000000000005,0.055,0.059000000000000004,0.062,0.066,0.069,0.071,0.073,0.075,0.076,0.078,0.079,0.079,0.078,0.077,0.075,0.07200000000000001,0.069,0.065,0.06,0.055999999999999994,0.051,0.045,0.04,0.034,0.027999999999999997,0.023,0.019,0.016,0.013999999999999999,0.012,0.01,0.006999999999999999,0.005,0.001,-0.002,-0.005,-0.008,-0.01,-0.013000000000000001,-0.013999999999999999,-0.015,-0.015,-0.016,-0.017,-0.018000000000000002,-0.019,-0.02,-0.021,-0.022000000000000002,-0.022000000000000002,-0.022000000000000002,-0.022000000000000002,-0.022000000000000002,-0.022000000000000002,-0.022000000000000002,-0.022000000000000002,-0.022000000000000002,-0.022000000000000002,-0.022000000000000002,-0.022000000000000002,-0.022000000000000002,-0.022000000000000002,-0.022000000000000002,-0.022000000000000002,-0.022000000000000002,-0.022000000000000002,-0.023,-0.024,-0.025,-0.026000000000000002,-0.027000000000000003,-0.026000000000000002,-0.026000000000000002,-0.026000000000000002,-0.026000000000000002,-0.025,-0.025,-0.024,-0.023,-0.023,-0.023,-0.024,-0.025,-0.026000000000000002,-0.027000000000000003,-0.026000000000000002,-0.026000000000000002,-0.026000000000000002,-0.027000000000000003,-0.027999999999999997,-0.028999999999999998,-0.028999999999999998,-0.03,-0.03,-0.03,-0.03,-0.03,-0.03,-0.03,-0.03,-0.03,-0.03,-0.03,-0.03,-0.03,-0.03,-0.03,-0.03,-0.03,-0.028999999999999998,-0.028999999999999998,-0.027999999999999997,-0.027000000000000003,-0.026000000000000002,-0.026000000000000002,-0.027000000000000003,-0.028999999999999998,-0.028999999999999998,-0.03,-0.03,-0.03,-0.028999999999999998,-0.028999999999999998,-0.027999999999999997,-0.027000000000000003,-0.026000000000000002,-0.025,-0.025,-0.026000000000000002,-0.026000000000000002,-0.026000000000000002,-0.026000000000000002,-0.026000000000000002,-0.026000000000000002,-0.026000000000000002,-0.025,-0.025,-0.023,-0.022000000000000002,-0.019,-0.017,-0.013000000000000001,-0.01,-0.006,-0.002,0.001,0.005,N
