'Time and date','III ','ABP ','PLETH ','RESP '
'hh:mm:ss.mmm dd/mm/yyyy','mV','mmHg','mV','mV'
'[01:29:37.000 22/10/1994]',-0.029,77.950,0.443,-0.464
'[01:29:37.002 22/10/1994]',-0.032,77.950,0.443,-0.464
'[01:29:37.004 22/10/1994]',-0.034,77.950,0.443,-0.464
'[01:29:37.006 22/10/1994]',-0.036,77.950,0.443,-0.464
'[01:29:37.008 22/10/1994]',-0.037,75.550,0.380,-0.467
'[01:29:37.010 22/10/1994]',-0.038,75.550,0.380,-0.467
'[01:29:37.012 22/10/1994]',-0.039,75.550,0.380,-0.467
'[01:29:37.014 22/10/1994]',-0.040,75.550,0.380,-0.467
'[01:29:37.016 22/10/1994]',-0.041,73.500,0.317,-0.469
'[01:29:37.018 22/10/1994]',-0.041,73.500,0.317,-0.469
'[01:29:37.020 22/10/1994]',-0.041,73.500,0.317,-0.469
'[01:29:37.022 22/10/1994]',-0.040,73.500,0.317,-0.469
'[01:29:37.024 22/10/1994]',-0.041,72.000,0.245,-0.471
'[01:29:37.026 22/10/1994]',-0.041,72.000,0.245,-0.471
'[01:29:37.028 22/10/1994]',-0.043,72.000,0.245,-0.471
'[01:29:37.030 22/10/1994]',-0.044,72.000,0.245,-0.471
'[01:29:37.032 22/10/1994]',-0.046,70.950,0.173,-0.472
'[01:29:37.034 22/10/1994]',-0.049,70.950,0.173,-0.472
'[01:29:37.036 22/10/1994]',-0.051,70.950,0.173,-0.472
'[01:29:37.038 22/10/1994]',-0.052,70.950,0.173,-0.472
'[01:29:37.040 22/10/1994]',-0.054,70.350,0.103,-0.473
'[01:29:37.042 22/10/1994]',-0.056,70.350,0.103,-0.473
'[01:29:37.044 22/10/1994]',-0.058,70.350,0.103,-0.473
'[01:29:37.046 22/10/1994]',-0.060,70.350,0.103,-0.473
'[01:29:37.048 22/10/1994]',-0.061,70.200,0.042,-0.474
'[01:29:37.050 22/10/1994]',-0.062,70.200,0.042,-0.474
'[01:29:37.052 22/10/1994]',-0.062,70.200,0.042,-0.474
'[01:29:37.054 22/10/1994]',-0.063,70.200,0.042,-0.474
'[01:29:37.056 22/10/1994]',-0.063,70.600,-0.029,-0.474
'[01:29:37.058 22/10/1994]',-0.063,70.600,-0.029,-0.474
'[01:29:37.060 22/10/1994]',-0.062,70.600,-0.029,-0.474
'[01:29:37.062 22/10/1994]',-0.061,70.600,-0.029,-0.474
'[01:29:37.064 22/10/1994]',-0.058,71.250,-0.090,-0.474
'[01:29:37.066 22/10/1994]',-0.055,71.250,-0.090,-0.474
'[01:29:37.068 22/10/1994]',-0.049,71.250,-0.090,-0.474
'[01:29:37.070 22/10/1994]',-0.043,71.250,-0.090,-0.474
'[01:29:37.072 22/10/1994]',-0.035,72.300,-0.161,-0.473
'[01:29:37.074 22/10/1994]',-0.028,72.300,-0.161,-0.473
'[01:29:37.076 22/10/1994]',-0.019,72.300,-0.161,-0.473
'[01:29:37.078 22/10/1994]',-0.010,72.300,-0.161,-0.473
'[01:29:37.080 22/10/1994]',0.002,73.350,-0.214,-0.471
'[01:29:37.082 22/10/1994]',0.013,73.350,-0.214,-0.471
'[01:29:37.084 22/10/1994]',0.029,73.350,-0.214,-0.471
'[01:29:37.086 22/10/1994]',0.044,73.350,-0.214,-0.471
'[01:29:37.088 22/10/1994]',0.070,74.700,-0.272,-0.469
'[01:29:37.090 22/10/1994]',0.095,74.700,-0.272,-0.469
'[01:29:37.092 22/10/1994]',0.138,74.700,-0.272,-0.469
'[01:29:37.094 22/10/1994]',0.181,74.700,-0.272,-0.469
'[01:29:37.096 22/10/1994]',0.243,76.050,-0.318,-0.465
'[01:29:37.098 22/10/1994]',0.306,76.050,-0.318,-0.465
'[01:29:37.100 22/10/1994]',0.378,76.050,-0.318,-0.465
'[01:29:37.102 22/10/1994]',0.450,76.050,-0.318,-0.465
'[01:29:37.104 22/10/1994]',0.509,77.250,-0.358,-0.461
'[01:29:37.106 22/10/1994]',0.569,77.250,-0.358,-0.461
'[01:29:37.108 22/10/1994]',0.594,77.250,-0.358,-0.461
'[01:29:37.110 22/10/1994]',0.619,77.250,-0.358,-0.461
'[01:29:37.112 22/10/1994]',0.601,78.250,-0.392,-0.456
'[01:29:37.114 22/10/1994]',0.582,78.250,-0.392,-0.456
'[01:29:37.116 22/10/1994]',0.528,78.250,-0.392,-0.456
'[01:29:37.118 22/10/1994]',0.475,78.250,-0.392,-0.456
'[01:29:37.120 22/10/1994]',0.406,78.900,-0.416,-0.451
'[01:29:37.122 22/10/1994]',0.338,78.900,-0.416,-0.451
'[01:29:37.124 22/10/1994]',0.274,78.900,-0.416,-0.451
'[01:29:37.126 22/10/1994]',0.209,78.900,-0.416,-0.451
'[01:29:37.128 22/10/1994]',0.156,79.300,-0.433,-0.445
'[01:29:37.130 22/10/1994]',0.103,79.300,-0.433,-0.445
'[01:29:37.132 22/10/1994]',0.064,79.300,-0.433,-0.445
'[01:29:37.134 22/10/1994]',0.025,79.300,-0.433,-0.445
'[01:29:37.136 22/10/1994]',-0.001,79.300,-0.433,-0.439
'[01:29:37.138 22/10/1994]',-0.026,79.300,-0.433,-0.439
'[01:29:37.140 22/10/1994]',-0.042,79.300,-0.433,-0.439
'[01:29:37.142 22/10/1994]',-0.058,79.300,-0.433,-0.439
'[01:29:37.144 22/10/1994]',-0.068,79.000,-0.429,-0.433
'[01:29:37.146 22/10/1994]',-0.078,79.000,-0.429,-0.433
'[01:29:37.148 22/10/1994]',-0.084,79.000,-0.429,-0.433
'[01:29:37.150 22/10/1994]',-0.089,79.000,-0.429,-0.433
'[01:29:37.152 22/10/1994]',-0.091,78.550,-0.420,-0.428
'[01:29:37.154 22/10/1994]',-0.094,78.550,-0.420,-0.428
'[01:29:37.156 22/10/1994]',-0.095,78.550,-0.420,-0.428
'[01:29:37.158 22/10/1994]',-0.095,78.550,-0.420,-0.428
'[01:29:37.160 22/10/1994]',-0.096,78.000,-0.400,-0.422
'[01:29:37.162 22/10/1994]',-0.097,78.000,-0.400,-0.422
'[01:29:37.164 22/10/1994]',-0.099,78.000,-0.400,-0.422
'[01:29:37.166 22/10/1994]',-0.100,78.000,-0.400,-0.422
'[01:29:37.168 22/10/1994]',-0.102,77.400,-0.375,-0.417
'[01:29:37.170 22/10/1994]',-0.103,77.400,-0.375,-0.417
'[01:29:37.172 22/10/1994]',-0.105,77.400,-0.375,-0.417
'[01:29:37.174 22/10/1994]',-0.107,77.400,-0.375,-0.417
'[01:29:37.176 22/10/1994]',-0.108,76.750,-0.346,-0.412
'[01:29:37.178 22/10/1994]',-0.110,76.750,-0.346,-0.412
'[01:29:37.180 22/10/1994]',-0.110,76.750,-0.346,-0.412
'[01:29:37.182 22/10/1994]',-0.110,76.750,-0.346,-0.412
'[01:29:37.184 22/10/1994]',-0.107,76.000,-0.322,-0.407
'[01:29:37.186 22/10/1994]',-0.105,76.000,-0.322,-0.407
'[01:29:37.188 22/10/1994]',-0.102,76.000,-0.322,-0.407
'[01:29:37.190 22/10/1994]',-0.098,76.000,-0.322,-0.407
'[01:29:37.192 22/10/1994]',-0.095,75.150,-0.292,-0.403
'[01:29:37.194 22/10/1994]',-0.091,75.150,-0.292,-0.403
'[01:29:37.196 22/10/1994]',-0.089,75.150,-0.292,-0.403
'[01:29:37.198 22/10/1994]',-0.087,75.150,-0.292,-0.403
'[01:29:37.200 22/10/1994]',-0.086,74.350,-0.268,-0.399
'[01:29:37.202 22/10/1994]',-0.084,74.350,-0.268,-0.399
'[01:29:37.204 22/10/1994]',-0.082,74.350,-0.268,-0.399
'[01:29:37.206 22/10/1994]',-0.080,74.350,-0.268,-0.399
'[01:29:37.208 22/10/1994]',-0.078,73.600,-0.243,-0.395
'[01:29:37.210 22/10/1994]',-0.076,73.600,-0.243,-0.395
'[01:29:37.212 22/10/1994]',-0.074,73.600,-0.243,-0.395
'[01:29:37.214 22/10/1994]',-0.072,73.600,-0.243,-0.395
'[01:29:37.216 22/10/1994]',-0.070,72.850,-0.231,-0.391
'[01:29:37.218 22/10/1994]',-0.069,72.850,-0.231,-0.391
'[01:29:37.220 22/10/1994]',-0.067,72.850,-0.231,-0.391
'[01:29:37.222 22/10/1994]',-0.065,72.850,-0.231,-0.391
'[01:29:37.224 22/10/1994]',-0.064,72.000,-0.218,-0.388
'[01:29:37.226 22/10/1994]',-0.063,72.000,-0.218,-0.388
'[01:29:37.228 22/10/1994]',-0.062,72.000,-0.218,-0.388
'[01:29:37.230 22/10/1994]',-0.062,72.000,-0.218,-0.388
'[01:29:37.232 22/10/1994]',-0.062,71.350,-0.218,-0.386
'[01:29:37.234 22/10/1994]',-0.063,71.350,-0.218,-0.386
'[01:29:37.236 22/10/1994]',-0.063,71.350,-0.218,-0.386
'[01:29:37.238 22/10/1994]',-0.063,71.350,-0.218,-0.386
'[01:29:37.240 22/10/1994]',-0.062,70.900,-0.218,-0.383
'[01:29:37.242 22/10/1994]',-0.062,70.900,-0.218,-0.383
'[01:29:37.244 22/10/1994]',-0.060,70.900,-0.218,-0.383
'[01:29:37.246 22/10/1994]',-0.059,70.900,-0.218,-0.383
'[01:29:37.248 22/10/1994]',-0.057,70.650,-0.223,-0.381
'[01:29:37.250 22/10/1994]',-0.054,70.650,-0.223,-0.381
'[01:29:37.252 22/10/1994]',-0.052,70.650,-0.223,-0.381
'[01:29:37.254 22/10/1994]',-0.051,70.650,-0.223,-0.381
'[01:29:37.256 22/10/1994]',-0.049,70.900,-0.239,-0.380
'[01:29:37.258 22/10/1994]',-0.046,70.900,-0.239,-0.380
'[01:29:37.260 22/10/1994]',-0.043,70.900,-0.239,-0.380
'[01:29:37.262 22/10/1994]',-0.039,70.900,-0.239,-0.380
'[01:29:37.264 22/10/1994]',-0.035,71.950,-0.252,-0.379
'[01:29:37.266 22/10/1994]',-0.031,71.950,-0.252,-0.379
'[01:29:37.268 22/10/1994]',-0.025,71.950,-0.252,-0.379
'[01:29:37.270 22/10/1994]',-0.020,71.950,-0.252,-0.379
'[01:29:37.272 22/10/1994]',-0.013,74.400,-0.268,-0.378
'[01:29:37.274 22/10/1994]',-0.007,74.400,-0.268,-0.378
'[01:29:37.276 22/10/1994]',0.001,74.400,-0.268,-0.378
'[01:29:37.278 22/10/1994]',0.008,74.400,-0.268,-0.378
'[01:29:37.280 22/10/1994]',0.013,79.000,-0.292,-0.378
'[01:29:37.282 22/10/1994]',0.019,79.000,-0.292,-0.378
'[01:29:37.284 22/10/1994]',0.025,79.000,-0.292,-0.378
'[01:29:37.286 22/10/1994]',0.031,79.000,-0.292,-0.378
'[01:29:37.288 22/10/1994]',0.037,85.850,-0.309,-0.378
'[01:29:37.290 22/10/1994]',0.044,85.850,-0.309,-0.378
'[01:29:37.292 22/10/1994]',0.051,85.850,-0.309,-0.378
'[01:29:37.294 22/10/1994]',0.059,85.850,-0.309,-0.378
'[01:29:37.296 22/10/1994]',0.068,94.500,-0.330,-0.378
'[01:29:37.298 22/10/1994]',0.076,94.500,-0.330,-0.378
'[01:29:37.300 22/10/1994]',0.084,94.500,-0.330,-0.378
'[01:29:37.302 22/10/1994]',0.092,94.500,-0.330,-0.378
'[01:29:37.304 22/10/1994]',0.100,103.350,-0.342,-0.379
'[01:29:37.306 22/10/1994]',0.108,103.350,-0.342,-0.379
'[01:29:37.308 22/10/1994]',0.114,103.350,-0.342,-0.379
'[01:29:37.310 22/10/1994]',0.120,103.350,-0.342,-0.379
'[01:29:37.312 22/10/1994]',0.124,111.050,-0.346,-0.379
'[01:29:37.314 22/10/1994]',0.128,111.050,-0.346,-0.379
'[01:29:37.316 22/10/1994]',0.131,111.050,-0.346,-0.379
'[01:29:37.318 22/10/1994]',0.133,111.050,-0.346,-0.379
'[01:29:37.320 22/10/1994]',0.134,116.450,-0.342,-0.380
'[01:29:37.322 22/10/1994]',0.135,116.450,-0.342,-0.380
'[01:29:37.324 22/10/1994]',0.135,116.450,-0.342,-0.380
'[01:29:37.326 22/10/1994]',0.135,116.450,-0.342,-0.380
'[01:29:37.328 22/10/1994]',0.135,119.400,-0.326,-0.380
'[01:29:37.330 22/10/1994]',0.134,119.400,-0.326,-0.380
'[01:29:37.332 22/10/1994]',0.132,119.400,-0.326,-0.380
'[01:29:37.334 22/10/1994]',0.130,119.400,-0.326,-0.380
'[01:29:37.336 22/10/1994]',0.127,120.300,-0.288,-0.381
'[01:29:37.338 22/10/1994]',0.123,120.300,-0.288,-0.381
'[01:29:37.340 22/10/1994]',0.118,120.300,-0.288,-0.381
'[01:29:37.342 22/10/1994]',0.114,120.300,-0.288,-0.381
'[01:29:37.344 22/10/1994]',0.109,119.700,-0.239,-0.382
'[01:29:37.346 22/10/1994]',0.104,119.700,-0.239,-0.382
'[01:29:37.348 22/10/1994]',0.099,119.700,-0.239,-0.382
'[01:29:37.350 22/10/1994]',0.093,119.700,-0.239,-0.382
'[01:29:37.352 22/10/1994]',0.089,118.050,-0.165,-0.383
'[01:29:37.354 22/10/1994]',0.085,118.050,-0.165,-0.383
'[01:29:37.356 22/10/1994]',0.080,118.050,-0.165,-0.383
'[01:29:37.358 22/10/1994]',0.074,118.050,-0.165,-0.383
'[01:29:37.360 22/10/1994]',0.068,115.550,-0.078,-0.384
'[01:29:37.362 22/10/1994]',0.062,115.550,-0.078,-0.384
'[01:29:37.364 22/10/1994]',0.056,115.550,-0.078,-0.384
'[01:29:37.366 22/10/1994]',0.049,115.550,-0.078,-0.384
'[01:29:37.368 22/10/1994]',0.043,112.700,0.021,-0.385
'[01:29:37.370 22/10/1994]',0.036,112.700,0.021,-0.385
'[01:29:37.372 22/10/1994]',0.030,112.700,0.021,-0.385
'[01:29:37.374 22/10/1994]',0.024,112.700,0.021,-0.385
'[01:29:37.376 22/10/1994]',0.020,109.700,0.128,-0.385
'[01:29:37.378 22/10/1994]',0.016,109.700,0.128,-0.385
'[01:29:37.380 22/10/1994]',0.013,109.700,0.128,-0.385
'[01:29:37.382 22/10/1994]',0.009,109.700,0.128,-0.385
'[01:29:37.384 22/10/1994]',0.005,106.700,0.239,-0.385
'[01:29:37.386 22/10/1994]',0.002,106.700,0.239,-0.385
'[01:29:37.388 22/10/1994]',-0.003,106.700,0.239,-0.385
'[01:29:37.390 22/10/1994]',-0.007,106.700,0.239,-0.385
'[01:29:37.392 22/10/1994]',-0.011,103.850,0.343,-0.386
'[01:29:37.394 22/10/1994]',-0.016,103.850,0.343,-0.386
'[01:29:37.396 22/10/1994]',-0.021,103.850,0.343,-0.386
'[01:29:37.398 22/10/1994]',-0.025,103.850,0.343,-0.386
'[01:29:37.400 22/10/1994]',-0.028,101.150,0.433,-0.387
'[01:29:37.402 22/10/1994]',-0.031,101.150,0.433,-0.387
'[01:29:37.404 22/10/1994]',-0.034,101.150,0.433,-0.387
'[01:29:37.406 22/10/1994]',-0.037,101.150,0.433,-0.387
'[01:29:37.408 22/10/1994]',-0.040,98.550,0.511,-0.388
'[01:29:37.410 22/10/1994]',-0.042,98.550,0.511,-0.388
'[01:29:37.412 22/10/1994]',-0.043,98.550,0.511,-0.388
'[01:29:37.414 22/10/1994]',-0.043,98.550,0.511,-0.388
'[01:29:37.416 22/10/1994]',-0.042,96.150,0.578,-0.389
'[01:29:37.418 22/10/1994]',-0.041,96.150,0.578,-0.389
'[01:29:37.420 22/10/1994]',-0.041,96.150,0.578,-0.389
'[01:29:37.422 22/10/1994]',-0.040,96.150,0.578,-0.389
'[01:29:37.424 22/10/1994]',-0.040,93.750,0.615,-0.390
'[01:29:37.426 22/10/1994]',-0.040,93.750,0.615,-0.390
'[01:29:37.428 22/10/1994]',-0.040,93.750,0.615,-0.390
'[01:29:37.430 22/10/1994]',-0.040,93.750,0.615,-0.390
'[01:29:37.432 22/10/1994]',-0.040,91.500,0.631,-0.392
'[01:29:37.434 22/10/1994]',-0.040,91.500,0.631,-0.392
'[01:29:37.436 22/10/1994]',-0.040,91.500,0.631,-0.392
'[01:29:37.438 22/10/1994]',-0.040,91.500,0.631,-0.392
'[01:29:37.440 22/10/1994]',-0.040,89.150,0.623,-0.393
'[01:29:37.442 22/10/1994]',-0.040,89.150,0.623,-0.393
'[01:29:37.444 22/10/1994]',-0.040,89.150,0.623,-0.393
'[01:29:37.446 22/10/1994]',-0.039,89.150,0.623,-0.393
'[01:29:37.448 22/10/1994]',-0.037,86.750,0.607,-0.396
'[01:29:37.450 22/10/1994]',-0.036,86.750,0.607,-0.396
'[01:29:37.452 22/10/1994]',-0.035,86.750,0.607,-0.396
'[01:29:37.454 22/10/1994]',-0.033,86.750,0.607,-0.396
'[01:29:37.456 22/10/1994]',-0.031,84.150,0.574,-0.399
'[01:29:37.458 22/10/1994]',-0.029,84.150,0.574,-0.399
'[01:29:37.460 22/10/1994]',-0.028,84.150,0.574,-0.399
'[01:29:37.462 22/10/1994]',-0.026,84.150,0.574,-0.399
'[01:29:37.464 22/10/1994]',-0.025,81.350,0.524,-0.403
'[01:29:37.466 22/10/1994]',-0.025,81.350,0.524,-0.403
'[01:29:37.468 22/10/1994]',-0.026,81.350,0.524,-0.403
'[01:29:37.470 22/10/1994]',-0.027,81.350,0.524,-0.403
'[01:29:37.472 22/10/1994]',-0.029,78.600,0.470,-0.408
'[01:29:37.474 22/10/1994]',-0.030,78.600,0.470,-0.408
'[01:29:37.476 22/10/1994]',-0.032,78.600,0.470,-0.408
'[01:29:37.478 22/10/1994]',-0.033,78.600,0.470,-0.408
'[01:29:37.480 22/10/1994]',-0.034,76.050,0.408,-0.413
'[01:29:37.482 22/10/1994]',-0.034,76.050,0.408,-0.413
'[01:29:37.484 22/10/1994]',-0.034,76.050,0.408,-0.413
'[01:29:37.486 22/10/1994]',-0.034,76.050,0.408,-0.413
'[01:29:37.488 22/10/1994]',-0.035,73.950,0.343,-0.417
'[01:29:37.490 22/10/1994]',-0.036,73.950,0.343,-0.417
'[01:29:37.492 22/10/1994]',-0.036,73.950,0.343,-0.417
'[01:29:37.494 22/10/1994]',-0.037,73.950,0.343,-0.417
'[01:29:37.496 22/10/1994]',-0.037,72.300,0.273,-0.421
'[01:29:37.498 22/10/1994]',-0.037,72.300,0.273,-0.421
'[01:29:37.500 22/10/1994]',-0.037,72.300,0.273,-0.421
'[01:29:37.502 22/10/1994]',-0.037,72.300,0.273,-0.421
'[01:29:37.504 22/10/1994]',-0.037,71.200,0.203,-0.425
'[01:29:37.506 22/10/1994]',-0.037,71.200,0.203,-0.425
'[01:29:37.508 22/10/1994]',-0.038,71.200,0.203,-0.425
'[01:29:37.510 22/10/1994]',-0.039,71.200,0.203,-0.425
'[01:29:37.512 22/10/1994]',-0.042,70.500,0.128,-0.427
'[01:29:37.514 22/10/1994]',-0.045,70.500,0.128,-0.427
'[01:29:37.516 22/10/1994]',-0.049,70.500,0.128,-0.427
'[01:29:37.518 22/10/1994]',-0.053,70.500,0.128,-0.427
'[01:29:37.520 22/10/1994]',-0.056,70.350,0.062,-0.429
'[01:29:37.522 22/10/1994]',-0.059,70.350,0.062,-0.429
'[01:29:37.524 22/10/1994]',-0.059,70.350,0.062,-0.429
'[01:29:37.526 22/10/1994]',-0.060,70.350,0.062,-0.429
'[01:29:37.528 22/10/1994]',-0.059,70.650,-0.017,-0.430
'[01:29:37.530 22/10/1994]',-0.059,70.650,-0.017,-0.430
'[01:29:37.532 22/10/1994]',-0.058,70.650,-0.017,-0.430
'[01:29:37.534 22/10/1994]',-0.056,70.650,-0.017,-0.430
'[01:29:37.536 22/10/1994]',-0.053,71.250,-0.083,-0.430
'[01:29:37.538 22/10/1994]',-0.051,71.250,-0.083,-0.430
'[01:29:37.540 22/10/1994]',-0.046,71.250,-0.083,-0.430
'[01:29:37.542 22/10/1994]',-0.041,71.250,-0.083,-0.430
'[01:29:37.544 22/10/1994]',-0.035,72.300,-0.209,-0.429
'[01:29:37.546 22/10/1994]',-0.030,72.300,-0.209,-0.429
'[01:29:37.548 22/10/1994]',-0.021,72.300,-0.209,-0.429
'[01:29:37.550 22/10/1994]',-0.013,72.300,-0.209,-0.429
'[01:29:37.552 22/10/1994]',-0.001,73.450,-0.269,-0.427
'[01:29:37.554 22/10/1994]',0.012,73.450,-0.269,-0.427
'[01:29:37.556 22/10/1994]',0.029,73.450,-0.269,-0.427
'[01:29:37.558 22/10/1994]',0.047,73.450,-0.269,-0.427
'[01:29:37.560 22/10/1994]',0.074,74.700,-0.330,-0.425
'[01:29:37.562 22/10/1994]',0.102,74.700,-0.330,-0.425
'[01:29:37.564 22/10/1994]',0.146,74.700,-0.330,-0.425
'[01:29:37.566 22/10/1994]',0.191,74.700,-0.330,-0.425
'[01:29:37.568 22/10/1994]',0.256,76.050,-0.369,-0.423
'[01:29:37.570 22/10/1994]',0.320,76.050,-0.369,-0.423
'[01:29:37.572 22/10/1994]',0.395,76.050,-0.369,-0.423
'[01:29:37.574 22/10/1994]',0.469,76.050,-0.369,-0.423
'[01:29:37.576 22/10/1994]',0.531,77.200,-0.418,-0.420
'[01:29:37.578 22/10/1994]',0.593,77.200,-0.418,-0.420
'[01:29:37.580 22/10/1994]',0.620,77.200,-0.418,-0.420
'[01:29:37.582 22/10/1994]',0.646,77.200,-0.418,-0.420
'[01:29:37.584 22/10/1994]',0.627,78.150,-0.446,-0.418
'[01:29:37.586 22/10/1994]',0.608,78.150,-0.446,-0.418
'[01:29:37.588 22/10/1994]',0.551,78.150,-0.446,-0.418
'[01:29:37.590 22/10/1994]',0.495,78.150,-0.446,-0.418
'[01:29:37.592 22/10/1994]',0.422,78.750,-0.470,-0.415
'[01:29:37.594 22/10/1994]',0.350,78.750,-0.470,-0.415
'[01:29:37.596 22/10/1994]',0.282,78.750,-0.470,-0.415
'[01:29:37.598 22/10/1994]',0.215,78.750,-0.470,-0.415
'[01:29:37.600 22/10/1994]',0.162,79.150,-0.482,-0.412
'[01:29:37.602 22/10/1994]',0.109,79.150,-0.482,-0.412
'[01:29:37.604 22/10/1994]',0.071,79.150,-0.482,-0.412
'[01:29:37.606 22/10/1994]',0.033,79.150,-0.482,-0.412
'[01:29:37.608 22/10/1994]',0.007,79.200,-0.486,-0.409
'[01:29:37.610 22/10/1994]',-0.018,79.200,-0.486,-0.409
'[01:29:37.612 22/10/1994]',-0.035,79.200,-0.486,-0.409
'[01:29:37.614 22/10/1994]',-0.051,79.200,-0.486,-0.409
'[01:29:37.616 22/10/1994]',-0.061,79.000,-0.486,-0.406
'[01:29:37.618 22/10/1994]',-0.072,79.000,-0.486,-0.406
'[01:29:37.620 22/10/1994]',-0.079,79.000,-0.486,-0.406
'[01:29:37.622 22/10/1994]',-0.086,79.000,-0.486,-0.406
'[01:29:37.624 22/10/1994]',-0.090,78.750,-0.470,-0.404
'[01:29:37.626 22/10/1994]',-0.094,78.750,-0.470,-0.404
'[01:29:37.628 22/10/1994]',-0.097,78.750,-0.470,-0.404
'[01:29:37.630 22/10/1994]',-0.100,78.750,-0.470,-0.404
'[01:29:37.632 22/10/1994]',-0.102,78.300,-0.450,-0.402
'[01:29:37.634 22/10/1994]',-0.104,78.300,-0.450,-0.402
'[01:29:37.636 22/10/1994]',-0.105,78.300,-0.450,-0.402
'[01:29:37.638 22/10/1994]',-0.106,78.300,-0.450,-0.402
'[01:29:37.640 22/10/1994]',-0.106,77.800,-0.422,-0.399
'[01:29:37.642 22/10/1994]',-0.106,77.800,-0.422,-0.399
'[01:29:37.644 22/10/1994]',-0.106,77.800,-0.422,-0.399
'[01:29:37.646 22/10/1994]',-0.106,77.800,-0.422,-0.399
'[01:29:37.648 22/10/1994]',-0.106,77.100,-0.402,-0.397
'[01:29:37.650 22/10/1994]',-0.106,77.100,-0.402,-0.397
'[01:29:37.652 22/10/1994]',-0.106,77.100,-0.402,-0.397
'[01:29:37.654 22/10/1994]',-0.106,77.100,-0.402,-0.397
'[01:29:37.656 22/10/1994]',-0.105,76.350,-0.369,-0.394
'[01:29:37.658 22/10/1994]',-0.105,76.350,-0.369,-0.394
'[01:29:37.660 22/10/1994]',-0.103,76.350,-0.369,-0.394
'[01:29:37.662 22/10/1994]',-0.101,76.350,-0.369,-0.394
'[01:29:37.664 22/10/1994]',-0.098,75.550,-0.342,-0.392
'[01:29:37.666 22/10/1994]',-0.095,75.550,-0.342,-0.392
'[01:29:37.668 22/10/1994]',-0.092,75.550,-0.342,-0.392
'[01:29:37.670 22/10/1994]',-0.090,75.550,-0.342,-0.392
'[01:29:37.672 22/10/1994]',-0.088,74.650,-0.318,-0.389
'[01:29:37.674 22/10/1994]',-0.087,74.650,-0.318,-0.389
'[01:29:37.676 22/10/1994]',-0.086,74.650,-0.318,-0.389
'[01:29:37.678 22/10/1994]',-0.085,74.650,-0.318,-0.389
'[01:29:37.680 22/10/1994]',-0.084,73.800,-0.301,-0.386
'[01:29:37.682 22/10/1994]',-0.083,73.800,-0.301,-0.386
'[01:29:37.684 22/10/1994]',-0.082,73.800,-0.301,-0.386
'[01:29:37.686 22/10/1994]',-0.080,73.800,-0.301,-0.386
'[01:29:37.688 22/10/1994]',-0.079,73.000,-0.289,-0.383
'[01:29:37.690 22/10/1994]',-0.077,73.000,-0.289,-0.383
'[01:29:37.692 22/10/1994]',-0.074,73.000,-0.289,-0.383
'[01:29:37.694 22/10/1994]',-0.072,73.000,-0.289,-0.383
'[01:29:37.696 22/10/1994]',-0.070,72.150,-0.278,-0.380
'[01:29:37.698 22/10/1994]',-0.069,72.150,-0.278,-0.380
'[01:29:37.700 22/10/1994]',-0.067,72.150,-0.278,-0.380
'[01:29:37.702 22/10/1994]',-0.065,72.150,-0.278,-0.380
'[01:29:37.704 22/10/1994]',-0.064,71.500,-0.269,-0.377
'[01:29:37.706 22/10/1994]',-0.063,71.500,-0.269,-0.377
'[01:29:37.708 22/10/1994]',-0.062,71.500,-0.269,-0.377
'[01:29:37.710 22/10/1994]',-0.062,71.500,-0.269,-0.377
'[01:29:37.712 22/10/1994]',-0.062,70.950,-0.273,-0.375
'[01:29:37.714 22/10/1994]',-0.063,70.950,-0.273,-0.375
'[01:29:37.716 22/10/1994]',-0.062,70.950,-0.273,-0.375
'[01:29:37.718 22/10/1994]',-0.062,70.950,-0.273,-0.375
'[01:29:37.720 22/10/1994]',-0.060,70.750,-0.285,-0.373
'[01:29:37.722 22/10/1994]',-0.059,70.750,-0.285,-0.373
'[01:29:37.724 22/10/1994]',-0.056,70.750,-0.285,-0.373
'[01:29:37.726 22/10/1994]',-0.053,70.750,-0.285,-0.373
'[01:29:37.728 22/10/1994]',-0.050,71.350,-0.301,-0.372
'[01:29:37.730 22/10/1994]',-0.047,71.350,-0.301,-0.372
'[01:29:37.732 22/10/1994]',-0.043,71.350,-0.301,-0.372
'[01:29:37.734 22/10/1994]',-0.039,71.350,-0.301,-0.372
'[01:29:37.736 22/10/1994]',-0.035,73.150,-0.314,-0.372
'[01:29:37.738 22/10/1994]',-0.032,73.150,-0.314,-0.372
'[01:29:37.740 22/10/1994]',-0.028,73.150,-0.314,-0.372
'[01:29:37.742 22/10/1994]',-0.024,73.150,-0.314,-0.372
'[01:29:37.744 22/10/1994]',-0.018,77.050,-0.334,-0.371
'[01:29:37.746 22/10/1994]',-0.013,77.050,-0.334,-0.371
'[01:29:37.748 22/10/1994]',-0.006,77.050,-0.334,-0.371
'[01:29:37.750 22/10/1994]',0.000,77.050,-0.334,-0.371
'[01:29:37.752 22/10/1994]',0.006,83.300,-0.353,-0.371
'[01:29:37.754 22/10/1994]',0.013,83.300,-0.353,-0.371
'[01:29:37.756 22/10/1994]',0.019,83.300,-0.353,-0.371
'[01:29:37.758 22/10/1994]',0.026,83.300,-0.353,-0.371
'[01:29:37.760 22/10/1994]',0.032,91.850,-0.369,-0.371
'[01:29:37.762 22/10/1994]',0.038,91.850,-0.369,-0.371
'[01:29:37.764 22/10/1994]',0.044,91.850,-0.369,-0.371
'[01:29:37.766 22/10/1994]',0.051,91.850,-0.369,-0.371
'[01:29:37.768 22/10/1994]',0.058,101.450,-0.390,-0.371
'[01:29:37.770 22/10/1994]',0.065,101.450,-0.390,-0.371
'[01:29:37.772 22/10/1994]',0.072,101.450,-0.390,-0.371
'[01:29:37.774 22/10/1994]',0.080,101.450,-0.390,-0.371
'[01:29:37.776 22/10/1994]',0.087,110.150,-0.398,-0.373
'[01:29:37.778 22/10/1994]',0.094,110.150,-0.398,-0.373
'[01:29:37.780 22/10/1994]',0.101,110.150,-0.398,-0.373
'[01:29:37.782 22/10/1994]',0.108,110.150,-0.398,-0.373
'[01:29:37.784 22/10/1994]',0.114,116.750,-0.394,-0.376
'[01:29:37.786 22/10/1994]',0.120,116.750,-0.394,-0.376
'[01:29:37.788 22/10/1994]',0.124,116.750,-0.394,-0.376
'[01:29:37.790 22/10/1994]',0.128,116.750,-0.394,-0.376
'[01:29:37.792 22/10/1994]',0.131,120.750,-0.386,-0.379
'[01:29:37.794 22/10/1994]',0.133,120.750,-0.386,-0.379
'[01:29:37.796 22/10/1994]',0.134,120.750,-0.386,-0.379
'[01:29:37.798 22/10/1994]',0.135,120.750,-0.386,-0.379
'[01:29:37.800 22/10/1994]',0.135,122.250,-0.357,-0.382
'[01:29:37.802 22/10/1994]',0.134,122.250,-0.357,-0.382
'[01:29:37.804 22/10/1994]',0.133,122.250,-0.357,-0.382
'[01:29:37.806 22/10/1994]',0.131,122.250,-0.357,-0.382
'[01:29:37.808 22/10/1994]',0.129,121.950,-0.314,-0.385
'[01:29:37.810 22/10/1994]',0.126,121.950,-0.314,-0.385
'[01:29:37.812 22/10/1994]',0.122,121.950,-0.314,-0.385
'[01:29:37.814 22/10/1994]',0.118,121.950,-0.314,-0.385
'[01:29:37.816 22/10/1994]',0.113,120.500,-0.253,-0.388
'[01:29:37.818 22/10/1994]',0.107,120.500,-0.253,-0.388
'[01:29:37.820 22/10/1994]',0.102,120.500,-0.253,-0.388
'[01:29:37.822 22/10/1994]',0.097,120.500,-0.253,-0.388
'[01:29:37.824 22/10/1994]',0.092,118.400,-0.169,-0.390
'[01:29:37.826 22/10/1994]',0.088,118.400,-0.169,-0.390
'[01:29:37.828 22/10/1994]',0.083,118.400,-0.169,-0.390
'[01:29:37.830 22/10/1994]',0.077,118.400,-0.169,-0.390
'[01:29:37.832 22/10/1994]',0.070,115.950,-0.072,-0.392
'[01:29:37.834 22/10/1994]',0.064,115.950,-0.072,-0.392
'[01:29:37.836 22/10/1994]',0.058,115.950,-0.072,-0.392
'[01:29:37.838 22/10/1994]',0.051,115.950,-0.072,-0.392
'[01:29:37.840 22/10/1994]',0.046,113.000,0.036,-0.394
'[01:29:37.842 22/10/1994]',0.041,113.000,0.036,-0.394
'[01:29:37.844 22/10/1994]',0.035,113.000,0.036,-0.394
'[01:29:37.846 22/10/1994]',0.030,113.000,0.036,-0.394
'[01:29:37.848 22/10/1994]',0.025,110.150,0.148,-0.396
'[01:29:37.850 22/10/1994]',0.020,110.150,0.148,-0.396
'[01:29:37.852 22/10/1994]',0.016,110.150,0.148,-0.396
'[01:29:37.854 22/10/1994]',0.012,110.150,0.148,-0.396
'[01:29:37.856 22/10/1994]',0.008,107.400,0.257,-0.398
'[01:29:37.858 22/10/1994]',0.004,107.400,0.257,-0.398
'[01:29:37.860 22/10/1994]',-0.001,107.400,0.257,-0.398
'[01:29:37.862 22/10/1994]',-0.006,107.400,0.257,-0.398
'[01:29:37.864 22/10/1994]',-0.011,104.700,0.357,-0.399
'[01:29:37.866 22/10/1994]',-0.016,104.700,0.357,-0.399
'[01:29:37.868 22/10/1994]',-0.021,104.700,0.357,-0.399
'[01:29:37.870 22/10/1994]',-0.025,104.700,0.357,-0.399
'[01:29:37.872 22/10/1994]',-0.028,102.150,0.450,-0.401
'[01:29:37.874 22/10/1994]',-0.030,102.150,0.450,-0.401
'[01:29:37.876 22/10/1994]',-0.032,102.150,0.450,-0.401
'[01:29:37.878 22/10/1994]',-0.034,102.150,0.450,-0.401
'[01:29:37.880 22/10/1994]',-0.036,99.650,0.518,-0.402
'[01:29:37.882 22/10/1994]',-0.038,99.650,0.518,-0.402
'[01:29:37.884 22/10/1994]',-0.039,99.650,0.518,-0.402
'[01:29:37.886 22/10/1994]',-0.040,99.650,0.518,-0.402
'[01:29:37.888 22/10/1994]',-0.041,97.250,0.566,-0.403
'[01:29:37.890 22/10/1994]',-0.041,97.250,0.566,-0.403
'[01:29:37.892 22/10/1994]',-0.041,97.250,0.566,-0.403
'[01:29:37.894 22/10/1994]',-0.041,97.250,0.566,-0.403
'[01:29:37.896 22/10/1994]',-0.042,94.950,0.590,-0.404
'[01:29:37.898 22/10/1994]',-0.043,94.950,0.590,-0.404
'[01:29:37.900 22/10/1994]',-0.043,94.950,0.590,-0.404
'[01:29:37.902 22/10/1994]',-0.044,94.950,0.590,-0.404
'[01:29:37.904 22/10/1994]',-0.044,92.700,0.598,-0.406
'[01:29:37.906 22/10/1994]',-0.044,92.700,0.598,-0.406
'[01:29:37.908 22/10/1994]',-0.043,92.700,0.598,-0.406
'[01:29:37.910 22/10/1994]',-0.041,92.700,0.598,-0.406
'[01:29:37.912 22/10/1994]',-0.041,90.350,0.582,-0.407
'[01:29:37.914 22/10/1994]',-0.040,90.350,0.582,-0.407
'[01:29:37.916 22/10/1994]',-0.040,90.350,0.582,-0.407
'[01:29:37.918 22/10/1994]',-0.039,90.350,0.582,-0.407
'[01:29:37.920 22/10/1994]',-0.037,87.900,0.558,-0.410
'[01:29:37.922 22/10/1994]',-0.036,87.900,0.558,-0.410
'[01:29:37.924 22/10/1994]',-0.034,87.900,0.558,-0.410
'[01:29:37.926 22/10/1994]',-0.032,87.900,0.558,-0.410
'[01:29:37.928 22/10/1994]',-0.029,85.350,0.514,-0.412
'[01:29:37.930 22/10/1994]',-0.025,85.350,0.514,-0.412
'[01:29:37.932 22/10/1994]',-0.021,85.350,0.514,-0.412
'[01:29:37.934 22/10/1994]',-0.018,85.350,0.514,-0.412
'[01:29:37.936 22/10/1994]',-0.016,82.550,0.466,-0.415
'[01:29:37.938 22/10/1994]',-0.014,82.550,0.466,-0.415
'[01:29:37.940 22/10/1994]',-0.015,82.550,0.466,-0.415
'[01:29:37.942 22/10/1994]',-0.015,82.550,0.466,-0.415
'[01:29:37.944 22/10/1994]',-0.017,79.900,0.413,-0.419
'[01:29:37.946 22/10/1994]',-0.019,79.900,0.413,-0.419
'[01:29:37.948 22/10/1994]',-0.021,79.900,0.413,-0.419
'[01:29:37.950 22/10/1994]',-0.023,79.900,0.413,-0.419
'[01:29:37.952 22/10/1994]',-0.025,77.400,0.353,-0.423
'[01:29:37.954 22/10/1994]',-0.027,77.400,0.353,-0.423
'[01:29:37.956 22/10/1994]',-0.029,77.400,0.353,-0.423
'[01:29:37.958 22/10/1994]',-0.032,77.400,0.353,-0.423
'[01:29:37.960 22/10/1994]',-0.035,75.250,0.285,-0.426
'[01:29:37.962 22/10/1994]',-0.037,75.250,0.285,-0.426
'[01:29:37.964 22/10/1994]',-0.039,75.250,0.285,-0.426
'[01:29:37.966 22/10/1994]',-0.041,75.250,0.285,-0.426
'[01:29:37.968 22/10/1994]',-0.043,73.500,0.221,-0.429
'[01:29:37.970 22/10/1994]',-0.044,73.500,0.221,-0.429
'[01:29:37.972 22/10/1994]',-0.044,73.500,0.221,-0.429
'[01:29:37.974 22/10/1994]',-0.045,73.500,0.221,-0.429
'[01:29:37.976 22/10/1994]',-0.044,72.400,0.152,-0.431
'[01:29:37.978 22/10/1994]',-0.044,72.400,0.152,-0.431
'[01:29:37.980 22/10/1994]',-0.044,72.400,0.152,-0.431
'[01:29:37.982 22/10/1994]',-0.044,72.400,0.152,-0.431
'[01:29:37.984 22/10/1994]',-0.044,71.850,0.088,-0.432
'[01:29:37.986 22/10/1994]',-0.045,71.850,0.088,-0.432
'[01:29:37.988 22/10/1994]',-0.046,71.850,0.088,-0.432
'[01:29:37.990 22/10/1994]',-0.048,71.850,0.088,-0.432
'[01:29:37.992 22/10/1994]',-0.050,71.800,0.020,-0.433
'[01:29:37.994 22/10/1994]',-0.051,71.800,0.020,-0.433
'[01:29:37.996 22/10/1994]',-0.052,71.800,0.020,-0.433
'[01:29:37.998 22/10/1994]',-0.053,71.800,0.020,-0.433
'[01:29:38.000 22/10/1994]',-0.054,72.100,-0.049,-0.434
'[01:29:38.002 22/10/1994]',-0.056,72.100,-0.049,-0.434
'[01:29:38.004 22/10/1994]',-0.057,72.100,-0.049,-0.434
'[01:29:38.006 22/10/1994]',-0.058,72.100,-0.049,-0.434
'[01:29:38.008 22/10/1994]',-0.056,72.750,-0.117,-0.434
'[01:29:38.010 22/10/1994]',-0.054,72.750,-0.117,-0.434
'[01:29:38.012 22/10/1994]',-0.050,72.750,-0.117,-0.434
'[01:29:38.014 22/10/1994]',-0.045,72.750,-0.117,-0.434
'[01:29:38.016 22/10/1994]',-0.038,73.650,-0.177,-0.434
'[01:29:38.018 22/10/1994]',-0.031,73.650,-0.177,-0.434
'[01:29:38.020 22/10/1994]',-0.022,73.650,-0.177,-0.434
'[01:29:38.022 22/10/1994]',-0.013,73.650,-0.177,-0.434
'[01:29:38.024 22/10/1994]',-0.002,74.850,-0.233,-0.433
'[01:29:38.026 22/10/1994]',0.009,74.850,-0.233,-0.433
'[01:29:38.028 22/10/1994]',0.026,74.850,-0.233,-0.433
'[01:29:38.030 22/10/1994]',0.043,74.850,-0.233,-0.433
'[01:29:38.032 22/10/1994]',0.070,76.200,-0.289,-0.433
'[01:29:38.034 22/10/1994]',0.096,76.200,-0.289,-0.433
'[01:29:38.036 22/10/1994]',0.138,76.200,-0.289,-0.433
'[01:29:38.038 22/10/1994]',0.180,76.200,-0.289,-0.433
'[01:29:38.040 22/10/1994]',0.241,77.550,-0.334,-0.432
'[01:29:38.042 22/10/1994]',0.303,77.550,-0.334,-0.432
'[01:29:38.044 22/10/1994]',0.376,77.550,-0.334,-0.432
'[01:29:38.046 22/10/1994]',0.449,77.550,-0.334,-0.432
'[01:29:38.048 22/10/1994]',0.512,78.750,-0.378,-0.430
'[01:29:38.050 22/10/1994]',0.575,78.750,-0.378,-0.430
'[01:29:38.052 22/10/1994]',0.605,78.750,-0.378,-0.430
'[01:29:38.054 22/10/1994]',0.634,78.750,-0.378,-0.430
'[01:29:38.056 22/10/1994]',0.621,79.750,-0.434,-0.429
'[01:29:38.058 22/10/1994]',0.607,79.750,-0.434,-0.429
'[01:29:38.060 22/10/1994]',0.554,79.750,-0.434,-0.429
'[01:29:38.062 22/10/1994]',0.502,79.750,-0.434,-0.429
'[01:29:38.064 22/10/1994]',0.431,80.300,-0.454,-0.427
'[01:29:38.066 22/10/1994]',0.361,80.300,-0.454,-0.427
'[01:29:38.068 22/10/1994]',0.293,80.300,-0.454,-0.427
'[01:29:38.070 22/10/1994]',0.225,80.300,-0.454,-0.427
'[01:29:38.072 22/10/1994]',0.169,80.450,-0.470,-0.425
'[01:29:38.074 22/10/1994]',0.113,80.450,-0.470,-0.425
'[01:29:38.076 22/10/1994]',0.072,80.450,-0.470,-0.425
'[01:29:38.078 22/10/1994]',0.031,80.450,-0.470,-0.425
'[01:29:38.080 22/10/1994]',0.004,80.300,-0.470,-0.422
'[01:29:38.082 22/10/1994]',-0.023,80.300,-0.470,-0.422
'[01:29:38.084 22/10/1994]',-0.040,80.300,-0.470,-0.422
'[01:29:38.086 22/10/1994]',-0.056,80.300,-0.470,-0.422
'[01:29:38.088 22/10/1994]',-0.066,79.900,-0.470,-0.420
'[01:29:38.090 22/10/1994]',-0.076,79.900,-0.470,-0.420
'[01:29:38.092 22/10/1994]',-0.081,79.900,-0.470,-0.420
'[01:29:38.094 22/10/1994]',-0.086,79.900,-0.470,-0.420
'[01:29:38.096 22/10/1994]',-0.089,79.450,-0.454,-0.417
'[01:29:38.098 22/10/1994]',-0.093,79.450,-0.454,-0.417
'[01:29:38.100 22/10/1994]',-0.095,79.450,-0.454,-0.417
'[01:29:38.102 22/10/1994]',-0.097,79.450,-0.454,-0.417
'[01:29:38.104 22/10/1994]',-0.098,78.850,-0.434,-0.415
'[01:29:38.106 22/10/1994]',-0.099,78.850,-0.434,-0.415
'[01:29:38.108 22/10/1994]',-0.099,78.850,-0.434,-0.415
'[01:29:38.110 22/10/1994]',-0.099,78.850,-0.434,-0.415
'[01:29:38.112 22/10/1994]',-0.099,78.150,-0.414,-0.412
'[01:29:38.114 22/10/1994]',-0.099,78.150,-0.414,-0.412
'[01:29:38.116 22/10/1994]',-0.099,78.150,-0.414,-0.412
'[01:29:38.118 22/10/1994]',-0.098,78.150,-0.414,-0.412
'[01:29:38.120 22/10/1994]',-0.097,77.500,-0.387,-0.409
'[01:29:38.122 22/10/1994]',-0.096,77.500,-0.387,-0.409
'[01:29:38.124 22/10/1994]',-0.096,77.500,-0.387,-0.409
'[01:29:38.126 22/10/1994]',-0.095,77.500,-0.387,-0.409
'[01:29:38.128 22/10/1994]',-0.095,76.800,-0.366,-0.407
'[01:29:38.130 22/10/1994]',-0.095,76.800,-0.366,-0.407
'[01:29:38.132 22/10/1994]',-0.095,76.800,-0.366,-0.407
'[01:29:38.134 22/10/1994]',-0.095,76.800,-0.366,-0.407
'[01:29:38.136 22/10/1994]',-0.094,76.000,-0.346,-0.405
'[01:29:38.138 22/10/1994]',-0.093,76.000,-0.346,-0.405
'[01:29:38.140 22/10/1994]',-0.092,76.000,-0.346,-0.405
'[01:29:38.142 22/10/1994]',-0.091,76.000,-0.346,-0.405
'[01:29:38.144 22/10/1994]',-0.089,75.150,-0.323,-0.402
'[01:29:38.146 22/10/1994]',-0.087,75.150,-0.323,-0.402
'[01:29:38.148 22/10/1994]',-0.086,75.150,-0.323,-0.402
'[01:29:38.150 22/10/1994]',-0.085,75.150,-0.323,-0.402
'[01:29:38.152 22/10/1994]',-0.085,74.250,-0.306,-0.400
'[01:29:38.154 22/10/1994]',-0.084,74.250,-0.306,-0.400
'[01:29:38.156 22/10/1994]',-0.084,74.250,-0.306,-0.400
'[01:29:38.158 22/10/1994]',-0.084,74.250,-0.306,-0.400
'[01:29:38.160 22/10/1994]',-0.084,73.450,-0.302,-0.397
'[01:29:38.162 22/10/1994]',-0.084,73.450,-0.302,-0.397
'[01:29:38.164 22/10/1994]',-0.084,73.450,-0.302,-0.397
'[01:29:38.166 22/10/1994]',-0.083,73.450,-0.302,-0.397
'[01:29:38.168 22/10/1994]',-0.082,72.700,-0.298,-0.395
'[01:29:38.170 22/10/1994]',-0.080,72.700,-0.298,-0.395
'[01:29:38.172 22/10/1994]',-0.078,72.700,-0.298,-0.395
'[01:29:38.174 22/10/1994]',-0.076,72.700,-0.298,-0.395
'[01:29:38.176 22/10/1994]',-0.072,72.000,-0.298,-0.392
'[01:29:38.178 22/10/1994]',-0.069,72.000,-0.298,-0.392
'[01:29:38.180 22/10/1994]',-0.068,72.000,-0.298,-0.392
'[01:29:38.182 22/10/1994]',-0.066,72.000,-0.298,-0.392
'[01:29:38.184 22/10/1994]',-0.066,71.500,-0.306,-0.390
'[01:29:38.186 22/10/1994]',-0.065,71.500,-0.306,-0.390
'[01:29:38.188 22/10/1994]',-0.064,71.500,-0.306,-0.390
'[01:29:38.190 22/10/1994]',-0.062,71.500,-0.306,-0.390
'[01:29:38.192 22/10/1994]',-0.060,71.350,-0.319,-0.389
'[01:29:38.194 22/10/1994]',-0.058,71.350,-0.319,-0.389
'[01:29:38.196 22/10/1994]',-0.056,71.350,-0.319,-0.389
'[01:29:38.198 22/10/1994]',-0.054,71.350,-0.319,-0.389
'[01:29:38.200 22/10/1994]',-0.051,71.800,-0.331,-0.388
'[01:29:38.202 22/10/1994]',-0.049,71.800,-0.331,-0.388
'[01:29:38.204 22/10/1994]',-0.044,71.800,-0.331,-0.388
'[01:29:38.206 22/10/1994]',-0.040,71.800,-0.331,-0.388
'[01:29:38.208 22/10/1994]',-0.035,73.350,-0.350,-0.388
'[01:29:38.210 22/10/1994]',-0.031,73.350,-0.350,-0.388
'[01:29:38.212 22/10/1994]',-0.027,73.350,-0.350,-0.388
'[01:29:38.214 22/10/1994]',-0.023,73.350,-0.350,-0.388
'[01:29:38.216 22/10/1994]',-0.018,76.900,-0.370,-0.389
'[01:29:38.218 22/10/1994]',-0.013,76.900,-0.370,-0.389
'[01:29:38.220 22/10/1994]',-0.007,76.900,-0.370,-0.389
'[01:29:38.222 22/10/1994]',-0.002,76.900,-0.370,-0.389
'[01:29:38.224 22/10/1994]',0.004,82.850,-0.387,-0.389
'[01:29:38.226 22/10/1994]',0.010,82.850,-0.387,-0.389
'[01:29:38.228 22/10/1994]',0.015,82.850,-0.387,-0.389
'[01:29:38.230 22/10/1994]',0.021,82.850,-0.387,-0.389
'[01:29:38.232 22/10/1994]',0.026,91.200,-0.410,-0.390
'[01:29:38.234 22/10/1994]',0.032,91.200,-0.410,-0.390
'[01:29:38.236 22/10/1994]',0.040,91.200,-0.410,-0.390
'[01:29:38.238 22/10/1994]',0.047,91.200,-0.410,-0.390
'[01:29:38.240 22/10/1994]',0.057,100.700,-0.426,-0.391
'[01:29:38.242 22/10/1994]',0.066,100.700,-0.426,-0.391
'[01:29:38.244 22/10/1994]',0.076,100.700,-0.426,-0.391
'[01:29:38.246 22/10/1994]',0.086,100.700,-0.426,-0.391
'[01:29:38.248 22/10/1994]',0.096,109.700,-0.438,-0.393
'[01:29:38.250 22/10/1994]',0.106,109.700,-0.438,-0.393
'[01:29:38.252 22/10/1994]',0.115,109.700,-0.438,-0.393
'[01:29:38.254 22/10/1994]',0.123,109.700,-0.438,-0.393
'[01:29:38.256 22/10/1994]',0.128,116.600,-0.434,-0.395
'[01:29:38.258 22/10/1994]',0.133,116.600,-0.434,-0.395
'[01:29:38.260 22/10/1994]',0.135,116.600,-0.434,-0.395
'[01:29:38.262 22/10/1994]',0.136,116.600,-0.434,-0.395
'[01:29:38.264 22/10/1994]',0.136,120.750,-0.426,-0.397
'[01:29:38.266 22/10/1994]',0.136,120.750,-0.426,-0.397
'[01:29:38.268 22/10/1994]',0.137,120.750,-0.426,-0.397
'[01:29:38.270 22/10/1994]',0.137,120.750,-0.426,-0.397
'[01:29:38.272 22/10/1994]',0.136,122.400,-0.403,-0.400
'[01:29:38.274 22/10/1994]',0.135,122.400,-0.403,-0.400
'[01:29:38.276 22/10/1994]',0.133,122.400,-0.403,-0.400
'[01:29:38.278 22/10/1994]',0.130,122.400,-0.403,-0.400
'[01:29:38.280 22/10/1994]',0.128,122.000,-0.362,-0.404
'[01:29:38.282 22/10/1994]',0.125,122.000,-0.362,-0.404
'[01:29:38.284 22/10/1994]',0.120,122.000,-0.362,-0.404
'[01:29:38.286 22/10/1994]',0.115,122.000,-0.362,-0.404
'[01:29:38.288 22/10/1994]',0.108,120.450,-0.302,-0.406
'[01:29:38.290 22/10/1994]',0.102,120.450,-0.302,-0.406
'[01:29:38.292 22/10/1994]',0.096,120.450,-0.302,-0.406
'[01:29:38.294 22/10/1994]',0.089,120.450,-0.302,-0.406
'[01:29:38.296 22/10/1994]',0.082,118.100,-0.223,-0.409
'[01:29:38.298 22/10/1994]',0.075,118.100,-0.223,-0.409
'[01:29:38.300 22/10/1994]',0.068,118.100,-0.223,-0.409
'[01:29:38.302 22/10/1994]',0.060,118.100,-0.223,-0.409
'[01:29:38.304 22/10/1994]',0.054,115.250,-0.136,-0.412
'[01:29:38.306 22/10/1994]',0.048,115.250,-0.136,-0.412
'[01:29:38.308 22/10/1994]',0.043,115.250,-0.136,-0.412
'[01:29:38.310 22/10/1994]',0.038,115.250,-0.136,-0.412
'[01:29:38.312 22/10/1994]',0.034,112.250,-0.024,-0.415
'[01:29:38.314 22/10/1994]',0.030,112.250,-0.024,-0.415
'[01:29:38.316 22/10/1994]',0.026,112.250,-0.024,-0.415
'[01:29:38.318 22/10/1994]',0.022,112.250,-0.024,-0.415
'[01:29:38.320 22/10/1994]',0.018,109.250,0.084,-0.418
'[01:29:38.322 22/10/1994]',0.015,109.250,0.084,-0.418
'[01:29:38.324 22/10/1994]',0.012,109.250,0.084,-0.418
'[01:29:38.326 22/10/1994]',0.009,109.250,0.084,-0.418
'[01:29:38.328 22/10/1994]',0.005,106.400,0.192,-0.421
'[01:29:38.330 22/10/1994]',0.001,106.400,0.192,-0.421
'[01:29:38.332 22/10/1994]',-0.004,106.400,0.192,-0.421
'[01:29:38.334 22/10/1994]',-0.009,106.400,0.192,-0.421
'[01:29:38.336 22/10/1994]',-0.013,103.700,0.291,-0.424
'[01:29:38.338 22/10/1994]',-0.017,103.700,0.291,-0.424
'[01:29:38.340 22/10/1994]',-0.020,103.700,0.291,-0.424
'[01:29:38.342 22/10/1994]',-0.023,103.700,0.291,-0.424
'[01:29:38.344 22/10/1994]',-0.025,101.100,0.379,-0.427
'[01:29:38.346 22/10/1994]',-0.028,101.100,0.379,-0.427
'[01:29:38.348 22/10/1994]',-0.031,101.100,0.379,-0.427
'[01:29:38.350 22/10/1994]',-0.034,101.100,0.379,-0.427
'[01:29:38.352 22/10/1994]',-0.036,98.600,0.455,-0.429
'[01:29:38.354 22/10/1994]',-0.039,98.600,0.455,-0.429
'[01:29:38.356 22/10/1994]',-0.042,98.600,0.455,-0.429
'[01:29:38.358 22/10/1994]',-0.044,98.600,0.455,-0.429
'[01:29:38.360 22/10/1994]',-0.046,96.300,0.498,-0.431
'[01:29:38.362 22/10/1994]',-0.049,96.300,0.498,-0.431
'[01:29:38.364 22/10/1994]',-0.051,96.300,0.498,-0.431
'[01:29:38.366 22/10/1994]',-0.052,96.300,0.498,-0.431
'[01:29:38.368 22/10/1994]',-0.053,93.950,0.526,-0.433
'[01:29:38.370 22/10/1994]',-0.055,93.950,0.526,-0.433
'[01:29:38.372 22/10/1994]',-0.054,93.950,0.526,-0.433
'[01:29:38.374 22/10/1994]',-0.054,93.950,0.526,-0.433
'[01:29:38.376 22/10/1994]',-0.052,91.700,0.526,-0.435
'[01:29:38.378 22/10/1994]',-0.051,91.700,0.526,-0.435
'[01:29:38.380 22/10/1994]',-0.049,91.700,0.526,-0.435
'[01:29:38.382 22/10/1994]',-0.047,91.700,0.526,-0.435
'[01:29:38.384 22/10/1994]',-0.045,89.300,0.518,-0.438
'[01:29:38.386 22/10/1994]',-0.043,89.300,0.518,-0.438
'[01:29:38.388 22/10/1994]',-0.042,89.300,0.518,-0.438
'[01:29:38.390 22/10/1994]',-0.040,89.300,0.518,-0.438
'[01:29:38.392 22/10/1994]',-0.038,86.850,0.482,-0.441
'[01:29:38.394 22/10/1994]',-0.036,86.850,0.482,-0.441
'[01:29:38.396 22/10/1994]',-0.034,86.850,0.482,-0.441
'[01:29:38.398 22/10/1994]',-0.032,86.850,0.482,-0.441
'[01:29:38.400 22/10/1994]',-0.031,84.200,0.443,-0.444
'[01:29:38.402 22/10/1994]',-0.030,84.200,0.443,-0.444
'[01:29:38.404 22/10/1994]',-0.029,84.200,0.443,-0.444
'[01:29:38.406 22/10/1994]',-0.029,84.200,0.443,-0.444
'[01:29:38.408 22/10/1994]',-0.029,81.500,0.391,-0.448
'[01:29:38.410 22/10/1994]',-0.030,81.500,0.391,-0.448
'[01:29:38.412 22/10/1994]',-0.030,81.500,0.391,-0.448
'[01:29:38.414 22/10/1994]',-0.030,81.500,0.391,-0.448
'[01:29:38.416 22/10/1994]',-0.030,78.850,0.331,-0.453
'[01:29:38.418 22/10/1994]',-0.030,78.850,0.331,-0.453
'[01:29:38.420 22/10/1994]',-0.030,78.850,0.331,-0.453
'[01:29:38.422 22/10/1994]',-0.031,78.850,0.331,-0.453
'[01:29:38.424 22/10/1994]',-0.032,76.350,0.267,-0.459
'[01:29:38.426 22/10/1994]',-0.033,76.350,0.267,-0.459
'[01:29:38.428 22/10/1994]',-0.034,76.350,0.267,-0.459
'[01:29:38.430 22/10/1994]',-0.035,76.350,0.267,-0.459
'[01:29:38.432 22/10/1994]',-0.036,74.250,0.203,-0.466
'[01:29:38.434 22/10/1994]',-0.037,74.250,0.203,-0.466
'[01:29:38.436 22/10/1994]',-0.040,74.250,0.203,-0.466
'[01:29:38.438 22/10/1994]',-0.042,74.250,0.203,-0.466
'[01:29:38.440 22/10/1994]',-0.045,72.600,0.132,-0.472
'[01:29:38.442 22/10/1994]',-0.048,72.600,0.132,-0.472
'[01:29:38.444 22/10/1994]',-0.051,72.600,0.132,-0.472
'[01:29:38.446 22/10/1994]',-0.054,72.600,0.132,-0.472
'[01:29:38.448 22/10/1994]',-0.056,71.400,0.068,-0.478
'[01:29:38.450 22/10/1994]',-0.058,71.400,0.068,-0.478
'[01:29:38.452 22/10/1994]',-0.059,71.400,0.068,-0.478
'[01:29:38.454 22/10/1994]',-0.060,71.400,0.068,-0.478
'[01:29:38.456 22/10/1994]',-0.059,70.650,0.000,-0.482
'[01:29:38.458 22/10/1994]',-0.059,70.650,0.000,-0.482
'[01:29:38.460 22/10/1994]',-0.059,70.650,0.000,-0.482
'[01:29:38.462 22/10/1994]',-0.058,70.650,0.000,-0.482
'[01:29:38.464 22/10/1994]',-0.059,70.450,-0.071,-0.486
'[01:29:38.466 22/10/1994]',-0.060,70.450,-0.071,-0.486
'[01:29:38.468 22/10/1994]',-0.061,70.450,-0.071,-0.486
'[01:29:38.470 22/10/1994]',-0.062,70.450,-0.071,-0.486
'[01:29:38.472 22/10/1994]',-0.062,70.650,-0.140,-0.489
'[01:29:38.474 22/10/1994]',-0.063,70.650,-0.140,-0.489
'[01:29:38.476 22/10/1994]',-0.062,70.650,-0.140,-0.489
'[01:29:38.478 22/10/1994]',-0.062,70.650,-0.140,-0.489
'[01:29:38.480 22/10/1994]',-0.060,71.100,-0.211,-0.491
'[01:29:38.482 22/10/1994]',-0.058,71.100,-0.211,-0.491
'[01:29:38.484 22/10/1994]',-0.053,71.100,-0.211,-0.491
'[01:29:38.486 22/10/1994]',-0.048,71.100,-0.211,-0.491
'[01:29:38.488 22/10/1994]',-0.041,71.800,-0.275,-0.492
'[01:29:38.490 22/10/1994]',-0.034,71.800,-0.275,-0.492
'[01:29:38.492 22/10/1994]',-0.025,71.800,-0.275,-0.492
'[01:29:38.494 22/10/1994]',-0.017,71.800,-0.275,-0.492
'[01:29:38.496 22/10/1994]',-0.006,72.750,-0.335,-0.492
'[01:29:38.498 22/10/1994]',0.005,72.750,-0.335,-0.492
'[01:29:38.500 22/10/1994]',0.020,72.750,-0.335,-0.492
'[01:29:38.502 22/10/1994]',0.035,72.750,-0.335,-0.492
'[01:29:38.504 22/10/1994]',0.057,73.900,-0.387,-0.491
'[01:29:38.506 22/10/1994]',0.079,73.900,-0.387,-0.491
'[01:29:38.508 22/10/1994]',0.116,73.900,-0.387,-0.491
'[01:29:38.510 22/10/1994]',0.153,73.900,-0.387,-0.491
'[01:29:38.512 22/10/1994]',0.211,75.000,-0.438,-0.489
'[01:29:38.514 22/10/1994]',0.269,75.000,-0.438,-0.489
'[01:29:38.516 22/10/1994]',0.340,75.000,-0.438,-0.489
'[01:29:38.518 22/10/1994]',0.411,75.000,-0.438,-0.489
'[01:29:38.520 22/10/1994]',0.476,76.150,-0.478,-0.487
'[01:29:38.522 22/10/1994]',0.541,76.150,-0.478,-0.487
'[01:29:38.524 22/10/1994]',0.577,76.150,-0.478,-0.487
'[01:29:38.526 22/10/1994]',0.613,76.150,-0.478,-0.487
'[01:29:38.528 22/10/1994]',0.606,77.100,-0.514,-0.483
'[01:29:38.530 22/10/1994]',0.599,77.100,-0.514,-0.483
'[01:29:38.532 22/10/1994]',0.552,77.100,-0.514,-0.483
'[01:29:38.534 22/10/1994]',0.506,77.100,-0.514,-0.483
'[01:29:38.536 22/10/1994]',0.438,77.700,-0.538,-0.480
'[01:29:38.538 22/10/1994]',0.370,77.700,-0.538,-0.480
'[01:29:38.540 22/10/1994]',0.301,77.700,-0.538,-0.480
'[01:29:38.542 22/10/1994]',0.232,77.700,-0.538,-0.480
'[01:29:38.544 22/10/1994]',0.174,78.000,-0.553,-0.477
'[01:29:38.546 22/10/1994]',0.117,78.000,-0.553,-0.477
'[01:29:38.548 22/10/1994]',0.075,78.000,-0.553,-0.477
'[01:29:38.550 22/10/1994]',0.033,78.000,-0.553,-0.477
'[01:29:38.552 22/10/1994]',0.004,78.000,-0.566,-0.474
'[01:29:38.554 22/10/1994]',-0.025,78.000,-0.566,-0.474
'[01:29:38.556 22/10/1994]',-0.042,78.000,-0.566,-0.474
'[01:29:38.558 22/10/1994]',-0.059,78.000,-0.566,-0.474
'[01:29:38.560 22/10/1994]',-0.069,77.700,-0.557,-0.471
'[01:29:38.562 22/10/1994]',-0.078,77.700,-0.557,-0.471
'[01:29:38.564 22/10/1994]',-0.084,77.700,-0.557,-0.471
'[01:29:38.566 22/10/1994]',-0.089,77.700,-0.557,-0.471
'[01:29:38.568 22/10/1994]',-0.092,77.350,-0.564,-0.469
'[01:29:38.570 22/10/1994]',-0.095,77.350,-0.564,-0.469
'[01:29:38.572 22/10/1994]',-0.097,77.350,-0.564,-0.469
'[01:29:38.574 22/10/1994]',-0.099,77.350,-0.564,-0.469
'[01:29:38.576 22/10/1994]',-0.102,76.750,-0.544,-0.466
'[01:29:38.578 22/10/1994]',-0.104,76.750,-0.544,-0.466
'[01:29:38.580 22/10/1994]',-0.106,76.750,-0.544,-0.466
'[01:29:38.582 22/10/1994]',-0.108,76.750,-0.544,-0.466
'[01:29:38.584 22/10/1994]',-0.109,76.150,-0.524,-0.464
'[01:29:38.586 22/10/1994]',-0.110,76.150,-0.524,-0.464
'[01:29:38.588 22/10/1994]',-0.110,76.150,-0.524,-0.464
'[01:29:38.590 22/10/1994]',-0.109,76.150,-0.524,-0.464
'[01:29:38.592 22/10/1994]',-0.107,75.550,-0.504,-0.463
'[01:29:38.594 22/10/1994]',-0.106,75.550,-0.504,-0.463
'[01:29:38.596 22/10/1994]',-0.104,75.550,-0.504,-0.463
'[01:29:38.598 22/10/1994]',-0.102,75.550,-0.504,-0.463
'[01:29:38.600 22/10/1994]',-0.100,74.800,-0.484,-0.461
'[01:29:38.602 22/10/1994]',-0.098,74.800,-0.484,-0.461
'[01:29:38.604 22/10/1994]',-0.098,74.800,-0.484,-0.461
'[01:29:38.606 22/10/1994]',-0.097,74.800,-0.484,-0.461
'[01:29:38.608 22/10/1994]',-0.097,74.050,-0.456,-0.460
'[01:29:38.610 22/10/1994]',-0.097,74.050,-0.456,-0.460
'[01:29:38.612 22/10/1994]',-0.097,74.050,-0.456,-0.460
'[01:29:38.614 22/10/1994]',-0.096,74.050,-0.456,-0.460
'[01:29:38.616 22/10/1994]',-0.095,73.300,-0.440,-0.459
'[01:29:38.618 22/10/1994]',-0.094,73.300,-0.440,-0.459
'[01:29:38.620 22/10/1994]',-0.092,73.300,-0.440,-0.459
'[01:29:38.622 22/10/1994]',-0.091,73.300,-0.440,-0.459
'[01:29:38.624 22/10/1994]',-0.088,72.450,-0.424,-0.458
'[01:29:38.626 22/10/1994]',-0.086,72.450,-0.424,-0.458
'[01:29:38.628 22/10/1994]',-0.084,72.450,-0.424,-0.458
'[01:29:38.630 22/10/1994]',-0.081,72.450,-0.424,-0.458
'[01:29:38.632 22/10/1994]',-0.079,71.650,-0.412,-0.457
'[01:29:38.634 22/10/1994]',-0.076,71.650,-0.412,-0.457
'[01:29:38.636 22/10/1994]',-0.074,71.650,-0.412,-0.457
'[01:29:38.638 22/10/1994]',-0.073,71.650,-0.412,-0.457
'[01:29:38.640 22/10/1994]',-0.073,70.900,-0.408,-0.456
'[01:29:38.642 22/10/1994]',-0.073,70.900,-0.408,-0.456
'[01:29:38.644 22/10/1994]',-0.072,70.900,-0.408,-0.456
'[01:29:38.646 22/10/1994]',-0.072,70.900,-0.408,-0.456
'[01:29:38.648 22/10/1994]',-0.070,70.200,-0.404,-0.456
'[01:29:38.650 22/10/1994]',-0.069,70.200,-0.404,-0.456
'[01:29:38.652 22/10/1994]',-0.068,70.200,-0.404,-0.456
'[01:29:38.654 22/10/1994]',-0.066,70.200,-0.404,-0.456
'[01:29:38.656 22/10/1994]',-0.066,69.700,-0.404,-0.455
'[01:29:38.658 22/10/1994]',-0.065,69.700,-0.404,-0.455
'[01:29:38.660 22/10/1994]',-0.064,69.700,-0.404,-0.455
'[01:29:38.662 22/10/1994]',-0.062,69.700,-0.404,-0.455
'[01:29:38.664 22/10/1994]',-0.060,69.400,-0.412,-0.455
'[01:29:38.666 22/10/1994]',-0.058,69.400,-0.412,-0.455
'[01:29:38.668 22/10/1994]',-0.056,69.400,-0.412,-0.455
'[01:29:38.670 22/10/1994]',-0.054,69.400,-0.412,-0.455
'[01:29:38.672 22/10/1994]',-0.051,69.400,-0.428,-0.454
'[01:29:38.674 22/10/1994]',-0.049,69.400,-0.428,-0.454
'[01:29:38.676 22/10/1994]',-0.044,69.400,-0.428,-0.454
'[01:29:38.678 22/10/1994]',-0.040,69.400,-0.428,-0.454
'[01:29:38.680 22/10/1994]',-0.035,70.150,-0.440,-0.454
'[01:29:38.682 22/10/1994]',-0.030,70.150,-0.440,-0.454
'[01:29:38.684 22/10/1994]',-0.025,70.150,-0.440,-0.454
'[01:29:38.686 22/10/1994]',-0.020,70.150,-0.440,-0.454
'[01:29:38.688 22/10/1994]',-0.015,72.300,-0.456,-0.454
'[01:29:38.690 22/10/1994]',-0.009,72.300,-0.456,-0.454
'[01:29:38.692 22/10/1994]',-0.004,72.300,-0.456,-0.454
'[01:29:38.694 22/10/1994]',0.002,72.300,-0.456,-0.454
'[01:29:38.696 22/10/1994]',0.007,76.600,-0.476,-0.455
'[01:29:38.698 22/10/1994]',0.012,76.600,-0.476,-0.455
'[01:29:38.700 22/10/1994]',0.017,76.600,-0.476,-0.455
'[01:29:38.702 22/10/1994]',0.022,76.600,-0.476,-0.455
'[01:29:38.704 22/10/1994]',0.029,83.450,-0.492,-0.456
'[01:29:38.706 22/10/1994]',0.036,83.450,-0.492,-0.456
'[01:29:38.708 22/10/1994]',0.045,83.450,-0.492,-0.456
'[01:29:38.710 22/10/1994]',0.054,83.450,-0.492,-0.456
'[01:29:38.712 22/10/1994]',0.064,92.100,-0.512,-0.458
'[01:29:38.714 22/10/1994]',0.074,92.100,-0.512,-0.458
'[01:29:38.716 22/10/1994]',0.083,92.100,-0.512,-0.458
'[01:29:38.718 22/10/1994]',0.092,92.100,-0.512,-0.458
'[01:29:38.720 22/10/1994]',0.101,101.250,-0.524,-0.461
'[01:29:38.722 22/10/1994]',0.109,101.250,-0.524,-0.461
'[01:29:38.724 22/10/1994]',0.116,101.250,-0.524,-0.461
'[01:29:38.726 22/10/1994]',0.123,101.250,-0.524,-0.461
'[01:29:38.728 22/10/1994]',0.128,109.200,-0.532,-0.464
'[01:29:38.730 22/10/1994]',0.133,109.200,-0.532,-0.464
'[01:29:38.732 22/10/1994]',0.137,109.200,-0.532,-0.464
'[01:29:38.734 22/10/1994]',0.140,109.200,-0.532,-0.464
'[01:29:38.736 22/10/1994]',0.141,115.050,-0.528,-0.468
'[01:29:38.738 22/10/1994]',0.142,115.050,-0.528,-0.468
'[01:29:38.740 22/10/1994]',0.142,115.050,-0.528,-0.468
'[01:29:38.742 22/10/1994]',0.143,115.050,-0.528,-0.468
'[01:29:38.744 22/10/1994]',0.141,118.350,-0.512,-0.471
'[01:29:38.746 22/10/1994]',0.140,118.350,-0.512,-0.471
'[01:29:38.748 22/10/1994]',0.138,118.350,-0.512,-0.471
'[01:29:38.750 22/10/1994]',0.135,118.350,-0.512,-0.471
'[01:29:38.752 22/10/1994]',0.132,119.450,-0.484,-0.474
'[01:29:38.754 22/10/1994]',0.128,119.450,-0.484,-0.474
'[01:29:38.756 22/10/1994]',0.124,119.450,-0.484,-0.474
'[01:29:38.758 22/10/1994]',0.120,119.450,-0.484,-0.474
'[01:29:38.760 22/10/1994]',0.115,119.100,-0.432,-0.478
'[01:29:38.762 22/10/1994]',0.110,119.100,-0.432,-0.478
'[01:29:38.764 22/10/1994]',0.105,119.100,-0.432,-0.478
'[01:29:38.766 22/10/1994]',0.100,119.100,-0.432,-0.478
'[01:29:38.768 22/10/1994]',0.095,117.500,-0.364,-0.483
'[01:29:38.770 22/10/1994]',0.089,117.500,-0.364,-0.483
'[01:29:38.772 22/10/1994]',0.083,117.500,-0.364,-0.483
'[01:29:38.774 22/10/1994]',0.077,117.500,-0.364,-0.483
'[01:29:38.776 22/10/1994]',0.070,115.350,-0.280,-0.488
'[01:29:38.778 22/10/1994]',0.063,115.350,-0.280,-0.488
'[01:29:38.780 22/10/1994]',0.057,115.350,-0.280,-0.488
'[01:29:38.782 22/10/1994]',0.050,115.350,-0.280,-0.488
'[01:29:38.784 22/10/1994]',0.044,112.700,-0.180,-0.493
'[01:29:38.786 22/10/1994]',0.038,112.700,-0.180,-0.493
'[01:29:38.788 22/10/1994]',0.033,112.700,-0.180,-0.493
'[01:29:38.790 22/10/1994]',0.027,112.700,-0.180,-0.493
'[01:29:38.792 22/10/1994]',0.022,110.000,-0.068,-0.498
'[01:29:38.794 22/10/1994]',0.018,110.000,-0.068,-0.498
'[01:29:38.796 22/10/1994]',0.013,110.000,-0.068,-0.498
'[01:29:38.798 22/10/1994]',0.009,110.000,-0.068,-0.498
'[01:29:38.800 22/10/1994]',0.004,107.250,0.044,-0.503
'[01:29:38.802 22/10/1994]',-0.002,107.250,0.044,-0.503
'[01:29:38.804 22/10/1994]',-0.006,107.250,0.044,-0.503
'[01:29:38.806 22/10/1994]',-0.010,107.250,0.044,-0.503
'[01:29:38.808 22/10/1994]',-0.013,104.600,0.152,-0.507
'[01:29:38.810 22/10/1994]',-0.017,104.600,0.152,-0.507
'[01:29:38.812 22/10/1994]',-0.020,104.600,0.152,-0.507
'[01:29:38.814 22/10/1994]',-0.023,104.600,0.152,-0.507
'[01:29:38.816 22/10/1994]',-0.025,102.050,0.252,-0.511
'[01:29:38.818 22/10/1994]',-0.028,102.050,0.252,-0.511
'[01:29:38.820 22/10/1994]',-0.031,102.050,0.252,-0.511
'[01:29:38.822 22/10/1994]',-0.034,102.050,0.252,-0.511
'[01:29:38.824 22/10/1994]',-0.037,99.750,0.336,-0.515
'[01:29:38.826 22/10/1994]',-0.040,99.750,0.336,-0.515
'[01:29:38.828 22/10/1994]',-0.044,99.750,0.336,-0.515
'[01:29:38.830 22/10/1994]',-0.048,99.750,0.336,-0.515
'[01:29:38.832 22/10/1994]',-0.050,97.500,0.400,-0.520
'[01:29:38.834 22/10/1994]',-0.052,97.500,0.400,-0.520
'[01:29:38.836 22/10/1994]',-0.052,97.500,0.400,-0.520
'[01:29:38.838 22/10/1994]',-0.052,97.500,0.400,-0.520
'[01:29:38.840 22/10/1994]',-0.051,95.300,0.440,-0.524
'[01:29:38.842 22/10/1994]',-0.050,95.300,0.440,-0.524
'[01:29:38.844 22/10/1994]',-0.049,95.300,0.440,-0.524
'[01:29:38.846 22/10/1994]',-0.047,95.300,0.440,-0.524
'[01:29:38.848 22/10/1994]',-0.045,93.150,0.464,-0.529
'[01:29:38.850 22/10/1994]',-0.043,93.150,0.464,-0.529
'[01:29:38.852 22/10/1994]',-0.041,93.150,0.464,-0.529
'[01:29:38.854 22/10/1994]',-0.039,93.150,0.464,-0.529
'[01:29:38.856 22/10/1994]',-0.036,90.900,0.476,-0.535
'[01:29:38.858 22/10/1994]',-0.033,90.900,0.476,-0.535
'[01:29:38.860 22/10/1994]',-0.031,90.900,0.476,-0.535
'[01:29:38.862 22/10/1994]',-0.029,90.900,0.476,-0.535
'[01:29:38.864 22/10/1994]',-0.027,88.400,0.460,-0.541
'[01:29:38.866 22/10/1994]',-0.025,88.400,0.460,-0.541
'[01:29:38.868 22/10/1994]',-0.023,88.400,0.460,-0.541
'[01:29:38.870 22/10/1994]',-0.021,88.400,0.460,-0.541
'[01:29:38.872 22/10/1994]',-0.020,85.700,0.428,-0.547
'[01:29:38.874 22/10/1994]',-0.019,85.700,0.428,-0.547
'[01:29:38.876 22/10/1994]',-0.018,85.700,0.428,-0.547
'[01:29:38.878 22/10/1994]',-0.018,85.700,0.428,-0.547
'[01:29:38.880 22/10/1994]',-0.019,82.950,0.392,-0.553
'[01:29:38.882 22/10/1994]',-0.020,82.950,0.392,-0.553
'[01:29:38.884 22/10/1994]',-0.021,82.950,0.392,-0.553
'[01:29:38.886 22/10/1994]',-0.022,82.950,0.392,-0.553
'[01:29:38.888 22/10/1994]',-0.022,80.100,0.340,-0.560
'[01:29:38.890 22/10/1994]',-0.023,80.100,0.340,-0.560
'[01:29:38.892 22/10/1994]',-0.025,80.100,0.340,-0.560
'[01:29:38.894 22/10/1994]',-0.026,80.100,0.340,-0.560
'[01:29:38.896 22/10/1994]',-0.028,77.550,0.280,-0.566
'[01:29:38.898 22/10/1994]',-0.030,77.550,0.280,-0.566
'[01:29:38.900 22/10/1994]',-0.030,77.550,0.280,-0.566
'[01:29:38.902 22/10/1994]',-0.031,77.550,0.280,-0.566
'[01:29:38.904 22/10/1994]',-0.032,75.300,0.224,-0.571
'[01:29:38.906 22/10/1994]',-0.033,75.300,0.224,-0.571
'[01:29:38.908 22/10/1994]',-0.034,75.300,0.224,-0.571
'[01:29:38.910 22/10/1994]',-0.034,75.300,0.224,-0.571
'[01:29:38.912 22/10/1994]',-0.034,73.500,0.160,-0.576
'[01:29:38.914 22/10/1994]',-0.033,73.500,0.160,-0.576
'[01:29:38.916 22/10/1994]',-0.034,73.500,0.160,-0.576
'[01:29:38.918 22/10/1994]',-0.034,73.500,0.160,-0.576
'[01:29:38.920 22/10/1994]',-0.035,72.250,0.096,-0.581
'[01:29:38.922 22/10/1994]',-0.037,72.250,0.096,-0.581
'[01:29:38.924 22/10/1994]',-0.040,72.250,0.096,-0.581
'[01:29:38.926 22/10/1994]',-0.042,72.250,0.096,-0.581
'[01:29:38.928 22/10/1994]',-0.045,71.500,0.024,-0.584
'[01:29:38.930 22/10/1994]',-0.049,71.500,0.024,-0.584
'[01:29:38.932 22/10/1994]',-0.052,71.500,0.024,-0.584
'[01:29:38.934 22/10/1994]',-0.056,71.500,0.024,-0.584
'[01:29:38.936 22/10/1994]',-0.058,71.350,-0.040,-0.587
'[01:29:38.938 22/10/1994]',-0.060,71.350,-0.040,-0.587
'[01:29:38.940 22/10/1994]',-0.061,71.350,-0.040,-0.587
'[01:29:38.942 22/10/1994]',-0.062,71.350,-0.040,-0.587
'[01:29:38.944 22/10/1994]',-0.062,71.550,-0.104,-0.590
'[01:29:38.946 22/10/1994]',-0.063,71.550,-0.104,-0.590
'[01:29:38.948 22/10/1994]',-0.062,71.550,-0.104,-0.590
'[01:29:38.950 22/10/1994]',-0.061,71.550,-0.104,-0.590
'[01:29:38.952 22/10/1994]',-0.058,72.150,-0.172,-0.591
'[01:29:38.954 22/10/1994]',-0.055,72.150,-0.172,-0.591
'[01:29:38.956 22/10/1994]',-0.049,72.150,-0.172,-0.591
'[01:29:38.958 22/10/1994]',-0.043,72.150,-0.172,-0.591
'[01:29:38.960 22/10/1994]',-0.035,73.150,-0.236,-0.592
'[01:29:38.962 22/10/1994]',-0.028,73.150,-0.236,-0.592
'[01:29:38.964 22/10/1994]',-0.018,73.150,-0.236,-0.592
'[01:29:38.966 22/10/1994]',-0.009,73.150,-0.236,-0.592
'[01:29:38.968 22/10/1994]',0.004,74.250,-0.296,-0.591
'[01:29:38.970 22/10/1994]',0.016,74.250,-0.296,-0.591
'[01:29:38.972 22/10/1994]',0.032,74.250,-0.296,-0.591
'[01:29:38.974 22/10/1994]',0.047,74.250,-0.296,-0.591
'[01:29:38.976 22/10/1994]',0.071,75.700,-0.356,-0.590
'[01:29:38.978 22/10/1994]',0.095,75.700,-0.356,-0.590
'[01:29:38.980 22/10/1994]',0.135,75.700,-0.356,-0.590
'[01:29:38.982 22/10/1994]',0.175,75.700,-0.356,-0.590
'[01:29:38.984 22/10/1994]',0.235,77.050,-0.400,-0.588
'[01:29:38.986 22/10/1994]',0.296,77.050,-0.400,-0.588
'[01:29:38.988 22/10/1994]',0.367,77.050,-0.400,-0.588
'[01:29:38.990 22/10/1994]',0.439,77.050,-0.400,-0.588
'[01:29:38.992 22/10/1994]',0.500,78.300,-0.448,-0.586
'[01:29:38.994 22/10/1994]',0.561,78.300,-0.448,-0.586
'[01:29:38.996 22/10/1994]',0.590,78.300,-0.448,-0.586
'[01:29:38.998 22/10/1994]',0.618,78.300,-0.448,-0.586
'[01:29:39.000 22/10/1994]',0.603,79.350,-0.480,-0.584
'[01:29:39.002 22/10/1994]',0.587,79.350,-0.480,-0.584
'[01:29:39.004 22/10/1994]',0.533,79.350,-0.480,-0.584
'[01:29:39.006 22/10/1994]',0.480,79.350,-0.480,-0.584
'[01:29:39.008 22/10/1994]',0.407,80.100,-0.500,-0.582
'[01:29:39.010 22/10/1994]',0.335,80.100,-0.500,-0.582
'[01:29:39.012 22/10/1994]',0.266,80.100,-0.500,-0.582
'[01:29:39.014 22/10/1994]',0.196,80.100,-0.500,-0.582
'[01:29:39.016 22/10/1994]',0.141,80.600,-0.512,-0.579
'[01:29:39.018 22/10/1994]',0.086,80.600,-0.512,-0.579
'[01:29:39.020 22/10/1994]',0.049,80.600,-0.512,-0.579
'[01:29:39.022 22/10/1994]',0.011,80.600,-0.512,-0.579
'[01:29:39.024 22/10/1994]',-0.012,80.750,-0.520,-0.577
'[01:29:39.026 22/10/1994]',-0.035,80.750,-0.520,-0.577
'[01:29:39.028 22/10/1994]',-0.048,80.750,-0.520,-0.577
'[01:29:39.030 22/10/1994]',-0.061,80.750,-0.520,-0.577
'[01:29:39.032 22/10/1994]',-0.069,80.750,-0.516,-0.574
'[01:29:39.034 22/10/1994]',-0.076,80.750,-0.516,-0.574
'[01:29:39.036 22/10/1994]',-0.080,80.750,-0.516,-0.574
'[01:29:39.038 22/10/1994]',-0.084,80.750,-0.516,-0.574
'[01:29:39.040 22/10/1994]',-0.086,80.550,-0.500,-0.571
'[01:29:39.042 22/10/1994]',-0.089,80.550,-0.500,-0.571
'[01:29:39.044 22/10/1994]',-0.091,80.550,-0.500,-0.571
'[01:29:39.046 22/10/1994]',-0.093,80.550,-0.500,-0.571
'[01:29:39.048 22/10/1994]',-0.095,80.150,-0.480,-0.568
'[01:29:39.050 22/10/1994]',-0.096,80.150,-0.480,-0.568
'[01:29:39.052 22/10/1994]',-0.098,80.150,-0.480,-0.568
'[01:29:39.054 22/10/1994]',-0.099,80.150,-0.480,-0.568
'[01:29:39.056 22/10/1994]',-0.099,79.650,-0.460,-0.565
'[01:29:39.058 22/10/1994]',-0.099,79.650,-0.460,-0.565
'[01:29:39.060 22/10/1994]',-0.099,79.650,-0.460,-0.565
'[01:29:39.062 22/10/1994]',-0.098,79.650,-0.460,-0.565
'[01:29:39.064 22/10/1994]',-0.097,79.050,-0.432,-0.562
'[01:29:39.066 22/10/1994]',-0.096,79.050,-0.432,-0.562
'[01:29:39.068 22/10/1994]',-0.096,79.050,-0.432,-0.562
'[01:29:39.070 22/10/1994]',-0.095,79.050,-0.432,-0.562
'[01:29:39.072 22/10/1994]',-0.095,78.450,-0.404,-0.560
'[01:29:39.074 22/10/1994]',-0.094,78.450,-0.404,-0.560
'[01:29:39.076 22/10/1994]',-0.093,78.450,-0.404,-0.560
'[01:29:39.078 22/10/1994]',-0.092,78.450,-0.404,-0.560
'[01:29:39.080 22/10/1994]',-0.089,77.650,-0.363,-0.558
'[01:29:39.082 22/10/1994]',-0.087,77.650,-0.363,-0.558
'[01:29:39.084 22/10/1994]',-0.084,77.650,-0.363,-0.558
'[01:29:39.086 22/10/1994]',-0.080,77.650,-0.363,-0.558
'[01:29:39.088 22/10/1994]',-0.078,76.900,-0.332,-0.557
'[01:29:39.090 22/10/1994]',-0.076,76.900,-0.332,-0.557
'[01:29:39.092 22/10/1994]',-0.074,76.900,-0.332,-0.557
'[01:29:39.094 22/10/1994]',-0.072,76.900,-0.332,-0.557
'[01:29:39.096 22/10/1994]',-0.071,76.050,-0.312,-0.556
'[01:29:39.098 22/10/1994]',-0.070,76.050,-0.312,-0.556
'[01:29:39.100 22/10/1994]',-0.070,76.050,-0.312,-0.556
'[01:29:39.102 22/10/1994]',-0.069,76.050,-0.312,-0.556
'[01:29:39.104 22/10/1994]',-0.070,75.100,-0.296,-0.555
'[01:29:39.106 22/10/1994]',-0.070,75.100,-0.296,-0.555
'[01:29:39.108 22/10/1994]',-0.070,75.100,-0.296,-0.555
'[01:29:39.110 22/10/1994]',-0.069,75.100,-0.296,-0.555
'[01:29:39.112 22/10/1994]',-0.068,74.250,-0.288,-0.554
'[01:29:39.114 22/10/1994]',-0.066,74.250,-0.288,-0.554
'[01:29:39.116 22/10/1994]',-0.064,74.250,-0.288,-0.554
'[01:29:39.118 22/10/1994]',-0.062,74.250,-0.288,-0.554
'[01:29:39.120 22/10/1994]',-0.060,73.650,-0.281,-0.554
'[01:29:39.122 22/10/1994]',-0.059,73.650,-0.281,-0.554
'[01:29:39.124 22/10/1994]',-0.058,73.650,-0.281,-0.554
'[01:29:39.126 22/10/1994]',-0.057,73.650,-0.281,-0.554
'[01:29:39.128 22/10/1994]',-0.056,73.200,-0.277,-0.555
'[01:29:39.130 22/10/1994]',-0.055,73.200,-0.277,-0.555
'[01:29:39.132 22/10/1994]',-0.053,73.200,-0.277,-0.555
'[01:29:39.134 22/10/1994]',-0.052,73.200,-0.277,-0.555
'[01:29:39.136 22/10/1994]',-0.051,73.200,-0.284,-0.555
'[01:29:39.138 22/10/1994]',-0.050,73.200,-0.284,-0.555
'[01:29:39.140 22/10/1994]',-0.048,73.200,-0.284,-0.555
'[01:29:39.142 22/10/1994]',-0.045,73.200,-0.284,-0.555
'[01:29:39.144 22/10/1994]',-0.041,73.900,-0.292,-0.556
'[01:29:39.146 22/10/1994]',-0.036,73.900,-0.292,-0.556
'[01:29:39.148 22/10/1994]',-0.032,73.900,-0.292,-0.556
'[01:29:39.150 22/10/1994]',-0.027,73.900,-0.292,-0.556
'[01:29:39.152 22/10/1994]',-0.021,76.150,-0.312,-0.558
'[01:29:39.154 22/10/1994]',-0.016,76.150,-0.312,-0.558
'[01:29:39.156 22/10/1994]',-0.011,76.150,-0.312,-0.558
'[01:29:39.158 22/10/1994]',-0.005,76.150,-0.312,-0.558
'[01:29:39.160 22/10/1994]',0.000,80.600,-0.328,-0.559
'[01:29:39.162 22/10/1994]',0.005,80.600,-0.328,-0.559
'[01:29:39.164 22/10/1994]',0.009,80.600,-0.328,-0.559
'[01:29:39.166 22/10/1994]',0.014,80.600,-0.328,-0.559
'[01:29:39.168 22/10/1994]',0.019,87.750,-0.347,-0.561
'[01:29:39.170 22/10/1994]',0.024,87.750,-0.347,-0.561
'[01:29:39.172 22/10/1994]',0.030,87.750,-0.347,-0.561
'[01:29:39.174 22/10/1994]',0.036,87.750,-0.347,-0.561
'[01:29:39.176 22/10/1994]',0.043,96.800,-0.367,-0.562
'[01:29:39.178 22/10/1994]',0.051,96.800,-0.367,-0.562
'[01:29:39.180 22/10/1994]',0.060,96.800,-0.367,-0.562
'[01:29:39.182 22/10/1994]',0.069,96.800,-0.367,-0.562
'[01:29:39.184 22/10/1994]',0.078,106.500,-0.384,-0.564
'[01:29:39.186 22/10/1994]',0.087,106.500,-0.384,-0.564
'[01:29:39.188 22/10/1994]',0.095,106.500,-0.384,-0.564
'[01:29:39.190 22/10/1994]',0.103,106.500,-0.384,-0.564
'[01:29:39.192 22/10/1994]',0.111,114.950,-0.387,-0.565
'[01:29:39.194 22/10/1994]',0.119,114.950,-0.387,-0.565
'[01:29:39.196 22/10/1994]',0.124,114.950,-0.387,-0.565
'[01:29:39.198 22/10/1994]',0.130,114.950,-0.387,-0.565
'[01:29:39.200 22/10/1994]',0.134,121.050,-0.384,-0.566
'[01:29:39.202 22/10/1994]',0.137,121.050,-0.384,-0.566
'[01:29:39.204 22/10/1994]',0.140,121.050,-0.384,-0.566
'[01:29:39.206 22/10/1994]',0.143,121.050,-0.384,-0.566
'[01:29:39.208 22/10/1994]',0.145,124.500,-0.371,-0.567
'[01:29:39.210 22/10/1994]',0.147,124.500,-0.371,-0.567
'[01:29:39.212 22/10/1994]',0.148,124.500,-0.371,-0.567
'[01:29:39.214 22/10/1994]',0.150,124.500,-0.371,-0.567
'[01:29:39.216 22/10/1994]',0.150,125.600,-0.340,-0.568
'[01:29:39.218 22/10/1994]',0.150,125.600,-0.340,-0.568
'[01:29:39.220 22/10/1994]',0.149,125.600,-0.340,-0.568
'[01:29:39.222 22/10/1994]',0.148,125.600,-0.340,-0.568
'[01:29:39.224 22/10/1994]',0.144,125.000,-0.284,-0.569
'[01:29:39.226 22/10/1994]',0.140,125.000,-0.284,-0.569
'[01:29:39.228 22/10/1994]',0.135,125.000,-0.284,-0.569
'[01:29:39.230 22/10/1994]',0.130,125.000,-0.284,-0.569
'[01:29:39.232 22/10/1994]',0.125,123.200,-0.213,-0.570
'[01:29:39.234 22/10/1994]',0.120,123.200,-0.213,-0.570
'[01:29:39.236 22/10/1994]',0.114,123.200,-0.213,-0.570
'[01:29:39.238 22/10/1994]',0.107,123.200,-0.213,-0.570
'[01:29:39.240 22/10/1994]',0.100,120.750,-0.127,-0.572
'[01:29:39.242 22/10/1994]',0.093,120.750,-0.127,-0.572
'[01:29:39.244 22/10/1994]',0.086,120.750,-0.127,-0.572
'[01:29:39.246 22/10/1994]',0.080,120.750,-0.127,-0.572
'[01:29:39.248 22/10/1994]',0.073,117.900,-0.024,-0.573
'[01:29:39.250 22/10/1994]',0.067,117.900,-0.024,-0.573
'[01:29:39.252 22/10/1994]',0.061,117.900,-0.024,-0.573
'[01:29:39.254 22/10/1994]',0.055,117.900,-0.024,-0.573
'[01:29:39.256 22/10/1994]',0.049,114.900,0.091,-0.575
'[01:29:39.258 22/10/1994]',0.042,114.900,0.091,-0.575
'[01:29:39.260 22/10/1994]',0.036,114.900,0.091,-0.575
'[01:29:39.262 22/10/1994]',0.030,114.900,0.091,-0.575
'[01:29:39.264 22/10/1994]',0.025,112.100,0.202,-0.576
'[01:29:39.266 22/10/1994]',0.019,112.100,0.202,-0.576
'[01:29:39.268 22/10/1994]',0.014,112.100,0.202,-0.576
'[01:29:39.270 22/10/1994]',0.009,112.100,0.202,-0.576
'[01:29:39.272 22/10/1994]',0.005,109.350,0.312,-0.578
'[01:29:39.274 22/10/1994]',0.001,109.350,0.312,-0.578
'[01:29:39.276 22/10/1994]',-0.003,109.350,0.312,-0.578
'[01:29:39.278 22/10/1994]',-0.007,109.350,0.312,-0.578
'[01:29:39.280 22/10/1994]',-0.011,106.700,0.411,-0.579
'[01:29:39.282 22/10/1994]',-0.016,106.700,0.411,-0.579
'[01:29:39.284 22/10/1994]',-0.021,106.700,0.411,-0.579
'[01:29:39.286 22/10/1994]',-0.025,106.700,0.411,-0.579
'[01:29:39.288 22/10/1994]',-0.028,104.150,0.498,-0.581
'[01:29:39.290 22/10/1994]',-0.031,104.150,0.498,-0.581
'[01:29:39.292 22/10/1994]',-0.035,104.150,0.498,-0.581
'[01:29:39.294 22/10/1994]',-0.038,104.150,0.498,-0.581
'[01:29:39.296 22/10/1994]',-0.042,101.750,0.553,-0.582
'[01:29:39.298 22/10/1994]',-0.046,101.750,0.553,-0.582
'[01:29:39.300 22/10/1994]',-0.049,101.750,0.553,-0.582
'[01:29:39.302 22/10/1994]',-0.051,101.750,0.553,-0.582
'[01:29:39.304 22/10/1994]',-0.051,99.600,0.601,-0.584
'[01:29:39.306 22/10/1994]',-0.052,99.600,0.601,-0.584
'[01:29:39.308 22/10/1994]',-0.051,99.600,0.601,-0.584
'[01:29:39.310 22/10/1994]',-0.051,99.600,0.601,-0.584
'[01:29:39.312 22/10/1994]',-0.049,97.500,0.617,-0.585
'[01:29:39.314 22/10/1994]',-0.047,97.500,0.617,-0.585
'[01:29:39.316 22/10/1994]',-0.045,97.500,0.617,-0.585
'[01:29:39.318 22/10/1994]',-0.043,97.500,0.617,-0.585
'[01:29:39.320 22/10/1994]',-0.042,95.400,0.613,-0.587
'[01:29:39.322 22/10/1994]',-0.040,95.400,0.613,-0.587
'[01:29:39.324 22/10/1994]',-0.038,95.400,0.613,-0.587
'[01:29:39.326 22/10/1994]',-0.036,95.400,0.613,-0.587
'[01:29:39.328 22/10/1994]',-0.035,93.300,0.589,-0.588
'[01:29:39.330 22/10/1994]',-0.033,93.300,0.589,-0.588
'[01:29:39.332 22/10/1994]',-0.033,93.300,0.589,-0.588
'[01:29:39.334 22/10/1994]',-0.032,93.300,0.589,-0.588
'[01:29:39.336 22/10/1994]',-0.030,91.050,0.553,-0.590
'[01:29:39.338 22/10/1994]',-0.029,91.050,0.553,-0.590
'[01:29:39.340 22/10/1994]',-0.027,91.050,0.553,-0.590
'[01:29:39.342 22/10/1994]',-0.025,91.050,0.553,-0.590
'[01:29:39.344 22/10/1994]',-0.022,88.500,0.506,-0.591
'[01:29:39.346 22/10/1994]',-0.020,88.500,0.506,-0.591
'[01:29:39.348 22/10/1994]',-0.018,88.500,0.506,-0.591
'[01:29:39.350 22/10/1994]',-0.016,88.500,0.506,-0.591
'[01:29:39.352 22/10/1994]',-0.015,85.850,0.455,-0.593
'[01:29:39.354 22/10/1994]',-0.014,85.850,0.455,-0.593
'[01:29:39.356 22/10/1994]',-0.015,85.850,0.455,-0.593
'[01:29:39.358 22/10/1994]',-0.015,85.850,0.455,-0.593
'[01:29:39.360 22/10/1994]',-0.017,83.150,0.400,-0.596
'[01:29:39.362 22/10/1994]',-0.019,83.150,0.400,-0.596
'[01:29:39.364 22/10/1994]',-0.021,83.150,0.400,-0.596
'[01:29:39.366 22/10/1994]',-0.024,83.150,0.400,-0.596
'[01:29:39.368 22/10/1994]',-0.028,80.700,0.336,-0.598
'[01:29:39.370 22/10/1994]',-0.031,80.700,0.336,-0.598
'[01:29:39.372 22/10/1994]',-0.035,80.700,0.336,-0.598
'[01:29:39.374 22/10/1994]',-0.039,80.700,0.336,-0.598
'[01:29:39.376 22/10/1994]',-0.043,78.700,0.269,-0.600
'[01:29:39.378 22/10/1994]',-0.048,78.700,0.269,-0.600
'[01:29:39.380 22/10/1994]',-0.051,78.700,0.269,-0.600
'[01:29:39.382 22/10/1994]',-0.054,78.700,0.269,-0.600
'[01:29:39.384 22/10/1994]',-0.054,77.050,0.206,-0.602
'[01:29:39.386 22/10/1994]',-0.054,77.050,0.206,-0.602
'[01:29:39.388 22/10/1994]',-0.052,77.050,0.206,-0.602
'[01:29:39.390 22/10/1994]',-0.051,77.050,0.206,-0.602
'[01:29:39.392 22/10/1994]',-0.050,75.900,0.142,-0.603
'[01:29:39.394 22/10/1994]',-0.048,75.900,0.142,-0.603
'[01:29:39.396 22/10/1994]',-0.049,75.900,0.142,-0.603
'[01:29:39.398 22/10/1994]',-0.049,75.900,0.142,-0.603
'[01:29:39.400 22/10/1994]',-0.051,75.400,0.075,-0.603
'[01:29:39.402 22/10/1994]',-0.052,75.400,0.075,-0.603
'[01:29:39.404 22/10/1994]',-0.054,75.400,0.075,-0.603
'[01:29:39.406 22/10/1994]',-0.056,75.400,0.075,-0.603
'[01:29:39.408 22/10/1994]',-0.058,75.400,0.012,-0.603
'[01:29:39.410 22/10/1994]',-0.060,75.400,0.012,-0.603
'[01:29:39.412 22/10/1994]',-0.061,75.400,0.012,-0.603
'[01:29:39.414 22/10/1994]',-0.062,75.400,0.012,-0.603
'[01:29:39.416 22/10/1994]',-0.062,75.750,-0.047,-0.603
'[01:29:39.418 22/10/1994]',-0.062,75.750,-0.047,-0.603
'[01:29:39.420 22/10/1994]',-0.060,75.750,-0.047,-0.603
'[01:29:39.422 22/10/1994]',-0.059,75.750,-0.047,-0.603
'[01:29:39.424 22/10/1994]',-0.056,76.600,-0.111,-0.602
'[01:29:39.426 22/10/1994]',-0.053,76.600,-0.111,-0.602
'[01:29:39.428 22/10/1994]',-0.049,76.600,-0.111,-0.602
'[01:29:39.430 22/10/1994]',-0.044,76.600,-0.111,-0.602
'[01:29:39.432 22/10/1994]',-0.035,77.700,-0.166,-0.600
'[01:29:39.434 22/10/1994]',-0.026,77.700,-0.166,-0.600
'[01:29:39.436 22/10/1994]',-0.013,77.700,-0.166,-0.600
'[01:29:39.438 22/10/1994]',-0.001,77.700,-0.166,-0.600
'[01:29:39.440 22/10/1994]',0.016,79.050,-0.217,-0.598
'[01:29:39.442 22/10/1994]',0.033,79.050,-0.217,-0.598
'[01:29:39.444 22/10/1994]',0.058,79.050,-0.217,-0.598
'[01:29:39.446 22/10/1994]',0.082,79.050,-0.217,-0.598
'[01:29:39.448 22/10/1994]',0.117,80.550,-0.269,-0.596
'[01:29:39.450 22/10/1994]',0.153,80.550,-0.269,-0.596
'[01:29:39.452 22/10/1994]',0.205,80.550,-0.269,-0.596
'[01:29:39.454 22/10/1994]',0.257,80.550,-0.269,-0.596
'[01:29:39.456 22/10/1994]',0.324,81.900,-0.316,-0.593
'[01:29:39.458 22/10/1994]',0.391,81.900,-0.316,-0.593
'[01:29:39.460 22/10/1994]',0.459,81.900,-0.316,-0.593
'[01:29:39.462 22/10/1994]',0.527,81.900,-0.316,-0.593
'[01:29:39.464 22/10/1994]',0.575,83.150,-0.347,-0.589
'[01:29:39.466 22/10/1994]',0.622,83.150,-0.347,-0.589
'[01:29:39.468 22/10/1994]',0.628,83.150,-0.347,-0.589
'[01:29:39.470 22/10/1994]',0.634,83.150,-0.347,-0.589
'[01:29:39.472 22/10/1994]',0.595,84.050,-0.380,-0.586
'[01:29:39.474 22/10/1994]',0.555,84.050,-0.380,-0.586
'[01:29:39.476 22/10/1994]',0.484,84.050,-0.380,-0.586
'[01:29:39.478 22/10/1994]',0.413,84.050,-0.380,-0.586
'[01:29:39.480 22/10/1994]',0.335,84.500,-0.395,-0.582
'[01:29:39.482 22/10/1994]',0.257,84.500,-0.395,-0.582
'[01:29:39.484 22/10/1994]',0.191,84.500,-0.395,-0.582
'[01:29:39.486 22/10/1994]',0.125,84.500,-0.395,-0.582
'[01:29:39.488 22/10/1994]',0.079,84.600,-0.403,-0.578
'[01:29:39.490 22/10/1994]',0.033,84.600,-0.403,-0.578
'[01:29:39.492 22/10/1994]',0.004,84.600,-0.403,-0.578
'[01:29:39.494 22/10/1994]',-0.024,84.600,-0.403,-0.578
'[01:29:39.496 22/10/1994]',-0.041,84.450,-0.407,-0.574
'[01:29:39.498 22/10/1994]',-0.057,84.450,-0.407,-0.574
'[01:29:39.500 22/10/1994]',-0.066,84.450,-0.407,-0.574
'[01:29:39.502 22/10/1994]',-0.075,84.450,-0.407,-0.574
'[01:29:39.504 22/10/1994]',-0.081,84.050,-0.399,-0.570
'[01:29:39.506 22/10/1994]',-0.086,84.050,-0.399,-0.570
'[01:29:39.508 22/10/1994]',-0.089,84.050,-0.399,-0.570
'[01:29:39.510 22/10/1994]',-0.093,84.050,-0.399,-0.570
'[01:29:39.512 22/10/1994]',-0.095,83.600,-0.380,-0.567
'[01:29:39.514 22/10/1994]',-0.097,83.600,-0.380,-0.567
'[01:29:39.516 22/10/1994]',-0.099,83.600,-0.380,-0.567
'[01:29:39.518 22/10/1994]',-0.100,83.600,-0.380,-0.567
'[01:29:39.520 22/10/1994]',-0.102,83.100,-0.359,-0.563
'[01:29:39.522 22/10/1994]',-0.103,83.100,-0.359,-0.563
'[01:29:39.524 22/10/1994]',-0.104,83.100,-0.359,-0.563
'[01:29:39.526 22/10/1994]',-0.106,83.100,-0.359,-0.563
'[01:29:39.528 22/10/1994]',-0.106,82.400,-0.336,-0.559
'[01:29:39.530 22/10/1994]',-0.107,82.400,-0.336,-0.559
'[01:29:39.532 22/10/1994]',-0.106,82.400,-0.336,-0.559
'[01:29:39.534 22/10/1994]',-0.106,82.400,-0.336,-0.559
'[01:29:39.536 22/10/1994]',-0.106,81.650,-0.312,-0.556
'[01:29:39.538 22/10/1994]',-0.107,81.650,-0.312,-0.556
'[01:29:39.540 22/10/1994]',-0.107,81.650,-0.312,-0.556
'[01:29:39.542 22/10/1994]',-0.108,81.650,-0.312,-0.556
'[01:29:39.544 22/10/1994]',-0.107,80.900,-0.288,-0.552
'[01:29:39.546 22/10/1994]',-0.107,80.900,-0.288,-0.552
'[01:29:39.548 22/10/1994]',-0.104,80.900,-0.288,-0.552
'[01:29:39.550 22/10/1994]',-0.102,80.900,-0.288,-0.552
'[01:29:39.552 22/10/1994]',-0.100,80.100,-0.261,-0.549
'[01:29:39.554 22/10/1994]',-0.097,80.100,-0.261,-0.549
'[01:29:39.556 22/10/1994]',-0.095,80.100,-0.261,-0.549
'[01:29:39.558 22/10/1994]',-0.092,80.100,-0.261,-0.549
'[01:29:39.560 22/10/1994]',-0.089,79.300,-0.241,-0.545
'[01:29:39.562 22/10/1994]',-0.087,79.300,-0.241,-0.545
'[01:29:39.564 22/10/1994]',-0.086,79.300,-0.241,-0.545
'[01:29:39.566 22/10/1994]',-0.084,79.300,-0.241,-0.545
'[01:29:39.568 22/10/1994]',-0.084,78.400,-0.229,-0.542
'[01:29:39.570 22/10/1994]',-0.083,78.400,-0.229,-0.542
'[01:29:39.572 22/10/1994]',-0.082,78.400,-0.229,-0.542
'[01:29:39.574 22/10/1994]',-0.080,78.400,-0.229,-0.542
'[01:29:39.576 22/10/1994]',-0.079,77.500,-0.221,-0.540
'[01:29:39.578 22/10/1994]',-0.077,77.500,-0.221,-0.540
'[01:29:39.580 22/10/1994]',-0.074,77.500,-0.221,-0.540
'[01:29:39.582 22/10/1994]',-0.072,77.500,-0.221,-0.540
'[01:29:39.584 22/10/1994]',-0.070,76.600,-0.221,-0.537
'[01:29:39.586 22/10/1994]',-0.069,76.600,-0.221,-0.537
'[01:29:39.588 22/10/1994]',-0.067,76.600,-0.221,-0.537
'[01:29:39.590 22/10/1994]',-0.065,76.600,-0.221,-0.537
'[01:29:39.592 22/10/1994]',-0.063,75.850,-0.228,-0.535
'[01:29:39.594 22/10/1994]',-0.061,75.850,-0.228,-0.535
'[01:29:39.596 22/10/1994]',-0.058,75.850,-0.228,-0.535
'[01:29:39.598 22/10/1994]',-0.054,75.850,-0.228,-0.535
'[01:29:39.600 22/10/1994]',-0.050,75.550,-0.239,-0.534
'[01:29:39.602 22/10/1994]',-0.046,75.550,-0.239,-0.534
'[01:29:39.604 22/10/1994]',-0.043,75.550,-0.239,-0.534
'[01:29:39.606 22/10/1994]',-0.039,75.550,-0.239,-0.534
'[01:29:39.608 22/10/1994]',-0.036,75.900,-0.255,-0.533
'[01:29:39.610 22/10/1994]',-0.033,75.900,-0.255,-0.533
'[01:29:39.612 22/10/1994]',-0.030,75.900,-0.255,-0.533
'[01:29:39.614 22/10/1994]',-0.028,75.900,-0.255,-0.533
'[01:29:39.616 22/10/1994]',-0.025,77.650,-0.274,-0.532
'[01:29:39.618 22/10/1994]',-0.021,77.650,-0.274,-0.532
'[01:29:39.620 22/10/1994]',-0.017,77.650,-0.274,-0.532
'[01:29:39.622 22/10/1994]',-0.013,77.650,-0.274,-0.532
'[01:29:39.624 22/10/1994]',-0.009,81.500,-0.289,-0.532
'[01:29:39.626 22/10/1994]',-0.006,81.500,-0.289,-0.532
'[01:29:39.628 22/10/1994]',-0.003,81.500,-0.289,-0.532
'[01:29:39.630 22/10/1994]',0.001,81.500,-0.289,-0.532
'[01:29:39.632 22/10/1994]',0.005,88.250,-0.312,-0.531
'[01:29:39.634 22/10/1994]',0.010,88.250,-0.312,-0.531
'[01:29:39.636 22/10/1994]',0.015,88.250,-0.312,-0.531
'[01:29:39.638 22/10/1994]',0.020,88.250,-0.312,-0.531
'[01:29:39.640 22/10/1994]',0.026,97.650,-0.332,-0.530
'[01:29:39.642 22/10/1994]',0.033,97.650,-0.332,-0.530
'[01:29:39.644 22/10/1994]',0.042,97.650,-0.332,-0.530
'[01:29:39.646 22/10/1994]',0.051,97.650,-0.332,-0.530
'[01:29:39.648 22/10/1994]',0.060,108.150,-0.351,-0.529
'[01:29:39.650 22/10/1994]',0.070,108.150,-0.351,-0.529
'[01:29:39.652 22/10/1994]',0.081,108.150,-0.351,-0.529
'[01:29:39.654 22/10/1994]',0.091,108.150,-0.351,-0.529
'[01:29:39.656 22/10/1994]',0.100,117.650,-0.363,-0.528
'[01:29:39.658 22/10/1994]',0.109,117.650,-0.363,-0.528
'[01:29:39.660 22/10/1994]',0.116,117.650,-0.363,-0.528
'[01:29:39.662 22/10/1994]',0.123,117.650,-0.363,-0.528
'[01:29:39.664 22/10/1994]',0.128,124.800,-0.363,-0.527
'[01:29:39.666 22/10/1994]',0.133,124.800,-0.363,-0.527
'[01:29:39.668 22/10/1994]',0.137,124.800,-0.363,-0.527
'[01:29:39.670 22/10/1994]',0.141,124.800,-0.363,-0.527
'[01:29:39.672 22/10/1994]',0.143,128.850,-0.351,-0.526
'[01:29:39.674 22/10/1994]',0.146,128.850,-0.351,-0.526
'[01:29:39.676 22/10/1994]',0.146,128.850,-0.351,-0.526
'[01:29:39.678 22/10/1994]',0.147,128.850,-0.351,-0.526
'[01:29:39.680 22/10/1994]',0.147,130.350,-0.321,-0.525
'[01:29:39.682 22/10/1994]',0.147,130.350,-0.321,-0.525
'[01:29:39.684 22/10/1994]',0.147,130.350,-0.321,-0.525
'[01:29:39.686 22/10/1994]',0.148,130.350,-0.321,-0.525
'[01:29:39.688 22/10/1994]',0.147,129.900,-0.278,-0.524
'[01:29:39.690 22/10/1994]',0.146,129.900,-0.278,-0.524
'[01:29:39.692 22/10/1994]',0.143,129.900,-0.278,-0.524
'[01:29:39.694 22/10/1994]',0.140,129.900,-0.278,-0.524
'[01:29:39.696 22/10/1994]',0.135,128.000,-0.204,-0.524
'[01:29:39.698 22/10/1994]',0.129,128.000,-0.204,-0.524
'[01:29:39.700 22/10/1994]',0.123,128.000,-0.204,-0.524
'[01:29:39.702 22/10/1994]',0.118,128.000,-0.204,-0.524
'[01:29:39.704 22/10/1994]',0.112,125.300,-0.112,-0.523
'[01:29:39.706 22/10/1994]',0.106,125.300,-0.112,-0.523
'[01:29:39.708 22/10/1994]',0.100,125.300,-0.112,-0.523
'[01:29:39.710 22/10/1994]',0.093,125.300,-0.112,-0.523
'[01:29:39.712 22/10/1994]',0.086,122.100,-0.007,-0.523
'[01:29:39.714 22/10/1994]',0.080,122.100,-0.007,-0.523
'[01:29:39.716 22/10/1994]',0.073,122.100,-0.007,-0.523
'[01:29:39.718 22/10/1994]',0.066,122.100,-0.007,-0.523
'[01:29:39.720 22/10/1994]',0.059,118.800,0.108,-0.522
'[01:29:39.722 22/10/1994]',0.052,118.800,0.108,-0.522
'[01:29:39.724 22/10/1994]',0.044,118.800,0.108,-0.522
'[01:29:39.726 22/10/1994]',0.036,118.800,0.108,-0.522
'[01:29:39.728 22/10/1994]',0.029,115.650,0.228,-0.522
'[01:29:39.730 22/10/1994]',0.023,115.650,0.228,-0.522
'[01:29:39.732 22/10/1994]',0.018,115.650,0.228,-0.522
'[01:29:39.734 22/10/1994]',0.012,115.650,0.228,-0.522
'[01:29:39.736 22/10/1994]',0.006,112.850,0.347,-0.522
'[01:29:39.738 22/10/1994]',0.001,112.850,0.347,-0.522
'[01:29:39.740 22/10/1994]',-0.004,112.850,0.347,-0.522
'[01:29:39.742 22/10/1994]',-0.009,112.850,0.347,-0.522
'[01:29:39.744 22/10/1994]',-0.013,110.250,0.456,-0.523
'[01:29:39.746 22/10/1994]',-0.018,110.250,0.456,-0.523
'[01:29:39.748 22/10/1994]',-0.022,110.250,0.456,-0.523
'[01:29:39.750 22/10/1994]',-0.027,110.250,0.456,-0.523
'[01:29:39.752 22/10/1994]',-0.031,107.850,0.536,-0.523
'[01:29:39.754 22/10/1994]',-0.035,107.850,0.536,-0.523
'[01:29:39.756 22/10/1994]',-0.038,107.850,0.536,-0.523
'[01:29:39.758 22/10/1994]',-0.042,107.850,0.536,-0.523
'[01:29:39.760 22/10/1994]',-0.045,105.650,0.606,-0.524
'[01:29:39.762 22/10/1994]',-0.049,105.650,0.606,-0.524
'[01:29:39.764 22/10/1994]',-0.051,105.650,0.606,-0.524
'[01:29:39.766 22/10/1994]',-0.054,105.650,0.606,-0.524
'[01:29:39.768 22/10/1994]',-0.057,103.700,0.644,-0.524
'[01:29:39.770 22/10/1994]',-0.059,103.700,0.644,-0.524
'[01:29:39.772 22/10/1994]',-0.061,103.700,0.644,-0.524
'[01:29:39.774 22/10/1994]',-0.063,103.700,0.644,-0.524
'[01:29:39.776 22/10/1994]',-0.063,101.850,0.664,-0.524
'[01:29:39.778 22/10/1994]',-0.063,101.850,0.664,-0.524
'[01:29:39.780 22/10/1994]',-0.063,101.850,0.664,-0.524
'[01:29:39.782 22/10/1994]',-0.063,101.850,0.664,-0.524
'[01:29:39.784 22/10/1994]',-0.062,99.950,0.660,-0.524
'[01:29:39.786 22/10/1994]',-0.062,99.950,0.660,-0.524
'[01:29:39.788 22/10/1994]',-0.060,99.950,0.660,-0.524
'[01:29:39.790 22/10/1994]',-0.058,99.950,0.660,-0.524
'[01:29:39.792 22/10/1994]',-0.054,98.000,0.637,-0.524
'[01:29:39.794 22/10/1994]',-0.051,98.000,0.637,-0.524
'[01:29:39.796 22/10/1994]',-0.049,98.000,0.637,-0.524
'[01:29:39.798 22/10/1994]',-0.046,98.000,0.637,-0.524
'[01:29:39.800 22/10/1994]',-0.044,95.700,0.598,-0.525
'[01:29:39.802 22/10/1994]',-0.043,95.700,0.598,-0.525
'[01:29:39.804 22/10/1994]',-0.042,95.700,0.598,-0.525
'[01:29:39.806 22/10/1994]',-0.040,95.700,0.598,-0.525
'[01:29:39.808 22/10/1994]',-0.038,93.200,0.548,-0.525
'[01:29:39.810 22/10/1994]',-0.036,93.200,0.548,-0.525
'[01:29:39.812 22/10/1994]',-0.034,93.200,0.548,-0.525
'[01:29:39.814 22/10/1994]',-0.032,93.200,0.548,-0.525
'[01:29:39.816 22/10/1994]',-0.031,90.500,0.490,-0.526
'[01:29:39.818 22/10/1994]',-0.030,90.500,0.490,-0.526
'[01:29:39.820 22/10/1994]',-0.030,90.500,0.490,-0.526
'[01:29:39.822 22/10/1994]',-0.030,90.500,0.490,-0.526
'[01:29:39.824 22/10/1994]',-0.032,87.750,0.424,-0.527
'[01:29:39.826 22/10/1994]',-0.033,87.750,0.424,-0.527
'[01:29:39.828 22/10/1994]',-0.034,87.750,0.424,-0.527
'[01:29:39.830 22/10/1994]',-0.035,87.750,0.424,-0.527
'[01:29:39.832 22/10/1994]',-0.036,84.950,0.359,-0.529
'[01:29:39.834 22/10/1994]',-0.037,84.950,0.359,-0.529
'[01:29:39.836 22/10/1994]',-0.038,84.950,0.359,-0.529
'[01:29:39.838 22/10/1994]',-0.040,84.950,0.359,-0.529
'[01:29:39.840 22/10/1994]',-0.041,82.550,0.293,-0.531
'[01:29:39.842 22/10/1994]',-0.042,82.550,0.293,-0.531
'[01:29:39.844 22/10/1994]',-0.043,82.550,0.293,-0.531
'[01:29:39.846 22/10/1994]',-0.044,82.550,0.293,-0.531
'[01:29:39.848 22/10/1994]',-0.046,80.550,0.232,-0.533
'[01:29:39.850 22/10/1994]',-0.048,80.550,0.232,-0.533
'[01:29:39.852 22/10/1994]',-0.048,80.550,0.232,-0.533
'[01:29:39.854 22/10/1994]',-0.048,80.550,0.232,-0.533
'[01:29:39.856 22/10/1994]',-0.049,79.000,0.166,-0.534
'[01:29:39.858 22/10/1994]',-0.049,79.000,0.166,-0.534
'[01:29:39.860 22/10/1994]',-0.050,79.000,0.166,-0.534
'[01:29:39.862 22/10/1994]',-0.051,79.000,0.166,-0.534
'[01:29:39.864 22/10/1994]',-0.051,78.000,0.108,-0.536
'[01:29:39.866 22/10/1994]',-0.052,78.000,0.108,-0.536
'[01:29:39.868 22/10/1994]',-0.052,78.000,0.108,-0.536
'[01:29:39.870 22/10/1994]',-0.053,78.000,0.108,-0.536
'[01:29:39.872 22/10/1994]',-0.054,77.650,0.043,-0.537
'[01:29:39.874 22/10/1994]',-0.055,77.650,0.043,-0.537
'[01:29:39.876 22/10/1994]',-0.057,77.650,0.043,-0.537
'[01:29:39.878 22/10/1994]',-0.059,77.650,0.043,-0.537
'[01:29:39.880 22/10/1994]',-0.061,77.650,-0.015,-0.539
'[01:29:39.882 22/10/1994]',-0.064,77.650,-0.015,-0.539
'[01:29:39.884 22/10/1994]',-0.066,77.650,-0.015,-0.539
'[01:29:39.886 22/10/1994]',-0.067,77.650,-0.015,-0.539
'[01:29:39.888 22/10/1994]',-0.068,77.850,-0.073,-0.540
'[01:29:39.890 22/10/1994]',-0.069,77.850,-0.073,-0.540
'[01:29:39.892 22/10/1994]',-0.069,77.850,-0.073,-0.540
'[01:29:39.894 22/10/1994]',-0.068,77.850,-0.073,-0.540
'[01:29:39.896 22/10/1994]',-0.065,78.400,-0.131,-0.541
'[01:29:39.898 22/10/1994]',-0.061,78.400,-0.131,-0.541
'[01:29:39.900 22/10/1994]',-0.053,78.400,-0.131,-0.541
'[01:29:39.902 22/10/1994]',-0.046,78.400,-0.131,-0.541
'[01:29:39.904 22/10/1994]',-0.035,79.150,-0.189,-0.542
'[01:29:39.906 22/10/1994]',-0.024,79.150,-0.189,-0.542
'[01:29:39.908 22/10/1994]',-0.007,79.150,-0.189,-0.542
'[01:29:39.910 22/10/1994]',0.010,79.150,-0.189,-0.542
'[01:29:39.912 22/10/1994]',0.035,80.100,-0.239,-0.543
'[01:29:39.914 22/10/1994]',0.060,80.100,-0.239,-0.543
'[01:29:39.916 22/10/1994]',0.095,80.100,-0.239,-0.543
'[01:29:39.918 22/10/1994]',0.129,80.100,-0.239,-0.543
'[01:29:39.920 22/10/1994]',0.176,81.200,-0.285,-0.544
'[01:29:39.922 22/10/1994]',0.223,81.200,-0.285,-0.544
'[01:29:39.924 22/10/1994]',0.283,81.200,-0.285,-0.544
'[01:29:39.926 22/10/1994]',0.343,81.200,-0.285,-0.544
'[01:29:39.928 22/10/1994]',0.411,82.250,-0.328,-0.545
'[01:29:39.930 22/10/1994]',0.480,82.250,-0.328,-0.545
'[01:29:39.932 22/10/1994]',0.540,82.250,-0.328,-0.545
'[01:29:39.934 22/10/1994]',0.600,82.250,-0.328,-0.545
'[01:29:39.936 22/10/1994]',0.629,83.100,-0.363,-0.546
'[01:29:39.938 22/10/1994]',0.658,83.100,-0.363,-0.546
'[01:29:39.940 22/10/1994]',0.642,83.100,-0.363,-0.546
'[01:29:39.942 22/10/1994]',0.626,83.100,-0.363,-0.546
'[01:29:39.944 22/10/1994]',0.568,83.550,-0.394,-0.546
'[01:29:39.946 22/10/1994]',0.509,83.550,-0.394,-0.546
'[01:29:39.948 22/10/1994]',0.428,83.550,-0.394,-0.546
'[01:29:39.950 22/10/1994]',0.347,83.550,-0.394,-0.546
'[01:29:39.952 22/10/1994]',0.269,83.750,-0.413,-0.547
'[01:29:39.954 22/10/1994]',0.191,83.750,-0.413,-0.547
'[01:29:39.956 22/10/1994]',0.131,83.750,-0.413,-0.547
'[01:29:39.958 22/10/1994]',0.071,83.750,-0.413,-0.547
'[01:29:39.960 22/10/1994]',0.032,83.550,-0.420,-0.547
'[01:29:39.962 22/10/1994]',-0.008,83.550,-0.420,-0.547
'[01:29:39.964 22/10/1994]',-0.031,83.550,-0.420,-0.547
'[01:29:39.966 22/10/1994]',-0.054,83.550,-0.420,-0.547
'[01:29:39.968 22/10/1994]',-0.067,83.150,-0.428,-0.546
'[01:29:39.970 22/10/1994]',-0.079,83.150,-0.428,-0.546
'[01:29:39.972 22/10/1994]',-0.087,83.150,-0.428,-0.546
'[01:29:39.974 22/10/1994]',-0.095,83.150,-0.428,-0.546
'[01:29:39.976 22/10/1994]',-0.100,82.550,-0.428,-0.546
'[01:29:39.978 22/10/1994]',-0.105,82.550,-0.428,-0.546
'[01:29:39.980 22/10/1994]',-0.108,82.550,-0.428,-0.546
'[01:29:39.982 22/10/1994]',-0.111,82.550,-0.428,-0.546
'[01:29:39.984 22/10/1994]',-0.113,81.800,-0.420,-0.545
'[01:29:39.986 22/10/1994]',-0.115,81.800,-0.420,-0.545
'[01:29:39.988 22/10/1994]',-0.116,81.800,-0.420,-0.545
'[01:29:39.990 22/10/1994]',-0.116,81.800,-0.420,-0.545
'[01:29:39.992 22/10/1994]',-0.116,80.900,-0.405,-0.545
'[01:29:39.994 22/10/1994]',-0.116,80.900,-0.405,-0.545
'[01:29:39.996 22/10/1994]',-0.116,80.900,-0.405,-0.545
'[01:29:39.998 22/10/1994]',-0.116,80.900,-0.405,-0.545
'[01:29:40.000 22/10/1994]',-0.116,80.000,-0.386,-0.544
'[01:29:40.002 22/10/1994]',-0.116,80.000,-0.386,-0.544
'[01:29:40.004 22/10/1994]',-0.115,80.000,-0.386,-0.544
'[01:29:40.006 22/10/1994]',-0.114,80.000,-0.386,-0.544
'[01:29:40.008 22/10/1994]',-0.114,79.050,-0.374,-0.544
'[01:29:40.010 22/10/1994]',-0.113,79.050,-0.374,-0.544
'[01:29:40.012 22/10/1994]',-0.114,79.050,-0.374,-0.544
'[01:29:40.014 22/10/1994]',-0.114,79.050,-0.374,-0.544
'[01:29:40.016 22/10/1994]',-0.114,78.150,-0.363,-0.544
'[01:29:40.018 22/10/1994]',-0.113,78.150,-0.363,-0.544
'[01:29:40.020 22/10/1994]',-0.112,78.150,-0.363,-0.544
'[01:29:40.022 22/10/1994]',-0.110,78.150,-0.363,-0.544
'[01:29:40.024 22/10/1994]',-0.107,77.250,-0.351,-0.544
'[01:29:40.026 22/10/1994]',-0.104,77.250,-0.351,-0.544
'[01:29:40.028 22/10/1994]',-0.102,77.250,-0.351,-0.544
'[01:29:40.030 22/10/1994]',-0.099,77.250,-0.351,-0.544
'[01:29:40.032 22/10/1994]',-0.096,76.300,-0.344,-0.544
'[01:29:40.034 22/10/1994]',-0.093,76.300,-0.344,-0.544
'[01:29:40.036 22/10/1994]',-0.091,76.300,-0.344,-0.544
'[01:29:40.038 22/10/1994]',-0.089,76.300,-0.344,-0.544
'[01:29:40.040 22/10/1994]',-0.087,75.450,-0.340,-0.544
'[01:29:40.042 22/10/1994]',-0.086,75.450,-0.340,-0.544
'[01:29:40.044 22/10/1994]',-0.085,75.450,-0.340,-0.544
'[01:29:40.046 22/10/1994]',-0.084,75.450,-0.340,-0.544
'[01:29:40.048 22/10/1994]',-0.082,74.650,-0.344,-0.545
'[01:29:40.050 22/10/1994]',-0.080,74.650,-0.344,-0.545
'[01:29:40.052 22/10/1994]',-0.078,74.650,-0.344,-0.545
'[01:29:40.054 22/10/1994]',-0.076,74.650,-0.344,-0.545
'[01:29:40.056 22/10/1994]',-0.074,73.900,-0.351,-0.545
'[01:29:40.058 22/10/1994]',-0.072,73.900,-0.351,-0.545
'[01:29:40.060 22/10/1994]',-0.070,73.900,-0.351,-0.545
'[01:29:40.062 22/10/1994]',-0.069,73.900,-0.351,-0.545
'[01:29:40.064 22/10/1994]',-0.067,73.350,-0.363,-0.546
'[01:29:40.066 22/10/1994]',-0.064,73.350,-0.363,-0.546
'[01:29:40.068 22/10/1994]',-0.061,73.350,-0.363,-0.546
'[01:29:40.070 22/10/1994]',-0.058,73.350,-0.363,-0.546
'[01:29:40.072 22/10/1994]',-0.054,73.000,-0.378,-0.547
'[01:29:40.074 22/10/1994]',-0.050,73.000,-0.378,-0.547
'[01:29:40.076 22/10/1994]',-0.046,73.000,-0.378,-0.547
'[01:29:40.078 22/10/1994]',-0.042,73.000,-0.378,-0.547
'[01:29:40.080 22/10/1994]',-0.039,73.000,-0.398,-0.549
'[01:29:40.082 22/10/1994]',-0.036,73.000,-0.398,-0.549
'[01:29:40.084 22/10/1994]',-0.034,73.000,-0.398,-0.549
'[01:29:40.086 22/10/1994]',-0.031,73.000,-0.398,-0.549
'[01:29:40.088 22/10/1994]',-0.028,73.750,-0.424,-0.551
'[01:29:40.090 22/10/1994]',-0.024,73.750,-0.424,-0.551
'[01:29:40.092 22/10/1994]',-0.021,73.750,-0.424,-0.551
'[01:29:40.094 22/10/1994]',-0.017,73.750,-0.424,-0.551
'[01:29:40.096 22/10/1994]',-0.012,75.850,-0.448,-0.554
'[01:29:40.098 22/10/1994]',-0.007,75.850,-0.448,-0.554
'[01:29:40.100 22/10/1994]',-0.001,75.850,-0.448,-0.554
'[01:29:40.102 22/10/1994]',0.005,75.850,-0.448,-0.554
'[01:29:40.104 22/10/1994]',0.011,80.100,-0.504,-0.557
'[01:29:40.106 22/10/1994]',0.017,80.100,-0.504,-0.557
'[01:29:40.108 22/10/1994]',0.022,80.100,-0.504,-0.557
'[01:29:40.110 22/10/1994]',0.028,80.100,-0.504,-0.557
'[01:29:40.112 22/10/1994]',0.034,87.000,-0.527,-0.560
'[01:29:40.114 22/10/1994]',0.039,87.000,-0.527,-0.560
'[01:29:40.116 22/10/1994]',0.046,87.000,-0.527,-0.560
'[01:29:40.118 22/10/1994]',0.054,87.000,-0.527,-0.560
'[01:29:40.120 22/10/1994]',0.062,96.050,-0.546,-0.562
'[01:29:40.122 22/10/1994]',0.070,96.050,-0.546,-0.562
'[01:29:40.124 22/10/1994]',0.079,96.050,-0.546,-0.562
'[01:29:40.126 22/10/1994]',0.087,96.050,-0.546,-0.562
'[01:29:40.128 22/10/1994]',0.095,105.600,-0.565,-0.564
'[01:29:40.130 22/10/1994]',0.103,105.600,-0.565,-0.564
'[01:29:40.132 22/10/1994]',0.111,105.600,-0.565,-0.564
'[01:29:40.134 22/10/1994]',0.119,105.600,-0.565,-0.564
'[01:29:40.136 22/10/1994]',0.124,113.900,-0.577,-0.565
'[01:29:40.138 22/10/1994]',0.130,113.900,-0.577,-0.565
'[01:29:40.140 22/10/1994]',0.134,113.900,-0.577,-0.565
'[01:29:40.142 22/10/1994]',0.137,113.900,-0.577,-0.565
'[01:29:40.144 22/10/1994]',0.140,119.850,-0.573,-0.566
'[01:29:40.146 22/10/1994]',0.143,119.850,-0.573,-0.566
'[01:29:40.148 22/10/1994]',0.144,119.850,-0.573,-0.566
'[01:29:40.150 22/10/1994]',0.146,119.850,-0.573,-0.566
'[01:29:40.152 22/10/1994]',0.146,123.000,-0.554,-0.567
'[01:29:40.154 22/10/1994]',0.146,123.000,-0.554,-0.567
'[01:29:40.156 22/10/1994]',0.144,123.000,-0.554,-0.567
'[01:29:40.158 22/10/1994]',0.142,123.000,-0.554,-0.567
'[01:29:40.160 22/10/1994]',0.140,123.900,-0.519,-0.568
'[01:29:40.162 22/10/1994]',0.137,123.900,-0.519,-0.568
'[01:29:40.164 22/10/1994]',0.134,123.900,-0.519,-0.568
'[01:29:40.166 22/10/1994]',0.130,123.900,-0.519,-0.568
'[01:29:40.168 22/10/1994]',0.126,123.150,-0.466,-0.568
'[01:29:40.170 22/10/1994]',0.121,123.150,-0.466,-0.568
'[01:29:40.172 22/10/1994]',0.116,123.150,-0.466,-0.568
'[01:29:40.174 22/10/1994]',0.111,123.150,-0.466,-0.568
'[01:29:40.176 22/10/1994]',0.105,121.250,-0.397,-0.568
'[01:29:40.178 22/10/1994]',0.099,121.250,-0.397,-0.568
'[01:29:40.180 22/10/1994]',0.093,121.250,-0.397,-0.568
'[01:29:40.182 22/10/1994]',0.088,121.250,-0.397,-0.568
'[01:29:40.184 22/10/1994]',0.081,118.800,-0.309,-0.568
'[01:29:40.186 22/10/1994]',0.074,118.800,-0.309,-0.568
'[01:29:40.188 22/10/1994]',0.067,118.800,-0.309,-0.568
'[01:29:40.190 22/10/1994]',0.059,118.800,-0.309,-0.568
'[01:29:40.192 22/10/1994]',0.051,115.950,-0.210,-0.568
'[01:29:40.194 22/10/1994]',0.043,115.950,-0.210,-0.568
'[01:29:40.196 22/10/1994]',0.035,115.950,-0.210,-0.568
'[01:29:40.198 22/10/1994]',0.027,115.950,-0.210,-0.568
'[01:29:40.200 22/10/1994]',0.021,113.000,-0.096,-0.568
'[01:29:40.202 22/10/1994]',0.016,113.000,-0.096,-0.568
'[01:29:40.204 22/10/1994]',0.012,113.000,-0.096,-0.568
'[01:29:40.206 22/10/1994]',0.008,113.000,-0.096,-0.568
'[01:29:40.208 22/10/1994]',0.004,110.100,0.011,-0.568
'[01:29:40.210 22/10/1994]',0.001,110.100,0.011,-0.568
'[01:29:40.212 22/10/1994]',-0.003,110.100,0.011,-0.568
'[01:29:40.214 22/10/1994]',-0.007,110.100,0.011,-0.568
'[01:29:40.216 22/10/1994]',-0.011,107.450,0.118,-0.568
'[01:29:40.218 22/10/1994]',-0.015,107.450,0.118,-0.568
'[01:29:40.220 22/10/1994]',-0.019,107.450,0.118,-0.568
'[01:29:40.222 22/10/1994]',-0.023,107.450,0.118,-0.568
'[01:29:40.224 22/10/1994]',-0.028,105.000,0.214,-0.567
'[01:29:40.226 22/10/1994]',-0.032,105.000,0.214,-0.567
'[01:29:40.228 22/10/1994]',-0.035,105.000,0.214,-0.567
'[01:29:40.230 22/10/1994]',-0.039,105.000,0.214,-0.567
'[01:29:40.232 22/10/1994]',-0.042,102.500,0.290,-0.567
'[01:29:40.234 22/10/1994]',-0.045,102.500,0.290,-0.567
'[01:29:40.236 22/10/1994]',-0.049,102.500,0.290,-0.567
'[01:29:40.238 22/10/1994]',-0.052,102.500,0.290,-0.567
'[01:29:40.240 22/10/1994]',-0.054,100.350,0.344,-0.566
'[01:29:40.242 22/10/1994]',-0.056,100.350,0.344,-0.566
'[01:29:40.244 22/10/1994]',-0.056,100.350,0.344,-0.566
'[01:29:40.246 22/10/1994]',-0.056,100.350,0.344,-0.566
'[01:29:40.248 22/10/1994]',-0.056,98.250,0.379,-0.566
'[01:29:40.250 22/10/1994]',-0.055,98.250,0.379,-0.566
'[01:29:40.252 22/10/1994]',-0.054,98.250,0.379,-0.566
'[01:29:40.254 22/10/1994]',-0.054,98.250,0.379,-0.566
'[01:29:40.256 22/10/1994]',-0.053,96.150,0.390,-0.565
'[01:29:40.258 22/10/1994]',-0.052,96.150,0.390,-0.565
'[01:29:40.260 22/10/1994]',-0.051,96.150,0.390,-0.565
'[01:29:40.262 22/10/1994]',-0.050,96.150,0.390,-0.565
'[01:29:40.264 22/10/1994]',-0.049,93.900,0.379,-0.565
'[01:29:40.266 22/10/1994]',-0.047,93.900,0.379,-0.565
'[01:29:40.268 22/10/1994]',-0.045,93.900,0.379,-0.565
'[01:29:40.270 22/10/1994]',-0.043,93.900,0.379,-0.565
'[01:29:40.272 22/10/1994]',-0.042,91.500,0.351,-0.565
'[01:29:40.274 22/10/1994]',-0.040,91.500,0.351,-0.565
'[01:29:40.276 22/10/1994]',-0.038,91.500,0.351,-0.565
'[01:29:40.278 22/10/1994]',-0.036,91.500,0.351,-0.565
'[01:29:40.280 22/10/1994]',-0.034,88.800,0.318,-0.565
'[01:29:40.282 22/10/1994]',-0.031,88.800,0.318,-0.565
'[01:29:40.284 22/10/1994]',-0.028,88.800,0.318,-0.565
'[01:29:40.286 22/10/1994]',-0.024,88.800,0.318,-0.565
'[01:29:40.288 22/10/1994]',-0.021,86.000,0.264,-0.566
'[01:29:40.290 22/10/1994]',-0.018,86.000,0.264,-0.566
'[01:29:40.292 22/10/1994]',-0.015,86.000,0.264,-0.566
'[01:29:40.294 22/10/1994]',-0.013,86.000,0.264,-0.566
'[01:29:40.296 22/10/1994]',-0.012,83.150,0.206,-0.567
'[01:29:40.298 22/10/1994]',-0.011,83.150,0.206,-0.567
'[01:29:40.300 22/10/1994]',-0.012,83.150,0.206,-0.567
'[01:29:40.302 22/10/1994]',-0.013,83.150,0.206,-0.567
'[01:29:40.304 22/10/1994]',-0.017,80.400,0.141,-0.568
'[01:29:40.306 22/10/1994]',-0.020,80.400,0.141,-0.568
'[01:29:40.308 22/10/1994]',-0.024,80.400,0.141,-0.568
'[01:29:40.310 22/10/1994]',-0.027,80.400,0.141,-0.568
'[01:29:40.312 22/10/1994]',-0.029,77.950,0.081,-0.569
'[01:29:40.314 22/10/1994]',-0.032,77.950,0.081,-0.569
'[01:29:40.316 22/10/1994]',-0.034,77.950,0.081,-0.569
'[01:29:40.318 22/10/1994]',-0.036,77.950,0.081,-0.569
'[01:29:40.320 22/10/1994]',-0.037,75.750,0.011,-0.570
'[01:29:40.322 22/10/1994]',-0.038,75.750,0.011,-0.570
'[01:29:40.324 22/10/1994]',-0.039,75.750,0.011,-0.570
'[01:29:40.326 22/10/1994]',-0.040,75.750,0.011,-0.570
'[01:29:40.328 22/10/1994]',-0.041,74.200,-0.050,-0.570
'[01:29:40.330 22/10/1994]',-0.042,74.200,-0.050,-0.570
'[01:29:40.332 22/10/1994]',-0.043,74.200,-0.050,-0.570
'[01:29:40.334 22/10/1994]',-0.043,74.200,-0.050,-0.570
'[01:29:40.336 22/10/1994]',-0.044,73.200,-0.115,-0.570
'[01:29:40.338 22/10/1994]',-0.045,73.200,-0.115,-0.570
'[01:29:40.340 22/10/1994]',-0.046,73.200,-0.115,-0.570
'[01:29:40.342 22/10/1994]',-0.048,73.200,-0.115,-0.570
'[01:29:40.344 22/10/1994]',-0.048,72.850,-0.175,-0.570
'[01:29:40.346 22/10/1994]',-0.048,72.850,-0.175,-0.570
'[01:29:40.348 22/10/1994]',-0.049,72.850,-0.175,-0.570
'[01:29:40.350 22/10/1994]',-0.049,72.850,-0.175,-0.570
'[01:29:40.352 22/10/1994]',-0.050,72.850,-0.240,-0.568
'[01:29:40.354 22/10/1994]',-0.051,72.850,-0.240,-0.568
'[01:29:40.356 22/10/1994]',-0.052,72.850,-0.240,-0.568
'[01:29:40.358 22/10/1994]',-0.053,72.850,-0.240,-0.568
'[01:29:40.360 22/10/1994]',-0.054,73.300,-0.305,-0.567
'[01:29:40.362 22/10/1994]',-0.055,73.300,-0.305,-0.567
'[01:29:40.364 22/10/1994]',-0.055,73.300,-0.305,-0.567
'[01:29:40.366 22/10/1994]',-0.055,73.300,-0.305,-0.567
'[01:29:40.368 22/10/1994]',-0.054,73.950,-0.362,-0.565
'[01:29:40.370 22/10/1994]',-0.054,73.950,-0.362,-0.565
'[01:29:40.372 22/10/1994]',-0.051,73.950,-0.362,-0.565
'[01:29:40.374 22/10/1994]',-0.048,73.950,-0.362,-0.565
'[01:29:40.376 22/10/1994]',-0.041,74.950,-0.420,-0.562
'[01:29:40.378 22/10/1994]',-0.033,74.950,-0.420,-0.562
'[01:29:40.380 22/10/1994]',-0.020,74.950,-0.420,-0.562
'[01:29:40.382 22/10/1994]',-0.007,74.950,-0.420,-0.562
'[01:29:40.384 22/10/1994]',0.011,76.050,-0.469,-0.559
'[01:29:40.386 22/10/1994]',0.030,76.050,-0.469,-0.559
'[01:29:40.388 22/10/1994]',0.052,76.050,-0.469,-0.559
'[01:29:40.390 22/10/1994]',0.075,76.050,-0.469,-0.559
'[01:29:40.392 22/10/1994]',0.106,77.350,-0.519,-0.556
'[01:29:40.394 22/10/1994]',0.138,77.350,-0.519,-0.556
'[01:29:40.396 22/10/1994]',0.182,77.350,-0.519,-0.556
'[01:29:40.398 22/10/1994]',0.227,77.350,-0.519,-0.556
'[01:29:40.400 22/10/1994]',0.285,78.450,-0.561,-0.552
'[01:29:40.402 22/10/1994]',0.344,78.450,-0.561,-0.552
'[01:29:40.404 22/10/1994]',0.409,78.450,-0.561,-0.552
'[01:29:40.406 22/10/1994]',0.474,78.450,-0.561,-0.552
'[01:29:40.408 22/10/1994]',0.526,79.500,-0.596,-0.547
'[01:29:40.410 22/10/1994]',0.578,79.500,-0.596,-0.547
'[01:29:40.412 22/10/1994]',0.597,79.500,-0.596,-0.547
'[01:29:40.414 22/10/1994]',0.616,79.500,-0.596,-0.547
'[01:29:40.416 22/10/1994]',0.594,80.250,-0.626,-0.542
'[01:29:40.418 22/10/1994]',0.571,80.250,-0.626,-0.542
'[01:29:40.420 22/10/1994]',0.514,80.250,-0.626,-0.542
'[01:29:40.422 22/10/1994]',0.458,80.250,-0.626,-0.542
'[01:29:40.424 22/10/1994]',0.388,80.750,-0.641,-0.536
'[01:29:40.426 22/10/1994]',0.317,80.750,-0.641,-0.536
'[01:29:40.428 22/10/1994]',0.252,80.750,-0.641,-0.536
'[01:29:40.430 22/10/1994]',0.186,80.750,-0.641,-0.536
'[01:29:40.432 22/10/1994]',0.135,80.900,-0.653,-0.532
'[01:29:40.434 22/10/1994]',0.083,80.900,-0.653,-0.532
'[01:29:40.436 22/10/1994]',0.046,80.900,-0.653,-0.532
'[01:29:40.438 22/10/1994]',0.010,80.900,-0.653,-0.532
'[01:29:40.440 22/10/1994]',-0.014,80.850,-0.649,-0.528
'[01:29:40.442 22/10/1994]',-0.038,80.850,-0.649,-0.528
'[01:29:40.444 22/10/1994]',-0.051,80.850,-0.649,-0.528
'[01:29:40.446 22/10/1994]',-0.064,80.850,-0.649,-0.528
'[01:29:40.448 22/10/1994]',-0.070,80.600,-0.641,-0.524
'[01:29:40.450 22/10/1994]',-0.077,80.600,-0.641,-0.524
'[01:29:40.452 22/10/1994]',-0.080,80.600,-0.641,-0.524
'[01:29:40.454 22/10/1994]',-0.082,80.600,-0.641,-0.524
'[01:29:40.456 22/10/1994]',-0.083,80.100,-0.630,-0.521
'[01:29:40.458 22/10/1994]',-0.084,80.100,-0.630,-0.521
'[01:29:40.460 22/10/1994]',-0.085,80.100,-0.630,-0.521
'[01:29:40.462 22/10/1994]',-0.086,80.100,-0.630,-0.521
'[01:29:40.464 22/10/1994]',-0.087,79.500,-0.607,-0.517
'[01:29:40.466 22/10/1994]',-0.088,79.500,-0.607,-0.517
'[01:29:40.468 22/10/1994]',-0.090,79.500,-0.607,-0.517
'[01:29:40.470 22/10/1994]',-0.093,79.500,-0.607,-0.517
'[01:29:40.472 22/10/1994]',-0.094,79.000,-0.585,-0.513
'[01:29:40.474 22/10/1994]',-0.095,79.000,-0.585,-0.513
'[01:29:40.476 22/10/1994]',-0.096,79.000,-0.585,-0.513
'[01:29:40.478 22/10/1994]',-0.096,79.000,-0.585,-0.513
'[01:29:40.480 22/10/1994]',-0.096,78.300,-0.557,-0.508
'[01:29:40.482 22/10/1994]',-0.096,78.300,-0.557,-0.508
'[01:29:40.484 22/10/1994]',-0.096,78.300,-0.557,-0.508
'[01:29:40.486 22/10/1994]',-0.095,78.300,-0.557,-0.508
'[01:29:40.488 22/10/1994]',-0.095,77.650,-0.534,-0.504
'[01:29:40.490 22/10/1994]',-0.094,77.650,-0.534,-0.504
'[01:29:40.492 22/10/1994]',-0.093,77.650,-0.534,-0.504
'[01:29:40.494 22/10/1994]',-0.092,77.650,-0.534,-0.504
'[01:29:40.496 22/10/1994]',-0.089,76.800,-0.511,-0.500
'[01:29:40.498 22/10/1994]',-0.087,76.800,-0.511,-0.500
'[01:29:40.500 22/10/1994]',-0.084,76.800,-0.511,-0.500
'[01:29:40.502 22/10/1994]',-0.080,76.800,-0.511,-0.500
'[01:29:40.504 22/10/1994]',-0.079,75.900,-0.492,-0.496
'[01:29:40.506 22/10/1994]',-0.077,75.900,-0.492,-0.496
'[01:29:40.508 22/10/1994]',-0.076,75.900,-0.492,-0.496
'[01:29:40.510 22/10/1994]',-0.075,75.900,-0.492,-0.496
'[01:29:40.512 22/10/1994]',-0.074,75.000,-0.481,-0.492
'[01:29:40.514 22/10/1994]',-0.073,75.000,-0.481,-0.492
'[01:29:40.516 22/10/1994]',-0.071,75.000,-0.481,-0.492
'[01:29:40.518 22/10/1994]',-0.069,75.000,-0.481,-0.492
'[01:29:40.520 22/10/1994]',-0.068,74.050,-0.469,-0.488
'[01:29:40.522 22/10/1994]',-0.066,74.050,-0.469,-0.488
'[01:29:40.524 22/10/1994]',-0.066,74.050,-0.469,-0.488
'[01:29:40.526 22/10/1994]',-0.065,74.050,-0.469,-0.488
'[01:29:40.528 22/10/1994]',-0.064,73.300,-0.469,-0.484
'[01:29:40.530 22/10/1994]',-0.063,73.300,-0.469,-0.484
'[01:29:40.532 22/10/1994]',-0.062,73.300,-0.469,-0.484
'[01:29:40.534 22/10/1994]',-0.061,73.300,-0.469,-0.484
'[01:29:40.536 22/10/1994]',-0.060,72.550,-0.473,-0.481
'[01:29:40.538 22/10/1994]',-0.059,72.550,-0.473,-0.481
'[01:29:40.540 22/10/1994]',-0.057,72.550,-0.473,-0.481
'[01:29:40.542 22/10/1994]',-0.054,72.550,-0.473,-0.481
'[01:29:40.544 22/10/1994]',-0.051,71.950,-0.485,-0.479
'[01:29:40.546 22/10/1994]',-0.049,71.950,-0.485,-0.479
'[01:29:40.548 22/10/1994]',-0.045,71.950,-0.485,-0.479
'[01:29:40.550 22/10/1994]',-0.041,71.950,-0.485,-0.479
'[01:29:40.552 22/10/1994]',-0.038,71.500,-0.496,-0.477
'[01:29:40.554 22/10/1994]',-0.035,71.500,-0.496,-0.477
'[01:29:40.556 22/10/1994]',-0.034,71.500,-0.496,-0.477
'[01:29:40.558 22/10/1994]',-0.032,71.500,-0.496,-0.477
'[01:29:40.560 22/10/1994]',-0.030,71.500,-0.515,-0.475
'[01:29:40.562 22/10/1994]',-0.029,71.500,-0.515,-0.475
'[01:29:40.564 22/10/1994]',-0.027,71.500,-0.515,-0.475
'[01:29:40.566 22/10/1994]',-0.025,71.500,-0.515,-0.475
'[01:29:40.568 22/10/1994]',-0.022,72.300,-0.534,-0.474
'[01:29:40.570 22/10/1994]',-0.019,72.300,-0.534,-0.474
'[01:29:40.572 22/10/1994]',-0.014,72.300,-0.534,-0.474
'[01:29:40.574 22/10/1994]',-0.009,72.300,-0.534,-0.474
'[01:29:40.576 22/10/1994]',-0.004,74.550,-0.557,-0.473
'[01:29:40.578 22/10/1994]',0.002,74.550,-0.557,-0.473
'[01:29:40.580 22/10/1994]',0.007,74.550,-0.557,-0.473
'[01:29:40.582 22/10/1994]',0.013,74.550,-0.557,-0.473
'[01:29:40.584 22/10/1994]',0.019,78.850,-0.581,-0.473
'[01:29:40.586 22/10/1994]',0.025,78.850,-0.581,-0.473
'[01:29:40.588 22/10/1994]',0.032,78.850,-0.581,-0.473
'[01:29:40.590 22/10/1994]',0.039,78.850,-0.581,-0.473
'[01:29:40.592 22/10/1994]',0.047,85.400,-0.604,-0.472
'[01:29:40.594 22/10/1994]',0.055,85.400,-0.604,-0.472
'[01:29:40.596 22/10/1994]',0.064,85.400,-0.604,-0.472
'[01:29:40.598 22/10/1994]',0.073,85.400,-0.604,-0.472
'[01:29:40.600 22/10/1994]',0.082,93.650,-0.623,-0.472
'[01:29:40.602 22/10/1994]',0.091,93.650,-0.623,-0.472
'[01:29:40.604 22/10/1994]',0.099,93.650,-0.623,-0.472
'[01:29:40.606 22/10/1994]',0.106,93.650,-0.623,-0.472
'[01:29:40.608 22/10/1994]',0.113,102.300,-0.634,-0.471
'[01:29:40.610 22/10/1994]',0.119,102.300,-0.634,-0.471
'[01:29:40.612 22/10/1994]',0.124,102.300,-0.634,-0.471
'[01:29:40.614 22/10/1994]',0.130,102.300,-0.634,-0.471
'[01:29:40.616 22/10/1994]',0.135,109.950,-0.624,-0.471
'[01:29:40.618 22/10/1994]',0.139,109.950,-0.624,-0.471
'[01:29:40.620 22/10/1994]',0.141,109.950,-0.624,-0.471
'[01:29:40.622 22/10/1994]',0.144,109.950,-0.624,-0.471
'[01:29:40.624 22/10/1994]',0.144,115.400,-0.617,-0.470
'[01:29:40.626 22/10/1994]',0.145,115.400,-0.617,-0.470
'[01:29:40.628 22/10/1994]',0.144,115.400,-0.617,-0.470
'[01:29:40.630 22/10/1994]',0.144,115.400,-0.617,-0.470
'[01:29:40.632 22/10/1994]',0.142,118.550,-0.602,-0.470
'[01:29:40.634 22/10/1994]',0.140,118.550,-0.602,-0.470
'[01:29:40.636 22/10/1994]',0.137,118.550,-0.602,-0.470
'[01:29:40.638 22/10/1994]',0.134,118.550,-0.602,-0.470
'[01:29:40.640 22/10/1994]',0.130,119.450,-0.567,-0.469
'[01:29:40.642 22/10/1994]',0.125,119.450,-0.567,-0.469
'[01:29:40.644 22/10/1994]',0.120,119.450,-0.567,-0.469
'[01:29:40.646 22/10/1994]',0.116,119.450,-0.567,-0.469
'[01:29:40.648 22/10/1994]',0.112,118.950,-0.521,-0.468
'[01:29:40.650 22/10/1994]',0.107,118.950,-0.521,-0.468
'[01:29:40.652 22/10/1994]',0.103,118.950,-0.521,-0.468
'[01:29:40.654 22/10/1994]',0.100,118.950,-0.521,-0.468
'[01:29:40.656 22/10/1994]',0.096,117.350,-0.449,-0.468
'[01:29:40.658 22/10/1994]',0.092,117.350,-0.449,-0.468
'[01:29:40.660 22/10/1994]',0.087,117.350,-0.449,-0.468
'[01:29:40.662 22/10/1994]',0.082,117.350,-0.449,-0.468
'[01:29:40.664 22/10/1994]',0.076,115.200,-0.365,-0.467
'[01:29:40.666 22/10/1994]',0.070,115.200,-0.365,-0.467
'[01:29:40.668 22/10/1994]',0.062,115.200,-0.365,-0.467
'[01:29:40.670 22/10/1994]',0.055,115.200,-0.365,-0.467
'[01:29:40.672 22/10/1994]',0.048,112.700,-0.271,-0.467
'[01:29:40.674 22/10/1994]',0.040,112.700,-0.271,-0.467
'[01:29:40.676 22/10/1994]',0.034,112.700,-0.271,-0.467
'[01:29:40.678 22/10/1994]',0.028,112.700,-0.271,-0.467
'[01:29:40.680 22/10/1994]',0.024,110.000,-0.168,-0.466
'[01:29:40.682 22/10/1994]',0.019,110.000,-0.168,-0.466
'[01:29:40.684 22/10/1994]',0.016,110.000,-0.168,-0.466
'[01:29:40.686 22/10/1994]',0.013,110.000,-0.168,-0.466
'[01:29:40.688 22/10/1994]',0.009,107.150,-0.061,-0.466
'[01:29:40.690 22/10/1994]',0.006,107.150,-0.061,-0.466
'[01:29:40.692 22/10/1994]',0.002,107.150,-0.061,-0.466
'[01:29:40.694 22/10/1994]',-0.002,107.150,-0.061,-0.466
'[01:29:40.696 22/10/1994]',-0.005,104.300,0.042,-0.465
'[01:29:40.698 22/10/1994]',-0.009,104.300,0.042,-0.465
'[01:29:40.700 22/10/1994]',-0.013,104.300,0.042,-0.465
'[01:29:40.702 22/10/1994]',-0.017,104.300,0.042,-0.465
'[01:29:40.704 22/10/1994]',-0.021,101.450,0.137,-0.464
'[01:29:40.706 22/10/1994]',-0.024,101.450,0.137,-0.464
'[01:29:40.708 22/10/1994]',-0.028,101.450,0.137,-0.464
'[01:29:40.710 22/10/1994]',-0.031,101.450,0.137,-0.464
'[01:29:40.712 22/10/1994]',-0.034,98.900,0.209,-0.463
'[01:29:40.714 22/10/1994]',-0.036,98.900,0.209,-0.463
'[01:29:40.716 22/10/1994]',-0.037,98.900,0.209,-0.463
'[01:29:40.718 22/10/1994]',-0.039,98.900,0.209,-0.463
'[01:29:40.720 22/10/1994]',-0.040,96.450,0.263,-0.462
'[01:29:40.722 22/10/1994]',-0.041,96.450,0.263,-0.462
'[01:29:40.724 22/10/1994]',-0.043,96.450,0.263,-0.462
'[01:29:40.726 22/10/1994]',-0.045,96.450,0.263,-0.462
'[01:29:40.728 22/10/1994]',-0.046,94.050,0.300,-0.462
'[01:29:40.730 22/10/1994]',-0.048,94.050,0.300,-0.462
'[01:29:40.732 22/10/1994]',-0.048,94.050,0.300,-0.462
'[01:29:40.734 22/10/1994]',-0.047,94.050,0.300,-0.462
'[01:29:40.736 22/10/1994]',-0.045,91.650,0.312,-0.462
'[01:29:40.738 22/10/1994]',-0.043,91.650,0.312,-0.462
'[01:29:40.740 22/10/1994]',-0.042,91.650,0.312,-0.462
'[01:29:40.742 22/10/1994]',-0.040,91.650,0.312,-0.462
'[01:29:40.744 22/10/1994]',-0.038,89.150,0.304,-0.463
'[01:29:40.746 22/10/1994]',-0.036,89.150,0.304,-0.463
'[01:29:40.748 22/10/1994]',-0.035,89.150,0.304,-0.463
'[01:29:40.750 22/10/1994]',-0.033,89.150,0.304,-0.463
'[01:29:40.752 22/10/1994]',-0.032,86.600,0.285,-0.464
'[01:29:40.754 22/10/1994]',-0.031,86.600,0.285,-0.464
'[01:29:40.756 22/10/1994]',-0.029,86.600,0.285,-0.464
'[01:29:40.758 22/10/1994]',-0.026,86.600,0.285,-0.464
'[01:29:40.760 22/10/1994]',-0.023,83.850,0.247,-0.465
'[01:29:40.762 22/10/1994]',-0.020,83.850,0.247,-0.465
'[01:29:40.764 22/10/1994]',-0.018,83.850,0.247,-0.465
'[01:29:40.766 22/10/1994]',-0.015,83.850,0.247,-0.465
'[01:29:40.768 22/10/1994]',-0.013,81.050,0.198,-0.467
'[01:29:40.770 22/10/1994]',-0.011,81.050,0.198,-0.467
'[01:29:40.772 22/10/1994]',-0.011,81.050,0.198,-0.467
'[01:29:40.774 22/10/1994]',-0.011,81.050,0.198,-0.467
'[01:29:40.776 22/10/1994]',-0.011,78.300,0.148,-0.469
'[01:29:40.778 22/10/1994]',-0.012,78.300,0.148,-0.469
'[01:29:40.780 22/10/1994]',-0.014,78.300,0.148,-0.469
'[01:29:40.782 22/10/1994]',-0.016,78.300,0.148,-0.469
'[01:29:40.784 22/10/1994]',-0.018,75.750,0.087,-0.470
'[01:29:40.786 22/10/1994]',-0.019,75.750,0.087,-0.470
'[01:29:40.788 22/10/1994]',-0.021,75.750,0.087,-0.470
'[01:29:40.790 22/10/1994]',-0.023,75.750,0.087,-0.470
'[01:29:40.792 22/10/1994]',-0.025,73.650,0.022,-0.472
'[01:29:40.794 22/10/1994]',-0.027,73.650,0.022,-0.472
'[01:29:40.796 22/10/1994]',-0.029,73.650,0.022,-0.472
'[01:29:40.798 22/10/1994]',-0.032,73.650,0.022,-0.472
'[01:29:40.800 22/10/1994]',-0.034,72.000,-0.042,-0.474
'[01:29:40.802 22/10/1994]',-0.036,72.000,-0.042,-0.474
'[01:29:40.804 22/10/1994]',-0.036,72.000,-0.042,-0.474
'[01:29:40.806 22/10/1994]',-0.037,72.000,-0.042,-0.474
'[01:29:40.808 22/10/1994]',-0.037,70.800,-0.115,-0.476
'[01:29:40.810 22/10/1994]',-0.037,70.800,-0.115,-0.476
'[01:29:40.812 22/10/1994]',-0.037,70.800,-0.115,-0.476
'[01:29:40.814 22/10/1994]',-0.037,70.800,-0.115,-0.476
'[01:29:40.816 22/10/1994]',-0.038,70.150,-0.183,-0.476
'[01:29:40.818 22/10/1994]',-0.039,70.150,-0.183,-0.476
'[01:29:40.820 22/10/1994]',-0.042,70.150,-0.183,-0.476
'[01:29:40.822 22/10/1994]',-0.045,70.150,-0.183,-0.476
'[01:29:40.824 22/10/1994]',-0.049,70.000,-0.247,-0.476
'[01:29:40.826 22/10/1994]',-0.053,70.000,-0.247,-0.476
'[01:29:40.828 22/10/1994]',-0.057,70.000,-0.247,-0.476
'[01:29:40.830 22/10/1994]',-0.060,70.000,-0.247,-0.476
'[01:29:40.832 22/10/1994]',-0.061,70.300,-0.312,-0.475
'[01:29:40.834 22/10/1994]',-0.063,70.300,-0.312,-0.475
'[01:29:40.836 22/10/1994]',-0.062,70.300,-0.312,-0.475
'[01:29:40.838 22/10/1994]',-0.062,70.300,-0.312,-0.475
'[01:29:40.840 22/10/1994]',-0.060,70.900,-0.377,-0.473
'[01:29:40.842 22/10/1994]',-0.058,70.900,-0.377,-0.473
'[01:29:40.844 22/10/1994]',-0.053,70.900,-0.377,-0.473
'[01:29:40.846 22/10/1994]',-0.048,70.900,-0.377,-0.473
'[01:29:40.848 22/10/1994]',-0.041,71.800,-0.438,-0.471
'[01:29:40.850 22/10/1994]',-0.033,71.800,-0.438,-0.471
'[01:29:40.852 22/10/1994]',-0.024,71.800,-0.438,-0.471
'[01:29:40.854 22/10/1994]',-0.014,71.800,-0.438,-0.471
'[01:29:40.856 22/10/1994]',-0.003,73.000,-0.495,-0.469
'[01:29:40.858 22/10/1994]',0.009,73.000,-0.495,-0.469
'[01:29:40.860 22/10/1994]',0.024,73.000,-0.495,-0.469
'[01:29:40.862 22/10/1994]',0.039,73.000,-0.495,-0.469
'[01:29:40.864 22/10/1994]',0.061,74.400,-0.548,-0.466
'[01:29:40.866 22/10/1994]',0.084,74.400,-0.548,-0.466
'[01:29:40.868 22/10/1994]',0.119,74.400,-0.548,-0.466
'[01:29:40.870 22/10/1994]',0.154,74.400,-0.548,-0.466
'[01:29:40.872 22/10/1994]',0.206,75.750,-0.594,-0.463
'[01:29:40.874 22/10/1994]',0.259,75.750,-0.594,-0.463
'[01:29:40.876 22/10/1994]',0.328,75.750,-0.594,-0.463
'[01:29:40.878 22/10/1994]',0.396,75.750,-0.594,-0.463
'[01:29:40.880 22/10/1994]',0.463,76.950,-0.632,-0.459
'[01:29:40.882 22/10/1994]',0.529,76.950,-0.632,-0.459
'[01:29:40.884 22/10/1994]',0.571,76.950,-0.632,-0.459
'[01:29:40.886 22/10/1994]',0.613,76.950,-0.632,-0.459
'[01:29:40.888 22/10/1994]',0.615,77.950,-0.662,-0.456
'[01:29:40.890 22/10/1994]',0.617,77.950,-0.662,-0.456
'[01:29:40.892 22/10/1994]',0.579,77.950,-0.662,-0.456
'[01:29:40.894 22/10/1994]',0.541,77.950,-0.662,-0.456
'[01:29:40.896 22/10/1994]',0.477,78.700,-0.677,-0.452
'[01:29:40.898 22/10/1994]',0.413,78.700,-0.677,-0.452
'[01:29:40.900 22/10/1994]',0.343,78.700,-0.677,-0.452
'[01:29:40.902 22/10/1994]',0.273,78.700,-0.677,-0.452
'[01:29:40.904 22/10/1994]',0.212,79.050,-0.689,-0.449
'[01:29:40.906 22/10/1994]',0.152,79.050,-0.689,-0.449
'[01:29:40.908 22/10/1994]',0.107,79.050,-0.689,-0.449
'[01:29:40.910 22/10/1994]',0.062,79.050,-0.689,-0.449
'[01:29:40.912 22/10/1994]',0.032,79.300,-0.693,-0.445
'[01:29:40.914 22/10/1994]',0.002,79.300,-0.693,-0.445
'[01:29:40.916 22/10/1994]',-0.018,79.300,-0.693,-0.445
'[01:29:40.918 22/10/1994]',-0.038,79.300,-0.693,-0.445
'[01:29:40.920 22/10/1994]',-0.051,79.000,-0.685,-0.441
'[01:29:40.922 22/10/1994]',-0.063,79.000,-0.685,-0.441
'[01:29:40.924 22/10/1994]',-0.070,79.000,-0.685,-0.441
'[01:29:40.926 22/10/1994]',-0.077,79.000,-0.685,-0.441
'[01:29:40.928 22/10/1994]',-0.082,78.600,-0.662,-0.436
'[01:29:40.930 22/10/1994]',-0.086,78.600,-0.662,-0.436
'[01:29:40.932 22/10/1994]',-0.088,78.600,-0.662,-0.436
'[01:29:40.934 22/10/1994]',-0.090,78.600,-0.662,-0.436
'[01:29:40.936 22/10/1994]',-0.091,78.000,-0.643,-0.432
'[01:29:40.938 22/10/1994]',-0.092,78.000,-0.643,-0.432
'[01:29:40.940 22/10/1994]',-0.092,78.000,-0.643,-0.432
'[01:29:40.942 22/10/1994]',-0.093,78.000,-0.643,-0.432
'[01:29:40.944 22/10/1994]',-0.094,77.400,-0.617,-0.428
'[01:29:40.946 22/10/1994]',-0.095,77.400,-0.617,-0.428
'[01:29:40.948 22/10/1994]',-0.096,77.400,-0.617,-0.428
'[01:29:40.950 22/10/1994]',-0.097,77.400,-0.617,-0.428
'[01:29:40.952 22/10/1994]',-0.098,76.750,-0.586,-0.424
'[01:29:40.954 22/10/1994]',-0.098,76.750,-0.586,-0.424
'[01:29:40.956 22/10/1994]',-0.097,76.750,-0.586,-0.424
'[01:29:40.958 22/10/1994]',-0.095,76.750,-0.586,-0.424
'[01:29:40.960 22/10/1994]',-0.092,76.000,-0.552,-0.421
'[01:29:40.962 22/10/1994]',-0.089,76.000,-0.552,-0.421
'[01:29:40.964 22/10/1994]',-0.085,76.000,-0.552,-0.421
'[01:29:40.966 22/10/1994]',-0.080,76.000,-0.552,-0.421
'[01:29:40.968 22/10/1994]',-0.076,75.150,-0.521,-0.417
'[01:29:40.970 22/10/1994]',-0.072,75.150,-0.521,-0.417
'[01:29:40.972 22/10/1994]',-0.070,75.150,-0.521,-0.417
'[01:29:40.974 22/10/1994]',-0.069,75.150,-0.521,-0.417
'[01:29:40.976 22/10/1994]',-0.069,74.350,-0.495,-0.414
'[01:29:40.978 22/10/1994]',-0.069,74.350,-0.495,-0.414
'[01:29:40.980 22/10/1994]',-0.070,74.350,-0.495,-0.414
'[01:29:40.982 22/10/1994]',-0.070,74.350,-0.495,-0.414
'[01:29:40.984 22/10/1994]',-0.070,73.600,-0.476,-0.410
'[01:29:40.986 22/10/1994]',-0.069,73.600,-0.476,-0.410
'[01:29:40.988 22/10/1994]',-0.068,73.600,-0.476,-0.410
'[01:29:40.990 22/10/1994]',-0.067,73.600,-0.476,-0.410
'[01:29:40.992 22/10/1994]',-0.066,72.850,-0.461,-0.407
'[01:29:40.994 22/10/1994]',-0.065,72.850,-0.461,-0.407
'[01:29:40.996 22/10/1994]',-0.064,72.850,-0.461,-0.407
'[01:29:40.998 22/10/1994]',-0.063,72.850,-0.461,-0.407
'[01:29:41.000 22/10/1994]',-0.062,72.100,-0.449,-0.404
'[01:29:41.002 22/10/1994]',-0.061,72.100,-0.449,-0.404
'[01:29:41.004 22/10/1994]',-0.060,72.100,-0.449,-0.404
'[01:29:41.006 22/10/1994]',-0.060,72.100,-0.449,-0.404
'[01:29:41.008 22/10/1994]',-0.059,71.350,-0.442,-0.401
'[01:29:41.010 22/10/1994]',-0.059,71.350,-0.442,-0.401
'[01:29:41.012 22/10/1994]',-0.059,71.350,-0.442,-0.401
'[01:29:41.014 22/10/1994]',-0.058,71.350,-0.442,-0.401
'[01:29:41.016 22/10/1994]',-0.058,70.650,-0.449,-0.399
'[01:29:41.018 22/10/1994]',-0.058,70.650,-0.449,-0.399
'[01:29:41.020 22/10/1994]',-0.057,70.650,-0.449,-0.399
'[01:29:41.022 22/10/1994]',-0.055,70.650,-0.449,-0.399
'[01:29:41.024 22/10/1994]',-0.052,70.200,-0.449,-0.397
'[01:29:41.026 22/10/1994]',-0.050,70.200,-0.449,-0.397
'[01:29:41.028 22/10/1994]',-0.046,70.200,-0.449,-0.397
'[01:29:41.030 22/10/1994]',-0.043,70.200,-0.449,-0.397
'[01:29:41.032 22/10/1994]',-0.038,70.150,-0.468,-0.395
'[01:29:41.034 22/10/1994]',-0.034,70.150,-0.468,-0.395
'[01:29:41.036 22/10/1994]',-0.029,70.150,-0.468,-0.395
'[01:29:41.038 22/10/1994]',-0.025,70.150,-0.468,-0.395
'[01:29:41.040 22/10/1994]',-0.021,70.650,-0.479,-0.394
'[01:29:41.042 22/10/1994]',-0.016,70.650,-0.479,-0.394
'[01:29:41.044 22/10/1994]',-0.011,70.650,-0.479,-0.394
'[01:29:41.046 22/10/1994]',-0.005,70.650,-0.479,-0.394
'[01:29:41.048 22/10/1994]',0.000,72.300,-0.502,-0.394
'[01:29:41.050 22/10/1994]',0.005,72.300,-0.502,-0.394
'[01:29:41.052 22/10/1994]',0.009,72.300,-0.502,-0.394
'[01:29:41.054 22/10/1994]',0.013,72.300,-0.502,-0.394
'[01:29:41.056 22/10/1994]',0.017,76.050,-0.521,-0.393
'[01:29:41.058 22/10/1994]',0.021,76.050,-0.521,-0.393
'[01:29:41.060 22/10/1994]',0.026,76.050,-0.521,-0.393
'[01:29:41.062 22/10/1994]',0.031,76.050,-0.521,-0.393
'[01:29:41.064 22/10/1994]',0.037,81.900,-0.544,-0.393
'[01:29:41.066 22/10/1994]',0.043,81.900,-0.544,-0.393
'[01:29:41.068 22/10/1994]',0.051,81.900,-0.544,-0.393
'[01:29:41.070 22/10/1994]',0.058,81.900,-0.544,-0.393
'[01:29:41.072 22/10/1994]',0.066,90.000,-0.555,-0.393
'[01:29:41.074 22/10/1994]',0.074,90.000,-0.555,-0.393
'[01:29:41.076 22/10/1994]',0.082,90.000,-0.555,-0.393
'[01:29:41.078 22/10/1994]',0.090,90.000,-0.555,-0.393
'[01:29:41.080 22/10/1994]',0.098,98.900,-0.571,-0.394
'[01:29:41.082 22/10/1994]',0.106,98.900,-0.571,-0.394
'[01:29:41.084 22/10/1994]',0.113,98.900,-0.571,-0.394
'[01:29:41.086 22/10/1994]',0.120,98.900,-0.571,-0.394
'[01:29:41.088 22/10/1994]',0.127,107.300,-0.583,-0.395
'[01:29:41.090 22/10/1994]',0.133,107.300,-0.583,-0.395
'[01:29:41.092 22/10/1994]',0.139,107.300,-0.583,-0.395
'[01:29:41.094 22/10/1994]',0.145,107.300,-0.583,-0.395
'[01:29:41.096 22/10/1994]',0.148,113.700,-0.579,-0.396
'[01:29:41.098 22/10/1994]',0.151,113.700,-0.579,-0.396
'[01:29:41.100 22/10/1994]',0.152,113.700,-0.579,-0.396
'[01:29:41.102 22/10/1994]',0.153,113.700,-0.579,-0.396
'[01:29:41.104 22/10/1994]',0.152,117.500,-0.571,-0.397
'[01:29:41.106 22/10/1994]',0.152,117.500,-0.571,-0.397
'[01:29:41.108 22/10/1994]',0.148,117.500,-0.571,-0.397
'[01:29:41.110 22/10/1994]',0.145,117.500,-0.571,-0.397
'[01:29:41.112 22/10/1994]',0.141,118.850,-0.540,-0.399
'[01:29:41.114 22/10/1994]',0.137,118.850,-0.540,-0.399
'[01:29:41.116 22/10/1994]',0.133,118.850,-0.540,-0.399
'[01:29:41.118 22/10/1994]',0.129,118.850,-0.540,-0.399
'[01:29:41.120 22/10/1994]',0.126,118.550,-0.495,-0.401
'[01:29:41.122 22/10/1994]',0.122,118.550,-0.495,-0.401
'[01:29:41.124 22/10/1994]',0.118,118.550,-0.495,-0.401
'[01:29:41.126 22/10/1994]',0.114,118.550,-0.495,-0.401
'[01:29:41.128 22/10/1994]',0.109,117.050,-0.413,-0.403
'[01:29:41.130 22/10/1994]',0.104,117.050,-0.413,-0.403
'[01:29:41.132 22/10/1994]',0.097,117.050,-0.413,-0.403
'[01:29:41.134 22/10/1994]',0.090,117.050,-0.413,-0.403
'[01:29:41.136 22/10/1994]',0.082,114.900,-0.332,-0.405
'[01:29:41.138 22/10/1994]',0.074,114.900,-0.332,-0.405
'[01:29:41.140 22/10/1994]',0.066,114.900,-0.332,-0.405
'[01:29:41.142 22/10/1994]',0.057,114.900,-0.332,-0.405
'[01:29:41.144 22/10/1994]',0.050,112.350,-0.235,-0.406
'[01:29:41.146 22/10/1994]',0.042,112.350,-0.235,-0.406
'[01:29:41.148 22/10/1994]',0.035,112.350,-0.235,-0.406
'[01:29:41.150 22/10/1994]',0.029,112.350,-0.235,-0.406
'[01:29:41.152 22/10/1994]',0.025,109.500,-0.128,-0.408
'[01:29:41.154 22/10/1994]',0.020,109.500,-0.128,-0.408
'[01:29:41.156 22/10/1994]',0.017,109.500,-0.128,-0.408
'[01:29:41.158 22/10/1994]',0.013,109.500,-0.128,-0.408
'[01:29:41.160 22/10/1994]',0.011,106.550,-0.019,-0.409
'[01:29:41.162 22/10/1994]',0.010,106.550,-0.019,-0.409
'[01:29:41.164 22/10/1994]',0.008,106.550,-0.019,-0.409
'[01:29:41.166 22/10/1994]',0.006,106.550,-0.019,-0.409
'[01:29:41.168 22/10/1994]',0.004,103.800,0.088,-0.411
'[01:29:41.170 22/10/1994]',0.001,103.800,0.088,-0.411
'[01:29:41.172 22/10/1994]',-0.002,103.800,0.088,-0.411
'[01:29:41.174 22/10/1994]',-0.005,103.800,0.088,-0.411
'[01:29:41.176 22/10/1994]',-0.009,101.150,0.185,-0.412
'[01:29:41.178 22/10/1994]',-0.013,101.150,0.185,-0.412
'[01:29:41.180 22/10/1994]',-0.017,101.150,0.185,-0.412
'[01:29:41.182 22/10/1994]',-0.020,101.150,0.185,-0.412
'[01:29:41.184 22/10/1994]',-0.024,98.600,0.270,-0.414
'[01:29:41.186 22/10/1994]',-0.027,98.600,0.270,-0.414
'[01:29:41.188 22/10/1994]',-0.029,98.600,0.270,-0.414
'[01:29:41.190 22/10/1994]',-0.031,98.600,0.270,-0.414
'[01:29:41.192 22/10/1994]',-0.032,96.200,0.332,-0.416
'[01:29:41.194 22/10/1994]',-0.033,96.200,0.332,-0.416
'[01:29:41.196 22/10/1994]',-0.034,96.200,0.332,-0.416
'[01:29:41.198 22/10/1994]',-0.034,96.200,0.332,-0.416
'[01:29:41.200 22/10/1994]',-0.034,93.900,0.378,-0.418
'[01:29:41.202 22/10/1994]',-0.033,93.900,0.378,-0.418
'[01:29:41.204 22/10/1994]',-0.033,93.900,0.378,-0.418
'[01:29:41.206 22/10/1994]',-0.033,93.900,0.378,-0.418
'[01:29:41.208 22/10/1994]',-0.033,91.550,0.398,-0.420
'[01:29:41.210 22/10/1994]',-0.032,91.550,0.398,-0.420
'[01:29:41.212 22/10/1994]',-0.031,91.550,0.398,-0.420
'[01:29:41.214 22/10/1994]',-0.030,91.550,0.398,-0.420
'[01:29:41.216 22/10/1994]',-0.029,89.100,0.402,-0.422
'[01:29:41.218 22/10/1994]',-0.028,89.100,0.402,-0.422
'[01:29:41.220 22/10/1994]',-0.028,89.100,0.402,-0.422
'[01:29:41.222 22/10/1994]',-0.027,89.100,0.402,-0.422
'[01:29:41.224 22/10/1994]',-0.025,86.450,0.386,-0.424
'[01:29:41.226 22/10/1994]',-0.024,86.450,0.386,-0.424
'[01:29:41.228 22/10/1994]',-0.022,86.450,0.386,-0.424
'[01:29:41.230 22/10/1994]',-0.021,86.450,0.386,-0.424
'[01:29:41.232 22/10/1994]',-0.018,83.850,0.355,-0.427
'[01:29:41.234 22/10/1994]',-0.015,83.850,0.355,-0.427
'[01:29:41.236 22/10/1994]',-0.012,83.850,0.355,-0.427
'[01:29:41.238 22/10/1994]',-0.009,83.850,0.355,-0.427
'[01:29:41.240 22/10/1994]',-0.007,81.150,0.308,-0.430
'[01:29:41.242 22/10/1994]',-0.006,81.150,0.308,-0.430
'[01:29:41.244 22/10/1994]',-0.006,81.150,0.308,-0.430
'[01:29:41.246 22/10/1994]',-0.007,81.150,0.308,-0.430
'[01:29:41.248 22/10/1994]',-0.010,78.400,0.255,-0.433
'[01:29:41.250 22/10/1994]',-0.013,78.400,0.255,-0.433
'[01:29:41.252 22/10/1994]',-0.016,78.400,0.255,-0.433
'[01:29:41.254 22/10/1994]',-0.019,78.400,0.255,-0.433
'[01:29:41.256 22/10/1994]',-0.021,75.750,0.193,-0.437
'[01:29:41.258 22/10/1994]',-0.024,75.750,0.193,-0.437
'[01:29:41.260 22/10/1994]',-0.027,75.750,0.193,-0.437
'[01:29:41.262 22/10/1994]',-0.030,75.750,0.193,-0.437
'[01:29:41.264 22/10/1994]',-0.032,73.650,0.131,-0.440
'[01:29:41.266 22/10/1994]',-0.033,73.650,0.131,-0.440
'[01:29:41.268 22/10/1994]',-0.034,73.650,0.131,-0.440
'[01:29:41.270 22/10/1994]',-0.035,73.650,0.131,-0.440
'[01:29:41.272 22/10/1994]',-0.035,71.850,0.061,-0.443
'[01:29:41.274 22/10/1994]',-0.036,71.850,0.061,-0.443
'[01:29:41.276 22/10/1994]',-0.036,71.850,0.061,-0.443
'[01:29:41.278 22/10/1994]',-0.037,71.850,0.061,-0.443
'[01:29:41.280 22/10/1994]',-0.037,70.650,-0.008,-0.446
'[01:29:41.282 22/10/1994]',-0.038,70.650,-0.008,-0.446
'[01:29:41.284 22/10/1994]',-0.038,70.650,-0.008,-0.446
'[01:29:41.286 22/10/1994]',-0.039,70.650,-0.008,-0.446
'[01:29:41.288 22/10/1994]',-0.039,70.000,-0.073,-0.448
'[01:29:41.290 22/10/1994]',-0.039,70.000,-0.073,-0.448
'[01:29:41.292 22/10/1994]',-0.040,70.000,-0.073,-0.448
'[01:29:41.294 22/10/1994]',-0.040,70.000,-0.073,-0.448
'[01:29:41.296 22/10/1994]',-0.041,69.600,-0.143,-0.449
'[01:29:41.298 22/10/1994]',-0.042,69.600,-0.143,-0.449
'[01:29:41.300 22/10/1994]',-0.043,69.600,-0.143,-0.449
'[01:29:41.302 22/10/1994]',-0.044,69.600,-0.143,-0.449
'[01:29:41.304 22/10/1994]',-0.046,69.700,-0.208,-0.449
'[01:29:41.306 22/10/1994]',-0.049,69.700,-0.208,-0.449
'[01:29:41.308 22/10/1994]',-0.050,69.700,-0.208,-0.449
'[01:29:41.310 22/10/1994]',-0.051,69.700,-0.208,-0.449
'[01:29:41.312 22/10/1994]',-0.051,70.050,-0.278,-0.449
