'Time and date','II ','V ','PLETH ','RESP '
'hh:mm:ss.mmm dd/mm/yyyy','mV','mV','mV','mV'
'[09:47:39.000 24/01/1995]',0.003,0.003,-0.243,-0.279
'[09:47:39.002 24/01/1995]',0.003,0.003,-0.243,-0.279
'[09:47:39.004 24/01/1995]',0.003,0.003,-0.243,-0.279
'[09:47:39.006 24/01/1995]',-0.032,0.003,-0.243,-0.279
'[09:47:39.008 24/01/1995]',-0.032,0.003,-0.198,-0.269
'[09:47:39.010 24/01/1995]',-0.032,0.003,-0.198,-0.269
'[09:47:39.012 24/01/1995]',-0.032,0.003,-0.198,-0.269
'[09:47:39.014 24/01/1995]',-0.032,0.035,-0.198,-0.269
'[09:47:39.016 24/01/1995]',-0.032,0.035,-0.124,-0.258
'[09:47:39.018 24/01/1995]',-0.032,0.035,-0.124,-0.258
'[09:47:39.020 24/01/1995]',-0.068,0.035,-0.124,-0.258
'[09:47:39.022 24/01/1995]',-0.032,0.035,-0.124,-0.258
'[09:47:39.024 24/01/1995]',-0.032,0.035,-0.073,-0.247
'[09:47:39.026 24/01/1995]',-0.032,0.035,-0.073,-0.247
'[09:47:39.028 24/01/1995]',-0.032,0.035,-0.073,-0.247
'[09:47:39.030 24/01/1995]',-0.032,0.035,-0.073,-0.247
'[09:47:39.032 24/01/1995]',-0.032,0.035,-0.011,-0.236
'[09:47:39.034 24/01/1995]',-0.032,0.035,-0.011,-0.236
'[09:47:39.036 24/01/1995]',-0.032,0.035,-0.011,-0.236
'[09:47:39.038 24/01/1995]',-0.032,0.035,-0.011,-0.236
'[09:47:39.040 24/01/1995]',-0.032,0.035,0.045,-0.225
'[09:47:39.042 24/01/1995]',-0.032,0.035,0.045,-0.225
'[09:47:39.044 24/01/1995]',0.003,0.035,0.045,-0.225
'[09:47:39.046 24/01/1995]',0.003,0.035,0.045,-0.225
'[09:47:39.048 24/01/1995]',-0.032,0.035,0.090,-0.213
'[09:47:39.050 24/01/1995]',-0.032,0.035,0.090,-0.213
'[09:47:39.052 24/01/1995]',0.003,0.035,0.090,-0.213
'[09:47:39.054 24/01/1995]',0.003,0.035,0.090,-0.213
'[09:47:39.056 24/01/1995]',0.003,0.035,0.124,-0.201
'[09:47:39.058 24/01/1995]',0.003,0.035,0.124,-0.201
'[09:47:39.060 24/01/1995]',0.003,0.003,0.124,-0.201
'[09:47:39.062 24/01/1995]',0.003,0.003,0.124,-0.201
'[09:47:39.064 24/01/1995]',0.003,0.003,0.141,-0.189
'[09:47:39.066 24/01/1995]',0.003,0.003,0.141,-0.189
'[09:47:39.068 24/01/1995]',0.003,0.003,0.141,-0.189
'[09:47:39.070 24/01/1995]',0.003,0.003,0.141,-0.189
'[09:47:39.072 24/01/1995]',0.003,0.003,0.153,-0.177
'[09:47:39.074 24/01/1995]',0.037,0.003,0.153,-0.177
'[09:47:39.076 24/01/1995]',0.037,-0.031,0.153,-0.177
'[09:47:39.078 24/01/1995]',0.003,0.003,0.153,-0.177
'[09:47:39.080 24/01/1995]',0.037,-0.031,0.153,-0.165
'[09:47:39.082 24/01/1995]',0.037,-0.031,0.153,-0.165
'[09:47:39.084 24/01/1995]',0.037,0.003,0.153,-0.165
'[09:47:39.086 24/01/1995]',0.037,0.003,0.153,-0.165
'[09:47:39.088 24/01/1995]',0.037,0.170,0.153,-0.152
'[09:47:39.090 24/01/1995]',0.003,0.271,0.153,-0.152
'[09:47:39.092 24/01/1995]',0.003,0.339,0.153,-0.152
'[09:47:39.094 24/01/1995]',0.003,0.305,0.153,-0.152
'[09:47:39.096 24/01/1995]',0.003,0.238,0.124,-0.140
'[09:47:39.098 24/01/1995]',0.003,0.137,0.124,-0.140
'[09:47:39.100 24/01/1995]',0.003,0.069,0.124,-0.140
'[09:47:39.102 24/01/1995]',0.003,0.069,0.124,-0.140
'[09:47:39.104 24/01/1995]',0.003,0.035,0.107,-0.128
'[09:47:39.106 24/01/1995]',0.037,0.003,0.107,-0.128
'[09:47:39.108 24/01/1995]',0.037,0.003,0.107,-0.128
'[09:47:39.110 24/01/1995]',0.037,0.003,0.107,-0.128
'[09:47:39.112 24/01/1995]',0.037,0.003,0.073,-0.117
'[09:47:39.114 24/01/1995]',0.003,0.003,0.073,-0.117
'[09:47:39.116 24/01/1995]',0.003,0.003,0.073,-0.117
'[09:47:39.118 24/01/1995]',0.003,0.003,0.073,-0.117
'[09:47:39.120 24/01/1995]',0.003,0.003,0.045,-0.105
'[09:47:39.122 24/01/1995]',0.003,-0.031,0.045,-0.105
'[09:47:39.124 24/01/1995]',0.003,0.003,0.045,-0.105
'[09:47:39.126 24/01/1995]',0.037,0.003,0.045,-0.105
'[09:47:39.128 24/01/1995]',0.037,0.003,0.006,-0.095
'[09:47:39.130 24/01/1995]',0.037,0.003,0.006,-0.095
'[09:47:39.132 24/01/1995]',0.037,-0.031,0.006,-0.095
'[09:47:39.134 24/01/1995]',0.037,0.003,0.006,-0.095
'[09:47:39.136 24/01/1995]',0.003,0.003,-0.028,-0.084
'[09:47:39.138 24/01/1995]',0.003,0.003,-0.028,-0.084
'[09:47:39.140 24/01/1995]',0.003,0.003,-0.028,-0.084
'[09:47:39.142 24/01/1995]',0.003,0.035,-0.028,-0.084
'[09:47:39.144 24/01/1995]',0.003,0.069,-0.068,-0.073
'[09:47:39.146 24/01/1995]',0.003,0.103,-0.068,-0.073
'[09:47:39.148 24/01/1995]',0.003,0.069,-0.068,-0.073
'[09:47:39.150 24/01/1995]',0.003,0.035,-0.068,-0.073
'[09:47:39.152 24/01/1995]',0.003,0.035,-0.107,-0.063
'[09:47:39.154 24/01/1995]',0.003,0.035,-0.107,-0.063
'[09:47:39.156 24/01/1995]',0.003,0.035,-0.107,-0.063
'[09:47:39.158 24/01/1995]',0.003,0.003,-0.107,-0.063
'[09:47:39.160 24/01/1995]',-0.032,0.003,-0.141,-0.052
'[09:47:39.162 24/01/1995]',-0.032,0.003,-0.141,-0.052
'[09:47:39.164 24/01/1995]',-0.032,0.003,-0.141,-0.052
'[09:47:39.166 24/01/1995]',-0.032,0.003,-0.141,-0.052
'[09:47:39.168 24/01/1995]',-0.032,0.003,-0.170,-0.042
'[09:47:39.170 24/01/1995]',-0.032,0.003,-0.170,-0.042
'[09:47:39.172 24/01/1995]',0.003,0.003,-0.170,-0.042
'[09:47:39.174 24/01/1995]',0.003,0.003,-0.170,-0.042
'[09:47:39.176 24/01/1995]',0.003,0.003,-0.203,-0.031
'[09:47:39.178 24/01/1995]',0.003,0.003,-0.203,-0.031
'[09:47:39.180 24/01/1995]',0.003,0.003,-0.203,-0.031
'[09:47:39.182 24/01/1995]',-0.032,0.003,-0.203,-0.031
'[09:47:39.184 24/01/1995]',0.003,0.003,-0.226,-0.019
'[09:47:39.186 24/01/1995]',-0.032,0.003,-0.226,-0.019
'[09:47:39.188 24/01/1995]',-0.032,0.035,-0.226,-0.019
'[09:47:39.190 24/01/1995]',-0.032,0.035,-0.226,-0.019
'[09:47:39.192 24/01/1995]',-0.032,0.003,-0.243,-0.008
'[09:47:39.194 24/01/1995]',-0.032,0.003,-0.243,-0.008
'[09:47:39.196 24/01/1995]',0.003,0.003,-0.243,-0.008
'[09:47:39.198 24/01/1995]',0.003,0.003,-0.243,-0.008
'[09:47:39.200 24/01/1995]',0.003,0.003,-0.260,0.004
'[09:47:39.202 24/01/1995]',0.003,0.003,-0.260,0.004
'[09:47:39.204 24/01/1995]',0.037,-0.031,-0.260,0.004
'[09:47:39.206 24/01/1995]',0.037,-0.031,-0.260,0.004
'[09:47:39.208 24/01/1995]',0.037,-0.031,-0.266,0.015
'[09:47:39.210 24/01/1995]',0.003,-0.031,-0.266,0.015
'[09:47:39.212 24/01/1995]',0.003,-0.031,-0.266,0.015
'[09:47:39.214 24/01/1995]',0.003,-0.031,-0.266,0.015
'[09:47:39.216 24/01/1995]',0.003,-0.031,-0.272,0.028
'[09:47:39.218 24/01/1995]',0.003,-0.031,-0.272,0.028
'[09:47:39.220 24/01/1995]',0.003,-0.031,-0.272,0.028
'[09:47:39.222 24/01/1995]',0.003,-0.031,-0.272,0.028
'[09:47:39.224 24/01/1995]',0.003,-0.031,-0.272,0.040
'[09:47:39.226 24/01/1995]',0.037,-0.031,-0.272,0.040
'[09:47:39.228 24/01/1995]',0.003,-0.031,-0.272,0.040
'[09:47:39.230 24/01/1995]',0.037,-0.031,-0.272,0.040
'[09:47:39.232 24/01/1995]',0.003,-0.031,-0.277,0.051
'[09:47:39.234 24/01/1995]',0.037,-0.031,-0.277,0.051
'[09:47:39.236 24/01/1995]',0.003,-0.031,-0.277,0.051
'[09:47:39.238 24/01/1995]',0.037,0.003,-0.277,0.051
'[09:47:39.240 24/01/1995]',0.037,0.003,-0.272,0.062
'[09:47:39.242 24/01/1995]',0.003,0.003,-0.272,0.062
'[09:47:39.244 24/01/1995]',0.037,0.003,-0.272,0.062
'[09:47:39.246 24/01/1995]',0.037,0.003,-0.272,0.062
'[09:47:39.248 24/01/1995]',0.037,0.003,-0.272,0.073
'[09:47:39.250 24/01/1995]',0.037,0.003,-0.272,0.073
'[09:47:39.252 24/01/1995]',0.003,0.003,-0.272,0.073
'[09:47:39.254 24/01/1995]',0.003,-0.031,-0.272,0.073
'[09:47:39.256 24/01/1995]',0.003,-0.031,-0.266,0.084
'[09:47:39.258 24/01/1995]',0.003,-0.031,-0.266,0.084
'[09:47:39.260 24/01/1995]',0.003,-0.031,-0.266,0.084
'[09:47:39.262 24/01/1995]',0.003,-0.031,-0.266,0.084
'[09:47:39.264 24/01/1995]',0.003,0.003,-0.272,0.093
'[09:47:39.266 24/01/1995]',0.003,-0.031,-0.272,0.093
'[09:47:39.268 24/01/1995]',0.003,-0.031,-0.272,0.093
'[09:47:39.270 24/01/1995]',0.003,-0.031,-0.272,0.093
'[09:47:39.272 24/01/1995]',0.003,-0.031,-0.260,0.103
'[09:47:39.274 24/01/1995]',0.003,-0.031,-0.260,0.103
'[09:47:39.276 24/01/1995]',0.003,0.003,-0.260,0.103
'[09:47:39.278 24/01/1995]',0.003,0.003,-0.260,0.103
'[09:47:39.280 24/01/1995]',0.003,0.003,-0.266,0.114
'[09:47:39.282 24/01/1995]',0.003,0.003,-0.266,0.114
'[09:47:39.284 24/01/1995]',0.003,0.003,-0.266,0.114
'[09:47:39.286 24/01/1995]',0.037,-0.031,-0.266,0.114
'[09:47:39.288 24/01/1995]',0.037,-0.031,-0.260,0.123
'[09:47:39.290 24/01/1995]',0.037,0.003,-0.260,0.123
'[09:47:39.292 24/01/1995]',0.003,0.003,-0.260,0.123
'[09:47:39.294 24/01/1995]',0.003,0.003,-0.260,0.123
'[09:47:39.296 24/01/1995]',0.003,0.003,-0.266,0.134
'[09:47:39.298 24/01/1995]',0.003,0.003,-0.266,0.134
'[09:47:39.300 24/01/1995]',0.003,0.003,-0.266,0.134
'[09:47:39.302 24/01/1995]',0.003,0.003,-0.266,0.134
'[09:47:39.304 24/01/1995]',0.003,0.003,-0.260,0.144
'[09:47:39.306 24/01/1995]',0.003,0.003,-0.260,0.144
'[09:47:39.308 24/01/1995]',0.003,0.003,-0.260,0.144
'[09:47:39.310 24/01/1995]',0.003,0.003,-0.260,0.144
'[09:47:39.312 24/01/1995]',0.003,0.003,-0.260,0.155
'[09:47:39.314 24/01/1995]',0.003,0.003,-0.260,0.155
'[09:47:39.316 24/01/1995]',0.003,0.003,-0.260,0.155
'[09:47:39.318 24/01/1995]',0.003,0.003,-0.260,0.155
'[09:47:39.320 24/01/1995]',0.003,0.003,-0.266,0.167
'[09:47:39.322 24/01/1995]',0.003,0.003,-0.266,0.167
'[09:47:39.324 24/01/1995]',-0.032,0.003,-0.266,0.167
'[09:47:39.326 24/01/1995]',-0.032,0.003,-0.266,0.167
'[09:47:39.328 24/01/1995]',-0.032,0.003,-0.272,0.177
'[09:47:39.330 24/01/1995]',-0.032,0.003,-0.272,0.177
'[09:47:39.332 24/01/1995]',0.003,0.003,-0.272,0.177
'[09:47:39.334 24/01/1995]',0.003,0.003,-0.272,0.177
'[09:47:39.336 24/01/1995]',0.003,0.003,-0.277,0.189
'[09:47:39.338 24/01/1995]',0.003,0.003,-0.277,0.189
'[09:47:39.340 24/01/1995]',0.003,0.003,-0.277,0.189
'[09:47:39.342 24/01/1995]',0.003,0.003,-0.277,0.189
'[09:47:39.344 24/01/1995]',0.037,-0.031,-0.288,0.200
'[09:47:39.346 24/01/1995]',0.037,-0.031,-0.288,0.200
'[09:47:39.348 24/01/1995]',0.037,-0.031,-0.288,0.200
'[09:47:39.350 24/01/1995]',0.037,-0.031,-0.288,0.200
'[09:47:39.352 24/01/1995]',0.037,-0.031,-0.288,0.210
'[09:47:39.354 24/01/1995]',0.073,-0.064,-0.288,0.210
'[09:47:39.356 24/01/1995]',0.073,-0.064,-0.288,0.210
'[09:47:39.358 24/01/1995]',0.073,-0.064,-0.288,0.210
'[09:47:39.360 24/01/1995]',0.073,-0.064,-0.305,0.222
'[09:47:39.362 24/01/1995]',0.073,-0.031,-0.305,0.222
'[09:47:39.364 24/01/1995]',0.073,-0.031,-0.305,0.222
'[09:47:39.366 24/01/1995]',0.073,-0.031,-0.305,0.222
'[09:47:39.368 24/01/1995]',0.073,-0.031,-0.305,0.233
'[09:47:39.370 24/01/1995]',0.073,-0.031,-0.305,0.233
'[09:47:39.372 24/01/1995]',0.073,-0.031,-0.305,0.233
'[09:47:39.374 24/01/1995]',0.073,-0.031,-0.305,0.233
'[09:47:39.376 24/01/1995]',0.073,-0.031,-0.317,0.244
'[09:47:39.378 24/01/1995]',0.073,-0.031,-0.317,0.244
'[09:47:39.380 24/01/1995]',0.073,0.003,-0.317,0.244
'[09:47:39.382 24/01/1995]',0.073,0.003,-0.317,0.244
'[09:47:39.384 24/01/1995]',0.073,0.003,-0.322,0.256
'[09:47:39.386 24/01/1995]',0.073,0.003,-0.322,0.256
'[09:47:39.388 24/01/1995]',0.073,0.003,-0.322,0.256
'[09:47:39.390 24/01/1995]',0.073,0.003,-0.322,0.256
'[09:47:39.392 24/01/1995]',0.037,0.003,-0.334,0.266
'[09:47:39.394 24/01/1995]',0.073,0.003,-0.334,0.266
'[09:47:39.396 24/01/1995]',0.073,0.003,-0.334,0.266
'[09:47:39.398 24/01/1995]',0.073,-0.031,-0.334,0.266
'[09:47:39.400 24/01/1995]',0.073,-0.031,-0.339,0.276
'[09:47:39.402 24/01/1995]',0.108,-0.031,-0.339,0.276
'[09:47:39.404 24/01/1995]',0.073,-0.031,-0.339,0.276
'[09:47:39.406 24/01/1995]',0.073,0.003,-0.339,0.276
'[09:47:39.408 24/01/1995]',0.073,0.003,-0.339,0.285
'[09:47:39.410 24/01/1995]',0.037,0.003,-0.339,0.285
'[09:47:39.412 24/01/1995]',0.037,0.003,-0.339,0.285
'[09:47:39.414 24/01/1995]',0.037,0.003,-0.339,0.285
'[09:47:39.416 24/01/1995]',0.037,0.003,-0.345,0.294
'[09:47:39.418 24/01/1995]',0.037,0.003,-0.345,0.294
'[09:47:39.420 24/01/1995]',0.037,0.003,-0.345,0.294
'[09:47:39.422 24/01/1995]',0.037,0.003,-0.345,0.294
'[09:47:39.424 24/01/1995]',0.037,0.003,-0.350,0.303
'[09:47:39.426 24/01/1995]',0.037,0.035,-0.350,0.303
'[09:47:39.428 24/01/1995]',0.037,0.035,-0.350,0.303
'[09:47:39.430 24/01/1995]',0.073,0.069,-0.350,0.303
'[09:47:39.432 24/01/1995]',0.073,0.103,-0.356,0.312
'[09:47:39.434 24/01/1995]',0.073,0.103,-0.356,0.312
'[09:47:39.436 24/01/1995]',0.073,0.137,-0.356,0.312
'[09:47:39.438 24/01/1995]',0.108,0.137,-0.356,0.312
'[09:47:39.440 24/01/1995]',0.144,0.170,-0.350,0.321
'[09:47:39.442 24/01/1995]',0.250,0.170,-0.350,0.321
'[09:47:39.444 24/01/1995]',0.321,0.137,-0.350,0.321
'[09:47:39.446 24/01/1995]',0.428,0.069,-0.350,0.321
'[09:47:39.448 24/01/1995]',0.533,0.003,-0.362,0.329
'[09:47:39.450 24/01/1995]',0.675,-0.064,-0.362,0.329
'[09:47:39.452 24/01/1995]',0.746,-0.132,-0.362,0.329
'[09:47:39.454 24/01/1995]',0.782,-0.199,-0.362,0.329
'[09:47:39.456 24/01/1995]',0.782,-0.267,-0.367,0.337
'[09:47:39.458 24/01/1995]',0.675,-0.334,-0.367,0.337
'[09:47:39.460 24/01/1995]',0.499,-0.402,-0.367,0.337
'[09:47:39.462 24/01/1995]',0.357,-0.436,-0.367,0.337
'[09:47:39.464 24/01/1995]',0.215,-0.469,-0.362,0.344
'[09:47:39.466 24/01/1995]',0.108,-0.469,-0.362,0.344
'[09:47:39.468 24/01/1995]',0.073,-0.469,-0.362,0.344
'[09:47:39.470 24/01/1995]',0.037,-0.469,-0.362,0.344
'[09:47:39.472 24/01/1995]',0.003,-0.436,-0.367,0.352
'[09:47:39.474 24/01/1995]',-0.068,-0.402,-0.367,0.352
'[09:47:39.476 24/01/1995]',-0.103,-0.334,-0.367,0.352
'[09:47:39.478 24/01/1995]',-0.174,-0.267,-0.367,0.352
'[09:47:39.480 24/01/1995]',-0.210,-0.233,-0.367,0.360
'[09:47:39.482 24/01/1995]',-0.246,-0.199,-0.367,0.360
'[09:47:39.484 24/01/1995]',-0.281,-0.166,-0.367,0.360
'[09:47:39.486 24/01/1995]',-0.281,-0.098,-0.367,0.360
'[09:47:39.488 24/01/1995]',-0.246,-0.098,-0.367,0.368
'[09:47:39.490 24/01/1995]',-0.174,-0.064,-0.367,0.368
'[09:47:39.492 24/01/1995]',-0.139,-0.064,-0.367,0.368
'[09:47:39.494 24/01/1995]',-0.103,-0.031,-0.367,0.368
'[09:47:39.496 24/01/1995]',-0.068,-0.031,-0.367,0.375
'[09:47:39.498 24/01/1995]',-0.032,-0.031,-0.367,0.375
'[09:47:39.500 24/01/1995]',-0.032,-0.031,-0.367,0.375
'[09:47:39.502 24/01/1995]',-0.032,-0.031,-0.367,0.375
'[09:47:39.504 24/01/1995]',-0.032,-0.031,-0.362,0.382
'[09:47:39.506 24/01/1995]',-0.032,-0.031,-0.362,0.382
'[09:47:39.508 24/01/1995]',-0.032,-0.031,-0.362,0.382
'[09:47:39.510 24/01/1995]',-0.032,-0.031,-0.362,0.382
'[09:47:39.512 24/01/1995]',-0.032,0.003,-0.362,0.389
'[09:47:39.514 24/01/1995]',-0.032,0.003,-0.362,0.389
'[09:47:39.516 24/01/1995]',-0.032,0.003,-0.362,0.389
'[09:47:39.518 24/01/1995]',0.003,0.003,-0.362,0.389
'[09:47:39.520 24/01/1995]',0.003,0.003,-0.362,0.396
'[09:47:39.522 24/01/1995]',-0.032,0.003,-0.362,0.396
'[09:47:39.524 24/01/1995]',-0.032,0.003,-0.362,0.396
'[09:47:39.526 24/01/1995]',0.003,0.003,-0.362,0.396
'[09:47:39.528 24/01/1995]',0.003,0.003,-0.356,0.404
'[09:47:39.530 24/01/1995]',0.003,0.003,-0.356,0.404
'[09:47:39.532 24/01/1995]',0.003,0.003,-0.356,0.404
'[09:47:39.534 24/01/1995]',0.003,0.003,-0.356,0.404
'[09:47:39.536 24/01/1995]',0.003,0.003,-0.356,0.411
'[09:47:39.538 24/01/1995]',0.003,0.003,-0.356,0.411
'[09:47:39.540 24/01/1995]',0.003,0.003,-0.356,0.411
'[09:47:39.542 24/01/1995]',0.003,0.003,-0.356,0.411
'[09:47:39.544 24/01/1995]',0.003,0.003,-0.356,0.420
'[09:47:39.546 24/01/1995]',0.003,0.003,-0.356,0.420
'[09:47:39.548 24/01/1995]',0.003,0.003,-0.356,0.420
'[09:47:39.550 24/01/1995]',0.003,0.003,-0.356,0.420
'[09:47:39.552 24/01/1995]',0.003,0.003,-0.356,0.429
'[09:47:39.554 24/01/1995]',0.003,0.003,-0.356,0.429
'[09:47:39.556 24/01/1995]',0.003,0.003,-0.356,0.429
'[09:47:39.558 24/01/1995]',0.003,0.003,-0.356,0.429
'[09:47:39.560 24/01/1995]',0.003,0.003,-0.356,0.439
'[09:47:39.562 24/01/1995]',0.003,0.035,-0.356,0.439
'[09:47:39.564 24/01/1995]',-0.032,0.035,-0.356,0.439
'[09:47:39.566 24/01/1995]',-0.032,0.035,-0.356,0.439
'[09:47:39.568 24/01/1995]',0.003,0.035,-0.350,0.450
'[09:47:39.570 24/01/1995]',-0.032,0.035,-0.350,0.450
'[09:47:39.572 24/01/1995]',-0.032,0.035,-0.350,0.450
'[09:47:39.574 24/01/1995]',-0.032,0.035,-0.350,0.450
'[09:47:39.576 24/01/1995]',-0.032,0.035,-0.350,0.460
'[09:47:39.578 24/01/1995]',-0.032,0.035,-0.350,0.460
'[09:47:39.580 24/01/1995]',-0.032,0.035,-0.350,0.460
'[09:47:39.582 24/01/1995]',-0.032,0.035,-0.350,0.460
'[09:47:39.584 24/01/1995]',-0.032,0.035,-0.345,0.471
'[09:47:39.586 24/01/1995]',-0.032,0.035,-0.345,0.471
'[09:47:39.588 24/01/1995]',0.003,0.035,-0.345,0.471
'[09:47:39.590 24/01/1995]',0.003,0.035,-0.345,0.471
'[09:47:39.592 24/01/1995]',0.003,0.003,-0.345,0.482
'[09:47:39.594 24/01/1995]',0.003,0.035,-0.345,0.482
'[09:47:39.596 24/01/1995]',-0.032,0.103,-0.345,0.482
'[09:47:39.598 24/01/1995]',0.003,0.103,-0.345,0.482
'[09:47:39.600 24/01/1995]',0.003,0.069,-0.339,0.493
'[09:47:39.602 24/01/1995]',0.003,0.035,-0.339,0.493
'[09:47:39.604 24/01/1995]',0.003,0.003,-0.339,0.493
'[09:47:39.606 24/01/1995]',0.003,0.003,-0.339,0.493
'[09:47:39.608 24/01/1995]',0.003,0.003,-0.334,0.503
'[09:47:39.610 24/01/1995]',0.003,0.003,-0.334,0.503
'[09:47:39.612 24/01/1995]',0.003,0.003,-0.334,0.503
'[09:47:39.614 24/01/1995]',0.003,0.003,-0.334,0.503
'[09:47:39.616 24/01/1995]',0.037,0.003,-0.328,0.513
'[09:47:39.618 24/01/1995]',0.037,0.003,-0.328,0.513
'[09:47:39.620 24/01/1995]',0.073,0.003,-0.328,0.513
'[09:47:39.622 24/01/1995]',0.073,0.003,-0.328,0.513
'[09:47:39.624 24/01/1995]',0.108,0.003,-0.334,0.521
'[09:47:39.626 24/01/1995]',0.108,0.003,-0.334,0.521
'[09:47:39.628 24/01/1995]',0.144,0.003,-0.334,0.521
'[09:47:39.630 24/01/1995]',0.144,0.003,-0.334,0.521
'[09:47:39.632 24/01/1995]',0.144,0.003,-0.322,0.529
'[09:47:39.634 24/01/1995]',0.179,0.003,-0.322,0.529
'[09:47:39.636 24/01/1995]',0.179,0.003,-0.322,0.529
'[09:47:39.638 24/01/1995]',0.179,0.003,-0.322,0.529
'[09:47:39.640 24/01/1995]',0.215,0.003,-0.317,0.535
'[09:47:39.642 24/01/1995]',0.215,0.003,-0.317,0.535
'[09:47:39.644 24/01/1995]',0.215,0.003,-0.317,0.535
'[09:47:39.646 24/01/1995]',0.250,0.003,-0.317,0.535
'[09:47:39.648 24/01/1995]',0.250,0.003,-0.305,0.540
'[09:47:39.650 24/01/1995]',0.286,-0.031,-0.305,0.540
'[09:47:39.652 24/01/1995]',0.321,0.003,-0.305,0.540
'[09:47:39.654 24/01/1995]',0.321,0.003,-0.305,0.540
'[09:47:39.656 24/01/1995]',0.321,0.003,-0.282,0.544
'[09:47:39.658 24/01/1995]',0.357,0.003,-0.282,0.544
'[09:47:39.660 24/01/1995]',0.357,0.003,-0.282,0.544
'[09:47:39.662 24/01/1995]',0.321,0.003,-0.282,0.544
'[09:47:39.664 24/01/1995]',0.357,0.003,-0.260,0.546
'[09:47:39.666 24/01/1995]',0.357,0.003,-0.260,0.546
'[09:47:39.668 24/01/1995]',0.357,0.003,-0.260,0.546
'[09:47:39.670 24/01/1995]',0.357,0.003,-0.260,0.546
'[09:47:39.672 24/01/1995]',0.321,0.003,-0.214,0.547
'[09:47:39.674 24/01/1995]',0.357,0.003,-0.214,0.547
'[09:47:39.676 24/01/1995]',0.357,0.003,-0.214,0.547
'[09:47:39.678 24/01/1995]',0.357,0.003,-0.214,0.547
'[09:47:39.680 24/01/1995]',0.393,0.003,-0.158,0.547
'[09:47:39.682 24/01/1995]',0.393,0.003,-0.158,0.547
'[09:47:39.684 24/01/1995]',0.357,0.003,-0.158,0.547
'[09:47:39.686 24/01/1995]',0.357,0.003,-0.158,0.547
'[09:47:39.688 24/01/1995]',0.357,0.003,-0.090,0.545
'[09:47:39.690 24/01/1995]',0.357,0.003,-0.090,0.545
'[09:47:39.692 24/01/1995]',0.321,0.003,-0.090,0.545
'[09:47:39.694 24/01/1995]',0.321,0.003,-0.090,0.545
'[09:47:39.696 24/01/1995]',0.321,0.003,0.006,0.543
'[09:47:39.698 24/01/1995]',0.321,0.003,0.006,0.543
'[09:47:39.700 24/01/1995]',0.286,0.003,0.006,0.543
'[09:47:39.702 24/01/1995]',0.286,0.003,0.006,0.543
'[09:47:39.704 24/01/1995]',0.250,0.003,0.102,0.539
'[09:47:39.706 24/01/1995]',0.250,0.003,0.102,0.539
'[09:47:39.708 24/01/1995]',0.250,0.003,0.102,0.539
'[09:47:39.710 24/01/1995]',0.215,0.003,0.102,0.539
'[09:47:39.712 24/01/1995]',0.215,0.003,0.221,0.534
'[09:47:39.714 24/01/1995]',0.215,0.003,0.221,0.534
'[09:47:39.716 24/01/1995]',0.179,0.003,0.221,0.534
'[09:47:39.718 24/01/1995]',0.144,0.003,0.221,0.534
'[09:47:39.720 24/01/1995]',0.108,0.003,0.329,0.528
'[09:47:39.722 24/01/1995]',0.108,0.003,0.329,0.528
'[09:47:39.724 24/01/1995]',0.073,0.003,0.329,0.528
'[09:47:39.726 24/01/1995]',0.073,0.003,0.329,0.528
'[09:47:39.728 24/01/1995]',0.073,0.003,0.447,0.522
'[09:47:39.730 24/01/1995]',0.073,0.003,0.447,0.522
'[09:47:39.732 24/01/1995]',0.037,0.003,0.447,0.522
'[09:47:39.734 24/01/1995]',0.037,0.003,0.447,0.522
'[09:47:39.736 24/01/1995]',0.037,0.003,0.549,0.514
'[09:47:39.738 24/01/1995]',0.037,0.003,0.549,0.514
'[09:47:39.740 24/01/1995]',0.003,0.003,0.549,0.514
'[09:47:39.742 24/01/1995]',0.003,0.003,0.549,0.514
'[09:47:39.744 24/01/1995]',0.003,0.003,0.639,0.504
'[09:47:39.746 24/01/1995]',0.003,0.003,0.639,0.504
'[09:47:39.748 24/01/1995]',0.003,0.003,0.639,0.504
'[09:47:39.750 24/01/1995]',0.003,-0.031,0.639,0.504
'[09:47:39.752 24/01/1995]',0.003,-0.031,0.713,0.493
'[09:47:39.754 24/01/1995]',0.003,-0.031,0.713,0.493
'[09:47:39.756 24/01/1995]',0.003,-0.031,0.713,0.493
'[09:47:39.758 24/01/1995]',0.003,-0.031,0.713,0.493
'[09:47:39.760 24/01/1995]',0.003,-0.031,0.769,0.481
'[09:47:39.762 24/01/1995]',0.003,-0.031,0.769,0.481
'[09:47:39.764 24/01/1995]',0.003,-0.031,0.769,0.481
'[09:47:39.766 24/01/1995]',0.003,-0.031,0.769,0.481
'[09:47:39.768 24/01/1995]',0.003,-0.031,0.815,0.467
'[09:47:39.770 24/01/1995]',0.003,-0.031,0.815,0.467
'[09:47:39.772 24/01/1995]',0.003,-0.031,0.815,0.467
'[09:47:39.774 24/01/1995]',0.003,-0.031,0.815,0.467
'[09:47:39.776 24/01/1995]',0.003,-0.031,0.838,0.452
'[09:47:39.778 24/01/1995]',0.003,-0.031,0.838,0.452
'[09:47:39.780 24/01/1995]',-0.032,0.003,0.838,0.452
'[09:47:39.782 24/01/1995]',0.003,-0.031,0.838,0.452
'[09:47:39.784 24/01/1995]',0.003,0.003,0.843,0.436
'[09:47:39.786 24/01/1995]',0.003,0.003,0.843,0.436
'[09:47:39.788 24/01/1995]',0.003,0.003,0.843,0.436
'[09:47:39.790 24/01/1995]',0.003,0.003,0.843,0.436
'[09:47:39.792 24/01/1995]',0.003,-0.031,0.855,0.420
'[09:47:39.794 24/01/1995]',0.003,-0.031,0.855,0.420
'[09:47:39.796 24/01/1995]',0.003,0.003,0.855,0.420
'[09:47:39.798 24/01/1995]',0.003,0.003,0.855,0.420
'[09:47:39.800 24/01/1995]',0.003,0.003,0.849,0.404
'[09:47:39.802 24/01/1995]',0.003,0.003,0.849,0.404
'[09:47:39.804 24/01/1995]',0.003,0.003,0.849,0.404
'[09:47:39.806 24/01/1995]',0.003,0.003,0.849,0.404
'[09:47:39.808 24/01/1995]',-0.032,0.003,0.832,0.388
'[09:47:39.810 24/01/1995]',-0.032,0.003,0.832,0.388
'[09:47:39.812 24/01/1995]',-0.032,0.003,0.832,0.388
'[09:47:39.814 24/01/1995]',-0.032,0.003,0.832,0.388
'[09:47:39.816 24/01/1995]',-0.032,0.003,0.815,0.373
'[09:47:39.818 24/01/1995]',-0.032,0.003,0.815,0.373
'[09:47:39.820 24/01/1995]',-0.032,0.003,0.815,0.373
'[09:47:39.822 24/01/1995]',-0.032,0.003,0.815,0.373
'[09:47:39.824 24/01/1995]',0.003,0.003,0.792,0.358
'[09:47:39.826 24/01/1995]',-0.032,0.003,0.792,0.358
'[09:47:39.828 24/01/1995]',0.003,0.003,0.792,0.358
'[09:47:39.830 24/01/1995]',-0.032,0.003,0.792,0.358
'[09:47:39.832 24/01/1995]',-0.032,0.035,0.769,0.344
'[09:47:39.834 24/01/1995]',-0.032,0.003,0.769,0.344
'[09:47:39.836 24/01/1995]',-0.032,0.003,0.769,0.344
'[09:47:39.838 24/01/1995]',0.003,0.003,0.769,0.344
'[09:47:39.840 24/01/1995]',0.003,0.003,0.736,0.331
'[09:47:39.842 24/01/1995]',0.003,0.003,0.736,0.331
'[09:47:39.844 24/01/1995]',0.003,0.003,0.736,0.331
'[09:47:39.846 24/01/1995]',0.003,0.003,0.736,0.331
'[09:47:39.848 24/01/1995]',0.003,0.003,0.707,0.318
'[09:47:39.850 24/01/1995]',0.003,0.003,0.707,0.318
'[09:47:39.852 24/01/1995]',-0.032,0.003,0.707,0.318
'[09:47:39.854 24/01/1995]',-0.032,0.003,0.707,0.318
'[09:47:39.856 24/01/1995]',-0.032,0.003,0.667,0.305
'[09:47:39.858 24/01/1995]',-0.032,0.003,0.667,0.305
'[09:47:39.860 24/01/1995]',-0.032,0.003,0.667,0.305
'[09:47:39.862 24/01/1995]',-0.032,0.003,0.667,0.305
'[09:47:39.864 24/01/1995]',-0.032,0.003,0.628,0.292
'[09:47:39.866 24/01/1995]',0.003,0.003,0.628,0.292
'[09:47:39.868 24/01/1995]',0.003,0.003,0.628,0.292
'[09:47:39.870 24/01/1995]',0.003,0.003,0.628,0.292
'[09:47:39.872 24/01/1995]',0.003,0.003,0.583,0.279
'[09:47:39.874 24/01/1995]',0.003,0.003,0.583,0.279
'[09:47:39.876 24/01/1995]',0.003,0.003,0.583,0.279
'[09:47:39.878 24/01/1995]',0.003,0.003,0.583,0.279
'[09:47:39.880 24/01/1995]',0.003,0.003,0.537,0.265
'[09:47:39.882 24/01/1995]',0.003,-0.031,0.537,0.265
'[09:47:39.884 24/01/1995]',0.003,-0.031,0.537,0.265
'[09:47:39.886 24/01/1995]',0.003,0.003,0.537,0.265
'[09:47:39.888 24/01/1995]',0.003,0.003,0.481,0.251
'[09:47:39.890 24/01/1995]',0.003,0.003,0.481,0.251
'[09:47:39.892 24/01/1995]',-0.032,0.003,0.481,0.251
'[09:47:39.894 24/01/1995]',-0.032,0.003,0.481,0.251
'[09:47:39.896 24/01/1995]',-0.032,0.035,0.435,0.236
'[09:47:39.898 24/01/1995]',-0.032,0.069,0.435,0.236
'[09:47:39.900 24/01/1995]',-0.032,0.103,0.435,0.236
'[09:47:39.902 24/01/1995]',-0.032,0.137,0.435,0.236
'[09:47:39.904 24/01/1995]',-0.032,0.170,0.385,0.222
'[09:47:39.906 24/01/1995]',0.003,0.204,0.385,0.222
'[09:47:39.908 24/01/1995]',0.003,0.170,0.385,0.222
'[09:47:39.910 24/01/1995]',0.073,0.170,0.385,0.222
'[09:47:39.912 24/01/1995]',0.144,0.137,0.334,0.207
'[09:47:39.914 24/01/1995]',0.250,0.069,0.334,0.207
'[09:47:39.916 24/01/1995]',0.393,0.003,0.334,0.207
'[09:47:39.918 24/01/1995]',0.533,-0.064,0.334,0.207
'[09:47:39.920 24/01/1995]',0.640,-0.166,0.288,0.192
'[09:47:39.922 24/01/1995]',0.711,-0.233,0.288,0.192
'[09:47:39.924 24/01/1995]',0.675,-0.334,0.288,0.192
'[09:47:39.926 24/01/1995]',0.569,-0.436,0.288,0.192
'[09:47:39.928 24/01/1995]',0.393,-0.502,0.249,0.176
'[09:47:39.930 24/01/1995]',0.250,-0.569,0.249,0.176
'[09:47:39.932 24/01/1995]',0.108,-0.569,0.249,0.176
'[09:47:39.934 24/01/1995]',0.037,-0.569,0.249,0.176
'[09:47:39.936 24/01/1995]',0.003,-0.535,0.204,0.161
'[09:47:39.938 24/01/1995]',-0.032,-0.469,0.204,0.161
'[09:47:39.940 24/01/1995]',-0.103,-0.402,0.204,0.161
'[09:47:39.942 24/01/1995]',-0.139,-0.334,0.204,0.161
'[09:47:39.944 24/01/1995]',-0.139,-0.267,0.170,0.145
'[09:47:39.946 24/01/1995]',-0.139,-0.199,0.170,0.145
'[09:47:39.948 24/01/1995]',-0.139,-0.166,0.170,0.145
'[09:47:39.950 24/01/1995]',-0.139,-0.098,0.170,0.145
'[09:47:39.952 24/01/1995]',-0.103,-0.064,0.131,0.130
'[09:47:39.954 24/01/1995]',-0.103,-0.031,0.131,0.130
'[09:47:39.956 24/01/1995]',-0.103,-0.031,0.131,0.130
'[09:47:39.958 24/01/1995]',-0.103,0.003,0.131,0.130
'[09:47:39.960 24/01/1995]',-0.103,0.003,0.102,0.114
'[09:47:39.962 24/01/1995]',-0.103,0.003,0.102,0.114
'[09:47:39.964 24/01/1995]',-0.103,0.003,0.102,0.114
'[09:47:39.966 24/01/1995]',-0.103,0.003,0.102,0.114
'[09:47:39.968 24/01/1995]',-0.139,0.003,0.068,0.099
'[09:47:39.970 24/01/1995]',-0.139,0.003,0.068,0.099
'[09:47:39.972 24/01/1995]',-0.174,0.035,0.068,0.099
'[09:47:39.974 24/01/1995]',-0.174,0.035,0.068,0.099
'[09:47:39.976 24/01/1995]',-0.174,0.035,0.045,0.083
'[09:47:39.978 24/01/1995]',-0.174,0.035,0.045,0.083
'[09:47:39.980 24/01/1995]',-0.210,0.035,0.045,0.083
'[09:47:39.982 24/01/1995]',-0.210,0.035,0.045,0.083
'[09:47:39.984 24/01/1995]',-0.210,0.069,0.023,0.068
'[09:47:39.986 24/01/1995]',-0.210,0.035,0.023,0.068
'[09:47:39.988 24/01/1995]',-0.210,0.069,0.023,0.068
'[09:47:39.990 24/01/1995]',-0.210,0.035,0.023,0.068
'[09:47:39.992 24/01/1995]',-0.210,0.035,-0.005,0.052
'[09:47:39.994 24/01/1995]',-0.210,0.035,-0.005,0.052
'[09:47:39.996 24/01/1995]',-0.210,0.035,-0.005,0.052
'[09:47:39.998 24/01/1995]',-0.210,0.035,-0.005,0.052
'[09:47:40.000 24/01/1995]',-0.210,0.035,-0.028,0.038
'[09:47:40.002 24/01/1995]',-0.174,0.035,-0.028,0.038
'[09:47:40.004 24/01/1995]',-0.174,0.035,-0.028,0.038
'[09:47:40.006 24/01/1995]',-0.174,0.035,-0.028,0.038
'[09:47:40.008 24/01/1995]',-0.174,0.035,-0.051,0.025
'[09:47:40.010 24/01/1995]',-0.174,0.035,-0.051,0.025
'[09:47:40.012 24/01/1995]',-0.174,0.003,-0.051,0.025
'[09:47:40.014 24/01/1995]',-0.174,0.003,-0.051,0.025
'[09:47:40.016 24/01/1995]',-0.139,0.003,-0.073,0.012
'[09:47:40.018 24/01/1995]',-0.139,0.003,-0.073,0.012
'[09:47:40.020 24/01/1995]',-0.103,0.003,-0.073,0.012
'[09:47:40.022 24/01/1995]',-0.103,0.003,-0.073,0.012
'[09:47:40.024 24/01/1995]',-0.103,0.003,-0.096,-0.001
'[09:47:40.026 24/01/1995]',-0.103,0.003,-0.096,-0.001
'[09:47:40.028 24/01/1995]',-0.103,0.003,-0.096,-0.001
'[09:47:40.030 24/01/1995]',-0.103,0.003,-0.096,-0.001
'[09:47:40.032 24/01/1995]',-0.103,0.003,-0.107,-0.012
'[09:47:40.034 24/01/1995]',-0.103,0.003,-0.107,-0.012
'[09:47:40.036 24/01/1995]',-0.103,0.003,-0.107,-0.012
'[09:47:40.038 24/01/1995]',-0.103,0.003,-0.107,-0.012
'[09:47:40.040 24/01/1995]',-0.103,0.003,-0.130,-0.022
'[09:47:40.042 24/01/1995]',-0.103,0.003,-0.130,-0.022
'[09:47:40.044 24/01/1995]',-0.103,0.003,-0.130,-0.022
'[09:47:40.046 24/01/1995]',-0.068,0.003,-0.130,-0.022
'[09:47:40.048 24/01/1995]',-0.068,0.003,-0.152,-0.033
'[09:47:40.050 24/01/1995]',-0.068,0.003,-0.152,-0.033
'[09:47:40.052 24/01/1995]',-0.068,0.003,-0.152,-0.033
'[09:47:40.054 24/01/1995]',-0.068,0.003,-0.152,-0.033
'[09:47:40.056 24/01/1995]',-0.068,0.035,-0.170,-0.042
'[09:47:40.058 24/01/1995]',-0.068,0.035,-0.170,-0.042
'[09:47:40.060 24/01/1995]',-0.068,0.035,-0.170,-0.042
'[09:47:40.062 24/01/1995]',-0.068,0.035,-0.170,-0.042
'[09:47:40.064 24/01/1995]',-0.068,0.035,-0.192,-0.051
'[09:47:40.066 24/01/1995]',-0.068,0.035,-0.192,-0.051
'[09:47:40.068 24/01/1995]',-0.032,0.035,-0.192,-0.051
'[09:47:40.070 24/01/1995]',-0.032,0.035,-0.192,-0.051
'[09:47:40.072 24/01/1995]',-0.032,0.035,-0.209,-0.059
'[09:47:40.074 24/01/1995]',-0.032,0.035,-0.209,-0.059
'[09:47:40.076 24/01/1995]',0.003,0.035,-0.209,-0.059
'[09:47:40.078 24/01/1995]',0.003,0.035,-0.209,-0.059
'[09:47:40.080 24/01/1995]',0.003,0.069,-0.237,-0.068
'[09:47:40.082 24/01/1995]',0.003,0.069,-0.237,-0.068
'[09:47:40.084 24/01/1995]',0.003,0.069,-0.237,-0.068
'[09:47:40.086 24/01/1995]',0.003,0.069,-0.237,-0.068
'[09:47:40.088 24/01/1995]',0.003,0.069,-0.255,-0.076
'[09:47:40.090 24/01/1995]',0.037,0.069,-0.255,-0.076
'[09:47:40.092 24/01/1995]',0.037,0.069,-0.255,-0.076
'[09:47:40.094 24/01/1995]',0.037,0.069,-0.255,-0.076
'[09:47:40.096 24/01/1995]',0.073,0.069,-0.272,-0.084
'[09:47:40.098 24/01/1995]',0.073,0.069,-0.272,-0.084
'[09:47:40.100 24/01/1995]',0.073,0.069,-0.272,-0.084
'[09:47:40.102 24/01/1995]',0.073,0.069,-0.272,-0.084
'[09:47:40.104 24/01/1995]',0.108,0.069,-0.288,-0.090
'[09:47:40.106 24/01/1995]',0.108,0.069,-0.288,-0.090
'[09:47:40.108 24/01/1995]',0.108,0.035,-0.288,-0.090
'[09:47:40.110 24/01/1995]',0.108,0.069,-0.288,-0.090
'[09:47:40.112 24/01/1995]',0.108,0.069,-0.305,-0.097
'[09:47:40.114 24/01/1995]',0.108,0.035,-0.305,-0.097
'[09:47:40.116 24/01/1995]',0.144,0.035,-0.305,-0.097
'[09:47:40.118 24/01/1995]',0.144,0.035,-0.305,-0.097
'[09:47:40.120 24/01/1995]',0.144,0.069,-0.322,-0.103
'[09:47:40.122 24/01/1995]',0.144,0.069,-0.322,-0.103
'[09:47:40.124 24/01/1995]',0.144,0.069,-0.322,-0.103
'[09:47:40.126 24/01/1995]',0.179,0.069,-0.322,-0.103
'[09:47:40.128 24/01/1995]',0.179,0.035,-0.345,-0.111
'[09:47:40.130 24/01/1995]',0.179,0.035,-0.345,-0.111
'[09:47:40.132 24/01/1995]',0.179,0.035,-0.345,-0.111
'[09:47:40.134 24/01/1995]',0.179,0.035,-0.345,-0.111
'[09:47:40.136 24/01/1995]',0.179,0.035,-0.350,-0.119
'[09:47:40.138 24/01/1995]',0.179,0.035,-0.350,-0.119
'[09:47:40.140 24/01/1995]',0.144,0.035,-0.350,-0.119
'[09:47:40.142 24/01/1995]',0.108,0.035,-0.350,-0.119
'[09:47:40.144 24/01/1995]',0.108,0.035,-0.367,-0.128
'[09:47:40.146 24/01/1995]',0.108,0.035,-0.367,-0.128
'[09:47:40.148 24/01/1995]',0.108,0.035,-0.367,-0.128
'[09:47:40.150 24/01/1995]',0.108,0.069,-0.367,-0.128
'[09:47:40.152 24/01/1995]',0.108,0.069,-0.373,-0.137
'[09:47:40.154 24/01/1995]',0.073,0.170,-0.373,-0.137
'[09:47:40.156 24/01/1995]',0.073,0.204,-0.373,-0.137
'[09:47:40.158 24/01/1995]',0.073,0.170,-0.373,-0.137
'[09:47:40.160 24/01/1995]',0.073,0.137,-0.385,-0.146
'[09:47:40.162 24/01/1995]',0.037,0.204,-0.385,-0.146
'[09:47:40.164 24/01/1995]',0.037,0.305,-0.385,-0.146
'[09:47:40.166 24/01/1995]',0.003,0.373,-0.385,-0.146
'[09:47:40.168 24/01/1995]',0.003,0.406,-0.390,-0.156
'[09:47:40.170 24/01/1995]',0.003,0.440,-0.390,-0.156
'[09:47:40.172 24/01/1995]',0.003,0.406,-0.390,-0.156
'[09:47:40.174 24/01/1995]',0.003,0.271,-0.390,-0.156
'[09:47:40.176 24/01/1995]',0.003,0.170,-0.385,-0.167
'[09:47:40.178 24/01/1995]',-0.032,0.137,-0.385,-0.167
'[09:47:40.180 24/01/1995]',-0.032,0.103,-0.385,-0.167
'[09:47:40.182 24/01/1995]',-0.032,0.103,-0.385,-0.167
'[09:47:40.184 24/01/1995]',-0.032,0.069,-0.390,-0.177
'[09:47:40.186 24/01/1995]',-0.032,0.069,-0.390,-0.177
'[09:47:40.188 24/01/1995]',-0.032,0.069,-0.390,-0.177
'[09:47:40.190 24/01/1995]',-0.032,0.069,-0.390,-0.177
'[09:47:40.192 24/01/1995]',-0.032,0.069,-0.379,-0.190
'[09:47:40.194 24/01/1995]',-0.032,0.069,-0.379,-0.190
'[09:47:40.196 24/01/1995]',-0.032,0.069,-0.379,-0.190
'[09:47:40.198 24/01/1995]',-0.032,0.069,-0.379,-0.190
'[09:47:40.200 24/01/1995]',-0.032,0.069,-0.362,-0.203
'[09:47:40.202 24/01/1995]',-0.032,0.069,-0.362,-0.203
'[09:47:40.204 24/01/1995]',-0.032,0.035,-0.362,-0.203
'[09:47:40.206 24/01/1995]',-0.032,0.035,-0.362,-0.203
'[09:47:40.208 24/01/1995]',-0.032,0.003,-0.339,-0.216
'[09:47:40.210 24/01/1995]',-0.068,0.003,-0.339,-0.216
'[09:47:40.212 24/01/1995]',-0.068,0.003,-0.339,-0.216
'[09:47:40.214 24/01/1995]',-0.068,0.003,-0.339,-0.216
'[09:47:40.216 24/01/1995]',-0.068,0.003,-0.317,-0.230
'[09:47:40.218 24/01/1995]',-0.068,0.003,-0.317,-0.230
'[09:47:40.220 24/01/1995]',-0.068,0.003,-0.317,-0.230
'[09:47:40.222 24/01/1995]',-0.032,0.003,-0.317,-0.230
'[09:47:40.224 24/01/1995]',-0.032,0.003,-0.282,-0.244
'[09:47:40.226 24/01/1995]',-0.068,0.003,-0.282,-0.244
'[09:47:40.228 24/01/1995]',-0.068,0.003,-0.282,-0.244
'[09:47:40.230 24/01/1995]',-0.068,0.003,-0.282,-0.244
'[09:47:40.232 24/01/1995]',-0.068,0.003,-0.243,-0.258
'[09:47:40.234 24/01/1995]',-0.068,0.003,-0.243,-0.258
'[09:47:40.236 24/01/1995]',-0.068,0.003,-0.243,-0.258
'[09:47:40.238 24/01/1995]',-0.068,-0.031,-0.243,-0.258
'[09:47:40.240 24/01/1995]',-0.032,-0.031,-0.203,-0.271
'[09:47:40.242 24/01/1995]',-0.068,-0.031,-0.203,-0.271
'[09:47:40.244 24/01/1995]',-0.068,-0.031,-0.203,-0.271
'[09:47:40.246 24/01/1995]',-0.068,-0.031,-0.203,-0.271
'[09:47:40.248 24/01/1995]',-0.068,-0.031,-0.201,-0.284
'[09:47:40.250 24/01/1995]',-0.068,-0.031,-0.201,-0.284
'[09:47:40.252 24/01/1995]',-0.068,-0.031,-0.201,-0.284
'[09:47:40.254 24/01/1995]',-0.068,-0.031,-0.201,-0.284
'[09:47:40.256 24/01/1995]',-0.068,-0.031,-0.164,-0.298
'[09:47:40.258 24/01/1995]',-0.068,-0.031,-0.164,-0.298
'[09:47:40.260 24/01/1995]',-0.068,-0.031,-0.164,-0.298
'[09:47:40.262 24/01/1995]',-0.068,-0.031,-0.164,-0.298
'[09:47:40.264 24/01/1995]',-0.068,-0.031,-0.142,-0.312
'[09:47:40.266 24/01/1995]',-0.068,-0.031,-0.142,-0.312
'[09:47:40.268 24/01/1995]',-0.068,-0.031,-0.142,-0.312
'[09:47:40.270 24/01/1995]',-0.068,-0.031,-0.142,-0.312
'[09:47:40.272 24/01/1995]',-0.068,-0.031,-0.121,-0.326
'[09:47:40.274 24/01/1995]',-0.068,-0.031,-0.121,-0.326
'[09:47:40.276 24/01/1995]',-0.068,-0.031,-0.121,-0.326
'[09:47:40.278 24/01/1995]',-0.068,-0.031,-0.121,-0.326
'[09:47:40.280 24/01/1995]',-0.068,-0.031,-0.105,-0.340
'[09:47:40.282 24/01/1995]',-0.068,-0.031,-0.105,-0.340
'[09:47:40.284 24/01/1995]',-0.068,0.003,-0.105,-0.340
'[09:47:40.286 24/01/1995]',-0.068,0.003,-0.105,-0.340
'[09:47:40.288 24/01/1995]',-0.068,0.003,-0.101,-0.352
'[09:47:40.290 24/01/1995]',-0.068,0.003,-0.101,-0.352
'[09:47:40.292 24/01/1995]',-0.068,0.035,-0.101,-0.352
'[09:47:40.294 24/01/1995]',-0.068,0.170,-0.101,-0.352
'[09:47:40.296 24/01/1995]',-0.068,0.271,-0.101,-0.364
'[09:47:40.298 24/01/1995]',-0.068,0.339,-0.101,-0.364
'[09:47:40.300 24/01/1995]',-0.068,0.373,-0.101,-0.364
'[09:47:40.302 24/01/1995]',-0.068,0.406,-0.101,-0.364
'[09:47:40.304 24/01/1995]',-0.068,0.440,-0.105,-0.377
'[09:47:40.306 24/01/1995]',-0.068,0.440,-0.105,-0.377
'[09:47:40.308 24/01/1995]',-0.068,0.440,-0.105,-0.377
'[09:47:40.310 24/01/1995]',-0.068,0.440,-0.105,-0.377
'[09:47:40.312 24/01/1995]',-0.068,0.440,-0.127,-0.389
'[09:47:40.314 24/01/1995]',-0.068,0.440,-0.127,-0.389
'[09:47:40.316 24/01/1995]',-0.032,0.440,-0.127,-0.389
'[09:47:40.318 24/01/1995]',-0.032,0.440,-0.127,-0.389
'[09:47:40.320 24/01/1995]',-0.032,0.440,-0.142,-0.401
'[09:47:40.322 24/01/1995]',-0.032,0.440,-0.142,-0.401
'[09:47:40.324 24/01/1995]',-0.068,0.440,-0.142,-0.401
'[09:47:40.326 24/01/1995]',-0.068,0.440,-0.142,-0.401
'[09:47:40.328 24/01/1995]',-0.068,0.440,-0.169,-0.414
'[09:47:40.330 24/01/1995]',-0.068,0.440,-0.169,-0.414
'[09:47:40.332 24/01/1995]',-0.068,0.440,-0.169,-0.414
'[09:47:40.334 24/01/1995]',-0.068,0.440,-0.169,-0.414
'[09:47:40.336 24/01/1995]',-0.068,0.440,-0.206,-0.428
'[09:47:40.338 24/01/1995]',-0.068,0.440,-0.206,-0.428
'[09:47:40.340 24/01/1995]',-0.068,0.440,-0.206,-0.428
'[09:47:40.342 24/01/1995]',-0.068,0.440,-0.206,-0.428
'[09:47:40.344 24/01/1995]',-0.068,0.406,-0.233,-0.443
'[09:47:40.346 24/01/1995]',-0.068,0.373,-0.233,-0.443
'[09:47:40.348 24/01/1995]',-0.068,0.305,-0.233,-0.443
'[09:47:40.350 24/01/1995]',-0.068,0.238,-0.233,-0.443
'[09:47:40.352 24/01/1995]',-0.032,0.170,-0.264,-0.456
'[09:47:40.354 24/01/1995]',-0.032,0.103,-0.264,-0.456
'[09:47:40.356 24/01/1995]',-0.032,0.069,-0.264,-0.456
'[09:47:40.358 24/01/1995]',-0.032,0.069,-0.264,-0.456
'[09:47:40.360 24/01/1995]',-0.032,0.035,-0.290,-0.469
'[09:47:40.362 24/01/1995]',-0.032,0.035,-0.290,-0.469
'[09:47:40.364 24/01/1995]',-0.032,0.035,-0.290,-0.469
'[09:47:40.366 24/01/1995]',-0.032,0.035,-0.290,-0.469
'[09:47:40.368 24/01/1995]',-0.032,0.035,-0.317,-0.482
'[09:47:40.370 24/01/1995]',-0.032,0.003,-0.317,-0.482
'[09:47:40.372 24/01/1995]',-0.032,0.003,-0.317,-0.482
'[09:47:40.374 24/01/1995]',-0.032,0.003,-0.317,-0.482
'[09:47:40.376 24/01/1995]',-0.032,0.003,-0.344,-0.495
'[09:47:40.378 24/01/1995]',-0.032,0.003,-0.344,-0.495
'[09:47:40.380 24/01/1995]',-0.032,0.003,-0.344,-0.495
'[09:47:40.382 24/01/1995]',-0.032,0.035,-0.344,-0.495
'[09:47:40.384 24/01/1995]',-0.032,0.103,-0.369,-0.507
'[09:47:40.386 24/01/1995]',-0.032,0.103,-0.369,-0.507
'[09:47:40.388 24/01/1995]',-0.032,0.069,-0.369,-0.507
'[09:47:40.390 24/01/1995]',-0.032,0.035,-0.369,-0.507
'[09:47:40.392 24/01/1995]',-0.032,0.003,-0.391,-0.519
'[09:47:40.394 24/01/1995]',-0.032,0.003,-0.391,-0.519
'[09:47:40.396 24/01/1995]',-0.032,-0.031,-0.391,-0.519
'[09:47:40.398 24/01/1995]',-0.032,-0.031,-0.391,-0.519
'[09:47:40.400 24/01/1995]',-0.032,-0.031,-0.402,-0.530
'[09:47:40.402 24/01/1995]',-0.032,-0.064,-0.402,-0.530
'[09:47:40.404 24/01/1995]',-0.032,-0.031,-0.402,-0.530
'[09:47:40.406 24/01/1995]',-0.032,-0.031,-0.402,-0.530
'[09:47:40.408 24/01/1995]',-0.032,-0.031,-0.417,-0.541
'[09:47:40.410 24/01/1995]',-0.068,-0.031,-0.417,-0.541
'[09:47:40.412 24/01/1995]',-0.068,-0.031,-0.417,-0.541
'[09:47:40.414 24/01/1995]',-0.068,-0.031,-0.417,-0.541
'[09:47:40.416 24/01/1995]',-0.068,-0.031,-0.422,-0.550
'[09:47:40.418 24/01/1995]',-0.068,-0.031,-0.422,-0.550
'[09:47:40.420 24/01/1995]',-0.068,-0.031,-0.422,-0.550
'[09:47:40.422 24/01/1995]',-0.032,-0.031,-0.422,-0.550
'[09:47:40.424 24/01/1995]',-0.032,-0.031,-0.428,-0.558
'[09:47:40.426 24/01/1995]',-0.032,-0.031,-0.428,-0.558
'[09:47:40.428 24/01/1995]',0.003,0.003,-0.428,-0.558
'[09:47:40.430 24/01/1995]',0.003,0.003,-0.428,-0.558
'[09:47:40.432 24/01/1995]',0.003,0.035,-0.433,-0.565
'[09:47:40.434 24/01/1995]',0.003,0.069,-0.433,-0.565
'[09:47:40.436 24/01/1995]',0.003,0.103,-0.433,-0.565
'[09:47:40.438 24/01/1995]',0.003,0.137,-0.433,-0.565
'[09:47:40.440 24/01/1995]',0.037,0.137,-0.433,-0.572
'[09:47:40.442 24/01/1995]',0.073,0.170,-0.433,-0.572
'[09:47:40.444 24/01/1995]',0.144,0.137,-0.433,-0.572
'[09:47:40.446 24/01/1995]',0.250,0.103,-0.433,-0.572
'[09:47:40.448 24/01/1995]',0.321,0.069,-0.433,-0.578
'[09:47:40.450 24/01/1995]',0.464,0.003,-0.433,-0.578
'[09:47:40.452 24/01/1995]',0.604,-0.031,-0.433,-0.578
'[09:47:40.454 24/01/1995]',0.640,-0.098,-0.433,-0.578
'[09:47:40.456 24/01/1995]',0.604,-0.132,-0.428,-0.584
'[09:47:40.458 24/01/1995]',0.533,-0.199,-0.428,-0.584
'[09:47:40.460 24/01/1995]',0.393,-0.233,-0.428,-0.584
'[09:47:40.462 24/01/1995]',0.250,-0.334,-0.428,-0.584
'[09:47:40.464 24/01/1995]',0.108,-0.402,-0.428,-0.589
'[09:47:40.466 24/01/1995]',0.003,-0.436,-0.428,-0.589
'[09:47:40.468 24/01/1995]',-0.068,-0.469,-0.428,-0.589
'[09:47:40.470 24/01/1995]',-0.139,-0.469,-0.428,-0.589
'[09:47:40.472 24/01/1995]',-0.210,-0.469,-0.417,-0.595
'[09:47:40.474 24/01/1995]',-0.246,-0.436,-0.417,-0.595
'[09:47:40.476 24/01/1995]',-0.317,-0.402,-0.417,-0.595
'[09:47:40.478 24/01/1995]',-0.317,-0.334,-0.417,-0.595
'[09:47:40.480 24/01/1995]',-0.352,-0.301,-0.417,-0.600
'[09:47:40.482 24/01/1995]',-0.352,-0.233,-0.417,-0.600
'[09:47:40.484 24/01/1995]',-0.317,-0.166,-0.417,-0.600
'[09:47:40.486 24/01/1995]',-0.317,-0.132,-0.417,-0.600
'[09:47:40.488 24/01/1995]',-0.281,-0.098,-0.412,-0.604
'[09:47:40.490 24/01/1995]',-0.210,-0.064,-0.412,-0.604
'[09:47:40.492 24/01/1995]',-0.174,-0.064,-0.412,-0.604
'[09:47:40.494 24/01/1995]',-0.174,-0.031,-0.412,-0.604
'[09:47:40.496 24/01/1995]',-0.139,-0.031,-0.412,-0.609
'[09:47:40.498 24/01/1995]',-0.139,-0.031,-0.412,-0.609
'[09:47:40.500 24/01/1995]',-0.139,0.003,-0.412,-0.609
'[09:47:40.502 24/01/1995]',-0.139,0.003,-0.412,-0.609
'[09:47:40.504 24/01/1995]',-0.139,0.003,-0.402,-0.613
'[09:47:40.506 24/01/1995]',-0.139,0.003,-0.402,-0.613
'[09:47:40.508 24/01/1995]',-0.139,0.003,-0.402,-0.613
'[09:47:40.510 24/01/1995]',-0.139,0.003,-0.402,-0.613
'[09:47:40.512 24/01/1995]',-0.139,0.035,-0.402,-0.616
'[09:47:40.514 24/01/1995]',-0.139,0.035,-0.402,-0.616
'[09:47:40.516 24/01/1995]',-0.139,0.035,-0.402,-0.616
'[09:47:40.518 24/01/1995]',-0.139,0.069,-0.402,-0.616
'[09:47:40.520 24/01/1995]',-0.139,0.069,-0.406,-0.619
'[09:47:40.522 24/01/1995]',-0.139,0.069,-0.406,-0.619
'[09:47:40.524 24/01/1995]',-0.103,0.069,-0.406,-0.619
'[09:47:40.526 24/01/1995]',-0.103,0.035,-0.406,-0.619
'[09:47:40.528 24/01/1995]',-0.103,0.035,-0.406,-0.622
'[09:47:40.530 24/01/1995]',-0.103,0.035,-0.406,-0.622
'[09:47:40.532 24/01/1995]',-0.103,0.035,-0.406,-0.622
'[09:47:40.534 24/01/1995]',-0.068,0.035,-0.406,-0.622
'[09:47:40.536 24/01/1995]',-0.068,0.035,-0.402,-0.624
'[09:47:40.538 24/01/1995]',-0.068,0.035,-0.402,-0.624
'[09:47:40.540 24/01/1995]',-0.068,0.035,-0.402,-0.624
'[09:47:40.542 24/01/1995]',-0.068,0.035,-0.402,-0.624
'[09:47:40.544 24/01/1995]',-0.068,0.003,-0.402,-0.625
'[09:47:40.546 24/01/1995]',-0.068,0.003,-0.402,-0.625
'[09:47:40.548 24/01/1995]',-0.068,0.003,-0.402,-0.625
'[09:47:40.550 24/01/1995]',-0.068,0.003,-0.402,-0.625
'[09:47:40.552 24/01/1995]',-0.068,0.003,-0.406,-0.627
'[09:47:40.554 24/01/1995]',-0.068,0.003,-0.406,-0.627
'[09:47:40.556 24/01/1995]',-0.103,-0.031,-0.406,-0.627
'[09:47:40.558 24/01/1995]',-0.068,-0.031,-0.406,-0.627
'[09:47:40.560 24/01/1995]',-0.068,-0.031,-0.412,-0.628
'[09:47:40.562 24/01/1995]',-0.068,-0.031,-0.412,-0.628
'[09:47:40.564 24/01/1995]',-0.068,-0.031,-0.412,-0.628
'[09:47:40.566 24/01/1995]',-0.068,-0.031,-0.412,-0.628
'[09:47:40.568 24/01/1995]',-0.068,-0.031,-0.417,-0.629
'[09:47:40.570 24/01/1995]',-0.068,-0.031,-0.417,-0.629
'[09:47:40.572 24/01/1995]',-0.068,-0.031,-0.417,-0.629
'[09:47:40.574 24/01/1995]',-0.068,-0.031,-0.417,-0.629
'[09:47:40.576 24/01/1995]',-0.068,-0.031,-0.417,-0.630
'[09:47:40.578 24/01/1995]',-0.068,-0.031,-0.417,-0.630
'[09:47:40.580 24/01/1995]',-0.068,0.003,-0.417,-0.630
'[09:47:40.582 24/01/1995]',-0.068,0.003,-0.417,-0.630
'[09:47:40.584 24/01/1995]',-0.068,-0.031,-0.422,-0.630
'[09:47:40.586 24/01/1995]',-0.068,-0.031,-0.422,-0.630
'[09:47:40.588 24/01/1995]',-0.068,-0.031,-0.422,-0.630
'[09:47:40.590 24/01/1995]',-0.068,-0.031,-0.422,-0.630
'[09:47:40.592 24/01/1995]',-0.068,-0.031,-0.422,-0.630
'[09:47:40.594 24/01/1995]',-0.068,0.003,-0.422,-0.630
'[09:47:40.596 24/01/1995]',-0.068,0.003,-0.422,-0.630
'[09:47:40.598 24/01/1995]',-0.032,-0.031,-0.422,-0.630
'[09:47:40.600 24/01/1995]',-0.032,-0.031,-0.428,-0.630
'[09:47:40.602 24/01/1995]',-0.032,0.003,-0.428,-0.630
'[09:47:40.604 24/01/1995]',-0.032,0.003,-0.428,-0.630
'[09:47:40.606 24/01/1995]',-0.032,0.003,-0.428,-0.630
'[09:47:40.608 24/01/1995]',0.003,0.003,-0.433,-0.630
'[09:47:40.610 24/01/1995]',0.003,0.003,-0.433,-0.630
'[09:47:40.612 24/01/1995]',0.003,0.003,-0.433,-0.630
'[09:47:40.614 24/01/1995]',0.003,0.003,-0.433,-0.630
'[09:47:40.616 24/01/1995]',0.003,0.003,-0.439,-0.629
'[09:47:40.618 24/01/1995]',0.003,0.003,-0.439,-0.629
'[09:47:40.620 24/01/1995]',0.003,0.003,-0.439,-0.629
'[09:47:40.622 24/01/1995]',0.003,0.003,-0.439,-0.629
'[09:47:40.624 24/01/1995]',0.037,0.003,-0.433,-0.628
'[09:47:40.626 24/01/1995]',0.037,0.003,-0.433,-0.628
'[09:47:40.628 24/01/1995]',0.037,0.003,-0.433,-0.628
'[09:47:40.630 24/01/1995]',0.037,0.003,-0.433,-0.628
'[09:47:40.632 24/01/1995]',0.073,0.003,-0.433,-0.627
'[09:47:40.634 24/01/1995]',0.073,0.003,-0.433,-0.627
'[09:47:40.636 24/01/1995]',0.073,0.003,-0.433,-0.627
'[09:47:40.638 24/01/1995]',0.108,0.003,-0.433,-0.627
'[09:47:40.640 24/01/1995]',0.108,0.003,-0.439,-0.626
'[09:47:40.642 24/01/1995]',0.108,0.003,-0.439,-0.626
'[09:47:40.644 24/01/1995]',0.108,0.003,-0.439,-0.626
'[09:47:40.646 24/01/1995]',0.144,0.003,-0.439,-0.626
'[09:47:40.648 24/01/1995]',0.144,0.003,-0.439,-0.625
'[09:47:40.650 24/01/1995]',0.144,0.003,-0.439,-0.625
'[09:47:40.652 24/01/1995]',0.144,0.035,-0.439,-0.625
'[09:47:40.654 24/01/1995]',0.179,0.035,-0.439,-0.625
'[09:47:40.656 24/01/1995]',0.179,0.035,-0.428,-0.623
'[09:47:40.658 24/01/1995]',0.179,0.003,-0.428,-0.623
'[09:47:40.660 24/01/1995]',0.179,0.035,-0.428,-0.623
'[09:47:40.662 24/01/1995]',0.179,0.035,-0.428,-0.623
'[09:47:40.664 24/01/1995]',0.179,0.035,-0.412,-0.621
'[09:47:40.666 24/01/1995]',0.179,0.035,-0.412,-0.621
'[09:47:40.668 24/01/1995]',0.179,0.035,-0.412,-0.621
'[09:47:40.670 24/01/1995]',0.179,0.035,-0.412,-0.621
'[09:47:40.672 24/01/1995]',0.179,0.035,-0.391,-0.620
'[09:47:40.674 24/01/1995]',0.179,0.035,-0.391,-0.620
'[09:47:40.676 24/01/1995]',0.179,0.035,-0.391,-0.620
'[09:47:40.678 24/01/1995]',0.179,0.035,-0.391,-0.620
'[09:47:40.680 24/01/1995]',0.179,0.035,-0.359,-0.619
'[09:47:40.682 24/01/1995]',0.179,0.035,-0.359,-0.619
'[09:47:40.684 24/01/1995]',0.179,0.035,-0.359,-0.619
'[09:47:40.686 24/01/1995]',0.144,0.035,-0.359,-0.619
'[09:47:40.688 24/01/1995]',0.144,0.035,-0.306,-0.618
'[09:47:40.690 24/01/1995]',0.144,0.035,-0.306,-0.618
'[09:47:40.692 24/01/1995]',0.144,0.003,-0.306,-0.618
'[09:47:40.694 24/01/1995]',0.144,0.003,-0.306,-0.618
'[09:47:40.696 24/01/1995]',0.144,0.003,-0.248,-0.618
'[09:47:40.698 24/01/1995]',0.144,0.003,-0.248,-0.618
'[09:47:40.700 24/01/1995]',0.144,0.003,-0.248,-0.618
'[09:47:40.702 24/01/1995]',0.108,0.003,-0.248,-0.618
'[09:47:40.704 24/01/1995]',0.108,0.003,-0.179,-0.618
'[09:47:40.706 24/01/1995]',0.108,0.003,-0.179,-0.618
'[09:47:40.708 24/01/1995]',0.108,0.003,-0.179,-0.618
'[09:47:40.710 24/01/1995]',0.108,0.003,-0.179,-0.618
'[09:47:40.712 24/01/1995]',0.073,0.003,-0.095,-0.617
'[09:47:40.714 24/01/1995]',0.073,0.035,-0.095,-0.617
'[09:47:40.716 24/01/1995]',0.073,0.035,-0.095,-0.617
'[09:47:40.718 24/01/1995]',0.073,0.003,-0.095,-0.617
'[09:47:40.720 24/01/1995]',0.073,0.003,-0.005,-0.617
'[09:47:40.722 24/01/1995]',0.037,0.003,-0.005,-0.617
'[09:47:40.724 24/01/1995]',0.037,0.003,-0.005,-0.617
'[09:47:40.726 24/01/1995]',0.037,0.003,-0.005,-0.617
'[09:47:40.728 24/01/1995]',0.037,0.003,0.085,-0.616
'[09:47:40.730 24/01/1995]',0.037,0.003,0.085,-0.616
'[09:47:40.732 24/01/1995]',0.037,0.003,0.085,-0.616
'[09:47:40.734 24/01/1995]',0.037,0.003,0.085,-0.616
'[09:47:40.736 24/01/1995]',0.003,0.003,0.179,-0.616
'[09:47:40.738 24/01/1995]',0.003,0.003,0.179,-0.616
'[09:47:40.740 24/01/1995]',0.003,0.003,0.179,-0.616
'[09:47:40.742 24/01/1995]',0.003,0.003,0.179,-0.616
'[09:47:40.744 24/01/1995]',0.003,-0.031,0.259,-0.617
'[09:47:40.746 24/01/1995]',0.003,0.003,0.259,-0.617
'[09:47:40.748 24/01/1995]',0.003,0.003,0.259,-0.617
'[09:47:40.750 24/01/1995]',0.003,0.003,0.259,-0.617
'[09:47:40.752 24/01/1995]',0.003,0.003,0.333,-0.618
'[09:47:40.754 24/01/1995]',-0.032,0.003,0.333,-0.618
'[09:47:40.756 24/01/1995]',-0.032,0.003,0.333,-0.618
'[09:47:40.758 24/01/1995]',0.003,0.003,0.333,-0.618
'[09:47:40.760 24/01/1995]',0.003,0.003,0.396,-0.619
'[09:47:40.762 24/01/1995]',0.003,0.003,0.396,-0.619
'[09:47:40.764 24/01/1995]',0.003,0.003,0.396,-0.619
'[09:47:40.766 24/01/1995]',0.003,0.003,0.396,-0.619
'[09:47:40.768 24/01/1995]',0.003,0.003,0.433,-0.620
'[09:47:40.770 24/01/1995]',0.003,0.003,0.433,-0.620
'[09:47:40.772 24/01/1995]',0.003,0.003,0.433,-0.620
'[09:47:40.774 24/01/1995]',0.003,0.003,0.433,-0.620
'[09:47:40.776 24/01/1995]',0.003,0.003,0.465,-0.621
'[09:47:40.778 24/01/1995]',-0.032,0.003,0.465,-0.621
'[09:47:40.780 24/01/1995]',-0.032,0.003,0.465,-0.621
'[09:47:40.782 24/01/1995]',-0.032,0.003,0.465,-0.621
'[09:47:40.784 24/01/1995]',-0.032,0.003,0.491,-0.622
'[09:47:40.786 24/01/1995]',-0.032,0.003,0.491,-0.622
'[09:47:40.788 24/01/1995]',-0.032,0.003,0.491,-0.622
'[09:47:40.790 24/01/1995]',-0.032,0.003,0.491,-0.622
'[09:47:40.792 24/01/1995]',-0.032,0.003,0.507,-0.623
'[09:47:40.794 24/01/1995]',0.003,0.003,0.507,-0.623
'[09:47:40.796 24/01/1995]',-0.032,0.003,0.507,-0.623
'[09:47:40.798 24/01/1995]',0.003,0.003,0.507,-0.623
'[09:47:40.800 24/01/1995]',0.003,0.003,0.501,-0.624
'[09:47:40.802 24/01/1995]',0.003,0.003,0.501,-0.624
'[09:47:40.804 24/01/1995]',0.003,0.003,0.501,-0.624
'[09:47:40.806 24/01/1995]',0.003,0.003,0.501,-0.624
'[09:47:40.808 24/01/1995]',0.003,0.003,0.501,-0.625
'[09:47:40.810 24/01/1995]',0.003,0.003,0.501,-0.625
'[09:47:40.812 24/01/1995]',0.003,0.003,0.501,-0.625
'[09:47:40.814 24/01/1995]',0.003,0.003,0.501,-0.625
'[09:47:40.816 24/01/1995]',0.003,0.003,0.486,-0.627
'[09:47:40.818 24/01/1995]',0.003,0.003,0.486,-0.627
'[09:47:40.820 24/01/1995]',0.003,0.003,0.486,-0.627
'[09:47:40.822 24/01/1995]',-0.032,0.003,0.486,-0.627
'[09:47:40.824 24/01/1995]',-0.032,0.003,0.465,-0.629
'[09:47:40.826 24/01/1995]',-0.032,0.003,0.465,-0.629
'[09:47:40.828 24/01/1995]',-0.032,0.003,0.465,-0.629
'[09:47:40.830 24/01/1995]',-0.068,0.003,0.465,-0.629
'[09:47:40.832 24/01/1995]',-0.068,0.003,0.444,-0.631
'[09:47:40.834 24/01/1995]',-0.068,0.003,0.444,-0.631
'[09:47:40.836 24/01/1995]',-0.068,0.003,0.444,-0.631
'[09:47:40.838 24/01/1995]',-0.068,0.003,0.444,-0.631
'[09:47:40.840 24/01/1995]',-0.068,0.003,0.422,-0.634
'[09:47:40.842 24/01/1995]',-0.068,0.003,0.422,-0.634
'[09:47:40.844 24/01/1995]',-0.068,0.003,0.422,-0.634
'[09:47:40.846 24/01/1995]',-0.068,0.003,0.422,-0.634
'[09:47:40.848 24/01/1995]',-0.068,0.003,0.386,-0.636
'[09:47:40.850 24/01/1995]',-0.068,0.003,0.386,-0.636
'[09:47:40.852 24/01/1995]',-0.068,0.003,0.386,-0.636
'[09:47:40.854 24/01/1995]',-0.068,0.003,0.386,-0.636
'[09:47:40.856 24/01/1995]',-0.068,0.003,0.348,-0.639
'[09:47:40.858 24/01/1995]',-0.068,0.003,0.348,-0.639
'[09:47:40.860 24/01/1995]',-0.068,0.003,0.348,-0.639
'[09:47:40.862 24/01/1995]',-0.068,0.003,0.348,-0.639
'[09:47:40.864 24/01/1995]',-0.032,0.003,0.317,-0.642
'[09:47:40.866 24/01/1995]',-0.032,0.003,0.317,-0.642
'[09:47:40.868 24/01/1995]',-0.032,0.003,0.317,-0.642
'[09:47:40.870 24/01/1995]',-0.032,0.003,0.317,-0.642
'[09:47:40.872 24/01/1995]',-0.032,0.003,0.275,-0.646
'[09:47:40.874 24/01/1995]',-0.032,0.003,0.275,-0.646
'[09:47:40.876 24/01/1995]',-0.032,0.003,0.275,-0.646
'[09:47:40.878 24/01/1995]',-0.032,0.003,0.275,-0.646
'[09:47:40.880 24/01/1995]',0.003,0.003,0.233,-0.649
'[09:47:40.882 24/01/1995]',0.003,-0.031,0.233,-0.649
'[09:47:40.884 24/01/1995]',0.003,-0.031,0.233,-0.649
'[09:47:40.886 24/01/1995]',0.003,-0.031,0.233,-0.649
'[09:47:40.888 24/01/1995]',0.003,-0.031,0.190,-0.653
'[09:47:40.890 24/01/1995]',0.003,-0.031,0.190,-0.653
'[09:47:40.892 24/01/1995]',0.003,-0.031,0.190,-0.653
'[09:47:40.894 24/01/1995]',0.003,-0.031,0.190,-0.653
'[09:47:40.896 24/01/1995]',0.003,-0.031,0.142,-0.655
'[09:47:40.898 24/01/1995]',0.003,-0.031,0.142,-0.655
'[09:47:40.900 24/01/1995]',0.003,-0.031,0.142,-0.655
'[09:47:40.902 24/01/1995]',0.003,-0.031,0.142,-0.655
'[09:47:40.904 24/01/1995]',0.003,-0.031,0.111,-0.657
'[09:47:40.906 24/01/1995]',0.003,-0.031,0.111,-0.657
'[09:47:40.908 24/01/1995]',0.003,-0.031,0.111,-0.657
'[09:47:40.910 24/01/1995]',-0.032,0.003,0.111,-0.657
'[09:47:40.912 24/01/1995]',-0.032,0.003,0.069,-0.659
'[09:47:40.914 24/01/1995]',-0.032,0.003,0.069,-0.659
'[09:47:40.916 24/01/1995]',-0.032,0.003,0.069,-0.659
'[09:47:40.918 24/01/1995]',0.003,0.003,0.069,-0.659
'[09:47:40.920 24/01/1995]',-0.032,0.003,0.037,-0.659
'[09:47:40.922 24/01/1995]',-0.032,0.003,0.037,-0.659
'[09:47:40.924 24/01/1995]',-0.032,0.003,0.037,-0.659
'[09:47:40.926 24/01/1995]',-0.032,0.003,0.037,-0.659
'[09:47:40.928 24/01/1995]',-0.068,0.003,0.000,-0.658
'[09:47:40.930 24/01/1995]',-0.068,0.003,0.000,-0.658
'[09:47:40.932 24/01/1995]',-0.068,0.003,0.000,-0.658
'[09:47:40.934 24/01/1995]',-0.068,0.003,0.000,-0.658
'[09:47:40.936 24/01/1995]',-0.068,0.003,-0.032,-0.656
'[09:47:40.938 24/01/1995]',-0.068,0.003,-0.032,-0.656
'[09:47:40.940 24/01/1995]',-0.068,0.003,-0.032,-0.656
'[09:47:40.942 24/01/1995]',-0.032,0.003,-0.032,-0.656
'[09:47:40.944 24/01/1995]',-0.068,0.003,-0.053,-0.653
'[09:47:40.946 24/01/1995]',-0.032,0.003,-0.053,-0.653
'[09:47:40.948 24/01/1995]',-0.068,0.003,-0.053,-0.653
'[09:47:40.950 24/01/1995]',-0.068,0.003,-0.053,-0.653
'[09:47:40.952 24/01/1995]',-0.068,0.003,-0.074,-0.649
'[09:47:40.954 24/01/1995]',-0.068,0.003,-0.074,-0.649
'[09:47:40.956 24/01/1995]',-0.068,0.003,-0.074,-0.649
'[09:47:40.958 24/01/1995]',-0.068,0.003,-0.074,-0.649
'[09:47:40.960 24/01/1995]',-0.068,0.003,-0.095,-0.643
'[09:47:40.962 24/01/1995]',-0.068,0.003,-0.095,-0.643
'[09:47:40.964 24/01/1995]',-0.068,0.003,-0.095,-0.643
'[09:47:40.966 24/01/1995]',-0.068,0.003,-0.095,-0.643
'[09:47:40.968 24/01/1995]',-0.068,0.003,-0.111,-0.635
'[09:47:40.970 24/01/1995]',-0.068,0.003,-0.111,-0.635
'[09:47:40.972 24/01/1995]',-0.068,0.003,-0.111,-0.635
'[09:47:40.974 24/01/1995]',-0.103,0.003,-0.111,-0.635
'[09:47:40.976 24/01/1995]',-0.103,0.003,-0.127,-0.627
'[09:47:40.978 24/01/1995]',-0.103,0.003,-0.127,-0.627
'[09:47:40.980 24/01/1995]',-0.103,0.003,-0.127,-0.627
'[09:47:40.982 24/01/1995]',-0.103,0.003,-0.127,-0.627
'[09:47:40.984 24/01/1995]',-0.103,0.003,-0.142,-0.618
'[09:47:40.986 24/01/1995]',-0.103,0.003,-0.142,-0.618
'[09:47:40.988 24/01/1995]',-0.068,0.035,-0.142,-0.618
'[09:47:40.990 24/01/1995]',-0.103,0.003,-0.142,-0.618
'[09:47:40.992 24/01/1995]',-0.103,0.003,-0.159,-0.608
'[09:47:40.994 24/01/1995]',-0.103,0.003,-0.159,-0.608
'[09:47:40.996 24/01/1995]',-0.103,0.003,-0.159,-0.608
'[09:47:40.998 24/01/1995]',-0.103,0.035,-0.159,-0.608
'[09:47:41.000 24/01/1995]',-0.068,0.035,-0.174,-0.598
'[09:47:41.002 24/01/1995]',-0.068,0.035,-0.174,-0.598
'[09:47:41.004 24/01/1995]',-0.068,0.035,-0.174,-0.598
'[09:47:41.006 24/01/1995]',-0.068,0.069,-0.174,-0.598
'[09:47:41.008 24/01/1995]',-0.068,0.103,-0.190,-0.588
'[09:47:41.010 24/01/1995]',-0.032,0.137,-0.190,-0.588
'[09:47:41.012 24/01/1995]',-0.032,0.170,-0.190,-0.588
'[09:47:41.014 24/01/1995]',-0.032,0.204,-0.190,-0.588
'[09:47:41.016 24/01/1995]',0.003,0.238,-0.211,-0.578
'[09:47:41.018 24/01/1995]',0.037,0.238,-0.211,-0.578
'[09:47:41.020 24/01/1995]',0.108,0.238,-0.211,-0.578
'[09:47:41.022 24/01/1995]',0.179,0.238,-0.211,-0.578
'[09:47:41.024 24/01/1995]',0.286,0.204,-0.222,-0.567
'[09:47:41.026 24/01/1995]',0.428,0.103,-0.222,-0.567
'[09:47:41.028 24/01/1995]',0.604,0.035,-0.222,-0.567
'[09:47:41.030 24/01/1995]',0.675,0.003,-0.222,-0.567
'[09:47:41.032 24/01/1995]',0.711,-0.064,-0.243,-0.556
'[09:47:41.034 24/01/1995]',0.640,-0.132,-0.243,-0.556
'[09:47:41.036 24/01/1995]',0.499,-0.199,-0.243,-0.556
'[09:47:41.038 24/01/1995]',0.357,-0.267,-0.243,-0.556
'[09:47:41.040 24/01/1995]',0.179,-0.334,-0.254,-0.545
'[09:47:41.042 24/01/1995]',0.073,-0.402,-0.254,-0.545
'[09:47:41.044 24/01/1995]',0.003,-0.436,-0.254,-0.545
'[09:47:41.046 24/01/1995]',-0.032,-0.436,-0.254,-0.545
'[09:47:41.048 24/01/1995]',-0.103,-0.469,-0.275,-0.533
'[09:47:41.050 24/01/1995]',-0.139,-0.436,-0.275,-0.533
'[09:47:41.052 24/01/1995]',-0.174,-0.402,-0.275,-0.533
'[09:47:41.054 24/01/1995]',-0.210,-0.334,-0.275,-0.533
'[09:47:41.056 24/01/1995]',-0.246,-0.267,-0.290,-0.521
'[09:47:41.058 24/01/1995]',-0.246,-0.199,-0.290,-0.521
'[09:47:41.060 24/01/1995]',-0.246,-0.166,-0.290,-0.521
'[09:47:41.062 24/01/1995]',-0.210,-0.098,-0.290,-0.521
'[09:47:41.064 24/01/1995]',-0.174,-0.064,-0.301,-0.509
'[09:47:41.066 24/01/1995]',-0.174,-0.031,-0.301,-0.509
'[09:47:41.068 24/01/1995]',-0.139,-0.031,-0.301,-0.509
'[09:47:41.070 24/01/1995]',-0.139,0.003,-0.301,-0.509
'[09:47:41.072 24/01/1995]',-0.103,0.003,-0.322,-0.496
'[09:47:41.074 24/01/1995]',-0.103,0.003,-0.322,-0.496
'[09:47:41.076 24/01/1995]',-0.103,0.003,-0.322,-0.496
'[09:47:41.078 24/01/1995]',-0.103,0.003,-0.322,-0.496
'[09:47:41.080 24/01/1995]',-0.103,0.003,-0.338,-0.482
'[09:47:41.082 24/01/1995]',-0.103,0.003,-0.338,-0.482
'[09:47:41.084 24/01/1995]',-0.103,0.003,-0.338,-0.482
'[09:47:41.086 24/01/1995]',-0.103,0.003,-0.338,-0.482
'[09:47:41.088 24/01/1995]',-0.103,0.003,-0.354,-0.469
'[09:47:41.090 24/01/1995]',-0.103,0.003,-0.354,-0.469
'[09:47:41.092 24/01/1995]',-0.103,0.003,-0.354,-0.469
'[09:47:41.094 24/01/1995]',-0.103,0.003,-0.354,-0.469
'[09:47:41.096 24/01/1995]',-0.103,0.003,-0.369,-0.455
'[09:47:41.098 24/01/1995]',-0.139,0.003,-0.369,-0.455
'[09:47:41.100 24/01/1995]',-0.139,0.003,-0.369,-0.455
'[09:47:41.102 24/01/1995]',-0.139,0.003,-0.369,-0.455
'[09:47:41.104 24/01/1995]',-0.139,0.003,-0.381,-0.441
'[09:47:41.106 24/01/1995]',-0.139,0.003,-0.381,-0.441
'[09:47:41.108 24/01/1995]',-0.139,0.035,-0.381,-0.441
'[09:47:41.110 24/01/1995]',-0.174,0.035,-0.381,-0.441
'[09:47:41.112 24/01/1995]',-0.174,0.035,-0.396,-0.426
'[09:47:41.114 24/01/1995]',-0.139,0.035,-0.396,-0.426
'[09:47:41.116 24/01/1995]',-0.139,0.035,-0.396,-0.426
'[09:47:41.118 24/01/1995]',-0.139,0.035,-0.396,-0.426
'[09:47:41.120 24/01/1995]',-0.139,0.035,-0.406,-0.410
'[09:47:41.122 24/01/1995]',-0.139,0.035,-0.406,-0.410
'[09:47:41.124 24/01/1995]',-0.139,0.035,-0.406,-0.410
'[09:47:41.126 24/01/1995]',-0.139,0.035,-0.406,-0.410
'[09:47:41.128 24/01/1995]',-0.139,0.035,-0.422,-0.393
'[09:47:41.130 24/01/1995]',-0.139,0.069,-0.422,-0.393
'[09:47:41.132 24/01/1995]',-0.139,0.069,-0.422,-0.393
'[09:47:41.134 24/01/1995]',-0.139,0.069,-0.422,-0.393
'[09:47:41.136 24/01/1995]',-0.139,0.069,-0.433,-0.375
'[09:47:41.138 24/01/1995]',-0.174,0.069,-0.433,-0.375
'[09:47:41.140 24/01/1995]',-0.174,0.103,-0.433,-0.375
'[09:47:41.142 24/01/1995]',-0.174,0.103,-0.433,-0.375
'[09:47:41.144 24/01/1995]',-0.174,0.103,-0.444,-0.356
'[09:47:41.146 24/01/1995]',-0.139,0.069,-0.444,-0.356
'[09:47:41.148 24/01/1995]',-0.139,0.069,-0.444,-0.356
'[09:47:41.150 24/01/1995]',-0.139,0.069,-0.444,-0.356
'[09:47:41.152 24/01/1995]',-0.139,0.069,-0.460,-0.337
'[09:47:41.154 24/01/1995]',-0.139,0.069,-0.460,-0.337
'[09:47:41.156 24/01/1995]',-0.103,0.035,-0.460,-0.337
'[09:47:41.158 24/01/1995]',-0.103,0.035,-0.460,-0.337
'[09:47:41.160 24/01/1995]',-0.103,0.035,-0.465,-0.317
'[09:47:41.162 24/01/1995]',-0.068,0.035,-0.465,-0.317
'[09:47:41.164 24/01/1995]',-0.068,0.035,-0.465,-0.317
'[09:47:41.166 24/01/1995]',-0.068,0.035,-0.465,-0.317
'[09:47:41.168 24/01/1995]',-0.068,0.035,-0.475,-0.295
'[09:47:41.170 24/01/1995]',-0.068,0.035,-0.475,-0.295
'[09:47:41.172 24/01/1995]',-0.032,0.035,-0.475,-0.295
'[09:47:41.174 24/01/1995]',0.003,0.069,-0.475,-0.295
'[09:47:41.176 24/01/1995]',0.003,0.069,-0.480,-0.274
'[09:47:41.178 24/01/1995]',0.003,0.069,-0.480,-0.274
'[09:47:41.180 24/01/1995]',0.003,0.069,-0.480,-0.274
'[09:47:41.182 24/01/1995]',0.003,0.035,-0.480,-0.274
'[09:47:41.184 24/01/1995]',0.003,0.035,-0.491,-0.251
'[09:47:41.186 24/01/1995]',0.037,0.035,-0.491,-0.251
'[09:47:41.188 24/01/1995]',0.037,0.003,-0.491,-0.251
'[09:47:41.190 24/01/1995]',0.073,0.003,-0.491,-0.251
'[09:47:41.192 24/01/1995]',0.073,0.003,-0.491,-0.228
'[09:47:41.194 24/01/1995]',0.073,0.003,-0.491,-0.228
'[09:47:41.196 24/01/1995]',0.073,0.003,-0.491,-0.228
'[09:47:41.198 24/01/1995]',0.108,0.003,-0.491,-0.228
'[09:47:41.200 24/01/1995]',0.108,0.003,-0.496,-0.204
'[09:47:41.202 24/01/1995]',0.108,0.003,-0.496,-0.204
'[09:47:41.204 24/01/1995]',0.108,0.003,-0.496,-0.204
'[09:47:41.206 24/01/1995]',0.108,0.035,-0.496,-0.204
'[09:47:41.208 24/01/1995]',0.144,0.170,-0.501,-0.181
'[09:47:41.210 24/01/1995]',0.144,0.305,-0.501,-0.181
'[09:47:41.212 24/01/1995]',0.179,0.373,-0.501,-0.181
'[09:47:41.214 24/01/1995]',0.179,0.406,-0.501,-0.181
'[09:47:41.216 24/01/1995]',0.179,0.406,-0.501,-0.158
'[09:47:41.218 24/01/1995]',0.179,0.373,-0.501,-0.158
'[09:47:41.220 24/01/1995]',0.179,0.339,-0.501,-0.158
'[09:47:41.222 24/01/1995]',0.179,0.238,-0.501,-0.158
'[09:47:41.224 24/01/1995]',0.215,0.170,-0.501,-0.136
'[09:47:41.226 24/01/1995]',0.215,0.103,-0.501,-0.136
'[09:47:41.228 24/01/1995]',0.215,0.035,-0.501,-0.136
'[09:47:41.230 24/01/1995]',0.215,0.003,-0.501,-0.136
'[09:47:41.232 24/01/1995]',0.250,0.003,-0.501,-0.113
'[09:47:41.234 24/01/1995]',0.250,0.003,-0.501,-0.113
'[09:47:41.236 24/01/1995]',0.250,0.003,-0.501,-0.113
'[09:47:41.238 24/01/1995]',0.250,0.003,-0.501,-0.113
'[09:47:41.240 24/01/1995]',0.250,0.003,-0.496,-0.091
'[09:47:41.242 24/01/1995]',0.286,0.003,-0.496,-0.091
'[09:47:41.244 24/01/1995]',0.286,-0.031,-0.496,-0.091
'[09:47:41.246 24/01/1995]',0.286,-0.031,-0.496,-0.091
'[09:47:41.248 24/01/1995]',0.286,-0.031,-0.475,-0.070
'[09:47:41.250 24/01/1995]',0.286,-0.031,-0.475,-0.070
'[09:47:41.252 24/01/1995]',0.250,0.003,-0.475,-0.070
'[09:47:41.254 24/01/1995]',0.215,0.003,-0.475,-0.070
'[09:47:41.256 24/01/1995]',0.215,0.003,-0.460,-0.050
'[09:47:41.258 24/01/1995]',0.215,0.003,-0.460,-0.050
'[09:47:41.260 24/01/1995]',0.215,0.003,-0.460,-0.050
'[09:47:41.262 24/01/1995]',0.179,0.003,-0.460,-0.050
'[09:47:41.264 24/01/1995]',0.179,0.003,-0.422,-0.029
'[09:47:41.266 24/01/1995]',0.179,0.003,-0.422,-0.029
'[09:47:41.268 24/01/1995]',0.179,0.003,-0.422,-0.029
'[09:47:41.270 24/01/1995]',0.144,0.003,-0.422,-0.029
'[09:47:41.272 24/01/1995]',0.144,0.003,-0.369,-0.010
'[09:47:41.274 24/01/1995]',0.108,0.003,-0.369,-0.010
'[09:47:41.276 24/01/1995]',0.073,0.003,-0.369,-0.010
'[09:47:41.278 24/01/1995]',0.073,0.003,-0.369,-0.010
'[09:47:41.280 24/01/1995]',0.073,0.003,-0.306,0.009
'[09:47:41.282 24/01/1995]',0.037,0.003,-0.306,0.009
'[09:47:41.284 24/01/1995]',0.037,0.003,-0.306,0.009
'[09:47:41.286 24/01/1995]',0.037,0.003,-0.306,0.009
'[09:47:41.288 24/01/1995]',0.003,0.003,-0.243,0.026
'[09:47:41.290 24/01/1995]',0.003,0.035,-0.243,0.026
'[09:47:41.292 24/01/1995]',0.003,0.035,-0.243,0.026
'[09:47:41.294 24/01/1995]',0.003,0.035,-0.243,0.026
'[09:47:41.296 24/01/1995]',-0.032,0.035,-0.164,0.043
'[09:47:41.298 24/01/1995]',-0.032,0.035,-0.164,0.043
'[09:47:41.300 24/01/1995]',-0.068,0.035,-0.164,0.043
'[09:47:41.302 24/01/1995]',-0.032,0.035,-0.164,0.043
'[09:47:41.304 24/01/1995]',-0.068,0.035,-0.079,0.059
'[09:47:41.306 24/01/1995]',-0.068,0.035,-0.079,0.059
'[09:47:41.308 24/01/1995]',-0.068,0.035,-0.079,0.059
'[09:47:41.310 24/01/1995]',-0.068,0.035,-0.079,0.059
'[09:47:41.312 24/01/1995]',-0.068,0.003,0.000,0.073
'[09:47:41.314 24/01/1995]',-0.068,0.003,0.000,0.073
'[09:47:41.316 24/01/1995]',-0.068,0.003,0.000,0.073
'[09:47:41.318 24/01/1995]',-0.068,0.003,0.000,0.073
'[09:47:41.320 24/01/1995]',-0.068,0.003,0.079,0.088
'[09:47:41.322 24/01/1995]',-0.068,0.003,0.079,0.088
'[09:47:41.324 24/01/1995]',-0.068,0.003,0.079,0.088
'[09:47:41.326 24/01/1995]',-0.068,0.035,0.079,0.088
'[09:47:41.328 24/01/1995]',-0.068,0.003,0.153,0.102
'[09:47:41.330 24/01/1995]',-0.068,0.003,0.153,0.102
'[09:47:41.332 24/01/1995]',-0.068,0.003,0.153,0.102
'[09:47:41.334 24/01/1995]',-0.032,0.003,0.153,0.102
'[09:47:41.336 24/01/1995]',-0.068,0.003,0.211,0.116
'[09:47:41.338 24/01/1995]',-0.032,0.003,0.211,0.116
'[09:47:41.340 24/01/1995]',-0.032,0.003,0.211,0.116
'[09:47:41.342 24/01/1995]',-0.032,0.003,0.211,0.116
'[09:47:41.344 24/01/1995]',-0.032,0.003,0.264,0.130
'[09:47:41.346 24/01/1995]',-0.032,0.003,0.264,0.130
'[09:47:41.348 24/01/1995]',-0.032,0.003,0.264,0.130
'[09:47:41.350 24/01/1995]',0.003,0.003,0.264,0.130
'[09:47:41.352 24/01/1995]',-0.032,0.003,0.295,0.143
'[09:47:41.354 24/01/1995]',-0.032,0.003,0.295,0.143
'[09:47:41.356 24/01/1995]',-0.032,0.003,0.295,0.143
'[09:47:41.358 24/01/1995]',0.003,0.003,0.295,0.143
'[09:47:41.360 24/01/1995]',0.003,0.003,0.322,0.157
'[09:47:41.362 24/01/1995]',0.003,0.003,0.322,0.157
'[09:47:41.364 24/01/1995]',0.003,0.003,0.322,0.157
'[09:47:41.366 24/01/1995]',0.003,0.003,0.322,0.157
'[09:47:41.368 24/01/1995]',0.003,0.003,0.344,0.170
'[09:47:41.370 24/01/1995]',0.003,0.003,0.344,0.170
'[09:47:41.372 24/01/1995]',0.003,0.003,0.344,0.170
'[09:47:41.374 24/01/1995]',0.003,0.003,0.344,0.170
'[09:47:41.376 24/01/1995]',0.003,-0.031,0.348,0.183
'[09:47:41.378 24/01/1995]',0.003,-0.031,0.348,0.183
'[09:47:41.380 24/01/1995]',0.003,0.003,0.348,0.183
'[09:47:41.382 24/01/1995]',0.003,-0.031,0.348,0.183
'[09:47:41.384 24/01/1995]',0.003,-0.031,0.338,0.197
'[09:47:41.386 24/01/1995]',0.003,0.003,0.338,0.197
'[09:47:41.388 24/01/1995]',0.003,0.003,0.338,0.197
'[09:47:41.390 24/01/1995]',0.003,0.003,0.338,0.197
'[09:47:41.392 24/01/1995]',0.003,0.003,0.338,0.209
'[09:47:41.394 24/01/1995]',0.003,0.003,0.338,0.209
'[09:47:41.396 24/01/1995]',0.003,-0.031,0.338,0.209
'[09:47:41.398 24/01/1995]',0.037,0.003,0.338,0.209
'[09:47:41.400 24/01/1995]',0.037,0.003,0.322,0.223
'[09:47:41.402 24/01/1995]',0.037,0.003,0.322,0.223
'[09:47:41.404 24/01/1995]',0.003,0.003,0.322,0.223
'[09:47:41.406 24/01/1995]',0.003,0.003,0.322,0.223
'[09:47:41.408 24/01/1995]',0.003,0.003,0.306,0.234
'[09:47:41.410 24/01/1995]',0.003,0.003,0.306,0.234
'[09:47:41.412 24/01/1995]',0.003,0.003,0.306,0.234
'[09:47:41.414 24/01/1995]',0.003,0.003,0.306,0.234
'[09:47:41.416 24/01/1995]',0.003,0.003,0.285,0.246
'[09:47:41.418 24/01/1995]',0.003,0.003,0.285,0.246
'[09:47:41.420 24/01/1995]',0.003,0.003,0.285,0.246
'[09:47:41.422 24/01/1995]',0.003,0.003,0.285,0.246
'[09:47:41.424 24/01/1995]',-0.032,0.003,0.259,0.258
'[09:47:41.426 24/01/1995]',-0.032,0.003,0.259,0.258
'[09:47:41.428 24/01/1995]',-0.032,0.003,0.259,0.258
'[09:47:41.430 24/01/1995]',-0.032,0.035,0.259,0.258
'[09:47:41.432 24/01/1995]',-0.032,0.035,0.227,0.269
'[09:47:41.434 24/01/1995]',-0.032,0.035,0.227,0.269
'[09:47:41.436 24/01/1995]',-0.032,0.035,0.227,0.269
'[09:47:41.438 24/01/1995]',-0.032,0.035,0.227,0.269
'[09:47:41.440 24/01/1995]',-0.068,0.035,0.196,0.280
'[09:47:41.442 24/01/1995]',-0.068,0.035,0.196,0.280
'[09:47:41.444 24/01/1995]',-0.068,0.035,0.196,0.280
'[09:47:41.446 24/01/1995]',-0.068,0.035,0.196,0.280
'[09:47:41.448 24/01/1995]',-0.068,0.035,0.164,0.290
'[09:47:41.450 24/01/1995]',-0.068,0.035,0.164,0.290
'[09:47:41.452 24/01/1995]',-0.068,0.035,0.164,0.290
'[09:47:41.454 24/01/1995]',-0.068,0.035,0.164,0.290
'[09:47:41.456 24/01/1995]',-0.068,0.069,0.121,0.300
'[09:47:41.458 24/01/1995]',-0.068,0.035,0.121,0.300
'[09:47:41.460 24/01/1995]',-0.068,0.069,0.121,0.300
'[09:47:41.462 24/01/1995]',-0.068,0.069,0.121,0.300
'[09:47:41.464 24/01/1995]',-0.068,0.069,0.079,0.310
'[09:47:41.466 24/01/1995]',-0.068,0.035,0.079,0.310
'[09:47:41.468 24/01/1995]',-0.032,0.035,0.079,0.310
'[09:47:41.470 24/01/1995]',-0.032,0.003,0.079,0.310
'[09:47:41.472 24/01/1995]',-0.032,0.003,0.042,0.320
'[09:47:41.474 24/01/1995]',-0.032,0.003,0.042,0.320
'[09:47:41.476 24/01/1995]',-0.032,0.003,0.042,0.320
'[09:47:41.478 24/01/1995]',0.003,0.003,0.042,0.320
'[09:47:41.480 24/01/1995]',0.003,0.003,0.005,0.329
'[09:47:41.482 24/01/1995]',0.003,0.003,0.005,0.329
'[09:47:41.484 24/01/1995]',0.003,0.003,0.005,0.329
'[09:47:41.486 24/01/1995]',0.003,0.003,0.005,0.329
'[09:47:41.488 24/01/1995]',-0.032,0.035,-0.043,0.339
'[09:47:41.490 24/01/1995]',-0.032,0.035,-0.043,0.339
'[09:47:41.492 24/01/1995]',-0.032,0.035,-0.043,0.339
'[09:47:41.494 24/01/1995]',-0.032,0.003,-0.043,0.339
'[09:47:41.496 24/01/1995]',-0.032,0.035,-0.074,0.348
'[09:47:41.498 24/01/1995]',0.003,0.003,-0.074,0.348
'[09:47:41.500 24/01/1995]',0.003,0.003,-0.074,0.348
'[09:47:41.502 24/01/1995]',0.003,0.003,-0.074,0.348
'[09:47:41.504 24/01/1995]',0.003,0.003,-0.111,0.357
'[09:47:41.506 24/01/1995]',0.037,0.003,-0.111,0.357
'[09:47:41.508 24/01/1995]',0.037,0.003,-0.111,0.357
'[09:47:41.510 24/01/1995]',0.003,0.003,-0.111,0.357
'[09:47:41.512 24/01/1995]',0.003,0.003,-0.142,0.367
'[09:47:41.514 24/01/1995]',0.003,0.035,-0.142,0.367
'[09:47:41.516 24/01/1995]',0.037,0.035,-0.142,0.367
'[09:47:41.518 24/01/1995]',0.037,0.069,-0.142,0.367
'[09:47:41.520 24/01/1995]',0.073,0.069,-0.164,0.378
'[09:47:41.522 24/01/1995]',0.073,0.103,-0.164,0.378
'[09:47:41.524 24/01/1995]',0.108,0.103,-0.164,0.378
'[09:47:41.526 24/01/1995]',0.179,0.137,-0.164,0.378
'[09:47:41.528 24/01/1995]',0.215,0.137,-0.179,0.389
'[09:47:41.530 24/01/1995]',0.286,0.103,-0.179,0.389
'[09:47:41.532 24/01/1995]',0.393,0.069,-0.179,0.389
'[09:47:41.534 24/01/1995]',0.533,0.003,-0.179,0.389
'[09:47:41.536 24/01/1995]',0.640,-0.031,-0.201,0.401
'[09:47:41.538 24/01/1995]',0.746,-0.132,-0.201,0.401
'[09:47:41.540 24/01/1995]',0.817,-0.166,-0.201,0.401
'[09:47:41.542 24/01/1995]',0.817,-0.267,-0.201,0.401
'[09:47:41.544 24/01/1995]',0.711,-0.334,-0.216,0.413
'[09:47:41.546 24/01/1995]',0.533,-0.368,-0.216,0.413
'[09:47:41.548 24/01/1995]',0.393,-0.402,-0.216,0.413
'[09:47:41.550 24/01/1995]',0.250,-0.436,-0.216,0.413
'[09:47:41.552 24/01/1995]',0.215,-0.469,-0.227,0.427
'[09:47:41.554 24/01/1995]',0.144,-0.469,-0.227,0.427
'[09:47:41.556 24/01/1995]',0.108,-0.469,-0.227,0.427
'[09:47:41.558 24/01/1995]',0.037,-0.436,-0.227,0.427
'[09:47:41.560 24/01/1995]',0.003,-0.368,-0.237,0.442
'[09:47:41.562 24/01/1995]',-0.068,-0.301,-0.237,0.442
'[09:47:41.564 24/01/1995]',-0.139,-0.233,-0.237,0.442
'[09:47:41.566 24/01/1995]',-0.174,-0.199,-0.237,0.442
'[09:47:41.568 24/01/1995]',-0.246,-0.132,-0.243,0.457
'[09:47:41.570 24/01/1995]',-0.281,-0.098,-0.243,0.457
'[09:47:41.572 24/01/1995]',-0.281,-0.064,-0.243,0.457
'[09:47:41.574 24/01/1995]',-0.246,-0.031,-0.243,0.457
'[09:47:41.576 24/01/1995]',-0.210,0.003,-0.264,0.473
'[09:47:41.578 24/01/1995]',-0.210,0.003,-0.264,0.473
'[09:47:41.580 24/01/1995]',-0.174,0.003,-0.264,0.473
'[09:47:41.582 24/01/1995]',-0.139,0.003,-0.264,0.473
'[09:47:41.584 24/01/1995]',-0.103,0.003,-0.264,0.491
'[09:47:41.586 24/01/1995]',-0.103,0.003,-0.264,0.491
'[09:47:41.588 24/01/1995]',-0.103,0.003,-0.264,0.491
'[09:47:41.590 24/01/1995]',-0.103,0.003,-0.264,0.491
'[09:47:41.592 24/01/1995]',-0.103,0.003,-0.275,0.510
'[09:47:41.594 24/01/1995]',-0.139,0.003,-0.275,0.510
'[09:47:41.596 24/01/1995]',-0.139,0.003,-0.275,0.510
'[09:47:41.598 24/01/1995]',-0.174,0.003,-0.275,0.510
'[09:47:41.600 24/01/1995]',-0.139,0.003,-0.285,0.531
'[09:47:41.602 24/01/1995]',-0.139,0.003,-0.285,0.531
'[09:47:41.604 24/01/1995]',-0.139,0.003,-0.285,0.531
'[09:47:41.606 24/01/1995]',-0.139,0.003,-0.285,0.531
'[09:47:41.608 24/01/1995]',-0.139,0.003,-0.296,0.553
'[09:47:41.610 24/01/1995]',-0.139,0.035,-0.296,0.553
'[09:47:41.612 24/01/1995]',-0.174,0.035,-0.296,0.553
'[09:47:41.614 24/01/1995]',-0.174,0.035,-0.296,0.553
'[09:47:41.616 24/01/1995]',-0.174,0.035,-0.306,0.578
'[09:47:41.618 24/01/1995]',-0.174,0.035,-0.306,0.578
'[09:47:41.620 24/01/1995]',-0.139,0.035,-0.306,0.578
'[09:47:41.622 24/01/1995]',-0.139,0.035,-0.306,0.578
'[09:47:41.624 24/01/1995]',-0.139,0.035,-0.322,0.603
'[09:47:41.626 24/01/1995]',-0.103,0.035,-0.322,0.603
'[09:47:41.628 24/01/1995]',-0.103,0.035,-0.322,0.603
'[09:47:41.630 24/01/1995]',-0.068,0.003,-0.322,0.603
'[09:47:41.632 24/01/1995]',-0.068,0.003,-0.328,0.627
'[09:47:41.634 24/01/1995]',-0.068,0.003,-0.328,0.627
'[09:47:41.636 24/01/1995]',-0.068,0.035,-0.328,0.627
'[09:47:41.638 24/01/1995]',-0.068,0.035,-0.328,0.627
'[09:47:41.640 24/01/1995]',-0.068,0.035,-0.344,0.653
'[09:47:41.642 24/01/1995]',-0.068,0.035,-0.344,0.653
'[09:47:41.644 24/01/1995]',-0.068,0.035,-0.344,0.653
'[09:47:41.646 24/01/1995]',-0.068,0.035,-0.344,0.653
'[09:47:41.648 24/01/1995]',-0.032,0.035,-0.354,0.679
'[09:47:41.650 24/01/1995]',-0.032,0.035,-0.354,0.679
'[09:47:41.652 24/01/1995]',0.003,0.035,-0.354,0.679
'[09:47:41.654 24/01/1995]',0.003,0.035,-0.354,0.679
'[09:47:41.656 24/01/1995]',0.003,0.003,-0.369,0.705
'[09:47:41.658 24/01/1995]',0.003,0.003,-0.369,0.705
'[09:47:41.660 24/01/1995]',0.003,0.003,-0.369,0.705
'[09:47:41.662 24/01/1995]',0.003,0.003,-0.369,0.705
'[09:47:41.664 24/01/1995]',0.003,0.003,-0.381,0.731
'[09:47:41.666 24/01/1995]',0.003,0.003,-0.381,0.731
'[09:47:41.668 24/01/1995]',0.037,0.003,-0.381,0.731
'[09:47:41.670 24/01/1995]',0.003,-0.031,-0.381,0.731
'[09:47:41.672 24/01/1995]',0.003,0.003,-0.391,0.757
'[09:47:41.674 24/01/1995]',0.003,0.003,-0.391,0.757
'[09:47:41.676 24/01/1995]',0.003,0.003,-0.391,0.757
'[09:47:41.678 24/01/1995]',0.003,0.003,-0.391,0.757
'[09:47:41.680 24/01/1995]',0.037,0.003,-0.406,0.783
'[09:47:41.682 24/01/1995]',0.037,0.003,-0.406,0.783
'[09:47:41.684 24/01/1995]',0.037,0.003,-0.406,0.783
'[09:47:41.686 24/01/1995]',0.037,0.003,-0.406,0.783
'[09:47:41.688 24/01/1995]',0.037,0.003,-0.412,0.808
'[09:47:41.690 24/01/1995]',0.037,0.003,-0.412,0.808
'[09:47:41.692 24/01/1995]',0.037,0.003,-0.412,0.808
'[09:47:41.694 24/01/1995]',0.037,0.003,-0.412,0.808
'[09:47:41.696 24/01/1995]',0.037,0.003,-0.428,0.834
'[09:47:41.698 24/01/1995]',0.073,0.003,-0.428,0.834
'[09:47:41.700 24/01/1995]',0.108,0.003,-0.428,0.834
'[09:47:41.702 24/01/1995]',0.108,0.003,-0.428,0.834
'[09:47:41.704 24/01/1995]',0.108,0.003,-0.433,0.858
'[09:47:41.706 24/01/1995]',0.108,0.003,-0.433,0.858
'[09:47:41.708 24/01/1995]',0.108,0.003,-0.433,0.858
'[09:47:41.710 24/01/1995]',0.108,0.003,-0.433,0.858
'[09:47:41.712 24/01/1995]',0.108,0.003,-0.439,0.882
'[09:47:41.714 24/01/1995]',0.108,0.003,-0.439,0.882
'[09:47:41.716 24/01/1995]',0.108,0.003,-0.439,0.882
'[09:47:41.718 24/01/1995]',0.144,0.003,-0.439,0.882
'[09:47:41.720 24/01/1995]',0.144,0.003,-0.449,0.905
'[09:47:41.722 24/01/1995]',0.144,0.003,-0.449,0.905
'[09:47:41.724 24/01/1995]',0.179,0.003,-0.449,0.905
'[09:47:41.726 24/01/1995]',0.179,0.035,-0.449,0.905
'[09:47:41.728 24/01/1995]',0.179,0.003,-0.460,0.925
'[09:47:41.730 24/01/1995]',0.179,0.003,-0.460,0.925
'[09:47:41.732 24/01/1995]',0.215,0.003,-0.460,0.925
'[09:47:41.734 24/01/1995]',0.215,0.003,-0.460,0.925
'[09:47:41.736 24/01/1995]',0.215,0.035,-0.465,0.943
'[09:47:41.738 24/01/1995]',0.215,0.035,-0.465,0.943
'[09:47:41.740 24/01/1995]',0.179,0.035,-0.465,0.943
'[09:47:41.742 24/01/1995]',0.179,0.035,-0.465,0.943
'[09:47:41.744 24/01/1995]',0.179,0.035,-0.475,0.959
'[09:47:41.746 24/01/1995]',0.215,0.035,-0.475,0.959
'[09:47:41.748 24/01/1995]',0.179,0.035,-0.475,0.959
'[09:47:41.750 24/01/1995]',0.179,0.035,-0.475,0.959
'[09:47:41.752 24/01/1995]',0.179,0.035,-0.470,0.973
'[09:47:41.754 24/01/1995]',0.179,0.035,-0.470,0.973
'[09:47:41.756 24/01/1995]',0.215,0.035,-0.470,0.973
'[09:47:41.758 24/01/1995]',0.179,0.035,-0.470,0.973
'[09:47:41.760 24/01/1995]',0.179,0.003,-0.470,0.985
'[09:47:41.762 24/01/1995]',0.215,0.003,-0.470,0.985
'[09:47:41.764 24/01/1995]',0.215,0.003,-0.470,0.985
'[09:47:41.766 24/01/1995]',0.215,0.003,-0.470,0.985
'[09:47:41.768 24/01/1995]',0.215,0.003,-0.460,0.994
'[09:47:41.770 24/01/1995]',0.215,0.003,-0.460,0.994
'[09:47:41.772 24/01/1995]',0.215,0.003,-0.460,0.994
'[09:47:41.774 24/01/1995]',0.215,0.003,-0.460,0.994
'[09:47:41.776 24/01/1995]',0.179,0.003,-0.454,1.002
'[09:47:41.778 24/01/1995]',0.179,0.003,-0.454,1.002
'[09:47:41.780 24/01/1995]',0.179,0.003,-0.454,1.002
'[09:47:41.782 24/01/1995]',0.179,0.003,-0.454,1.002
'[09:47:41.784 24/01/1995]',0.179,0.003,-0.452,1.008
'[09:47:41.786 24/01/1995]',0.144,0.003,-0.452,1.008
'[09:47:41.788 24/01/1995]',0.144,0.003,-0.452,1.008
'[09:47:41.790 24/01/1995]',0.144,0.003,-0.452,1.008
'[09:47:41.792 24/01/1995]',0.144,0.003,-0.423,1.011
'[09:47:41.794 24/01/1995]',0.108,0.003,-0.423,1.011
'[09:47:41.796 24/01/1995]',0.108,0.003,-0.423,1.011
'[09:47:41.798 24/01/1995]',0.108,0.003,-0.423,1.011
'[09:47:41.800 24/01/1995]',0.108,-0.031,-0.378,1.012
'[09:47:41.802 24/01/1995]',0.108,-0.031,-0.378,1.012
'[09:47:41.804 24/01/1995]',0.108,-0.031,-0.378,1.012
'[09:47:41.806 24/01/1995]',0.073,-0.031,-0.378,1.012
'[09:47:41.808 24/01/1995]',0.073,-0.031,-0.322,1.012
'[09:47:41.810 24/01/1995]',0.073,-0.031,-0.322,1.012
'[09:47:41.812 24/01/1995]',0.073,-0.031,-0.322,1.012
'[09:47:41.814 24/01/1995]',0.073,-0.031,-0.322,1.012
'[09:47:41.816 24/01/1995]',0.073,-0.031,-0.265,1.008
'[09:47:41.818 24/01/1995]',0.073,-0.031,-0.265,1.008
'[09:47:41.820 24/01/1995]',0.073,0.003,-0.265,1.008
'[09:47:41.822 24/01/1995]',0.037,-0.031,-0.265,1.008
'[09:47:41.824 24/01/1995]',0.037,-0.031,-0.198,1.002
'[09:47:41.826 24/01/1995]',0.073,-0.031,-0.198,1.002
'[09:47:41.828 24/01/1995]',0.073,-0.031,-0.198,1.002
'[09:47:41.830 24/01/1995]',0.037,-0.031,-0.198,1.002
'[09:47:41.832 24/01/1995]',0.037,-0.031,-0.130,0.992
'[09:47:41.834 24/01/1995]',0.037,-0.031,-0.130,0.992
'[09:47:41.836 24/01/1995]',0.037,-0.031,-0.130,0.992
'[09:47:41.838 24/01/1995]',0.003,0.003,-0.130,0.992
'[09:47:41.840 24/01/1995]',0.003,0.003,-0.062,0.980
'[09:47:41.842 24/01/1995]',0.003,0.003,-0.062,0.980
'[09:47:41.844 24/01/1995]',0.003,0.003,-0.062,0.980
'[09:47:41.846 24/01/1995]',0.003,0.003,-0.062,0.980
'[09:47:41.848 24/01/1995]',0.003,0.003,0.011,0.965
'[09:47:41.850 24/01/1995]',0.003,0.003,0.011,0.965
'[09:47:41.852 24/01/1995]',0.003,0.003,0.011,0.965
'[09:47:41.854 24/01/1995]',0.003,0.003,0.011,0.965
'[09:47:41.856 24/01/1995]',0.003,0.003,0.057,0.947
'[09:47:41.858 24/01/1995]',0.003,0.003,0.057,0.947
'[09:47:41.860 24/01/1995]',0.003,0.003,0.057,0.947
'[09:47:41.862 24/01/1995]',0.003,0.003,0.057,0.947
'[09:47:41.864 24/01/1995]',-0.032,0.003,0.107,0.927
'[09:47:41.866 24/01/1995]',-0.032,0.003,0.107,0.927
'[09:47:41.868 24/01/1995]',-0.032,0.003,0.107,0.927
'[09:47:41.870 24/01/1995]',-0.068,0.003,0.107,0.927
'[09:47:41.872 24/01/1995]',-0.032,0.035,0.141,0.906
'[09:47:41.874 24/01/1995]',-0.068,0.003,0.141,0.906
'[09:47:41.876 24/01/1995]',-0.068,0.035,0.141,0.906
'[09:47:41.878 24/01/1995]',-0.068,0.035,0.141,0.906
'[09:47:41.880 24/01/1995]',-0.068,0.035,0.169,0.884
'[09:47:41.882 24/01/1995]',-0.068,0.035,0.169,0.884
'[09:47:41.884 24/01/1995]',-0.068,0.035,0.169,0.884
'[09:47:41.886 24/01/1995]',-0.068,0.035,0.169,0.884
'[09:47:41.888 24/01/1995]',-0.103,0.035,0.180,0.861
'[09:47:41.890 24/01/1995]',-0.103,0.035,0.180,0.861
'[09:47:41.892 24/01/1995]',-0.068,0.035,0.180,0.861
'[09:47:41.894 24/01/1995]',-0.103,0.035,0.180,0.861
'[09:47:41.896 24/01/1995]',-0.068,0.035,0.186,0.836
'[09:47:41.898 24/01/1995]',-0.068,0.035,0.186,0.836
'[09:47:41.900 24/01/1995]',-0.068,0.035,0.186,0.836
'[09:47:41.902 24/01/1995]',-0.068,0.035,0.186,0.836
'[09:47:41.904 24/01/1995]',-0.068,0.035,0.175,0.811
'[09:47:41.906 24/01/1995]',-0.068,0.003,0.175,0.811
'[09:47:41.908 24/01/1995]',-0.068,0.003,0.175,0.811
'[09:47:41.910 24/01/1995]',-0.068,0.003,0.175,0.811
'[09:47:41.912 24/01/1995]',-0.068,0.003,0.164,0.785
'[09:47:41.914 24/01/1995]',-0.068,0.003,0.164,0.785
'[09:47:41.916 24/01/1995]',-0.032,0.003,0.164,0.785
'[09:47:41.918 24/01/1995]',-0.032,0.003,0.164,0.785
'[09:47:41.920 24/01/1995]',-0.032,0.003,0.152,0.758
'[09:47:41.922 24/01/1995]',-0.032,0.003,0.152,0.758
'[09:47:41.924 24/01/1995]',-0.032,0.003,0.152,0.758
'[09:47:41.926 24/01/1995]',0.003,0.003,0.152,0.758
'[09:47:41.928 24/01/1995]',0.003,0.003,0.130,0.732
'[09:47:41.930 24/01/1995]',0.003,0.003,0.130,0.732
'[09:47:41.932 24/01/1995]',0.003,0.003,0.130,0.732
'[09:47:41.934 24/01/1995]',0.003,0.003,0.130,0.732
'[09:47:41.936 24/01/1995]',0.003,0.003,0.102,0.704
'[09:47:41.938 24/01/1995]',0.003,0.003,0.102,0.704
'[09:47:41.940 24/01/1995]',0.003,0.003,0.102,0.704
'[09:47:41.942 24/01/1995]',0.003,-0.031,0.102,0.704
'[09:47:41.944 24/01/1995]',0.003,0.003,0.062,0.677
'[09:47:41.946 24/01/1995]',0.003,0.003,0.062,0.677
'[09:47:41.948 24/01/1995]',0.003,-0.031,0.062,0.677
'[09:47:41.950 24/01/1995]',0.037,0.003,0.062,0.677
'[09:47:41.952 24/01/1995]',0.037,0.003,0.028,0.651
'[09:47:41.954 24/01/1995]',0.003,0.003,0.028,0.651
'[09:47:41.956 24/01/1995]',0.003,0.003,0.028,0.651
'[09:47:41.958 24/01/1995]',0.003,0.003,0.028,0.651
'[09:47:41.960 24/01/1995]',0.003,0.003,-0.011,0.625
'[09:47:41.962 24/01/1995]',0.003,0.003,-0.011,0.625
'[09:47:41.964 24/01/1995]',0.003,0.003,-0.011,0.625
'[09:47:41.966 24/01/1995]',0.003,0.003,-0.011,0.625
'[09:47:41.968 24/01/1995]',0.003,0.003,-0.051,0.601
'[09:47:41.970 24/01/1995]',0.003,0.035,-0.051,0.601
'[09:47:41.972 24/01/1995]',0.003,0.069,-0.051,0.601
'[09:47:41.974 24/01/1995]',0.003,0.137,-0.051,0.601
'[09:47:41.976 24/01/1995]',0.003,0.170,-0.090,0.576
'[09:47:41.978 24/01/1995]',0.003,0.170,-0.090,0.576
'[09:47:41.980 24/01/1995]',0.037,0.170,-0.090,0.576
'[09:47:41.982 24/01/1995]',0.073,0.170,-0.090,0.576
'[09:47:41.984 24/01/1995]',0.179,0.170,-0.136,0.552
'[09:47:41.986 24/01/1995]',0.250,0.103,-0.136,0.552
'[09:47:41.988 24/01/1995]',0.393,0.035,-0.136,0.552
'[09:47:41.990 24/01/1995]',0.533,-0.031,-0.136,0.552
'[09:47:41.992 24/01/1995]',0.675,-0.132,-0.175,0.529
'[09:47:41.994 24/01/1995]',0.782,-0.199,-0.175,0.529
'[09:47:41.996 24/01/1995]',0.817,-0.301,-0.175,0.529
'[09:47:41.998 24/01/1995]',0.746,-0.402,-0.175,0.529
'[09:47:42.000 24/01/1995]',0.604,-0.469,-0.208,0.506
'[09:47:42.002 24/01/1995]',0.428,-0.535,-0.208,0.506
'[09:47:42.004 24/01/1995]',0.286,-0.569,-0.208,0.506
'[09:47:42.006 24/01/1995]',0.179,-0.569,-0.208,0.506
'[09:47:42.008 24/01/1995]',0.108,-0.569,-0.242,0.484
'[09:47:42.010 24/01/1995]',0.037,-0.502,-0.242,0.484
'[09:47:42.012 24/01/1995]',0.003,-0.469,-0.242,0.484
'[09:47:42.014 24/01/1995]',-0.068,-0.368,-0.242,0.484
'[09:47:42.016 24/01/1995]',-0.103,-0.301,-0.265,0.465
'[09:47:42.018 24/01/1995]',-0.139,-0.233,-0.265,0.465
'[09:47:42.020 24/01/1995]',-0.139,-0.199,-0.265,0.465
'[09:47:42.022 24/01/1995]',-0.139,-0.132,-0.265,0.465
'[09:47:42.024 24/01/1995]',-0.139,-0.098,-0.287,0.447
'[09:47:42.026 24/01/1995]',-0.103,-0.064,-0.287,0.447
'[09:47:42.028 24/01/1995]',-0.103,-0.031,-0.287,0.447
'[09:47:42.030 24/01/1995]',-0.103,-0.031,-0.287,0.447
'[09:47:42.032 24/01/1995]',-0.103,0.003,-0.304,0.430
'[09:47:42.034 24/01/1995]',-0.103,0.003,-0.304,0.430
'[09:47:42.036 24/01/1995]',-0.139,0.003,-0.304,0.430
'[09:47:42.038 24/01/1995]',-0.139,0.003,-0.304,0.430
'[09:47:42.040 24/01/1995]',-0.139,0.003,-0.316,0.415
'[09:47:42.042 24/01/1995]',-0.174,0.035,-0.316,0.415
'[09:47:42.044 24/01/1995]',-0.174,0.035,-0.316,0.415
'[09:47:42.046 24/01/1995]',-0.174,0.035,-0.316,0.415
'[09:47:42.048 24/01/1995]',-0.210,0.069,-0.327,0.401
'[09:47:42.050 24/01/1995]',-0.210,0.069,-0.327,0.401
'[09:47:42.052 24/01/1995]',-0.210,0.069,-0.327,0.401
'[09:47:42.054 24/01/1995]',-0.210,0.069,-0.327,0.401
'[09:47:42.056 24/01/1995]',-0.210,0.069,-0.333,0.387
'[09:47:42.058 24/01/1995]',-0.210,0.069,-0.333,0.387
'[09:47:42.060 24/01/1995]',-0.210,0.069,-0.333,0.387
'[09:47:42.062 24/01/1995]',-0.210,0.069,-0.333,0.387
'[09:47:42.064 24/01/1995]',-0.210,0.069,-0.339,0.373
'[09:47:42.066 24/01/1995]',-0.210,0.069,-0.339,0.373
'[09:47:42.068 24/01/1995]',-0.210,0.069,-0.339,0.373
'[09:47:42.070 24/01/1995]',-0.210,0.069,-0.339,0.373
'[09:47:42.072 24/01/1995]',-0.210,0.069,-0.344,0.360
'[09:47:42.074 24/01/1995]',-0.210,0.069,-0.344,0.360
'[09:47:42.076 24/01/1995]',-0.210,0.069,-0.344,0.360
'[09:47:42.078 24/01/1995]',-0.210,0.069,-0.344,0.360
'[09:47:42.080 24/01/1995]',-0.210,0.069,-0.349,0.347
'[09:47:42.082 24/01/1995]',-0.174,0.069,-0.349,0.347
'[09:47:42.084 24/01/1995]',-0.174,0.035,-0.349,0.347
'[09:47:42.086 24/01/1995]',-0.174,0.035,-0.349,0.347
'[09:47:42.088 24/01/1995]',-0.139,0.035,-0.355,0.334
'[09:47:42.090 24/01/1995]',-0.139,0.035,-0.355,0.334
'[09:47:42.092 24/01/1995]',-0.139,0.035,-0.355,0.334
'[09:47:42.094 24/01/1995]',-0.103,0.003,-0.355,0.334
'[09:47:42.096 24/01/1995]',-0.103,0.003,-0.355,0.322
'[09:47:42.098 24/01/1995]',-0.103,0.003,-0.355,0.322
'[09:47:42.100 24/01/1995]',-0.103,0.003,-0.355,0.322
'[09:47:42.102 24/01/1995]',-0.103,0.003,-0.355,0.322
'[09:47:42.104 24/01/1995]',-0.103,0.003,-0.361,0.309
'[09:47:42.106 24/01/1995]',-0.103,0.003,-0.361,0.309
'[09:47:42.108 24/01/1995]',-0.103,0.003,-0.361,0.309
'[09:47:42.110 24/01/1995]',-0.103,0.003,-0.361,0.309
'[09:47:42.112 24/01/1995]',-0.103,0.003,-0.366,0.299
'[09:47:42.114 24/01/1995]',-0.068,0.003,-0.366,0.299
'[09:47:42.116 24/01/1995]',-0.068,0.003,-0.366,0.299
'[09:47:42.118 24/01/1995]',-0.068,0.003,-0.366,0.299
'[09:47:42.120 24/01/1995]',-0.068,0.003,-0.378,0.289
'[09:47:42.122 24/01/1995]',-0.068,0.003,-0.378,0.289
'[09:47:42.124 24/01/1995]',-0.068,0.003,-0.378,0.289
'[09:47:42.126 24/01/1995]',-0.068,0.003,-0.378,0.289
'[09:47:42.128 24/01/1995]',-0.068,0.035,-0.384,0.281
'[09:47:42.130 24/01/1995]',-0.068,0.003,-0.384,0.281
'[09:47:42.132 24/01/1995]',-0.068,0.035,-0.384,0.281
'[09:47:42.134 24/01/1995]',-0.032,0.035,-0.384,0.281
'[09:47:42.136 24/01/1995]',-0.068,0.035,-0.395,0.273
'[09:47:42.138 24/01/1995]',-0.068,0.035,-0.395,0.273
'[09:47:42.140 24/01/1995]',-0.068,0.035,-0.395,0.273
'[09:47:42.142 24/01/1995]',-0.032,0.035,-0.395,0.273
'[09:47:42.144 24/01/1995]',-0.032,0.035,-0.401,0.266
'[09:47:42.146 24/01/1995]',-0.032,0.035,-0.401,0.266
'[09:47:42.148 24/01/1995]',0.003,0.035,-0.401,0.266
'[09:47:42.150 24/01/1995]',0.003,0.035,-0.401,0.266
'[09:47:42.152 24/01/1995]',0.003,0.035,-0.412,0.258
'[09:47:42.154 24/01/1995]',0.003,0.035,-0.412,0.258
'[09:47:42.156 24/01/1995]',0.003,0.035,-0.412,0.258
'[09:47:42.158 24/01/1995]',0.003,0.035,-0.412,0.258
'[09:47:42.160 24/01/1995]',0.003,0.069,-0.412,0.251
'[09:47:42.162 24/01/1995]',0.003,0.069,-0.412,0.251
'[09:47:42.164 24/01/1995]',0.003,0.069,-0.412,0.251
'[09:47:42.166 24/01/1995]',0.037,0.069,-0.412,0.251
'[09:47:42.168 24/01/1995]',0.037,0.069,-0.423,0.244
'[09:47:42.170 24/01/1995]',0.037,0.069,-0.423,0.244
'[09:47:42.172 24/01/1995]',0.073,0.069,-0.423,0.244
'[09:47:42.174 24/01/1995]',0.073,0.069,-0.423,0.244
'[09:47:42.176 24/01/1995]',0.073,0.069,-0.428,0.237
'[09:47:42.178 24/01/1995]',0.073,0.069,-0.428,0.237
'[09:47:42.180 24/01/1995]',0.073,0.069,-0.428,0.237
'[09:47:42.182 24/01/1995]',0.073,0.069,-0.428,0.237
'[09:47:42.184 24/01/1995]',0.108,0.069,-0.440,0.230
'[09:47:42.186 24/01/1995]',0.108,0.069,-0.440,0.230
'[09:47:42.188 24/01/1995]',0.108,0.069,-0.440,0.230
'[09:47:42.190 24/01/1995]',0.108,0.069,-0.440,0.230
'[09:47:42.192 24/01/1995]',0.108,0.069,-0.440,0.223
'[09:47:42.194 24/01/1995]',0.073,0.069,-0.440,0.223
'[09:47:42.196 24/01/1995]',0.108,0.103,-0.440,0.223
'[09:47:42.198 24/01/1995]',0.108,0.103,-0.440,0.223
'[09:47:42.200 24/01/1995]',0.108,0.103,-0.452,0.215
'[09:47:42.202 24/01/1995]',0.108,0.103,-0.452,0.215
'[09:47:42.204 24/01/1995]',0.108,0.103,-0.452,0.215
'[09:47:42.206 24/01/1995]',0.108,0.103,-0.452,0.215
'[09:47:42.208 24/01/1995]',0.073,0.103,-0.452,0.207
'[09:47:42.210 24/01/1995]',0.073,0.103,-0.452,0.207
'[09:47:42.212 24/01/1995]',0.073,0.103,-0.452,0.207
'[09:47:42.214 24/01/1995]',0.108,0.103,-0.452,0.207
'[09:47:42.216 24/01/1995]',0.108,0.103,-0.457,0.198
'[09:47:42.218 24/01/1995]',0.108,0.069,-0.457,0.198
'[09:47:42.220 24/01/1995]',0.073,0.069,-0.457,0.198
'[09:47:42.222 24/01/1995]',0.073,0.035,-0.457,0.198
'[09:47:42.224 24/01/1995]',0.073,0.035,-0.457,0.187
'[09:47:42.226 24/01/1995]',0.073,0.035,-0.457,0.187
'[09:47:42.228 24/01/1995]',0.037,0.035,-0.457,0.187
'[09:47:42.230 24/01/1995]',0.037,0.035,-0.457,0.187
'[09:47:42.232 24/01/1995]',0.037,0.035,-0.440,0.176
'[09:47:42.234 24/01/1995]',0.037,0.003,-0.440,0.176
'[09:47:42.236 24/01/1995]',0.037,0.003,-0.440,0.176
'[09:47:42.238 24/01/1995]',0.037,0.035,-0.440,0.176
'[09:47:42.240 24/01/1995]',0.037,0.035,-0.412,0.164
'[09:47:42.242 24/01/1995]',0.037,0.035,-0.412,0.164
'[09:47:42.244 24/01/1995]',0.037,0.035,-0.412,0.164
'[09:47:42.246 24/01/1995]',0.037,0.003,-0.412,0.164
'[09:47:42.248 24/01/1995]',0.037,0.003,-0.384,0.150
'[09:47:42.250 24/01/1995]',0.037,0.003,-0.384,0.150
'[09:47:42.252 24/01/1995]',0.037,0.003,-0.384,0.150
'[09:47:42.254 24/01/1995]',0.003,0.003,-0.384,0.150
'[09:47:42.256 24/01/1995]',0.003,0.003,-0.339,0.137
'[09:47:42.258 24/01/1995]',0.003,0.003,-0.339,0.137
'[09:47:42.260 24/01/1995]',0.003,0.003,-0.339,0.137
'[09:47:42.262 24/01/1995]',0.003,0.003,-0.339,0.137
'[09:47:42.264 24/01/1995]',0.003,0.003,-0.287,0.121
'[09:47:42.266 24/01/1995]',0.003,0.003,-0.287,0.121
'[09:47:42.268 24/01/1995]',0.003,0.003,-0.287,0.121
'[09:47:42.270 24/01/1995]',0.003,0.003,-0.287,0.121
'[09:47:42.272 24/01/1995]',0.003,0.003,-0.214,0.105
'[09:47:42.274 24/01/1995]',0.003,0.003,-0.214,0.105
'[09:47:42.276 24/01/1995]',-0.032,0.003,-0.214,0.105
'[09:47:42.278 24/01/1995]',-0.032,0.003,-0.214,0.105
'[09:47:42.280 24/01/1995]',-0.032,0.003,-0.152,0.088
'[09:47:42.282 24/01/1995]',-0.032,0.003,-0.152,0.088
'[09:47:42.284 24/01/1995]',-0.032,0.003,-0.152,0.088
'[09:47:42.286 24/01/1995]',-0.032,0.003,-0.152,0.088
'[09:47:42.288 24/01/1995]',-0.032,0.003,-0.090,0.070
'[09:47:42.290 24/01/1995]',-0.032,0.003,-0.090,0.070
'[09:47:42.292 24/01/1995]',-0.032,0.003,-0.090,0.070
'[09:47:42.294 24/01/1995]',-0.032,0.003,-0.090,0.070
'[09:47:42.296 24/01/1995]',-0.032,0.003,-0.017,0.051
'[09:47:42.298 24/01/1995]',-0.032,0.003,-0.017,0.051
'[09:47:42.300 24/01/1995]',-0.032,0.003,-0.017,0.051
'[09:47:42.302 24/01/1995]',-0.032,0.003,-0.017,0.051
'[09:47:42.304 24/01/1995]',-0.032,0.003,0.033,0.033
'[09:47:42.306 24/01/1995]',-0.032,0.003,0.033,0.033
'[09:47:42.308 24/01/1995]',-0.032,0.003,0.033,0.033
'[09:47:42.310 24/01/1995]',-0.032,0.003,0.033,0.033
'[09:47:42.312 24/01/1995]',-0.032,0.003,0.087,0.015
'[09:47:42.314 24/01/1995]',-0.032,0.003,0.087,0.015
'[09:47:42.316 24/01/1995]',-0.032,0.003,0.087,0.015
'[09:47:42.318 24/01/1995]',-0.032,0.003,0.087,0.015
'[09:47:42.320 24/01/1995]',-0.032,0.003,0.131,-0.003
'[09:47:42.322 24/01/1995]',-0.032,0.003,0.131,-0.003
'[09:47:42.324 24/01/1995]',-0.032,0.003,0.131,-0.003
'[09:47:42.326 24/01/1995]',-0.032,0.003,0.131,-0.003
'[09:47:42.328 24/01/1995]',-0.032,0.003,0.158,-0.020
'[09:47:42.330 24/01/1995]',-0.068,0.003,0.158,-0.020
'[09:47:42.332 24/01/1995]',-0.068,0.003,0.158,-0.020
'[09:47:42.334 24/01/1995]',-0.068,0.003,0.158,-0.020
'[09:47:42.336 24/01/1995]',-0.068,0.003,0.179,-0.037
'[09:47:42.338 24/01/1995]',-0.068,0.003,0.179,-0.037
'[09:47:42.340 24/01/1995]',-0.068,0.035,0.179,-0.037
'[09:47:42.342 24/01/1995]',-0.068,0.035,0.179,-0.037
'[09:47:42.344 24/01/1995]',-0.068,0.035,0.190,-0.056
'[09:47:42.346 24/01/1995]',-0.068,0.035,0.190,-0.056
'[09:47:42.348 24/01/1995]',-0.068,0.035,0.190,-0.056
'[09:47:42.350 24/01/1995]',-0.068,0.035,0.190,-0.056
'[09:47:42.352 24/01/1995]',-0.103,0.035,0.190,-0.073
'[09:47:42.354 24/01/1995]',-0.103,0.035,0.190,-0.073
'[09:47:42.356 24/01/1995]',-0.103,0.035,0.190,-0.073
'[09:47:42.358 24/01/1995]',-0.103,0.035,0.190,-0.073
'[09:47:42.360 24/01/1995]',-0.103,0.035,0.185,-0.091
'[09:47:42.362 24/01/1995]',-0.103,0.035,0.185,-0.091
'[09:47:42.364 24/01/1995]',-0.103,0.035,0.185,-0.091
'[09:47:42.366 24/01/1995]',-0.103,0.035,0.185,-0.091
'[09:47:42.368 24/01/1995]',-0.103,0.035,0.169,-0.109
'[09:47:42.370 24/01/1995]',-0.103,0.035,0.169,-0.109
'[09:47:42.372 24/01/1995]',-0.103,0.035,0.169,-0.109
'[09:47:42.374 24/01/1995]',-0.103,0.035,0.169,-0.109
'[09:47:42.376 24/01/1995]',-0.068,0.003,0.158,-0.126
'[09:47:42.378 24/01/1995]',-0.068,0.003,0.158,-0.126
'[09:47:42.380 24/01/1995]',-0.068,0.003,0.158,-0.126
'[09:47:42.382 24/01/1995]',-0.068,0.003,0.158,-0.126
'[09:47:42.384 24/01/1995]',-0.068,0.003,0.125,-0.143
'[09:47:42.386 24/01/1995]',-0.068,0.003,0.125,-0.143
'[09:47:42.388 24/01/1995]',-0.068,0.003,0.125,-0.143
'[09:47:42.390 24/01/1995]',-0.068,0.003,0.125,-0.143
'[09:47:42.392 24/01/1995]',-0.032,0.035,0.103,-0.160
'[09:47:42.394 24/01/1995]',-0.032,0.035,0.103,-0.160
'[09:47:42.396 24/01/1995]',-0.032,0.003,0.103,-0.160
'[09:47:42.398 24/01/1995]',-0.032,0.003,0.103,-0.160
'[09:47:42.400 24/01/1995]',-0.032,0.003,0.070,-0.177
'[09:47:42.402 24/01/1995]',0.003,0.003,0.070,-0.177
'[09:47:42.404 24/01/1995]',0.003,0.003,0.070,-0.177
'[09:47:42.406 24/01/1995]',0.003,0.003,0.070,-0.177
'[09:47:42.408 24/01/1995]',0.003,0.003,0.027,-0.196
'[09:47:42.410 24/01/1995]',0.003,0.003,0.027,-0.196
'[09:47:42.412 24/01/1995]',0.003,0.003,0.027,-0.196
'[09:47:42.414 24/01/1995]',0.003,0.003,0.027,-0.196
'[09:47:42.416 24/01/1995]',0.003,0.003,-0.011,-0.213
'[09:47:42.418 24/01/1995]',0.003,0.003,-0.011,-0.213
'[09:47:42.420 24/01/1995]',0.003,0.003,-0.011,-0.213
'[09:47:42.422 24/01/1995]',0.003,0.003,-0.011,-0.213
'[09:47:42.424 24/01/1995]',0.003,0.003,-0.049,-0.232
'[09:47:42.426 24/01/1995]',0.003,0.003,-0.049,-0.232
'[09:47:42.428 24/01/1995]',0.003,0.003,-0.049,-0.232
'[09:47:42.430 24/01/1995]',0.003,0.003,-0.049,-0.232
'[09:47:42.432 24/01/1995]',0.003,0.003,-0.092,-0.249
'[09:47:42.434 24/01/1995]',0.003,0.003,-0.092,-0.249
'[09:47:42.436 24/01/1995]',0.003,0.003,-0.092,-0.249
'[09:47:42.438 24/01/1995]',0.003,0.003,-0.092,-0.249
'[09:47:42.440 24/01/1995]',0.003,0.003,-0.131,-0.266
'[09:47:42.442 24/01/1995]',0.003,0.003,-0.131,-0.266
'[09:47:42.444 24/01/1995]',0.003,0.003,-0.131,-0.266
'[09:47:42.446 24/01/1995]',0.003,0.003,-0.131,-0.266
'[09:47:42.448 24/01/1995]',0.003,0.003,-0.158,-0.281
'[09:47:42.450 24/01/1995]',0.003,0.003,-0.158,-0.281
'[09:47:42.452 24/01/1995]',0.003,0.003,-0.158,-0.281
'[09:47:42.454 24/01/1995]',0.003,0.003,-0.158,-0.281
'[09:47:42.456 24/01/1995]',0.003,0.003,-0.196,-0.297
'[09:47:42.458 24/01/1995]',0.003,0.003,-0.196,-0.297
'[09:47:42.460 24/01/1995]',0.003,0.003,-0.196,-0.297
'[09:47:42.462 24/01/1995]',0.003,0.003,-0.196,-0.297
'[09:47:42.464 24/01/1995]',0.003,0.003,-0.223,-0.312
'[09:47:42.466 24/01/1995]',0.003,0.003,-0.223,-0.312
'[09:47:42.468 24/01/1995]',0.003,0.003,-0.223,-0.312
'[09:47:42.470 24/01/1995]',0.003,0.003,-0.223,-0.312
'[09:47:42.472 24/01/1995]',0.003,0.003,-0.245,-0.328
'[09:47:42.474 24/01/1995]',-0.032,0.003,-0.245,-0.328
'[09:47:42.476 24/01/1995]',-0.032,0.003,-0.245,-0.328
'[09:47:42.478 24/01/1995]',-0.032,0.003,-0.245,-0.328
'[09:47:42.480 24/01/1995]',-0.032,0.003,-0.256,-0.342
'[09:47:42.482 24/01/1995]',-0.032,0.003,-0.256,-0.342
'[09:47:42.484 24/01/1995]',-0.032,0.003,-0.256,-0.342
'[09:47:42.486 24/01/1995]',-0.032,0.003,-0.256,-0.342
'[09:47:42.488 24/01/1995]',-0.032,0.003,-0.272,-0.355
'[09:47:42.490 24/01/1995]',-0.032,0.003,-0.272,-0.355
'[09:47:42.492 24/01/1995]',-0.032,0.003,-0.272,-0.355
'[09:47:42.494 24/01/1995]',-0.032,0.003,-0.272,-0.355
'[09:47:42.496 24/01/1995]',-0.032,0.003,-0.278,-0.368
'[09:47:42.498 24/01/1995]',-0.032,0.003,-0.278,-0.368
'[09:47:42.500 24/01/1995]',-0.068,0.003,-0.278,-0.368
'[09:47:42.502 24/01/1995]',-0.068,0.003,-0.278,-0.368
'[09:47:42.504 24/01/1995]',-0.068,0.003,-0.283,-0.379
'[09:47:42.506 24/01/1995]',-0.068,0.003,-0.283,-0.379
'[09:47:42.508 24/01/1995]',-0.068,0.003,-0.283,-0.379
'[09:47:42.510 24/01/1995]',-0.103,0.003,-0.283,-0.379
'[09:47:42.512 24/01/1995]',-0.103,0.003,-0.288,-0.389
'[09:47:42.514 24/01/1995]',-0.103,0.003,-0.288,-0.389
'[09:47:42.516 24/01/1995]',-0.103,0.003,-0.288,-0.389
'[09:47:42.518 24/01/1995]',-0.103,0.035,-0.288,-0.389
'[09:47:42.520 24/01/1995]',-0.139,0.035,-0.293,-0.398
'[09:47:42.522 24/01/1995]',-0.139,0.035,-0.293,-0.398
'[09:47:42.524 24/01/1995]',-0.139,0.035,-0.293,-0.398
'[09:47:42.526 24/01/1995]',-0.139,0.035,-0.293,-0.398
'[09:47:42.528 24/01/1995]',-0.139,0.035,-0.293,-0.405
'[09:47:42.530 24/01/1995]',-0.139,0.035,-0.293,-0.405
'[09:47:42.532 24/01/1995]',-0.139,0.035,-0.293,-0.405
'[09:47:42.534 24/01/1995]',-0.139,0.035,-0.293,-0.405
'[09:47:42.536 24/01/1995]',-0.139,0.035,-0.299,-0.411
'[09:47:42.538 24/01/1995]',-0.139,0.035,-0.299,-0.411
'[09:47:42.540 24/01/1995]',-0.139,0.035,-0.299,-0.411
'[09:47:42.542 24/01/1995]',-0.139,0.035,-0.299,-0.411
'[09:47:42.544 24/01/1995]',-0.103,0.035,-0.299,-0.416
'[09:47:42.546 24/01/1995]',-0.103,0.035,-0.299,-0.416
'[09:47:42.548 24/01/1995]',-0.103,0.035,-0.299,-0.416
'[09:47:42.550 24/01/1995]',-0.103,0.035,-0.299,-0.416
'[09:47:42.552 24/01/1995]',-0.103,0.035,-0.293,-0.420
'[09:47:42.554 24/01/1995]',-0.068,0.003,-0.293,-0.420
'[09:47:42.556 24/01/1995]',-0.068,0.003,-0.293,-0.420
'[09:47:42.558 24/01/1995]',-0.032,0.003,-0.293,-0.420
'[09:47:42.560 24/01/1995]',-0.032,0.003,-0.304,-0.425
'[09:47:42.562 24/01/1995]',-0.032,0.003,-0.304,-0.425
'[09:47:42.564 24/01/1995]',0.003,0.003,-0.304,-0.425
'[09:47:42.566 24/01/1995]',0.003,0.003,-0.304,-0.425
'[09:47:42.568 24/01/1995]',0.003,0.003,-0.304,-0.429
'[09:47:42.570 24/01/1995]',0.003,0.003,-0.304,-0.429
'[09:47:42.572 24/01/1995]',0.003,0.003,-0.304,-0.429
'[09:47:42.574 24/01/1995]',0.003,0.003,-0.304,-0.429
'[09:47:42.576 24/01/1995]',0.003,0.003,-0.304,-0.433
'[09:47:42.578 24/01/1995]',0.003,-0.031,-0.304,-0.433
'[09:47:42.580 24/01/1995]',0.003,-0.031,-0.304,-0.433
'[09:47:42.582 24/01/1995]',0.003,-0.031,-0.304,-0.433
'[09:47:42.584 24/01/1995]',0.003,0.003,-0.310,-0.436
'[09:47:42.586 24/01/1995]',0.003,0.003,-0.310,-0.436
'[09:47:42.588 24/01/1995]',0.003,0.003,-0.310,-0.436
'[09:47:42.590 24/01/1995]',0.003,0.003,-0.310,-0.436
'[09:47:42.592 24/01/1995]',0.003,0.003,-0.316,-0.440
'[09:47:42.594 24/01/1995]',0.003,0.003,-0.316,-0.440
'[09:47:42.596 24/01/1995]',0.003,0.003,-0.316,-0.440
'[09:47:42.598 24/01/1995]',0.003,0.003,-0.316,-0.440
'[09:47:42.600 24/01/1995]',0.003,0.003,-0.327,-0.443
'[09:47:42.602 24/01/1995]',0.003,0.003,-0.327,-0.443
'[09:47:42.604 24/01/1995]',0.003,0.003,-0.327,-0.443
'[09:47:42.606 24/01/1995]',0.003,0.003,-0.327,-0.443
'[09:47:42.608 24/01/1995]',0.003,0.003,-0.343,-0.446
'[09:47:42.610 24/01/1995]',0.003,0.003,-0.343,-0.446
'[09:47:42.612 24/01/1995]',0.003,0.003,-0.343,-0.446
'[09:47:42.614 24/01/1995]',0.003,0.003,-0.343,-0.446
'[09:47:42.616 24/01/1995]',0.003,0.003,-0.348,-0.449
'[09:47:42.618 24/01/1995]',0.003,0.003,-0.348,-0.449
'[09:47:42.620 24/01/1995]',0.003,0.003,-0.348,-0.449
'[09:47:42.622 24/01/1995]',0.003,0.003,-0.348,-0.449
'[09:47:42.624 24/01/1995]',0.003,0.003,-0.353,-0.452
'[09:47:42.626 24/01/1995]',0.003,0.003,-0.353,-0.452
'[09:47:42.628 24/01/1995]',0.003,0.003,-0.353,-0.452
'[09:47:42.630 24/01/1995]',0.003,0.003,-0.353,-0.452
'[09:47:42.632 24/01/1995]',0.003,0.003,-0.370,-0.454
'[09:47:42.634 24/01/1995]',0.003,0.003,-0.370,-0.454
'[09:47:42.636 24/01/1995]',0.003,0.003,-0.370,-0.454
'[09:47:42.638 24/01/1995]',0.003,0.003,-0.370,-0.454
'[09:47:42.640 24/01/1995]',0.003,0.003,-0.376,-0.456
'[09:47:42.642 24/01/1995]',0.003,0.003,-0.376,-0.456
'[09:47:42.644 24/01/1995]',0.003,0.003,-0.376,-0.456
'[09:47:42.646 24/01/1995]',0.003,0.003,-0.376,-0.456
'[09:47:42.648 24/01/1995]',0.003,0.003,-0.386,-0.457
'[09:47:42.650 24/01/1995]',0.003,0.003,-0.386,-0.457
'[09:47:42.652 24/01/1995]',0.003,0.003,-0.386,-0.457
'[09:47:42.654 24/01/1995]',0.003,0.003,-0.386,-0.457
'[09:47:42.656 24/01/1995]',0.003,0.003,-0.397,-0.458
'[09:47:42.658 24/01/1995]',0.003,0.003,-0.397,-0.458
'[09:47:42.660 24/01/1995]',0.003,0.003,-0.397,-0.458
'[09:47:42.662 24/01/1995]',0.003,0.003,-0.397,-0.458
'[09:47:42.664 24/01/1995]',0.003,0.003,-0.403,-0.458
'[09:47:42.666 24/01/1995]',0.003,0.003,-0.403,-0.458
'[09:47:42.668 24/01/1995]',0.003,0.003,-0.403,-0.458
'[09:47:42.670 24/01/1995]',0.003,0.003,-0.403,-0.458
'[09:47:42.672 24/01/1995]',0.003,0.003,-0.413,-0.458
'[09:47:42.674 24/01/1995]',0.003,0.003,-0.413,-0.458
'[09:47:42.676 24/01/1995]',0.003,0.003,-0.413,-0.458
'[09:47:42.678 24/01/1995]',0.003,0.003,-0.413,-0.458
'[09:47:42.680 24/01/1995]',0.003,0.003,-0.413,-0.457
'[09:47:42.682 24/01/1995]',0.003,0.003,-0.413,-0.457
'[09:47:42.684 24/01/1995]',0.003,0.003,-0.413,-0.457
'[09:47:42.686 24/01/1995]',0.003,0.003,-0.413,-0.457
'[09:47:42.688 24/01/1995]',-0.032,0.035,-0.424,-0.455
'[09:47:42.690 24/01/1995]',-0.032,0.035,-0.424,-0.455
'[09:47:42.692 24/01/1995]',-0.032,0.035,-0.424,-0.455
'[09:47:42.694 24/01/1995]',-0.032,0.035,-0.424,-0.455
'[09:47:42.696 24/01/1995]',-0.032,0.069,-0.424,-0.453
'[09:47:42.698 24/01/1995]',-0.068,0.069,-0.424,-0.453
'[09:47:42.700 24/01/1995]',-0.068,0.069,-0.424,-0.453
'[09:47:42.702 24/01/1995]',-0.103,0.069,-0.424,-0.453
'[09:47:42.704 24/01/1995]',-0.103,0.069,-0.429,-0.451
'[09:47:42.706 24/01/1995]',-0.139,0.069,-0.429,-0.451
'[09:47:42.708 24/01/1995]',-0.139,0.069,-0.429,-0.451
'[09:47:42.710 24/01/1995]',-0.139,0.069,-0.429,-0.451
'[09:47:42.712 24/01/1995]',-0.139,0.069,-0.435,-0.448
'[09:47:42.714 24/01/1995]',-0.139,0.069,-0.435,-0.448
'[09:47:42.716 24/01/1995]',-0.139,0.069,-0.435,-0.448
'[09:47:42.718 24/01/1995]',-0.139,0.035,-0.435,-0.448
'[09:47:42.720 24/01/1995]',-0.103,0.035,-0.441,-0.444
'[09:47:42.722 24/01/1995]',-0.103,0.035,-0.441,-0.444
'[09:47:42.724 24/01/1995]',-0.068,0.035,-0.441,-0.444
'[09:47:42.726 24/01/1995]',-0.068,0.035,-0.441,-0.444
'[09:47:42.728 24/01/1995]',-0.032,0.035,-0.435,-0.439
'[09:47:42.730 24/01/1995]',-0.032,0.035,-0.435,-0.439
'[09:47:42.732 24/01/1995]',-0.032,0.035,-0.435,-0.439
'[09:47:42.734 24/01/1995]',-0.032,0.035,-0.435,-0.439
'[09:47:42.736 24/01/1995]',0.003,0.035,-0.435,-0.433
'[09:47:42.738 24/01/1995]',0.003,0.035,-0.435,-0.433
'[09:47:42.740 24/01/1995]',0.003,0.035,-0.435,-0.433
'[09:47:42.742 24/01/1995]',0.003,0.035,-0.435,-0.433
'[09:47:42.744 24/01/1995]',0.003,0.035,-0.441,-0.428
'[09:47:42.746 24/01/1995]',0.003,0.035,-0.441,-0.428
'[09:47:42.748 24/01/1995]',0.003,0.035,-0.441,-0.428
'[09:47:42.750 24/01/1995]',0.003,0.035,-0.441,-0.428
'[09:47:42.752 24/01/1995]',0.003,0.035,-0.441,-0.422
'[09:47:42.754 24/01/1995]',0.003,0.035,-0.441,-0.422
'[09:47:42.756 24/01/1995]',0.003,0.035,-0.441,-0.422
'[09:47:42.758 24/01/1995]',0.003,0.035,-0.441,-0.422
'[09:47:42.760 24/01/1995]',0.003,0.035,-0.441,-0.417
'[09:47:42.762 24/01/1995]',0.003,0.035,-0.441,-0.417
'[09:47:42.764 24/01/1995]',0.003,0.035,-0.441,-0.417
'[09:47:42.766 24/01/1995]',0.003,0.035,-0.441,-0.417
'[09:47:42.768 24/01/1995]',0.003,0.035,-0.441,-0.411
'[09:47:42.770 24/01/1995]',0.003,0.035,-0.441,-0.411
'[09:47:42.772 24/01/1995]',0.003,0.035,-0.441,-0.411
'[09:47:42.774 24/01/1995]',0.003,0.035,-0.441,-0.411
'[09:47:42.776 24/01/1995]',0.003,0.035,-0.435,-0.405
'[09:47:42.778 24/01/1995]',0.003,0.035,-0.435,-0.405
'[09:47:42.780 24/01/1995]',0.003,0.035,-0.435,-0.405
'[09:47:42.782 24/01/1995]',0.003,0.003,-0.435,-0.405
'[09:47:42.784 24/01/1995]',0.003,0.003,-0.435,-0.397
'[09:47:42.786 24/01/1995]',0.003,0.003,-0.435,-0.397
'[09:47:42.788 24/01/1995]',0.003,0.003,-0.435,-0.397
'[09:47:42.790 24/01/1995]',0.003,0.003,-0.435,-0.397
'[09:47:42.792 24/01/1995]',0.003,0.003,-0.435,-0.388
'[09:47:42.794 24/01/1995]',0.003,0.003,-0.435,-0.388
'[09:47:42.796 24/01/1995]',0.003,0.003,-0.435,-0.388
'[09:47:42.798 24/01/1995]',0.003,0.003,-0.435,-0.388
'[09:47:42.800 24/01/1995]',0.003,0.003,-0.435,-0.377
'[09:47:42.802 24/01/1995]',0.003,0.003,-0.435,-0.377
'[09:47:42.804 24/01/1995]',0.003,0.003,-0.435,-0.377
'[09:47:42.806 24/01/1995]',0.003,0.035,-0.435,-0.377
'[09:47:42.808 24/01/1995]',0.003,0.035,-0.425,-0.366
'[09:47:42.810 24/01/1995]',0.003,0.069,-0.425,-0.366
'[09:47:42.812 24/01/1995]',0.003,0.103,-0.425,-0.366
'[09:47:42.814 24/01/1995]',0.003,0.137,-0.425,-0.366
'[09:47:42.816 24/01/1995]',0.037,0.170,-0.425,-0.354
'[09:47:42.818 24/01/1995]',0.073,0.170,-0.425,-0.354
'[09:47:42.820 24/01/1995]',0.108,0.170,-0.425,-0.354
'[09:47:42.822 24/01/1995]',0.179,0.170,-0.425,-0.354
'[09:47:42.824 24/01/1995]',0.250,0.137,-0.425,-0.343
'[09:47:42.826 24/01/1995]',0.357,0.103,-0.425,-0.343
'[09:47:42.828 24/01/1995]',0.499,0.003,-0.425,-0.343
'[09:47:42.830 24/01/1995]',0.640,-0.031,-0.425,-0.343
'[09:47:42.832 24/01/1995]',0.746,-0.098,-0.425,-0.330
'[09:47:42.834 24/01/1995]',0.746,-0.166,-0.425,-0.330
'[09:47:42.836 24/01/1995]',0.711,-0.199,-0.425,-0.330
'[09:47:42.838 24/01/1995]',0.569,-0.267,-0.425,-0.330
'[09:47:42.840 24/01/1995]',0.393,-0.334,-0.418,-0.317
'[09:47:42.842 24/01/1995]',0.215,-0.402,-0.418,-0.317
'[09:47:42.844 24/01/1995]',0.073,-0.436,-0.418,-0.317
'[09:47:42.846 24/01/1995]',0.003,-0.469,-0.418,-0.317
'[09:47:42.848 24/01/1995]',-0.068,-0.436,-0.418,-0.303
'[09:47:42.850 24/01/1995]',-0.139,-0.436,-0.418,-0.303
'[09:47:42.852 24/01/1995]',-0.210,-0.402,-0.418,-0.303
'[09:47:42.854 24/01/1995]',-0.281,-0.368,-0.418,-0.303
'[09:47:42.856 24/01/1995]',-0.281,-0.301,-0.412,-0.289
'[09:47:42.858 24/01/1995]',-0.317,-0.267,-0.412,-0.289
'[09:47:42.860 24/01/1995]',-0.317,-0.199,-0.412,-0.289
'[09:47:42.862 24/01/1995]',-0.317,-0.132,-0.412,-0.289
'[09:47:42.864 24/01/1995]',-0.281,-0.098,-0.418,-0.275
'[09:47:42.866 24/01/1995]',-0.246,-0.064,-0.418,-0.275
'[09:47:42.868 24/01/1995]',-0.174,-0.031,-0.418,-0.275
'[09:47:42.870 24/01/1995]',-0.139,0.003,-0.418,-0.275
'[09:47:42.872 24/01/1995]',-0.103,0.003,-0.425,-0.260
'[09:47:42.874 24/01/1995]',-0.103,0.003,-0.425,-0.260
'[09:47:42.876 24/01/1995]',-0.068,0.003,-0.425,-0.260
'[09:47:42.878 24/01/1995]',-0.103,0.003,-0.425,-0.260
'[09:47:42.880 24/01/1995]',-0.103,0.003,-0.418,-0.245
'[09:47:42.882 24/01/1995]',-0.103,0.003,-0.418,-0.245
'[09:47:42.884 24/01/1995]',-0.103,-0.031,-0.418,-0.245
'[09:47:42.886 24/01/1995]',-0.103,0.003,-0.418,-0.245
'[09:47:42.888 24/01/1995]',-0.139,0.003,-0.425,-0.231
'[09:47:42.890 24/01/1995]',-0.139,0.003,-0.425,-0.231
'[09:47:42.892 24/01/1995]',-0.139,0.003,-0.425,-0.231
'[09:47:42.894 24/01/1995]',-0.139,0.003,-0.425,-0.231
'[09:47:42.896 24/01/1995]',-0.139,0.003,-0.418,-0.216
'[09:47:42.898 24/01/1995]',-0.139,0.003,-0.418,-0.216
'[09:47:42.900 24/01/1995]',-0.139,0.003,-0.418,-0.216
'[09:47:42.902 24/01/1995]',-0.103,0.003,-0.418,-0.216
'[09:47:42.904 24/01/1995]',-0.103,0.003,-0.425,-0.201
'[09:47:42.906 24/01/1995]',-0.103,0.003,-0.425,-0.201
'[09:47:42.908 24/01/1995]',-0.103,0.035,-0.425,-0.201
'[09:47:42.910 24/01/1995]',-0.103,0.035,-0.425,-0.201
'[09:47:42.912 24/01/1995]',-0.103,0.035,-0.431,-0.182
'[09:47:42.914 24/01/1995]',-0.068,0.035,-0.431,-0.182
'[09:47:42.916 24/01/1995]',-0.068,0.035,-0.431,-0.182
'[09:47:42.918 24/01/1995]',-0.068,0.035,-0.431,-0.182
'[09:47:42.920 24/01/1995]',-0.032,0.003,-0.425,-0.162
'[09:47:42.922 24/01/1995]',-0.032,0.003,-0.425,-0.162
'[09:47:42.924 24/01/1995]',-0.032,0.003,-0.425,-0.162
'[09:47:42.926 24/01/1995]',-0.068,0.003,-0.425,-0.162
'[09:47:42.928 24/01/1995]',-0.068,0.003,-0.425,-0.140
'[09:47:42.930 24/01/1995]',-0.068,0.003,-0.425,-0.140
'[09:47:42.932 24/01/1995]',-0.068,0.003,-0.425,-0.140
'[09:47:42.934 24/01/1995]',-0.068,0.003,-0.425,-0.140
'[09:47:42.936 24/01/1995]',-0.068,0.003,-0.431,-0.117
'[09:47:42.938 24/01/1995]',-0.068,0.003,-0.431,-0.117
'[09:47:42.940 24/01/1995]',-0.068,0.003,-0.431,-0.117
'[09:47:42.942 24/01/1995]',-0.068,0.003,-0.431,-0.117
'[09:47:42.944 24/01/1995]',-0.068,0.003,-0.418,-0.092
'[09:47:42.946 24/01/1995]',-0.068,0.003,-0.418,-0.092
'[09:47:42.948 24/01/1995]',-0.032,0.003,-0.418,-0.092
'[09:47:42.950 24/01/1995]',-0.032,0.003,-0.418,-0.092
'[09:47:42.952 24/01/1995]',-0.032,0.003,-0.418,-0.067
'[09:47:42.954 24/01/1995]',-0.032,0.003,-0.418,-0.067
'[09:47:42.956 24/01/1995]',-0.032,0.003,-0.418,-0.067
'[09:47:42.958 24/01/1995]',-0.032,0.003,-0.418,-0.067
'[09:47:42.960 24/01/1995]',-0.032,0.003,-0.418,-0.041
'[09:47:42.962 24/01/1995]',-0.032,0.035,-0.418,-0.041
'[09:47:42.964 24/01/1995]',-0.032,0.035,-0.418,-0.041
'[09:47:42.966 24/01/1995]',-0.032,0.035,-0.418,-0.041
'[09:47:42.968 24/01/1995]',0.003,0.035,-0.418,-0.014
'[09:47:42.970 24/01/1995]',0.003,0.035,-0.418,-0.014
'[09:47:42.972 24/01/1995]',0.003,0.035,-0.418,-0.014
'[09:47:42.974 24/01/1995]',0.003,0.035,-0.418,-0.014
'[09:47:42.976 24/01/1995]',0.003,0.035,-0.418,0.012
'[09:47:42.978 24/01/1995]',0.003,0.035,-0.418,0.012
'[09:47:42.980 24/01/1995]',0.003,0.035,-0.418,0.012
'[09:47:42.982 24/01/1995]',0.003,0.035,-0.418,0.012
'[09:47:42.984 24/01/1995]',0.003,0.035,-0.412,0.038
'[09:47:42.986 24/01/1995]',0.003,0.035,-0.412,0.038
'[09:47:42.988 24/01/1995]',0.003,0.035,-0.412,0.038
'[09:47:42.990 24/01/1995]',0.003,0.035,-0.412,0.038
'[09:47:42.992 24/01/1995]',0.003,0.035,-0.412,0.064
'[09:47:42.994 24/01/1995]',0.003,0.035,-0.412,0.064
'[09:47:42.996 24/01/1995]',0.003,0.035,-0.412,0.064
'[09:47:42.998 24/01/1995]',0.037,0.069,-0.412,0.064
'[09:47:43.000 24/01/1995]',0.037,0.069,-0.400,0.090
'[09:47:43.002 24/01/1995]',0.037,0.069,-0.400,0.090
'[09:47:43.004 24/01/1995]',0.073,0.069,-0.400,0.090
'[09:47:43.006 24/01/1995]',0.073,0.069,-0.400,0.090
'[09:47:43.008 24/01/1995]',0.073,0.069,-0.400,0.117
'[09:47:43.010 24/01/1995]',0.108,0.069,-0.400,0.117
'[09:47:43.012 24/01/1995]',0.144,0.069,-0.400,0.117
'[09:47:43.014 24/01/1995]',0.144,0.069,-0.400,0.117
'[09:47:43.016 24/01/1995]',0.179,0.069,-0.393,0.144
'[09:47:43.018 24/01/1995]',0.179,0.069,-0.393,0.144
'[09:47:43.020 24/01/1995]',0.179,0.035,-0.393,0.144
'[09:47:43.022 24/01/1995]',0.179,0.035,-0.393,0.144
'[09:47:43.024 24/01/1995]',0.179,0.035,-0.380,0.172
'[09:47:43.026 24/01/1995]',0.179,0.003,-0.380,0.172
'[09:47:43.028 24/01/1995]',0.215,0.003,-0.380,0.172
'[09:47:43.030 24/01/1995]',0.215,0.003,-0.380,0.172
'[09:47:43.032 24/01/1995]',0.250,0.003,-0.360,0.200
'[09:47:43.034 24/01/1995]',0.250,0.003,-0.360,0.200
'[09:47:43.036 24/01/1995]',0.250,0.003,-0.360,0.200
'[09:47:43.038 24/01/1995]',0.250,0.003,-0.360,0.200
'[09:47:43.040 24/01/1995]',0.250,0.003,-0.322,0.228
'[09:47:43.042 24/01/1995]',0.250,0.035,-0.322,0.228
'[09:47:43.044 24/01/1995]',0.250,0.035,-0.322,0.228
'[09:47:43.046 24/01/1995]',0.215,0.035,-0.322,0.228
'[09:47:43.048 24/01/1995]',0.215,0.035,-0.271,0.255
'[09:47:43.050 24/01/1995]',0.250,0.035,-0.271,0.255
'[09:47:43.052 24/01/1995]',0.250,0.035,-0.271,0.255
'[09:47:43.054 24/01/1995]',0.250,0.035,-0.271,0.255
'[09:47:43.056 24/01/1995]',0.286,0.035,-0.200,0.282
'[09:47:43.058 24/01/1995]',0.286,0.035,-0.200,0.282
'[09:47:43.060 24/01/1995]',0.321,0.035,-0.200,0.282
'[09:47:43.062 24/01/1995]',0.321,0.035,-0.200,0.282
'[09:47:43.064 24/01/1995]',0.321,0.035,-0.103,0.310
'[09:47:43.066 24/01/1995]',0.321,0.003,-0.103,0.310
'[09:47:43.068 24/01/1995]',0.321,0.003,-0.103,0.310
'[09:47:43.070 24/01/1995]',0.321,0.003,-0.103,0.310
'[09:47:43.072 24/01/1995]',0.357,0.003,0.006,0.338
'[09:47:43.074 24/01/1995]',0.357,0.003,0.006,0.338
'[09:47:43.076 24/01/1995]',0.357,0.003,0.006,0.338
'[09:47:43.078 24/01/1995]',0.321,0.003,0.006,0.338
'[09:47:43.080 24/01/1995]',0.321,0.003,0.129,0.365
'[09:47:43.082 24/01/1995]',0.321,0.003,0.129,0.365
'[09:47:43.084 24/01/1995]',0.286,0.003,0.129,0.365
'[09:47:43.086 24/01/1995]',0.286,0.003,0.129,0.365
'[09:47:43.088 24/01/1995]',0.286,0.003,0.270,0.393
'[09:47:43.090 24/01/1995]',0.250,0.003,0.270,0.393
'[09:47:43.092 24/01/1995]',0.250,0.003,0.270,0.393
'[09:47:43.094 24/01/1995]',0.250,0.003,0.270,0.393
'[09:47:43.096 24/01/1995]',0.215,0.003,0.412,0.420
'[09:47:43.098 24/01/1995]',0.215,0.003,0.412,0.420
'[09:47:43.100 24/01/1995]',0.215,0.003,0.412,0.420
'[09:47:43.102 24/01/1995]',0.179,0.003,0.412,0.420
'[09:47:43.104 24/01/1995]',0.179,0.003,0.540,0.445
'[09:47:43.106 24/01/1995]',0.144,0.003,0.540,0.445
'[09:47:43.108 24/01/1995]',0.144,0.003,0.540,0.445
'[09:47:43.110 24/01/1995]',0.144,0.003,0.540,0.445
'[09:47:43.112 24/01/1995]',0.144,0.003,0.675,0.469
'[09:47:43.114 24/01/1995]',0.108,0.003,0.675,0.469
'[09:47:43.116 24/01/1995]',0.108,0.003,0.675,0.469
'[09:47:43.118 24/01/1995]',0.108,0.003,0.675,0.469
'[09:47:43.120 24/01/1995]',0.073,0.003,0.778,0.491
'[09:47:43.122 24/01/1995]',0.073,0.003,0.778,0.491
'[09:47:43.124 24/01/1995]',0.037,0.003,0.778,0.491
'[09:47:43.126 24/01/1995]',0.037,0.003,0.778,0.491
'[09:47:43.128 24/01/1995]',0.037,0.003,0.875,0.513
'[09:47:43.130 24/01/1995]',0.003,0.003,0.875,0.513
'[09:47:43.132 24/01/1995]',0.037,0.003,0.875,0.513
'[09:47:43.134 24/01/1995]',0.003,0.003,0.875,0.513
'[09:47:43.136 24/01/1995]',0.003,0.003,0.953,0.533
'[09:47:43.138 24/01/1995]',0.003,0.003,0.953,0.533
'[09:47:43.140 24/01/1995]',0.003,0.003,0.953,0.533
'[09:47:43.142 24/01/1995]',0.003,0.003,0.953,0.533
'[09:47:43.144 24/01/1995]',0.003,0.003,1.004,0.553
'[09:47:43.146 24/01/1995]',0.037,0.003,1.004,0.553
'[09:47:43.148 24/01/1995]',0.037,0.003,1.004,0.553
'[09:47:43.150 24/01/1995]',0.037,0.003,1.004,0.553
'[09:47:43.152 24/01/1995]',0.037,0.003,1.024,0.573
'[09:47:43.154 24/01/1995]',0.037,0.003,1.024,0.573
'[09:47:43.156 24/01/1995]',0.037,0.003,1.024,0.573
'[09:47:43.158 24/01/1995]',0.003,0.003,1.024,0.573
'[09:47:43.160 24/01/1995]',0.003,0.003,1.024,0.592
'[09:47:43.162 24/01/1995]',0.003,-0.031,1.024,0.592
'[09:47:43.164 24/01/1995]',0.003,-0.031,1.024,0.592
'[09:47:43.166 24/01/1995]',0.003,-0.031,1.024,0.592
'[09:47:43.168 24/01/1995]',0.003,-0.031,1.024,0.610
'[09:47:43.170 24/01/1995]',0.003,-0.031,1.024,0.610
'[09:47:43.172 24/01/1995]',0.003,-0.031,1.024,0.610
'[09:47:43.174 24/01/1995]',0.003,0.003,1.024,0.610
'[09:47:43.176 24/01/1995]',0.003,0.003,1.024,0.627
'[09:47:43.178 24/01/1995]',0.003,0.003,1.024,0.627
'[09:47:43.180 24/01/1995]',0.003,0.003,1.024,0.627
'[09:47:43.182 24/01/1995]',0.003,0.003,1.024,0.627
'[09:47:43.184 24/01/1995]',0.003,0.003,1.024,0.644
'[09:47:43.186 24/01/1995]',-0.032,0.003,1.024,0.644
'[09:47:43.188 24/01/1995]',-0.032,0.003,1.024,0.644
'[09:47:43.190 24/01/1995]',-0.032,0.003,1.024,0.644
'[09:47:43.192 24/01/1995]',-0.032,0.003,1.024,0.661
'[09:47:43.194 24/01/1995]',-0.032,0.003,1.024,0.661
'[09:47:43.196 24/01/1995]',0.003,0.003,1.024,0.661
'[09:47:43.198 24/01/1995]',0.003,0.003,1.024,0.661
'[09:47:43.200 24/01/1995]',0.003,0.003,1.024,0.677
'[09:47:43.202 24/01/1995]',0.003,0.003,1.024,0.677
'[09:47:43.204 24/01/1995]',0.003,0.003,1.024,0.677
'[09:47:43.206 24/01/1995]',0.003,0.003,1.024,0.677
'[09:47:43.208 24/01/1995]',0.003,0.003,1.017,0.692
'[09:47:43.210 24/01/1995]',0.003,0.003,1.017,0.692
'[09:47:43.212 24/01/1995]',0.003,0.003,1.017,0.692
'[09:47:43.214 24/01/1995]',0.003,0.003,1.017,0.692
'[09:47:43.216 24/01/1995]',0.003,0.003,0.991,0.707
'[09:47:43.218 24/01/1995]',0.003,0.003,0.991,0.707
'[09:47:43.220 24/01/1995]',0.003,0.003,0.991,0.707
'[09:47:43.222 24/01/1995]',0.003,0.003,0.991,0.707
'[09:47:43.224 24/01/1995]',0.003,0.003,0.953,0.721
'[09:47:43.226 24/01/1995]',0.003,0.003,0.953,0.721
'[09:47:43.228 24/01/1995]',0.003,0.003,0.953,0.721
'[09:47:43.230 24/01/1995]',0.003,0.003,0.953,0.721
'[09:47:43.232 24/01/1995]',0.003,0.003,0.914,0.734
'[09:47:43.234 24/01/1995]',0.003,0.003,0.914,0.734
'[09:47:43.236 24/01/1995]',0.003,0.003,0.914,0.734
'[09:47:43.238 24/01/1995]',0.003,0.003,0.914,0.734
'[09:47:43.240 24/01/1995]',0.003,0.003,0.869,0.748
'[09:47:43.242 24/01/1995]',0.003,0.003,0.869,0.748
'[09:47:43.244 24/01/1995]',0.003,0.003,0.869,0.748
'[09:47:43.246 24/01/1995]',0.003,0.003,0.869,0.748
'[09:47:43.248 24/01/1995]',0.003,0.003,0.811,0.760
'[09:47:43.250 24/01/1995]',0.003,0.003,0.811,0.760
'[09:47:43.252 24/01/1995]',0.003,0.003,0.811,0.760
'[09:47:43.254 24/01/1995]',0.003,0.003,0.811,0.760
'[09:47:43.256 24/01/1995]',0.003,0.003,0.759,0.773
'[09:47:43.258 24/01/1995]',0.003,0.003,0.759,0.773
'[09:47:43.260 24/01/1995]',0.037,0.003,0.759,0.773
'[09:47:43.262 24/01/1995]',0.037,0.003,0.759,0.773
'[09:47:43.264 24/01/1995]',0.037,0.003,0.702,0.786
'[09:47:43.266 24/01/1995]',0.003,0.003,0.702,0.786
'[09:47:43.268 24/01/1995]',0.003,0.003,0.702,0.786
'[09:47:43.270 24/01/1995]',0.003,0.003,0.702,0.786
'[09:47:43.272 24/01/1995]',0.003,0.003,0.643,0.799
'[09:47:43.274 24/01/1995]',0.003,0.003,0.643,0.799
'[09:47:43.276 24/01/1995]',0.003,0.003,0.643,0.799
'[09:47:43.278 24/01/1995]',0.003,0.003,0.643,0.799
'[09:47:43.280 24/01/1995]',0.037,0.003,0.586,0.812
'[09:47:43.282 24/01/1995]',0.037,0.003,0.586,0.812
'[09:47:43.284 24/01/1995]',0.037,0.003,0.586,0.812
'[09:47:43.286 24/01/1995]',0.037,0.003,0.586,0.812
'[09:47:43.288 24/01/1995]',0.073,0.003,0.521,0.825
'[09:47:43.290 24/01/1995]',0.037,-0.031,0.521,0.825
'[09:47:43.292 24/01/1995]',0.037,-0.031,0.521,0.825
'[09:47:43.294 24/01/1995]',0.037,-0.031,0.521,0.825
'[09:47:43.296 24/01/1995]',0.037,-0.031,0.464,0.836
'[09:47:43.298 24/01/1995]',0.037,-0.031,0.464,0.836
'[09:47:43.300 24/01/1995]',0.037,-0.031,0.464,0.836
'[09:47:43.302 24/01/1995]',0.037,-0.031,0.464,0.836
'[09:47:43.304 24/01/1995]',0.003,-0.031,0.406,0.847
'[09:47:43.306 24/01/1995]',0.003,-0.031,0.406,0.847
'[09:47:43.308 24/01/1995]',0.003,-0.031,0.406,0.847
'[09:47:43.310 24/01/1995]',0.037,-0.031,0.406,0.847
'[09:47:43.312 24/01/1995]',0.037,-0.031,0.354,0.856
'[09:47:43.314 24/01/1995]',0.037,-0.031,0.354,0.856
'[09:47:43.316 24/01/1995]',0.037,-0.031,0.354,0.856
'[09:47:43.318 24/01/1995]',0.037,-0.031,0.354,0.856
'[09:47:43.320 24/01/1995]',0.037,-0.031,0.309,0.865
'[09:47:43.322 24/01/1995]',0.037,-0.031,0.309,0.865
'[09:47:43.324 24/01/1995]',0.037,-0.031,0.309,0.865
'[09:47:43.326 24/01/1995]',0.037,0.003,0.309,0.865
'[09:47:43.328 24/01/1995]',0.003,0.003,0.270,0.874
'[09:47:43.330 24/01/1995]',0.003,0.003,0.270,0.874
'[09:47:43.332 24/01/1995]',0.003,0.003,0.270,0.874
'[09:47:43.334 24/01/1995]',-0.032,0.003,0.270,0.874
'[09:47:43.336 24/01/1995]',0.003,0.003,0.225,0.882
'[09:47:43.338 24/01/1995]',0.003,0.003,0.225,0.882
'[09:47:43.340 24/01/1995]',0.003,0.003,0.225,0.882
'[09:47:43.342 24/01/1995]',0.003,0.003,0.225,0.882
'[09:47:43.344 24/01/1995]',0.003,0.003,0.186,0.891
'[09:47:43.346 24/01/1995]',0.003,0.003,0.186,0.891
'[09:47:43.348 24/01/1995]',0.003,0.003,0.186,0.891
'[09:47:43.350 24/01/1995]',0.003,0.003,0.186,0.891
'[09:47:43.352 24/01/1995]',0.003,0.003,0.161,0.899
'[09:47:43.354 24/01/1995]',0.003,0.003,0.161,0.899
'[09:47:43.356 24/01/1995]',0.003,0.003,0.161,0.899
'[09:47:43.358 24/01/1995]',0.003,0.003,0.161,0.899
'[09:47:43.360 24/01/1995]',0.003,0.003,0.129,0.907
'[09:47:43.362 24/01/1995]',0.003,0.003,0.129,0.907
'[09:47:43.364 24/01/1995]',0.003,0.003,0.129,0.907
'[09:47:43.366 24/01/1995]',0.003,0.003,0.129,0.907
'[09:47:43.368 24/01/1995]',0.003,0.003,0.097,0.915
'[09:47:43.370 24/01/1995]',0.003,0.003,0.097,0.915
'[09:47:43.372 24/01/1995]',-0.032,0.003,0.097,0.915
'[09:47:43.374 24/01/1995]',-0.032,0.003,0.097,0.915
'[09:47:43.376 24/01/1995]',-0.032,0.035,0.070,0.923
'[09:47:43.378 24/01/1995]',-0.032,0.035,0.070,0.923
'[09:47:43.380 24/01/1995]',-0.032,0.035,0.070,0.923
'[09:47:43.382 24/01/1995]',-0.032,0.003,0.070,0.923
'[09:47:43.384 24/01/1995]',-0.032,0.003,0.038,0.931
'[09:47:43.386 24/01/1995]',-0.032,0.003,0.038,0.931
'[09:47:43.388 24/01/1995]',0.003,0.003,0.038,0.931
'[09:47:43.390 24/01/1995]',0.003,0.003,0.038,0.931
'[09:47:43.392 24/01/1995]',0.003,0.003,0.013,0.941
'[09:47:43.394 24/01/1995]',0.003,0.003,0.013,0.941
'[09:47:43.396 24/01/1995]',0.003,0.003,0.013,0.941
'[09:47:43.398 24/01/1995]',0.003,0.003,0.013,0.941
'[09:47:43.400 24/01/1995]',0.003,0.003,-0.013,0.951
'[09:47:43.402 24/01/1995]',0.003,0.003,-0.013,0.951
'[09:47:43.404 24/01/1995]',0.003,0.003,-0.013,0.951
'[09:47:43.406 24/01/1995]',0.003,0.003,-0.013,0.951
'[09:47:43.408 24/01/1995]',0.003,0.003,-0.039,0.962
'[09:47:43.410 24/01/1995]',0.003,0.003,-0.039,0.962
'[09:47:43.412 24/01/1995]',0.003,0.003,-0.039,0.962
'[09:47:43.414 24/01/1995]',0.003,0.003,-0.039,0.962
'[09:47:43.416 24/01/1995]',0.003,0.003,-0.071,0.972
'[09:47:43.418 24/01/1995]',0.003,0.003,-0.071,0.972
'[09:47:43.420 24/01/1995]',0.003,0.003,-0.071,0.972
'[09:47:43.422 24/01/1995]',0.003,-0.031,-0.071,0.972
'[09:47:43.424 24/01/1995]',0.003,-0.031,-0.090,0.981
'[09:47:43.426 24/01/1995]',0.003,-0.031,-0.090,0.981
'[09:47:43.428 24/01/1995]',0.003,-0.031,-0.090,0.981
'[09:47:43.430 24/01/1995]',0.037,-0.064,-0.090,0.981
'[09:47:43.432 24/01/1995]',0.037,-0.064,-0.116,0.990
'[09:47:43.434 24/01/1995]',0.037,-0.064,-0.116,0.990
'[09:47:43.436 24/01/1995]',0.037,-0.064,-0.116,0.990
'[09:47:43.438 24/01/1995]',0.037,-0.031,-0.116,0.990
'[09:47:43.440 24/01/1995]',0.003,-0.031,-0.142,0.998
'[09:47:43.442 24/01/1995]',0.003,-0.031,-0.142,0.998
'[09:47:43.444 24/01/1995]',0.003,-0.031,-0.142,0.998
'[09:47:43.446 24/01/1995]',0.003,-0.031,-0.142,0.998
'[09:47:43.448 24/01/1995]',0.003,-0.031,-0.161,1.005
'[09:47:43.450 24/01/1995]',0.003,-0.031,-0.161,1.005
'[09:47:43.452 24/01/1995]',0.037,-0.031,-0.161,1.005
'[09:47:43.454 24/01/1995]',0.037,-0.031,-0.161,1.005
'[09:47:43.456 24/01/1995]',0.037,-0.031,-0.194,1.012
'[09:47:43.458 24/01/1995]',0.003,-0.031,-0.194,1.012
