'Time and date','II ','II ','V ','PAP ','PLETH ','RESP '
'hh:mm:ss.mmm dd/mm/yyyy','mV','mV','mV','mmHg','mV','mV'
'[12:49:04.000 25/01/1995]',-0.043,-0.033,0.035,18.015,-0.401,-0.452
'[12:49:04.002 25/01/1995]',-0.057,-0.033,0.003,18.015,-0.401,-0.452
'[12:49:04.004 25/01/1995]',-0.072,-0.068,0.003,18.015,-0.401,-0.452
'[12:49:04.006 25/01/1995]',-0.087,-0.068,0.003,18.015,-0.401,-0.452
'[12:49:04.008 25/01/1995]',-0.087,-0.068,0.003,17.965,-0.405,-0.452
'[12:49:04.010 25/01/1995]',-0.102,-0.068,0.003,17.965,-0.405,-0.452
'[12:49:04.012 25/01/1995]',-0.102,-0.104,0.003,17.965,-0.405,-0.452
'[12:49:04.014 25/01/1995]',-0.102,-0.104,0.003,17.965,-0.405,-0.452
'[12:49:04.016 25/01/1995]',-0.102,-0.104,0.003,18.191,-0.407,-0.454
'[12:49:04.018 25/01/1995]',-0.102,-0.068,0.003,18.191,-0.407,-0.454
'[12:49:04.020 25/01/1995]',-0.087,-0.068,-0.030,18.191,-0.407,-0.454
'[12:49:04.022 25/01/1995]',-0.087,-0.068,-0.030,18.191,-0.407,-0.454
'[12:49:04.024 25/01/1995]',-0.087,-0.068,-0.030,19.020,-0.411,-0.456
'[12:49:04.026 25/01/1995]',-0.072,-0.068,-0.030,19.020,-0.411,-0.456
'[12:49:04.028 25/01/1995]',-0.087,-0.068,-0.030,19.020,-0.411,-0.456
'[12:49:04.030 25/01/1995]',-0.087,-0.068,-0.030,19.020,-0.411,-0.456
'[12:49:04.032 25/01/1995]',-0.072,-0.068,-0.030,20.678,-0.414,-0.459
'[12:49:04.034 25/01/1995]',-0.072,-0.068,-0.030,20.678,-0.414,-0.459
'[12:49:04.036 25/01/1995]',-0.072,-0.068,-0.030,20.678,-0.414,-0.459
'[12:49:04.038 25/01/1995]',-0.072,-0.068,-0.030,20.678,-0.414,-0.459
'[12:49:04.040 25/01/1995]',-0.072,-0.068,-0.030,22.965,-0.417,-0.462
'[12:49:04.042 25/01/1995]',-0.072,-0.068,-0.030,22.965,-0.417,-0.462
'[12:49:04.044 25/01/1995]',-0.072,-0.068,-0.030,22.965,-0.417,-0.462
'[12:49:04.046 25/01/1995]',-0.072,-0.068,-0.030,22.965,-0.417,-0.462
'[12:49:04.048 25/01/1995]',-0.072,-0.068,-0.030,25.151,-0.421,-0.466
'[12:49:04.050 25/01/1995]',-0.057,-0.068,-0.030,25.151,-0.421,-0.466
'[12:49:04.052 25/01/1995]',-0.057,-0.068,-0.030,25.151,-0.421,-0.466
'[12:49:04.054 25/01/1995]',-0.057,-0.068,-0.030,25.151,-0.421,-0.466
'[12:49:04.056 25/01/1995]',-0.057,-0.068,-0.030,26.508,-0.426,-0.470
'[12:49:04.058 25/01/1995]',-0.043,-0.033,-0.030,26.508,-0.426,-0.470
'[12:49:04.060 25/01/1995]',-0.028,-0.033,0.003,26.508,-0.426,-0.470
'[12:49:04.062 25/01/1995]',-0.013,0.003,0.003,26.508,-0.426,-0.470
'[12:49:04.064 25/01/1995]',0.001,0.003,0.003,26.683,-0.431,-0.475
'[12:49:04.066 25/01/1995]',0.001,0.003,0.003,26.683,-0.431,-0.475
'[12:49:04.068 25/01/1995]',0.001,0.003,0.003,26.683,-0.431,-0.475
'[12:49:04.070 25/01/1995]',0.001,0.003,0.003,26.683,-0.431,-0.475
'[12:49:04.072 25/01/1995]',0.015,0.003,0.003,26.080,-0.435,-0.478
'[12:49:04.074 25/01/1995]',0.015,0.003,0.003,26.080,-0.435,-0.478
'[12:49:04.076 25/01/1995]',0.030,0.037,0.003,26.080,-0.435,-0.478
'[12:49:04.078 25/01/1995]',0.045,0.037,0.003,26.080,-0.435,-0.478
'[12:49:04.080 25/01/1995]',0.059,0.037,0.003,25.503,-0.440,-0.480
'[12:49:04.082 25/01/1995]',0.059,0.073,0.003,25.503,-0.440,-0.480
'[12:49:04.084 25/01/1995]',0.074,0.073,0.003,25.503,-0.440,-0.480
'[12:49:04.086 25/01/1995]',0.074,0.073,0.003,25.503,-0.440,-0.480
'[12:49:04.088 25/01/1995]',0.089,0.073,0.003,25.377,-0.444,-0.481
'[12:49:04.090 25/01/1995]',0.104,0.073,0.003,25.377,-0.444,-0.481
'[12:49:04.092 25/01/1995]',0.104,0.109,0.003,25.377,-0.444,-0.481
'[12:49:04.094 25/01/1995]',0.118,0.109,0.003,25.377,-0.444,-0.481
'[12:49:04.096 25/01/1995]',0.148,0.145,0.003,25.678,-0.448,-0.481
'[12:49:04.098 25/01/1995]',0.148,0.145,0.003,25.678,-0.448,-0.481
'[12:49:04.100 25/01/1995]',0.162,0.145,0.003,25.678,-0.448,-0.481
'[12:49:04.102 25/01/1995]',0.177,0.181,0.003,25.678,-0.448,-0.481
'[12:49:04.104 25/01/1995]',0.162,0.181,0.003,26.332,-0.453,-0.479
'[12:49:04.106 25/01/1995]',0.177,0.181,0.003,26.332,-0.453,-0.479
'[12:49:04.108 25/01/1995]',0.192,0.181,0.003,26.332,-0.453,-0.479
'[12:49:04.110 25/01/1995]',0.192,0.217,0.035,26.332,-0.453,-0.479
'[12:49:04.112 25/01/1995]',0.207,0.217,0.035,27.211,-0.458,-0.477
'[12:49:04.114 25/01/1995]',0.207,0.217,0.035,27.211,-0.458,-0.477
'[12:49:04.116 25/01/1995]',0.207,0.217,0.035,27.211,-0.458,-0.477
'[12:49:04.118 25/01/1995]',0.207,0.217,0.035,27.211,-0.458,-0.477
'[12:49:04.120 25/01/1995]',0.221,0.217,0.068,28.518,-0.463,-0.473
'[12:49:04.122 25/01/1995]',0.235,0.252,0.068,28.518,-0.463,-0.473
'[12:49:04.124 25/01/1995]',0.250,0.252,0.102,28.518,-0.463,-0.473
'[12:49:04.126 25/01/1995]',0.250,0.252,0.102,28.518,-0.463,-0.473
'[12:49:04.128 25/01/1995]',0.265,0.288,0.102,30.402,-0.463,-0.469
'[12:49:04.130 25/01/1995]',0.279,0.288,0.135,30.402,-0.463,-0.469
'[12:49:04.132 25/01/1995]',0.279,0.288,0.135,30.402,-0.463,-0.469
'[12:49:04.134 25/01/1995]',0.279,0.288,0.135,30.402,-0.463,-0.469
'[12:49:04.136 25/01/1995]',0.279,0.288,0.135,32.739,-0.468,-0.466
'[12:49:04.138 25/01/1995]',0.279,0.288,0.135,32.739,-0.468,-0.466
'[12:49:04.140 25/01/1995]',0.279,0.288,0.135,32.739,-0.468,-0.466
'[12:49:04.142 25/01/1995]',0.265,0.288,0.102,32.739,-0.468,-0.466
'[12:49:04.144 25/01/1995]',0.250,0.252,0.102,35.402,-0.470,-0.462
'[12:49:04.146 25/01/1995]',0.250,0.252,0.102,35.402,-0.470,-0.462
'[12:49:04.148 25/01/1995]',0.235,0.252,0.068,35.402,-0.470,-0.462
'[12:49:04.150 25/01/1995]',0.221,0.217,0.068,35.402,-0.470,-0.462
'[12:49:04.152 25/01/1995]',0.207,0.217,0.068,38.040,-0.470,-0.458
'[12:49:04.154 25/01/1995]',0.192,0.217,0.068,38.040,-0.470,-0.458
'[12:49:04.156 25/01/1995]',0.192,0.181,0.035,38.040,-0.470,-0.458
'[12:49:04.158 25/01/1995]',0.162,0.181,0.035,38.040,-0.470,-0.458
'[12:49:04.160 25/01/1995]',0.148,0.145,0.035,40.528,-0.468,-0.454
'[12:49:04.162 25/01/1995]',0.133,0.145,0.035,40.528,-0.468,-0.454
'[12:49:04.164 25/01/1995]',0.118,0.109,0.035,40.528,-0.468,-0.454
'[12:49:04.166 25/01/1995]',0.104,0.109,0.003,40.528,-0.468,-0.454
'[12:49:04.168 25/01/1995]',0.089,0.073,0.003,42.814,-0.459,-0.450
'[12:49:04.170 25/01/1995]',0.074,0.073,0.003,42.814,-0.459,-0.450
'[12:49:04.172 25/01/1995]',0.059,0.073,0.003,42.814,-0.459,-0.450
'[12:49:04.174 25/01/1995]',0.045,0.037,0.003,42.814,-0.459,-0.450
'[12:49:04.176 25/01/1995]',0.030,0.037,0.003,44.874,-0.442,-0.445
'[12:49:04.178 25/01/1995]',0.015,0.037,0.003,44.874,-0.442,-0.445
'[12:49:04.180 25/01/1995]',0.015,0.003,0.003,44.874,-0.442,-0.445
'[12:49:04.182 25/01/1995]',0.015,0.003,0.003,44.874,-0.442,-0.445
'[12:49:04.184 25/01/1995]',0.015,0.003,0.003,46.709,-0.414,-0.441
'[12:49:04.186 25/01/1995]',0.001,0.003,0.003,46.709,-0.414,-0.441
'[12:49:04.188 25/01/1995]',-0.013,0.003,0.003,46.709,-0.414,-0.441
'[12:49:04.190 25/01/1995]',-0.028,-0.033,-0.030,46.709,-0.414,-0.441
'[12:49:04.192 25/01/1995]',-0.043,-0.033,-0.030,48.342,-0.373,-0.436
'[12:49:04.194 25/01/1995]',-0.043,-0.033,-0.030,48.342,-0.373,-0.436
'[12:49:04.196 25/01/1995]',-0.057,-0.033,-0.030,48.342,-0.373,-0.436
'[12:49:04.198 25/01/1995]',-0.072,-0.068,-0.030,48.342,-0.373,-0.436
'[12:49:04.200 25/01/1995]',-0.087,-0.068,-0.030,49.824,-0.321,-0.432
'[12:49:04.202 25/01/1995]',-0.087,-0.068,-0.030,49.824,-0.321,-0.432
'[12:49:04.204 25/01/1995]',-0.102,-0.068,-0.030,49.824,-0.321,-0.432
'[12:49:04.206 25/01/1995]',-0.102,-0.104,-0.030,49.824,-0.321,-0.432
'[12:49:04.208 25/01/1995]',-0.102,-0.104,-0.030,50.955,-0.255,-0.429
'[12:49:04.210 25/01/1995]',-0.102,-0.104,-0.030,50.955,-0.255,-0.429
'[12:49:04.212 25/01/1995]',-0.102,-0.068,-0.030,50.955,-0.255,-0.429
'[12:49:04.214 25/01/1995]',-0.102,-0.068,0.003,50.955,-0.255,-0.429
'[12:49:04.216 25/01/1995]',-0.087,-0.068,0.003,51.709,-0.178,-0.426
'[12:49:04.218 25/01/1995]',-0.087,-0.068,0.003,51.709,-0.178,-0.426
'[12:49:04.220 25/01/1995]',-0.072,-0.068,0.003,51.709,-0.178,-0.426
'[12:49:04.222 25/01/1995]',-0.072,-0.068,0.003,51.709,-0.178,-0.426
'[12:49:04.224 25/01/1995]',-0.072,-0.068,0.003,52.010,-0.095,-0.423
'[12:49:04.226 25/01/1995]',-0.072,-0.068,0.003,52.010,-0.095,-0.423
'[12:49:04.228 25/01/1995]',-0.072,-0.068,0.003,52.010,-0.095,-0.423
'[12:49:04.230 25/01/1995]',-0.072,-0.068,0.003,52.010,-0.095,-0.423
'[12:49:04.232 25/01/1995]',-0.072,-0.068,0.003,52.010,-0.007,-0.421
'[12:49:04.234 25/01/1995]',-0.072,-0.068,0.003,52.010,-0.007,-0.421
'[12:49:04.236 25/01/1995]',-0.057,-0.033,0.003,52.010,-0.007,-0.421
'[12:49:04.238 25/01/1995]',-0.057,-0.033,0.003,52.010,-0.007,-0.421
'[12:49:04.240 25/01/1995]',-0.057,-0.033,0.003,51.759,0.081,-0.418
'[12:49:04.242 25/01/1995]',-0.057,-0.033,0.003,51.759,0.081,-0.418
'[12:49:04.244 25/01/1995]',-0.057,-0.033,0.003,51.759,0.081,-0.418
'[12:49:04.246 25/01/1995]',-0.057,-0.033,0.003,51.759,0.081,-0.418
'[12:49:04.248 25/01/1995]',-0.057,-0.033,0.003,51.357,0.164,-0.415
'[12:49:04.250 25/01/1995]',-0.057,-0.033,0.003,51.357,0.164,-0.415
'[12:49:04.252 25/01/1995]',-0.043,-0.033,0.003,51.357,0.164,-0.415
'[12:49:04.254 25/01/1995]',-0.028,-0.033,0.003,51.357,0.164,-0.415
'[12:49:04.256 25/01/1995]',-0.028,-0.033,0.003,50.704,0.240,-0.412
'[12:49:04.258 25/01/1995]',-0.028,-0.033,0.003,50.704,0.240,-0.412
'[12:49:04.260 25/01/1995]',-0.028,-0.033,0.003,50.704,0.240,-0.412
'[12:49:04.262 25/01/1995]',-0.028,-0.033,0.003,50.704,0.240,-0.412
'[12:49:04.264 25/01/1995]',-0.028,0.003,0.003,49.874,0.305,-0.412
'[12:49:04.266 25/01/1995]',-0.028,0.003,0.003,49.874,0.305,-0.412
'[12:49:04.268 25/01/1995]',-0.028,0.003,0.003,49.874,0.305,-0.412
'[12:49:04.270 25/01/1995]',-0.013,0.003,0.003,49.874,0.305,-0.412
'[12:49:04.272 25/01/1995]',-0.013,0.003,0.003,48.869,0.359,-0.412
'[12:49:04.274 25/01/1995]',0.001,0.003,0.035,48.869,0.359,-0.412
'[12:49:04.276 25/01/1995]',0.015,0.003,0.035,48.869,0.359,-0.412
'[12:49:04.278 25/01/1995]',0.030,0.037,0.068,48.869,0.359,-0.412
'[12:49:04.280 25/01/1995]',0.045,0.037,0.068,47.764,0.402,-0.414
'[12:49:04.282 25/01/1995]',0.059,0.037,0.102,47.764,0.402,-0.414
'[12:49:04.284 25/01/1995]',0.045,0.037,0.102,47.764,0.402,-0.414
'[12:49:04.286 25/01/1995]',0.045,0.037,0.102,47.764,0.402,-0.414
'[12:49:04.288 25/01/1995]',0.030,0.037,0.102,46.407,0.432,-0.417
'[12:49:04.290 25/01/1995]',0.030,0.037,0.102,46.407,0.432,-0.417
'[12:49:04.292 25/01/1995]',0.015,0.003,0.102,46.407,0.432,-0.417
'[12:49:04.294 25/01/1995]',0.015,0.003,0.102,46.407,0.432,-0.417
'[12:49:04.296 25/01/1995]',0.015,0.003,0.068,44.698,0.452,-0.421
'[12:49:04.298 25/01/1995]',0.015,0.003,0.068,44.698,0.452,-0.421
'[12:49:04.300 25/01/1995]',0.001,0.003,0.068,44.698,0.452,-0.421
'[12:49:04.302 25/01/1995]',0.001,0.003,0.068,44.698,0.452,-0.421
'[12:49:04.304 25/01/1995]',0.001,0.003,0.035,42.688,0.463,-0.425
'[12:49:04.306 25/01/1995]',0.001,0.003,0.035,42.688,0.463,-0.425
'[12:49:04.308 25/01/1995]',0.001,0.003,0.035,42.688,0.463,-0.425
'[12:49:04.310 25/01/1995]',0.001,0.003,0.035,42.688,0.463,-0.425
'[12:49:04.312 25/01/1995]',-0.013,0.003,0.035,40.628,0.466,-0.429
'[12:49:04.314 25/01/1995]',-0.013,0.003,0.003,40.628,0.466,-0.429
'[12:49:04.316 25/01/1995]',-0.013,0.003,0.003,40.628,0.466,-0.429
'[12:49:04.318 25/01/1995]',-0.028,0.003,0.003,40.628,0.466,-0.429
'[12:49:04.320 25/01/1995]',-0.028,-0.033,0.003,38.819,0.460,-0.434
'[12:49:04.322 25/01/1995]',-0.028,-0.033,0.003,38.819,0.460,-0.434
'[12:49:04.324 25/01/1995]',-0.043,-0.033,0.003,38.819,0.460,-0.434
'[12:49:04.326 25/01/1995]',-0.057,-0.033,0.003,38.819,0.460,-0.434
'[12:49:04.328 25/01/1995]',-0.057,-0.033,0.003,37.337,0.448,-0.439
'[12:49:04.330 25/01/1995]',-0.057,-0.033,0.003,37.337,0.448,-0.439
'[12:49:04.332 25/01/1995]',-0.057,-0.068,0.003,37.337,0.448,-0.439
'[12:49:04.334 25/01/1995]',-0.057,-0.068,-0.030,37.337,0.448,-0.439
'[12:49:04.336 25/01/1995]',-0.072,-0.068,0.003,35.930,0.429,-0.444
'[12:49:04.338 25/01/1995]',-0.057,-0.068,-0.030,35.930,0.429,-0.444
'[12:49:04.340 25/01/1995]',-0.072,-0.068,-0.030,35.930,0.429,-0.444
'[12:49:04.342 25/01/1995]',-0.072,-0.068,-0.030,35.930,0.429,-0.444
'[12:49:04.344 25/01/1995]',-0.072,-0.068,0.003,34.347,0.405,-0.448
'[12:49:04.346 25/01/1995]',-0.072,-0.068,-0.030,34.347,0.405,-0.448
'[12:49:04.348 25/01/1995]',-0.072,-0.068,-0.030,34.347,0.405,-0.448
'[12:49:04.350 25/01/1995]',-0.072,-0.068,0.003,34.347,0.405,-0.448
'[12:49:04.352 25/01/1995]',-0.072,-0.068,0.003,32.563,0.375,-0.453
'[12:49:04.354 25/01/1995]',-0.072,-0.068,-0.030,32.563,0.375,-0.453
'[12:49:04.356 25/01/1995]',-0.072,-0.068,-0.030,32.563,0.375,-0.453
'[12:49:04.358 25/01/1995]',-0.072,-0.068,-0.030,32.563,0.375,-0.453
'[12:49:04.360 25/01/1995]',-0.087,-0.068,-0.030,31.030,0.342,-0.457
'[12:49:04.362 25/01/1995]',-0.087,-0.068,-0.030,31.030,0.342,-0.457
'[12:49:04.364 25/01/1995]',-0.087,-0.068,-0.030,31.030,0.342,-0.457
'[12:49:04.366 25/01/1995]',-0.102,-0.068,0.003,31.030,0.342,-0.457
'[12:49:04.368 25/01/1995]',-0.087,-0.068,0.003,30.151,0.302,-0.460
'[12:49:04.370 25/01/1995]',-0.072,-0.068,0.003,30.151,0.302,-0.460
'[12:49:04.372 25/01/1995]',-0.072,-0.068,0.003,30.151,0.302,-0.460
'[12:49:04.374 25/01/1995]',-0.072,-0.068,0.003,30.151,0.302,-0.460
'[12:49:04.376 25/01/1995]',-0.057,-0.068,0.003,29.925,0.260,-0.463
'[12:49:04.378 25/01/1995]',-0.057,-0.068,0.003,29.925,0.260,-0.463
'[12:49:04.380 25/01/1995]',-0.057,-0.033,0.003,29.925,0.260,-0.463
'[12:49:04.382 25/01/1995]',-0.072,-0.068,0.003,29.925,0.260,-0.463
'[12:49:04.384 25/01/1995]',-0.072,-0.068,0.003,30.025,0.215,-0.466
'[12:49:04.386 25/01/1995]',-0.072,-0.068,0.003,30.025,0.215,-0.466
'[12:49:04.388 25/01/1995]',-0.072,-0.068,0.003,30.025,0.215,-0.466
'[12:49:04.390 25/01/1995]',-0.072,-0.068,0.003,30.025,0.215,-0.466
'[12:49:04.392 25/01/1995]',-0.072,-0.068,0.003,30.101,0.169,-0.468
'[12:49:04.394 25/01/1995]',-0.057,-0.068,0.003,30.101,0.169,-0.468
'[12:49:04.396 25/01/1995]',-0.057,-0.033,0.003,30.101,0.169,-0.468
'[12:49:04.398 25/01/1995]',-0.057,-0.033,0.003,30.101,0.169,-0.468
'[12:49:04.400 25/01/1995]',-0.057,-0.033,0.003,29.925,0.122,-0.469
'[12:49:04.402 25/01/1995]',-0.057,-0.033,0.003,29.925,0.122,-0.469
'[12:49:04.404 25/01/1995]',-0.057,-0.033,0.003,29.925,0.122,-0.469
'[12:49:04.406 25/01/1995]',-0.043,-0.033,0.003,29.925,0.122,-0.469
'[12:49:04.408 25/01/1995]',-0.043,-0.033,0.003,29.623,0.073,-0.470
'[12:49:04.410 25/01/1995]',-0.057,-0.033,0.003,29.623,0.073,-0.470
'[12:49:04.412 25/01/1995]',-0.057,-0.033,0.003,29.623,0.073,-0.470
'[12:49:04.414 25/01/1995]',-0.057,-0.033,0.003,29.623,0.073,-0.470
'[12:49:04.416 25/01/1995]',-0.057,-0.068,0.003,29.397,0.028,-0.471
'[12:49:04.418 25/01/1995]',-0.057,-0.068,0.003,29.397,0.028,-0.471
'[12:49:04.420 25/01/1995]',-0.057,-0.068,0.003,29.397,0.028,-0.471
'[12:49:04.422 25/01/1995]',-0.072,-0.068,0.003,29.397,0.028,-0.471
'[12:49:04.424 25/01/1995]',-0.057,-0.033,0.003,29.397,-0.018,-0.472
'[12:49:04.426 25/01/1995]',-0.057,-0.033,0.003,29.397,-0.018,-0.472
'[12:49:04.428 25/01/1995]',-0.057,-0.033,0.003,29.397,-0.018,-0.472
'[12:49:04.430 25/01/1995]',-0.028,-0.033,0.035,29.397,-0.018,-0.472
'[12:49:04.432 25/01/1995]',-0.013,0.003,0.035,29.573,-0.059,-0.474
'[12:49:04.434 25/01/1995]',-0.013,0.003,0.035,29.573,-0.059,-0.474
'[12:49:04.436 25/01/1995]',-0.013,0.003,0.035,29.573,-0.059,-0.474
'[12:49:04.438 25/01/1995]',-0.013,0.003,0.068,29.573,-0.059,-0.474
'[12:49:04.440 25/01/1995]',0.001,0.003,0.068,29.673,-0.100,-0.476
'[12:49:04.442 25/01/1995]',0.001,0.003,0.068,29.673,-0.100,-0.476
'[12:49:04.444 25/01/1995]',0.001,0.003,0.068,29.673,-0.100,-0.476
'[12:49:04.446 25/01/1995]',-0.013,0.003,0.068,29.673,-0.100,-0.476
'[12:49:04.448 25/01/1995]',0.001,0.003,0.068,29.749,-0.137,-0.478
'[12:49:04.450 25/01/1995]',0.001,0.003,0.068,29.749,-0.137,-0.478
'[12:49:04.452 25/01/1995]',0.001,0.003,0.035,29.749,-0.137,-0.478
'[12:49:04.454 25/01/1995]',0.001,0.003,0.035,29.749,-0.137,-0.478
'[12:49:04.456 25/01/1995]',-0.013,0.003,0.035,29.673,-0.170,-0.481
'[12:49:04.458 25/01/1995]',-0.013,0.003,0.035,29.673,-0.170,-0.481
'[12:49:04.460 25/01/1995]',-0.013,0.003,0.035,29.673,-0.170,-0.481
'[12:49:04.462 25/01/1995]',-0.028,0.003,0.035,29.673,-0.170,-0.481
'[12:49:04.464 25/01/1995]',-0.028,-0.033,0.003,29.673,-0.200,-0.483
'[12:49:04.466 25/01/1995]',-0.043,-0.033,0.003,29.673,-0.200,-0.483
'[12:49:04.468 25/01/1995]',-0.057,-0.033,0.003,29.673,-0.200,-0.483
'[12:49:04.470 25/01/1995]',-0.043,-0.033,0.003,29.673,-0.200,-0.483
'[12:49:04.472 25/01/1995]',-0.043,-0.033,0.003,29.749,-0.225,-0.486
'[12:49:04.474 25/01/1995]',-0.057,-0.033,0.003,29.749,-0.225,-0.486
'[12:49:04.476 25/01/1995]',-0.057,-0.068,0.003,29.749,-0.225,-0.486
'[12:49:04.478 25/01/1995]',-0.057,-0.068,0.003,29.749,-0.225,-0.486
'[12:49:04.480 25/01/1995]',-0.057,-0.068,0.003,29.849,-0.247,-0.490
'[12:49:04.482 25/01/1995]',-0.057,-0.068,0.003,29.849,-0.247,-0.490
'[12:49:04.484 25/01/1995]',-0.057,-0.068,0.035,29.849,-0.247,-0.490
'[12:49:04.486 25/01/1995]',-0.057,-0.033,0.035,29.849,-0.247,-0.490
'[12:49:04.488 25/01/1995]',-0.043,-0.033,0.068,29.849,-0.267,-0.494
'[12:49:04.490 25/01/1995]',-0.028,-0.033,0.068,29.849,-0.267,-0.494
'[12:49:04.492 25/01/1995]',-0.013,-0.033,0.068,29.849,-0.267,-0.494
'[12:49:04.494 25/01/1995]',-0.013,0.003,0.035,29.849,-0.267,-0.494
'[12:49:04.496 25/01/1995]',0.001,0.003,0.035,29.749,-0.282,-0.498
'[12:49:04.498 25/01/1995]',0.001,0.003,0.003,29.749,-0.282,-0.498
'[12:49:04.500 25/01/1995]',0.030,0.037,0.003,29.749,-0.282,-0.498
'[12:49:04.502 25/01/1995]',0.074,0.073,0.003,29.749,-0.282,-0.498
'[12:49:04.504 25/01/1995]',0.162,0.145,0.003,29.397,-0.297,-0.503
'[12:49:04.506 25/01/1995]',0.221,0.252,0.003,29.397,-0.297,-0.503
'[12:49:04.508 25/01/1995]',0.309,0.360,0.003,29.397,-0.297,-0.503
'[12:49:04.510 25/01/1995]',0.426,0.467,0.003,29.397,-0.297,-0.503
'[12:49:04.512 25/01/1995]',0.470,0.503,0.003,28.970,-0.308,-0.508
'[12:49:04.514 25/01/1995]',0.455,0.503,-0.030,28.970,-0.308,-0.508
'[12:49:04.516 25/01/1995]',0.412,0.432,-0.064,28.970,-0.308,-0.508
'[12:49:04.518 25/01/1995]',0.324,0.324,-0.064,28.970,-0.308,-0.508
'[12:49:04.520 25/01/1995]',0.162,0.181,-0.097,28.568,-0.319,-0.512
'[12:49:04.522 25/01/1995]',0.030,0.037,-0.131,28.568,-0.319,-0.512
'[12:49:04.524 25/01/1995]',-0.072,-0.068,-0.164,28.568,-0.319,-0.512
'[12:49:04.526 25/01/1995]',-0.205,-0.212,-0.164,28.568,-0.319,-0.512
'[12:49:04.528 25/01/1995]',-0.292,-0.319,-0.198,28.216,-0.328,-0.515
'[12:49:04.530 25/01/1995]',-0.366,-0.391,-0.198,28.216,-0.328,-0.515
'[12:49:04.532 25/01/1995]',-0.439,-0.463,-0.198,28.216,-0.328,-0.515
'[12:49:04.534 25/01/1995]',-0.497,-0.533,-0.198,28.216,-0.328,-0.515
'[12:49:04.536 25/01/1995]',-0.512,-0.533,-0.231,27.864,-0.335,-0.518
'[12:49:04.538 25/01/1995]',-0.512,-0.533,-0.231,27.864,-0.335,-0.518
'[12:49:04.540 25/01/1995]',-0.512,-0.533,-0.231,27.864,-0.335,-0.518
'[12:49:04.542 25/01/1995]',-0.497,-0.533,-0.231,27.864,-0.335,-0.518
'[12:49:04.544 25/01/1995]',-0.453,-0.463,-0.231,27.563,-0.340,-0.521
'[12:49:04.546 25/01/1995]',-0.395,-0.391,-0.198,27.563,-0.340,-0.521
'[12:49:04.548 25/01/1995]',-0.336,-0.355,-0.164,27.563,-0.340,-0.521
'[12:49:04.550 25/01/1995]',-0.277,-0.283,-0.131,27.563,-0.340,-0.521
'[12:49:04.552 25/01/1995]',-0.219,-0.212,-0.097,27.161,-0.346,-0.523
'[12:49:04.554 25/01/1995]',-0.160,-0.176,-0.064,27.161,-0.346,-0.523
'[12:49:04.556 25/01/1995]',-0.146,-0.140,-0.030,27.161,-0.346,-0.523
'[12:49:04.558 25/01/1995]',-0.116,-0.104,-0.030,27.161,-0.346,-0.523
'[12:49:04.560 25/01/1995]',-0.102,-0.104,0.003,26.683,-0.349,-0.526
'[12:49:04.562 25/01/1995]',-0.102,-0.104,0.003,26.683,-0.349,-0.526
'[12:49:04.564 25/01/1995]',-0.102,-0.104,0.003,26.683,-0.349,-0.526
'[12:49:04.566 25/01/1995]',-0.102,-0.104,0.003,26.683,-0.349,-0.526
'[12:49:04.568 25/01/1995]',-0.087,-0.068,0.003,26.256,-0.353,-0.528
'[12:49:04.570 25/01/1995]',-0.087,-0.104,0.003,26.256,-0.353,-0.528
'[12:49:04.572 25/01/1995]',-0.087,-0.068,0.003,26.256,-0.353,-0.528
'[12:49:04.574 25/01/1995]',-0.072,-0.068,0.003,26.256,-0.353,-0.528
'[12:49:04.576 25/01/1995]',-0.072,-0.068,0.003,25.905,-0.357,-0.530
'[12:49:04.578 25/01/1995]',-0.072,-0.068,0.003,25.905,-0.357,-0.530
'[12:49:04.580 25/01/1995]',-0.072,-0.068,0.003,25.905,-0.357,-0.530
'[12:49:04.582 25/01/1995]',-0.072,-0.068,0.003,25.905,-0.357,-0.530
'[12:49:04.584 25/01/1995]',-0.072,-0.068,0.003,25.678,-0.361,-0.531
'[12:49:04.586 25/01/1995]',-0.072,-0.068,0.003,25.678,-0.361,-0.531
'[12:49:04.588 25/01/1995]',-0.057,-0.068,0.003,25.678,-0.361,-0.531
'[12:49:04.590 25/01/1995]',-0.057,-0.068,0.003,25.678,-0.361,-0.531
'[12:49:04.592 25/01/1995]',-0.057,-0.068,0.003,25.553,-0.364,-0.532
'[12:49:04.594 25/01/1995]',-0.057,-0.068,0.003,25.553,-0.364,-0.532
'[12:49:04.596 25/01/1995]',-0.057,-0.068,0.003,25.553,-0.364,-0.532
'[12:49:04.598 25/01/1995]',-0.057,-0.033,0.035,25.553,-0.364,-0.532
'[12:49:04.600 25/01/1995]',-0.028,-0.033,0.035,25.503,-0.367,-0.533
'[12:49:04.602 25/01/1995]',-0.028,-0.033,0.035,25.503,-0.367,-0.533
'[12:49:04.604 25/01/1995]',-0.013,0.003,0.068,25.503,-0.367,-0.533
'[12:49:04.606 25/01/1995]',0.001,0.003,0.068,25.503,-0.367,-0.533
'[12:49:04.608 25/01/1995]',0.015,0.003,0.068,25.452,-0.372,-0.533
'[12:49:04.610 25/01/1995]',0.030,0.003,0.102,25.452,-0.372,-0.533
'[12:49:04.612 25/01/1995]',0.030,0.003,0.102,25.452,-0.372,-0.533
'[12:49:04.614 25/01/1995]',0.030,0.003,0.102,25.452,-0.372,-0.533
'[12:49:04.616 25/01/1995]',0.030,0.003,0.102,25.452,-0.378,-0.534
'[12:49:04.618 25/01/1995]',0.015,0.003,0.102,25.452,-0.378,-0.534
'[12:49:04.620 25/01/1995]',0.015,0.003,0.102,25.452,-0.378,-0.534
'[12:49:04.622 25/01/1995]',0.015,0.003,0.102,25.452,-0.378,-0.534
'[12:49:04.624 25/01/1995]',0.001,0.003,0.102,25.729,-0.382,-0.536
'[12:49:04.626 25/01/1995]',0.001,0.003,0.102,25.729,-0.382,-0.536
'[12:49:04.628 25/01/1995]',0.001,0.003,0.068,25.729,-0.382,-0.536
'[12:49:04.630 25/01/1995]',0.001,0.003,0.068,25.729,-0.382,-0.536
'[12:49:04.632 25/01/1995]',0.001,0.003,0.068,26.558,-0.387,-0.538
'[12:49:04.634 25/01/1995]',-0.013,0.003,0.035,26.558,-0.387,-0.538
'[12:49:04.636 25/01/1995]',-0.013,0.003,0.035,26.558,-0.387,-0.538
'[12:49:04.638 25/01/1995]',-0.013,0.003,0.003,26.558,-0.387,-0.538
'[12:49:04.640 25/01/1995]',-0.013,0.003,0.003,27.864,-0.409,-0.540
'[12:49:04.642 25/01/1995]',-0.013,0.003,0.003,27.864,-0.409,-0.540
'[12:49:04.644 25/01/1995]',-0.013,0.003,0.003,27.864,-0.409,-0.540
'[12:49:04.646 25/01/1995]',-0.013,0.003,0.003,27.864,-0.409,-0.540
'[12:49:04.648 25/01/1995]',-0.013,0.003,0.003,29.397,-0.416,-0.543
'[12:49:04.650 25/01/1995]',-0.013,0.003,0.003,29.397,-0.416,-0.543
'[12:49:04.652 25/01/1995]',-0.013,0.003,0.003,29.397,-0.416,-0.543
'[12:49:04.654 25/01/1995]',-0.013,0.003,0.003,29.397,-0.416,-0.543
'[12:49:04.656 25/01/1995]',-0.013,0.003,0.003,30.754,-0.424,-0.547
'[12:49:04.658 25/01/1995]',-0.013,0.003,0.003,30.754,-0.424,-0.547
'[12:49:04.660 25/01/1995]',-0.013,0.003,0.003,30.754,-0.424,-0.547
'[12:49:04.662 25/01/1995]',-0.013,0.003,0.003,30.754,-0.424,-0.547
'[12:49:04.664 25/01/1995]',0.001,0.003,0.003,31.281,-0.429,-0.551
'[12:49:04.666 25/01/1995]',0.001,0.003,0.003,31.281,-0.429,-0.551
'[12:49:04.668 25/01/1995]',0.001,0.003,0.003,31.281,-0.429,-0.551
'[12:49:04.670 25/01/1995]',0.015,0.003,0.003,31.281,-0.429,-0.551
'[12:49:04.672 25/01/1995]',0.015,0.003,0.003,30.503,-0.436,-0.555
'[12:49:04.674 25/01/1995]',0.015,0.003,0.003,30.503,-0.436,-0.555
'[12:49:04.676 25/01/1995]',0.015,0.003,0.003,30.503,-0.436,-0.555
'[12:49:04.678 25/01/1995]',0.030,0.037,0.003,30.503,-0.436,-0.555
'[12:49:04.680 25/01/1995]',0.030,0.037,0.003,28.342,-0.443,-0.558
'[12:49:04.682 25/01/1995]',0.045,0.037,0.003,28.342,-0.443,-0.558
'[12:49:04.684 25/01/1995]',0.059,0.073,0.003,28.342,-0.443,-0.558
'[12:49:04.686 25/01/1995]',0.074,0.073,0.003,28.342,-0.443,-0.558
'[12:49:04.688 25/01/1995]',0.074,0.073,0.003,25.678,-0.449,-0.560
'[12:49:04.690 25/01/1995]',0.089,0.073,0.003,25.678,-0.449,-0.560
'[12:49:04.692 25/01/1995]',0.104,0.073,0.003,25.678,-0.449,-0.560
'[12:49:04.694 25/01/1995]',0.118,0.109,0.003,25.678,-0.449,-0.560
'[12:49:04.696 25/01/1995]',0.133,0.109,0.003,23.668,-0.455,-0.562
'[12:49:04.698 25/01/1995]',0.148,0.145,0.003,23.668,-0.455,-0.562
'[12:49:04.700 25/01/1995]',0.162,0.145,0.003,23.668,-0.455,-0.562
'[12:49:04.702 25/01/1995]',0.162,0.181,0.003,23.668,-0.455,-0.562
'[12:49:04.704 25/01/1995]',0.177,0.181,0.003,23.141,-0.461,-0.563
'[12:49:04.706 25/01/1995]',0.192,0.181,0.003,23.141,-0.461,-0.563
'[12:49:04.708 25/01/1995]',0.192,0.181,0.003,23.141,-0.461,-0.563
'[12:49:04.710 25/01/1995]',0.207,0.217,0.003,23.141,-0.461,-0.563
'[12:49:04.712 25/01/1995]',0.207,0.217,0.003,24.095,-0.468,-0.564
'[12:49:04.714 25/01/1995]',0.207,0.217,0.003,24.095,-0.468,-0.564
'[12:49:04.716 25/01/1995]',0.207,0.217,0.003,24.095,-0.468,-0.564
'[12:49:04.718 25/01/1995]',0.207,0.217,0.003,24.095,-0.468,-0.564
'[12:49:04.720 25/01/1995]',0.221,0.217,0.003,25.628,-0.474,-0.563
'[12:49:04.722 25/01/1995]',0.221,0.217,0.003,25.628,-0.474,-0.563
'[12:49:04.724 25/01/1995]',0.221,0.217,0.003,25.628,-0.474,-0.563
'[12:49:04.726 25/01/1995]',0.235,0.217,0.003,25.628,-0.474,-0.563
'[12:49:04.728 25/01/1995]',0.235,0.252,0.003,27.035,-0.479,-0.562
'[12:49:04.730 25/01/1995]',0.250,0.252,0.003,27.035,-0.479,-0.562
'[12:49:04.732 25/01/1995]',0.250,0.252,0.003,27.035,-0.479,-0.562
'[12:49:04.734 25/01/1995]',0.250,0.252,0.035,27.035,-0.479,-0.562
'[12:49:04.736 25/01/1995]',0.250,0.252,0.035,28.216,-0.485,-0.560
'[12:49:04.738 25/01/1995]',0.250,0.252,0.035,28.216,-0.485,-0.560
'[12:49:04.740 25/01/1995]',0.235,0.252,0.035,28.216,-0.485,-0.560
'[12:49:04.742 25/01/1995]',0.235,0.252,0.003,28.216,-0.485,-0.560
'[12:49:04.744 25/01/1995]',0.235,0.252,0.003,29.673,-0.488,-0.559
'[12:49:04.746 25/01/1995]',0.221,0.252,0.035,29.673,-0.488,-0.559
'[12:49:04.748 25/01/1995]',0.221,0.217,0.035,29.673,-0.488,-0.559
'[12:49:04.750 25/01/1995]',0.221,0.217,0.035,29.673,-0.488,-0.559
'[12:49:04.752 25/01/1995]',0.207,0.217,0.035,31.558,-0.490,-0.557
'[12:49:04.754 25/01/1995]',0.207,0.217,0.035,31.558,-0.490,-0.557
'[12:49:04.756 25/01/1995]',0.207,0.217,0.035,31.558,-0.490,-0.557
'[12:49:04.758 25/01/1995]',0.192,0.217,0.035,31.558,-0.490,-0.557
'[12:49:04.760 25/01/1995]',0.192,0.181,0.035,33.744,-0.488,-0.554
'[12:49:04.762 25/01/1995]',0.162,0.181,0.035,33.744,-0.488,-0.554
'[12:49:04.764 25/01/1995]',0.162,0.181,0.035,33.744,-0.488,-0.554
'[12:49:04.766 25/01/1995]',0.148,0.145,0.035,33.744,-0.488,-0.554
'[12:49:04.768 25/01/1995]',0.133,0.145,0.035,35.804,-0.479,-0.552
'[12:49:04.770 25/01/1995]',0.118,0.109,0.035,35.804,-0.479,-0.552
'[12:49:04.772 25/01/1995]',0.118,0.109,0.068,35.804,-0.479,-0.552
'[12:49:04.774 25/01/1995]',0.104,0.109,0.068,35.804,-0.479,-0.552
'[12:49:04.776 25/01/1995]',0.104,0.109,0.068,37.462,-0.463,-0.550
'[12:49:04.778 25/01/1995]',0.104,0.109,0.068,37.462,-0.463,-0.550
'[12:49:04.780 25/01/1995]',0.104,0.109,0.068,37.462,-0.463,-0.550
'[12:49:04.782 25/01/1995]',0.104,0.109,0.068,37.462,-0.463,-0.550
'[12:49:04.784 25/01/1995]',0.089,0.073,0.068,38.869,-0.435,-0.548
'[12:49:04.786 25/01/1995]',0.074,0.073,0.068,38.869,-0.435,-0.548
'[12:49:04.788 25/01/1995]',0.074,0.073,0.068,38.869,-0.435,-0.548
'[12:49:04.790 25/01/1995]',0.059,0.073,0.068,38.869,-0.435,-0.548
'[12:49:04.792 25/01/1995]',0.059,0.037,0.068,40.101,-0.394,-0.546
'[12:49:04.794 25/01/1995]',0.045,0.037,0.035,40.101,-0.394,-0.546
'[12:49:04.796 25/01/1995]',0.030,0.037,0.035,40.101,-0.394,-0.546
'[12:49:04.798 25/01/1995]',0.030,0.037,0.035,40.101,-0.394,-0.546
'[12:49:04.800 25/01/1995]',0.030,0.037,0.035,41.332,-0.339,-0.544
'[12:49:04.802 25/01/1995]',0.015,0.037,0.035,41.332,-0.339,-0.544
'[12:49:04.804 25/01/1995]',0.015,0.003,0.035,41.332,-0.339,-0.544
'[12:49:04.806 25/01/1995]',0.001,0.003,0.035,41.332,-0.339,-0.544
'[12:49:04.808 25/01/1995]',0.001,0.003,0.003,42.412,-0.272,-0.543
'[12:49:04.810 25/01/1995]',0.001,0.003,0.003,42.412,-0.272,-0.543
'[12:49:04.812 25/01/1995]',-0.013,0.003,0.003,42.412,-0.272,-0.543
'[12:49:04.814 25/01/1995]',-0.013,0.003,0.003,42.412,-0.272,-0.543
'[12:49:04.816 25/01/1995]',-0.013,0.003,0.003,43.116,-0.190,-0.542
'[12:49:04.818 25/01/1995]',-0.028,0.003,0.003,43.116,-0.190,-0.542
'[12:49:04.820 25/01/1995]',-0.028,-0.033,0.003,43.116,-0.190,-0.542
'[12:49:04.822 25/01/1995]',-0.028,0.003,0.003,43.116,-0.190,-0.542
'[12:49:04.824 25/01/1995]',-0.013,0.003,0.003,43.417,-0.101,-0.541
'[12:49:04.826 25/01/1995]',-0.028,-0.033,0.003,43.417,-0.101,-0.541
'[12:49:04.828 25/01/1995]',-0.028,-0.033,0.003,43.417,-0.101,-0.541
'[12:49:04.830 25/01/1995]',-0.028,-0.033,0.003,43.417,-0.101,-0.541
'[12:49:04.832 25/01/1995]',-0.028,-0.033,0.003,43.417,-0.007,-0.540
'[12:49:04.834 25/01/1995]',-0.043,-0.033,0.003,43.417,-0.007,-0.540
'[12:49:04.836 25/01/1995]',-0.043,-0.033,0.003,43.417,-0.007,-0.540
'[12:49:04.838 25/01/1995]',-0.028,-0.033,0.003,43.417,-0.007,-0.540
'[12:49:04.840 25/01/1995]',-0.028,-0.033,0.003,43.291,0.087,-0.539
'[12:49:04.842 25/01/1995]',-0.013,0.003,0.003,43.291,0.087,-0.539
'[12:49:04.844 25/01/1995]',-0.013,0.003,0.003,43.291,0.087,-0.539
'[12:49:04.846 25/01/1995]',-0.013,0.003,0.003,43.291,0.087,-0.539
'[12:49:04.848 25/01/1995]',-0.013,0.003,0.003,42.940,0.178,-0.539
'[12:49:04.850 25/01/1995]',-0.013,0.003,0.003,42.940,0.178,-0.539
'[12:49:04.852 25/01/1995]',-0.013,0.003,0.003,42.940,0.178,-0.539
'[12:49:04.854 25/01/1995]',-0.028,-0.033,0.003,42.940,0.178,-0.539
'[12:49:04.856 25/01/1995]',-0.028,0.003,0.003,42.337,0.263,-0.540
'[12:49:04.858 25/01/1995]',-0.028,0.003,0.003,42.337,0.263,-0.540
'[12:49:04.860 25/01/1995]',-0.028,0.003,0.003,42.337,0.263,-0.540
'[12:49:04.862 25/01/1995]',-0.013,0.003,0.003,42.337,0.263,-0.540
'[12:49:04.864 25/01/1995]',-0.013,0.003,0.003,41.332,0.336,-0.541
'[12:49:04.866 25/01/1995]',-0.013,0.003,0.003,41.332,0.336,-0.541
'[12:49:04.868 25/01/1995]',-0.013,0.003,0.003,41.332,0.336,-0.541
'[12:49:04.870 25/01/1995]',0.001,0.003,0.003,41.332,0.336,-0.541
'[12:49:04.872 25/01/1995]',0.001,0.003,0.003,40.101,0.397,-0.542
'[12:49:04.874 25/01/1995]',-0.013,0.003,0.003,40.101,0.397,-0.542
'[12:49:04.876 25/01/1995]',0.001,0.003,0.003,40.101,0.397,-0.542
'[12:49:04.878 25/01/1995]',0.001,0.003,0.003,40.101,0.397,-0.542
'[12:49:04.880 25/01/1995]',0.001,0.003,0.003,38.744,0.446,-0.543
'[12:49:04.882 25/01/1995]',0.001,0.003,0.003,38.744,0.446,-0.543
'[12:49:04.884 25/01/1995]',0.001,0.003,0.003,38.744,0.446,-0.543
'[12:49:04.886 25/01/1995]',-0.013,0.003,0.003,38.744,0.446,-0.543
'[12:49:04.888 25/01/1995]',-0.013,0.003,0.003,37.462,0.481,-0.545
'[12:49:04.890 25/01/1995]',-0.013,0.003,0.003,37.462,0.481,-0.545
'[12:49:04.892 25/01/1995]',0.001,0.003,0.003,37.462,0.481,-0.545
'[12:49:04.894 25/01/1995]',0.001,0.003,0.003,37.462,0.481,-0.545
'[12:49:04.896 25/01/1995]',0.001,0.003,0.003,36.156,0.507,-0.547
'[12:49:04.898 25/01/1995]',0.001,0.003,0.003,36.156,0.507,-0.547
'[12:49:04.900 25/01/1995]',0.001,0.003,0.003,36.156,0.507,-0.547
'[12:49:04.902 25/01/1995]',0.001,0.003,0.003,36.156,0.507,-0.547
'[12:49:04.904 25/01/1995]',0.001,0.003,0.003,34.925,0.520,-0.548
'[12:49:04.906 25/01/1995]',-0.013,0.003,0.003,34.925,0.520,-0.548
'[12:49:04.908 25/01/1995]',-0.013,0.003,0.003,34.925,0.520,-0.548
'[12:49:04.910 25/01/1995]',-0.013,0.003,0.003,34.925,0.520,-0.548
'[12:49:04.912 25/01/1995]',-0.013,0.003,0.003,33.618,0.523,-0.550
'[12:49:04.914 25/01/1995]',-0.013,0.003,0.003,33.618,0.523,-0.550
'[12:49:04.916 25/01/1995]',-0.013,0.003,0.003,33.618,0.523,-0.550
'[12:49:04.918 25/01/1995]',-0.028,-0.033,0.003,33.618,0.523,-0.550
'[12:49:04.920 25/01/1995]',-0.028,-0.033,0.003,32.387,0.519,-0.551
'[12:49:04.922 25/01/1995]',-0.043,-0.033,0.003,32.387,0.519,-0.551
'[12:49:04.924 25/01/1995]',-0.043,-0.033,0.003,32.387,0.519,-0.551
'[12:49:04.926 25/01/1995]',-0.043,-0.033,0.003,32.387,0.519,-0.551
'[12:49:04.928 25/01/1995]',-0.043,-0.033,0.003,31.206,0.505,-0.553
'[12:49:04.930 25/01/1995]',-0.028,-0.033,0.003,31.206,0.505,-0.553
'[12:49:04.932 25/01/1995]',-0.028,-0.033,0.035,31.206,0.505,-0.553
'[12:49:04.934 25/01/1995]',-0.013,0.003,0.035,31.206,0.505,-0.553
'[12:49:04.936 25/01/1995]',-0.013,0.003,0.068,30.101,0.487,-0.554
'[12:49:04.938 25/01/1995]',0.001,0.003,0.068,30.101,0.487,-0.554
'[12:49:04.940 25/01/1995]',0.001,0.003,0.068,30.101,0.487,-0.554
'[12:49:04.942 25/01/1995]',0.015,0.003,0.102,30.101,0.487,-0.554
'[12:49:04.944 25/01/1995]',0.030,0.037,0.102,29.095,0.463,-0.556
'[12:49:04.946 25/01/1995]',0.030,0.037,0.102,29.095,0.463,-0.556
'[12:49:04.948 25/01/1995]',0.015,0.003,0.068,29.095,0.463,-0.556
'[12:49:04.950 25/01/1995]',0.001,0.003,0.068,29.095,0.463,-0.556
'[12:49:04.952 25/01/1995]',0.015,0.003,0.068,28.342,0.432,-0.557
'[12:49:04.954 25/01/1995]',0.001,0.003,0.068,28.342,0.432,-0.557
'[12:49:04.956 25/01/1995]',0.001,0.003,0.035,28.342,0.432,-0.557
'[12:49:04.958 25/01/1995]',0.001,0.003,0.035,28.342,0.432,-0.557
'[12:49:04.960 25/01/1995]',0.001,0.003,0.035,27.789,0.396,-0.559
'[12:49:04.962 25/01/1995]',0.001,0.003,0.035,27.789,0.396,-0.559
'[12:49:04.964 25/01/1995]',-0.013,0.003,0.003,27.789,0.396,-0.559
'[12:49:04.966 25/01/1995]',-0.013,0.003,0.003,27.789,0.396,-0.559
'[12:49:04.968 25/01/1995]',-0.028,-0.033,0.003,27.563,0.356,-0.560
'[12:49:04.970 25/01/1995]',-0.028,-0.033,0.003,27.563,0.356,-0.560
'[12:49:04.972 25/01/1995]',-0.028,-0.033,0.003,27.563,0.356,-0.560
'[12:49:04.974 25/01/1995]',-0.028,-0.033,0.003,27.563,0.356,-0.560
'[12:49:04.976 25/01/1995]',-0.028,-0.033,0.003,27.387,0.310,-0.561
'[12:49:04.978 25/01/1995]',-0.043,-0.033,0.003,27.387,0.310,-0.561
'[12:49:04.980 25/01/1995]',-0.057,-0.033,0.003,27.387,0.310,-0.561
'[12:49:04.982 25/01/1995]',-0.057,-0.068,0.003,27.387,0.310,-0.561
'[12:49:04.984 25/01/1995]',-0.072,-0.068,-0.030,27.387,0.263,-0.562
'[12:49:04.986 25/01/1995]',-0.072,-0.068,-0.030,27.387,0.263,-0.562
'[12:49:04.988 25/01/1995]',-0.072,-0.068,-0.030,27.387,0.263,-0.562
'[12:49:04.990 25/01/1995]',-0.057,-0.068,-0.030,27.387,0.263,-0.562
'[12:49:04.992 25/01/1995]',-0.057,-0.033,-0.030,27.437,0.213,-0.563
'[12:49:04.994 25/01/1995]',-0.057,-0.068,0.003,27.437,0.213,-0.563
'[12:49:04.996 25/01/1995]',-0.072,-0.068,0.003,27.437,0.213,-0.563
'[12:49:04.998 25/01/1995]',-0.072,-0.068,0.003,27.437,0.213,-0.563
'[12:49:05.000 25/01/1995]',-0.087,-0.068,-0.030,27.688,0.161,-0.564
'[12:49:05.002 25/01/1995]',-0.102,-0.068,-0.030,27.688,0.161,-0.564
'[12:49:05.004 25/01/1995]',-0.102,-0.104,-0.030,27.688,0.161,-0.564
'[12:49:05.006 25/01/1995]',-0.087,-0.068,-0.030,27.688,0.161,-0.564
'[12:49:05.008 25/01/1995]',-0.087,-0.068,0.003,28.090,0.108,-0.564
'[12:49:05.010 25/01/1995]',-0.087,-0.068,-0.030,28.090,0.108,-0.564
'[12:49:05.012 25/01/1995]',-0.087,-0.068,-0.030,28.090,0.108,-0.564
'[12:49:05.014 25/01/1995]',-0.087,-0.068,-0.030,28.090,0.108,-0.564
'[12:49:05.016 25/01/1995]',-0.072,-0.068,0.003,28.618,0.056,-0.563
'[12:49:05.018 25/01/1995]',-0.072,-0.068,-0.030,28.618,0.056,-0.563
'[12:49:05.020 25/01/1995]',-0.072,-0.068,0.003,28.618,0.056,-0.563
'[12:49:05.022 25/01/1995]',-0.072,-0.068,0.003,28.618,0.056,-0.563
'[12:49:05.024 25/01/1995]',-0.072,-0.068,0.003,29.045,0.004,-0.562
'[12:49:05.026 25/01/1995]',-0.072,-0.068,0.003,29.045,0.004,-0.562
'[12:49:05.028 25/01/1995]',-0.072,-0.068,0.003,29.045,0.004,-0.562
'[12:49:05.030 25/01/1995]',-0.072,-0.068,0.003,29.045,0.004,-0.562
'[12:49:05.032 25/01/1995]',-0.072,-0.068,0.003,29.221,-0.045,-0.561
'[12:49:05.034 25/01/1995]',-0.072,-0.068,0.003,29.221,-0.045,-0.561
'[12:49:05.036 25/01/1995]',-0.072,-0.068,0.003,29.221,-0.045,-0.561
'[12:49:05.038 25/01/1995]',-0.072,-0.068,0.003,29.221,-0.045,-0.561
'[12:49:05.040 25/01/1995]',-0.072,-0.068,0.003,29.095,-0.092,-0.560
'[12:49:05.042 25/01/1995]',-0.072,-0.068,0.003,29.095,-0.092,-0.560
'[12:49:05.044 25/01/1995]',-0.057,-0.033,0.003,29.095,-0.092,-0.560
'[12:49:05.046 25/01/1995]',-0.057,-0.033,0.003,29.095,-0.092,-0.560
'[12:49:05.048 25/01/1995]',-0.028,-0.033,0.003,28.744,-0.136,-0.559
'[12:49:05.050 25/01/1995]',-0.028,-0.033,0.003,28.744,-0.136,-0.559
'[12:49:05.052 25/01/1995]',-0.028,-0.033,0.003,28.744,-0.136,-0.559
'[12:49:05.054 25/01/1995]',-0.028,-0.033,0.003,28.744,-0.136,-0.559
'[12:49:05.056 25/01/1995]',-0.028,-0.033,0.003,28.216,-0.174,-0.558
'[12:49:05.058 25/01/1995]',-0.028,-0.033,0.003,28.216,-0.174,-0.558
'[12:49:05.060 25/01/1995]',-0.043,-0.033,0.003,28.216,-0.174,-0.558
'[12:49:05.062 25/01/1995]',-0.043,-0.033,0.003,28.216,-0.174,-0.558
'[12:49:05.064 25/01/1995]',-0.043,-0.033,0.003,27.739,-0.210,-0.557
'[12:49:05.066 25/01/1995]',-0.028,-0.033,0.003,27.739,-0.210,-0.557
'[12:49:05.068 25/01/1995]',-0.028,-0.033,0.003,27.739,-0.210,-0.557
'[12:49:05.070 25/01/1995]',-0.028,-0.033,0.003,27.739,-0.210,-0.557
'[12:49:05.072 25/01/1995]',-0.028,-0.033,0.003,27.337,-0.240,-0.556
'[12:49:05.074 25/01/1995]',-0.013,0.003,0.003,27.337,-0.240,-0.556
'[12:49:05.076 25/01/1995]',-0.013,0.003,0.003,27.337,-0.240,-0.556
'[12:49:05.078 25/01/1995]',-0.013,0.003,0.003,27.337,-0.240,-0.556
'[12:49:05.080 25/01/1995]',-0.013,0.003,0.035,26.985,-0.268,-0.555
'[12:49:05.082 25/01/1995]',-0.013,0.003,0.035,26.985,-0.268,-0.555
'[12:49:05.084 25/01/1995]',-0.013,0.003,0.068,26.985,-0.268,-0.555
'[12:49:05.086 25/01/1995]',0.001,0.003,0.068,26.985,-0.268,-0.555
'[12:49:05.088 25/01/1995]',0.001,0.003,0.068,26.558,-0.291,-0.553
'[12:49:05.090 25/01/1995]',0.001,0.003,0.068,26.558,-0.291,-0.553
'[12:49:05.092 25/01/1995]',0.015,0.003,0.035,26.558,-0.291,-0.553
'[12:49:05.094 25/01/1995]',0.030,0.037,0.035,26.558,-0.291,-0.553
'[12:49:05.096 25/01/1995]',0.074,0.073,0.035,26.206,-0.309,-0.552
'[12:49:05.098 25/01/1995]',0.133,0.145,0.068,26.206,-0.309,-0.552
'[12:49:05.100 25/01/1995]',0.207,0.217,0.068,26.206,-0.309,-0.552
'[12:49:05.102 25/01/1995]',0.294,0.324,0.068,26.206,-0.309,-0.552
'[12:49:05.104 25/01/1995]',0.397,0.432,0.068,25.804,-0.327,-0.550
'[12:49:05.106 25/01/1995]',0.499,0.537,0.068,25.804,-0.327,-0.550
'[12:49:05.108 25/01/1995]',0.558,0.609,0.068,25.804,-0.327,-0.550
'[12:49:05.110 25/01/1995]',0.558,0.609,0.068,25.804,-0.327,-0.550
'[12:49:05.112 25/01/1995]',0.529,0.573,0.035,25.377,-0.340,-0.547
'[12:49:05.114 25/01/1995]',0.441,0.467,0.003,25.377,-0.340,-0.547
'[12:49:05.116 25/01/1995]',0.294,0.288,0.003,25.377,-0.340,-0.547
'[12:49:05.118 25/01/1995]',0.148,0.145,-0.030,25.377,-0.340,-0.547
'[12:49:05.120 25/01/1995]',0.015,0.003,-0.064,24.975,-0.352,-0.545
'[12:49:05.122 25/01/1995]',-0.102,-0.104,-0.097,24.975,-0.352,-0.545
'[12:49:05.124 25/01/1995]',-0.175,-0.176,-0.097,24.975,-0.352,-0.545
'[12:49:05.126 25/01/1995]',-0.248,-0.248,-0.097,24.975,-0.352,-0.545
'[12:49:05.128 25/01/1995]',-0.307,-0.319,-0.097,24.623,-0.359,-0.542
'[12:49:05.130 25/01/1995]',-0.351,-0.355,-0.131,24.623,-0.359,-0.542
'[12:49:05.132 25/01/1995]',-0.380,-0.391,-0.164,24.623,-0.359,-0.542
'[12:49:05.134 25/01/1995]',-0.395,-0.427,-0.164,24.623,-0.359,-0.542
'[12:49:05.136 25/01/1995]',-0.410,-0.427,-0.198,24.271,-0.368,-0.538
'[12:49:05.138 25/01/1995]',-0.410,-0.427,-0.198,24.271,-0.368,-0.538
'[12:49:05.140 25/01/1995]',-0.395,-0.391,-0.198,24.271,-0.368,-0.538
'[12:49:05.142 25/01/1995]',-0.351,-0.355,-0.164,24.271,-0.368,-0.538
'[12:49:05.144 25/01/1995]',-0.292,-0.319,-0.164,23.970,-0.375,-0.535
'[12:49:05.146 25/01/1995]',-0.248,-0.248,-0.131,23.970,-0.375,-0.535
'[12:49:05.148 25/01/1995]',-0.205,-0.212,-0.097,23.970,-0.375,-0.535
'[12:49:05.150 25/01/1995]',-0.160,-0.176,-0.064,23.970,-0.375,-0.535
'[12:49:05.152 25/01/1995]',-0.146,-0.140,-0.064,23.668,-0.384,-0.531
'[12:49:05.154 25/01/1995]',-0.116,-0.104,-0.030,23.668,-0.384,-0.531
'[12:49:05.156 25/01/1995]',-0.102,-0.104,-0.030,23.668,-0.384,-0.531
'[12:49:05.158 25/01/1995]',-0.102,-0.104,-0.030,23.668,-0.384,-0.531
'[12:49:05.160 25/01/1995]',-0.087,-0.068,-0.030,23.442,-0.389,-0.526
'[12:49:05.162 25/01/1995]',-0.087,-0.068,-0.030,23.442,-0.389,-0.526
'[12:49:05.164 25/01/1995]',-0.072,-0.068,-0.030,23.442,-0.389,-0.526
'[12:49:05.166 25/01/1995]',-0.072,-0.068,-0.030,23.442,-0.389,-0.526
'[12:49:05.168 25/01/1995]',-0.072,-0.068,-0.030,23.266,-0.395,-0.522
'[12:49:05.170 25/01/1995]',-0.087,-0.104,-0.030,23.266,-0.395,-0.522
'[12:49:05.172 25/01/1995]',-0.102,-0.104,-0.030,23.266,-0.395,-0.522
'[12:49:05.174 25/01/1995]',-0.102,-0.104,-0.030,23.266,-0.395,-0.522
'[12:49:05.176 25/01/1995]',-0.102,-0.104,-0.030,23.141,-0.399,-0.517
'[12:49:05.178 25/01/1995]',-0.102,-0.104,-0.030,23.141,-0.399,-0.517
'[12:49:05.180 25/01/1995]',-0.102,-0.104,-0.030,23.141,-0.399,-0.517
'[12:49:05.182 25/01/1995]',-0.102,-0.104,-0.030,23.141,-0.399,-0.517
'[12:49:05.184 25/01/1995]',-0.102,-0.104,-0.030,23.090,-0.404,-0.513
'[12:49:05.186 25/01/1995]',-0.087,-0.068,-0.030,23.090,-0.404,-0.513
'[12:49:05.188 25/01/1995]',-0.087,-0.068,-0.030,23.090,-0.404,-0.513
'[12:49:05.190 25/01/1995]',-0.087,-0.068,-0.030,23.090,-0.404,-0.513
'[12:49:05.192 25/01/1995]',-0.072,-0.068,-0.030,22.965,-0.406,-0.508
'[12:49:05.194 25/01/1995]',-0.087,-0.068,-0.030,22.965,-0.406,-0.508
'[12:49:05.196 25/01/1995]',-0.102,-0.104,-0.030,22.965,-0.406,-0.508
'[12:49:05.198 25/01/1995]',-0.102,-0.104,0.003,22.965,-0.406,-0.508
'[12:49:05.200 25/01/1995]',-0.102,-0.104,0.003,22.915,-0.412,-0.504
'[12:49:05.202 25/01/1995]',-0.087,-0.068,0.003,22.915,-0.412,-0.504
'[12:49:05.204 25/01/1995]',-0.072,-0.068,-0.030,22.915,-0.412,-0.504
'[12:49:05.206 25/01/1995]',-0.072,-0.068,-0.030,22.915,-0.412,-0.504
'[12:49:05.208 25/01/1995]',-0.072,-0.068,0.003,22.864,-0.415,-0.499
'[12:49:05.210 25/01/1995]',-0.072,-0.068,0.003,22.864,-0.415,-0.499
'[12:49:05.212 25/01/1995]',-0.072,-0.068,0.003,22.864,-0.415,-0.499
'[12:49:05.214 25/01/1995]',-0.072,-0.068,0.003,22.864,-0.415,-0.499
'[12:49:05.216 25/01/1995]',-0.072,-0.068,0.003,22.965,-0.419,-0.495
'[12:49:05.218 25/01/1995]',-0.072,-0.068,0.003,22.965,-0.419,-0.495
'[12:49:05.220 25/01/1995]',-0.072,-0.068,0.003,22.965,-0.419,-0.495
'[12:49:05.222 25/01/1995]',-0.072,-0.068,0.003,22.965,-0.419,-0.495
'[12:49:05.224 25/01/1995]',-0.072,-0.068,0.003,23.618,-0.424,-0.491
'[12:49:05.226 25/01/1995]',-0.072,-0.068,0.003,23.618,-0.424,-0.491
'[12:49:05.228 25/01/1995]',-0.057,-0.068,0.003,23.618,-0.424,-0.491
'[12:49:05.230 25/01/1995]',-0.057,-0.033,0.003,23.618,-0.424,-0.491
'[12:49:05.232 25/01/1995]',-0.057,-0.033,0.003,24.925,-0.429,-0.488
'[12:49:05.234 25/01/1995]',-0.043,-0.033,0.003,24.925,-0.429,-0.488
'[12:49:05.236 25/01/1995]',-0.043,-0.033,0.003,24.925,-0.429,-0.488
'[12:49:05.238 25/01/1995]',-0.028,-0.033,0.003,24.925,-0.429,-0.488
'[12:49:05.240 25/01/1995]',-0.028,-0.033,0.003,26.683,-0.432,-0.484
'[12:49:05.242 25/01/1995]',-0.028,-0.033,0.003,26.683,-0.432,-0.484
'[12:49:05.244 25/01/1995]',-0.028,-0.033,0.003,26.683,-0.432,-0.484
'[12:49:05.246 25/01/1995]',-0.028,0.003,0.003,26.683,-0.432,-0.484
'[12:49:05.248 25/01/1995]',-0.013,0.003,0.003,28.090,-0.438,-0.481
'[12:49:05.250 25/01/1995]',-0.013,0.003,0.003,28.090,-0.438,-0.481
'[12:49:05.252 25/01/1995]',-0.013,0.003,0.003,28.090,-0.438,-0.481
'[12:49:05.254 25/01/1995]',0.001,0.003,0.003,28.090,-0.438,-0.481
'[12:49:05.256 25/01/1995]',0.001,0.003,0.035,28.141,-0.444,-0.477
'[12:49:05.258 25/01/1995]',0.015,0.003,0.035,28.141,-0.444,-0.477
'[12:49:05.260 25/01/1995]',0.030,0.037,0.035,28.141,-0.444,-0.477
'[12:49:05.262 25/01/1995]',0.059,0.073,0.068,28.141,-0.444,-0.477
'[12:49:05.264 25/01/1995]',0.089,0.073,0.102,26.256,-0.451,-0.474
'[12:49:05.266 25/01/1995]',0.118,0.109,0.102,26.256,-0.451,-0.474
'[12:49:05.268 25/01/1995]',0.133,0.109,0.102,26.256,-0.451,-0.474
'[12:49:05.270 25/01/1995]',0.148,0.145,0.135,26.256,-0.451,-0.474
'[12:49:05.272 25/01/1995]',0.162,0.181,0.135,22.965,-0.459,-0.470
'[12:49:05.274 25/01/1995]',0.177,0.181,0.169,22.965,-0.459,-0.470
'[12:49:05.276 25/01/1995]',0.192,0.181,0.169,22.965,-0.459,-0.470
'[12:49:05.278 25/01/1995]',0.192,0.181,0.135,22.965,-0.459,-0.470
'[12:49:05.280 25/01/1995]',0.192,0.181,0.135,19.724,-0.467,-0.467
'[12:49:05.282 25/01/1995]',0.192,0.181,0.135,19.724,-0.467,-0.467
'[12:49:05.284 25/01/1995]',0.207,0.217,0.135,19.724,-0.467,-0.467
'[12:49:05.286 25/01/1995]',0.207,0.217,0.102,19.724,-0.467,-0.467
'[12:49:05.288 25/01/1995]',0.207,0.217,0.102,18.191,-0.476,-0.463
'[12:49:05.290 25/01/1995]',0.207,0.217,0.102,18.191,-0.476,-0.463
'[12:49:05.292 25/01/1995]',0.207,0.217,0.068,18.191,-0.476,-0.463
'[12:49:05.294 25/01/1995]',0.207,0.217,0.068,18.191,-0.476,-0.463
'[12:49:05.296 25/01/1995]',0.192,0.181,0.068,18.618,-0.483,-0.458
'[12:49:05.298 25/01/1995]',0.192,0.181,0.068,18.618,-0.483,-0.458
'[12:49:05.300 25/01/1995]',0.192,0.217,0.035,18.618,-0.483,-0.458
'[12:49:05.302 25/01/1995]',0.207,0.217,0.035,18.618,-0.483,-0.458
'[12:49:05.304 25/01/1995]',0.235,0.217,0.035,20.201,-0.492,-0.453
'[12:49:05.306 25/01/1995]',0.235,0.217,0.003,20.201,-0.492,-0.453
'[12:49:05.308 25/01/1995]',0.235,0.252,0.003,20.201,-0.492,-0.453
'[12:49:05.310 25/01/1995]',0.250,0.252,0.003,20.201,-0.492,-0.453
'[12:49:05.312 25/01/1995]',0.250,0.252,0.003,21.608,-0.500,-0.447
'[12:49:05.314 25/01/1995]',0.235,0.252,0.003,21.608,-0.500,-0.447
'[12:49:05.316 25/01/1995]',0.235,0.252,0.003,21.608,-0.500,-0.447
'[12:49:05.318 25/01/1995]',0.235,0.252,0.003,21.608,-0.500,-0.447
'[12:49:05.320 25/01/1995]',0.250,0.252,0.003,22.487,-0.508,-0.442
'[12:49:05.322 25/01/1995]',0.250,0.252,0.003,22.487,-0.508,-0.442
'[12:49:05.324 25/01/1995]',0.250,0.252,0.003,22.487,-0.508,-0.442
'[12:49:05.326 25/01/1995]',0.235,0.252,0.003,22.487,-0.508,-0.442
'[12:49:05.328 25/01/1995]',0.235,0.252,0.003,23.317,-0.516,-0.436
'[12:49:05.330 25/01/1995]',0.235,0.252,0.003,23.317,-0.516,-0.436
'[12:49:05.332 25/01/1995]',0.221,0.217,-0.030,23.317,-0.516,-0.436
'[12:49:05.334 25/01/1995]',0.207,0.217,-0.030,23.317,-0.516,-0.436
'[12:49:05.336 25/01/1995]',0.221,0.217,-0.030,24.799,-0.521,-0.430
'[12:49:05.338 25/01/1995]',0.221,0.252,-0.030,24.799,-0.521,-0.430
'[12:49:05.340 25/01/1995]',0.235,0.252,-0.030,24.799,-0.521,-0.430
'[12:49:05.342 25/01/1995]',0.221,0.252,-0.030,24.799,-0.521,-0.430
'[12:49:05.344 25/01/1995]',0.221,0.217,-0.030,26.910,-0.526,-0.424
'[12:49:05.346 25/01/1995]',0.221,0.217,-0.030,26.910,-0.526,-0.424
'[12:49:05.348 25/01/1995]',0.221,0.217,-0.030,26.910,-0.526,-0.424
'[12:49:05.350 25/01/1995]',0.221,0.217,-0.030,26.910,-0.526,-0.424
'[12:49:05.352 25/01/1995]',0.192,0.217,-0.030,29.271,-0.528,-0.418
'[12:49:05.354 25/01/1995]',0.192,0.217,-0.030,29.271,-0.528,-0.418
'[12:49:05.356 25/01/1995]',0.162,0.181,-0.030,29.271,-0.528,-0.418
'[12:49:05.358 25/01/1995]',0.148,0.181,0.003,29.271,-0.528,-0.418
'[12:49:05.360 25/01/1995]',0.133,0.145,0.003,31.332,-0.522,-0.412
'[12:49:05.362 25/01/1995]',0.118,0.109,0.003,31.332,-0.522,-0.412
'[12:49:05.364 25/01/1995]',0.118,0.109,0.003,31.332,-0.522,-0.412
'[12:49:05.366 25/01/1995]',0.104,0.109,0.003,31.332,-0.522,-0.412
'[12:49:05.368 25/01/1995]',0.104,0.109,0.003,32.915,-0.514,-0.405
'[12:49:05.370 25/01/1995]',0.104,0.109,0.003,32.915,-0.514,-0.405
'[12:49:05.372 25/01/1995]',0.104,0.109,0.003,32.915,-0.514,-0.405
'[12:49:05.374 25/01/1995]',0.089,0.073,0.003,32.915,-0.514,-0.405
'[12:49:05.376 25/01/1995]',0.059,0.073,0.003,34.221,-0.493,-0.398
'[12:49:05.378 25/01/1995]',0.045,0.037,0.003,34.221,-0.493,-0.398
'[12:49:05.380 25/01/1995]',0.015,0.003,0.003,34.221,-0.493,-0.398
'[12:49:05.382 25/01/1995]',0.001,0.003,0.003,34.221,-0.493,-0.398
'[12:49:05.384 25/01/1995]',0.001,0.003,0.003,35.503,-0.462,-0.392
'[12:49:05.386 25/01/1995]',0.001,0.003,0.003,35.503,-0.462,-0.392
'[12:49:05.388 25/01/1995]',0.001,0.003,0.003,35.503,-0.462,-0.392
'[12:49:05.390 25/01/1995]',0.001,0.003,0.003,35.503,-0.462,-0.392
'[12:49:05.392 25/01/1995]',-0.013,0.003,0.003,36.759,-0.417,-0.386
'[12:49:05.394 25/01/1995]',-0.013,0.003,0.003,36.759,-0.417,-0.386
'[12:49:05.396 25/01/1995]',-0.013,0.003,0.003,36.759,-0.417,-0.386
'[12:49:05.398 25/01/1995]',-0.013,0.003,0.003,36.759,-0.417,-0.386
'[12:49:05.400 25/01/1995]',-0.013,0.003,0.003,37.638,-0.361,-0.381
'[12:49:05.402 25/01/1995]',-0.013,0.003,0.003,37.638,-0.361,-0.381
'[12:49:05.404 25/01/1995]',-0.028,0.003,0.003,37.638,-0.361,-0.381
'[12:49:05.406 25/01/1995]',-0.028,-0.033,0.003,37.638,-0.361,-0.381
'[12:49:05.408 25/01/1995]',-0.043,-0.033,0.003,38.116,-0.290,-0.377
'[12:49:05.410 25/01/1995]',-0.043,-0.033,0.003,38.116,-0.290,-0.377
'[12:49:05.412 25/01/1995]',-0.028,-0.033,0.003,38.116,-0.290,-0.377
'[12:49:05.414 25/01/1995]',-0.013,0.003,0.003,38.116,-0.290,-0.377
'[12:49:05.416 25/01/1995]',-0.013,0.003,0.003,38.040,-0.211,-0.372
'[12:49:05.418 25/01/1995]',-0.013,0.003,0.003,38.040,-0.211,-0.372
'[12:49:05.420 25/01/1995]',-0.013,0.003,0.003,38.040,-0.211,-0.372
'[12:49:05.422 25/01/1995]',-0.013,0.003,0.003,38.040,-0.211,-0.372
'[12:49:05.424 25/01/1995]',-0.028,-0.033,0.003,37.764,-0.123,-0.369
'[12:49:05.426 25/01/1995]',-0.028,-0.033,0.003,37.764,-0.123,-0.369
'[12:49:05.428 25/01/1995]',-0.028,-0.033,0.003,37.764,-0.123,-0.369
'[12:49:05.430 25/01/1995]',-0.043,-0.033,0.003,37.764,-0.123,-0.369
'[12:49:05.432 25/01/1995]',-0.028,0.003,0.003,37.286,-0.032,-0.366
'[12:49:05.434 25/01/1995]',-0.013,0.003,0.003,37.286,-0.032,-0.366
'[12:49:05.436 25/01/1995]',-0.013,0.003,0.035,37.286,-0.032,-0.366
'[12:49:05.438 25/01/1995]',0.001,0.003,0.035,37.286,-0.032,-0.366
'[12:49:05.440 25/01/1995]',0.001,0.003,0.035,36.633,0.060,-0.363
'[12:49:05.442 25/01/1995]',0.001,0.003,0.035,36.633,0.060,-0.363
'[12:49:05.444 25/01/1995]',0.015,0.003,0.068,36.633,0.060,-0.363
'[12:49:05.446 25/01/1995]',0.030,0.037,0.068,36.633,0.060,-0.363
'[12:49:05.448 25/01/1995]',0.045,0.037,0.068,35.628,0.144,-0.362
'[12:49:05.450 25/01/1995]',0.059,0.073,0.102,35.628,0.144,-0.362
'[12:49:05.452 25/01/1995]',0.074,0.073,0.102,35.628,0.144,-0.362
'[12:49:05.454 25/01/1995]',0.089,0.109,0.102,35.628,0.144,-0.362
'[12:49:05.456 25/01/1995]',0.104,0.109,0.102,34.171,0.221,-0.361
'[12:49:05.458 25/01/1995]',0.104,0.109,0.102,34.171,0.221,-0.361
'[12:49:05.460 25/01/1995]',0.104,0.109,0.102,34.171,0.221,-0.361
'[12:49:05.462 25/01/1995]',0.089,0.073,0.068,34.171,0.221,-0.361
'[12:49:05.464 25/01/1995]',0.074,0.073,0.068,32.387,0.287,-0.361
'[12:49:05.466 25/01/1995]',0.059,0.073,0.068,32.387,0.287,-0.361
'[12:49:05.468 25/01/1995]',0.045,0.037,0.035,32.387,0.287,-0.361
'[12:49:05.470 25/01/1995]',0.030,0.037,0.035,32.387,0.287,-0.361
'[12:49:05.472 25/01/1995]',0.015,0.003,0.035,30.628,0.339,-0.362
'[12:49:05.474 25/01/1995]',0.001,0.003,0.035,30.628,0.339,-0.362
'[12:49:05.476 25/01/1995]',0.015,0.003,0.035,30.628,0.339,-0.362
'[12:49:05.478 25/01/1995]',0.001,0.003,0.003,30.628,0.339,-0.362
'[12:49:05.480 25/01/1995]',0.001,0.003,0.003,28.920,0.380,-0.364
'[12:49:05.482 25/01/1995]',0.001,0.003,0.003,28.920,0.380,-0.364
'[12:49:05.484 25/01/1995]',0.001,0.003,0.003,28.920,0.380,-0.364
'[12:49:05.486 25/01/1995]',0.001,0.003,0.003,28.920,0.380,-0.364
'[12:49:05.488 25/01/1995]',0.001,0.003,0.003,27.387,0.407,-0.368
'[12:49:05.490 25/01/1995]',0.015,0.003,-0.030,27.387,0.407,-0.368
'[12:49:05.492 25/01/1995]',0.001,0.003,-0.030,27.387,0.407,-0.368
'[12:49:05.494 25/01/1995]',0.001,0.003,-0.030,27.387,0.407,-0.368
'[12:49:05.496 25/01/1995]',0.001,0.003,-0.030,26.030,0.421,-0.373
'[12:49:05.498 25/01/1995]',0.001,0.003,-0.030,26.030,0.421,-0.373
'[12:49:05.500 25/01/1995]',0.001,0.003,-0.030,26.030,0.421,-0.373
'[12:49:05.502 25/01/1995]',0.001,0.003,-0.030,26.030,0.421,-0.373
'[12:49:05.504 25/01/1995]',-0.013,0.003,-0.030,25.025,0.426,-0.378
'[12:49:05.506 25/01/1995]',-0.013,0.003,-0.030,25.025,0.426,-0.378
'[12:49:05.508 25/01/1995]',-0.013,0.003,-0.030,25.025,0.426,-0.378
'[12:49:05.510 25/01/1995]',-0.013,0.003,-0.030,25.025,0.426,-0.378
'[12:49:05.512 25/01/1995]',-0.028,0.003,-0.030,24.372,0.424,-0.383
'[12:49:05.514 25/01/1995]',-0.028,-0.033,-0.030,24.372,0.424,-0.383
'[12:49:05.516 25/01/1995]',-0.028,0.003,-0.030,24.372,0.424,-0.383
'[12:49:05.518 25/01/1995]',-0.028,-0.033,-0.030,24.372,0.424,-0.383
'[12:49:05.520 25/01/1995]',-0.028,-0.033,-0.030,23.844,0.412,-0.388
'[12:49:05.522 25/01/1995]',-0.028,-0.033,-0.030,23.844,0.412,-0.388
'[12:49:05.524 25/01/1995]',-0.028,-0.033,-0.030,23.844,0.412,-0.388
'[12:49:05.526 25/01/1995]',-0.028,0.003,-0.030,23.844,0.412,-0.388
'[12:49:05.528 25/01/1995]',-0.013,0.003,-0.030,23.317,0.396,-0.393
'[12:49:05.530 25/01/1995]',-0.028,0.003,-0.030,23.317,0.396,-0.393
'[12:49:05.532 25/01/1995]',-0.028,-0.033,-0.030,23.317,0.396,-0.393
'[12:49:05.534 25/01/1995]',-0.013,0.003,0.003,23.317,0.396,-0.393
'[12:49:05.536 25/01/1995]',-0.013,0.003,-0.030,22.613,0.371,-0.398
'[12:49:05.538 25/01/1995]',-0.028,-0.033,-0.030,22.613,0.371,-0.398
'[12:49:05.540 25/01/1995]',-0.028,-0.033,0.003,22.613,0.371,-0.398
'[12:49:05.542 25/01/1995]',-0.043,-0.033,0.003,22.613,0.371,-0.398
'[12:49:05.544 25/01/1995]',-0.043,-0.033,0.003,21.859,0.343,-0.402
'[12:49:05.546 25/01/1995]',-0.057,-0.033,0.003,21.859,0.343,-0.402
'[12:49:05.548 25/01/1995]',-0.057,-0.033,0.003,21.859,0.343,-0.402
'[12:49:05.550 25/01/1995]',-0.043,-0.033,0.003,21.859,0.343,-0.402
'[12:49:05.552 25/01/1995]',-0.028,-0.033,0.003,21.256,0.309,-0.405
'[12:49:05.554 25/01/1995]',-0.028,-0.033,0.003,21.256,0.309,-0.405
'[12:49:05.556 25/01/1995]',-0.057,-0.033,-0.030,21.256,0.309,-0.405
'[12:49:05.558 25/01/1995]',-0.057,-0.033,-0.030,21.256,0.309,-0.405
'[12:49:05.560 25/01/1995]',-0.057,-0.068,-0.030,20.980,0.270,-0.408
'[12:49:05.562 25/01/1995]',-0.057,-0.068,-0.030,20.980,0.270,-0.408
'[12:49:05.564 25/01/1995]',-0.057,-0.068,-0.030,20.980,0.270,-0.408
'[12:49:05.566 25/01/1995]',-0.057,-0.033,0.003,20.980,0.270,-0.408
'[12:49:05.568 25/01/1995]',-0.057,-0.033,0.003,20.854,0.228,-0.411
'[12:49:05.570 25/01/1995]',-0.043,-0.033,0.003,20.854,0.228,-0.411
'[12:49:05.572 25/01/1995]',-0.043,-0.033,0.003,20.854,0.228,-0.411
'[12:49:05.574 25/01/1995]',-0.043,-0.033,0.003,20.854,0.228,-0.411
'[12:49:05.576 25/01/1995]',-0.057,-0.033,0.003,20.905,0.182,-0.413
'[12:49:05.578 25/01/1995]',-0.057,-0.033,0.003,20.905,0.182,-0.413
'[12:49:05.580 25/01/1995]',-0.043,-0.033,0.003,20.905,0.182,-0.413
'[12:49:05.582 25/01/1995]',-0.057,-0.033,0.003,20.905,0.182,-0.413
'[12:49:05.584 25/01/1995]',-0.057,-0.033,0.003,21.080,0.133,-0.415
'[12:49:05.586 25/01/1995]',-0.057,-0.033,0.003,21.080,0.133,-0.415
'[12:49:05.588 25/01/1995]',-0.057,-0.033,0.003,21.080,0.133,-0.415
'[12:49:05.590 25/01/1995]',-0.043,-0.033,0.003,21.080,0.133,-0.415
'[12:49:05.592 25/01/1995]',-0.043,-0.033,0.003,21.382,0.082,-0.417
'[12:49:05.594 25/01/1995]',-0.043,-0.033,0.003,21.382,0.082,-0.417
'[12:49:05.596 25/01/1995]',-0.043,-0.033,0.003,21.382,0.082,-0.417
'[12:49:05.598 25/01/1995]',-0.043,-0.033,0.003,21.382,0.082,-0.417
'[12:49:05.600 25/01/1995]',-0.043,-0.033,0.003,21.734,0.031,-0.419
'[12:49:05.602 25/01/1995]',-0.057,-0.033,0.003,21.734,0.031,-0.419
'[12:49:05.604 25/01/1995]',-0.057,-0.033,0.003,21.734,0.031,-0.419
'[12:49:05.606 25/01/1995]',-0.043,-0.033,0.003,21.734,0.031,-0.419
'[12:49:05.608 25/01/1995]',-0.028,-0.033,0.003,22.085,-0.022,-0.420
'[12:49:05.610 25/01/1995]',-0.028,0.003,0.003,22.085,-0.022,-0.420
'[12:49:05.612 25/01/1995]',-0.013,0.003,0.003,22.085,-0.022,-0.420
'[12:49:05.614 25/01/1995]',-0.013,0.003,0.003,22.085,-0.022,-0.420
'[12:49:05.616 25/01/1995]',-0.013,0.003,0.003,22.312,-0.073,-0.421
'[12:49:05.618 25/01/1995]',0.001,0.003,0.035,22.312,-0.073,-0.421
'[12:49:05.620 25/01/1995]',0.001,0.003,0.035,22.312,-0.073,-0.421
'[12:49:05.622 25/01/1995]',0.001,0.003,0.068,22.312,-0.073,-0.421
'[12:49:05.624 25/01/1995]',0.001,0.003,0.068,22.312,-0.122,-0.422
'[12:49:05.626 25/01/1995]',0.015,0.003,0.068,22.312,-0.122,-0.422
'[12:49:05.628 25/01/1995]',0.015,0.003,0.068,22.312,-0.122,-0.422
'[12:49:05.630 25/01/1995]',0.015,0.037,0.102,22.312,-0.122,-0.422
'[12:49:05.632 25/01/1995]',0.030,0.037,0.102,22.085,-0.167,-0.422
'[12:49:05.634 25/01/1995]',0.030,0.037,0.102,22.085,-0.167,-0.422
'[12:49:05.636 25/01/1995]',0.030,0.037,0.068,22.085,-0.167,-0.422
'[12:49:05.638 25/01/1995]',0.030,0.037,0.068,22.085,-0.167,-0.422
'[12:49:05.640 25/01/1995]',0.045,0.037,0.068,21.608,-0.207,-0.423
'[12:49:05.642 25/01/1995]',0.045,0.037,0.068,21.608,-0.207,-0.423
'[12:49:05.644 25/01/1995]',0.030,0.037,0.068,21.608,-0.207,-0.423
'[12:49:05.646 25/01/1995]',0.015,0.037,0.068,21.608,-0.207,-0.423
'[12:49:05.648 25/01/1995]',0.001,0.003,0.068,21.080,-0.247,-0.424
'[12:49:05.650 25/01/1995]',0.001,0.003,0.035,21.080,-0.247,-0.424
'[12:49:05.652 25/01/1995]',-0.013,0.003,0.035,21.080,-0.247,-0.424
'[12:49:05.654 25/01/1995]',-0.013,0.003,0.035,21.080,-0.247,-0.424
'[12:49:05.656 25/01/1995]',0.001,0.003,0.003,20.503,-0.281,-0.425
'[12:49:05.658 25/01/1995]',0.001,0.003,0.003,20.503,-0.281,-0.425
'[12:49:05.660 25/01/1995]',0.015,0.037,0.003,20.503,-0.281,-0.425
'[12:49:05.662 25/01/1995]',0.030,0.037,0.003,20.503,-0.281,-0.425
'[12:49:05.664 25/01/1995]',0.030,0.037,0.003,20.025,-0.303,-0.426
'[12:49:05.666 25/01/1995]',0.015,0.003,0.003,20.025,-0.303,-0.426
'[12:49:05.668 25/01/1995]',0.001,0.003,0.003,20.025,-0.303,-0.426
'[12:49:05.670 25/01/1995]',0.001,0.003,0.003,20.025,-0.303,-0.426
'[12:49:05.672 25/01/1995]',0.015,0.003,0.035,19.623,-0.328,-0.428
'[12:49:05.674 25/01/1995]',0.030,0.037,0.035,19.623,-0.328,-0.428
'[12:49:05.676 25/01/1995]',0.059,0.037,0.035,19.623,-0.328,-0.428
'[12:49:05.678 25/01/1995]',0.059,0.073,0.035,19.623,-0.328,-0.428
'[12:49:05.680 25/01/1995]',0.059,0.073,0.035,19.196,-0.348,-0.430
'[12:49:05.682 25/01/1995]',0.059,0.073,0.003,19.196,-0.348,-0.430
'[12:49:05.684 25/01/1995]',0.059,0.073,0.003,19.196,-0.348,-0.430
'[12:49:05.686 25/01/1995]',0.089,0.073,-0.030,19.196,-0.348,-0.430
'[12:49:05.688 25/01/1995]',0.118,0.109,-0.030,18.668,-0.366,-0.432
'[12:49:05.690 25/01/1995]',0.192,0.181,-0.030,18.668,-0.366,-0.432
'[12:49:05.692 25/01/1995]',0.279,0.288,-0.030,18.668,-0.366,-0.432
'[12:49:05.694 25/01/1995]',0.368,0.396,-0.064,18.668,-0.366,-0.432
'[12:49:05.696 25/01/1995]',0.485,0.537,-0.064,18.141,-0.380,-0.435
'[12:49:05.698 25/01/1995]',0.588,0.645,-0.064,18.141,-0.380,-0.435
'[12:49:05.700 25/01/1995]',0.646,0.717,-0.097,18.141,-0.380,-0.435
'[12:49:05.702 25/01/1995]',0.617,0.681,-0.131,18.141,-0.380,-0.435
'[12:49:05.704 25/01/1995]',0.573,0.609,-0.164,17.739,-0.393,-0.438
'[12:49:05.706 25/01/1995]',0.441,0.467,-0.198,17.739,-0.393,-0.438
'[12:49:05.708 25/01/1995]',0.279,0.288,-0.231,17.739,-0.393,-0.438
'[12:49:05.710 25/01/1995]',0.133,0.109,-0.231,17.739,-0.393,-0.438
'[12:49:05.712 25/01/1995]',0.001,0.003,-0.231,17.387,-0.402,-0.440
'[12:49:05.714 25/01/1995]',-0.087,-0.068,-0.231,17.387,-0.402,-0.440
'[12:49:05.716 25/01/1995]',-0.146,-0.140,-0.198,17.387,-0.402,-0.440
'[12:49:05.718 25/01/1995]',-0.205,-0.212,-0.198,17.387,-0.402,-0.440
'[12:49:05.720 25/01/1995]',-0.263,-0.248,-0.198,17.136,-0.407,-0.442
'[12:49:05.722 25/01/1995]',-0.322,-0.355,-0.198,17.136,-0.407,-0.442
'[12:49:05.724 25/01/1995]',-0.380,-0.391,-0.198,17.136,-0.407,-0.442
'[12:49:05.726 25/01/1995]',-0.395,-0.427,-0.231,17.136,-0.407,-0.442
'[12:49:05.728 25/01/1995]',-0.424,-0.463,-0.231,16.960,-0.414,-0.445
'[12:49:05.730 25/01/1995]',-0.424,-0.463,-0.231,16.960,-0.414,-0.445
'[12:49:05.732 25/01/1995]',-0.424,-0.427,-0.198,16.960,-0.414,-0.445
'[12:49:05.734 25/01/1995]',-0.380,-0.391,-0.198,16.960,-0.414,-0.445
'[12:49:05.736 25/01/1995]',-0.336,-0.355,-0.164,16.910,-0.418,-0.448
'[12:49:05.738 25/01/1995]',-0.292,-0.283,-0.164,16.910,-0.418,-0.448
'[12:49:05.740 25/01/1995]',-0.233,-0.212,-0.131,16.910,-0.418,-0.448
'[12:49:05.742 25/01/1995]',-0.190,-0.176,-0.097,16.910,-0.418,-0.448
'[12:49:05.744 25/01/1995]',-0.160,-0.140,-0.097,16.910,-0.421,-0.453
'[12:49:05.746 25/01/1995]',-0.131,-0.140,-0.064,16.910,-0.421,-0.453
'[12:49:05.748 25/01/1995]',-0.116,-0.104,-0.064,16.910,-0.421,-0.453
'[12:49:05.750 25/01/1995]',-0.116,-0.104,-0.064,16.910,-0.421,-0.453
'[12:49:05.752 25/01/1995]',-0.102,-0.104,-0.030,16.960,-0.424,-0.458
'[12:49:05.754 25/01/1995]',-0.102,-0.104,-0.030,16.960,-0.424,-0.458
'[12:49:05.756 25/01/1995]',-0.102,-0.104,-0.030,16.960,-0.424,-0.458
'[12:49:05.758 25/01/1995]',-0.116,-0.104,-0.030,16.960,-0.424,-0.458
'[12:49:05.760 25/01/1995]',-0.116,-0.104,0.003,17.035,-0.425,-0.463
'[12:49:05.762 25/01/1995]',-0.116,-0.104,0.003,17.035,-0.425,-0.463
'[12:49:05.764 25/01/1995]',-0.116,-0.104,0.003,17.035,-0.425,-0.463
'[12:49:05.766 25/01/1995]',-0.102,-0.104,0.003,17.035,-0.425,-0.463
'[12:49:05.768 25/01/1995]',-0.087,-0.068,0.003,16.834,-0.427,-0.468
'[12:49:05.770 25/01/1995]',-0.072,-0.068,0.003,16.834,-0.427,-0.468
'[12:49:05.772 25/01/1995]',-0.072,-0.068,0.003,16.834,-0.427,-0.468
'[12:49:05.774 25/01/1995]',-0.087,-0.068,0.003,16.834,-0.427,-0.468
'[12:49:05.776 25/01/1995]',-0.087,-0.068,0.003,16.432,-0.428,-0.471
'[12:49:05.778 25/01/1995]',-0.087,-0.068,0.003,16.432,-0.428,-0.471
'[12:49:05.780 25/01/1995]',-0.102,-0.068,0.003,16.432,-0.428,-0.471
'[12:49:05.782 25/01/1995]',-0.087,-0.068,0.003,16.432,-0.428,-0.471
'[12:49:05.784 25/01/1995]',-0.072,-0.068,0.003,15.905,-0.430,-0.475
'[12:49:05.786 25/01/1995]',-0.072,-0.068,0.003,15.905,-0.430,-0.475
'[12:49:05.788 25/01/1995]',-0.072,-0.068,0.003,15.905,-0.430,-0.475
'[12:49:05.790 25/01/1995]',-0.057,-0.033,0.003,15.905,-0.430,-0.475
'[12:49:05.792 25/01/1995]',-0.028,-0.033,0.003,15.251,-0.430,-0.478
'[12:49:05.794 25/01/1995]',-0.028,-0.033,0.003,15.251,-0.430,-0.478
'[12:49:05.796 25/01/1995]',-0.028,-0.033,0.003,15.251,-0.430,-0.478
'[12:49:05.798 25/01/1995]',-0.028,-0.033,0.003,15.251,-0.430,-0.478
'[12:49:05.800 25/01/1995]',-0.028,-0.033,0.003,14.774,-0.431,-0.482
'[12:49:05.802 25/01/1995]',-0.043,-0.033,0.003,14.774,-0.431,-0.482
'[12:49:05.804 25/01/1995]',-0.057,-0.033,0.035,14.774,-0.431,-0.482
'[12:49:05.806 25/01/1995]',-0.057,-0.033,0.035,14.774,-0.431,-0.482
'[12:49:05.808 25/01/1995]',-0.043,-0.033,0.035,14.724,-0.431,-0.487
'[12:49:05.810 25/01/1995]',-0.043,-0.033,0.035,14.724,-0.431,-0.487
'[12:49:05.812 25/01/1995]',-0.013,0.003,0.035,14.724,-0.431,-0.487
'[12:49:05.814 25/01/1995]',0.001,0.003,0.035,14.724,-0.431,-0.487
'[12:49:05.816 25/01/1995]',0.001,0.003,0.068,15.251,-0.433,-0.492
'[12:49:05.818 25/01/1995]',0.015,0.003,0.068,15.251,-0.433,-0.492
'[12:49:05.820 25/01/1995]',0.030,0.037,0.102,15.251,-0.433,-0.492
'[12:49:05.822 25/01/1995]',0.059,0.037,0.102,15.251,-0.433,-0.492
'[12:49:05.824 25/01/1995]',0.059,0.073,0.135,16.558,-0.434,-0.497
'[12:49:05.826 25/01/1995]',0.074,0.073,0.135,16.558,-0.434,-0.497
'[12:49:05.828 25/01/1995]',0.074,0.073,0.135,16.558,-0.434,-0.497
'[12:49:05.830 25/01/1995]',0.089,0.109,0.135,16.558,-0.434,-0.497
'[12:49:05.832 25/01/1995]',0.074,0.073,0.135,18.191,-0.436,-0.503
'[12:49:05.834 25/01/1995]',0.074,0.073,0.102,18.191,-0.436,-0.503
'[12:49:05.836 25/01/1995]',0.074,0.073,0.102,18.191,-0.436,-0.503
'[12:49:05.838 25/01/1995]',0.059,0.073,0.102,18.191,-0.436,-0.503
'[12:49:05.840 25/01/1995]',0.059,0.037,0.068,19.623,-0.440,-0.508
'[12:49:05.842 25/01/1995]',0.045,0.037,0.068,19.623,-0.440,-0.508
'[12:49:05.844 25/01/1995]',0.045,0.037,0.035,19.623,-0.440,-0.508
'[12:49:05.846 25/01/1995]',0.045,0.037,0.035,19.623,-0.440,-0.508
'[12:49:05.848 25/01/1995]',0.059,0.073,0.035,20.327,-0.441,-0.514
'[12:49:05.850 25/01/1995]',0.059,0.073,0.003,20.327,-0.441,-0.514
'[12:49:05.852 25/01/1995]',0.074,0.073,0.003,20.327,-0.441,-0.514
'[12:49:05.854 25/01/1995]',0.059,0.073,0.003,20.327,-0.441,-0.514
'[12:49:05.856 25/01/1995]',0.059,0.073,0.003,20.251,-0.445,-0.519
'[12:49:05.858 25/01/1995]',0.059,0.073,0.003,20.251,-0.445,-0.519
'[12:49:05.860 25/01/1995]',0.059,0.037,0.003,20.251,-0.445,-0.519
'[12:49:05.862 25/01/1995]',0.045,0.037,0.003,20.251,-0.445,-0.519
'[12:49:05.864 25/01/1995]',0.045,0.037,0.003,19.899,-0.446,-0.523
'[12:49:05.866 25/01/1995]',0.059,0.037,0.003,19.899,-0.446,-0.523
'[12:49:05.868 25/01/1995]',0.059,0.073,0.003,19.899,-0.446,-0.523
'[12:49:05.870 25/01/1995]',0.074,0.073,0.003,19.899,-0.446,-0.523
'[12:49:05.872 25/01/1995]',0.089,0.109,0.003,19.799,-0.449,-0.526
'[12:49:05.874 25/01/1995]',0.104,0.109,0.003,19.799,-0.449,-0.526
'[12:49:05.876 25/01/1995]',0.118,0.109,0.003,19.799,-0.449,-0.526
'[12:49:05.878 25/01/1995]',0.118,0.145,0.003,19.799,-0.449,-0.526
'[12:49:05.880 25/01/1995]',0.148,0.145,0.003,20.075,-0.452,-0.528
'[12:49:05.882 25/01/1995]',0.162,0.181,0.003,20.075,-0.452,-0.528
'[12:49:05.884 25/01/1995]',0.162,0.181,0.003,20.075,-0.452,-0.528
'[12:49:05.886 25/01/1995]',0.162,0.181,0.003,20.075,-0.452,-0.528
'[12:49:05.888 25/01/1995]',0.162,0.181,0.003,20.678,-0.456,-0.530
'[12:49:05.890 25/01/1995]',0.162,0.181,0.003,20.678,-0.456,-0.530
'[12:49:05.892 25/01/1995]',0.162,0.181,0.003,20.678,-0.456,-0.530
'[12:49:05.894 25/01/1995]',0.177,0.181,0.003,20.678,-0.456,-0.530
'[12:49:05.896 25/01/1995]',0.192,0.217,0.003,21.558,-0.457,-0.530
'[12:49:05.898 25/01/1995]',0.192,0.217,0.003,21.558,-0.457,-0.530
'[12:49:05.900 25/01/1995]',0.207,0.217,0.003,21.558,-0.457,-0.530
'[12:49:05.902 25/01/1995]',0.207,0.217,0.003,21.558,-0.457,-0.530
'[12:49:05.904 25/01/1995]',0.192,0.217,0.003,22.789,-0.463,-0.529
'[12:49:05.906 25/01/1995]',0.192,0.181,0.003,22.789,-0.463,-0.529
'[12:49:05.908 25/01/1995]',0.192,0.181,0.003,22.789,-0.463,-0.529
'[12:49:05.910 25/01/1995]',0.192,0.181,0.003,22.789,-0.463,-0.529
'[12:49:05.912 25/01/1995]',0.207,0.217,0.003,24.497,-0.468,-0.527
'[12:49:05.914 25/01/1995]',0.235,0.252,0.003,24.497,-0.468,-0.527
'[12:49:05.916 25/01/1995]',0.235,0.252,0.003,24.497,-0.468,-0.527
'[12:49:05.918 25/01/1995]',0.235,0.252,0.003,24.497,-0.468,-0.527
'[12:49:05.920 25/01/1995]',0.235,0.252,0.003,26.683,-0.472,-0.525
'[12:49:05.922 25/01/1995]',0.235,0.252,0.003,26.683,-0.472,-0.525
'[12:49:05.924 25/01/1995]',0.235,0.252,0.003,26.683,-0.472,-0.525
'[12:49:05.926 25/01/1995]',0.250,0.252,0.003,26.683,-0.472,-0.525
'[12:49:05.928 25/01/1995]',0.235,0.252,0.003,29.221,-0.477,-0.522
'[12:49:05.930 25/01/1995]',0.221,0.252,0.003,29.221,-0.477,-0.522
'[12:49:05.932 25/01/1995]',0.207,0.217,0.003,29.221,-0.477,-0.522
'[12:49:05.934 25/01/1995]',0.207,0.217,0.003,29.221,-0.477,-0.522
'[12:49:05.936 25/01/1995]',0.192,0.217,0.003,31.809,-0.482,-0.519
'[12:49:05.938 25/01/1995]',0.192,0.217,0.003,31.809,-0.482,-0.519
'[12:49:05.940 25/01/1995]',0.192,0.181,0.003,31.809,-0.482,-0.519
'[12:49:05.942 25/01/1995]',0.177,0.181,0.003,31.809,-0.482,-0.519
'[12:49:05.944 25/01/1995]',0.162,0.181,0.003,34.271,-0.483,-0.515
'[12:49:05.946 25/01/1995]',0.148,0.145,0.003,34.271,-0.483,-0.515
'[12:49:05.948 25/01/1995]',0.148,0.145,0.003,34.271,-0.483,-0.515
'[12:49:05.950 25/01/1995]',0.118,0.109,0.003,34.271,-0.483,-0.515
'[12:49:05.952 25/01/1995]',0.118,0.109,0.003,36.457,-0.483,-0.512
'[12:49:05.954 25/01/1995]',0.118,0.109,0.003,36.457,-0.483,-0.512
'[12:49:05.956 25/01/1995]',0.104,0.109,0.003,36.457,-0.483,-0.512
'[12:49:05.958 25/01/1995]',0.104,0.109,0.003,36.457,-0.483,-0.512
'[12:49:05.960 25/01/1995]',0.104,0.109,0.003,38.342,-0.479,-0.509
'[12:49:05.962 25/01/1995]',0.089,0.073,0.003,38.342,-0.479,-0.509
'[12:49:05.964 25/01/1995]',0.074,0.073,0.003,38.342,-0.479,-0.509
'[12:49:05.966 25/01/1995]',0.074,0.073,0.003,38.342,-0.479,-0.509
'[12:49:05.968 25/01/1995]',0.059,0.073,0.003,39.874,-0.463,-0.506
'[12:49:05.970 25/01/1995]',0.059,0.037,0.003,39.874,-0.463,-0.506
'[12:49:05.972 25/01/1995]',0.030,0.037,0.003,39.874,-0.463,-0.506
'[12:49:05.974 25/01/1995]',0.030,0.037,0.003,39.874,-0.463,-0.506
'[12:49:05.976 25/01/1995]',0.030,0.037,0.003,41.231,-0.439,-0.504
'[12:49:05.978 25/01/1995]',0.015,0.003,0.003,41.231,-0.439,-0.504
'[12:49:05.980 25/01/1995]',0.015,0.003,0.035,41.231,-0.439,-0.504
'[12:49:05.982 25/01/1995]',0.015,0.003,0.035,41.231,-0.439,-0.504
'[12:49:05.984 25/01/1995]',0.015,0.037,0.035,42.412,-0.401,-0.502
'[12:49:05.986 25/01/1995]',0.015,0.037,0.035,42.412,-0.401,-0.502
'[12:49:05.988 25/01/1995]',0.030,0.037,0.068,42.412,-0.401,-0.502
'[12:49:05.990 25/01/1995]',0.030,0.037,0.068,42.412,-0.401,-0.502
'[12:49:05.992 25/01/1995]',0.030,0.037,0.068,43.291,-0.349,-0.500
'[12:49:05.994 25/01/1995]',0.059,0.073,0.102,43.291,-0.349,-0.500
'[12:49:05.996 25/01/1995]',0.059,0.073,0.102,43.291,-0.349,-0.500
'[12:49:05.998 25/01/1995]',0.074,0.073,0.135,43.291,-0.349,-0.500
'[12:49:06.000 25/01/1995]',0.089,0.073,0.135,43.869,-0.284,-0.499
'[12:49:06.002 25/01/1995]',0.104,0.109,0.169,43.869,-0.284,-0.499
'[12:49:06.004 25/01/1995]',0.104,0.109,0.169,43.869,-0.284,-0.499
'[12:49:06.006 25/01/1995]',0.089,0.109,0.169,43.869,-0.284,-0.499
'[12:49:06.008 25/01/1995]',0.089,0.073,0.135,44.045,-0.206,-0.497
'[12:49:06.010 25/01/1995]',0.074,0.073,0.135,44.045,-0.206,-0.497
'[12:49:06.012 25/01/1995]',0.074,0.073,0.135,44.045,-0.206,-0.497
'[12:49:06.014 25/01/1995]',0.074,0.073,0.102,44.045,-0.206,-0.497
'[12:49:06.016 25/01/1995]',0.074,0.073,0.102,44.045,-0.120,-0.497
'[12:49:06.018 25/01/1995]',0.074,0.073,0.102,44.045,-0.120,-0.497
'[12:49:06.020 25/01/1995]',0.059,0.073,0.068,44.045,-0.120,-0.497
'[12:49:06.022 25/01/1995]',0.059,0.037,0.068,44.045,-0.120,-0.497
'[12:49:06.024 25/01/1995]',0.030,0.037,0.068,43.869,-0.029,-0.497
'[12:49:06.026 25/01/1995]',0.030,0.037,0.035,43.869,-0.029,-0.497
'[12:49:06.028 25/01/1995]',0.015,0.003,0.035,43.869,-0.029,-0.497
'[12:49:06.030 25/01/1995]',0.015,0.003,0.035,43.869,-0.029,-0.497
'[12:49:06.032 25/01/1995]',0.001,0.003,0.003,43.643,0.065,-0.499
'[12:49:06.034 25/01/1995]',0.001,0.003,0.003,43.643,0.065,-0.499
'[12:49:06.036 25/01/1995]',0.001,0.003,0.003,43.643,0.065,-0.499
'[12:49:06.038 25/01/1995]',0.001,0.003,0.003,43.643,0.065,-0.499
'[12:49:06.040 25/01/1995]',-0.013,0.003,0.003,43.291,0.153,-0.501
'[12:49:06.042 25/01/1995]',-0.028,0.003,-0.030,43.291,0.153,-0.501
'[12:49:06.044 25/01/1995]',-0.028,-0.033,-0.030,43.291,0.153,-0.501
'[12:49:06.046 25/01/1995]',-0.028,-0.033,-0.030,43.291,0.153,-0.501
'[12:49:06.048 25/01/1995]',-0.028,0.003,-0.030,42.764,0.235,-0.503
'[12:49:06.050 25/01/1995]',-0.028,0.003,-0.030,42.764,0.235,-0.503
'[12:49:06.052 25/01/1995]',-0.028,0.003,-0.030,42.764,0.235,-0.503
'[12:49:06.054 25/01/1995]',-0.028,-0.033,-0.030,42.764,0.235,-0.503
'[12:49:06.056 25/01/1995]',-0.028,-0.033,-0.030,42.060,0.305,-0.505
'[12:49:06.058 25/01/1995]',-0.028,-0.033,-0.030,42.060,0.305,-0.505
'[12:49:06.060 25/01/1995]',-0.028,-0.033,-0.030,42.060,0.305,-0.505
'[12:49:06.062 25/01/1995]',-0.028,-0.033,-0.030,42.060,0.305,-0.505
'[12:49:06.064 25/01/1995]',-0.028,-0.033,-0.030,41.106,0.362,-0.507
'[12:49:06.066 25/01/1995]',-0.028,0.003,-0.030,41.106,0.362,-0.507
'[12:49:06.068 25/01/1995]',-0.028,0.003,-0.030,41.106,0.362,-0.507
'[12:49:06.070 25/01/1995]',-0.013,0.003,-0.030,41.106,0.362,-0.507
'[12:49:06.072 25/01/1995]',-0.013,0.003,-0.030,39.874,0.406,-0.509
'[12:49:06.074 25/01/1995]',-0.013,0.003,-0.030,39.874,0.406,-0.509
'[12:49:06.076 25/01/1995]',-0.028,-0.033,-0.030,39.874,0.406,-0.509
'[12:49:06.078 25/01/1995]',-0.043,-0.033,-0.030,39.874,0.406,-0.509
'[12:49:06.080 25/01/1995]',-0.028,-0.033,-0.030,38.291,0.438,-0.510
'[12:49:06.082 25/01/1995]',-0.043,-0.033,-0.030,38.291,0.438,-0.510
'[12:49:06.084 25/01/1995]',-0.057,-0.033,-0.030,38.291,0.438,-0.510
'[12:49:06.086 25/01/1995]',-0.057,-0.033,-0.030,38.291,0.438,-0.510
'[12:49:06.088 25/01/1995]',-0.057,-0.033,-0.030,36.583,0.455,-0.512
'[12:49:06.090 25/01/1995]',-0.057,-0.033,-0.030,36.583,0.455,-0.512
'[12:49:06.092 25/01/1995]',-0.057,-0.033,-0.030,36.583,0.455,-0.512
'[12:49:06.094 25/01/1995]',-0.057,-0.033,-0.030,36.583,0.455,-0.512
'[12:49:06.096 25/01/1995]',-0.057,-0.033,-0.030,35.050,0.463,-0.514
'[12:49:06.098 25/01/1995]',-0.057,-0.033,-0.030,35.050,0.463,-0.514
'[12:49:06.100 25/01/1995]',-0.057,-0.033,-0.030,35.050,0.463,-0.514
'[12:49:06.102 25/01/1995]',-0.057,-0.033,-0.030,35.050,0.463,-0.514
'[12:49:06.104 25/01/1995]',-0.057,-0.033,-0.030,33.794,0.460,-0.517
'[12:49:06.106 25/01/1995]',-0.057,-0.033,-0.030,33.794,0.460,-0.517
'[12:49:06.108 25/01/1995]',-0.057,-0.033,-0.030,33.794,0.460,-0.517
'[12:49:06.110 25/01/1995]',-0.057,-0.033,-0.030,33.794,0.460,-0.517
'[12:49:06.112 25/01/1995]',-0.057,-0.033,-0.030,32.638,0.451,-0.519
'[12:49:06.114 25/01/1995]',-0.057,-0.033,-0.030,32.638,0.451,-0.519
'[12:49:06.116 25/01/1995]',-0.057,-0.033,0.003,32.638,0.451,-0.519
'[12:49:06.118 25/01/1995]',-0.043,-0.033,0.003,32.638,0.451,-0.519
'[12:49:06.120 25/01/1995]',-0.057,-0.033,0.003,31.206,0.433,-0.520
'[12:49:06.122 25/01/1995]',-0.057,-0.033,0.003,31.206,0.433,-0.520
'[12:49:06.124 25/01/1995]',-0.057,-0.033,0.003,31.206,0.433,-0.520
'[12:49:06.126 25/01/1995]',-0.057,-0.033,0.003,31.206,0.433,-0.520
'[12:49:06.128 25/01/1995]',-0.057,-0.068,0.003,29.397,0.408,-0.520
'[12:49:06.130 25/01/1995]',-0.057,-0.033,0.003,29.397,0.408,-0.520
'[12:49:06.132 25/01/1995]',-0.057,-0.068,0.003,29.397,0.408,-0.520
'[12:49:06.134 25/01/1995]',-0.072,-0.068,0.003,29.397,0.408,-0.520
'[12:49:06.136 25/01/1995]',-0.072,-0.068,0.003,27.513,0.380,-0.519
'[12:49:06.138 25/01/1995]',-0.072,-0.068,0.003,27.513,0.380,-0.519
'[12:49:06.140 25/01/1995]',-0.072,-0.068,0.003,27.513,0.380,-0.519
'[12:49:06.142 25/01/1995]',-0.072,-0.068,0.003,27.513,0.380,-0.519
'[12:49:06.144 25/01/1995]',-0.057,-0.068,0.003,26.256,0.345,-0.518
'[12:49:06.146 25/01/1995]',-0.057,-0.068,0.003,26.256,0.345,-0.518
'[12:49:06.148 25/01/1995]',-0.057,-0.033,0.003,26.256,0.345,-0.518
'[12:49:06.150 25/01/1995]',-0.028,-0.033,0.003,26.256,0.345,-0.518
'[12:49:06.152 25/01/1995]',-0.013,0.003,0.035,25.804,0.306,-0.517
'[12:49:06.154 25/01/1995]',0.001,0.003,0.035,25.804,0.306,-0.517
'[12:49:06.156 25/01/1995]',0.001,0.003,0.068,25.804,0.306,-0.517
'[12:49:06.158 25/01/1995]',0.015,0.003,0.068,25.804,0.306,-0.517
'[12:49:06.160 25/01/1995]',0.015,0.003,0.068,25.980,0.264,-0.516
'[12:49:06.162 25/01/1995]',0.015,0.037,0.102,25.980,0.264,-0.516
'[12:49:06.164 25/01/1995]',0.015,0.003,0.102,25.980,0.264,-0.516
'[12:49:06.166 25/01/1995]',0.001,0.003,0.102,25.980,0.264,-0.516
'[12:49:06.168 25/01/1995]',0.001,0.003,0.102,26.206,0.217,-0.516
'[12:49:06.170 25/01/1995]',0.001,0.003,0.068,26.206,0.217,-0.516
'[12:49:06.172 25/01/1995]',0.015,0.003,0.068,26.206,0.217,-0.516
'[12:49:06.174 25/01/1995]',0.015,0.003,0.068,26.206,0.217,-0.516
'[12:49:06.176 25/01/1995]',0.015,0.003,0.068,26.206,0.169,-0.515
'[12:49:06.178 25/01/1995]',0.015,0.003,0.068,26.206,0.169,-0.515
'[12:49:06.180 25/01/1995]',0.015,0.003,0.068,26.206,0.169,-0.515
'[12:49:06.182 25/01/1995]',0.001,0.003,0.068,26.206,0.169,-0.515
'[12:49:06.184 25/01/1995]',0.001,0.003,0.035,26.080,0.120,-0.514
'[12:49:06.186 25/01/1995]',0.001,0.003,0.035,26.080,0.120,-0.514
'[12:49:06.188 25/01/1995]',0.001,0.003,0.035,26.080,0.120,-0.514
'[12:49:06.190 25/01/1995]',0.001,0.003,0.035,26.080,0.120,-0.514
'[12:49:06.192 25/01/1995]',0.001,0.003,0.035,26.156,0.070,-0.512
'[12:49:06.194 25/01/1995]',0.001,0.003,0.035,26.156,0.070,-0.512
'[12:49:06.196 25/01/1995]',-0.013,0.003,0.035,26.156,0.070,-0.512
'[12:49:06.198 25/01/1995]',-0.013,0.003,0.003,26.156,0.070,-0.512
'[12:49:06.200 25/01/1995]',-0.013,0.003,0.003,26.558,0.021,-0.510
'[12:49:06.202 25/01/1995]',-0.013,0.003,0.003,26.558,0.021,-0.510
'[12:49:06.204 25/01/1995]',0.001,0.003,0.003,26.558,0.021,-0.510
'[12:49:06.206 25/01/1995]',0.001,0.003,0.003,26.558,0.021,-0.510
'[12:49:06.208 25/01/1995]',-0.013,0.003,0.003,27.261,-0.028,-0.508
'[12:49:06.210 25/01/1995]',-0.043,-0.033,0.003,27.261,-0.028,-0.508
'[12:49:06.212 25/01/1995]',-0.072,-0.033,0.003,27.261,-0.028,-0.508
'[12:49:06.214 25/01/1995]',-0.072,-0.068,0.003,27.261,-0.028,-0.508
'[12:49:06.216 25/01/1995]',-0.072,-0.068,0.003,28.040,-0.074,-0.507
'[12:49:06.218 25/01/1995]',-0.087,-0.068,0.003,28.040,-0.074,-0.507
'[12:49:06.220 25/01/1995]',-0.087,-0.068,0.003,28.040,-0.074,-0.507
'[12:49:06.222 25/01/1995]',-0.072,-0.068,0.003,28.040,-0.074,-0.507
'[12:49:06.224 25/01/1995]',-0.072,-0.068,0.003,28.568,-0.117,-0.505
'[12:49:06.226 25/01/1995]',-0.072,-0.068,0.003,28.568,-0.117,-0.505
'[12:49:06.228 25/01/1995]',-0.072,-0.068,0.003,28.568,-0.117,-0.505
'[12:49:06.230 25/01/1995]',-0.087,-0.068,0.003,28.568,-0.117,-0.505
'[12:49:06.232 25/01/1995]',-0.102,-0.068,0.003,28.869,-0.156,-0.504
'[12:49:06.234 25/01/1995]',-0.102,-0.104,0.003,28.869,-0.156,-0.504
'[12:49:06.236 25/01/1995]',-0.102,-0.104,0.003,28.869,-0.156,-0.504
'[12:49:06.238 25/01/1995]',-0.102,-0.068,0.003,28.869,-0.156,-0.504
'[12:49:06.240 25/01/1995]',-0.102,-0.104,0.003,29.045,-0.190,-0.503
'[12:49:06.242 25/01/1995]',-0.102,-0.104,0.003,29.045,-0.190,-0.503
'[12:49:06.244 25/01/1995]',-0.102,-0.104,0.003,29.045,-0.190,-0.503
'[12:49:06.246 25/01/1995]',-0.102,-0.104,0.003,29.045,-0.190,-0.503
'[12:49:06.248 25/01/1995]',-0.102,-0.104,0.003,29.146,-0.222,-0.500
'[12:49:06.250 25/01/1995]',-0.116,-0.104,0.003,29.146,-0.222,-0.500
'[12:49:06.252 25/01/1995]',-0.116,-0.104,0.003,29.146,-0.222,-0.500
'[12:49:06.254 25/01/1995]',-0.116,-0.104,0.003,29.146,-0.222,-0.500
'[12:49:06.256 25/01/1995]',-0.116,-0.104,0.003,29.146,-0.249,-0.497
'[12:49:06.258 25/01/1995]',-0.116,-0.104,0.003,29.146,-0.249,-0.497
'[12:49:06.260 25/01/1995]',-0.102,-0.104,0.003,29.146,-0.249,-0.497
'[12:49:06.262 25/01/1995]',-0.102,-0.104,0.003,29.146,-0.249,-0.497
'[12:49:06.264 25/01/1995]',-0.102,-0.104,0.003,29.045,-0.271,-0.494
'[12:49:06.266 25/01/1995]',-0.102,-0.068,0.003,29.045,-0.271,-0.494
'[12:49:06.268 25/01/1995]',-0.102,-0.068,0.003,29.045,-0.271,-0.494
'[12:49:06.270 25/01/1995]',-0.102,-0.104,0.003,29.045,-0.271,-0.494
'[12:49:06.272 25/01/1995]',-0.102,-0.104,0.003,28.693,-0.290,-0.490
'[12:49:06.274 25/01/1995]',-0.102,-0.104,0.003,28.693,-0.290,-0.490
'[12:49:06.276 25/01/1995]',-0.116,-0.104,0.003,28.693,-0.290,-0.490
'[12:49:06.278 25/01/1995]',-0.102,-0.104,0.003,28.693,-0.290,-0.490
'[12:49:06.280 25/01/1995]',-0.116,-0.104,0.003,28.216,-0.306,-0.485
'[12:49:06.282 25/01/1995]',-0.102,-0.104,0.003,28.216,-0.306,-0.485
'[12:49:06.284 25/01/1995]',-0.102,-0.068,0.003,28.216,-0.306,-0.485
'[12:49:06.286 25/01/1995]',-0.102,-0.068,0.003,28.216,-0.306,-0.485
'[12:49:06.288 25/01/1995]',-0.102,-0.104,0.003,27.739,-0.320,-0.480
'[12:49:06.290 25/01/1995]',-0.102,-0.068,0.003,27.739,-0.320,-0.480
'[12:49:06.292 25/01/1995]',-0.102,-0.104,0.003,27.739,-0.320,-0.480
'[12:49:06.294 25/01/1995]',-0.102,-0.104,0.003,27.739,-0.320,-0.480
'[12:49:06.296 25/01/1995]',-0.102,-0.104,0.003,27.337,-0.329,-0.475
'[12:49:06.298 25/01/1995]',-0.116,-0.104,0.003,27.337,-0.329,-0.475
'[12:49:06.300 25/01/1995]',-0.102,-0.104,0.003,27.337,-0.329,-0.475
'[12:49:06.302 25/01/1995]',-0.102,-0.104,0.003,27.337,-0.329,-0.475
'[12:49:06.304 25/01/1995]',-0.102,-0.068,0.003,26.910,-0.338,-0.469
'[12:49:06.306 25/01/1995]',-0.102,-0.068,0.003,26.910,-0.338,-0.469
'[12:49:06.308 25/01/1995]',-0.102,-0.068,0.003,26.910,-0.338,-0.469
'[12:49:06.310 25/01/1995]',-0.087,-0.068,0.003,26.910,-0.338,-0.469
'[12:49:06.312 25/01/1995]',-0.102,-0.068,0.003,26.457,-0.344,-0.465
'[12:49:06.314 25/01/1995]',-0.087,-0.068,0.003,26.457,-0.344,-0.465
'[12:49:06.316 25/01/1995]',-0.072,-0.068,0.035,26.457,-0.344,-0.465
'[12:49:06.318 25/01/1995]',-0.057,-0.033,0.035,26.457,-0.344,-0.465
'[12:49:06.320 25/01/1995]',-0.043,-0.033,0.035,25.905,-0.349,-0.460
'[12:49:06.322 25/01/1995]',-0.028,-0.033,0.068,25.905,-0.349,-0.460
'[12:49:06.324 25/01/1995]',-0.028,-0.033,0.068,25.905,-0.349,-0.460
'[12:49:06.326 25/01/1995]',-0.013,0.003,0.068,25.905,-0.349,-0.460
'[12:49:06.328 25/01/1995]',0.001,0.003,0.102,25.276,-0.353,-0.455
'[12:49:06.330 25/01/1995]',0.001,0.003,0.102,25.276,-0.353,-0.455
'[12:49:06.332 25/01/1995]',0.001,0.003,0.135,25.276,-0.353,-0.455
'[12:49:06.334 25/01/1995]',0.015,0.037,0.135,25.276,-0.353,-0.455
'[12:49:06.336 25/01/1995]',0.030,0.037,0.169,24.673,-0.358,-0.450
'[12:49:06.338 25/01/1995]',0.045,0.037,0.169,24.673,-0.358,-0.450
'[12:49:06.340 25/01/1995]',0.045,0.037,0.169,24.673,-0.358,-0.450
'[12:49:06.342 25/01/1995]',0.045,0.037,0.135,24.673,-0.358,-0.450
'[12:49:06.344 25/01/1995]',0.059,0.073,0.102,24.095,-0.363,-0.446
'[12:49:06.346 25/01/1995]',0.074,0.073,0.068,24.095,-0.363,-0.446
'[12:49:06.348 25/01/1995]',0.104,0.109,0.035,24.095,-0.363,-0.446
'[12:49:06.350 25/01/1995]',0.133,0.145,0.035,24.095,-0.363,-0.446
'[12:49:06.352 25/01/1995]',0.207,0.217,0.035,23.618,-0.365,-0.443
'[12:49:06.354 25/01/1995]',0.309,0.324,0.035,23.618,-0.365,-0.443
'[12:49:06.356 25/01/1995]',0.397,0.432,0.003,23.618,-0.365,-0.443
'[12:49:06.358 25/01/1995]',0.514,0.537,0.003,23.618,-0.365,-0.443
'[12:49:06.360 25/01/1995]',0.588,0.645,0.003,23.216,-0.368,-0.440
'[12:49:06.362 25/01/1995]',0.588,0.645,-0.030,23.216,-0.368,-0.440
'[12:49:06.364 25/01/1995]',0.558,0.609,-0.064,23.216,-0.368,-0.440
'[12:49:06.366 25/01/1995]',0.470,0.503,-0.097,23.216,-0.368,-0.440
'[12:49:06.368 25/01/1995]',0.309,0.324,-0.131,22.864,-0.372,-0.437
'[12:49:06.370 25/01/1995]',0.162,0.145,-0.164,22.864,-0.372,-0.437
'[12:49:06.372 25/01/1995]',0.030,0.003,-0.198,22.864,-0.372,-0.437
'[12:49:06.374 25/01/1995]',-0.072,-0.068,-0.198,22.864,-0.372,-0.437
'[12:49:06.376 25/01/1995]',-0.160,-0.176,-0.198,22.563,-0.374,-0.435
'[12:49:06.378 25/01/1995]',-0.219,-0.212,-0.164,22.563,-0.374,-0.435
'[12:49:06.380 25/01/1995]',-0.292,-0.319,-0.164,22.563,-0.374,-0.435
'[12:49:06.382 25/01/1995]',-0.351,-0.391,-0.198,22.563,-0.374,-0.435
'[12:49:06.384 25/01/1995]',-0.424,-0.427,-0.198,22.387,-0.377,-0.433
'[12:49:06.386 25/01/1995]',-0.453,-0.463,-0.231,22.387,-0.377,-0.433
'[12:49:06.388 25/01/1995]',-0.483,-0.498,-0.231,22.387,-0.377,-0.433
'[12:49:06.390 25/01/1995]',-0.483,-0.498,-0.231,22.387,-0.377,-0.433
'[12:49:06.392 25/01/1995]',-0.483,-0.498,-0.231,22.312,-0.379,-0.432
'[12:49:06.394 25/01/1995]',-0.439,-0.463,-0.198,22.312,-0.379,-0.432
'[12:49:06.396 25/01/1995]',-0.410,-0.427,-0.164,22.312,-0.379,-0.432
'[12:49:06.398 25/01/1995]',-0.351,-0.355,-0.164,22.312,-0.379,-0.432
'[12:49:06.400 25/01/1995]',-0.307,-0.319,-0.131,22.261,-0.382,-0.432
'[12:49:06.402 25/01/1995]',-0.263,-0.248,-0.097,22.261,-0.382,-0.432
'[12:49:06.404 25/01/1995]',-0.233,-0.212,-0.064,22.261,-0.382,-0.432
'[12:49:06.406 25/01/1995]',-0.205,-0.212,-0.064,22.261,-0.382,-0.432
'[12:49:06.408 25/01/1995]',-0.205,-0.212,-0.064,22.211,-0.385,-0.432
'[12:49:06.410 25/01/1995]',-0.190,-0.176,-0.030,22.211,-0.385,-0.432
'[12:49:06.412 25/01/1995]',-0.190,-0.176,-0.030,22.211,-0.385,-0.432
'[12:49:06.414 25/01/1995]',-0.190,-0.176,-0.030,22.211,-0.385,-0.432
'[12:49:06.416 25/01/1995]',-0.175,-0.176,-0.030,22.211,-0.389,-0.433
'[12:49:06.418 25/01/1995]',-0.175,-0.176,-0.030,22.211,-0.389,-0.433
'[12:49:06.420 25/01/1995]',-0.190,-0.176,-0.030,22.211,-0.389,-0.433
'[12:49:06.422 25/01/1995]',-0.160,-0.176,-0.030,22.211,-0.389,-0.433
'[12:49:06.424 25/01/1995]',-0.160,-0.176,0.003,22.136,-0.393,-0.434
'[12:49:06.426 25/01/1995]',-0.160,-0.140,0.003,22.136,-0.393,-0.434
'[12:49:06.428 25/01/1995]',-0.160,-0.140,0.003,22.136,-0.393,-0.434
'[12:49:06.430 25/01/1995]',-0.160,-0.140,0.003,22.136,-0.393,-0.434
'[12:49:06.432 25/01/1995]',-0.160,-0.176,0.003,22.211,-0.398,-0.436
'[12:49:06.434 25/01/1995]',-0.160,-0.176,0.003,22.211,-0.398,-0.436
'[12:49:06.436 25/01/1995]',-0.160,-0.176,0.003,22.211,-0.398,-0.436
'[12:49:06.438 25/01/1995]',-0.160,-0.176,0.003,22.211,-0.398,-0.436
'[12:49:06.440 25/01/1995]',-0.160,-0.176,0.003,22.261,-0.403,-0.439
'[12:49:06.442 25/01/1995]',-0.160,-0.176,0.003,22.261,-0.403,-0.439
'[12:49:06.444 25/01/1995]',-0.160,-0.140,0.003,22.261,-0.403,-0.439
'[12:49:06.446 25/01/1995]',-0.146,-0.140,0.003,22.261,-0.403,-0.439
'[12:49:06.448 25/01/1995]',-0.146,-0.140,0.003,22.437,-0.410,-0.442
'[12:49:06.450 25/01/1995]',-0.131,-0.140,0.003,22.437,-0.410,-0.442
'[12:49:06.452 25/01/1995]',-0.146,-0.140,0.003,22.437,-0.410,-0.442
'[12:49:06.454 25/01/1995]',-0.131,-0.104,0.003,22.437,-0.410,-0.442
'[12:49:06.456 25/01/1995]',-0.116,-0.104,0.003,22.864,-0.417,-0.446
'[12:49:06.458 25/01/1995]',-0.116,-0.140,0.003,22.864,-0.417,-0.446
'[12:49:06.460 25/01/1995]',-0.116,-0.140,0.003,22.864,-0.417,-0.446
'[12:49:06.462 25/01/1995]',-0.116,-0.140,0.003,22.864,-0.417,-0.446
'[12:49:06.464 25/01/1995]',-0.116,-0.104,0.003,23.668,-0.424,-0.451
'[12:49:06.466 25/01/1995]',-0.131,-0.104,0.003,23.668,-0.424,-0.451
'[12:49:06.468 25/01/1995]',-0.116,-0.104,0.003,23.668,-0.424,-0.451
'[12:49:06.470 25/01/1995]',-0.116,-0.104,0.003,23.668,-0.424,-0.451
'[12:49:06.472 25/01/1995]',-0.102,-0.104,0.003,25.025,-0.432,-0.455
'[12:49:06.474 25/01/1995]',-0.087,-0.068,0.035,25.025,-0.432,-0.455
'[12:49:06.476 25/01/1995]',-0.057,-0.068,0.035,25.025,-0.432,-0.455
'[12:49:06.478 25/01/1995]',-0.043,-0.033,0.068,25.025,-0.432,-0.455
'[12:49:06.480 25/01/1995]',-0.028,-0.033,0.068,26.910,-0.440,-0.460
'[12:49:06.482 25/01/1995]',-0.013,0.003,0.102,26.910,-0.440,-0.460
'[12:49:06.484 25/01/1995]',0.001,0.003,0.102,26.910,-0.440,-0.460
'[12:49:06.486 25/01/1995]',0.001,0.003,0.102,26.910,-0.440,-0.460
'[12:49:06.488 25/01/1995]',0.001,0.003,0.102,28.794,-0.445,-0.465
'[12:49:06.490 25/01/1995]',0.001,0.003,0.102,28.794,-0.445,-0.465
'[12:49:06.492 25/01/1995]',0.001,0.003,0.102,28.794,-0.445,-0.465
'[12:49:06.494 25/01/1995]',0.015,0.003,0.102,28.794,-0.445,-0.465
'[12:49:06.496 25/01/1995]',0.015,0.003,0.102,30.025,-0.452,-0.469
'[12:49:06.498 25/01/1995]',0.015,0.003,0.102,30.025,-0.452,-0.469
'[12:49:06.500 25/01/1995]',0.015,0.003,0.068,30.025,-0.452,-0.469
'[12:49:06.502 25/01/1995]',0.015,0.003,0.068,30.025,-0.452,-0.469
'[12:49:06.504 25/01/1995]',0.015,0.003,0.068,30.151,-0.457,-0.473
'[12:49:06.506 25/01/1995]',0.015,0.003,0.068,30.151,-0.457,-0.473
'[12:49:06.508 25/01/1995]',0.015,0.003,0.035,30.151,-0.457,-0.473
'[12:49:06.510 25/01/1995]',0.015,0.003,0.035,30.151,-0.457,-0.473
'[12:49:06.512 25/01/1995]',0.015,0.003,0.035,29.146,-0.463,-0.476
'[12:49:06.514 25/01/1995]',0.015,0.003,0.035,29.146,-0.463,-0.476
'[12:49:06.516 25/01/1995]',0.015,0.003,0.035,29.146,-0.463,-0.476
'[12:49:06.518 25/01/1995]',0.015,0.003,0.035,29.146,-0.463,-0.476
'[12:49:06.520 25/01/1995]',0.030,0.003,0.003,27.337,-0.468,-0.479
'[12:49:06.522 25/01/1995]',0.030,0.037,0.003,27.337,-0.468,-0.479
'[12:49:06.524 25/01/1995]',0.030,0.037,0.003,27.337,-0.468,-0.479
'[12:49:06.526 25/01/1995]',0.045,0.037,0.003,27.337,-0.468,-0.479
'[12:49:06.528 25/01/1995]',0.059,0.037,0.003,25.377,-0.473,-0.480
'[12:49:06.530 25/01/1995]',0.059,0.037,0.003,25.377,-0.473,-0.480
'[12:49:06.532 25/01/1995]',0.074,0.073,0.003,25.377,-0.473,-0.480
'[12:49:06.534 25/01/1995]',0.074,0.073,0.003,25.377,-0.473,-0.480
'[12:49:06.536 25/01/1995]',0.074,0.073,0.003,23.970,-0.477,-0.479
'[12:49:06.538 25/01/1995]',0.089,0.073,0.003,23.970,-0.477,-0.479
'[12:49:06.540 25/01/1995]',0.104,0.109,0.003,23.970,-0.477,-0.479
'[12:49:06.542 25/01/1995]',0.104,0.109,0.003,23.970,-0.477,-0.479
'[12:49:06.544 25/01/1995]',0.118,0.109,0.003,23.618,-0.481,-0.477
'[12:49:06.546 25/01/1995]',0.118,0.109,0.003,23.618,-0.481,-0.477
'[12:49:06.548 25/01/1995]',0.118,0.109,0.003,23.618,-0.481,-0.477
'[12:49:06.550 25/01/1995]',0.118,0.109,0.003,23.618,-0.481,-0.477
'[12:49:06.552 25/01/1995]',0.133,0.109,0.003,24.372,-0.484,-0.473
'[12:49:06.554 25/01/1995]',0.118,0.145,0.003,24.372,-0.484,-0.473
'[12:49:06.556 25/01/1995]',0.148,0.145,0.003,24.372,-0.484,-0.473
'[12:49:06.558 25/01/1995]',0.148,0.145,0.003,24.372,-0.484,-0.473
'[12:49:06.560 25/01/1995]',0.148,0.145,0.003,25.980,-0.488,-0.469
'[12:49:06.562 25/01/1995]',0.162,0.181,0.003,25.980,-0.488,-0.469
'[12:49:06.564 25/01/1995]',0.162,0.181,0.003,25.980,-0.488,-0.469
'[12:49:06.566 25/01/1995]',0.162,0.181,0.003,25.980,-0.488,-0.469
'[12:49:06.568 25/01/1995]',0.162,0.181,0.003,28.090,-0.490,-0.464
'[12:49:06.570 25/01/1995]',0.177,0.181,0.003,28.090,-0.490,-0.464
'[12:49:06.572 25/01/1995]',0.177,0.181,0.035,28.090,-0.490,-0.464
'[12:49:06.574 25/01/1995]',0.177,0.181,0.035,28.090,-0.490,-0.464
'[12:49:06.576 25/01/1995]',0.177,0.181,0.035,30.578,-0.491,-0.459
'[12:49:06.578 25/01/1995]',0.177,0.181,0.035,30.578,-0.491,-0.459
'[12:49:06.580 25/01/1995]',0.162,0.181,0.003,30.578,-0.491,-0.459
'[12:49:06.582 25/01/1995]',0.162,0.181,0.035,30.578,-0.491,-0.459
'[12:49:06.584 25/01/1995]',0.162,0.181,0.035,33.216,-0.494,-0.454
'[12:49:06.586 25/01/1995]',0.162,0.181,0.003,33.216,-0.494,-0.454
'[12:49:06.588 25/01/1995]',0.162,0.181,0.035,33.216,-0.494,-0.454
'[12:49:06.590 25/01/1995]',0.162,0.181,0.035,33.216,-0.494,-0.454
'[12:49:06.592 25/01/1995]',0.177,0.181,0.035,36.106,-0.494,-0.449
'[12:49:06.594 25/01/1995]',0.162,0.181,0.035,36.106,-0.494,-0.449
'[12:49:06.596 25/01/1995]',0.177,0.181,0.035,36.106,-0.494,-0.449
'[12:49:06.598 25/01/1995]',0.177,0.181,0.035,36.106,-0.494,-0.449
'[12:49:06.600 25/01/1995]',0.177,0.181,0.035,38.920,-0.492,-0.443
'[12:49:06.602 25/01/1995]',0.177,0.181,0.035,38.920,-0.492,-0.443
'[12:49:06.604 25/01/1995]',0.162,0.181,0.035,38.920,-0.492,-0.443
'[12:49:06.606 25/01/1995]',0.162,0.181,0.035,38.920,-0.492,-0.443
'[12:49:06.608 25/01/1995]',0.162,0.181,0.035,41.533,-0.485,-0.436
'[12:49:06.610 25/01/1995]',0.162,0.181,0.035,41.533,-0.485,-0.436
'[12:49:06.612 25/01/1995]',0.148,0.145,0.035,41.533,-0.485,-0.436
'[12:49:06.614 25/01/1995]',0.133,0.145,0.035,41.533,-0.485,-0.436
'[12:49:06.616 25/01/1995]',0.118,0.109,0.035,43.869,-0.472,-0.429
'[12:49:06.618 25/01/1995]',0.104,0.109,0.003,43.869,-0.472,-0.429
'[12:49:06.620 25/01/1995]',0.104,0.109,0.035,43.869,-0.472,-0.429
'[12:49:06.622 25/01/1995]',0.089,0.073,0.035,43.869,-0.472,-0.429
'[12:49:06.624 25/01/1995]',0.074,0.073,0.035,45.829,-0.449,-0.422
'[12:49:06.626 25/01/1995]',0.074,0.073,0.035,45.829,-0.449,-0.422
'[12:49:06.628 25/01/1995]',0.074,0.073,0.035,45.829,-0.449,-0.422
'[12:49:06.630 25/01/1995]',0.074,0.073,0.068,45.829,-0.449,-0.422
'[12:49:06.632 25/01/1995]',0.089,0.073,0.068,47.588,-0.415,-0.416
'[12:49:06.634 25/01/1995]',0.089,0.109,0.102,47.588,-0.415,-0.416
'[12:49:06.636 25/01/1995]',0.089,0.109,0.102,47.588,-0.415,-0.416
'[12:49:06.638 25/01/1995]',0.104,0.109,0.102,47.588,-0.415,-0.416
'[12:49:06.640 25/01/1995]',0.104,0.109,0.102,48.995,-0.366,-0.410
'[12:49:06.642 25/01/1995]',0.089,0.073,0.102,48.995,-0.366,-0.410
'[12:49:06.644 25/01/1995]',0.074,0.073,0.102,48.995,-0.366,-0.410
'[12:49:06.646 25/01/1995]',0.059,0.073,0.102,48.995,-0.366,-0.410
'[12:49:06.648 25/01/1995]',0.045,0.037,0.102,50.176,-0.302,-0.405
'[12:49:06.650 25/01/1995]',0.045,0.037,0.068,50.176,-0.302,-0.405
'[12:49:06.652 25/01/1995]',0.045,0.037,0.068,50.176,-0.302,-0.405
'[12:49:06.654 25/01/1995]',0.030,0.037,0.068,50.176,-0.302,-0.405
'[12:49:06.656 25/01/1995]',0.030,0.037,0.068,50.955,-0.227,-0.399
'[12:49:06.658 25/01/1995]',0.015,0.037,0.035,50.955,-0.227,-0.399
'[12:49:06.660 25/01/1995]',0.015,0.003,0.035,50.955,-0.227,-0.399
'[12:49:06.662 25/01/1995]',0.015,0.003,0.035,50.955,-0.227,-0.399
'[12:49:06.664 25/01/1995]',0.015,0.003,0.035,51.307,-0.137,-0.394
'[12:49:06.666 25/01/1995]',0.001,0.003,0.035,51.307,-0.137,-0.394
'[12:49:06.668 25/01/1995]',0.001,0.003,0.003,51.307,-0.137,-0.394
'[12:49:06.670 25/01/1995]',0.001,0.003,0.003,51.307,-0.137,-0.394
'[12:49:06.672 25/01/1995]',0.001,0.003,0.003,51.357,-0.039,-0.390
'[12:49:06.674 25/01/1995]',-0.013,0.003,0.003,51.357,-0.039,-0.390
'[12:49:06.676 25/01/1995]',-0.013,0.003,0.003,51.357,-0.039,-0.390
'[12:49:06.678 25/01/1995]',-0.013,0.003,0.003,51.357,-0.039,-0.390
'[12:49:06.680 25/01/1995]',-0.028,0.003,0.003,51.055,0.061,-0.386
'[12:49:06.682 25/01/1995]',-0.028,-0.033,0.003,51.055,0.061,-0.386
'[12:49:06.684 25/01/1995]',-0.028,-0.033,0.003,51.055,0.061,-0.386
'[12:49:06.686 25/01/1995]',-0.028,0.003,0.003,51.055,0.061,-0.386
'[12:49:06.688 25/01/1995]',-0.028,0.003,0.003,50.578,0.160,-0.382
'[12:49:06.690 25/01/1995]',-0.013,0.003,0.003,50.578,0.160,-0.382
'[12:49:06.692 25/01/1995]',-0.028,0.003,0.003,50.578,0.160,-0.382
'[12:49:06.694 25/01/1995]',-0.028,0.003,0.003,50.578,0.160,-0.382
'[12:49:06.696 25/01/1995]',-0.028,-0.033,0.003,50.050,0.255,-0.377
'[12:49:06.698 25/01/1995]',-0.028,0.003,0.003,50.050,0.255,-0.377
'[12:49:06.700 25/01/1995]',-0.028,0.003,0.003,50.050,0.255,-0.377
'[12:49:06.702 25/01/1995]',-0.028,-0.033,0.003,50.050,0.255,-0.377
'[12:49:06.704 25/01/1995]',-0.028,-0.033,0.003,49.422,0.339,-0.372
'[12:49:06.706 25/01/1995]',-0.028,-0.033,0.003,49.422,0.339,-0.372
'[12:49:06.708 25/01/1995]',-0.028,-0.033,0.003,49.422,0.339,-0.372
'[12:49:06.710 25/01/1995]',-0.028,-0.033,0.003,49.422,0.339,-0.372
'[12:49:06.712 25/01/1995]',-0.043,-0.033,0.003,48.693,0.413,-0.366
'[12:49:06.714 25/01/1995]',-0.028,-0.033,0.003,48.693,0.413,-0.366
'[12:49:06.716 25/01/1995]',-0.028,-0.033,0.003,48.693,0.413,-0.366
'[12:49:06.718 25/01/1995]',-0.028,-0.033,0.003,48.693,0.413,-0.366
'[12:49:06.720 25/01/1995]',-0.028,-0.033,0.003,47.764,0.473,-0.361
'[12:49:06.722 25/01/1995]',-0.028,-0.033,0.003,47.764,0.473,-0.361
'[12:49:06.724 25/01/1995]',-0.028,-0.033,0.003,47.764,0.473,-0.361
'[12:49:06.726 25/01/1995]',-0.028,-0.033,0.003,47.764,0.473,-0.361
'[12:49:06.728 25/01/1995]',-0.028,-0.033,0.003,46.633,0.517,-0.356
'[12:49:06.730 25/01/1995]',-0.028,-0.033,0.003,46.633,0.517,-0.356
'[12:49:06.732 25/01/1995]',-0.028,-0.033,0.003,46.633,0.517,-0.356
'[12:49:06.734 25/01/1995]',-0.028,-0.033,0.003,46.633,0.517,-0.356
'[12:49:06.736 25/01/1995]',-0.028,0.003,0.003,45.302,0.550,-0.351
'[12:49:06.738 25/01/1995]',-0.013,0.003,0.003,45.302,0.550,-0.351
'[12:49:06.740 25/01/1995]',-0.013,0.003,0.003,45.302,0.550,-0.351
'[12:49:06.742 25/01/1995]',-0.013,0.003,0.003,45.302,0.550,-0.351
'[12:49:06.744 25/01/1995]',-0.013,0.003,0.003,43.769,0.571,-0.347
'[12:49:06.746 25/01/1995]',-0.013,0.003,0.003,43.769,0.571,-0.347
'[12:49:06.748 25/01/1995]',-0.013,0.003,0.003,43.769,0.571,-0.347
'[12:49:06.750 25/01/1995]',-0.013,0.003,0.003,43.769,0.571,-0.347
'[12:49:06.752 25/01/1995]',-0.013,0.003,0.003,42.286,0.580,-0.344
'[12:49:06.754 25/01/1995]',-0.013,0.003,0.003,42.286,0.580,-0.344
'[12:49:06.756 25/01/1995]',-0.013,0.003,0.003,42.286,0.580,-0.344
'[12:49:06.758 25/01/1995]',0.001,0.003,0.003,42.286,0.580,-0.344
'[12:49:06.760 25/01/1995]',0.001,0.003,0.003,40.879,0.580,-0.341
'[12:49:06.762 25/01/1995]',0.001,0.003,0.003,40.879,0.580,-0.341
'[12:49:06.764 25/01/1995]',0.001,0.003,0.003,40.879,0.580,-0.341
'[12:49:06.766 25/01/1995]',-0.013,0.003,0.003,40.879,0.580,-0.341
'[12:49:06.768 25/01/1995]',-0.013,0.003,0.003,39.447,0.572,-0.338
'[12:49:06.770 25/01/1995]',-0.013,0.003,0.003,39.447,0.572,-0.338
'[12:49:06.772 25/01/1995]',-0.013,0.003,0.003,39.447,0.572,-0.338
'[12:49:06.774 25/01/1995]',-0.013,0.003,0.003,39.447,0.572,-0.338
'[12:49:06.776 25/01/1995]',-0.013,0.003,0.003,37.814,0.556,-0.335
'[12:49:06.778 25/01/1995]',-0.013,0.003,0.003,37.814,0.556,-0.335
'[12:49:06.780 25/01/1995]',-0.013,0.003,0.003,37.814,0.556,-0.335
'[12:49:06.782 25/01/1995]',-0.013,0.003,0.003,37.814,0.556,-0.335
'[12:49:06.784 25/01/1995]',-0.013,0.003,0.003,35.980,0.534,-0.332
'[12:49:06.786 25/01/1995]',0.001,0.003,0.035,35.980,0.534,-0.332
'[12:49:06.788 25/01/1995]',0.001,0.003,0.035,35.980,0.534,-0.332
'[12:49:06.790 25/01/1995]',0.001,0.003,0.068,35.980,0.534,-0.332
'[12:49:06.792 25/01/1995]',0.015,0.037,0.068,34.045,0.507,-0.329
'[12:49:06.794 25/01/1995]',0.030,0.037,0.102,34.045,0.507,-0.329
'[12:49:06.796 25/01/1995]',0.030,0.037,0.102,34.045,0.507,-0.329
'[12:49:06.798 25/01/1995]',0.045,0.037,0.102,34.045,0.507,-0.329
'[12:49:06.800 25/01/1995]',0.045,0.037,0.102,32.337,0.474,-0.326
'[12:49:06.802 25/01/1995]',0.059,0.037,0.102,32.337,0.474,-0.326
'[12:49:06.804 25/01/1995]',0.059,0.037,0.102,32.337,0.474,-0.326
'[12:49:06.806 25/01/1995]',0.059,0.037,0.102,32.337,0.474,-0.326
'[12:49:06.808 25/01/1995]',0.045,0.037,0.102,31.030,0.434,-0.323
'[12:49:06.810 25/01/1995]',0.030,0.037,0.102,31.030,0.434,-0.323
'[12:49:06.812 25/01/1995]',0.030,0.037,0.068,31.030,0.434,-0.323
'[12:49:06.814 25/01/1995]',0.015,0.037,0.102,31.030,0.434,-0.323
'[12:49:06.816 25/01/1995]',0.015,0.003,0.102,30.226,0.391,-0.319
'[12:49:06.818 25/01/1995]',0.001,0.003,0.102,30.226,0.391,-0.319
'[12:49:06.820 25/01/1995]',0.001,0.003,0.102,30.226,0.391,-0.319
'[12:49:06.822 25/01/1995]',0.001,0.003,0.102,30.226,0.391,-0.319
'[12:49:06.824 25/01/1995]',-0.013,0.003,0.102,29.749,0.344,-0.316
'[12:49:06.826 25/01/1995]',-0.028,-0.033,0.102,29.749,0.344,-0.316
'[12:49:06.828 25/01/1995]',-0.028,-0.033,0.068,29.749,0.344,-0.316
'[12:49:06.830 25/01/1995]',-0.028,-0.033,0.035,29.749,0.344,-0.316
'[12:49:06.832 25/01/1995]',-0.013,0.003,0.035,29.397,0.293,-0.311
'[12:49:06.834 25/01/1995]',0.001,0.003,0.003,29.397,0.293,-0.311
'[12:49:06.836 25/01/1995]',0.030,0.037,0.003,29.397,0.293,-0.311
'[12:49:06.838 25/01/1995]',0.118,0.109,0.003,29.397,0.293,-0.311
'[12:49:06.840 25/01/1995]',0.207,0.217,0.003,29.095,0.240,-0.307
'[12:49:06.842 25/01/1995]',0.309,0.360,0.003,29.095,0.240,-0.307
'[12:49:06.844 25/01/1995]',0.441,0.467,0.003,29.095,0.240,-0.307
'[12:49:06.846 25/01/1995]',0.514,0.537,-0.030,29.095,0.240,-0.307
'[12:49:06.848 25/01/1995]',0.529,0.573,-0.030,28.744,0.184,-0.303
'[12:49:06.850 25/01/1995]',0.485,0.503,-0.064,28.744,0.184,-0.303
'[12:49:06.852 25/01/1995]',0.353,0.360,-0.064,28.744,0.184,-0.303
'[12:49:06.854 25/01/1995]',0.192,0.181,-0.097,28.744,0.184,-0.303
'[12:49:06.856 25/01/1995]',0.045,0.037,-0.131,28.518,0.130,-0.300
'[12:49:06.858 25/01/1995]',-0.072,-0.068,-0.164,28.518,0.130,-0.300
'[12:49:06.860 25/01/1995]',-0.160,-0.176,-0.164,28.518,0.130,-0.300
'[12:49:06.862 25/01/1995]',-0.248,-0.248,-0.164,28.518,0.130,-0.300
'[12:49:06.864 25/01/1995]',-0.322,-0.355,-0.198,28.568,0.076,-0.296
'[12:49:06.866 25/01/1995]',-0.366,-0.391,-0.198,28.568,0.076,-0.296
'[12:49:06.868 25/01/1995]',-0.395,-0.427,-0.231,28.568,0.076,-0.296
'[12:49:06.870 25/01/1995]',-0.395,-0.391,-0.231,28.568,0.076,-0.296
'[12:49:06.872 25/01/1995]',-0.380,-0.391,-0.231,28.869,0.025,-0.293
'[12:49:06.874 25/01/1995]',-0.351,-0.355,-0.198,28.869,0.025,-0.293
'[12:49:06.876 25/01/1995]',-0.307,-0.319,-0.198,28.869,0.025,-0.293
'[12:49:06.878 25/01/1995]',-0.277,-0.283,-0.164,28.869,0.025,-0.293
'[12:49:06.880 25/01/1995]',-0.233,-0.212,-0.131,29.271,-0.024,-0.290
'[12:49:06.882 25/01/1995]',-0.190,-0.176,-0.097,29.271,-0.024,-0.290
'[12:49:06.884 25/01/1995]',-0.160,-0.140,-0.064,29.271,-0.024,-0.290
'[12:49:06.886 25/01/1995]',-0.146,-0.140,-0.030,29.271,-0.024,-0.290
'[12:49:06.888 25/01/1995]',-0.131,-0.104,-0.030,29.623,-0.069,-0.286
'[12:49:06.890 25/01/1995]',-0.131,-0.104,-0.030,29.623,-0.069,-0.286
'[12:49:06.892 25/01/1995]',-0.116,-0.104,0.003,29.623,-0.069,-0.286
'[12:49:06.894 25/01/1995]',-0.116,-0.104,0.003,29.623,-0.069,-0.286
'[12:49:06.896 25/01/1995]',-0.131,-0.104,0.003,29.849,-0.110,-0.281
'[12:49:06.898 25/01/1995]',-0.131,-0.104,0.003,29.849,-0.110,-0.281
'[12:49:06.900 25/01/1995]',-0.131,-0.140,0.003,29.849,-0.110,-0.281
'[12:49:06.902 25/01/1995]',-0.146,-0.140,0.003,29.849,-0.110,-0.281
'[12:49:06.904 25/01/1995]',-0.131,-0.104,0.003,29.849,-0.147,-0.277
'[12:49:06.906 25/01/1995]',-0.131,-0.104,0.003,29.849,-0.147,-0.277
'[12:49:06.908 25/01/1995]',-0.131,-0.104,0.003,29.849,-0.147,-0.277
'[12:49:06.910 25/01/1995]',-0.116,-0.104,0.003,29.849,-0.147,-0.277
'[12:49:06.912 25/01/1995]',-0.116,-0.104,0.003,29.749,-0.179,-0.272
'[12:49:06.914 25/01/1995]',-0.116,-0.104,0.003,29.749,-0.179,-0.272
'[12:49:06.916 25/01/1995]',-0.116,-0.104,0.003,29.749,-0.179,-0.272
'[12:49:06.918 25/01/1995]',-0.102,-0.104,0.003,29.749,-0.179,-0.272
'[12:49:06.920 25/01/1995]',-0.102,-0.104,0.003,29.623,-0.209,-0.267
'[12:49:06.922 25/01/1995]',-0.102,-0.068,0.003,29.623,-0.209,-0.267
'[12:49:06.924 25/01/1995]',-0.102,-0.068,0.003,29.623,-0.209,-0.267
'[12:49:06.926 25/01/1995]',-0.102,-0.068,0.003,29.623,-0.209,-0.267
'[12:49:06.928 25/01/1995]',-0.102,-0.068,0.003,29.573,-0.233,-0.261
'[12:49:06.930 25/01/1995]',-0.087,-0.068,0.003,29.573,-0.233,-0.261
'[12:49:06.932 25/01/1995]',-0.072,-0.068,0.003,29.573,-0.233,-0.261
'[12:49:06.934 25/01/1995]',-0.072,-0.068,0.003,29.573,-0.233,-0.261
'[12:49:06.936 25/01/1995]',-0.057,-0.068,0.003,29.497,-0.257,-0.254
'[12:49:06.938 25/01/1995]',-0.072,-0.068,0.003,29.497,-0.257,-0.254
'[12:49:06.940 25/01/1995]',-0.057,-0.068,0.003,29.497,-0.257,-0.254
'[12:49:06.942 25/01/1995]',-0.057,-0.068,0.003,29.497,-0.257,-0.254
'[12:49:06.944 25/01/1995]',-0.057,-0.033,0.003,29.271,-0.276,-0.247
'[12:49:06.946 25/01/1995]',-0.057,-0.033,0.003,29.271,-0.276,-0.247
'[12:49:06.948 25/01/1995]',-0.043,-0.033,0.035,29.271,-0.276,-0.247
'[12:49:06.950 25/01/1995]',-0.043,-0.033,0.035,29.271,-0.276,-0.247
'[12:49:06.952 25/01/1995]',-0.028,0.003,0.068,28.869,-0.293,-0.239
'[12:49:06.954 25/01/1995]',-0.013,0.003,0.068,28.869,-0.293,-0.239
'[12:49:06.956 25/01/1995]',0.001,0.003,0.068,28.869,-0.293,-0.239
'[12:49:06.958 25/01/1995]',0.001,0.003,0.102,28.869,-0.293,-0.239
'[12:49:06.960 25/01/1995]',0.015,0.003,0.102,28.392,-0.309,-0.232
'[12:49:06.962 25/01/1995]',0.015,0.037,0.102,28.392,-0.309,-0.232
'[12:49:06.964 25/01/1995]',0.030,0.037,0.102,28.392,-0.309,-0.232
'[12:49:06.966 25/01/1995]',0.030,0.037,0.135,28.392,-0.309,-0.232
'[12:49:06.968 25/01/1995]',0.030,0.037,0.135,28.040,-0.322,-0.224
'[12:49:06.970 25/01/1995]',0.045,0.037,0.102,28.040,-0.322,-0.224
'[12:49:06.972 25/01/1995]',0.045,0.037,0.102,28.040,-0.322,-0.224
'[12:49:06.974 25/01/1995]',0.045,0.037,0.102,28.040,-0.322,-0.224
'[12:49:06.976 25/01/1995]',0.030,0.037,0.102,27.965,-0.333,-0.216
'[12:49:06.978 25/01/1995]',0.030,0.037,0.102,27.965,-0.333,-0.216
'[12:49:06.980 25/01/1995]',0.030,0.037,0.068,27.965,-0.333,-0.216
'[12:49:06.982 25/01/1995]',0.030,0.037,0.068,27.965,-0.333,-0.216
'[12:49:06.984 25/01/1995]',0.015,0.003,0.068,28.141,-0.344,-0.210
'[12:49:06.986 25/01/1995]',0.015,0.003,0.068,28.141,-0.344,-0.210
'[12:49:06.988 25/01/1995]',0.015,0.003,0.035,28.141,-0.344,-0.210
'[12:49:06.990 25/01/1995]',0.015,0.003,0.035,28.141,-0.344,-0.210
'[12:49:06.992 25/01/1995]',0.015,0.003,0.035,28.342,-0.351,-0.204
'[12:49:06.994 25/01/1995]',0.015,0.003,0.035,28.342,-0.351,-0.204
'[12:49:06.996 25/01/1995]',0.015,0.003,0.003,28.342,-0.351,-0.204
'[12:49:06.998 25/01/1995]',0.015,0.003,0.003,28.342,-0.351,-0.204
'[12:49:07.000 25/01/1995]',0.015,0.037,0.003,28.040,-0.358,-0.199
'[12:49:07.002 25/01/1995]',0.015,0.037,0.003,28.040,-0.358,-0.199
'[12:49:07.004 25/01/1995]',0.030,0.037,0.003,28.040,-0.358,-0.199
'[12:49:07.006 25/01/1995]',0.030,0.037,0.003,28.040,-0.358,-0.199
'[12:49:07.008 25/01/1995]',0.030,0.037,0.003,27.337,-0.364,-0.193
'[12:49:07.010 25/01/1995]',0.030,0.037,0.003,27.337,-0.364,-0.193
'[12:49:07.012 25/01/1995]',0.045,0.037,0.003,27.337,-0.364,-0.193
'[12:49:07.014 25/01/1995]',0.059,0.073,0.003,27.337,-0.364,-0.193
'[12:49:07.016 25/01/1995]',0.059,0.073,0.003,26.859,-0.368,-0.187
'[12:49:07.018 25/01/1995]',0.074,0.073,0.003,26.859,-0.368,-0.187
'[12:49:07.020 25/01/1995]',0.074,0.073,0.003,26.859,-0.368,-0.187
'[12:49:07.022 25/01/1995]',0.089,0.073,0.003,26.859,-0.368,-0.187
'[12:49:07.024 25/01/1995]',0.104,0.109,0.003,27.211,-0.374,-0.180
'[12:49:07.026 25/01/1995]',0.089,0.109,0.003,27.211,-0.374,-0.180
'[12:49:07.028 25/01/1995]',0.104,0.109,0.003,27.211,-0.374,-0.180
'[12:49:07.030 25/01/1995]',0.104,0.109,0.003,27.211,-0.374,-0.180
'[12:49:07.032 25/01/1995]',0.118,0.109,0.003,28.090,-0.379,-0.174
'[12:49:07.034 25/01/1995]',0.118,0.109,0.003,28.090,-0.379,-0.174
'[12:49:07.036 25/01/1995]',0.118,0.145,0.003,28.090,-0.379,-0.174
'[12:49:07.038 25/01/1995]',0.148,0.145,0.003,28.090,-0.379,-0.174
'[12:49:07.040 25/01/1995]',0.148,0.145,0.003,28.744,-0.382,-0.167
'[12:49:07.042 25/01/1995]',0.148,0.181,0.003,28.744,-0.382,-0.167
'[12:49:07.044 25/01/1995]',0.148,0.181,0.003,28.744,-0.382,-0.167
'[12:49:07.046 25/01/1995]',0.162,0.181,0.003,28.744,-0.382,-0.167
'[12:49:07.048 25/01/1995]',0.162,0.181,0.003,28.693,-0.387,-0.160
'[12:49:07.050 25/01/1995]',0.177,0.181,0.003,28.693,-0.387,-0.160
'[12:49:07.052 25/01/1995]',0.192,0.181,0.003,28.693,-0.387,-0.160
'[12:49:07.054 25/01/1995]',0.192,0.181,0.003,28.693,-0.387,-0.160
'[12:49:07.056 25/01/1995]',0.177,0.181,0.003,28.216,-0.392,-0.151
'[12:49:07.058 25/01/1995]',0.192,0.217,0.003,28.216,-0.392,-0.151
'[12:49:07.060 25/01/1995]',0.192,0.217,0.003,28.216,-0.392,-0.151
'[12:49:07.062 25/01/1995]',0.192,0.181,0.003,28.216,-0.392,-0.151
'[12:49:07.064 25/01/1995]',0.192,0.217,0.003,27.965,-0.396,-0.143
'[12:49:07.066 25/01/1995]',0.192,0.217,0.003,27.965,-0.396,-0.143
'[12:49:07.068 25/01/1995]',0.192,0.217,0.003,27.965,-0.396,-0.143
'[12:49:07.070 25/01/1995]',0.192,0.217,0.003,27.965,-0.396,-0.143
'[12:49:07.072 25/01/1995]',0.192,0.217,0.003,28.216,-0.399,-0.134
'[12:49:07.074 25/01/1995]',0.192,0.217,0.003,28.216,-0.399,-0.134
'[12:49:07.076 25/01/1995]',0.192,0.181,0.003,28.216,-0.399,-0.134
'[12:49:07.078 25/01/1995]',0.192,0.181,0.003,28.216,-0.399,-0.134
'[12:49:07.080 25/01/1995]',0.177,0.181,0.003,28.794,-0.404,-0.125
'[12:49:07.082 25/01/1995]',0.162,0.181,0.003,28.794,-0.404,-0.125
'[12:49:07.084 25/01/1995]',0.162,0.181,0.003,28.794,-0.404,-0.125
'[12:49:07.086 25/01/1995]',0.162,0.181,0.003,28.794,-0.404,-0.125
'[12:49:07.088 25/01/1995]',0.148,0.181,0.003,29.271,-0.406,-0.116
'[12:49:07.090 25/01/1995]',0.148,0.145,0.003,29.271,-0.406,-0.116
'[12:49:07.092 25/01/1995]',0.118,0.109,0.003,29.271,-0.406,-0.116
'[12:49:07.094 25/01/1995]',0.118,0.109,0.003,29.271,-0.406,-0.116
'[12:49:07.096 25/01/1995]',0.118,0.109,0.003,29.497,-0.408,-0.106
'[12:49:07.098 25/01/1995]',0.118,0.109,0.003,29.497,-0.408,-0.106
'[12:49:07.100 25/01/1995]',0.118,0.109,0.035,29.497,-0.408,-0.106
'[12:49:07.102 25/01/1995]',0.104,0.109,0.035,29.497,-0.408,-0.106
'[12:49:07.104 25/01/1995]',0.104,0.109,0.068,29.447,-0.406,-0.097
'[12:49:07.106 25/01/1995]',0.118,0.109,0.068,29.447,-0.406,-0.097
'[12:49:07.108 25/01/1995]',0.118,0.109,0.102,29.447,-0.406,-0.097
'[12:49:07.110 25/01/1995]',0.104,0.109,0.102,29.447,-0.406,-0.097
'[12:49:07.112 25/01/1995]',0.104,0.109,0.102,29.397,-0.402,-0.088
'[12:49:07.114 25/01/1995]',0.104,0.109,0.102,29.397,-0.402,-0.088
'[12:49:07.116 25/01/1995]',0.104,0.109,0.102,29.397,-0.402,-0.088
'[12:49:07.118 25/01/1995]',0.089,0.109,0.102,29.397,-0.402,-0.088
'[12:49:07.120 25/01/1995]',0.074,0.073,0.102,29.497,-0.392,-0.080
'[12:49:07.122 25/01/1995]',0.059,0.073,0.102,29.497,-0.392,-0.080
'[12:49:07.124 25/01/1995]',0.059,0.037,0.068,29.497,-0.392,-0.080
'[12:49:07.126 25/01/1995]',0.045,0.037,0.068,29.497,-0.392,-0.080
'[12:49:07.128 25/01/1995]',0.045,0.037,0.068,29.673,-0.374,-0.072
'[12:49:07.130 25/01/1995]',0.030,0.037,0.068,29.673,-0.374,-0.072
'[12:49:07.132 25/01/1995]',0.030,0.037,0.068,29.673,-0.374,-0.072
'[12:49:07.134 25/01/1995]',0.030,0.037,0.035,29.673,-0.374,-0.072
'[12:49:07.136 25/01/1995]',0.030,0.037,0.035,29.849,-0.346,-0.066
'[12:49:07.138 25/01/1995]',0.015,0.037,0.035,29.849,-0.346,-0.066
'[12:49:07.140 25/01/1995]',0.015,0.003,0.035,29.849,-0.346,-0.066
'[12:49:07.142 25/01/1995]',0.001,0.003,0.035,29.849,-0.346,-0.066
'[12:49:07.144 25/01/1995]',0.001,0.003,0.003,30.025,-0.309,-0.060
'[12:49:07.146 25/01/1995]',-0.028,0.003,0.003,30.025,-0.309,-0.060
'[12:49:07.148 25/01/1995]',-0.028,-0.033,0.003,30.025,-0.309,-0.060
'[12:49:07.150 25/01/1995]',-0.028,-0.033,0.003,30.025,-0.309,-0.060
'[12:49:07.152 25/01/1995]',-0.028,-0.033,0.003,30.151,-0.263,-0.054
'[12:49:07.154 25/01/1995]',-0.043,-0.033,0.003,30.151,-0.263,-0.054
'[12:49:07.156 25/01/1995]',-0.057,-0.033,0.003,30.151,-0.263,-0.054
'[12:49:07.158 25/01/1995]',-0.057,-0.033,0.003,30.151,-0.263,-0.054
'[12:49:07.160 25/01/1995]',-0.072,-0.033,-0.030,30.101,-0.210,-0.050
'[12:49:07.162 25/01/1995]',-0.072,-0.068,-0.030,30.101,-0.210,-0.050
'[12:49:07.164 25/01/1995]',-0.072,-0.068,-0.030,30.101,-0.210,-0.050
'[12:49:07.166 25/01/1995]',-0.072,-0.068,-0.030,30.101,-0.210,-0.050
'[12:49:07.168 25/01/1995]',-0.072,-0.068,-0.030,29.799,-0.150,-0.046
'[12:49:07.170 25/01/1995]',-0.072,-0.068,-0.030,29.799,-0.150,-0.046
'[12:49:07.172 25/01/1995]',-0.057,-0.068,-0.030,29.799,-0.150,-0.046
'[12:49:07.174 25/01/1995]',-0.057,-0.068,-0.030,29.799,-0.150,-0.046
'[12:49:07.176 25/01/1995]',-0.057,-0.068,-0.030,29.221,-0.086,-0.043
'[12:49:07.178 25/01/1995]',-0.057,-0.033,-0.030,29.221,-0.086,-0.043
'[12:49:07.180 25/01/1995]',-0.057,-0.033,-0.030,29.221,-0.086,-0.043
'[12:49:07.182 25/01/1995]',-0.057,-0.033,-0.030,29.221,-0.086,-0.043
'[12:49:07.184 25/01/1995]',-0.057,-0.033,-0.030,28.392,-0.021,-0.043
'[12:49:07.186 25/01/1995]',-0.043,-0.033,-0.030,28.392,-0.021,-0.043
'[12:49:07.188 25/01/1995]',-0.043,-0.033,-0.030,28.392,-0.021,-0.043
'[12:49:07.190 25/01/1995]',-0.043,-0.033,-0.030,28.392,-0.021,-0.043
'[12:49:07.192 25/01/1995]',-0.057,-0.033,-0.030,27.563,0.041,-0.043
'[12:49:07.194 25/01/1995]',-0.057,-0.033,-0.030,27.563,0.041,-0.043
'[12:49:07.196 25/01/1995]',-0.057,-0.033,-0.030,27.563,0.041,-0.043
'[12:49:07.198 25/01/1995]',-0.057,-0.033,-0.030,27.563,0.041,-0.043
'[12:49:07.200 25/01/1995]',-0.057,-0.033,-0.030,26.859,0.096,-0.043
'[12:49:07.202 25/01/1995]',-0.057,-0.068,-0.030,26.859,0.096,-0.043
'[12:49:07.204 25/01/1995]',-0.057,-0.068,-0.030,26.859,0.096,-0.043
'[12:49:07.206 25/01/1995]',-0.072,-0.033,-0.030,26.859,0.096,-0.043
'[12:49:07.208 25/01/1995]',-0.057,-0.033,-0.030,26.206,0.145,-0.044
'[12:49:07.210 25/01/1995]',-0.057,-0.033,-0.030,26.206,0.145,-0.044
'[12:49:07.212 25/01/1995]',-0.057,-0.068,0.003,26.206,0.145,-0.044
'[12:49:07.214 25/01/1995]',-0.072,-0.068,0.003,26.206,0.145,-0.044
'[12:49:07.216 25/01/1995]',-0.072,-0.068,0.003,25.553,0.184,-0.045
'[12:49:07.218 25/01/1995]',-0.072,-0.068,0.003,25.553,0.184,-0.045
'[12:49:07.220 25/01/1995]',-0.072,-0.068,0.003,25.553,0.184,-0.045
'[12:49:07.222 25/01/1995]',-0.057,-0.068,0.003,25.553,0.184,-0.045
'[12:49:07.224 25/01/1995]',-0.057,-0.068,0.003,24.799,0.214,-0.046
'[12:49:07.226 25/01/1995]',-0.057,-0.033,0.003,24.799,0.214,-0.046
'[12:49:07.228 25/01/1995]',-0.057,-0.033,0.003,24.799,0.214,-0.046
'[12:49:07.230 25/01/1995]',-0.057,-0.033,0.003,24.799,0.214,-0.046
'[12:49:07.232 25/01/1995]',-0.043,-0.033,0.003,23.970,0.234,-0.048
'[12:49:07.234 25/01/1995]',-0.028,-0.033,0.003,23.970,0.234,-0.048
'[12:49:07.236 25/01/1995]',-0.028,-0.033,0.003,23.970,0.234,-0.048
'[12:49:07.238 25/01/1995]',-0.028,-0.033,0.003,23.970,0.234,-0.048
'[12:49:07.240 25/01/1995]',-0.028,-0.033,0.003,23.317,0.244,-0.050
'[12:49:07.242 25/01/1995]',-0.028,-0.033,0.003,23.317,0.244,-0.050
'[12:49:07.244 25/01/1995]',-0.028,-0.033,0.003,23.317,0.244,-0.050
'[12:49:07.246 25/01/1995]',-0.028,-0.033,0.003,23.317,0.244,-0.050
'[12:49:07.248 25/01/1995]',-0.028,-0.033,0.003,22.789,0.246,-0.051
'[12:49:07.250 25/01/1995]',-0.028,0.003,0.003,22.789,0.246,-0.051
'[12:49:07.252 25/01/1995]',-0.013,0.003,0.003,22.789,0.246,-0.051
'[12:49:07.254 25/01/1995]',-0.013,0.003,0.035,22.789,0.246,-0.051
'[12:49:07.256 25/01/1995]',-0.013,0.003,0.035,22.487,0.242,-0.053
'[12:49:07.258 25/01/1995]',0.001,0.003,0.035,22.487,0.242,-0.053
'[12:49:07.260 25/01/1995]',0.001,0.003,0.068,22.487,0.242,-0.053
'[12:49:07.262 25/01/1995]',0.015,0.003,0.068,22.487,0.242,-0.053
'[12:49:07.264 25/01/1995]',0.030,0.037,0.068,22.261,0.229,-0.056
'[12:49:07.266 25/01/1995]',0.045,0.037,0.068,22.261,0.229,-0.056
'[12:49:07.268 25/01/1995]',0.059,0.073,0.068,22.261,0.229,-0.056
'[12:49:07.270 25/01/1995]',0.059,0.037,0.068,22.261,0.229,-0.056
'[12:49:07.272 25/01/1995]',0.045,0.037,0.068,22.085,0.210,-0.058
'[12:49:07.274 25/01/1995]',0.030,0.037,0.068,22.085,0.210,-0.058
'[12:49:07.276 25/01/1995]',0.015,0.037,0.068,22.085,0.210,-0.058
'[12:49:07.278 25/01/1995]',0.015,0.003,0.068,22.085,0.210,-0.058
'[12:49:07.280 25/01/1995]',0.015,0.003,0.068,22.035,0.185,-0.059
'[12:49:07.282 25/01/1995]',0.015,0.003,0.068,22.035,0.185,-0.059
'[12:49:07.284 25/01/1995]',0.015,0.003,0.035,22.035,0.185,-0.059
'[12:49:07.286 25/01/1995]',0.015,0.003,0.035,22.035,0.185,-0.059
'[12:49:07.288 25/01/1995]',0.001,0.003,0.035,22.211,0.154,-0.060
'[12:49:07.290 25/01/1995]',0.001,0.003,0.035,22.211,0.154,-0.060
'[12:49:07.292 25/01/1995]',0.001,0.003,0.003,22.211,0.154,-0.060
'[12:49:07.294 25/01/1995]',0.001,0.003,0.003,22.211,0.154,-0.060
'[12:49:07.296 25/01/1995]',0.001,0.003,0.003,22.487,0.118,-0.062
'[12:49:07.298 25/01/1995]',-0.013,0.003,0.003,22.487,0.118,-0.062
'[12:49:07.300 25/01/1995]',-0.013,0.003,0.003,22.487,0.118,-0.062
'[12:49:07.302 25/01/1995]',-0.013,0.003,0.003,22.487,0.118,-0.062
'[12:49:07.304 25/01/1995]',-0.013,0.003,0.003,22.965,0.078,-0.064
'[12:49:07.306 25/01/1995]',-0.028,-0.033,0.003,22.965,0.078,-0.064
'[12:49:07.308 25/01/1995]',-0.028,-0.033,0.003,22.965,0.078,-0.064
'[12:49:07.310 25/01/1995]',-0.028,0.003,0.003,22.965,0.078,-0.064
'[12:49:07.312 25/01/1995]',-0.028,-0.033,0.003,23.442,0.035,-0.066
'[12:49:07.314 25/01/1995]',-0.013,0.003,0.003,23.442,0.035,-0.066
'[12:49:07.316 25/01/1995]',-0.013,0.003,0.003,23.442,0.035,-0.066
'[12:49:07.318 25/01/1995]',-0.028,0.003,0.003,23.442,0.035,-0.066
'[12:49:07.320 25/01/1995]',-0.028,0.003,0.035,23.744,-0.009,-0.068
'[12:49:07.322 25/01/1995]',-0.028,-0.033,0.035,23.744,-0.009,-0.068
'[12:49:07.324 25/01/1995]',-0.028,-0.033,0.035,23.744,-0.009,-0.068
'[12:49:07.326 25/01/1995]',-0.028,-0.033,0.035,23.744,-0.009,-0.068
'[12:49:07.328 25/01/1995]',-0.028,-0.033,0.035,23.844,-0.057,-0.070
'[12:49:07.330 25/01/1995]',-0.013,0.003,0.003,23.844,-0.057,-0.070
'[12:49:07.332 25/01/1995]',0.001,0.003,0.003,23.844,-0.057,-0.070
'[12:49:07.334 25/01/1995]',0.015,0.003,0.003,23.844,-0.057,-0.070
'[12:49:07.336 25/01/1995]',0.059,0.073,0.003,23.668,-0.104,-0.073
'[12:49:07.338 25/01/1995]',0.133,0.145,0.003,23.668,-0.104,-0.073
'[12:49:07.340 25/01/1995]',0.221,0.252,0.003,23.668,-0.104,-0.073
'[12:49:07.342 25/01/1995]',0.309,0.324,0.003,23.668,-0.104,-0.073
'[12:49:07.344 25/01/1995]',0.412,0.432,-0.030,23.317,-0.150,-0.077
'[12:49:07.346 25/01/1995]',0.485,0.537,-0.030,23.317,-0.150,-0.077
'[12:49:07.348 25/01/1995]',0.499,0.537,-0.064,23.317,-0.150,-0.077
'[12:49:07.350 25/01/1995]',0.485,0.503,-0.097,23.317,-0.150,-0.077
'[12:49:07.352 25/01/1995]',0.426,0.467,-0.097,22.864,-0.195,-0.081
'[12:49:07.354 25/01/1995]',0.279,0.288,-0.164,22.864,-0.195,-0.081
'[12:49:07.356 25/01/1995]',0.162,0.145,-0.164,22.864,-0.195,-0.081
'[12:49:07.358 25/01/1995]',0.030,0.037,-0.198,22.864,-0.195,-0.081
'[12:49:07.360 25/01/1995]',-0.043,-0.033,-0.198,22.312,-0.236,-0.086
'[12:49:07.362 25/01/1995]',-0.116,-0.104,-0.198,22.312,-0.236,-0.086
'[12:49:07.364 25/01/1995]',-0.146,-0.140,-0.164,22.312,-0.236,-0.086
'[12:49:07.366 25/01/1995]',-0.190,-0.176,-0.164,22.312,-0.236,-0.086
'[12:49:07.368 25/01/1995]',-0.248,-0.248,-0.164,21.784,-0.275,-0.090
'[12:49:07.370 25/01/1995]',-0.277,-0.283,-0.164,21.784,-0.275,-0.090
'[12:49:07.372 25/01/1995]',-0.322,-0.355,-0.198,21.784,-0.275,-0.090
'[12:49:07.374 25/01/1995]',-0.351,-0.391,-0.198,21.784,-0.275,-0.090
'[12:49:07.376 25/01/1995]',-0.395,-0.391,-0.198,21.156,-0.310,-0.095
'[12:49:07.378 25/01/1995]',-0.395,-0.391,-0.198,21.156,-0.310,-0.095
'[12:49:07.380 25/01/1995]',-0.366,-0.391,-0.198,21.156,-0.310,-0.095
'[12:49:07.382 25/01/1995]',-0.336,-0.355,-0.164,21.156,-0.310,-0.095
'[12:49:07.384 25/01/1995]',-0.292,-0.283,-0.131,20.377,-0.343,-0.100
'[12:49:07.386 25/01/1995]',-0.248,-0.248,-0.097,20.377,-0.343,-0.100
'[12:49:07.388 25/01/1995]',-0.219,-0.212,-0.097,20.377,-0.343,-0.100
'[12:49:07.390 25/01/1995]',-0.190,-0.176,-0.064,20.377,-0.343,-0.100
'[12:49:07.392 25/01/1995]',-0.160,-0.140,-0.064,19.623,-0.370,-0.105
'[12:49:07.394 25/01/1995]',-0.131,-0.140,-0.030,19.623,-0.370,-0.105
'[12:49:07.396 25/01/1995]',-0.116,-0.104,-0.030,19.623,-0.370,-0.105
'[12:49:07.398 25/01/1995]',-0.102,-0.104,-0.030,19.623,-0.370,-0.105
'[12:49:07.400 25/01/1995]',-0.102,-0.104,-0.030,19.020,-0.393,-0.112
'[12:49:07.402 25/01/1995]',-0.116,-0.104,0.003,19.020,-0.393,-0.112
'[12:49:07.404 25/01/1995]',-0.131,-0.104,0.003,19.020,-0.393,-0.112
'[12:49:07.406 25/01/1995]',-0.131,-0.104,0.003,19.020,-0.393,-0.112
'[12:49:07.408 25/01/1995]',-0.131,-0.104,0.003,18.618,-0.414,-0.117
'[12:49:07.410 25/01/1995]',-0.116,-0.104,0.003,18.618,-0.414,-0.117
'[12:49:07.412 25/01/1995]',-0.116,-0.104,0.003,18.618,-0.414,-0.117
'[12:49:07.414 25/01/1995]',-0.102,-0.104,0.003,18.618,-0.414,-0.117
'[12:49:07.416 25/01/1995]',-0.087,-0.068,0.003,18.367,-0.430,-0.124
'[12:49:07.418 25/01/1995]',-0.072,-0.068,0.035,18.367,-0.430,-0.124
'[12:49:07.420 25/01/1995]',-0.057,-0.033,0.035,18.367,-0.430,-0.124
'[12:49:07.422 25/01/1995]',-0.043,-0.033,0.068,18.367,-0.430,-0.124
'[12:49:07.424 25/01/1995]',-0.028,-0.033,0.068,18.141,-0.444,-0.131
'[12:49:07.426 25/01/1995]',-0.013,0.003,0.068,18.141,-0.444,-0.131
'[12:49:07.428 25/01/1995]',-0.013,0.003,0.102,18.141,-0.444,-0.131
'[12:49:07.430 25/01/1995]',-0.013,0.003,0.102,18.141,-0.444,-0.131
'[12:49:07.432 25/01/1995]',-0.013,0.003,0.102,17.915,-0.453,-0.137
'[12:49:07.434 25/01/1995]',0.001,0.003,0.102,17.915,-0.453,-0.137
'[12:49:07.436 25/01/1995]',0.001,0.003,0.068,17.915,-0.453,-0.137
'[12:49:07.438 25/01/1995]',0.001,0.003,0.068,17.915,-0.453,-0.137
'[12:49:07.440 25/01/1995]',0.015,0.003,0.068,17.663,-0.460,-0.142
'[12:49:07.442 25/01/1995]',0.015,0.003,0.068,17.663,-0.460,-0.142
'[12:49:07.444 25/01/1995]',0.001,0.003,0.068,17.663,-0.460,-0.142
'[12:49:07.446 25/01/1995]',-0.013,0.003,0.035,17.663,-0.460,-0.142
'[12:49:07.448 25/01/1995]',-0.028,0.003,0.035,17.487,-0.464,-0.147
'[12:49:07.450 25/01/1995]',-0.028,-0.033,0.035,17.487,-0.464,-0.147
'[12:49:07.452 25/01/1995]',-0.028,-0.033,0.003,17.487,-0.464,-0.147
'[12:49:07.454 25/01/1995]',-0.028,-0.033,0.003,17.487,-0.464,-0.147
'[12:49:07.456 25/01/1995]',-0.028,-0.033,0.003,17.739,-0.467,-0.152
'[12:49:07.458 25/01/1995]',-0.043,-0.033,0.003,17.739,-0.467,-0.152
'[12:49:07.460 25/01/1995]',-0.057,-0.033,0.003,17.739,-0.467,-0.152
'[12:49:07.462 25/01/1995]',-0.057,-0.033,0.003,17.739,-0.467,-0.152
'[12:49:07.464 25/01/1995]',-0.057,-0.033,0.003,18.668,-0.467,-0.157
'[12:49:07.466 25/01/1995]',-0.057,-0.033,0.003,18.668,-0.467,-0.157
'[12:49:07.468 25/01/1995]',-0.057,-0.033,-0.030,18.668,-0.467,-0.157
'[12:49:07.470 25/01/1995]',-0.057,-0.033,-0.030,18.668,-0.467,-0.157
'[12:49:07.472 25/01/1995]',-0.043,-0.033,-0.030,20.427,-0.467,-0.162
'[12:49:07.474 25/01/1995]',-0.043,-0.033,-0.030,20.427,-0.467,-0.162
'[12:49:07.476 25/01/1995]',-0.028,-0.033,-0.030,20.427,-0.467,-0.162
'[12:49:07.478 25/01/1995]',-0.043,-0.033,-0.030,20.427,-0.467,-0.162
'[12:49:07.480 25/01/1995]',-0.043,-0.033,-0.030,22.613,-0.466,-0.166
'[12:49:07.482 25/01/1995]',-0.043,-0.033,-0.030,22.613,-0.466,-0.166
'[12:49:07.484 25/01/1995]',-0.043,-0.033,-0.030,22.613,-0.466,-0.166
'[12:49:07.486 25/01/1995]',-0.043,-0.033,-0.030,22.613,-0.466,-0.166
'[12:49:07.488 25/01/1995]',-0.043,-0.033,-0.030,24.196,-0.466,-0.170
'[12:49:07.490 25/01/1995]',-0.057,-0.033,-0.030,24.196,-0.466,-0.170
'[12:49:07.492 25/01/1995]',-0.057,-0.033,-0.030,24.196,-0.466,-0.170
'[12:49:07.494 25/01/1995]',-0.057,-0.033,-0.030,24.196,-0.466,-0.170
'[12:49:07.496 25/01/1995]',-0.043,-0.033,-0.030,24.372,-0.466,-0.173
'[12:49:07.498 25/01/1995]',-0.028,-0.033,-0.030,24.372,-0.466,-0.173
'[12:49:07.500 25/01/1995]',-0.028,-0.033,-0.030,24.372,-0.466,-0.173
'[12:49:07.502 25/01/1995]',-0.028,0.003,-0.030,24.372,-0.466,-0.173
'[12:49:07.504 25/01/1995]',-0.028,0.003,-0.030,23.141,-0.466,-0.175
'[12:49:07.506 25/01/1995]',-0.013,0.003,-0.030,23.141,-0.466,-0.175
'[12:49:07.508 25/01/1995]',0.001,0.003,-0.030,23.141,-0.466,-0.175
'[12:49:07.510 25/01/1995]',0.001,0.003,-0.030,23.141,-0.466,-0.175
'[12:49:07.512 25/01/1995]',0.030,0.037,-0.030,21.256,-0.466,-0.177
'[12:49:07.514 25/01/1995]',0.059,0.037,-0.030,21.256,-0.466,-0.177
'[12:49:07.516 25/01/1995]',0.074,0.073,-0.030,21.256,-0.466,-0.177
'[12:49:07.518 25/01/1995]',0.074,0.073,-0.030,21.256,-0.466,-0.177
'[12:49:07.520 25/01/1995]',0.074,0.073,-0.030,19.623,-0.468,-0.179
'[12:49:07.522 25/01/1995]',0.074,0.073,0.003,19.623,-0.468,-0.179
'[12:49:07.524 25/01/1995]',0.074,0.073,0.003,19.623,-0.468,-0.179
'[12:49:07.526 25/01/1995]',0.104,0.109,0.003,19.623,-0.468,-0.179
'[12:49:07.528 25/01/1995]',0.104,0.109,0.003,18.719,-0.470,-0.180
'[12:49:07.530 25/01/1995]',0.118,0.109,0.003,18.719,-0.470,-0.180
