'Time and date','MCL1 ','II ','V ','ABP ','PLETH '
'hh:mm:ss.mmm dd/mm/yyyy','mV','mV','mV','mmHg','mV'
'[11:00:26.000 11/05/1995]',-0.025,0.074,-0.055,180.400,-0.455
'[11:00:26.002 11/05/1995]',-0.031,0.074,-0.033,180.400,-0.455
'[11:00:26.004 11/05/1995]',-0.025,0.050,-0.021,180.400,-0.455
'[11:00:26.006 11/05/1995]',-0.025,0.025,0.001,180.400,-0.455
'[11:00:26.008 11/05/1995]',-0.025,0.025,0.001,180.400,-0.451
'[11:00:26.010 11/05/1995]',-0.025,0.050,-0.010,180.400,-0.451
'[11:00:26.012 11/05/1995]',-0.025,0.074,-0.033,180.400,-0.451
'[11:00:26.014 11/05/1995]',-0.031,0.074,-0.044,180.400,-0.451
'[11:00:26.016 11/05/1995]',-0.025,0.074,-0.055,180.400,-0.447
'[11:00:26.018 11/05/1995]',-0.025,0.074,-0.044,180.400,-0.447
'[11:00:26.020 11/05/1995]',-0.025,0.050,-0.033,180.400,-0.447
'[11:00:26.022 11/05/1995]',-0.025,0.050,0.001,180.400,-0.447
'[11:00:26.024 11/05/1995]',-0.012,0.050,0.001,180.400,-0.446
'[11:00:26.026 11/05/1995]',-0.025,0.050,0.001,180.400,-0.446
'[11:00:26.028 11/05/1995]',-0.012,0.074,-0.010,180.400,-0.446
'[11:00:26.030 11/05/1995]',-0.012,0.074,-0.033,180.400,-0.446
'[11:00:26.032 11/05/1995]',-0.025,0.074,-0.044,180.400,-0.443
'[11:00:26.034 11/05/1995]',-0.025,0.074,-0.033,180.400,-0.443
'[11:00:26.036 11/05/1995]',-0.012,0.050,-0.021,180.400,-0.443
'[11:00:26.038 11/05/1995]',-0.012,0.050,0.001,180.400,-0.443
'[11:00:26.040 11/05/1995]',-0.006,0.025,0.001,180.400,-0.440
'[11:00:26.042 11/05/1995]',-0.006,0.050,0.012,180.400,-0.440
'[11:00:26.044 11/05/1995]',-0.012,0.050,0.001,180.400,-0.440
'[11:00:26.046 11/05/1995]',-0.012,0.074,-0.021,180.400,-0.440
'[11:00:26.048 11/05/1995]',-0.006,0.074,-0.033,180.400,-0.437
'[11:00:26.050 11/05/1995]',-0.012,0.074,-0.033,180.400,-0.437
'[11:00:26.052 11/05/1995]',-0.006,0.050,-0.021,180.400,-0.437
'[11:00:26.054 11/05/1995]',0.001,0.050,0.001,180.400,-0.437
'[11:00:26.056 11/05/1995]',0.001,0.025,0.023,180.400,-0.434
'[11:00:26.058 11/05/1995]',0.007,0.025,0.023,180.400,-0.434
'[11:00:26.060 11/05/1995]',0.007,0.025,0.023,180.400,-0.434
'[11:00:26.062 11/05/1995]',0.007,0.050,0.001,180.400,-0.434
'[11:00:26.064 11/05/1995]',0.007,0.050,0.001,180.400,-0.431
'[11:00:26.066 11/05/1995]',0.007,0.050,-0.010,180.400,-0.431
'[11:00:26.068 11/05/1995]',0.007,0.050,0.001,180.400,-0.431
'[11:00:26.070 11/05/1995]',0.007,0.025,0.012,180.400,-0.431
'[11:00:26.072 11/05/1995]',0.013,0.025,0.034,180.400,-0.426
'[11:00:26.074 11/05/1995]',0.025,0.002,0.045,180.400,-0.426
'[11:00:26.076 11/05/1995]',0.025,0.025,0.045,180.400,-0.426
'[11:00:26.078 11/05/1995]',0.013,0.025,0.034,180.400,-0.426
'[11:00:26.080 11/05/1995]',0.025,0.025,0.012,180.400,-0.421
'[11:00:26.082 11/05/1995]',0.025,0.025,0.001,180.400,-0.421
'[11:00:26.084 11/05/1995]',0.025,0.025,0.001,180.400,-0.421
'[11:00:26.086 11/05/1995]',0.025,0.025,0.023,180.400,-0.421
'[11:00:26.088 11/05/1995]',0.032,0.002,0.057,180.400,-0.411
'[11:00:26.090 11/05/1995]',0.038,0.002,0.068,180.400,-0.411
'[11:00:26.092 11/05/1995]',0.038,0.002,0.068,180.400,-0.411
'[11:00:26.094 11/05/1995]',0.051,0.002,0.057,180.400,-0.411
'[11:00:26.096 11/05/1995]',0.051,0.002,0.034,180.400,-0.400
'[11:00:26.098 11/05/1995]',0.038,0.002,0.023,180.400,-0.400
'[11:00:26.100 11/05/1995]',0.051,0.002,0.023,180.400,-0.400
'[11:00:26.102 11/05/1995]',0.038,0.002,0.034,180.400,-0.400
'[11:00:26.104 11/05/1995]',0.038,0.002,0.057,180.400,-0.382
'[11:00:26.106 11/05/1995]',0.038,0.002,0.068,180.400,-0.382
'[11:00:26.108 11/05/1995]',0.038,0.002,0.079,180.400,-0.382
'[11:00:26.110 11/05/1995]',0.032,0.002,0.068,180.400,-0.382
'[11:00:26.112 11/05/1995]',0.032,0.002,0.045,180.400,-0.358
'[11:00:26.114 11/05/1995]',0.032,0.002,0.023,180.400,-0.358
'[11:00:26.116 11/05/1995]',0.025,0.002,0.012,180.400,-0.358
'[11:00:26.118 11/05/1995]',0.032,0.002,0.023,180.400,-0.358
'[11:00:26.120 11/05/1995]',0.032,0.002,0.034,180.400,-0.329
'[11:00:26.122 11/05/1995]',0.032,0.002,0.057,180.400,-0.329
'[11:00:26.124 11/05/1995]',0.032,0.002,0.068,180.400,-0.329
'[11:00:26.126 11/05/1995]',0.032,0.002,0.057,180.400,-0.329
'[11:00:26.128 11/05/1995]',0.025,0.002,0.034,180.400,-0.291
'[11:00:26.130 11/05/1995]',0.013,0.002,0.001,180.400,-0.291
'[11:00:26.132 11/05/1995]',0.013,0.025,0.001,180.400,-0.291
'[11:00:26.134 11/05/1995]',0.013,0.002,0.001,180.400,-0.291
'[11:00:26.136 11/05/1995]',0.013,0.002,0.001,180.400,-0.247
'[11:00:26.138 11/05/1995]',0.013,0.002,0.034,180.400,-0.247
'[11:00:26.140 11/05/1995]',0.007,0.002,0.034,180.400,-0.247
'[11:00:26.142 11/05/1995]',0.013,0.002,0.034,180.400,-0.247
'[11:00:26.144 11/05/1995]',0.007,0.002,0.012,180.400,-0.198
'[11:00:26.146 11/05/1995]',0.007,0.002,0.001,180.400,-0.198
'[11:00:26.148 11/05/1995]',0.001,0.002,-0.010,180.400,-0.198
'[11:00:26.150 11/05/1995]',0.001,0.025,-0.021,180.400,-0.198
'[11:00:26.152 11/05/1995]',0.001,0.002,0.001,180.400,-0.141
'[11:00:26.154 11/05/1995]',-0.006,0.002,0.001,180.400,-0.141
'[11:00:26.156 11/05/1995]',0.001,0.002,0.023,180.400,-0.141
'[11:00:26.158 11/05/1995]',-0.006,0.002,0.023,180.400,-0.141
'[11:00:26.160 11/05/1995]',0.001,0.002,0.001,180.400,-0.080
'[11:00:26.162 11/05/1995]',-0.006,0.002,0.001,180.400,-0.080
'[11:00:26.164 11/05/1995]',-0.012,0.025,-0.033,180.400,-0.080
'[11:00:26.166 11/05/1995]',-0.012,0.025,-0.033,180.400,-0.080
'[11:00:26.168 11/05/1995]',-0.012,0.002,-0.021,180.400,-0.017
'[11:00:26.170 11/05/1995]',-0.012,0.002,-0.010,180.400,-0.017
'[11:00:26.172 11/05/1995]',-0.006,0.002,0.001,180.400,-0.017
'[11:00:26.174 11/05/1995]',-0.006,0.002,0.012,180.400,-0.017
'[11:00:26.176 11/05/1995]',-0.006,0.002,0.012,180.400,0.049
'[11:00:26.178 11/05/1995]',-0.012,0.002,0.001,180.400,0.049
'[11:00:26.180 11/05/1995]',-0.025,0.025,-0.033,180.400,0.049
'[11:00:26.182 11/05/1995]',-0.012,0.025,-0.033,180.400,0.049
'[11:00:26.184 11/05/1995]',-0.012,0.025,-0.033,180.400,0.115
'[11:00:26.186 11/05/1995]',-0.012,0.002,-0.021,180.400,0.115
'[11:00:26.188 11/05/1995]',-0.006,0.002,0.001,180.400,0.115
'[11:00:26.190 11/05/1995]',-0.006,0.002,0.001,180.400,0.115
'[11:00:26.192 11/05/1995]',-0.006,0.002,0.012,180.400,0.178
'[11:00:26.194 11/05/1995]',-0.012,0.002,0.001,180.400,0.178
'[11:00:26.196 11/05/1995]',-0.025,0.025,-0.021,180.400,0.178
'[11:00:26.198 11/05/1995]',-0.012,0.025,-0.033,180.400,0.178
'[11:00:26.200 11/05/1995]',-0.012,0.025,-0.033,180.400,0.238
'[11:00:26.202 11/05/1995]',-0.012,0.002,-0.033,180.400,0.238
'[11:00:26.204 11/05/1995]',-0.012,0.002,0.001,180.400,0.238
'[11:00:26.206 11/05/1995]',-0.012,0.002,0.001,180.400,0.238
'[11:00:26.208 11/05/1995]',-0.012,0.002,0.001,180.400,0.295
'[11:00:26.210 11/05/1995]',-0.012,0.002,0.001,180.400,0.295
'[11:00:26.212 11/05/1995]',-0.025,0.002,-0.021,180.400,0.295
'[11:00:26.214 11/05/1995]',-0.025,0.025,-0.033,180.400,0.295
'[11:00:26.216 11/05/1995]',-0.012,0.025,-0.044,180.400,0.344
'[11:00:26.218 11/05/1995]',-0.025,0.025,-0.033,180.400,0.344
'[11:00:26.220 11/05/1995]',-0.025,0.002,-0.010,180.400,0.344
'[11:00:26.222 11/05/1995]',-0.006,0.002,0.001,180.400,0.344
'[11:00:26.224 11/05/1995]',-0.012,0.002,0.012,180.400,0.391
'[11:00:26.226 11/05/1995]',-0.006,0.002,0.001,180.400,0.391
'[11:00:26.228 11/05/1995]',-0.012,0.002,0.001,180.400,0.391
'[11:00:26.230 11/05/1995]',-0.012,0.025,-0.033,180.400,0.391
'[11:00:26.232 11/05/1995]',-0.012,0.025,-0.033,180.400,0.426
'[11:00:26.234 11/05/1995]',-0.012,0.025,-0.033,180.400,0.426
'[11:00:26.236 11/05/1995]',-0.012,0.002,-0.021,180.400,0.426
'[11:00:26.238 11/05/1995]',-0.012,0.002,0.001,180.400,0.426
'[11:00:26.240 11/05/1995]',-0.012,0.002,0.001,180.400,0.458
'[11:00:26.242 11/05/1995]',-0.012,0.002,0.001,180.400,0.458
'[11:00:26.244 11/05/1995]',-0.012,0.002,0.001,180.400,0.458
'[11:00:26.246 11/05/1995]',-0.012,0.025,-0.033,180.400,0.458
'[11:00:26.248 11/05/1995]',-0.025,0.025,-0.044,180.400,0.482
'[11:00:26.250 11/05/1995]',-0.025,0.025,-0.044,180.400,0.482
'[11:00:26.252 11/05/1995]',-0.025,0.025,-0.033,180.400,0.482
'[11:00:26.254 11/05/1995]',-0.012,0.002,0.001,180.400,0.482
'[11:00:26.256 11/05/1995]',-0.012,0.002,0.001,180.400,0.497
'[11:00:26.258 11/05/1995]',-0.012,0.002,0.001,180.400,0.497
'[11:00:26.260 11/05/1995]',-0.012,0.002,0.001,180.400,0.497
'[11:00:26.262 11/05/1995]',-0.025,0.025,-0.021,180.400,0.497
'[11:00:26.264 11/05/1995]',-0.025,0.025,-0.044,180.400,0.508
'[11:00:26.266 11/05/1995]',-0.025,0.025,-0.044,180.400,0.508
'[11:00:26.268 11/05/1995]',-0.025,0.025,-0.033,180.400,0.508
'[11:00:26.270 11/05/1995]',-0.012,0.025,-0.021,180.400,0.508
'[11:00:26.272 11/05/1995]',-0.012,0.002,0.001,180.400,0.512
'[11:00:26.274 11/05/1995]',-0.012,0.002,0.001,180.400,0.512
'[11:00:26.276 11/05/1995]',-0.012,0.002,0.001,180.400,0.512
'[11:00:26.278 11/05/1995]',-0.006,0.025,-0.010,180.400,0.512
'[11:00:26.280 11/05/1995]',-0.012,0.025,-0.033,180.400,0.510
'[11:00:26.282 11/05/1995]',-0.025,0.025,-0.044,180.400,0.510
'[11:00:26.284 11/05/1995]',-0.012,0.025,-0.044,180.400,0.510
'[11:00:26.286 11/05/1995]',-0.012,0.025,-0.033,180.400,0.510
'[11:00:26.288 11/05/1995]',-0.012,0.002,0.001,180.400,0.501
'[11:00:26.290 11/05/1995]',-0.012,0.002,0.001,180.400,0.501
'[11:00:26.292 11/05/1995]',-0.012,0.002,0.001,180.400,0.501
'[11:00:26.294 11/05/1995]',-0.025,0.025,-0.010,180.400,0.501
'[11:00:26.296 11/05/1995]',-0.025,0.025,-0.033,180.400,0.487
'[11:00:26.298 11/05/1995]',-0.025,0.025,-0.044,180.400,0.487
'[11:00:26.300 11/05/1995]',-0.025,0.025,-0.044,180.400,0.487
'[11:00:26.302 11/05/1995]',-0.012,0.025,-0.033,180.400,0.487
'[11:00:26.304 11/05/1995]',-0.012,0.002,-0.010,180.400,0.470
'[11:00:26.306 11/05/1995]',-0.012,0.002,0.001,180.400,0.470
'[11:00:26.308 11/05/1995]',-0.012,0.002,0.001,180.400,0.470
'[11:00:26.310 11/05/1995]',-0.012,0.002,0.001,180.400,0.470
'[11:00:26.312 11/05/1995]',-0.012,0.025,-0.021,180.400,0.448
'[11:00:26.314 11/05/1995]',-0.025,0.025,-0.033,180.400,0.448
'[11:00:26.316 11/05/1995]',-0.012,0.025,-0.044,180.400,0.448
'[11:00:26.318 11/05/1995]',-0.025,0.025,-0.033,180.400,0.448
'[11:00:26.320 11/05/1995]',-0.012,0.002,-0.010,180.400,0.422
'[11:00:26.322 11/05/1995]',-0.012,0.002,0.001,180.400,0.422
'[11:00:26.324 11/05/1995]',-0.012,0.002,0.012,180.400,0.422
'[11:00:26.326 11/05/1995]',-0.012,0.002,0.001,180.400,0.422
'[11:00:26.328 11/05/1995]',-0.025,0.002,-0.010,180.400,0.392
'[11:00:26.330 11/05/1995]',-0.012,0.025,-0.033,180.400,0.392
'[11:00:26.332 11/05/1995]',-0.025,0.025,-0.044,180.400,0.392
'[11:00:26.334 11/05/1995]',-0.025,0.025,-0.033,180.400,0.392
'[11:00:26.336 11/05/1995]',-0.025,0.002,-0.021,180.400,0.357
'[11:00:26.338 11/05/1995]',-0.012,0.002,0.001,180.400,0.357
'[11:00:26.340 11/05/1995]',-0.012,0.002,0.001,180.400,0.357
'[11:00:26.342 11/05/1995]',-0.012,0.002,0.001,180.400,0.357
'[11:00:26.344 11/05/1995]',-0.012,0.002,0.001,180.400,0.323
'[11:00:26.346 11/05/1995]',-0.012,0.025,-0.021,180.400,0.323
'[11:00:26.348 11/05/1995]',-0.025,0.025,-0.033,180.400,0.323
'[11:00:26.350 11/05/1995]',-0.012,0.025,-0.033,180.400,0.323
'[11:00:26.352 11/05/1995]',-0.012,0.002,-0.021,180.400,0.285
'[11:00:26.354 11/05/1995]',-0.025,0.002,0.001,180.400,0.285
'[11:00:26.356 11/05/1995]',-0.012,0.002,0.001,180.400,0.285
'[11:00:26.358 11/05/1995]',-0.006,0.002,0.001,180.400,0.285
'[11:00:26.360 11/05/1995]',-0.012,0.002,0.001,180.400,0.247
'[11:00:26.362 11/05/1995]',-0.012,0.002,-0.010,180.400,0.247
'[11:00:26.364 11/05/1995]',-0.012,0.025,-0.033,180.400,0.247
'[11:00:26.366 11/05/1995]',-0.012,0.025,-0.033,180.400,0.247
'[11:00:26.368 11/05/1995]',-0.012,0.002,-0.033,180.400,0.209
'[11:00:26.370 11/05/1995]',-0.025,0.002,-0.010,180.400,0.209
'[11:00:26.372 11/05/1995]',-0.006,0.002,0.001,180.400,0.209
'[11:00:26.374 11/05/1995]',-0.006,0.002,0.012,180.400,0.209
'[11:00:26.376 11/05/1995]',-0.006,0.002,0.001,180.400,0.171
'[11:00:26.378 11/05/1995]',-0.006,0.002,0.001,180.400,0.171
'[11:00:26.380 11/05/1995]',-0.012,0.002,-0.021,180.400,0.171
'[11:00:26.382 11/05/1995]',-0.012,0.025,-0.033,180.400,0.171
'[11:00:26.384 11/05/1995]',-0.012,0.002,-0.033,180.400,0.133
'[11:00:26.386 11/05/1995]',-0.012,0.002,-0.010,180.400,0.133
'[11:00:26.388 11/05/1995]',-0.012,0.002,0.001,180.400,0.133
'[11:00:26.390 11/05/1995]',-0.012,0.002,0.012,180.400,0.133
'[11:00:26.392 11/05/1995]',-0.012,0.002,0.001,180.400,0.096
'[11:00:26.394 11/05/1995]',-0.012,0.002,0.001,180.400,0.096
'[11:00:26.396 11/05/1995]',-0.012,0.002,-0.021,180.400,0.096
'[11:00:26.398 11/05/1995]',-0.012,0.002,-0.033,180.400,0.096
'[11:00:26.400 11/05/1995]',-0.025,0.002,-0.033,180.400,0.061
'[11:00:26.402 11/05/1995]',-0.012,0.002,-0.021,180.400,0.061
'[11:00:26.404 11/05/1995]',-0.012,0.002,0.001,180.400,0.061
'[11:00:26.406 11/05/1995]',-0.012,0.002,0.012,180.400,0.061
'[11:00:26.408 11/05/1995]',-0.012,0.002,0.012,180.400,0.029
'[11:00:26.410 11/05/1995]',-0.012,0.002,0.001,180.400,0.029
'[11:00:26.412 11/05/1995]',-0.012,0.002,-0.010,180.400,0.029
'[11:00:26.414 11/05/1995]',-0.012,0.002,-0.033,180.400,0.029
'[11:00:26.416 11/05/1995]',-0.012,0.002,-0.033,180.400,-0.003
'[11:00:26.418 11/05/1995]',-0.025,0.002,-0.021,180.400,-0.003
'[11:00:26.420 11/05/1995]',-0.012,0.002,0.001,180.400,-0.003
'[11:00:26.422 11/05/1995]',-0.012,0.002,0.012,180.400,-0.003
'[11:00:26.424 11/05/1995]',-0.006,0.002,0.023,180.400,-0.033
'[11:00:26.426 11/05/1995]',-0.012,0.002,0.001,180.400,-0.033
'[11:00:26.428 11/05/1995]',-0.012,0.002,0.001,180.400,-0.033
'[11:00:26.430 11/05/1995]',-0.012,0.002,-0.033,180.400,-0.033
'[11:00:26.432 11/05/1995]',-0.012,0.002,-0.033,180.400,-0.059
'[11:00:26.434 11/05/1995]',-0.012,0.002,-0.033,180.400,-0.059
'[11:00:26.436 11/05/1995]',-0.012,0.002,-0.010,180.400,-0.059
'[11:00:26.438 11/05/1995]',-0.012,0.002,0.001,180.400,-0.059
'[11:00:26.440 11/05/1995]',-0.006,0.002,0.012,180.400,-0.085
'[11:00:26.442 11/05/1995]',-0.006,0.002,0.012,180.400,-0.085
'[11:00:26.444 11/05/1995]',-0.012,0.002,0.001,180.400,-0.085
'[11:00:26.446 11/05/1995]',-0.012,0.002,-0.021,180.400,-0.085
'[11:00:26.448 11/05/1995]',-0.012,0.002,-0.033,180.400,-0.108
'[11:00:26.450 11/05/1995]',-0.025,0.002,-0.033,180.400,-0.108
'[11:00:26.452 11/05/1995]',-0.012,0.002,-0.021,180.400,-0.108
'[11:00:26.454 11/05/1995]',-0.012,0.002,0.001,180.400,-0.108
'[11:00:26.456 11/05/1995]',-0.012,0.002,0.023,180.400,-0.133
'[11:00:26.458 11/05/1995]',-0.006,0.002,0.012,180.400,-0.133
'[11:00:26.460 11/05/1995]',-0.012,0.002,0.001,180.400,-0.133
'[11:00:26.462 11/05/1995]',-0.012,0.002,-0.010,180.400,-0.133
'[11:00:26.464 11/05/1995]',-0.012,0.002,-0.033,180.400,-0.155
'[11:00:26.466 11/05/1995]',-0.006,0.002,-0.033,180.400,-0.155
'[11:00:26.468 11/05/1995]',-0.012,0.002,-0.021,180.400,-0.155
'[11:00:26.470 11/05/1995]',-0.006,0.002,0.001,180.400,-0.155
'[11:00:26.472 11/05/1995]',0.001,0.002,0.012,180.400,-0.175
'[11:00:26.474 11/05/1995]',0.001,0.002,0.012,180.400,-0.175
'[11:00:26.476 11/05/1995]',-0.006,0.002,0.001,180.400,-0.175
'[11:00:26.478 11/05/1995]',-0.006,0.002,0.001,180.400,-0.175
'[11:00:26.480 11/05/1995]',-0.006,0.002,-0.033,180.400,-0.196
'[11:00:26.482 11/05/1995]',-0.012,0.002,-0.033,180.400,-0.196
'[11:00:26.484 11/05/1995]',-0.006,0.002,-0.033,180.400,-0.196
'[11:00:26.486 11/05/1995]',-0.006,0.002,-0.010,180.400,-0.196
'[11:00:26.488 11/05/1995]',-0.006,0.002,0.001,180.400,-0.215
'[11:00:26.490 11/05/1995]',0.001,0.002,0.012,180.400,-0.215
'[11:00:26.492 11/05/1995]',-0.006,0.002,0.012,180.400,-0.215
'[11:00:26.494 11/05/1995]',-0.006,0.002,0.001,180.400,-0.215
'[11:00:26.496 11/05/1995]',-0.006,0.002,-0.021,180.400,-0.235
'[11:00:26.498 11/05/1995]',-0.006,0.002,-0.033,180.400,-0.235
'[11:00:26.500 11/05/1995]',-0.006,0.002,-0.033,180.400,-0.235
'[11:00:26.502 11/05/1995]',-0.012,0.002,-0.010,180.400,-0.235
'[11:00:26.504 11/05/1995]',0.001,0.002,0.001,180.400,-0.254
'[11:00:26.506 11/05/1995]',-0.006,0.002,0.012,180.400,-0.254
'[11:00:26.508 11/05/1995]',0.001,0.002,0.023,180.400,-0.254
'[11:00:26.510 11/05/1995]',0.001,0.002,0.001,180.400,-0.254
'[11:00:26.512 11/05/1995]',-0.006,0.002,0.001,180.400,-0.272
'[11:00:26.514 11/05/1995]',-0.006,0.002,-0.021,180.400,-0.272
'[11:00:26.516 11/05/1995]',-0.006,0.002,-0.033,180.400,-0.272
'[11:00:26.518 11/05/1995]',-0.006,0.025,-0.010,180.400,-0.272
'[11:00:26.520 11/05/1995]',-0.006,0.002,0.001,180.400,-0.289
'[11:00:26.522 11/05/1995]',-0.006,0.002,0.023,180.400,-0.289
'[11:00:26.524 11/05/1995]',-0.006,0.002,0.023,180.400,-0.289
'[11:00:26.526 11/05/1995]',-0.006,0.025,0.012,180.400,-0.289
'[11:00:26.528 11/05/1995]',-0.012,0.025,0.001,180.400,-0.307
'[11:00:26.530 11/05/1995]',-0.025,0.074,-0.033,180.400,-0.307
'[11:00:26.532 11/05/1995]',-0.025,0.074,-0.044,180.400,-0.307
'[11:00:26.534 11/05/1995]',-0.025,0.074,-0.033,180.400,-0.307
'[11:00:26.536 11/05/1995]',-0.012,0.050,0.001,180.400,-0.323
'[11:00:26.538 11/05/1995]',0.001,0.025,0.001,180.400,-0.323
'[11:00:26.540 11/05/1995]',0.001,0.025,0.023,180.400,-0.323
'[11:00:26.542 11/05/1995]',0.001,0.002,0.034,180.400,-0.323
'[11:00:26.544 11/05/1995]',0.001,0.025,0.012,180.400,-0.338
'[11:00:26.546 11/05/1995]',-0.006,0.025,0.001,180.400,-0.338
'[11:00:26.548 11/05/1995]',-0.012,0.025,-0.021,180.400,-0.338
'[11:00:26.550 11/05/1995]',-0.025,0.025,-0.021,180.400,-0.338
'[11:00:26.552 11/05/1995]',-0.031,0.025,-0.021,180.400,-0.353
'[11:00:26.554 11/05/1995]',-0.031,0.025,0.001,180.400,-0.353
'[11:00:26.556 11/05/1995]',-0.037,0.002,0.001,180.400,-0.353
'[11:00:26.558 11/05/1995]',-0.037,0.002,0.001,180.400,-0.353
'[11:00:26.560 11/05/1995]',-0.050,0.002,-0.010,180.400,-0.367
'[11:00:26.562 11/05/1995]',-0.050,0.025,-0.033,180.400,-0.367
'[11:00:26.564 11/05/1995]',-0.050,0.025,-0.055,180.400,-0.367
'[11:00:26.566 11/05/1995]',-0.050,0.025,-0.066,180.400,-0.367
'[11:00:26.568 11/05/1995]',-0.050,0.025,-0.044,180.400,-0.382
'[11:00:26.570 11/05/1995]',-0.037,0.002,-0.033,180.400,-0.382
'[11:00:26.572 11/05/1995]',-0.037,0.002,-0.010,180.400,-0.382
'[11:00:26.574 11/05/1995]',-0.037,0.002,0.001,180.400,-0.382
'[11:00:26.576 11/05/1995]',-0.037,0.002,-0.010,180.400,-0.395
'[11:00:26.578 11/05/1995]',-0.050,0.025,-0.033,180.400,-0.395
'[11:00:26.580 11/05/1995]',-0.050,0.025,-0.055,180.400,-0.395
'[11:00:26.582 11/05/1995]',-0.050,0.025,-0.055,180.400,-0.395
'[11:00:26.584 11/05/1995]',-0.037,0.025,-0.055,180.400,-0.409
'[11:00:26.586 11/05/1995]',-0.031,0.025,-0.033,180.400,-0.409
'[11:00:26.588 11/05/1995]',-0.025,0.025,-0.010,180.400,-0.409
'[11:00:26.590 11/05/1995]',-0.025,0.002,0.001,180.400,-0.409
'[11:00:26.592 11/05/1995]',-0.012,0.025,0.001,180.400,-0.423
'[11:00:26.594 11/05/1995]',-0.012,0.025,-0.010,180.400,-0.423
'[11:00:26.596 11/05/1995]',-0.006,0.025,-0.033,180.400,-0.423
'[11:00:26.598 11/05/1995]',-0.006,0.025,-0.033,180.400,-0.423
'[11:00:26.600 11/05/1995]',0.001,0.002,-0.033,180.400,-0.436
'[11:00:26.602 11/05/1995]',0.001,0.002,-0.010,180.400,-0.436
'[11:00:26.604 11/05/1995]',0.007,0.002,0.001,180.400,-0.436
'[11:00:26.606 11/05/1995]',0.007,-0.022,0.023,180.400,-0.436
'[11:00:26.608 11/05/1995]',0.007,-0.022,0.023,180.400,-0.450
'[11:00:26.610 11/05/1995]',0.007,-0.022,0.012,180.400,-0.450
'[11:00:26.612 11/05/1995]',0.007,0.002,0.001,180.400,-0.450
'[11:00:26.614 11/05/1995]',0.007,0.002,-0.021,180.400,-0.450
'[11:00:26.616 11/05/1995]',0.007,0.002,-0.021,180.400,-0.464
'[11:00:26.618 11/05/1995]',0.007,0.002,-0.010,180.400,-0.464
'[11:00:26.620 11/05/1995]',0.007,-0.022,0.001,180.400,-0.464
'[11:00:26.622 11/05/1995]',0.007,-0.022,0.023,180.400,-0.464
'[11:00:26.624 11/05/1995]',0.007,-0.022,0.034,180.400,-0.478
'[11:00:26.626 11/05/1995]',0.007,-0.022,0.012,180.400,-0.478
'[11:00:26.628 11/05/1995]',0.001,-0.022,0.001,180.400,-0.478
'[11:00:26.630 11/05/1995]',0.001,0.002,-0.021,180.400,-0.478
'[11:00:26.632 11/05/1995]',0.001,0.002,-0.021,180.400,-0.492
'[11:00:26.634 11/05/1995]',0.001,0.002,-0.021,180.400,-0.492
'[11:00:26.636 11/05/1995]',0.001,-0.022,0.001,180.400,-0.492
'[11:00:26.638 11/05/1995]',0.007,-0.022,0.012,180.400,-0.492
'[11:00:26.640 11/05/1995]',0.013,-0.022,0.023,180.400,-0.507
'[11:00:26.642 11/05/1995]',0.007,-0.022,0.023,180.400,-0.507
'[11:00:26.644 11/05/1995]',0.007,-0.022,0.001,180.400,-0.507
'[11:00:26.646 11/05/1995]',0.007,0.002,-0.010,180.400,-0.507
'[11:00:26.648 11/05/1995]',0.001,0.002,-0.021,180.400,-0.521
'[11:00:26.650 11/05/1995]',0.001,0.002,-0.033,180.400,-0.521
'[11:00:26.652 11/05/1995]',0.001,0.002,-0.010,180.400,-0.521
'[11:00:26.654 11/05/1995]',0.001,-0.022,0.001,180.400,-0.521
'[11:00:26.656 11/05/1995]',0.007,-0.022,0.023,180.400,-0.534
'[11:00:26.658 11/05/1995]',0.007,-0.022,0.023,180.400,-0.534
'[11:00:26.660 11/05/1995]',0.001,-0.022,0.001,180.400,-0.534
'[11:00:26.662 11/05/1995]',0.001,0.002,0.001,180.400,-0.534
'[11:00:26.664 11/05/1995]',0.001,0.002,-0.021,180.400,-0.546
'[11:00:26.666 11/05/1995]',-0.006,0.002,-0.021,180.400,-0.546
'[11:00:26.668 11/05/1995]',0.007,0.002,0.001,180.400,-0.546
'[11:00:26.670 11/05/1995]',0.013,0.002,0.012,180.400,-0.546
'[11:00:26.672 11/05/1995]',0.032,-0.022,0.045,180.400,-0.557
'[11:00:26.674 11/05/1995]',0.057,-0.022,0.068,180.400,-0.557
'[11:00:26.676 11/05/1995]',0.082,0.002,0.090,180.400,-0.557
'[11:00:26.678 11/05/1995]',0.119,0.002,0.102,180.400,-0.557
'[11:00:26.680 11/05/1995]',0.151,0.002,0.113,180.400,-0.567
'[11:00:26.682 11/05/1995]',0.188,0.002,0.146,180.400,-0.567
'[11:00:26.684 11/05/1995]',0.220,0.002,0.168,180.400,-0.567
'[11:00:26.686 11/05/1995]',0.239,0.025,0.202,180.400,-0.567
'[11:00:26.688 11/05/1995]',0.257,0.025,0.224,180.400,-0.576
'[11:00:26.690 11/05/1995]',0.245,0.074,0.224,180.400,-0.576
'[11:00:26.692 11/05/1995]',0.245,0.147,0.202,180.400,-0.576
'[11:00:26.694 11/05/1995]',0.239,0.196,0.168,180.400,-0.576
'[11:00:26.696 11/05/1995]',0.220,0.293,0.102,180.400,-0.585
'[11:00:26.698 11/05/1995]',0.188,0.342,0.034,180.400,-0.585
'[11:00:26.700 11/05/1995]',0.163,0.342,0.023,180.400,-0.585
'[11:00:26.702 11/05/1995]',0.176,0.269,0.057,180.400,-0.585
'[11:00:26.704 11/05/1995]',0.195,0.123,0.102,180.400,-0.590
'[11:00:26.706 11/05/1995]',0.213,-0.022,0.146,180.400,-0.590
'[11:00:26.708 11/05/1995]',0.220,-0.217,0.191,180.400,-0.590
'[11:00:26.710 11/05/1995]',0.220,-0.362,0.213,180.400,-0.590
'[11:00:26.712 11/05/1995]',0.220,-0.459,0.224,180.400,-0.595
'[11:00:26.714 11/05/1995]',0.220,-0.532,0.224,180.400,-0.595
'[11:00:26.716 11/05/1995]',0.207,-0.605,0.213,180.400,-0.595
'[11:00:26.718 11/05/1995]',0.170,-0.654,0.202,180.400,-0.595
'[11:00:26.720 11/05/1995]',0.138,-0.654,0.202,180.400,-0.601
'[11:00:26.722 11/05/1995]',0.107,-0.654,0.191,180.400,-0.601
'[11:00:26.724 11/05/1995]',0.076,-0.629,0.168,180.400,-0.601
'[11:00:26.726 11/05/1995]',0.057,-0.581,0.135,180.400,-0.601
'[11:00:26.728 11/05/1995]',0.051,-0.508,0.102,180.400,-0.602
'[11:00:26.730 11/05/1995]',0.025,-0.410,0.057,180.400,-0.602
'[11:00:26.732 11/05/1995]',0.001,-0.338,0.023,180.400,-0.602
'[11:00:26.734 11/05/1995]',-0.006,-0.241,0.001,180.400,-0.602
'[11:00:26.736 11/05/1995]',-0.025,-0.192,0.001,180.400,-0.604
'[11:00:26.738 11/05/1995]',-0.025,-0.144,0.001,180.400,-0.604
'[11:00:26.740 11/05/1995]',-0.031,-0.095,0.001,180.400,-0.604
'[11:00:26.742 11/05/1995]',-0.037,-0.046,0.001,180.400,-0.604
'[11:00:26.744 11/05/1995]',-0.031,-0.022,-0.010,180.400,-0.606
'[11:00:26.746 11/05/1995]',-0.031,0.002,-0.033,180.400,-0.606
'[11:00:26.748 11/05/1995]',-0.031,0.002,-0.044,180.400,-0.606
'[11:00:26.750 11/05/1995]',-0.031,0.002,-0.044,180.400,-0.606
'[11:00:26.752 11/05/1995]',-0.031,0.002,-0.021,180.400,-0.607
'[11:00:26.754 11/05/1995]',-0.025,-0.022,0.001,180.400,-0.607
'[11:00:26.756 11/05/1995]',-0.031,-0.022,0.001,180.400,-0.607
'[11:00:26.758 11/05/1995]',-0.025,-0.022,0.001,180.400,-0.607
'[11:00:26.760 11/05/1995]',-0.025,0.002,0.001,180.400,-0.606
'[11:00:26.762 11/05/1995]',-0.025,0.002,-0.010,180.400,-0.606
'[11:00:26.764 11/05/1995]',-0.031,0.002,-0.033,180.400,-0.606
'[11:00:26.766 11/05/1995]',-0.031,0.002,-0.033,180.400,-0.606
'[11:00:26.768 11/05/1995]',-0.031,0.002,-0.021,180.400,-0.605
'[11:00:26.770 11/05/1995]',-0.031,0.002,-0.010,180.400,-0.605
'[11:00:26.772 11/05/1995]',-0.025,0.002,0.001,180.400,-0.605
'[11:00:26.774 11/05/1995]',-0.025,0.002,0.001,180.400,-0.605
'[11:00:26.776 11/05/1995]',-0.025,0.002,0.001,180.400,-0.602
'[11:00:26.778 11/05/1995]',-0.025,0.002,-0.010,180.400,-0.602
'[11:00:26.780 11/05/1995]',-0.025,0.025,-0.033,180.400,-0.602
'[11:00:26.782 11/05/1995]',-0.031,0.025,-0.044,180.400,-0.602
'[11:00:26.784 11/05/1995]',-0.031,0.025,-0.033,180.400,-0.600
'[11:00:26.786 11/05/1995]',-0.031,0.025,-0.033,180.400,-0.600
'[11:00:26.788 11/05/1995]',-0.031,0.002,0.001,180.400,-0.600
'[11:00:26.790 11/05/1995]',-0.025,0.002,0.001,180.400,-0.600
'[11:00:26.792 11/05/1995]',-0.025,0.025,0.001,180.400,-0.598
'[11:00:26.794 11/05/1995]',-0.025,0.025,-0.010,180.400,-0.598
'[11:00:26.796 11/05/1995]',-0.025,0.025,-0.033,180.400,-0.598
'[11:00:26.798 11/05/1995]',-0.031,0.050,-0.044,180.400,-0.598
'[11:00:26.800 11/05/1995]',-0.025,0.050,-0.044,180.400,-0.611
'[11:00:26.802 11/05/1995]',-0.031,0.025,-0.033,180.400,-0.611
'[11:00:26.804 11/05/1995]',-0.025,0.025,-0.010,180.400,-0.611
'[11:00:26.806 11/05/1995]',-0.031,0.025,0.001,180.400,-0.611
'[11:00:26.808 11/05/1995]',-0.025,0.025,0.001,180.400,-0.608
'[11:00:26.810 11/05/1995]',-0.025,0.025,0.001,180.400,-0.608
'[11:00:26.812 11/05/1995]',-0.025,0.050,-0.033,180.400,-0.608
'[11:00:26.814 11/05/1995]',-0.025,0.050,-0.044,180.400,-0.608
'[11:00:26.816 11/05/1995]',-0.031,0.050,-0.055,180.400,-0.603
'[11:00:26.818 11/05/1995]',-0.025,0.050,-0.033,180.400,-0.603
'[11:00:26.820 11/05/1995]',-0.025,0.025,-0.021,180.400,-0.603
'[11:00:26.822 11/05/1995]',-0.025,0.025,0.001,180.400,-0.603
'[11:00:26.824 11/05/1995]',-0.025,0.025,0.001,180.400,-0.598
'[11:00:26.826 11/05/1995]',-0.025,0.025,0.001,180.400,-0.598
'[11:00:26.828 11/05/1995]',-0.025,0.050,-0.021,180.400,-0.598
'[11:00:26.830 11/05/1995]',-0.025,0.050,-0.044,180.400,-0.598
'[11:00:26.832 11/05/1995]',-0.025,0.050,-0.055,180.400,-0.593
'[11:00:26.834 11/05/1995]',-0.031,0.050,-0.044,180.400,-0.593
'[11:00:26.836 11/05/1995]',-0.025,0.050,-0.033,180.400,-0.593
'[11:00:26.838 11/05/1995]',-0.012,0.025,0.001,180.400,-0.593
'[11:00:26.840 11/05/1995]',-0.025,0.025,0.001,180.400,-0.589
'[11:00:26.842 11/05/1995]',-0.025,0.025,0.001,180.400,-0.589
'[11:00:26.844 11/05/1995]',-0.025,0.050,-0.010,180.400,-0.589
'[11:00:26.846 11/05/1995]',-0.025,0.074,-0.033,180.400,-0.589
'[11:00:26.848 11/05/1995]',-0.031,0.074,-0.055,180.400,-0.584
'[11:00:26.850 11/05/1995]',-0.031,0.074,-0.055,180.400,-0.584
'[11:00:26.852 11/05/1995]',-0.025,0.050,-0.033,180.400,-0.584
'[11:00:26.854 11/05/1995]',-0.025,0.025,-0.010,180.400,-0.584
'[11:00:26.856 11/05/1995]',-0.025,0.025,0.001,180.400,-0.581
'[11:00:26.858 11/05/1995]',-0.025,0.025,0.001,180.400,-0.581
'[11:00:26.860 11/05/1995]',-0.025,0.050,-0.010,180.400,-0.581
'[11:00:26.862 11/05/1995]',-0.031,0.050,-0.033,180.400,-0.581
'[11:00:26.864 11/05/1995]',-0.031,0.074,-0.055,180.400,-0.576
'[11:00:26.866 11/05/1995]',-0.031,0.074,-0.055,180.400,-0.576
'[11:00:26.868 11/05/1995]',-0.031,0.050,-0.044,180.400,-0.576
'[11:00:26.870 11/05/1995]',-0.025,0.050,-0.021,180.400,-0.576
'[11:00:26.872 11/05/1995]',-0.025,0.025,0.001,180.400,-0.574
'[11:00:26.874 11/05/1995]',-0.025,0.050,0.001,180.400,-0.574
'[11:00:26.876 11/05/1995]',-0.012,0.050,0.001,180.400,-0.574
'[11:00:26.878 11/05/1995]',-0.025,0.050,-0.021,180.400,-0.574
'[11:00:26.880 11/05/1995]',-0.025,0.074,-0.044,180.400,-0.572
'[11:00:26.882 11/05/1995]',-0.031,0.074,-0.055,180.400,-0.572
'[11:00:26.884 11/05/1995]',-0.025,0.074,-0.044,180.400,-0.572
'[11:00:26.886 11/05/1995]',-0.025,0.050,-0.033,180.400,-0.572
'[11:00:26.888 11/05/1995]',-0.012,0.050,0.001,180.400,-0.568
'[11:00:26.890 11/05/1995]',-0.012,0.025,0.001,180.400,-0.568
'[11:00:26.892 11/05/1995]',-0.025,0.050,0.001,180.400,-0.568
'[11:00:26.894 11/05/1995]',-0.012,0.074,-0.010,180.400,-0.568
'[11:00:26.896 11/05/1995]',-0.025,0.074,-0.033,180.400,-0.568
'[11:00:26.898 11/05/1995]',-0.025,0.074,-0.033,180.400,-0.568
'[11:00:26.900 11/05/1995]',-0.025,0.074,-0.044,180.400,-0.568
'[11:00:26.902 11/05/1995]',-0.025,0.074,-0.033,180.400,-0.568
'[11:00:26.904 11/05/1995]',-0.012,0.050,0.001,180.400,-0.566
'[11:00:26.906 11/05/1995]',-0.012,0.050,0.001,180.400,-0.566
'[11:00:26.908 11/05/1995]',-0.006,0.050,0.001,180.400,-0.566
'[11:00:26.910 11/05/1995]',-0.012,0.050,0.001,180.400,-0.566
'[11:00:26.912 11/05/1995]',-0.012,0.074,-0.010,180.400,-0.565
'[11:00:26.914 11/05/1995]',-0.012,0.074,-0.033,180.400,-0.565
'[11:00:26.916 11/05/1995]',-0.025,0.074,-0.033,180.400,-0.565
'[11:00:26.918 11/05/1995]',-0.012,0.074,-0.021,180.400,-0.565
'[11:00:26.920 11/05/1995]',-0.012,0.050,0.001,180.400,-0.564
'[11:00:26.922 11/05/1995]',-0.006,0.050,0.001,180.400,-0.564
'[11:00:26.924 11/05/1995]',-0.006,0.025,0.012,180.400,-0.564
'[11:00:26.926 11/05/1995]',0.001,0.050,0.012,180.400,-0.564
'[11:00:26.928 11/05/1995]',0.001,0.050,0.001,180.400,-0.564
'[11:00:26.930 11/05/1995]',-0.006,0.074,-0.010,180.400,-0.564
'[11:00:26.932 11/05/1995]',0.001,0.074,-0.021,180.400,-0.564
'[11:00:26.934 11/05/1995]',0.001,0.074,-0.010,180.400,-0.564
'[11:00:26.936 11/05/1995]',0.007,0.050,0.001,180.400,-0.562
'[11:00:26.938 11/05/1995]',0.007,0.025,0.023,180.400,-0.562
'[11:00:26.940 11/05/1995]',0.013,0.025,0.034,180.400,-0.562
'[11:00:26.942 11/05/1995]',0.007,0.025,0.034,180.400,-0.562
'[11:00:26.944 11/05/1995]',0.013,0.025,0.023,180.400,-0.561
'[11:00:26.946 11/05/1995]',0.013,0.050,0.001,180.400,-0.561
'[11:00:26.948 11/05/1995]',0.013,0.050,0.001,180.400,-0.561
'[11:00:26.950 11/05/1995]',0.013,0.050,0.001,180.400,-0.561
'[11:00:26.952 11/05/1995]',0.025,0.025,0.012,180.400,-0.558
'[11:00:26.954 11/05/1995]',0.025,0.025,0.034,180.400,-0.558
'[11:00:26.956 11/05/1995]',0.025,0.002,0.057,180.400,-0.558
'[11:00:26.958 11/05/1995]',0.025,0.002,0.057,180.400,-0.558
'[11:00:26.960 11/05/1995]',0.032,0.025,0.045,180.400,-0.553
'[11:00:26.962 11/05/1995]',0.025,0.025,0.034,180.400,-0.553
'[11:00:26.964 11/05/1995]',0.025,0.025,0.012,180.400,-0.553
'[11:00:26.966 11/05/1995]',0.032,0.025,0.012,180.400,-0.553
'[11:00:26.968 11/05/1995]',0.032,0.025,0.034,180.400,-0.546
'[11:00:26.970 11/05/1995]',0.032,0.002,0.045,180.400,-0.546
'[11:00:26.972 11/05/1995]',0.032,0.002,0.068,180.400,-0.546
'[11:00:26.974 11/05/1995]',0.038,0.002,0.068,180.400,-0.546
'[11:00:26.976 11/05/1995]',0.032,0.002,0.068,180.400,-0.533
'[11:00:26.978 11/05/1995]',0.038,0.002,0.045,180.400,-0.533
'[11:00:26.980 11/05/1995]',0.032,0.025,0.023,180.400,-0.533
'[11:00:26.982 11/05/1995]',0.025,0.025,0.012,180.400,-0.533
'[11:00:26.984 11/05/1995]',0.032,0.025,0.023,180.400,-0.516
'[11:00:26.986 11/05/1995]',0.032,0.002,0.034,180.400,-0.516
'[11:00:26.988 11/05/1995]',0.038,0.002,0.057,180.400,-0.516
'[11:00:26.990 11/05/1995]',0.032,0.002,0.068,180.400,-0.516
'[11:00:26.992 11/05/1995]',0.032,0.002,0.068,180.400,-0.492
'[11:00:26.994 11/05/1995]',0.032,0.002,0.045,180.400,-0.492
'[11:00:26.996 11/05/1995]',0.025,0.002,0.023,180.400,-0.492
'[11:00:26.998 11/05/1995]',0.013,0.002,0.001,180.400,-0.492
'[11:00:27.000 11/05/1995]',0.013,0.025,0.001,180.400,-0.462
'[11:00:27.002 11/05/1995]',0.013,0.002,0.012,180.400,-0.462
'[11:00:27.004 11/05/1995]',0.013,0.002,0.034,180.400,-0.462
'[11:00:27.006 11/05/1995]',0.013,0.002,0.045,180.400,-0.462
'[11:00:27.008 11/05/1995]',0.013,0.002,0.045,180.400,-0.423
'[11:00:27.010 11/05/1995]',0.007,0.002,0.034,180.400,-0.423
'[11:00:27.012 11/05/1995]',0.001,0.002,0.001,180.400,-0.423
'[11:00:27.014 11/05/1995]',0.001,0.002,-0.010,180.400,-0.423
'[11:00:27.016 11/05/1995]',0.001,0.025,-0.010,180.400,-0.377
'[11:00:27.018 11/05/1995]',-0.006,0.002,-0.010,180.400,-0.377
'[11:00:27.020 11/05/1995]',0.001,0.002,0.012,180.400,-0.377
'[11:00:27.022 11/05/1995]',0.001,0.002,0.023,180.400,-0.377
'[11:00:27.024 11/05/1995]',0.001,0.002,0.034,180.400,-0.323
'[11:00:27.026 11/05/1995]',-0.006,0.002,0.023,180.400,-0.323
'[11:00:27.028 11/05/1995]',-0.006,0.002,0.001,180.400,-0.323
'[11:00:27.030 11/05/1995]',-0.012,0.025,-0.021,180.400,-0.323
'[11:00:27.032 11/05/1995]',-0.012,0.025,-0.033,180.400,-0.263
'[11:00:27.034 11/05/1995]',-0.012,0.002,-0.021,180.400,-0.263
'[11:00:27.036 11/05/1995]',-0.012,0.002,-0.010,180.400,-0.263
'[11:00:27.038 11/05/1995]',-0.012,0.002,0.001,180.400,-0.263
'[11:00:27.040 11/05/1995]',-0.006,0.002,0.012,180.400,-0.199
'[11:00:27.042 11/05/1995]',-0.012,0.002,0.012,180.400,-0.199
'[11:00:27.044 11/05/1995]',-0.012,0.002,0.001,180.400,-0.199
'[11:00:27.046 11/05/1995]',-0.012,0.002,-0.021,180.400,-0.199
'[11:00:27.048 11/05/1995]',-0.025,0.025,-0.033,180.400,-0.130
'[11:00:27.050 11/05/1995]',-0.031,0.002,-0.033,180.400,-0.130
'[11:00:27.052 11/05/1995]',-0.025,0.002,-0.021,180.400,-0.130
'[11:00:27.054 11/05/1995]',-0.025,0.002,0.001,180.400,-0.130
'[11:00:27.056 11/05/1995]',-0.025,0.002,0.001,180.400,-0.059
'[11:00:27.058 11/05/1995]',-0.025,0.002,0.001,180.400,-0.059
'[11:00:27.060 11/05/1995]',-0.025,0.002,0.001,180.400,-0.059
'[11:00:27.062 11/05/1995]',-0.031,0.002,-0.021,180.400,-0.059
'[11:00:27.064 11/05/1995]',-0.025,0.025,-0.033,180.400,0.011
'[11:00:27.066 11/05/1995]',-0.031,0.025,-0.044,180.400,0.011
'[11:00:27.068 11/05/1995]',-0.031,0.002,-0.033,180.400,0.011
'[11:00:27.070 11/05/1995]',-0.025,0.002,-0.010,180.400,0.011
'[11:00:27.072 11/05/1995]',-0.025,0.002,0.001,180.400,0.080
'[11:00:27.074 11/05/1995]',-0.025,0.002,0.001,180.400,0.080
'[11:00:27.076 11/05/1995]',-0.025,0.002,0.001,180.400,0.080
'[11:00:27.078 11/05/1995]',-0.031,0.002,-0.010,180.400,0.080
'[11:00:27.080 11/05/1995]',-0.031,0.002,-0.033,180.400,0.145
'[11:00:27.082 11/05/1995]',-0.031,0.025,-0.044,180.400,0.145
'[11:00:27.084 11/05/1995]',-0.031,0.002,-0.033,180.400,0.145
'[11:00:27.086 11/05/1995]',-0.031,0.002,-0.021,180.400,0.145
'[11:00:27.088 11/05/1995]',-0.025,0.002,0.001,180.400,0.205
'[11:00:27.090 11/05/1995]',-0.025,0.002,0.001,180.400,0.205
'[11:00:27.092 11/05/1995]',-0.025,0.002,0.001,180.400,0.205
'[11:00:27.094 11/05/1995]',-0.031,0.002,-0.010,180.400,0.205
'[11:00:27.096 11/05/1995]',-0.031,0.002,-0.033,180.400,0.259
'[11:00:27.098 11/05/1995]',-0.031,0.002,-0.044,180.400,0.259
'[11:00:27.100 11/05/1995]',-0.031,0.025,-0.044,180.400,0.259
'[11:00:27.102 11/05/1995]',-0.031,0.002,-0.033,180.400,0.259
'[11:00:27.104 11/05/1995]',-0.031,0.002,0.001,180.400,0.308
'[11:00:27.106 11/05/1995]',-0.031,0.002,0.001,180.400,0.308
'[11:00:27.108 11/05/1995]',-0.031,0.002,0.001,180.400,0.308
'[11:00:27.110 11/05/1995]',-0.031,0.002,0.001,180.400,0.308
'[11:00:27.112 11/05/1995]',-0.031,0.025,-0.033,180.400,0.349
'[11:00:27.114 11/05/1995]',-0.031,0.025,-0.044,180.400,0.349
'[11:00:27.116 11/05/1995]',-0.031,0.025,-0.044,180.400,0.349
'[11:00:27.118 11/05/1995]',-0.031,0.002,-0.033,180.400,0.349
'[11:00:27.120 11/05/1995]',-0.025,0.002,-0.010,180.400,0.383
'[11:00:27.122 11/05/1995]',-0.025,0.002,0.001,180.400,0.383
'[11:00:27.124 11/05/1995]',-0.025,0.002,0.001,180.400,0.383
'[11:00:27.126 11/05/1995]',-0.025,0.002,0.001,180.400,0.383
'[11:00:27.128 11/05/1995]',-0.025,0.002,-0.010,180.400,0.409
'[11:00:27.130 11/05/1995]',-0.031,0.025,-0.033,180.400,0.409
'[11:00:27.132 11/05/1995]',-0.031,0.025,-0.044,180.400,0.409
'[11:00:27.134 11/05/1995]',-0.031,0.025,-0.033,180.400,0.409
'[11:00:27.136 11/05/1995]',-0.025,0.002,-0.021,180.400,0.426
'[11:00:27.138 11/05/1995]',-0.025,0.002,0.001,180.400,0.426
'[11:00:27.140 11/05/1995]',-0.025,0.002,0.001,180.400,0.426
'[11:00:27.142 11/05/1995]',-0.025,0.002,0.001,180.400,0.426
'[11:00:27.144 11/05/1995]',-0.031,0.002,-0.010,180.400,0.439
'[11:00:27.146 11/05/1995]',-0.031,0.025,-0.033,180.400,0.439
'[11:00:27.148 11/05/1995]',-0.031,0.025,-0.044,180.400,0.439
'[11:00:27.150 11/05/1995]',-0.031,0.025,-0.044,180.400,0.439
'[11:00:27.152 11/05/1995]',-0.031,0.025,-0.021,180.400,0.443
'[11:00:27.154 11/05/1995]',-0.031,0.002,0.001,180.400,0.443
'[11:00:27.156 11/05/1995]',-0.025,0.002,0.001,180.400,0.443
'[11:00:27.158 11/05/1995]',-0.012,0.002,0.001,180.400,0.443
'[11:00:27.160 11/05/1995]',-0.025,0.002,0.001,180.400,0.440
'[11:00:27.162 11/05/1995]',-0.031,0.025,-0.021,180.400,0.440
'[11:00:27.164 11/05/1995]',-0.031,0.025,-0.044,180.400,0.440
'[11:00:27.166 11/05/1995]',-0.025,0.025,-0.044,180.400,0.440
'[11:00:27.168 11/05/1995]',-0.031,0.025,-0.033,180.400,0.430
'[11:00:27.170 11/05/1995]',-0.031,0.002,-0.010,180.400,0.430
'[11:00:27.172 11/05/1995]',-0.025,0.002,0.001,180.400,0.430
'[11:00:27.174 11/05/1995]',-0.025,0.002,0.001,180.400,0.430
'[11:00:27.176 11/05/1995]',-0.025,0.002,0.001,180.400,0.416
'[11:00:27.178 11/05/1995]',-0.025,0.002,-0.021,180.400,0.416
'[11:00:27.180 11/05/1995]',-0.025,0.025,-0.033,180.400,0.416
'[11:00:27.182 11/05/1995]',-0.031,0.025,-0.044,180.400,0.416
'[11:00:27.184 11/05/1995]',-0.025,0.025,-0.033,180.400,0.396
'[11:00:27.186 11/05/1995]',-0.025,0.002,-0.021,180.400,0.396
'[11:00:27.188 11/05/1995]',-0.012,0.002,0.001,180.400,0.396
'[11:00:27.190 11/05/1995]',-0.006,0.002,0.001,180.400,0.396
'[11:00:27.192 11/05/1995]',-0.012,0.002,0.001,180.400,0.370
'[11:00:27.194 11/05/1995]',-0.012,0.002,-0.010,180.400,0.370
'[11:00:27.196 11/05/1995]',-0.012,0.025,-0.033,180.400,0.370
'[11:00:27.198 11/05/1995]',-0.012,0.025,-0.033,180.400,0.370
'[11:00:27.200 11/05/1995]',-0.012,0.025,-0.033,180.400,0.341
'[11:00:27.202 11/05/1995]',-0.012,0.002,-0.021,180.400,0.341
'[11:00:27.204 11/05/1995]',-0.012,0.002,0.001,180.400,0.341
'[11:00:27.206 11/05/1995]',-0.012,0.002,0.001,180.400,0.341
'[11:00:27.208 11/05/1995]',-0.012,0.002,0.001,180.400,0.308
'[11:00:27.210 11/05/1995]',-0.012,0.002,0.001,180.400,0.308
'[11:00:27.212 11/05/1995]',-0.012,0.002,-0.021,180.400,0.308
'[11:00:27.214 11/05/1995]',-0.012,0.025,-0.033,180.400,0.308
'[11:00:27.216 11/05/1995]',-0.012,0.025,-0.044,180.400,0.270
'[11:00:27.218 11/05/1995]',-0.012,0.002,-0.021,180.400,0.270
'[11:00:27.220 11/05/1995]',-0.012,0.002,-0.010,180.400,0.270
'[11:00:27.222 11/05/1995]',-0.012,0.002,0.001,180.400,0.270
'[11:00:27.224 11/05/1995]',-0.006,0.002,0.001,180.400,0.233
'[11:00:27.226 11/05/1995]',-0.006,0.002,0.001,180.400,0.233
'[11:00:27.228 11/05/1995]',-0.006,0.002,0.001,180.400,0.233
'[11:00:27.230 11/05/1995]',-0.012,0.002,-0.033,180.400,0.233
'[11:00:27.232 11/05/1995]',-0.012,0.002,-0.033,180.400,0.192
'[11:00:27.234 11/05/1995]',-0.012,0.002,-0.033,180.400,0.192
'[11:00:27.236 11/05/1995]',-0.012,0.002,-0.010,180.400,0.192
'[11:00:27.238 11/05/1995]',-0.006,0.002,0.001,180.400,0.192
'[11:00:27.240 11/05/1995]',-0.006,0.002,0.012,180.400,0.152
'[11:00:27.242 11/05/1995]',-0.006,0.002,0.001,180.400,0.152
'[11:00:27.244 11/05/1995]',-0.012,0.002,0.001,180.400,0.152
'[11:00:27.246 11/05/1995]',-0.012,0.002,-0.021,180.400,0.152
'[11:00:27.248 11/05/1995]',-0.012,0.002,-0.033,180.400,0.113
'[11:00:27.250 11/05/1995]',-0.012,0.002,-0.033,180.400,0.113
'[11:00:27.252 11/05/1995]',-0.006,0.002,-0.021,180.400,0.113
'[11:00:27.254 11/05/1995]',-0.006,0.002,0.001,180.400,0.113
'[11:00:27.256 11/05/1995]',-0.006,0.002,0.012,180.400,0.073
'[11:00:27.258 11/05/1995]',-0.006,0.002,0.012,180.400,0.073
'[11:00:27.260 11/05/1995]',-0.006,0.002,0.001,180.400,0.073
'[11:00:27.262 11/05/1995]',-0.012,0.002,-0.021,180.400,0.073
'[11:00:27.264 11/05/1995]',-0.012,0.002,-0.033,180.400,0.036
'[11:00:27.266 11/05/1995]',-0.012,0.002,-0.033,180.400,0.036
'[11:00:27.268 11/05/1995]',-0.012,0.002,-0.033,180.400,0.036
'[11:00:27.270 11/05/1995]',-0.006,0.002,0.001,180.400,0.036
'[11:00:27.272 11/05/1995]',-0.006,0.002,0.001,180.400,0.002
'[11:00:27.274 11/05/1995]',-0.006,0.002,0.012,180.400,0.002
'[11:00:27.276 11/05/1995]',-0.006,0.002,0.001,180.400,0.002
'[11:00:27.278 11/05/1995]',-0.012,0.002,0.001,180.400,0.002
'[11:00:27.280 11/05/1995]',-0.006,0.002,-0.033,180.400,-0.031
'[11:00:27.282 11/05/1995]',-0.012,0.002,-0.033,180.400,-0.031
'[11:00:27.284 11/05/1995]',-0.012,0.002,-0.033,180.400,-0.031
'[11:00:27.286 11/05/1995]',-0.012,0.002,-0.010,180.400,-0.031
'[11:00:27.288 11/05/1995]',-0.006,0.002,0.001,180.400,-0.062
'[11:00:27.290 11/05/1995]',-0.006,0.002,0.012,180.400,-0.062
'[11:00:27.292 11/05/1995]',-0.006,0.002,0.001,180.400,-0.062
'[11:00:27.294 11/05/1995]',-0.006,0.002,0.001,180.400,-0.062
'[11:00:27.296 11/05/1995]',-0.006,0.002,-0.021,180.400,-0.089
'[11:00:27.298 11/05/1995]',-0.006,0.002,-0.033,180.400,-0.089
'[11:00:27.300 11/05/1995]',-0.012,0.002,-0.033,180.400,-0.089
'[11:00:27.302 11/05/1995]',-0.006,0.002,-0.021,180.400,-0.089
'[11:00:27.304 11/05/1995]',-0.006,0.002,0.001,180.400,-0.116
'[11:00:27.306 11/05/1995]',-0.012,0.002,0.001,180.400,-0.116
'[11:00:27.308 11/05/1995]',-0.006,0.002,0.012,180.400,-0.116
'[11:00:27.310 11/05/1995]',-0.006,0.002,0.001,180.400,-0.116
'[11:00:27.312 11/05/1995]',-0.012,0.002,-0.010,180.400,-0.141
'[11:00:27.314 11/05/1995]',-0.006,0.002,-0.033,180.400,-0.141
'[11:00:27.316 11/05/1995]',-0.006,0.002,-0.033,180.400,-0.141
'[11:00:27.318 11/05/1995]',-0.006,0.002,-0.021,180.400,-0.141
'[11:00:27.320 11/05/1995]',-0.006,0.002,0.001,180.400,-0.164
'[11:00:27.322 11/05/1995]',0.001,0.002,0.012,180.400,-0.164
'[11:00:27.324 11/05/1995]',-0.006,0.002,0.012,180.400,-0.164
'[11:00:27.326 11/05/1995]',-0.006,0.002,0.001,180.400,-0.164
'[11:00:27.328 11/05/1995]',-0.006,0.002,0.001,180.400,-0.184
'[11:00:27.330 11/05/1995]',-0.006,0.002,-0.033,180.400,-0.184
'[11:00:27.332 11/05/1995]',-0.006,0.002,-0.033,180.400,-0.184
'[11:00:27.334 11/05/1995]',-0.012,0.002,-0.033,180.400,-0.184
'[11:00:27.336 11/05/1995]',-0.006,0.002,0.001,180.400,-0.204
'[11:00:27.338 11/05/1995]',-0.006,0.002,0.001,180.400,-0.204
'[11:00:27.340 11/05/1995]',-0.006,0.002,0.012,180.400,-0.204
'[11:00:27.342 11/05/1995]',-0.006,0.002,0.001,180.400,-0.204
'[11:00:27.344 11/05/1995]',-0.006,0.002,0.001,180.400,-0.224
'[11:00:27.346 11/05/1995]',-0.006,0.002,-0.021,180.400,-0.224
'[11:00:27.348 11/05/1995]',-0.012,0.002,-0.033,180.400,-0.224
'[11:00:27.350 11/05/1995]',-0.006,0.002,-0.033,180.400,-0.224
'[11:00:27.352 11/05/1995]',-0.006,0.002,-0.010,180.400,-0.242
'[11:00:27.354 11/05/1995]',-0.006,0.002,0.001,180.400,-0.242
'[11:00:27.356 11/05/1995]',0.001,0.002,0.012,180.400,-0.242
'[11:00:27.358 11/05/1995]',-0.006,0.002,0.012,180.400,-0.242
'[11:00:27.360 11/05/1995]',-0.006,0.002,0.001,180.400,-0.260
'[11:00:27.362 11/05/1995]',-0.006,0.002,-0.010,180.400,-0.260
'[11:00:27.364 11/05/1995]',-0.006,0.002,-0.033,180.400,-0.260
'[11:00:27.366 11/05/1995]',-0.006,0.002,-0.033,180.400,-0.260
'[11:00:27.368 11/05/1995]',-0.006,0.002,-0.010,180.400,-0.277
'[11:00:27.370 11/05/1995]',-0.006,0.002,0.001,180.400,-0.277
'[11:00:27.372 11/05/1995]',0.001,0.002,0.012,180.400,-0.277
'[11:00:27.374 11/05/1995]',0.001,0.002,0.023,180.400,-0.277
'[11:00:27.376 11/05/1995]',0.001,0.002,0.012,180.400,-0.292
'[11:00:27.378 11/05/1995]',-0.006,0.002,0.001,180.400,-0.292
'[11:00:27.380 11/05/1995]',-0.006,0.025,-0.021,180.400,-0.292
'[11:00:27.382 11/05/1995]',-0.012,0.025,-0.033,180.400,-0.292
'[11:00:27.384 11/05/1995]',-0.012,0.025,-0.033,180.400,-0.308
'[11:00:27.386 11/05/1995]',-0.012,0.025,-0.010,180.400,-0.308
'[11:00:27.388 11/05/1995]',-0.012,0.025,0.001,180.400,-0.308
'[11:00:27.390 11/05/1995]',-0.012,0.025,0.012,180.400,-0.308
'[11:00:27.392 11/05/1995]',-0.006,0.050,0.001,180.400,-0.322
'[11:00:27.394 11/05/1995]',-0.006,0.074,0.001,180.400,-0.322
'[11:00:27.396 11/05/1995]',-0.012,0.074,-0.033,180.400,-0.322
'[11:00:27.398 11/05/1995]',-0.012,0.074,-0.033,180.400,-0.322
'[11:00:27.400 11/05/1995]',-0.006,0.074,-0.021,180.400,-0.338
'[11:00:27.402 11/05/1995]',-0.006,0.050,0.001,180.400,-0.338
'[11:00:27.404 11/05/1995]',-0.006,0.025,0.001,180.400,-0.338
'[11:00:27.406 11/05/1995]',-0.006,0.025,0.023,180.400,-0.338
'[11:00:27.408 11/05/1995]',-0.006,0.025,0.023,180.400,-0.352
'[11:00:27.410 11/05/1995]',-0.012,0.025,0.001,180.400,-0.352
'[11:00:27.412 11/05/1995]',-0.025,0.025,-0.021,180.400,-0.352
'[11:00:27.414 11/05/1995]',-0.031,0.050,-0.033,180.400,-0.352
'[11:00:27.416 11/05/1995]',-0.031,0.025,-0.044,180.400,-0.364
'[11:00:27.418 11/05/1995]',-0.037,0.025,-0.033,180.400,-0.364
'[11:00:27.420 11/05/1995]',-0.037,0.002,-0.021,180.400,-0.364
'[11:00:27.422 11/05/1995]',-0.037,0.002,0.001,180.400,-0.364
'[11:00:27.424 11/05/1995]',-0.050,0.002,0.001,180.400,-0.379
'[11:00:27.426 11/05/1995]',-0.050,0.002,-0.021,180.400,-0.379
'[11:00:27.428 11/05/1995]',-0.050,0.002,-0.033,180.400,-0.379
'[11:00:27.430 11/05/1995]',-0.050,0.002,-0.055,180.400,-0.379
'[11:00:27.432 11/05/1995]',-0.050,0.025,-0.066,180.400,-0.393
'[11:00:27.434 11/05/1995]',-0.050,0.025,-0.055,180.400,-0.393
'[11:00:27.436 11/05/1995]',-0.050,0.002,-0.033,180.400,-0.393
'[11:00:27.438 11/05/1995]',-0.050,0.002,-0.010,180.400,-0.393
'[11:00:27.440 11/05/1995]',-0.037,0.002,0.001,180.400,-0.405
'[11:00:27.442 11/05/1995]',-0.037,0.002,-0.010,180.400,-0.405
'[11:00:27.444 11/05/1995]',-0.037,0.025,-0.033,180.400,-0.405
'[11:00:27.446 11/05/1995]',-0.037,0.025,-0.055,180.400,-0.405
'[11:00:27.448 11/05/1995]',-0.031,0.025,-0.055,180.400,-0.418
'[11:00:27.450 11/05/1995]',-0.025,0.025,-0.055,180.400,-0.418
'[11:00:27.452 11/05/1995]',-0.025,0.025,-0.033,180.400,-0.418
'[11:00:27.454 11/05/1995]',-0.012,0.025,-0.010,180.400,-0.418
'[11:00:27.456 11/05/1995]',-0.006,0.002,0.001,180.400,-0.430
'[11:00:27.458 11/05/1995]',-0.006,0.002,0.001,180.400,-0.430
'[11:00:27.460 11/05/1995]',-0.006,0.002,0.001,180.400,-0.430
'[11:00:27.462 11/05/1995]',0.001,0.002,-0.021,180.400,-0.430
'[11:00:27.464 11/05/1995]',0.007,0.025,-0.033,180.400,-0.442
'[11:00:27.466 11/05/1995]',0.007,0.002,-0.033,180.400,-0.442
'[11:00:27.468 11/05/1995]',0.013,0.002,-0.010,180.400,-0.442
'[11:00:27.470 11/05/1995]',0.013,0.002,0.001,180.400,-0.442
'[11:00:27.472 11/05/1995]',0.013,-0.022,0.023,180.400,-0.453
'[11:00:27.474 11/05/1995]',0.013,-0.022,0.034,180.400,-0.453
'[11:00:27.476 11/05/1995]',0.013,-0.022,0.012,180.400,-0.453
'[11:00:27.478 11/05/1995]',0.013,0.002,0.001,180.400,-0.453
'[11:00:27.480 11/05/1995]',0.007,0.002,-0.010,180.400,-0.463
'[11:00:27.482 11/05/1995]',0.007,0.002,-0.033,180.400,-0.463
'[11:00:27.484 11/05/1995]',0.007,0.002,-0.010,180.400,-0.463
'[11:00:27.486 11/05/1995]',0.007,-0.022,0.001,180.400,-0.463
'[11:00:27.488 11/05/1995]',0.013,-0.022,0.023,180.400,-0.473
'[11:00:27.490 11/05/1995]',0.013,-0.022,0.034,180.400,-0.473
'[11:00:27.492 11/05/1995]',0.007,-0.022,0.023,180.400,-0.473
'[11:00:27.494 11/05/1995]',0.007,-0.022,0.001,180.400,-0.473
'[11:00:27.496 11/05/1995]',0.007,0.002,-0.010,180.400,-0.483
'[11:00:27.498 11/05/1995]',0.007,0.002,-0.033,180.400,-0.483
'[11:00:27.500 11/05/1995]',0.007,0.002,-0.021,180.400,-0.483
'[11:00:27.502 11/05/1995]',0.007,-0.022,0.001,180.400,-0.483
'[11:00:27.504 11/05/1995]',0.007,-0.022,0.001,180.400,-0.492
'[11:00:27.506 11/05/1995]',0.013,-0.022,0.023,180.400,-0.492
'[11:00:27.508 11/05/1995]',0.007,-0.022,0.023,180.400,-0.492
'[11:00:27.510 11/05/1995]',0.007,-0.022,0.001,180.400,-0.492
'[11:00:27.512 11/05/1995]',0.007,0.002,-0.010,180.400,-0.500
'[11:00:27.514 11/05/1995]',0.001,0.002,-0.010,180.400,-0.500
'[11:00:27.516 11/05/1995]',0.001,0.002,-0.033,180.400,-0.500
'[11:00:27.518 11/05/1995]',0.007,0.002,-0.010,180.400,-0.500
'[11:00:27.520 11/05/1995]',0.007,-0.022,0.001,180.400,-0.507
'[11:00:27.522 11/05/1995]',0.007,-0.022,0.023,180.400,-0.507
'[11:00:27.524 11/05/1995]',0.007,-0.022,0.023,180.400,-0.507
'[11:00:27.526 11/05/1995]',0.007,-0.022,0.012,180.400,-0.507
'[11:00:27.528 11/05/1995]',0.007,0.002,0.001,180.400,-0.515
'[11:00:27.530 11/05/1995]',0.001,0.002,-0.010,180.400,-0.515
'[11:00:27.532 11/05/1995]',0.001,0.002,-0.021,180.400,-0.515
'[11:00:27.534 11/05/1995]',0.007,0.002,0.001,180.400,-0.515
'[11:00:27.536 11/05/1995]',0.013,0.002,0.001,180.400,-0.521
'[11:00:27.538 11/05/1995]',0.032,-0.022,0.045,180.400,-0.521
'[11:00:27.540 11/05/1995]',0.057,-0.022,0.068,180.400,-0.521
'[11:00:27.542 11/05/1995]',0.082,0.002,0.079,180.400,-0.521
'[11:00:27.544 11/05/1995]',0.107,0.002,0.090,180.400,-0.529
'[11:00:27.546 11/05/1995]',0.151,0.002,0.102,180.400,-0.529
'[11:00:27.548 11/05/1995]',0.195,0.002,0.135,180.400,-0.529
'[11:00:27.550 11/05/1995]',0.220,0.002,0.168,180.400,-0.529
'[11:00:27.552 11/05/1995]',0.257,0.025,0.202,180.400,-0.534
'[11:00:27.554 11/05/1995]',0.276,0.050,0.213,180.400,-0.534
'[11:00:27.556 11/05/1995]',0.276,0.098,0.224,180.400,-0.534
'[11:00:27.558 11/05/1995]',0.264,0.147,0.213,180.400,-0.534
'[11:00:27.560 11/05/1995]',0.264,0.220,0.180,180.400,-0.538
'[11:00:27.562 11/05/1995]',0.245,0.293,0.124,180.400,-0.538
'[11:00:27.564 11/05/1995]',0.213,0.365,0.068,180.400,-0.538
'[11:00:27.566 11/05/1995]',0.188,0.365,0.034,180.400,-0.538
'[11:00:27.568 11/05/1995]',0.195,0.293,0.057,180.400,-0.541
'[11:00:27.570 11/05/1995]',0.213,0.147,0.113,180.400,-0.541
'[11:00:27.572 11/05/1995]',0.239,0.002,0.168,180.400,-0.541
'[11:00:27.574 11/05/1995]',0.245,-0.168,0.202,180.400,-0.541
'[11:00:27.576 11/05/1995]',0.245,-0.314,0.236,180.400,-0.544
'[11:00:27.578 11/05/1995]',0.257,-0.435,0.247,180.400,-0.544
'[11:00:27.580 11/05/1995]',0.257,-0.532,0.236,180.400,-0.544
'[11:00:27.582 11/05/1995]',0.239,-0.581,0.247,180.400,-0.544
'[11:00:27.584 11/05/1995]',0.232,-0.654,0.247,180.400,-0.545
'[11:00:27.586 11/05/1995]',0.195,-0.678,0.236,180.400,-0.545
'[11:00:27.588 11/05/1995]',0.163,-0.678,0.236,180.400,-0.545
'[11:00:27.590 11/05/1995]',0.126,-0.654,0.202,180.400,-0.545
'[11:00:27.592 11/05/1995]',0.101,-0.605,0.168,180.400,-0.545
'[11:00:27.594 11/05/1995]',0.076,-0.532,0.124,180.400,-0.545
'[11:00:27.596 11/05/1995]',0.057,-0.459,0.079,180.400,-0.545
'[11:00:27.598 11/05/1995]',0.032,-0.386,0.045,180.400,-0.545
'[11:00:27.600 11/05/1995]',0.001,-0.290,0.012,180.400,-0.545
'[11:00:27.602 11/05/1995]',-0.012,-0.217,0.001,180.400,-0.545
'[11:00:27.604 11/05/1995]',-0.025,-0.168,0.001,180.400,-0.545
'[11:00:27.606 11/05/1995]',-0.025,-0.095,0.001,180.400,-0.545
'[11:00:27.608 11/05/1995]',-0.025,-0.071,0.001,180.400,-0.544
'[11:00:27.610 11/05/1995]',-0.031,-0.022,-0.010,180.400,-0.544
'[11:00:27.612 11/05/1995]',-0.031,0.002,-0.033,180.400,-0.544
'[11:00:27.614 11/05/1995]',-0.031,0.002,-0.044,180.400,-0.544
'[11:00:27.616 11/05/1995]',-0.031,0.002,-0.044,180.400,-0.543
'[11:00:27.618 11/05/1995]',-0.031,0.002,-0.033,180.400,-0.543
'[11:00:27.620 11/05/1995]',-0.031,0.002,-0.021,180.400,-0.543
'[11:00:27.622 11/05/1995]',-0.025,-0.022,0.001,180.400,-0.543
'[11:00:27.624 11/05/1995]',-0.025,-0.022,0.001,180.400,-0.542
'[11:00:27.626 11/05/1995]',-0.031,0.002,0.001,180.400,-0.542
'[11:00:27.628 11/05/1995]',-0.025,0.002,-0.021,180.400,-0.542
'[11:00:27.630 11/05/1995]',-0.031,0.002,-0.044,180.400,-0.542
'[11:00:27.632 11/05/1995]',-0.031,0.002,-0.044,180.400,-0.541
'[11:00:27.634 11/05/1995]',-0.031,0.002,-0.033,180.400,-0.541
'[11:00:27.636 11/05/1995]',-0.025,0.002,-0.021,180.400,-0.541
'[11:00:27.638 11/05/1995]',-0.012,0.002,0.001,180.400,-0.541
'[11:00:27.640 11/05/1995]',-0.012,0.002,0.001,180.400,-0.539
'[11:00:27.642 11/05/1995]',-0.025,0.002,0.001,180.400,-0.539
'[11:00:27.644 11/05/1995]',-0.025,0.002,-0.021,180.400,-0.539
'[11:00:27.646 11/05/1995]',-0.025,0.025,-0.033,180.400,-0.539
'[11:00:27.648 11/05/1995]',-0.025,0.025,-0.055,180.400,-0.538
'[11:00:27.650 11/05/1995]',-0.031,0.025,-0.044,180.400,-0.538
'[11:00:27.652 11/05/1995]',-0.031,0.025,-0.033,180.400,-0.538
'[11:00:27.654 11/05/1995]',-0.025,0.002,0.001,180.400,-0.538
'[11:00:27.656 11/05/1995]',-0.012,0.025,0.001,180.400,-0.537
'[11:00:27.658 11/05/1995]',-0.025,0.002,0.001,180.400,-0.537
'[11:00:27.660 11/05/1995]',-0.025,0.025,-0.010,180.400,-0.537
'[11:00:27.662 11/05/1995]',-0.025,0.025,-0.033,180.400,-0.537
'[11:00:27.664 11/05/1995]',-0.031,0.050,-0.044,180.400,-0.535
'[11:00:27.666 11/05/1995]',-0.025,0.050,-0.044,180.400,-0.535
'[11:00:27.668 11/05/1995]',-0.025,0.050,-0.033,180.400,-0.535
'[11:00:27.670 11/05/1995]',-0.025,0.025,-0.010,180.400,-0.535
'[11:00:27.672 11/05/1995]',-0.025,0.025,0.001,180.400,-0.533
'[11:00:27.674 11/05/1995]',-0.025,0.025,0.001,180.400,-0.533
'[11:00:27.676 11/05/1995]',-0.025,0.025,0.001,180.400,-0.533
'[11:00:27.678 11/05/1995]',-0.025,0.050,-0.021,180.400,-0.533
'[11:00:27.680 11/05/1995]',-0.025,0.050,-0.044,180.400,-0.530
'[11:00:27.682 11/05/1995]',-0.025,0.050,-0.055,180.400,-0.530
'[11:00:27.684 11/05/1995]',-0.031,0.050,-0.033,180.400,-0.530
'[11:00:27.686 11/05/1995]',-0.025,0.025,-0.033,180.400,-0.530
'[11:00:27.688 11/05/1995]',-0.025,0.025,0.001,180.400,-0.528
'[11:00:27.690 11/05/1995]',-0.025,0.025,0.001,180.400,-0.528
'[11:00:27.692 11/05/1995]',-0.025,0.025,0.001,180.400,-0.528
'[11:00:27.694 11/05/1995]',-0.012,0.050,-0.021,180.400,-0.528
'[11:00:27.696 11/05/1995]',-0.025,0.074,-0.033,180.400,-0.524
'[11:00:27.698 11/05/1995]',-0.025,0.074,-0.055,180.400,-0.524
'[11:00:27.700 11/05/1995]',-0.031,0.074,-0.044,180.400,-0.524
'[11:00:27.702 11/05/1995]',-0.025,0.050,-0.033,180.400,-0.524
'[11:00:27.704 11/05/1995]',-0.025,0.050,-0.010,180.400,-0.521
'[11:00:27.706 11/05/1995]',-0.025,0.025,0.001,180.400,-0.521
'[11:00:27.708 11/05/1995]',-0.025,0.025,0.001,180.400,-0.521
'[11:00:27.710 11/05/1995]',-0.025,0.050,-0.010,180.400,-0.521
'[11:00:27.712 11/05/1995]',-0.025,0.074,-0.033,180.400,-0.519
'[11:00:27.714 11/05/1995]',-0.025,0.074,-0.055,180.400,-0.519
'[11:00:27.716 11/05/1995]',-0.031,0.074,-0.055,180.400,-0.519
'[11:00:27.718 11/05/1995]',-0.031,0.050,-0.044,180.400,-0.519
'[11:00:27.720 11/05/1995]',-0.025,0.050,-0.021,180.400,-0.516
'[11:00:27.722 11/05/1995]',-0.025,0.025,0.001,180.400,-0.516
'[11:00:27.724 11/05/1995]',-0.025,0.025,0.001,180.400,-0.516
'[11:00:27.726 11/05/1995]',-0.025,0.050,-0.010,180.400,-0.516
'[11:00:27.728 11/05/1995]',-0.025,0.074,-0.033,180.400,-0.513
'[11:00:27.730 11/05/1995]',-0.025,0.074,-0.044,180.400,-0.513
'[11:00:27.732 11/05/1995]',-0.025,0.074,-0.055,180.400,-0.513
'[11:00:27.734 11/05/1995]',-0.025,0.074,-0.044,180.400,-0.513
'[11:00:27.736 11/05/1995]',-0.025,0.074,-0.033,180.400,-0.512
'[11:00:27.738 11/05/1995]',-0.025,0.050,-0.010,180.400,-0.512
'[11:00:27.740 11/05/1995]',-0.025,0.050,0.001,180.400,-0.512
'[11:00:27.742 11/05/1995]',-0.025,0.050,0.001,180.400,-0.512
'[11:00:27.744 11/05/1995]',-0.025,0.074,-0.033,180.400,-0.511
'[11:00:27.746 11/05/1995]',-0.031,0.074,-0.044,180.400,-0.511
'[11:00:27.748 11/05/1995]',-0.031,0.074,-0.055,180.400,-0.511
'[11:00:27.750 11/05/1995]',-0.025,0.074,-0.055,180.400,-0.511
'[11:00:27.752 11/05/1995]',-0.025,0.074,-0.033,180.400,-0.512
'[11:00:27.754 11/05/1995]',-0.025,0.050,-0.010,180.400,-0.512
'[11:00:27.756 11/05/1995]',-0.012,0.050,0.001,180.400,-0.512
'[11:00:27.758 11/05/1995]',-0.025,0.050,0.001,180.400,-0.512
'[11:00:27.760 11/05/1995]',-0.025,0.074,-0.010,180.400,-0.514
'[11:00:27.762 11/05/1995]',-0.025,0.074,-0.033,180.400,-0.514
'[11:00:27.764 11/05/1995]',-0.025,0.098,-0.044,180.400,-0.514
'[11:00:27.766 11/05/1995]',-0.025,0.098,-0.044,180.400,-0.514
'[11:00:27.768 11/05/1995]',-0.025,0.074,-0.033,180.400,-0.514
'[11:00:27.770 11/05/1995]',-0.012,0.074,-0.021,180.400,-0.514
'[11:00:27.772 11/05/1995]',-0.012,0.050,0.001,180.400,-0.514
'[11:00:27.774 11/05/1995]',-0.012,0.050,0.001,180.400,-0.514
'[11:00:27.776 11/05/1995]',-0.012,0.074,0.001,180.400,-0.515
'[11:00:27.778 11/05/1995]',-0.012,0.074,-0.021,180.400,-0.515
'[11:00:27.780 11/05/1995]',-0.025,0.098,-0.044,180.400,-0.515
'[11:00:27.782 11/05/1995]',-0.025,0.098,-0.044,180.400,-0.515
'[11:00:27.784 11/05/1995]',-0.025,0.074,-0.033,180.400,-0.516
'[11:00:27.786 11/05/1995]',-0.012,0.074,-0.021,180.400,-0.516
'[11:00:27.788 11/05/1995]',-0.006,0.074,0.001,180.400,-0.516
'[11:00:27.790 11/05/1995]',-0.006,0.050,0.001,180.400,-0.516
'[11:00:27.792 11/05/1995]',-0.006,0.074,0.001,180.400,-0.516
'[11:00:27.794 11/05/1995]',-0.006,0.074,-0.010,180.400,-0.516
'[11:00:27.796 11/05/1995]',-0.006,0.074,-0.021,180.400,-0.516
'[11:00:27.798 11/05/1995]',-0.006,0.098,-0.033,180.400,-0.516
'[11:00:27.800 11/05/1995]',0.001,0.074,-0.033,180.400,-0.514
'[11:00:27.802 11/05/1995]',0.001,0.074,-0.010,180.400,-0.514
'[11:00:27.804 11/05/1995]',0.001,0.074,0.012,180.400,-0.514
'[11:00:27.806 11/05/1995]',0.007,0.074,0.023,180.400,-0.514
'[11:00:27.808 11/05/1995]',0.007,0.050,0.023,180.400,-0.513
'[11:00:27.810 11/05/1995]',0.007,0.050,0.012,180.400,-0.513
'[11:00:27.812 11/05/1995]',0.007,0.074,0.001,180.400,-0.513
'[11:00:27.814 11/05/1995]',0.007,0.074,-0.010,180.400,-0.513
'[11:00:27.816 11/05/1995]',0.007,0.074,-0.010,180.400,-0.509
'[11:00:27.818 11/05/1995]',0.013,0.074,0.001,180.400,-0.509
'[11:00:27.820 11/05/1995]',0.013,0.050,0.023,180.400,-0.509
'[11:00:27.822 11/05/1995]',0.025,0.025,0.045,180.400,-0.509
'[11:00:27.824 11/05/1995]',0.025,0.025,0.045,180.400,-0.482
'[11:00:27.826 11/05/1995]',0.025,0.025,0.034,180.400,-0.482
'[11:00:27.828 11/05/1995]',0.025,0.050,0.023,180.400,-0.482
'[11:00:27.830 11/05/1995]',0.025,0.050,0.001,180.400,-0.482
'[11:00:27.832 11/05/1995]',0.013,0.050,0.001,180.400,-0.472
'[11:00:27.834 11/05/1995]',0.025,0.050,0.012,180.400,-0.472
'[11:00:27.836 11/05/1995]',0.032,0.025,0.034,180.400,-0.472
'[11:00:27.838 11/05/1995]',0.032,0.025,0.057,180.400,-0.472
'[11:00:27.840 11/05/1995]',0.032,0.002,0.068,180.400,-0.460
'[11:00:27.842 11/05/1995]',0.038,0.002,0.057,180.400,-0.460
'[11:00:27.844 11/05/1995]',0.032,0.025,0.034,180.400,-0.460
'[11:00:27.846 11/05/1995]',0.032,0.025,0.012,180.400,-0.460
'[11:00:27.848 11/05/1995]',0.032,0.025,0.001,180.400,-0.442
'[11:00:27.850 11/05/1995]',0.025,0.025,0.001,180.400,-0.442
'[11:00:27.852 11/05/1995]',0.025,0.025,0.034,180.400,-0.442
'[11:00:27.854 11/05/1995]',0.032,0.002,0.045,180.400,-0.442
'[11:00:27.856 11/05/1995]',0.032,0.002,0.057,180.400,-0.418
'[11:00:27.858 11/05/1995]',0.025,0.002,0.057,180.400,-0.418
'[11:00:27.860 11/05/1995]',0.025,0.002,0.034,180.400,-0.418
'[11:00:27.862 11/05/1995]',0.025,0.025,0.012,180.400,-0.418
'[11:00:27.864 11/05/1995]',0.013,0.025,0.001,180.400,-0.390
'[11:00:27.866 11/05/1995]',0.007,0.025,0.001,180.400,-0.390
'[11:00:27.868 11/05/1995]',0.013,0.025,0.001,180.400,-0.390
'[11:00:27.870 11/05/1995]',0.013,0.002,0.023,180.400,-0.390
'[11:00:27.872 11/05/1995]',0.013,0.002,0.034,180.400,-0.353
'[11:00:27.874 11/05/1995]',0.013,0.002,0.034,180.400,-0.353
'[11:00:27.876 11/05/1995]',0.007,0.002,0.023,180.400,-0.353
'[11:00:27.878 11/05/1995]',0.007,0.002,0.001,180.400,-0.353
'[11:00:27.880 11/05/1995]',0.001,0.025,0.001,180.400,-0.308
'[11:00:27.882 11/05/1995]',0.001,0.025,-0.010,180.400,-0.308
'[11:00:27.884 11/05/1995]',0.001,0.025,0.001,180.400,-0.308
'[11:00:27.886 11/05/1995]',0.001,0.002,0.001,180.400,-0.308
'[11:00:27.888 11/05/1995]',0.001,0.002,0.023,180.400,-0.259
'[11:00:27.890 11/05/1995]',0.001,0.002,0.034,180.400,-0.259
'[11:00:27.892 11/05/1995]',0.001,0.002,0.023,180.400,-0.259
'[11:00:27.894 11/05/1995]',-0.006,0.002,0.001,180.400,-0.259
'[11:00:27.896 11/05/1995]',-0.006,0.025,-0.010,180.400,-0.201
'[11:00:27.898 11/05/1995]',-0.012,0.025,-0.021,180.400,-0.201
'[11:00:27.900 11/05/1995]',-0.012,0.025,-0.021,180.400,-0.201
'[11:00:27.902 11/05/1995]',-0.006,0.002,0.001,180.400,-0.201
'[11:00:27.904 11/05/1995]',-0.006,0.002,0.001,180.400,-0.138
'[11:00:27.906 11/05/1995]',-0.006,0.002,0.012,180.400,-0.138
'[11:00:27.908 11/05/1995]',-0.006,0.002,0.012,180.400,-0.138
'[11:00:27.910 11/05/1995]',-0.006,0.002,0.001,180.400,-0.138
'[11:00:27.912 11/05/1995]',-0.012,0.002,-0.010,180.400,-0.071
'[11:00:27.914 11/05/1995]',-0.012,0.025,-0.033,180.400,-0.071
'[11:00:27.916 11/05/1995]',-0.012,0.025,-0.033,180.400,-0.071
'[11:00:27.918 11/05/1995]',-0.012,0.002,-0.021,180.400,-0.071
'[11:00:27.920 11/05/1995]',-0.012,0.002,0.001,180.400,-0.002
'[11:00:27.922 11/05/1995]',-0.006,0.002,0.001,180.400,-0.002
'[11:00:27.924 11/05/1995]',-0.006,0.002,0.012,180.400,-0.002
'[11:00:27.926 11/05/1995]',-0.012,0.002,0.001,180.400,-0.002
'[11:00:27.928 11/05/1995]',-0.025,0.002,-0.010,180.400,0.070
'[11:00:27.930 11/05/1995]',-0.025,0.025,-0.033,180.400,0.070
'[11:00:27.932 11/05/1995]',-0.025,0.025,-0.033,180.400,0.070
'[11:00:27.934 11/05/1995]',-0.025,0.002,-0.033,180.400,0.070
'[11:00:27.936 11/05/1995]',-0.025,0.002,-0.010,180.400,0.139
'[11:00:27.938 11/05/1995]',-0.012,0.002,0.001,180.400,0.139
'[11:00:27.940 11/05/1995]',-0.012,0.002,0.001,180.400,0.139
'[11:00:27.942 11/05/1995]',-0.025,0.002,0.001,180.400,0.139
'[11:00:27.944 11/05/1995]',-0.025,0.002,0.001,180.400,0.205
'[11:00:27.946 11/05/1995]',-0.025,0.002,-0.033,180.400,0.205
'[11:00:27.948 11/05/1995]',-0.025,0.025,-0.033,180.400,0.205
'[11:00:27.950 11/05/1995]',-0.025,0.002,-0.033,180.400,0.205
'[11:00:27.952 11/05/1995]',-0.025,0.002,-0.021,180.400,0.270
'[11:00:27.954 11/05/1995]',-0.025,0.002,0.001,180.400,0.270
'[11:00:27.956 11/05/1995]',-0.025,0.002,0.001,180.400,0.270
'[11:00:27.958 11/05/1995]',-0.012,0.002,0.001,180.400,0.270
'[11:00:27.960 11/05/1995]',-0.025,0.002,0.001,180.400,0.328
'[11:00:27.962 11/05/1995]',-0.025,0.002,-0.033,180.400,0.328
'[11:00:27.964 11/05/1995]',-0.031,0.025,-0.044,180.400,0.328
'[11:00:27.966 11/05/1995]',-0.031,0.025,-0.033,180.400,0.328
'[11:00:27.968 11/05/1995]',-0.025,0.002,-0.033,180.400,0.379
'[11:00:27.970 11/05/1995]',-0.025,0.002,-0.010,180.400,0.379
'[11:00:27.972 11/05/1995]',-0.025,0.002,0.001,180.400,0.379
'[11:00:27.974 11/05/1995]',-0.025,0.002,0.001,180.400,0.379
'[11:00:27.976 11/05/1995]',-0.012,0.002,0.001,180.400,0.423
'[11:00:27.978 11/05/1995]',-0.025,0.002,-0.021,180.400,0.423
'[11:00:27.980 11/05/1995]',-0.025,0.025,-0.033,180.400,0.423
'[11:00:27.982 11/05/1995]',-0.031,0.025,-0.044,180.400,0.423
'[11:00:27.984 11/05/1995]',-0.031,0.002,-0.033,180.400,0.461
'[11:00:27.986 11/05/1995]',-0.025,0.002,-0.021,180.400,0.461
'[11:00:27.988 11/05/1995]',-0.025,0.002,0.001,180.400,0.461
'[11:00:27.990 11/05/1995]',-0.012,0.002,0.001,180.400,0.461
'[11:00:27.992 11/05/1995]',-0.025,0.002,0.001,180.400,0.489
'[11:00:27.994 11/05/1995]',-0.025,0.002,-0.010,180.400,0.489
'[11:00:27.996 11/05/1995]',-0.031,0.025,-0.033,180.400,0.489
'[11:00:27.998 11/05/1995]',-0.031,0.025,-0.044,180.400,0.489
'[11:00:28.000 11/05/1995]',-0.031,0.025,-0.033,180.400,0.510
'[11:00:28.002 11/05/1995]',-0.025,0.002,-0.033,180.400,0.510
'[11:00:28.004 11/05/1995]',-0.012,0.002,0.001,180.400,0.510
'[11:00:28.006 11/05/1995]',-0.012,0.002,0.001,180.400,0.510
'[11:00:28.008 11/05/1995]',-0.025,0.002,0.001,180.400,0.523
'[11:00:28.010 11/05/1995]',-0.025,0.002,-0.010,180.400,0.523
'[11:00:28.012 11/05/1995]',-0.025,0.025,-0.033,180.400,0.523
'[11:00:28.014 11/05/1995]',-0.031,0.025,-0.044,180.400,0.523
'[11:00:28.016 11/05/1995]',-0.031,0.025,-0.044,180.400,0.530
'[11:00:28.018 11/05/1995]',-0.031,0.025,-0.033,180.400,0.530
'[11:00:28.020 11/05/1995]',-0.031,0.002,-0.010,180.400,0.530
'[11:00:28.022 11/05/1995]',-0.025,0.002,0.001,180.400,0.530
'[11:00:28.024 11/05/1995]',-0.031,0.002,0.001,180.400,0.529
'[11:00:28.026 11/05/1995]',-0.025,0.002,-0.010,180.400,0.529
'[11:00:28.028 11/05/1995]',-0.031,0.025,-0.033,180.400,0.529
'[11:00:28.030 11/05/1995]',-0.031,0.025,-0.044,180.400,0.529
'[11:00:28.032 11/05/1995]',-0.031,0.025,-0.044,180.400,0.521
'[11:00:28.034 11/05/1995]',-0.031,0.025,-0.033,180.400,0.521
'[11:00:28.036 11/05/1995]',-0.025,0.002,-0.033,180.400,0.521
'[11:00:28.038 11/05/1995]',-0.031,0.002,0.001,180.400,0.521
'[11:00:28.040 11/05/1995]',-0.025,0.002,0.001,180.400,0.507
'[11:00:28.042 11/05/1995]',-0.025,0.002,0.001,180.400,0.507
'[11:00:28.044 11/05/1995]',-0.025,0.002,-0.021,180.400,0.507
'[11:00:28.046 11/05/1995]',-0.025,0.025,-0.033,180.400,0.507
'[11:00:28.048 11/05/1995]',-0.031,0.025,-0.044,180.400,0.489
'[11:00:28.050 11/05/1995]',-0.025,0.025,-0.044,180.400,0.489
'[11:00:28.052 11/05/1995]',-0.025,0.025,-0.033,180.400,0.489
'[11:00:28.054 11/05/1995]',-0.025,0.002,0.001,180.400,0.489
'[11:00:28.056 11/05/1995]',-0.012,0.002,0.001,180.400,0.464
'[11:00:28.058 11/05/1995]',-0.025,0.002,0.001,180.400,0.464
'[11:00:28.060 11/05/1995]',-0.025,0.002,-0.010,180.400,0.464
'[11:00:28.062 11/05/1995]',-0.025,0.025,-0.033,180.400,0.464
'[11:00:28.064 11/05/1995]',-0.025,0.025,-0.044,180.400,0.435
'[11:00:28.066 11/05/1995]',-0.025,0.025,-0.033,180.400,0.435
'[11:00:28.068 11/05/1995]',-0.025,0.025,-0.033,180.400,0.435
'[11:00:28.070 11/05/1995]',-0.025,0.002,-0.010,180.400,0.435
'[11:00:28.072 11/05/1995]',-0.012,0.002,0.001,180.400,0.402
'[11:00:28.074 11/05/1995]',-0.012,0.002,0.001,180.400,0.402
'[11:00:28.076 11/05/1995]',-0.012,0.002,0.001,180.400,0.402
'[11:00:28.078 11/05/1995]',-0.012,0.002,-0.010,180.400,0.402
'[11:00:28.080 11/05/1995]',-0.012,0.025,-0.033,180.400,0.367
'[11:00:28.082 11/05/1995]',-0.012,0.025,-0.044,180.400,0.367
'[11:00:28.084 11/05/1995]',-0.012,0.025,-0.033,180.400,0.367
'[11:00:28.086 11/05/1995]',-0.012,0.002,-0.010,180.400,0.367
'[11:00:28.088 11/05/1995]',-0.006,0.002,0.001,180.400,0.330
'[11:00:28.090 11/05/1995]',-0.006,0.002,0.001,180.400,0.330
'[11:00:28.092 11/05/1995]',-0.012,0.002,0.001,180.400,0.330
'[11:00:28.094 11/05/1995]',-0.006,0.002,0.001,180.400,0.330
'[11:00:28.096 11/05/1995]',-0.012,0.025,-0.033,180.400,0.289
'[11:00:28.098 11/05/1995]',-0.012,0.025,-0.033,180.400,0.289
'[11:00:28.100 11/05/1995]',-0.025,0.002,-0.044,180.400,0.289
'[11:00:28.102 11/05/1995]',-0.012,0.002,-0.021,180.400,0.289
'[11:00:28.104 11/05/1995]',-0.012,0.002,0.001,180.400,0.251
'[11:00:28.106 11/05/1995]',-0.006,0.002,0.001,180.400,0.251
'[11:00:28.108 11/05/1995]',-0.006,0.002,0.001,180.400,0.251
'[11:00:28.110 11/05/1995]',-0.012,0.002,0.001,180.400,0.251
'[11:00:28.112 11/05/1995]',-0.012,0.002,-0.021,180.400,0.209
'[11:00:28.114 11/05/1995]',-0.012,0.025,-0.033,180.400,0.209
'[11:00:28.116 11/05/1995]',-0.012,0.025,-0.033,180.400,0.209
'[11:00:28.118 11/05/1995]',-0.012,0.002,-0.021,180.400,0.209
'[11:00:28.120 11/05/1995]',-0.006,0.002,0.001,180.400,0.171
'[11:00:28.122 11/05/1995]',-0.006,0.002,0.001,180.400,0.171
'[11:00:28.124 11/05/1995]',-0.006,0.002,0.012,180.400,0.171
'[11:00:28.126 11/05/1995]',-0.006,0.002,0.001,180.400,0.171
'[11:00:28.128 11/05/1995]',-0.006,0.002,-0.010,180.400,0.132
'[11:00:28.130 11/05/1995]',-0.012,0.002,-0.033,180.400,0.132
'[11:00:28.132 11/05/1995]',-0.012,0.002,-0.033,180.400,0.132
'[11:00:28.134 11/05/1995]',-0.012,0.002,-0.033,180.400,0.132
'[11:00:28.136 11/05/1995]',-0.006,0.002,-0.010,180.400,0.097
'[11:00:28.138 11/05/1995]',-0.006,0.002,0.001,180.400,0.097
'[11:00:28.140 11/05/1995]',-0.006,0.002,0.012,180.400,0.097
'[11:00:28.142 11/05/1995]',-0.006,0.002,0.001,180.400,0.097
'[11:00:28.144 11/05/1995]',-0.006,0.002,0.001,180.400,0.061
'[11:00:28.146 11/05/1995]',-0.006,0.002,-0.033,180.400,0.061
'[11:00:28.148 11/05/1995]',-0.012,0.002,-0.033,180.400,0.061
'[11:00:28.150 11/05/1995]',-0.012,0.002,-0.033,180.400,0.061
'[11:00:28.152 11/05/1995]',-0.012,0.002,-0.010,180.400,0.028
'[11:00:28.154 11/05/1995]',-0.006,0.002,0.001,180.400,0.028
'[11:00:28.156 11/05/1995]',-0.006,0.002,0.012,180.400,0.028
'[11:00:28.158 11/05/1995]',-0.006,0.002,0.012,180.400,0.028
'[11:00:28.160 11/05/1995]',-0.006,0.002,0.001,180.400,-0.003
'[11:00:28.162 11/05/1995]',-0.006,0.002,-0.021,180.400,-0.003
'[11:00:28.164 11/05/1995]',-0.006,0.002,-0.033,180.400,-0.003
'[11:00:28.166 11/05/1995]',-0.012,0.002,-0.033,180.400,-0.003
'[11:00:28.168 11/05/1995]',-0.006,0.002,-0.021,180.400,-0.033
'[11:00:28.170 11/05/1995]',-0.006,0.002,0.001,180.400,-0.033
'[11:00:28.172 11/05/1995]',0.001,0.002,0.012,180.400,-0.033
'[11:00:28.174 11/05/1995]',0.001,0.002,0.012,180.400,-0.033
'[11:00:28.176 11/05/1995]',0.001,0.002,0.001,180.400,-0.059
'[11:00:28.178 11/05/1995]',0.001,0.002,-0.010,180.400,-0.059
'[11:00:28.180 11/05/1995]',-0.006,0.002,-0.033,180.400,-0.059
'[11:00:28.182 11/05/1995]',-0.006,0.002,-0.033,180.400,-0.059
'[11:00:28.184 11/05/1995]',-0.006,0.002,-0.021,180.400,-0.085
'[11:00:28.186 11/05/1995]',-0.006,0.002,0.001,180.400,-0.085
'[11:00:28.188 11/05/1995]',-0.006,0.002,0.012,180.400,-0.085
'[11:00:28.190 11/05/1995]',-0.006,0.002,0.023,180.400,-0.085
'[11:00:28.192 11/05/1995]',0.001,0.002,0.001,180.400,-0.109
'[11:00:28.194 11/05/1995]',-0.006,0.002,0.001,180.400,-0.109
'[11:00:28.196 11/05/1995]',-0.006,0.002,-0.033,180.400,-0.109
'[11:00:28.198 11/05/1995]',-0.012,0.002,-0.033,180.400,-0.109
'[11:00:28.200 11/05/1995]',-0.012,0.002,-0.033,180.400,-0.129
'[11:00:28.202 11/05/1995]',-0.006,0.002,-0.010,180.400,-0.129
'[11:00:28.204 11/05/1995]',-0.006,0.002,0.001,180.400,-0.129
'[11:00:28.206 11/05/1995]',0.001,0.002,0.012,180.400,-0.129
'[11:00:28.208 11/05/1995]',-0.006,0.002,0.012,180.400,-0.150
'[11:00:28.210 11/05/1995]',-0.006,0.002,0.001,180.400,-0.150
'[11:00:28.212 11/05/1995]',0.001,0.002,-0.021,180.400,-0.150
'[11:00:28.214 11/05/1995]',-0.006,0.002,-0.033,180.400,-0.150
'[11:00:28.216 11/05/1995]',0.001,0.002,-0.033,180.400,-0.169
'[11:00:28.218 11/05/1995]',-0.006,0.002,-0.021,180.400,-0.169
'[11:00:28.220 11/05/1995]',-0.006,0.002,0.001,180.400,-0.169
'[11:00:28.222 11/05/1995]',0.001,0.002,0.001,180.400,-0.169
'[11:00:28.224 11/05/1995]',0.001,0.002,0.012,180.400,-0.185
'[11:00:28.226 11/05/1995]',-0.006,0.002,0.001,180.400,-0.185
'[11:00:28.228 11/05/1995]',-0.006,0.002,-0.010,180.400,-0.185
'[11:00:28.230 11/05/1995]',0.001,0.002,-0.033,180.400,-0.185
'[11:00:28.232 11/05/1995]',-0.006,0.025,-0.033,180.400,-0.202
'[11:00:28.234 11/05/1995]',-0.006,0.002,-0.021,180.400,-0.202
'[11:00:28.236 11/05/1995]',-0.006,0.002,0.001,180.400,-0.202
'[11:00:28.238 11/05/1995]',0.001,0.002,0.012,180.400,-0.202
'[11:00:28.240 11/05/1995]',-0.006,0.002,0.023,180.400,-0.218
'[11:00:28.242 11/05/1995]',-0.006,0.002,0.001,180.400,-0.218
'[11:00:28.244 11/05/1995]',-0.006,0.025,0.001,180.400,-0.218
'[11:00:28.246 11/05/1995]',-0.012,0.050,-0.033,180.400,-0.218
'[11:00:28.248 11/05/1995]',-0.025,0.074,-0.033,180.400,-0.233
'[11:00:28.250 11/05/1995]',-0.025,0.074,-0.033,180.400,-0.233
'[11:00:28.252 11/05/1995]',-0.012,0.050,-0.021,180.400,-0.233
'[11:00:28.254 11/05/1995]',-0.012,0.050,0.001,180.400,-0.233
'[11:00:28.256 11/05/1995]',-0.006,0.050,0.012,180.400,-0.247
'[11:00:28.258 11/05/1995]',0.001,0.050,0.012,180.400,-0.247
'[11:00:28.260 11/05/1995]',-0.006,0.050,0.001,180.400,-0.247
'[11:00:28.262 11/05/1995]',-0.006,0.074,-0.021,180.400,-0.247
'[11:00:28.264 11/05/1995]',-0.006,0.074,-0.033,180.400,-0.260
'[11:00:28.266 11/05/1995]',-0.012,0.074,-0.033,180.400,-0.260
'[11:00:28.268 11/05/1995]',-0.006,0.050,-0.010,180.400,-0.260
'[11:00:28.270 11/05/1995]',-0.012,0.025,0.001,180.400,-0.260
'[11:00:28.272 11/05/1995]',-0.012,0.025,0.012,180.400,-0.275
'[11:00:28.274 11/05/1995]',-0.025,0.025,0.012,180.400,-0.275
'[11:00:28.276 11/05/1995]',-0.031,0.025,0.001,180.400,-0.275
'[11:00:28.278 11/05/1995]',-0.037,0.025,-0.033,180.400,-0.275
'[11:00:28.280 11/05/1995]',-0.050,0.050,-0.055,180.400,-0.288
'[11:00:28.282 11/05/1995]',-0.050,0.050,-0.066,180.400,-0.288
'[11:00:28.284 11/05/1995]',-0.056,0.025,-0.055,180.400,-0.288
'[11:00:28.286 11/05/1995]',-0.050,0.002,-0.033,180.400,-0.288
'[11:00:28.288 11/05/1995]',-0.050,0.002,-0.010,180.400,-0.301
'[11:00:28.290 11/05/1995]',-0.037,0.002,0.001,180.400,-0.301
'[11:00:28.292 11/05/1995]',-0.050,0.002,-0.010,180.400,-0.301
'[11:00:28.294 11/05/1995]',-0.050,0.002,-0.033,180.400,-0.301
'[11:00:28.296 11/05/1995]',-0.050,0.025,-0.055,180.400,-0.314
'[11:00:28.298 11/05/1995]',-0.056,0.025,-0.066,180.400,-0.314
'[11:00:28.300 11/05/1995]',-0.056,0.025,-0.055,180.400,-0.314
'[11:00:28.302 11/05/1995]',-0.050,0.025,-0.033,180.400,-0.314
'[11:00:28.304 11/05/1995]',-0.037,0.002,-0.010,180.400,-0.329
'[11:00:28.306 11/05/1995]',-0.037,0.002,0.001,180.400,-0.329
'[11:00:28.308 11/05/1995]',-0.031,0.002,0.001,180.400,-0.329
'[11:00:28.310 11/05/1995]',-0.025,0.025,-0.010,180.400,-0.329
'[11:00:28.312 11/05/1995]',-0.025,0.025,-0.033,180.400,-0.342
'[11:00:28.314 11/05/1995]',-0.012,0.050,-0.055,180.400,-0.342
'[11:00:28.316 11/05/1995]',-0.012,0.050,-0.044,180.400,-0.342
'[11:00:28.318 11/05/1995]',-0.006,0.025,-0.033,180.400,-0.342
'[11:00:28.320 11/05/1995]',0.001,0.025,0.001,180.400,-0.354
'[11:00:28.322 11/05/1995]',0.001,0.002,0.012,180.400,-0.354
'[11:00:28.324 11/05/1995]',0.007,0.002,0.012,180.400,-0.354
'[11:00:28.326 11/05/1995]',0.007,0.002,0.001,180.400,-0.354
'[11:00:28.328 11/05/1995]',0.013,0.002,0.001,180.400,-0.367
'[11:00:28.330 11/05/1995]',0.007,0.002,-0.021,180.400,-0.367
'[11:00:28.332 11/05/1995]',0.013,0.002,-0.021,180.400,-0.367
'[11:00:28.334 11/05/1995]',0.025,0.002,0.001,180.400,-0.367
'[11:00:28.336 11/05/1995]',0.013,-0.022,0.001,180.400,-0.372
'[11:00:28.338 11/05/1995]',0.013,-0.022,0.023,180.400,-0.372
'[11:00:28.340 11/05/1995]',0.025,-0.022,0.034,180.400,-0.372
'[11:00:28.342 11/05/1995]',0.013,-0.022,0.023,180.400,-0.372
'[11:00:28.344 11/05/1995]',0.013,-0.022,0.001,180.400,-0.385
'[11:00:28.346 11/05/1995]',0.013,0.002,-0.010,180.400,-0.385
'[11:00:28.348 11/05/1995]',0.013,0.002,-0.021,180.400,-0.385
'[11:00:28.350 11/05/1995]',0.013,0.002,-0.010,180.400,-0.385
'[11:00:28.352 11/05/1995]',0.013,-0.022,0.001,180.400,-0.398
'[11:00:28.354 11/05/1995]',0.013,-0.022,0.023,180.400,-0.398
'[11:00:28.356 11/05/1995]',0.013,-0.022,0.023,180.400,-0.398
'[11:00:28.358 11/05/1995]',0.013,-0.022,0.023,180.400,-0.398
'[11:00:28.360 11/05/1995]',0.007,-0.022,0.001,180.400,-0.409
'[11:00:28.362 11/05/1995]',0.007,0.002,-0.010,180.400,-0.409
'[11:00:28.364 11/05/1995]',0.001,0.002,-0.021,180.400,-0.409
'[11:00:28.366 11/05/1995]',0.001,0.002,-0.021,180.400,-0.409
'[11:00:28.368 11/05/1995]',0.007,0.002,-0.010,180.400,-0.420
'[11:00:28.370 11/05/1995]',0.013,-0.022,0.001,180.400,-0.420
'[11:00:28.372 11/05/1995]',0.013,-0.022,0.023,180.400,-0.420
'[11:00:28.374 11/05/1995]',0.013,-0.022,0.034,180.400,-0.420
'[11:00:28.376 11/05/1995]',0.007,-0.022,0.012,180.400,-0.429
'[11:00:28.378 11/05/1995]',0.007,0.002,0.001,180.400,-0.429
'[11:00:28.380 11/05/1995]',0.007,0.002,-0.021,180.400,-0.429
'[11:00:28.382 11/05/1995]',0.007,0.002,-0.033,180.400,-0.429
'[11:00:28.384 11/05/1995]',0.007,0.002,-0.010,180.400,-0.439
'[11:00:28.386 11/05/1995]',0.007,0.002,0.001,180.400,-0.439
'[11:00:28.388 11/05/1995]',0.007,-0.022,0.023,180.400,-0.439
'[11:00:28.390 11/05/1995]',0.007,-0.022,0.034,180.400,-0.439
'[11:00:28.392 11/05/1995]',0.007,-0.022,0.023,180.400,-0.446
'[11:00:28.394 11/05/1995]',0.013,0.002,0.001,180.400,-0.446
'[11:00:28.396 11/05/1995]',0.007,0.002,-0.010,180.400,-0.446
'[11:00:28.398 11/05/1995]',0.013,0.002,0.001,180.400,-0.446
'[11:00:28.400 11/05/1995]',0.038,0.002,0.001,180.400,-0.453
'[11:00:28.402 11/05/1995]',0.057,0.002,0.034,180.400,-0.453
'[11:00:28.404 11/05/1995]',0.094,0.002,0.090,180.400,-0.453
'[11:00:28.406 11/05/1995]',0.126,0.002,0.124,180.400,-0.453
'[11:00:28.408 11/05/1995]',0.170,0.002,0.146,180.400,-0.456
'[11:00:28.410 11/05/1995]',0.207,0.002,0.168,180.400,-0.456
'[11:00:28.412 11/05/1995]',0.239,0.025,0.168,180.400,-0.456
'[11:00:28.414 11/05/1995]',0.257,0.074,0.168,180.400,-0.456
'[11:00:28.416 11/05/1995]',0.264,0.098,0.168,180.400,-0.462
'[11:00:28.418 11/05/1995]',0.264,0.147,0.168,180.400,-0.462
'[11:00:28.420 11/05/1995]',0.264,0.196,0.180,180.400,-0.462
'[11:00:28.422 11/05/1995]',0.264,0.244,0.168,180.400,-0.462
'[11:00:28.424 11/05/1995]',0.239,0.293,0.135,180.400,-0.466
'[11:00:28.426 11/05/1995]',0.207,0.342,0.090,180.400,-0.466
'[11:00:28.428 11/05/1995]',0.188,0.342,0.068,180.400,-0.466
'[11:00:28.430 11/05/1995]',0.207,0.269,0.068,180.400,-0.466
'[11:00:28.432 11/05/1995]',0.232,0.123,0.102,180.400,-0.468
'[11:00:28.434 11/05/1995]',0.245,-0.022,0.146,180.400,-0.468
'[11:00:28.436 11/05/1995]',0.264,-0.217,0.202,180.400,-0.468
'[11:00:28.438 11/05/1995]',0.276,-0.386,0.258,180.400,-0.468
'[11:00:28.440 11/05/1995]',0.276,-0.508,0.303,180.400,-0.470
'[11:00:28.442 11/05/1995]',0.276,-0.581,0.303,180.400,-0.470
'[11:00:28.444 11/05/1995]',0.257,-0.629,0.292,180.400,-0.470
'[11:00:28.446 11/05/1995]',0.232,-0.654,0.258,180.400,-0.470
'[11:00:28.448 11/05/1995]',0.195,-0.654,0.213,180.400,-0.472
'[11:00:28.450 11/05/1995]',0.151,-0.654,0.191,180.400,-0.472
'[11:00:28.452 11/05/1995]',0.126,-0.629,0.168,180.400,-0.472
'[11:00:28.454 11/05/1995]',0.094,-0.581,0.168,180.400,-0.472
'[11:00:28.456 11/05/1995]',0.082,-0.532,0.158,180.400,-0.474
'[11:00:28.458 11/05/1995]',0.057,-0.459,0.124,180.400,-0.474
'[11:00:28.460 11/05/1995]',0.032,-0.386,0.079,180.400,-0.474
'[11:00:28.462 11/05/1995]',0.007,-0.290,0.034,180.400,-0.474
'[11:00:28.464 11/05/1995]',-0.006,-0.192,0.001,180.400,-0.476
'[11:00:28.466 11/05/1995]',-0.025,-0.119,-0.033,180.400,-0.476
'[11:00:28.468 11/05/1995]',-0.031,-0.071,-0.033,180.400,-0.476
'[11:00:28.470 11/05/1995]',-0.031,-0.046,0.001,180.400,-0.476
'[11:00:28.472 11/05/1995]',-0.025,-0.046,0.001,180.400,-0.476
'[11:00:28.474 11/05/1995]',-0.025,-0.022,0.001,180.400,-0.476
'[11:00:28.476 11/05/1995]',-0.025,0.002,0.001,180.400,-0.476
'[11:00:28.478 11/05/1995]',-0.025,0.002,-0.021,180.400,-0.476
'[11:00:28.480 11/05/1995]',-0.031,0.002,-0.044,180.400,-0.477
'[11:00:28.482 11/05/1995]',-0.031,0.002,-0.044,180.400,-0.477
'[11:00:28.484 11/05/1995]',-0.031,0.002,-0.033,180.400,-0.477
'[11:00:28.486 11/05/1995]',-0.031,0.002,-0.010,180.400,-0.477
'[11:00:28.488 11/05/1995]',-0.025,0.002,0.001,180.400,-0.479
'[11:00:28.490 11/05/1995]',-0.031,-0.022,0.001,180.400,-0.479
'[11:00:28.492 11/05/1995]',-0.025,0.002,0.001,180.400,-0.479
'[11:00:28.494 11/05/1995]',-0.025,0.002,-0.010,180.400,-0.479
'[11:00:28.496 11/05/1995]',-0.037,0.002,-0.033,180.400,-0.479
'[11:00:28.498 11/05/1995]',-0.031,0.025,-0.033,180.400,-0.479
'[11:00:28.500 11/05/1995]',-0.031,0.002,-0.033,180.400,-0.479
'[11:00:28.502 11/05/1995]',-0.031,0.002,-0.021,180.400,-0.479
'[11:00:28.504 11/05/1995]',-0.025,0.002,0.001,180.400,-0.480
'[11:00:28.506 11/05/1995]',-0.025,0.002,0.001,180.400,-0.480
'[11:00:28.508 11/05/1995]',-0.012,0.002,0.001,180.400,-0.480
'[11:00:28.510 11/05/1995]',-0.025,0.002,-0.010,180.400,-0.480
'[11:00:28.512 11/05/1995]',-0.025,0.025,-0.033,180.400,-0.480
'[11:00:28.514 11/05/1995]',-0.031,0.025,-0.044,180.400,-0.480
'[11:00:28.516 11/05/1995]',-0.031,0.025,-0.044,180.400,-0.480
'[11:00:28.518 11/05/1995]',-0.031,0.025,-0.033,180.400,-0.480
'[11:00:28.520 11/05/1995]',-0.025,0.002,-0.010,180.400,-0.479
'[11:00:28.522 11/05/1995]',-0.025,0.002,0.001,180.400,-0.479
'[11:00:28.524 11/05/1995]',-0.025,0.002,0.001,180.400,-0.479
'[11:00:28.526 11/05/1995]',-0.025,0.025,-0.010,180.400,-0.479
'[11:00:28.528 11/05/1995]',-0.025,0.025,-0.033,180.400,-0.478
'[11:00:28.530 11/05/1995]',-0.031,0.050,-0.055,180.400,-0.478
'[11:00:28.532 11/05/1995]',-0.031,0.050,-0.055,180.400,-0.478
'[11:00:28.534 11/05/1995]',-0.031,0.050,-0.033,180.400,-0.478
'[11:00:28.536 11/05/1995]',-0.025,0.025,-0.021,180.400,-0.477
'[11:00:28.538 11/05/1995]',-0.025,0.025,0.001,180.400,-0.477
'[11:00:28.540 11/05/1995]',-0.025,0.025,0.001,180.400,-0.477
'[11:00:28.542 11/05/1995]',-0.025,0.025,-0.010,180.400,-0.477
'[11:00:28.544 11/05/1995]',-0.025,0.050,-0.021,180.400,-0.477
'[11:00:28.546 11/05/1995]',-0.031,0.050,-0.044,180.400,-0.477
'[11:00:28.548 11/05/1995]',-0.031,0.074,-0.055,180.400,-0.477
'[11:00:28.550 11/05/1995]',-0.031,0.050,-0.055,180.400,-0.477
'[11:00:28.552 11/05/1995]',-0.031,0.050,-0.033,180.400,-0.475
'[11:00:28.554 11/05/1995]',-0.025,0.025,-0.010,180.400,-0.475
'[11:00:28.556 11/05/1995]',-0.031,0.025,0.001,180.400,-0.475
'[11:00:28.558 11/05/1995]',-0.025,0.025,0.001,180.400,-0.475
'[11:00:28.560 11/05/1995]',-0.025,0.050,-0.021,180.400,-0.474
'[11:00:28.562 11/05/1995]',-0.031,0.050,-0.033,180.400,-0.474
'[11:00:28.564 11/05/1995]',-0.031,0.074,-0.055,180.400,-0.474
'[11:00:28.566 11/05/1995]',-0.031,0.074,-0.055,180.400,-0.474
'[11:00:28.568 11/05/1995]',-0.031,0.074,-0.033,180.400,-0.474
'[11:00:28.570 11/05/1995]',-0.031,0.050,-0.021,180.400,-0.474
'[11:00:28.572 11/05/1995]',-0.025,0.025,0.001,180.400,-0.474
'[11:00:28.574 11/05/1995]',-0.025,0.025,0.001,180.400,-0.474
'[11:00:28.576 11/05/1995]',-0.025,0.050,-0.010,180.400,-0.473
'[11:00:28.578 11/05/1995]',-0.031,0.074,-0.033,180.400,-0.473
'[11:00:28.580 11/05/1995]',-0.031,0.074,-0.055,180.400,-0.473
'[11:00:28.582 11/05/1995]',-0.031,0.074,-0.055,180.400,-0.473
'[11:00:28.584 11/05/1995]',-0.031,0.050,-0.044,180.400,-0.472
'[11:00:28.586 11/05/1995]',-0.025,0.050,-0.033,180.400,-0.472
'[11:00:28.588 11/05/1995]',-0.025,0.050,0.001,180.400,-0.472
'[11:00:28.590 11/05/1995]',-0.025,0.025,0.001,180.400,-0.472
'[11:00:28.592 11/05/1995]',-0.025,0.050,-0.010,180.400,-0.471
'[11:00:28.594 11/05/1995]',-0.025,0.050,-0.021,180.400,-0.471
'[11:00:28.596 11/05/1995]',-0.031,0.074,-0.044,180.400,-0.471
'[11:00:28.598 11/05/1995]',-0.031,0.074,-0.055,180.400,-0.471
'[11:00:28.600 11/05/1995]',-0.031,0.074,-0.055,180.400,-0.471
'[11:00:28.602 11/05/1995]',-0.031,0.050,-0.033,180.400,-0.471
'[11:00:28.604 11/05/1995]',-0.031,0.050,-0.010,180.400,-0.471
'[11:00:28.606 11/05/1995]',-0.025,0.025,0.001,180.400,-0.471
'[11:00:28.608 11/05/1995]',-0.025,0.050,0.001,180.400,-0.471
'[11:00:28.610 11/05/1995]',-0.025,0.074,-0.021,180.400,-0.471
'[11:00:28.612 11/05/1995]',-0.031,0.074,-0.033,180.400,-0.471
'[11:00:28.614 11/05/1995]',-0.037,0.074,-0.055,180.400,-0.471
'[11:00:28.616 11/05/1995]',-0.031,0.074,-0.055,180.400,-0.471
'[11:00:28.618 11/05/1995]',-0.031,0.074,-0.033,180.400,-0.471
'[11:00:28.620 11/05/1995]',-0.031,0.050,-0.021,180.400,-0.471
'[11:00:28.622 11/05/1995]',-0.025,0.050,0.001,180.400,-0.471
'[11:00:28.624 11/05/1995]',-0.025,0.050,0.001,180.400,-0.470
'[11:00:28.626 11/05/1995]',-0.025,0.074,-0.010,180.400,-0.470
'[11:00:28.628 11/05/1995]',-0.025,0.074,-0.033,180.400,-0.470
'[11:00:28.630 11/05/1995]',-0.025,0.074,-0.044,180.400,-0.470
'[11:00:28.632 11/05/1995]',-0.025,0.074,-0.044,180.400,-0.471
'[11:00:28.634 11/05/1995]',-0.025,0.074,-0.033,180.400,-0.471
'[11:00:28.636 11/05/1995]',-0.012,0.074,-0.021,180.400,-0.471
'[11:00:28.638 11/05/1995]',-0.025,0.050,0.001,180.400,-0.471
'[11:00:28.640 11/05/1995]',-0.012,0.050,0.001,180.400,-0.470
'[11:00:28.642 11/05/1995]',-0.012,0.074,0.001,180.400,-0.470
'[11:00:28.644 11/05/1995]',-0.012,0.074,-0.021,180.400,-0.470
'[11:00:28.646 11/05/1995]',-0.025,0.074,-0.033,180.400,-0.470
'[11:00:28.648 11/05/1995]',-0.025,0.098,-0.044,180.400,-0.469
'[11:00:28.650 11/05/1995]',-0.012,0.074,-0.033,180.400,-0.469
'[11:00:28.652 11/05/1995]',-0.012,0.074,-0.021,180.400,-0.469
'[11:00:28.654 11/05/1995]',-0.006,0.074,0.001,180.400,-0.469
'[11:00:28.656 11/05/1995]',-0.006,0.050,0.012,180.400,-0.468
'[11:00:28.658 11/05/1995]',-0.006,0.050,0.001,180.400,-0.468
'[11:00:28.660 11/05/1995]',-0.006,0.074,0.001,180.400,-0.468
'[11:00:28.662 11/05/1995]',0.001,0.074,-0.021,180.400,-0.468
'[11:00:28.664 11/05/1995]',0.001,0.098,-0.033,180.400,-0.465
'[11:00:28.666 11/05/1995]',0.001,0.098,-0.033,180.400,-0.465
'[11:00:28.668 11/05/1995]',0.001,0.074,0.001,180.400,-0.465
'[11:00:28.670 11/05/1995]',0.001,0.050,0.001,180.400,-0.465
'[11:00:28.672 11/05/1995]',0.007,0.050,0.023,180.400,-0.461
'[11:00:28.674 11/05/1995]',0.013,0.050,0.034,180.400,-0.461
'[11:00:28.676 11/05/1995]',0.007,0.050,0.012,180.400,-0.461
'[11:00:28.678 11/05/1995]',0.007,0.074,0.001,180.400,-0.461
'[11:00:28.680 11/05/1995]',0.007,0.074,-0.010,180.400,-0.456
'[11:00:28.682 11/05/1995]',0.013,0.074,-0.010,180.400,-0.456
'[11:00:28.684 11/05/1995]',0.025,0.050,0.001,180.400,-0.456
'[11:00:28.686 11/05/1995]',0.025,0.050,0.023,180.400,-0.456
'[11:00:28.688 11/05/1995]',0.025,0.025,0.034,180.400,-0.448
'[11:00:28.690 11/05/1995]',0.025,0.025,0.057,180.400,-0.448
'[11:00:28.692 11/05/1995]',0.025,0.025,0.034,180.400,-0.448
'[11:00:28.694 11/05/1995]',0.032,0.050,0.034,180.400,-0.448
'[11:00:28.696 11/05/1995]',0.025,0.050,0.001,180.400,-0.437
'[11:00:28.698 11/05/1995]',0.025,0.050,0.001,180.400,-0.437
'[11:00:28.700 11/05/1995]',0.025,0.025,0.001,180.400,-0.437
'[11:00:28.702 11/05/1995]',0.032,0.025,0.023,180.400,-0.437
'[11:00:28.704 11/05/1995]',0.032,0.002,0.045,180.400,-0.423
'[11:00:28.706 11/05/1995]',0.032,0.002,0.057,180.400,-0.423
'[11:00:28.708 11/05/1995]',0.032,0.002,0.057,180.400,-0.423
'[11:00:28.710 11/05/1995]',0.032,0.025,0.034,180.400,-0.423
'[11:00:28.712 11/05/1995]',0.025,0.025,0.012,180.400,-0.405
'[11:00:28.714 11/05/1995]',0.025,0.025,0.001,180.400,-0.405
'[11:00:28.716 11/05/1995]',0.025,0.025,0.001,180.400,-0.405
'[11:00:28.718 11/05/1995]',0.025,0.025,0.023,180.400,-0.405
'[11:00:28.720 11/05/1995]',0.032,0.002,0.034,180.400,-0.379
'[11:00:28.722 11/05/1995]',0.032,0.002,0.057,180.400,-0.379
'[11:00:28.724 11/05/1995]',0.032,0.002,0.045,180.400,-0.379
'[11:00:28.726 11/05/1995]',0.025,0.002,0.034,180.400,-0.379
'[11:00:28.728 11/05/1995]',0.025,0.025,0.012,180.400,-0.347
'[11:00:28.730 11/05/1995]',0.013,0.025,0.001,180.400,-0.347
'[11:00:28.732 11/05/1995]',0.007,0.025,0.001,180.400,-0.347
'[11:00:28.734 11/05/1995]',0.007,0.002,0.001,180.400,-0.347
'[11:00:28.736 11/05/1995]',0.007,0.002,0.012,180.400,-0.309
'[11:00:28.738 11/05/1995]',0.013,0.002,0.034,180.400,-0.309
'[11:00:28.740 11/05/1995]',0.007,0.002,0.034,180.400,-0.309
'[11:00:28.742 11/05/1995]',0.007,0.002,0.023,180.400,-0.309
'[11:00:28.744 11/05/1995]',0.007,0.002,0.012,180.400,-0.265
'[11:00:28.746 11/05/1995]',0.001,0.025,-0.010,180.400,-0.265
'[11:00:28.748 11/05/1995]',0.001,0.025,-0.021,180.400,-0.265
'[11:00:28.750 11/05/1995]',-0.006,0.002,-0.010,180.400,-0.265
'[11:00:28.752 11/05/1995]',-0.006,0.002,0.001,180.400,-0.212
'[11:00:28.754 11/05/1995]',-0.006,0.002,0.012,180.400,-0.212
'[11:00:28.756 11/05/1995]',0.001,0.002,0.023,180.400,-0.212
'[11:00:28.758 11/05/1995]',-0.006,0.002,0.012,180.400,-0.212
'[11:00:28.760 11/05/1995]',-0.006,0.002,0.001,180.400,-0.154
'[11:00:28.762 11/05/1995]',-0.006,0.002,-0.010,180.400,-0.154
'[11:00:28.764 11/05/1995]',-0.012,0.025,-0.033,180.400,-0.154
'[11:00:28.766 11/05/1995]',-0.012,0.025,-0.033,180.400,-0.154
'[11:00:28.768 11/05/1995]',-0.012,0.002,-0.010,180.400,-0.093
'[11:00:28.770 11/05/1995]',-0.012,0.002,0.001,180.400,-0.093
'[11:00:28.772 11/05/1995]',-0.006,0.002,0.012,180.400,-0.093
'[11:00:28.774 11/05/1995]',-0.012,0.002,0.012,180.400,-0.093
'[11:00:28.776 11/05/1995]',-0.012,0.002,0.001,180.400,-0.029
'[11:00:28.778 11/05/1995]',-0.025,0.002,-0.021,180.400,-0.029
'[11:00:28.780 11/05/1995]',-0.025,0.025,-0.033,180.400,-0.029
'[11:00:28.782 11/05/1995]',-0.025,0.025,-0.033,180.400,-0.029
'[11:00:28.784 11/05/1995]',-0.025,0.002,-0.021,180.400,0.038
'[11:00:28.786 11/05/1995]',-0.025,0.002,0.001,180.400,0.038
'[11:00:28.788 11/05/1995]',-0.025,0.002,0.001,180.400,0.038
'[11:00:28.790 11/05/1995]',-0.012,0.002,0.012,180.400,0.038
'[11:00:28.792 11/05/1995]',-0.012,0.002,0.001,180.400,0.105
'[11:00:28.794 11/05/1995]',-0.025,0.002,0.001,180.400,0.105
'[11:00:28.796 11/05/1995]',-0.025,0.002,-0.033,180.400,0.105
'[11:00:28.798 11/05/1995]',-0.025,0.002,-0.033,180.400,0.105
'[11:00:28.800 11/05/1995]',-0.031,0.002,-0.033,180.400,0.171
'[11:00:28.802 11/05/1995]',-0.025,0.002,-0.021,180.400,0.171
'[11:00:28.804 11/05/1995]',-0.025,0.002,0.001,180.400,0.171
'[11:00:28.806 11/05/1995]',-0.025,0.002,0.001,180.400,0.171
'[11:00:28.808 11/05/1995]',-0.012,0.002,0.001,180.400,0.232
'[11:00:28.810 11/05/1995]',-0.012,0.002,0.001,180.400,0.232
'[11:00:28.812 11/05/1995]',-0.025,0.002,-0.033,180.400,0.232
'[11:00:28.814 11/05/1995]',-0.025,0.002,-0.033,180.400,0.232
'[11:00:28.816 11/05/1995]',-0.025,0.002,-0.033,180.400,0.289
'[11:00:28.818 11/05/1995]',-0.025,0.002,-0.021,180.400,0.289
'[11:00:28.820 11/05/1995]',-0.012,0.002,0.001,180.400,0.289
'[11:00:28.822 11/05/1995]',-0.012,0.002,0.001,180.400,0.289
'[11:00:28.824 11/05/1995]',-0.012,0.002,0.001,180.400,0.342
'[11:00:28.826 11/05/1995]',-0.012,0.002,0.001,180.400,0.342
'[11:00:28.828 11/05/1995]',-0.025,0.002,-0.021,180.400,0.342
'[11:00:28.830 11/05/1995]',-0.025,0.002,-0.033,180.400,0.342
'[11:00:28.832 11/05/1995]',-0.025,0.025,-0.044,180.400,0.388
'[11:00:28.834 11/05/1995]',-0.025,0.002,-0.033,180.400,0.388
'[11:00:28.836 11/05/1995]',-0.025,0.002,-0.010,180.400,0.388
'[11:00:28.838 11/05/1995]',-0.025,0.002,0.001,180.400,0.388
'[11:00:28.840 11/05/1995]',-0.025,0.002,0.001,180.400,0.428
'[11:00:28.842 11/05/1995]',-0.025,0.002,0.001,180.400,0.428
'[11:00:28.844 11/05/1995]',-0.025,0.002,-0.010,180.400,0.428
'[11:00:28.846 11/05/1995]',-0.031,0.025,-0.033,180.400,0.428
'[11:00:28.848 11/05/1995]',-0.031,0.025,-0.044,180.400,0.461
'[11:00:28.850 11/05/1995]',-0.031,0.025,-0.033,180.400,0.461
'[11:00:28.852 11/05/1995]',-0.025,0.002,-0.021,180.400,0.461
'[11:00:28.854 11/05/1995]',-0.025,0.002,0.001,180.400,0.461
'[11:00:28.856 11/05/1995]',-0.012,0.002,0.001,180.400,0.487
'[11:00:28.858 11/05/1995]',-0.025,0.002,0.001,180.400,0.487
'[11:00:28.860 11/05/1995]',-0.025,0.025,-0.010,180.400,0.487
'[11:00:28.862 11/05/1995]',-0.025,0.025,-0.033,180.400,0.487
'[11:00:28.864 11/05/1995]',-0.031,0.025,-0.044,180.400,0.505
'[11:00:28.866 11/05/1995]',-0.031,0.025,-0.055,180.400,0.505
'[11:00:28.868 11/05/1995]',-0.025,0.025,-0.033,180.400,0.505
'[11:00:28.870 11/05/1995]',-0.025,0.002,-0.010,180.400,0.505
'[11:00:28.872 11/05/1995]',-0.012,0.002,0.001,180.400,0.517
'[11:00:28.874 11/05/1995]',-0.025,0.002,0.001,180.400,0.517
'[11:00:28.876 11/05/1995]',-0.025,0.002,-0.010,180.400,0.517
'[11:00:28.878 11/05/1995]',-0.025,0.025,-0.033,180.400,0.517
'[11:00:28.880 11/05/1995]',-0.031,0.025,-0.055,180.400,0.520
'[11:00:28.882 11/05/1995]',-0.031,0.025,-0.044,180.400,0.520
'[11:00:28.884 11/05/1995]',-0.031,0.025,-0.033,180.400,0.520
'[11:00:28.886 11/05/1995]',-0.031,0.002,-0.021,180.400,0.520
'[11:00:28.888 11/05/1995]',-0.025,0.002,0.001,180.400,0.518
'[11:00:28.890 11/05/1995]',-0.025,0.002,0.001,180.400,0.518
'[11:00:28.892 11/05/1995]',-0.031,0.002,0.001,180.400,0.518
'[11:00:28.894 11/05/1995]',-0.031,0.025,-0.021,180.400,0.518
'[11:00:28.896 11/05/1995]',-0.031,0.025,-0.044,180.400,0.509
'[11:00:28.898 11/05/1995]',-0.025,0.025,-0.055,180.400,0.509
'[11:00:28.900 11/05/1995]',-0.031,0.025,-0.044,180.400,0.509
'[11:00:28.902 11/05/1995]',-0.031,0.002,-0.033,180.400,0.509
'[11:00:28.904 11/05/1995]',-0.025,0.002,0.001,180.400,0.494
'[11:00:28.906 11/05/1995]',-0.025,0.002,0.001,180.400,0.494
'[11:00:28.908 11/05/1995]',-0.012,0.002,0.001,180.400,0.494
'[11:00:28.910 11/05/1995]',-0.025,0.002,-0.010,180.400,0.494
'[11:00:28.912 11/05/1995]',-0.025,0.025,-0.033,180.400,0.473
'[11:00:28.914 11/05/1995]',-0.025,0.025,-0.044,180.400,0.473
'[11:00:28.916 11/05/1995]',-0.025,0.025,-0.033,180.400,0.473
'[11:00:28.918 11/05/1995]',-0.031,0.025,-0.033,180.400,0.473
'[11:00:28.920 11/05/1995]',-0.025,0.002,-0.010,180.400,0.449
'[11:00:28.922 11/05/1995]',-0.025,0.002,0.001,180.400,0.449
'[11:00:28.924 11/05/1995]',-0.025,0.002,0.001,180.400,0.449
'[11:00:28.926 11/05/1995]',-0.025,0.002,0.001,180.400,0.449
'[11:00:28.928 11/05/1995]',-0.025,0.025,-0.021,180.400,0.419
'[11:00:28.930 11/05/1995]',-0.025,0.025,-0.033,180.400,0.419
'[11:00:28.932 11/05/1995]',-0.031,0.025,-0.044,180.400,0.419
'[11:00:28.934 11/05/1995]',-0.031,0.025,-0.033,180.400,0.419
'[11:00:28.936 11/05/1995]',-0.025,0.002,-0.010,180.400,0.385
'[11:00:28.938 11/05/1995]',-0.025,0.002,0.001,180.400,0.385
'[11:00:28.940 11/05/1995]',-0.012,0.002,0.001,180.400,0.385
'[11:00:28.942 11/05/1995]',-0.012,0.002,0.001,180.400,0.385
'[11:00:28.944 11/05/1995]',-0.012,0.002,-0.010,180.400,0.349
'[11:00:28.946 11/05/1995]',-0.025,0.025,-0.033,180.400,0.349
'[11:00:28.948 11/05/1995]',-0.025,0.025,-0.033,180.400,0.349
'[11:00:28.950 11/05/1995]',-0.025,0.025,-0.033,180.400,0.349
'[11:00:28.952 11/05/1995]',-0.025,0.002,-0.021,180.400,0.312
'[11:00:28.954 11/05/1995]',-0.012,0.002,0.001,180.400,0.312
'[11:00:28.956 11/05/1995]',-0.006,0.002,0.001,180.400,0.312
'[11:00:28.958 11/05/1995]',-0.006,0.002,0.001,180.400,0.312
'[11:00:28.960 11/05/1995]',-0.012,0.002,0.001,180.400,0.273
'[11:00:28.962 11/05/1995]',-0.012,0.002,-0.033,180.400,0.273
'[11:00:28.964 11/05/1995]',-0.012,0.025,-0.033,180.400,0.273
'[11:00:28.966 11/05/1995]',-0.012,0.002,-0.033,180.400,0.273
'[11:00:28.968 11/05/1995]',-0.012,0.002,-0.021,180.400,0.234
'[11:00:28.970 11/05/1995]',-0.006,0.002,0.001,180.400,0.234
'[11:00:28.972 11/05/1995]',-0.006,0.002,0.001,180.400,0.234
'[11:00:28.974 11/05/1995]',-0.006,0.002,0.001,180.400,0.234
'[11:00:28.976 11/05/1995]',-0.006,0.002,0.001,180.400,0.196
'[11:00:28.978 11/05/1995]',-0.006,0.002,-0.010,180.400,0.196
'[11:00:28.980 11/05/1995]',-0.012,0.002,-0.033,180.400,0.196
'[11:00:28.982 11/05/1995]',-0.012,0.025,-0.033,180.400,0.196
'[11:00:28.984 11/05/1995]',-0.006,0.002,-0.021,180.400,0.155
'[11:00:28.986 11/05/1995]',-0.006,0.002,0.001,180.400,0.155
'[11:00:28.988 11/05/1995]',-0.006,0.002,0.001,180.400,0.155
'[11:00:28.990 11/05/1995]',-0.006,0.002,0.012,180.400,0.155
'[11:00:28.992 11/05/1995]',-0.006,0.002,0.001,180.400,0.119
'[11:00:28.994 11/05/1995]',-0.006,0.002,-0.010,180.400,0.119
'[11:00:28.996 11/05/1995]',-0.012,0.002,-0.033,180.400,0.119
'[11:00:28.998 11/05/1995]',-0.012,0.002,-0.033,180.400,0.119
'[11:00:29.000 11/05/1995]',-0.006,0.002,-0.033,180.400,0.086
'[11:00:29.002 11/05/1995]',-0.006,0.002,-0.010,180.400,0.086
'[11:00:29.004 11/05/1995]',0.001,0.002,0.001,180.400,0.086
'[11:00:29.006 11/05/1995]',0.001,0.002,0.012,180.400,0.086
'[11:00:29.008 11/05/1995]',0.001,0.002,0.012,180.400,0.051
'[11:00:29.010 11/05/1995]',0.001,0.002,0.001,180.400,0.051
'[11:00:29.012 11/05/1995]',-0.006,0.002,-0.033,180.400,0.051
'[11:00:29.014 11/05/1995]',-0.006,0.025,-0.033,180.400,0.051
'[11:00:29.016 11/05/1995]',-0.012,0.002,-0.033,180.400,0.019
'[11:00:29.018 11/05/1995]',-0.006,0.002,-0.021,180.400,0.019
'[11:00:29.020 11/05/1995]',-0.006,0.002,0.001,180.400,0.019
'[11:00:29.022 11/05/1995]',-0.006,0.002,0.012,180.400,0.019
'[11:00:29.024 11/05/1995]',-0.006,0.002,0.012,180.400,-0.009
'[11:00:29.026 11/05/1995]',-0.006,0.002,0.001,180.400,-0.009
'[11:00:29.028 11/05/1995]',-0.006,0.002,-0.021,180.400,-0.009
'[11:00:29.030 11/05/1995]',-0.006,0.002,-0.033,180.400,-0.009
'[11:00:29.032 11/05/1995]',-0.012,0.025,-0.033,180.400,-0.037
'[11:00:29.034 11/05/1995]',-0.006,0.002,-0.033,180.400,-0.037
'[11:00:29.036 11/05/1995]',-0.006,0.002,0.001,180.400,-0.037
'[11:00:29.038 11/05/1995]',0.001,0.002,0.012,180.400,-0.037
'[11:00:29.040 11/05/1995]',0.001,0.002,0.012,180.400,-0.062
'[11:00:29.042 11/05/1995]',0.001,0.002,0.001,180.400,-0.062
'[11:00:29.044 11/05/1995]',-0.006,0.002,0.001,180.400,-0.062
'[11:00:29.046 11/05/1995]',-0.006,0.002,-0.033,180.400,-0.062
'[11:00:29.048 11/05/1995]',-0.006,0.025,-0.033,180.400,-0.087
'[11:00:29.050 11/05/1995]',-0.006,0.002,-0.021,180.400,-0.087
'[11:00:29.052 11/05/1995]',0.001,0.002,0.001,180.400,-0.087
'[11:00:29.054 11/05/1995]',0.001,0.002,0.001,180.400,-0.087
'[11:00:29.056 11/05/1995]',0.001,0.002,0.023,180.400,-0.110
'[11:00:29.058 11/05/1995]',0.001,0.002,0.012,180.400,-0.110
'[11:00:29.060 11/05/1995]',-0.006,0.002,0.001,180.400,-0.110
'[11:00:29.062 11/05/1995]',-0.006,0.002,-0.021,180.400,-0.110
'[11:00:29.064 11/05/1995]',-0.006,0.002,-0.033,180.400,-0.132
'[11:00:29.066 11/05/1995]',-0.006,0.002,-0.033,180.400,-0.132
'[11:00:29.068 11/05/1995]',-0.006,0.002,-0.010,180.400,-0.132
'[11:00:29.070 11/05/1995]',0.001,0.002,0.001,180.400,-0.132
'[11:00:29.072 11/05/1995]',0.001,0.002,0.012,180.400,-0.150
'[11:00:29.074 11/05/1995]',-0.006,0.002,0.012,180.400,-0.150
'[11:00:29.076 11/05/1995]',0.001,0.002,0.001,180.400,-0.150
'[11:00:29.078 11/05/1995]',-0.006,0.002,-0.010,180.400,-0.150
'[11:00:29.080 11/05/1995]',-0.006,0.002,-0.033,180.400,-0.171
'[11:00:29.082 11/05/1995]',-0.006,0.002,-0.033,180.400,-0.171
'[11:00:29.084 11/05/1995]',-0.012,0.002,-0.021,180.400,-0.171
'[11:00:29.086 11/05/1995]',-0.006,0.002,0.001,180.400,-0.171
'[11:00:29.088 11/05/1995]',0.001,0.002,0.012,180.400,-0.191
'[11:00:29.090 11/05/1995]',0.001,0.002,0.023,180.400,-0.191
'[11:00:29.092 11/05/1995]',0.001,0.002,0.001,180.400,-0.191
'[11:00:29.094 11/05/1995]',0.001,0.002,0.001,180.400,-0.191
'[11:00:29.096 11/05/1995]',0.001,0.025,-0.021,180.400,-0.208
'[11:00:29.098 11/05/1995]',-0.006,0.002,-0.033,180.400,-0.208
'[11:00:29.100 11/05/1995]',0.001,0.025,-0.021,180.400,-0.208
'[11:00:29.102 11/05/1995]',-0.006,0.025,0.001,180.400,-0.208
'[11:00:29.104 11/05/1995]',-0.006,0.002,0.001,180.400,-0.226
'[11:00:29.106 11/05/1995]',-0.006,0.025,0.012,180.400,-0.226
'[11:00:29.108 11/05/1995]',-0.012,0.025,0.001,180.400,-0.226
'[11:00:29.110 11/05/1995]',-0.012,0.050,0.001,180.400,-0.226
'[11:00:29.112 11/05/1995]',-0.012,0.074,-0.033,180.400,-0.242
'[11:00:29.114 11/05/1995]',-0.012,0.074,-0.044,180.400,-0.242
'[11:00:29.116 11/05/1995]',-0.012,0.074,-0.033,180.400,-0.242
'[11:00:29.118 11/05/1995]',-0.012,0.074,-0.021,180.400,-0.242
'[11:00:29.120 11/05/1995]',-0.006,0.050,0.001,180.400,-0.258
'[11:00:29.122 11/05/1995]',-0.006,0.025,0.012,180.400,-0.258
'[11:00:29.124 11/05/1995]',-0.006,0.025,0.012,180.400,-0.258
'[11:00:29.126 11/05/1995]',-0.006,0.025,0.001,180.400,-0.258
'[11:00:29.128 11/05/1995]',-0.012,0.050,-0.010,180.400,-0.276
'[11:00:29.130 11/05/1995]',-0.025,0.050,-0.033,180.400,-0.276
'[11:00:29.132 11/05/1995]',-0.025,0.050,-0.033,180.400,-0.276
'[11:00:29.134 11/05/1995]',-0.025,0.025,-0.033,180.400,-0.276
'[11:00:29.136 11/05/1995]',-0.031,0.025,-0.010,180.400,-0.290
'[11:00:29.138 11/05/1995]',-0.031,0.002,0.001,180.400,-0.290
'[11:00:29.140 11/05/1995]',-0.031,0.002,0.001,180.400,-0.290
'[11:00:29.142 11/05/1995]',-0.037,0.025,-0.010,180.400,-0.290
'[11:00:29.144 11/05/1995]',-0.050,0.025,-0.044,180.400,-0.305
'[11:00:29.146 11/05/1995]',-0.056,0.025,-0.066,180.400,-0.305
'[11:00:29.148 11/05/1995]',-0.056,0.025,-0.066,180.400,-0.305
'[11:00:29.150 11/05/1995]',-0.056,0.025,-0.055,180.400,-0.305
'[11:00:29.152 11/05/1995]',-0.050,0.002,-0.033,180.400,-0.320
'[11:00:29.154 11/05/1995]',-0.050,0.002,-0.010,180.400,-0.320
'[11:00:29.156 11/05/1995]',-0.050,0.002,0.001,180.400,-0.320
'[11:00:29.158 11/05/1995]',-0.050,0.002,-0.021,180.400,-0.320
'[11:00:29.160 11/05/1995]',-0.050,0.025,-0.033,180.400,-0.334
'[11:00:29.162 11/05/1995]',-0.050,0.025,-0.055,180.400,-0.334
'[11:00:29.164 11/05/1995]',-0.050,0.050,-0.066,180.400,-0.334
'[11:00:29.166 11/05/1995]',-0.050,0.025,-0.066,180.400,-0.334
'[11:00:29.168 11/05/1995]',-0.037,0.025,-0.033,180.400,-0.348
'[11:00:29.170 11/05/1995]',-0.031,0.025,-0.010,180.400,-0.348
'[11:00:29.172 11/05/1995]',-0.025,0.002,0.001,180.400,-0.348
'[11:00:29.174 11/05/1995]',-0.012,0.002,0.001,180.400,-0.348
'[11:00:29.176 11/05/1995]',-0.012,0.025,-0.010,180.400,-0.361
'[11:00:29.178 11/05/1995]',-0.012,0.025,-0.033,180.400,-0.361
'[11:00:29.180 11/05/1995]',-0.006,0.025,-0.044,180.400,-0.361
'[11:00:29.182 11/05/1995]',-0.006,0.025,-0.033,180.400,-0.361
'[11:00:29.184 11/05/1995]',0.001,0.002,-0.021,180.400,-0.374
'[11:00:29.186 11/05/1995]',0.007,0.002,0.001,180.400,-0.374
'[11:00:29.188 11/05/1995]',0.013,0.002,0.012,180.400,-0.374
'[11:00:29.190 11/05/1995]',0.013,-0.022,0.023,180.400,-0.374
'[11:00:29.192 11/05/1995]',0.013,0.002,0.012,180.400,-0.385
'[11:00:29.194 11/05/1995]',0.013,0.002,0.001,180.400,-0.385
'[11:00:29.196 11/05/1995]',0.007,0.002,-0.010,180.400,-0.385
'[11:00:29.198 11/05/1995]',0.013,0.002,-0.021,180.400,-0.385
'[11:00:29.200 11/05/1995]',0.007,0.002,-0.010,180.400,-0.397
'[11:00:29.202 11/05/1995]',0.007,-0.022,0.001,180.400,-0.397
'[11:00:29.204 11/05/1995]',0.013,-0.022,0.023,180.400,-0.397
'[11:00:29.206 11/05/1995]',0.013,-0.046,0.034,180.400,-0.397
'[11:00:29.208 11/05/1995]',0.013,-0.022,0.023,180.400,-0.406
'[11:00:29.210 11/05/1995]',0.007,-0.022,0.001,180.400,-0.406
'[11:00:29.212 11/05/1995]',0.007,0.002,0.001,180.400,-0.406
'[11:00:29.214 11/05/1995]',0.007,0.002,-0.021,180.400,-0.406
'[11:00:29.216 11/05/1995]',0.001,0.002,-0.021,180.400,-0.416
'[11:00:29.218 11/05/1995]',0.007,-0.022,0.001,180.400,-0.416
'[11:00:29.220 11/05/1995]',0.007,-0.022,0.012,180.400,-0.416
'[11:00:29.222 11/05/1995]',0.013,-0.022,0.023,180.400,-0.416
'[11:00:29.224 11/05/1995]',0.007,-0.022,0.023,180.400,-0.425
'[11:00:29.226 11/05/1995]',0.007,-0.022,0.012,180.400,-0.425
'[11:00:29.228 11/05/1995]',0.007,0.002,0.001,180.400,-0.425
'[11:00:29.230 11/05/1995]',0.007,0.002,-0.021,180.400,-0.425
'[11:00:29.232 11/05/1995]',0.007,0.002,-0.021,180.400,-0.435
'[11:00:29.234 11/05/1995]',0.007,0.002,0.001,180.400,-0.435
'[11:00:29.236 11/05/1995]',0.007,-0.022,0.001,180.400,-0.435
'[11:00:29.238 11/05/1995]',0.013,-0.022,0.023,180.400,-0.435
'[11:00:29.240 11/05/1995]',0.013,-0.022,0.023,180.400,-0.444
'[11:00:29.242 11/05/1995]',0.013,-0.022,0.012,180.400,-0.444
'[11:00:29.244 11/05/1995]',0.007,-0.022,0.001,180.400,-0.444
'[11:00:29.246 11/05/1995]',0.007,0.002,-0.021,180.400,-0.444
'[11:00:29.248 11/05/1995]',0.007,0.002,-0.021,180.400,-0.451
'[11:00:29.250 11/05/1995]',0.007,0.002,-0.021,180.400,-0.451
'[11:00:29.252 11/05/1995]',0.001,-0.022,0.001,180.400,-0.451
'[11:00:29.254 11/05/1995]',0.007,-0.022,0.023,180.400,-0.451
'[11:00:29.256 11/05/1995]',0.013,-0.022,0.034,180.400,-0.458
'[11:00:29.258 11/05/1995]',0.013,-0.022,0.034,180.400,-0.458
'[11:00:29.260 11/05/1995]',0.038,0.002,0.034,180.400,-0.458
'[11:00:29.262 11/05/1995]',0.057,0.002,0.023,180.400,-0.458
'[11:00:29.264 11/05/1995]',0.082,0.002,0.034,180.400,-0.465
'[11:00:29.266 11/05/1995]',0.126,0.002,0.068,180.400,-0.465
'[11:00:29.268 11/05/1995]',0.163,0.002,0.113,180.400,-0.465
'[11:00:29.270 11/05/1995]',0.213,0.002,0.168,180.400,-0.465
'[11:00:29.272 11/05/1995]',0.239,0.002,0.213,180.400,-0.470
'[11:00:29.274 11/05/1995]',0.276,0.025,0.236,180.400,-0.470
'[11:00:29.276 11/05/1995]',0.264,0.074,0.213,180.400,-0.470
'[11:00:29.278 11/05/1995]',0.264,0.147,0.180,180.400,-0.470
'[11:00:29.280 11/05/1995]',0.264,0.196,0.158,180.400,-0.475
'[11:00:29.282 11/05/1995]',0.264,0.244,0.135,180.400,-0.475
'[11:00:29.284 11/05/1995]',0.245,0.317,0.102,180.400,-0.475
'[11:00:29.286 11/05/1995]',0.220,0.342,0.090,180.400,-0.475
'[11:00:29.288 11/05/1995]',0.207,0.317,0.102,180.400,-0.481
'[11:00:29.290 11/05/1995]',0.213,0.244,0.124,180.400,-0.481
'[11:00:29.292 11/05/1995]',0.245,0.098,0.146,180.400,-0.481
'[11:00:29.294 11/05/1995]',0.257,-0.022,0.168,180.400,-0.481
'[11:00:29.296 11/05/1995]',0.257,-0.168,0.180,180.400,-0.487
'[11:00:29.298 11/05/1995]',0.264,-0.338,0.202,180.400,-0.487
'[11:00:29.300 11/05/1995]',0.264,-0.459,0.247,180.400,-0.487
'[11:00:29.302 11/05/1995]',0.264,-0.581,0.269,180.400,-0.487
'[11:00:29.304 11/05/1995]',0.257,-0.654,0.303,180.400,-0.491
'[11:00:29.306 11/05/1995]',0.239,-0.678,0.303,180.400,-0.491
'[11:00:29.308 11/05/1995]',0.213,-0.701,0.269,180.400,-0.491
'[11:00:29.310 11/05/1995]',0.170,-0.678,0.224,180.400,-0.491
'[11:00:29.312 11/05/1995]',0.138,-0.629,0.168,180.400,-0.494
'[11:00:29.314 11/05/1995]',0.101,-0.581,0.135,180.400,-0.494
'[11:00:29.316 11/05/1995]',0.076,-0.532,0.102,180.400,-0.494
'[11:00:29.318 11/05/1995]',0.057,-0.459,0.102,180.400,-0.494
'[11:00:29.320 11/05/1995]',0.032,-0.410,0.102,180.400,-0.497
'[11:00:29.322 11/05/1995]',0.013,-0.338,0.079,180.400,-0.497
'[11:00:29.324 11/05/1995]',0.001,-0.241,0.057,180.400,-0.497
'[11:00:29.326 11/05/1995]',-0.012,-0.168,0.012,180.400,-0.497
'[11:00:29.328 11/05/1995]',-0.031,-0.095,-0.010,180.400,-0.499
'[11:00:29.330 11/05/1995]',-0.031,-0.046,-0.033,180.400,-0.499
'[11:00:29.332 11/05/1995]',-0.031,-0.022,-0.044,180.400,-0.499
'[11:00:29.334 11/05/1995]',-0.031,-0.022,-0.033,180.400,-0.499
'[11:00:29.336 11/05/1995]',-0.031,-0.022,0.001,180.400,-0.499
'[11:00:29.338 11/05/1995]',-0.025,-0.022,0.001,180.400,-0.499
'[11:00:29.340 11/05/1995]',-0.025,-0.022,0.001,180.400,-0.499
'[11:00:29.342 11/05/1995]',-0.031,0.002,0.001,180.400,-0.499
'[11:00:29.344 11/05/1995]',-0.031,0.002,-0.010,180.400,-0.499
'[11:00:29.346 11/05/1995]',-0.031,0.002,-0.033,180.400,-0.499
'[11:00:29.348 11/05/1995]',-0.031,0.002,-0.033,180.400,-0.499
'[11:00:29.350 11/05/1995]',-0.031,0.002,-0.033,180.400,-0.499
'[11:00:29.352 11/05/1995]',-0.031,0.002,-0.010,180.400,-0.497
'[11:00:29.354 11/05/1995]',-0.031,0.002,0.001,180.400,-0.497
'[11:00:29.356 11/05/1995]',-0.025,0.002,0.001,180.400,-0.497
'[11:00:29.358 11/05/1995]',-0.025,0.002,0.001,180.400,-0.497
'[11:00:29.360 11/05/1995]',-0.025,0.002,-0.010,180.400,-0.495
'[11:00:29.362 11/05/1995]',-0.031,0.002,-0.033,180.400,-0.495
'[11:00:29.364 11/05/1995]',-0.031,0.025,-0.033,180.400,-0.495
'[11:00:29.366 11/05/1995]',-0.031,0.025,-0.033,180.400,-0.495
'[11:00:29.368 11/05/1995]',-0.031,0.002,-0.033,180.400,-0.493
'[11:00:29.370 11/05/1995]',-0.025,0.002,0.001,180.400,-0.493
'[11:00:29.372 11/05/1995]',-0.025,0.002,0.001,180.400,-0.493
'[11:00:29.374 11/05/1995]',-0.025,0.002,0.001,180.400,-0.493
'[11:00:29.376 11/05/1995]',-0.025,0.002,-0.010,180.400,-0.488
'[11:00:29.378 11/05/1995]',-0.025,0.025,-0.033,180.400,-0.488
'[11:00:29.380 11/05/1995]',-0.031,0.025,-0.044,180.400,-0.488
'[11:00:29.382 11/05/1995]',-0.025,0.025,-0.044,180.400,-0.488
'[11:00:29.384 11/05/1995]',-0.025,0.025,-0.033,180.400,-0.483
'[11:00:29.386 11/05/1995]',-0.025,0.025,-0.010,180.400,-0.483
'[11:00:29.388 11/05/1995]',-0.025,0.002,0.001,180.400,-0.483
'[11:00:29.390 11/05/1995]',-0.025,0.002,0.001,180.400,-0.483
'[11:00:29.392 11/05/1995]',-0.025,0.025,0.001,180.400,-0.479
'[11:00:29.394 11/05/1995]',-0.025,0.025,-0.021,180.400,-0.479
'[11:00:29.396 11/05/1995]',-0.025,0.050,-0.044,180.400,-0.479
'[11:00:29.398 11/05/1995]',-0.025,0.050,-0.055,180.400,-0.479
'[11:00:29.400 11/05/1995]',-0.025,0.050,-0.033,180.400,-0.474
'[11:00:29.402 11/05/1995]',-0.031,0.025,-0.033,180.400,-0.474
'[11:00:29.404 11/05/1995]',-0.025,0.025,0.001,180.400,-0.474
'[11:00:29.406 11/05/1995]',-0.012,0.025,0.001,180.400,-0.474
'[11:00:29.408 11/05/1995]',-0.025,0.025,0.001,180.400,-0.469
'[11:00:29.410 11/05/1995]',-0.025,0.025,-0.021,180.400,-0.469
'[11:00:29.412 11/05/1995]',-0.025,0.050,-0.044,180.400,-0.469
'[11:00:29.414 11/05/1995]',-0.031,0.050,-0.055,180.400,-0.469
'[11:00:29.416 11/05/1995]',-0.031,0.050,-0.055,180.400,-0.465
'[11:00:29.418 11/05/1995]',-0.031,0.025,-0.033,180.400,-0.465
'[11:00:29.420 11/05/1995]',-0.031,0.025,-0.010,180.400,-0.465
'[11:00:29.422 11/05/1995]',-0.025,0.025,0.001,180.400,-0.465
'[11:00:29.424 11/05/1995]',-0.025,0.025,0.001,180.400,-0.461
'[11:00:29.426 11/05/1995]',-0.025,0.050,-0.010,180.400,-0.461
'[11:00:29.428 11/05/1995]',-0.025,0.050,-0.033,180.400,-0.461
'[11:00:29.430 11/05/1995]',-0.031,0.074,-0.055,180.400,-0.461
'[11:00:29.432 11/05/1995]',-0.031,0.074,-0.055,180.400,-0.459
'[11:00:29.434 11/05/1995]',-0.025,0.050,-0.033,180.400,-0.459
'[11:00:29.436 11/05/1995]',-0.025,0.050,-0.021,180.400,-0.459
'[11:00:29.438 11/05/1995]',-0.025,0.025,0.001,180.400,-0.459
'[11:00:29.440 11/05/1995]',-0.025,0.025,0.001,180.400,-0.455
'[11:00:29.442 11/05/1995]',-0.025,0.050,-0.010,180.400,-0.455
'[11:00:29.444 11/05/1995]',-0.012,0.050,-0.033,180.400,-0.455
'[11:00:29.446 11/05/1995]',-0.031,0.074,-0.055,180.400,-0.455
'[11:00:29.448 11/05/1995]',-0.031,0.074,-0.055,180.400,-0.452
'[11:00:29.450 11/05/1995]',-0.031,0.050,-0.044,180.400,-0.452
'[11:00:29.452 11/05/1995]',-0.025,0.050,-0.033,180.400,-0.452
'[11:00:29.454 11/05/1995]',-0.025,0.025,-0.010,180.400,-0.452
'[11:00:29.456 11/05/1995]',-0.025,0.025,0.001,180.400,-0.450
'[11:00:29.458 11/05/1995]',-0.025,0.025,0.001,180.400,-0.450
'[11:00:29.460 11/05/1995]',-0.025,0.050,-0.021,180.400,-0.450
'[11:00:29.462 11/05/1995]',-0.025,0.074,-0.044,180.400,-0.450
'[11:00:29.464 11/05/1995]',-0.031,0.074,-0.066,180.400,-0.449
'[11:00:29.466 11/05/1995]',-0.031,0.074,-0.055,180.400,-0.449
'[11:00:29.468 11/05/1995]',-0.025,0.074,-0.033,180.400,-0.449
'[11:00:29.470 11/05/1995]',-0.025,0.050,-0.010,180.400,-0.449
'[11:00:29.472 11/05/1995]',-0.025,0.050,0.001,180.400,-0.448
'[11:00:29.474 11/05/1995]',-0.025,0.050,0.001,180.400,-0.448
'[11:00:29.476 11/05/1995]',-0.025,0.050,-0.021,180.400,-0.448
'[11:00:29.478 11/05/1995]',-0.025,0.074,-0.044,180.400,-0.448
'[11:00:29.480 11/05/1995]',-0.031,0.074,-0.055,180.400,-0.447
'[11:00:29.482 11/05/1995]',-0.025,0.074,-0.066,180.400,-0.447
'[11:00:29.484 11/05/1995]',-0.025,0.074,-0.044,180.400,-0.447
'[11:00:29.486 11/05/1995]',-0.025,0.050,-0.021,180.400,-0.447
'[11:00:29.488 11/05/1995]',-0.012,0.050,0.001,180.400,-0.447
'[11:00:29.490 11/05/1995]',-0.012,0.050,0.001,180.400,-0.447
'[11:00:29.492 11/05/1995]',-0.012,0.074,-0.010,180.400,-0.447
'[11:00:29.494 11/05/1995]',-0.012,0.074,-0.033,180.400,-0.447
'[11:00:29.496 11/05/1995]',-0.025,0.074,-0.055,180.400,-0.447
'[11:00:29.498 11/05/1995]',-0.025,0.098,-0.055,180.400,-0.447
'[11:00:29.500 11/05/1995]',-0.012,0.074,-0.044,180.400,-0.447
'[11:00:29.502 11/05/1995]',-0.012,0.074,-0.033,180.400,-0.447
'[11:00:29.504 11/05/1995]',-0.006,0.050,0.001,180.400,-0.447
'[11:00:29.506 11/05/1995]',-0.006,0.050,0.001,180.400,-0.447
'[11:00:29.508 11/05/1995]',-0.012,0.074,0.001,180.400,-0.447
'[11:00:29.510 11/05/1995]',-0.012,0.074,-0.021,180.400,-0.447
'[11:00:29.512 11/05/1995]',-0.012,0.074,-0.033,180.400,-0.447
'[11:00:29.514 11/05/1995]',-0.012,0.098,-0.044,180.400,-0.447
'[11:00:29.516 11/05/1995]',-0.012,0.074,-0.033,180.400,-0.447
'[11:00:29.518 11/05/1995]',-0.006,0.074,-0.021,180.400,-0.447
'[11:00:29.520 11/05/1995]',0.001,0.050,0.001,180.400,-0.447
'[11:00:29.522 11/05/1995]',0.001,0.050,0.012,180.400,-0.447
'[11:00:29.524 11/05/1995]',0.001,0.050,0.012,180.400,-0.447
'[11:00:29.526 11/05/1995]',0.001,0.074,0.001,180.400,-0.447
'[11:00:29.528 11/05/1995]',0.001,0.074,-0.010,180.400,-0.447
'[11:00:29.530 11/05/1995]',0.001,0.074,-0.021,180.400,-0.447
'[11:00:29.532 11/05/1995]',0.001,0.074,-0.021,180.400,-0.447
'[11:00:29.534 11/05/1995]',0.001,0.074,-0.010,180.400,-0.447
'[11:00:29.536 11/05/1995]',0.007,0.050,0.001,180.400,-0.444
'[11:00:29.538 11/05/1995]',0.013,0.025,0.023,180.400,-0.444
'[11:00:29.540 11/05/1995]',0.007,0.025,0.034,180.400,-0.444
'[11:00:29.542 11/05/1995]',0.013,0.050,0.023,180.400,-0.444
'[11:00:29.544 11/05/1995]',0.013,0.050,0.001,180.400,-0.439
'[11:00:29.546 11/05/1995]',0.013,0.074,0.001,180.400,-0.439
'[11:00:29.548 11/05/1995]',0.013,0.074,0.001,180.400,-0.439
'[11:00:29.550 11/05/1995]',0.013,0.050,0.001,180.400,-0.439
'[11:00:29.552 11/05/1995]',0.025,0.025,0.012,180.400,-0.433
'[11:00:29.554 11/05/1995]',0.025,0.025,0.034,180.400,-0.433
'[11:00:29.556 11/05/1995]',0.025,0.025,0.045,180.400,-0.433
'[11:00:29.558 11/05/1995]',0.025,0.025,0.045,180.400,-0.433
'[11:00:29.560 11/05/1995]',0.025,0.025,0.034,180.400,-0.423
'[11:00:29.562 11/05/1995]',0.025,0.025,0.001,180.400,-0.423
'[11:00:29.564 11/05/1995]',0.025,0.050,0.001,180.400,-0.423
'[11:00:29.566 11/05/1995]',0.025,0.025,0.001,180.400,-0.423
'[11:00:29.568 11/05/1995]',0.025,0.025,0.023,180.400,-0.407
'[11:00:29.570 11/05/1995]',0.025,0.002,0.045,180.400,-0.407
'[11:00:29.572 11/05/1995]',0.025,0.002,0.057,180.400,-0.407
'[11:00:29.574 11/05/1995]',0.032,0.002,0.057,180.400,-0.407
'[11:00:29.576 11/05/1995]',0.032,0.025,0.034,180.400,-0.388
'[11:00:29.578 11/05/1995]',0.025,0.025,0.012,180.400,-0.388
'[11:00:29.580 11/05/1995]',0.025,0.025,0.001,180.400,-0.388
'[11:00:29.582 11/05/1995]',0.025,0.025,0.001,180.400,-0.388
'[11:00:29.584 11/05/1995]',0.025,0.025,0.012,180.400,-0.362
'[11:00:29.586 11/05/1995]',0.025,0.002,0.034,180.400,-0.362
'[11:00:29.588 11/05/1995]',0.013,0.002,0.034,180.400,-0.362
'[11:00:29.590 11/05/1995]',0.013,0.002,0.045,180.400,-0.362
'[11:00:29.592 11/05/1995]',0.013,0.002,0.034,180.400,-0.329
'[11:00:29.594 11/05/1995]',0.013,0.025,0.012,180.400,-0.329
'[11:00:29.596 11/05/1995]',0.007,0.025,0.001,180.400,-0.329
'[11:00:29.598 11/05/1995]',0.001,0.025,-0.010,180.400,-0.329
'[11:00:29.600 11/05/1995]',0.001,0.002,0.001,180.400,-0.287
'[11:00:29.602 11/05/1995]',0.001,0.002,0.001,180.400,-0.287
'[11:00:29.604 11/05/1995]',0.007,0.002,0.023,180.400,-0.287
'[11:00:29.606 11/05/1995]',0.001,0.002,0.034,180.400,-0.287
'[11:00:29.608 11/05/1995]',0.001,0.002,0.023,180.400,-0.241
'[11:00:29.610 11/05/1995]',-0.006,0.002,0.001,180.400,-0.241
'[11:00:29.612 11/05/1995]',-0.006,0.002,-0.021,180.400,-0.241
'[11:00:29.614 11/05/1995]',-0.012,0.025,-0.033,180.400,-0.241
'[11:00:29.616 11/05/1995]',-0.012,0.002,-0.033,180.400,-0.188
'[11:00:29.618 11/05/1995]',-0.012,0.002,-0.010,180.400,-0.188
'[11:00:29.620 11/05/1995]',-0.006,0.002,0.001,180.400,-0.188
'[11:00:29.622 11/05/1995]',-0.006,0.002,0.012,180.400,-0.188
'[11:00:29.624 11/05/1995]',-0.006,0.002,0.012,180.400,-0.129
'[11:00:29.626 11/05/1995]',-0.012,0.002,0.001,180.400,-0.129
'[11:00:29.628 11/05/1995]',-0.012,0.002,-0.021,180.400,-0.129
'[11:00:29.630 11/05/1995]',-0.012,0.002,-0.033,180.400,-0.129
'[11:00:29.632 11/05/1995]',-0.012,0.002,-0.033,180.400,-0.067
'[11:00:29.634 11/05/1995]',-0.025,0.002,-0.021,180.400,-0.067
'[11:00:29.636 11/05/1995]',-0.012,0.002,0.001,180.400,-0.067
'[11:00:29.638 11/05/1995]',-0.025,0.002,0.012,180.400,-0.067
'[11:00:29.640 11/05/1995]',-0.012,0.002,0.012,180.400,-0.001
'[11:00:29.642 11/05/1995]',-0.012,0.002,0.001,180.400,-0.001
'[11:00:29.644 11/05/1995]',-0.012,0.002,-0.010,180.400,-0.001
'[11:00:29.646 11/05/1995]',-0.025,0.002,-0.033,180.400,-0.001
'[11:00:29.648 11/05/1995]',-0.025,0.002,-0.033,180.400,0.067
'[11:00:29.650 11/05/1995]',-0.012,0.002,-0.033,180.400,0.067
'[11:00:29.652 11/05/1995]',-0.012,0.002,-0.010,180.400,0.067
'[11:00:29.654 11/05/1995]',-0.012,0.002,0.001,180.400,0.067
'[11:00:29.656 11/05/1995]',-0.025,0.002,0.001,180.400,0.135
'[11:00:29.658 11/05/1995]',-0.025,0.002,0.001,180.400,0.135
'[11:00:29.660 11/05/1995]',-0.012,0.002,0.001,180.400,0.135
'[11:00:29.662 11/05/1995]',-0.025,0.002,-0.033,180.400,0.135
'[11:00:29.664 11/05/1995]',-0.025,0.025,-0.033,180.400,0.198
'[11:00:29.666 11/05/1995]',-0.025,0.002,-0.033,180.400,0.198
'[11:00:29.668 11/05/1995]',-0.025,0.002,-0.021,180.400,0.198
'[11:00:29.670 11/05/1995]',-0.025,0.002,0.001,180.400,0.198
'[11:00:29.672 11/05/1995]',-0.025,0.002,0.001,180.400,0.261
'[11:00:29.674 11/05/1995]',-0.025,0.002,0.001,180.400,0.261
'[11:00:29.676 11/05/1995]',-0.025,0.002,0.001,180.400,0.261
'[11:00:29.678 11/05/1995]',-0.025,0.002,-0.021,180.400,0.261
'[11:00:29.680 11/05/1995]',-0.025,0.025,-0.033,180.400,0.318
'[11:00:29.682 11/05/1995]',-0.025,0.025,-0.033,180.400,0.318
'[11:00:29.684 11/05/1995]',-0.031,0.002,-0.033,180.400,0.318
'[11:00:29.686 11/05/1995]',-0.025,0.002,0.001,180.400,0.318
'[11:00:29.688 11/05/1995]',-0.012,0.002,0.001,180.400,0.368
'[11:00:29.690 11/05/1995]',-0.012,0.002,0.001,180.400,0.368
'[11:00:29.692 11/05/1995]',-0.025,0.002,0.001,180.400,0.368
'[11:00:29.694 11/05/1995]',-0.031,0.002,-0.010,180.400,0.368
'[11:00:29.696 11/05/1995]',-0.025,0.002,-0.033,180.400,0.414
'[11:00:29.698 11/05/1995]',-0.031,0.025,-0.044,180.400,0.414
'[11:00:29.700 11/05/1995]',-0.025,0.002,-0.033,180.400,0.414
'[11:00:29.702 11/05/1995]',-0.025,0.002,-0.021,180.400,0.414
'[11:00:29.704 11/05/1995]',-0.025,0.002,0.001,180.400,0.452
'[11:00:29.706 11/05/1995]',-0.025,0.002,0.001,180.400,0.452
'[11:00:29.708 11/05/1995]',-0.025,0.002,0.001,180.400,0.452
'[11:00:29.710 11/05/1995]',-0.025,0.002,-0.010,180.400,0.452
'[11:00:29.712 11/05/1995]',-0.031,0.025,-0.033,180.400,0.482
'[11:00:29.714 11/05/1995]',-0.037,0.025,-0.055,180.400,0.482
'[11:00:29.716 11/05/1995]',-0.031,0.025,-0.044,180.400,0.482
'[11:00:29.718 11/05/1995]',-0.031,0.002,-0.033,180.400,0.482
'[11:00:29.720 11/05/1995]',-0.025,0.002,0.001,180.400,0.508
'[11:00:29.722 11/05/1995]',-0.025,0.002,0.001,180.400,0.508
'[11:00:29.724 11/05/1995]',-0.025,0.002,0.001,180.400,0.508
'[11:00:29.726 11/05/1995]',-0.031,0.002,-0.010,180.400,0.508
'[11:00:29.728 11/05/1995]',-0.037,0.002,-0.033,180.400,0.523
'[11:00:29.730 11/05/1995]',-0.037,0.025,-0.044,180.400,0.523
'[11:00:29.732 11/05/1995]',-0.037,0.025,-0.055,180.400,0.523
'[11:00:29.734 11/05/1995]',-0.031,0.002,-0.033,180.400,0.523
'[11:00:29.736 11/05/1995]',-0.031,0.002,-0.021,180.400,0.532
'[11:00:29.738 11/05/1995]',-0.031,0.002,0.001,180.400,0.532
'[11:00:29.740 11/05/1995]',-0.031,0.002,0.001,180.400,0.532
'[11:00:29.742 11/05/1995]',-0.031,0.002,-0.010,180.400,0.532
'[11:00:29.744 11/05/1995]',-0.025,0.002,-0.033,180.400,0.532
'[11:00:29.746 11/05/1995]',-0.031,0.025,-0.044,180.400,0.532
'[11:00:29.748 11/05/1995]',-0.025,0.025,-0.055,180.400,0.532
'[11:00:29.750 11/05/1995]',-0.031,0.025,-0.044,180.400,0.532
'[11:00:29.752 11/05/1995]',-0.031,0.002,-0.021,180.400,0.526
'[11:00:29.754 11/05/1995]',-0.025,0.002,0.001,180.400,0.526
'[11:00:29.756 11/05/1995]',-0.031,0.002,0.001,180.400,0.526
'[11:00:29.758 11/05/1995]',-0.031,0.002,-0.010,180.400,0.526
'[11:00:29.760 11/05/1995]',-0.031,0.002,-0.021,180.400,0.515
'[11:00:29.762 11/05/1995]',-0.031,0.025,-0.033,180.400,0.515
'[11:00:29.764 11/05/1995]',-0.037,0.025,-0.055,180.400,0.515
'[11:00:29.766 11/05/1995]',-0.037,0.025,-0.055,180.400,0.515
'[11:00:29.768 11/05/1995]',-0.031,0.002,-0.033,180.400,0.497
'[11:00:29.770 11/05/1995]',-0.031,0.002,-0.010,180.400,0.497
'[11:00:29.772 11/05/1995]',-0.031,0.002,0.001,180.400,0.497
'[11:00:29.774 11/05/1995]',-0.025,0.002,0.001,180.400,0.497
'[11:00:29.776 11/05/1995]',-0.031,0.002,-0.010,180.400,0.474
'[11:00:29.778 11/05/1995]',-0.031,0.025,-0.033,180.400,0.474
'[11:00:29.780 11/05/1995]',-0.031,0.025,-0.044,180.400,0.474
'[11:00:29.782 11/05/1995]',-0.025,0.025,-0.044,180.400,0.474
'[11:00:29.784 11/05/1995]',-0.025,0.002,-0.033,180.400,0.446
'[11:00:29.786 11/05/1995]',-0.025,0.002,-0.010,180.400,0.446
'[11:00:29.788 11/05/1995]',-0.025,0.002,0.001,180.400,0.446
'[11:00:29.790 11/05/1995]',-0.025,0.002,0.001,180.400,0.446
'[11:00:29.792 11/05/1995]',-0.031,0.002,0.001,180.400,0.413
'[11:00:29.794 11/05/1995]',-0.031,0.002,-0.021,180.400,0.413
'[11:00:29.796 11/05/1995]',-0.037,0.025,-0.044,180.400,0.413
'[11:00:29.798 11/05/1995]',-0.037,0.025,-0.055,180.400,0.413
'[11:00:29.800 11/05/1995]',-0.031,0.002,-0.033,180.400,0.378
'[11:00:29.802 11/05/1995]',-0.031,0.002,-0.021,180.400,0.378
'[11:00:29.804 11/05/1995]',-0.025,0.002,0.001,180.400,0.378
'[11:00:29.806 11/05/1995]',-0.025,0.002,0.001,180.400,0.378
'[11:00:29.808 11/05/1995]',-0.025,0.002,0.001,180.400,0.340
'[11:00:29.810 11/05/1995]',-0.025,0.002,-0.010,180.400,0.340
'[11:00:29.812 11/05/1995]',-0.031,0.002,-0.033,180.400,0.340
'[11:00:29.814 11/05/1995]',-0.025,0.002,-0.044,180.400,0.340
'[11:00:29.816 11/05/1995]',-0.025,0.002,-0.033,180.400,0.298
'[11:00:29.818 11/05/1995]',-0.025,0.002,-0.021,180.400,0.298
'[11:00:29.820 11/05/1995]',-0.012,0.002,0.001,180.400,0.298
'[11:00:29.822 11/05/1995]',-0.012,0.002,0.001,180.400,0.298
'[11:00:29.824 11/05/1995]',-0.012,0.002,0.001,180.400,0.259
'[11:00:29.826 11/05/1995]',-0.025,0.002,0.001,180.400,0.259
'[11:00:29.828 11/05/1995]',-0.025,0.002,-0.021,180.400,0.259
'[11:00:29.830 11/05/1995]',-0.025,0.002,-0.033,180.400,0.259
'[11:00:29.832 11/05/1995]',-0.025,0.002,-0.044,180.400,0.216
'[11:00:29.834 11/05/1995]',-0.025,0.002,-0.033,180.400,0.216
'[11:00:29.836 11/05/1995]',-0.012,0.002,0.001,180.400,0.216
'[11:00:29.838 11/05/1995]',-0.012,0.002,0.001,180.400,0.216
'[11:00:29.840 11/05/1995]',-0.012,0.002,0.001,180.400,0.175
'[11:00:29.842 11/05/1995]',-0.012,0.002,0.001,180.400,0.175
'[11:00:29.844 11/05/1995]',-0.025,0.002,-0.010,180.400,0.175
'[11:00:29.846 11/05/1995]',-0.012,0.002,-0.033,180.400,0.175
'[11:00:29.848 11/05/1995]',-0.012,0.002,-0.044,180.400,0.134
'[11:00:29.850 11/05/1995]',-0.012,0.002,-0.033,180.400,0.134
'[11:00:29.852 11/05/1995]',-0.012,0.002,-0.010,180.400,0.134
'[11:00:29.854 11/05/1995]',-0.006,0.002,0.001,180.400,0.134
'[11:00:29.856 11/05/1995]',-0.006,0.002,0.012,180.400,0.095
'[11:00:29.858 11/05/1995]',0.001,0.002,0.001,180.400,0.095
'[11:00:29.860 11/05/1995]',-0.012,0.002,-0.010,180.400,0.095
'[11:00:29.862 11/05/1995]',-0.012,0.002,-0.033,180.400,0.095
'[11:00:29.864 11/05/1995]',-0.012,0.002,-0.033,180.400,0.054
'[11:00:29.866 11/05/1995]',-0.012,0.002,-0.033,180.400,0.054
