'Time and date','MCL1 ','II ','V ','ABP ','PLETH '
'hh:mm:ss.mmm dd/mm/yyyy','mV','mV','mV','mmHg','mV'
'[13:41:09.000 12/05/1995]',-0.029,-0.064,-0.011,75.602,0.118
'[13:41:09.002 12/05/1995]',-0.023,-0.048,-0.005,75.602,0.118
'[13:41:09.004 12/05/1995]',-0.023,-0.064,-0.023,75.602,0.118
'[13:41:09.006 12/05/1995]',-0.023,-0.031,-0.023,75.602,0.118
'[13:41:09.008 12/05/1995]',-0.029,-0.015,-0.029,75.002,0.118
'[13:41:09.010 12/05/1995]',-0.029,0.001,-0.035,75.002,0.118
'[13:41:09.012 12/05/1995]',-0.035,0.034,-0.029,75.002,0.118
'[13:41:09.014 12/05/1995]',-0.029,0.099,-0.005,75.002,0.118
'[13:41:09.016 12/05/1995]',-0.035,0.148,-0.005,74.477,0.123
'[13:41:09.018 12/05/1995]',-0.047,0.148,-0.011,74.477,0.123
'[13:41:09.020 12/05/1995]',-0.053,0.115,-0.029,74.477,0.123
'[13:41:09.022 12/05/1995]',-0.047,0.099,-0.035,74.477,0.123
'[13:41:09.024 12/05/1995]',-0.053,0.099,-0.046,74.027,0.114
'[13:41:09.026 12/05/1995]',-0.053,0.066,-0.064,74.027,0.114
'[13:41:09.028 12/05/1995]',-0.053,0.066,-0.070,74.027,0.114
'[13:41:09.030 12/05/1995]',-0.053,0.034,-0.052,74.027,0.114
'[13:41:09.032 12/05/1995]',-0.047,0.017,-0.052,73.577,0.108
'[13:41:09.034 12/05/1995]',-0.035,0.001,-0.046,73.577,0.108
'[13:41:09.036 12/05/1995]',-0.029,0.017,-0.035,73.577,0.108
'[13:41:09.038 12/05/1995]',-0.035,0.034,-0.029,73.577,0.108
'[13:41:09.040 12/05/1995]',-0.047,0.050,-0.029,73.127,0.083
'[13:41:09.042 12/05/1995]',-0.053,0.034,-0.029,73.127,0.083
'[13:41:09.044 12/05/1995]',-0.065,0.034,-0.035,73.127,0.083
'[13:41:09.046 12/05/1995]',-0.065,0.017,-0.046,73.127,0.083
'[13:41:09.048 12/05/1995]',-0.071,0.017,-0.046,72.677,0.067
'[13:41:09.050 12/05/1995]',-0.071,0.017,-0.052,72.677,0.067
'[13:41:09.052 12/05/1995]',-0.088,0.034,-0.064,72.677,0.067
'[13:41:09.054 12/05/1995]',-0.094,0.050,-0.064,72.677,0.067
'[13:41:09.056 12/05/1995]',-0.094,0.050,-0.070,72.227,0.046
'[13:41:09.058 12/05/1995]',-0.088,0.083,-0.064,72.227,0.046
'[13:41:09.060 12/05/1995]',-0.088,0.099,-0.064,72.227,0.046
'[13:41:09.062 12/05/1995]',-0.088,0.115,-0.064,72.227,0.046
'[13:41:09.064 12/05/1995]',-0.088,0.148,-0.064,71.927,0.021
'[13:41:09.066 12/05/1995]',-0.088,0.148,-0.064,71.927,0.021
'[13:41:09.068 12/05/1995]',-0.088,0.132,-0.064,71.927,0.021
'[13:41:09.070 12/05/1995]',-0.077,0.115,-0.070,71.927,0.021
'[13:41:09.072 12/05/1995]',-0.077,0.099,-0.064,71.552,0.005
'[13:41:09.074 12/05/1995]',-0.088,0.099,-0.070,71.552,0.005
'[13:41:09.076 12/05/1995]',-0.088,0.083,-0.076,71.552,0.005
'[13:41:09.078 12/05/1995]',-0.077,0.066,-0.076,71.552,0.005
'[13:41:09.080 12/05/1995]',-0.088,0.050,-0.087,71.177,-0.021
'[13:41:09.082 12/05/1995]',-0.088,0.034,-0.087,71.177,-0.021
'[13:41:09.084 12/05/1995]',-0.077,0.034,-0.093,71.177,-0.021
'[13:41:09.086 12/05/1995]',-0.077,0.034,-0.087,71.177,-0.021
'[13:41:09.088 12/05/1995]',-0.071,0.034,-0.087,70.952,-0.042
'[13:41:09.090 12/05/1995]',-0.071,0.034,-0.087,70.952,-0.042
'[13:41:09.092 12/05/1995]',-0.065,0.050,-0.076,70.952,-0.042
'[13:41:09.094 12/05/1995]',-0.047,0.050,-0.070,70.952,-0.042
'[13:41:09.096 12/05/1995]',-0.047,0.066,-0.064,70.727,-0.057
'[13:41:09.098 12/05/1995]',-0.035,0.115,-0.035,70.727,-0.057
'[13:41:09.100 12/05/1995]',-0.047,0.197,-0.011,70.727,-0.057
'[13:41:09.102 12/05/1995]',-0.047,0.246,0.001,70.727,-0.057
'[13:41:09.104 12/05/1995]',-0.047,0.230,0.001,70.502,-0.083
'[13:41:09.106 12/05/1995]',-0.047,0.197,-0.005,70.502,-0.083
'[13:41:09.108 12/05/1995]',-0.035,0.148,-0.023,70.502,-0.083
'[13:41:09.110 12/05/1995]',-0.035,0.083,-0.029,70.502,-0.083
'[13:41:09.112 12/05/1995]',-0.029,0.034,-0.046,70.427,-0.103
'[13:41:09.114 12/05/1995]',-0.029,0.001,-0.046,70.427,-0.103
'[13:41:09.116 12/05/1995]',-0.023,0.001,-0.046,70.427,-0.103
'[13:41:09.118 12/05/1995]',-0.011,-0.015,-0.035,70.427,-0.103
'[13:41:09.120 12/05/1995]',-0.011,0.001,-0.023,70.427,-0.108
'[13:41:09.122 12/05/1995]',-0.011,0.017,-0.023,70.427,-0.108
'[13:41:09.124 12/05/1995]',-0.011,0.050,-0.011,70.427,-0.108
'[13:41:09.126 12/05/1995]',-0.029,0.083,-0.011,70.427,-0.108
'[13:41:09.128 12/05/1995]',-0.035,0.115,-0.011,70.577,-0.124
'[13:41:09.130 12/05/1995]',-0.035,0.099,-0.029,70.577,-0.124
'[13:41:09.132 12/05/1995]',-0.047,0.034,-0.046,70.577,-0.124
'[13:41:09.134 12/05/1995]',-0.053,0.001,-0.064,70.577,-0.124
'[13:41:09.136 12/05/1995]',-0.047,-0.015,-0.070,70.802,-0.134
'[13:41:09.138 12/05/1995]',-0.047,-0.015,-0.064,70.802,-0.134
'[13:41:09.140 12/05/1995]',-0.035,0.001,-0.064,70.802,-0.134
'[13:41:09.142 12/05/1995]',-0.035,0.001,-0.064,70.802,-0.134
'[13:41:09.144 12/05/1995]',-0.035,0.001,-0.064,71.027,-0.149
'[13:41:09.146 12/05/1995]',-0.035,0.001,-0.052,71.027,-0.149
'[13:41:09.148 12/05/1995]',-0.029,0.001,-0.052,71.027,-0.149
'[13:41:09.150 12/05/1995]',-0.023,-0.015,-0.052,71.027,-0.149
'[13:41:09.152 12/05/1995]',-0.023,-0.015,-0.046,71.327,-0.165
'[13:41:09.154 12/05/1995]',-0.029,-0.015,-0.035,71.327,-0.165
'[13:41:09.156 12/05/1995]',-0.029,0.001,-0.029,71.327,-0.165
'[13:41:09.158 12/05/1995]',-0.023,0.001,-0.023,71.327,-0.165
'[13:41:09.160 12/05/1995]',-0.011,0.001,-0.011,71.627,-0.180
'[13:41:09.162 12/05/1995]',-0.005,0.001,-0.005,71.627,-0.180
'[13:41:09.164 12/05/1995]',0.006,0.001,0.006,71.627,-0.180
'[13:41:09.166 12/05/1995]',0.036,0.001,0.030,71.627,-0.180
'[13:41:09.168 12/05/1995]',0.089,-0.015,0.065,71.852,-0.202
'[13:41:09.170 12/05/1995]',0.119,-0.031,0.094,71.852,-0.202
'[13:41:09.172 12/05/1995]',0.166,-0.031,0.141,71.852,-0.202
'[13:41:09.174 12/05/1995]',0.219,-0.048,0.193,71.852,-0.202
'[13:41:09.176 12/05/1995]',0.261,-0.031,0.223,72.077,-0.227
'[13:41:09.178 12/05/1995]',0.273,-0.015,0.240,72.077,-0.227
'[13:41:09.180 12/05/1995]',0.284,0.017,0.240,72.077,-0.227
'[13:41:09.182 12/05/1995]',0.284,0.050,0.229,72.077,-0.227
'[13:41:09.184 12/05/1995]',0.296,0.099,0.223,72.227,-0.237
'[13:41:09.186 12/05/1995]',0.273,0.148,0.193,72.227,-0.237
'[13:41:09.188 12/05/1995]',0.231,0.214,0.135,72.227,-0.237
'[13:41:09.190 12/05/1995]',0.184,0.295,0.071,72.227,-0.237
'[13:41:09.192 12/05/1995]',0.143,0.361,0.012,72.227,-0.129
'[13:41:09.194 12/05/1995]',0.131,0.377,-0.005,72.227,-0.129
'[13:41:09.196 12/05/1995]',0.131,0.328,-0.011,72.227,-0.129
'[13:41:09.198 12/05/1995]',0.137,0.230,-0.005,72.227,-0.129
'[13:41:09.200 12/05/1995]',0.137,0.083,0.006,72.152,-0.103
'[13:41:09.202 12/05/1995]',0.131,-0.080,0.047,72.152,-0.103
'[13:41:09.204 12/05/1995]',0.137,-0.244,0.088,72.152,-0.103
'[13:41:09.206 12/05/1995]',0.137,-0.358,0.117,72.152,-0.103
'[13:41:09.208 12/05/1995]',0.131,-0.440,0.117,71.927,-0.025
'[13:41:09.210 12/05/1995]',0.095,-0.489,0.100,71.927,-0.025
'[13:41:09.212 12/05/1995]',0.048,-0.505,0.071,71.927,-0.025
'[13:41:09.214 12/05/1995]',0.006,-0.522,0.035,71.927,-0.025
'[13:41:09.216 12/05/1995]',-0.011,-0.505,0.012,71.702,0.129
'[13:41:09.218 12/05/1995]',-0.029,-0.472,0.001,71.702,0.129
'[13:41:09.220 12/05/1995]',-0.035,-0.424,0.001,71.702,0.129
'[13:41:09.222 12/05/1995]',-0.035,-0.358,-0.005,71.702,0.129
'[13:41:09.224 12/05/1995]',-0.047,-0.293,-0.011,71.327,0.377
'[13:41:09.226 12/05/1995]',-0.065,-0.228,-0.035,71.327,0.377
'[13:41:09.228 12/05/1995]',-0.077,-0.146,-0.070,71.327,0.377
'[13:41:09.230 12/05/1995]',-0.094,-0.080,-0.087,71.327,0.377
'[13:41:09.232 12/05/1995]',-0.094,-0.031,-0.087,71.027,0.727
'[13:41:09.234 12/05/1995]',-0.094,0.001,-0.087,71.027,0.727
'[13:41:09.236 12/05/1995]',-0.088,0.001,-0.076,71.027,0.727
'[13:41:09.238 12/05/1995]',-0.077,0.017,-0.076,71.027,0.727
'[13:41:09.240 12/05/1995]',-0.077,0.017,-0.070,70.727,1.024
'[13:41:09.242 12/05/1995]',-0.077,0.017,-0.070,70.727,1.024
'[13:41:09.244 12/05/1995]',-0.071,0.017,-0.070,70.727,1.024
'[13:41:09.246 12/05/1995]',-0.071,0.017,-0.064,70.727,1.024
'[13:41:09.248 12/05/1995]',-0.077,0.017,-0.064,70.352,1.024
'[13:41:09.250 12/05/1995]',-0.071,0.017,-0.070,70.352,1.024
'[13:41:09.252 12/05/1995]',-0.071,0.017,-0.052,70.352,1.024
'[13:41:09.254 12/05/1995]',-0.065,0.017,-0.052,70.352,1.024
'[13:41:09.256 12/05/1995]',-0.065,0.017,-0.052,69.902,1.024
'[13:41:09.258 12/05/1995]',-0.065,0.017,-0.064,69.902,1.024
'[13:41:09.260 12/05/1995]',-0.065,0.017,-0.064,69.902,1.024
'[13:41:09.262 12/05/1995]',-0.065,0.017,-0.070,69.902,1.024
'[13:41:09.264 12/05/1995]',-0.071,0.017,-0.070,69.527,1.024
'[13:41:09.266 12/05/1995]',-0.053,0.017,-0.052,69.527,1.024
'[13:41:09.268 12/05/1995]',-0.053,0.017,-0.052,69.527,1.024
'[13:41:09.270 12/05/1995]',-0.053,0.017,-0.052,69.527,1.024
'[13:41:09.272 12/05/1995]',-0.053,0.017,-0.052,69.152,1.024
'[13:41:09.274 12/05/1995]',-0.053,0.017,-0.052,69.152,1.024
'[13:41:09.276 12/05/1995]',-0.065,0.034,-0.064,69.152,1.024
'[13:41:09.278 12/05/1995]',-0.065,0.034,-0.064,69.152,1.024
'[13:41:09.280 12/05/1995]',-0.065,0.034,-0.064,68.777,1.024
'[13:41:09.282 12/05/1995]',-0.071,0.034,-0.064,68.777,1.024
'[13:41:09.284 12/05/1995]',-0.065,0.050,-0.064,68.777,1.024
'[13:41:09.286 12/05/1995]',-0.053,0.050,-0.052,68.777,1.024
'[13:41:09.288 12/05/1995]',-0.053,0.050,-0.046,68.327,1.024
'[13:41:09.290 12/05/1995]',-0.053,0.050,-0.052,68.327,1.024
'[13:41:09.292 12/05/1995]',-0.053,0.050,-0.052,68.327,1.024
'[13:41:09.294 12/05/1995]',-0.047,0.034,-0.052,68.327,1.024
'[13:41:09.296 12/05/1995]',-0.053,0.034,-0.070,68.027,1.024
'[13:41:09.298 12/05/1995]',-0.053,0.034,-0.070,68.027,1.024
'[13:41:09.300 12/05/1995]',-0.053,0.034,-0.070,68.027,1.024
'[13:41:09.302 12/05/1995]',-0.053,0.034,-0.064,68.027,1.024
'[13:41:09.304 12/05/1995]',-0.053,0.034,-0.052,67.577,1.024
'[13:41:09.306 12/05/1995]',-0.053,0.050,-0.064,67.577,1.024
'[13:41:09.308 12/05/1995]',-0.053,0.050,-0.064,67.577,1.024
'[13:41:09.310 12/05/1995]',-0.053,0.050,-0.070,67.577,1.024
'[13:41:09.312 12/05/1995]',-0.047,0.050,-0.064,67.127,1.024
'[13:41:09.314 12/05/1995]',-0.053,0.066,-0.064,67.127,1.024
'[13:41:09.316 12/05/1995]',-0.047,0.066,-0.064,67.127,1.024
'[13:41:09.318 12/05/1995]',-0.053,0.050,-0.064,67.127,1.024
'[13:41:09.320 12/05/1995]',-0.047,0.050,-0.064,66.752,1.024
'[13:41:09.322 12/05/1995]',-0.047,0.050,-0.064,66.752,1.024
'[13:41:09.324 12/05/1995]',-0.047,0.050,-0.070,66.752,1.024
'[13:41:09.326 12/05/1995]',-0.047,0.050,-0.070,66.752,1.024
'[13:41:09.328 12/05/1995]',-0.047,0.050,-0.070,66.377,1.024
'[13:41:09.330 12/05/1995]',-0.047,0.050,-0.070,66.377,1.024
'[13:41:09.332 12/05/1995]',-0.047,0.034,-0.070,66.377,1.024
'[13:41:09.334 12/05/1995]',-0.047,0.034,-0.070,66.377,1.024
'[13:41:09.336 12/05/1995]',-0.047,0.050,-0.070,65.927,1.024
'[13:41:09.338 12/05/1995]',-0.035,0.050,-0.064,65.927,1.024
'[13:41:09.340 12/05/1995]',-0.047,0.034,-0.064,65.927,1.024
'[13:41:09.342 12/05/1995]',-0.035,0.034,-0.064,65.927,1.024
'[13:41:09.344 12/05/1995]',-0.047,0.050,-0.064,65.627,1.024
'[13:41:09.346 12/05/1995]',-0.047,0.050,-0.070,65.627,1.024
'[13:41:09.348 12/05/1995]',-0.047,0.050,-0.064,65.627,1.024
'[13:41:09.350 12/05/1995]',-0.047,0.050,-0.064,65.627,1.024
'[13:41:09.352 12/05/1995]',-0.047,0.050,-0.064,65.477,1.024
'[13:41:09.354 12/05/1995]',-0.047,0.050,-0.052,65.477,1.024
'[13:41:09.356 12/05/1995]',-0.035,0.050,-0.052,65.477,1.024
'[13:41:09.358 12/05/1995]',-0.047,0.050,-0.052,65.477,1.024
'[13:41:09.360 12/05/1995]',-0.047,0.050,-0.064,65.702,1.024
'[13:41:09.362 12/05/1995]',-0.047,0.066,-0.064,65.702,1.024
'[13:41:09.364 12/05/1995]',-0.047,0.066,-0.064,65.702,1.024
'[13:41:09.366 12/05/1995]',-0.047,0.066,-0.070,65.702,1.024
'[13:41:09.368 12/05/1995]',-0.047,0.066,-0.064,66.677,1.024
'[13:41:09.370 12/05/1995]',-0.047,0.050,-0.052,66.677,1.024
'[13:41:09.372 12/05/1995]',-0.047,0.050,-0.052,66.677,1.024
'[13:41:09.374 12/05/1995]',-0.047,0.050,-0.052,66.677,1.024
'[13:41:09.376 12/05/1995]',-0.047,0.066,-0.064,68.852,1.024
'[13:41:09.378 12/05/1995]',-0.047,0.066,-0.052,68.852,1.024
'[13:41:09.380 12/05/1995]',-0.047,0.066,-0.064,68.852,1.024
'[13:41:09.382 12/05/1995]',-0.035,0.066,-0.052,68.852,1.024
'[13:41:09.384 12/05/1995]',-0.035,0.066,-0.052,73.277,1.024
'[13:41:09.386 12/05/1995]',-0.035,0.066,-0.052,73.277,1.024
'[13:41:09.388 12/05/1995]',-0.035,0.066,-0.046,73.277,1.024
'[13:41:09.390 12/05/1995]',-0.035,0.066,-0.052,73.277,1.024
'[13:41:09.392 12/05/1995]',-0.035,0.066,-0.046,80.027,1.024
'[13:41:09.394 12/05/1995]',-0.029,0.066,-0.052,80.027,1.024
'[13:41:09.396 12/05/1995]',-0.029,0.066,-0.046,80.027,1.024
'[13:41:09.398 12/05/1995]',-0.035,0.066,-0.046,80.027,1.024
'[13:41:09.400 12/05/1995]',-0.035,0.066,-0.046,88.427,1.024
'[13:41:09.402 12/05/1995]',-0.035,0.066,-0.035,88.427,1.024
'[13:41:09.404 12/05/1995]',-0.029,0.050,-0.046,88.427,1.024
'[13:41:09.406 12/05/1995]',-0.029,0.050,-0.035,88.427,1.024
'[13:41:09.408 12/05/1995]',-0.023,0.050,-0.035,97.127,1.024
'[13:41:09.410 12/05/1995]',-0.023,0.050,-0.029,97.127,1.024
'[13:41:09.412 12/05/1995]',-0.023,0.050,-0.035,97.127,1.024
'[13:41:09.414 12/05/1995]',-0.023,0.050,-0.029,97.127,1.024
'[13:41:09.416 12/05/1995]',-0.023,0.050,-0.029,104.853,1.024
'[13:41:09.418 12/05/1995]',-0.023,0.050,-0.029,104.853,1.024
'[13:41:09.420 12/05/1995]',-0.023,0.050,-0.023,104.853,1.024
'[13:41:09.422 12/05/1995]',-0.011,0.050,-0.023,104.853,1.024
'[13:41:09.424 12/05/1995]',-0.011,0.050,-0.023,111.378,1.024
'[13:41:09.426 12/05/1995]',-0.011,0.050,-0.023,111.378,1.024
'[13:41:09.428 12/05/1995]',-0.011,0.050,-0.023,111.378,1.024
'[13:41:09.430 12/05/1995]',-0.005,0.050,-0.023,111.378,1.024
'[13:41:09.432 12/05/1995]',-0.005,0.050,-0.023,116.703,1.024
'[13:41:09.434 12/05/1995]',-0.005,0.050,-0.011,116.703,1.024
'[13:41:09.436 12/05/1995]',-0.005,0.034,-0.011,116.703,1.024
'[13:41:09.438 12/05/1995]',-0.005,0.034,-0.005,116.703,1.024
'[13:41:09.440 12/05/1995]',0.001,0.050,-0.005,120.828,1.024
'[13:41:09.442 12/05/1995]',-0.005,0.050,-0.005,120.828,1.024
'[13:41:09.444 12/05/1995]',0.001,0.066,0.001,120.828,1.024
'[13:41:09.446 12/05/1995]',0.001,0.083,0.006,120.828,1.024
'[13:41:09.448 12/05/1995]',0.001,0.099,0.012,123.753,1.024
'[13:41:09.450 12/05/1995]',0.001,0.099,0.006,123.753,1.024
'[13:41:09.452 12/05/1995]',0.001,0.083,0.012,123.753,1.024
'[13:41:09.454 12/05/1995]',0.001,0.066,0.012,123.753,1.024
'[13:41:09.456 12/05/1995]',0.001,0.066,0.012,125.628,1.024
'[13:41:09.458 12/05/1995]',0.001,0.066,0.024,125.628,1.024
'[13:41:09.460 12/05/1995]',0.006,0.050,0.012,125.628,1.024
'[13:41:09.462 12/05/1995]',0.012,0.034,0.006,125.628,1.024
'[13:41:09.464 12/05/1995]',0.012,0.017,0.006,126.903,1.024
'[13:41:09.466 12/05/1995]',0.012,0.017,0.006,126.903,1.024
'[13:41:09.468 12/05/1995]',0.012,0.017,0.012,126.903,1.024
'[13:41:09.470 12/05/1995]',0.006,0.017,0.012,126.903,1.024
'[13:41:09.472 12/05/1995]',0.024,0.017,0.024,127.803,1.024
'[13:41:09.474 12/05/1995]',0.012,0.001,0.012,127.803,1.024
'[13:41:09.476 12/05/1995]',0.024,0.001,0.012,127.803,1.024
'[13:41:09.478 12/05/1995]',0.024,-0.015,0.006,127.803,1.024
'[13:41:09.480 12/05/1995]',0.024,-0.015,0.012,128.253,1.024
'[13:41:09.482 12/05/1995]',0.030,-0.015,0.012,128.253,1.024
'[13:41:09.484 12/05/1995]',0.024,-0.015,0.012,128.253,1.024
'[13:41:09.486 12/05/1995]',0.024,-0.015,0.012,128.253,1.024
'[13:41:09.488 12/05/1995]',0.024,0.001,0.012,128.403,1.024
'[13:41:09.490 12/05/1995]',0.012,0.001,0.012,128.403,1.024
'[13:41:09.492 12/05/1995]',0.024,0.001,0.012,128.403,1.024
'[13:41:09.494 12/05/1995]',0.012,0.001,0.012,128.403,1.024
'[13:41:09.496 12/05/1995]',0.024,0.017,0.012,128.103,1.024
'[13:41:09.498 12/05/1995]',0.024,0.001,0.012,128.103,1.024
'[13:41:09.500 12/05/1995]',0.012,0.001,0.012,128.103,1.024
'[13:41:09.502 12/05/1995]',0.012,0.001,0.012,128.103,1.024
'[13:41:09.504 12/05/1995]',0.012,0.001,0.012,127.653,1.024
'[13:41:09.506 12/05/1995]',0.012,0.001,0.012,127.653,1.024
'[13:41:09.508 12/05/1995]',0.012,0.001,0.012,127.653,1.024
'[13:41:09.510 12/05/1995]',0.012,0.001,0.012,127.653,1.024
'[13:41:09.512 12/05/1995]',0.012,0.001,0.006,126.753,-0.077
'[13:41:09.514 12/05/1995]',0.006,0.001,0.006,126.753,-0.077
'[13:41:09.516 12/05/1995]',0.024,0.001,0.006,126.753,-0.077
'[13:41:09.518 12/05/1995]',0.012,0.001,0.006,126.753,-0.077
'[13:41:09.520 12/05/1995]',0.006,0.001,0.006,125.703,-
'[13:41:09.522 12/05/1995]',0.012,0.001,0.006,125.703,-
'[13:41:09.524 12/05/1995]',0.012,0.001,0.006,125.703,-
'[13:41:09.526 12/05/1995]',0.006,0.001,0.006,125.703,-
'[13:41:09.528 12/05/1995]',0.006,0.001,0.006,124.503,-
'[13:41:09.530 12/05/1995]',0.006,0.001,0.006,124.503,-
'[13:41:09.532 12/05/1995]',0.001,0.001,0.001,124.503,-
'[13:41:09.534 12/05/1995]',0.001,0.001,0.001,124.503,-
'[13:41:09.536 12/05/1995]',0.001,0.001,0.001,123.153,-
'[13:41:09.538 12/05/1995]',0.001,0.001,0.001,123.153,-
'[13:41:09.540 12/05/1995]',0.001,0.001,0.001,123.153,-
'[13:41:09.542 12/05/1995]',0.001,0.001,0.001,123.153,-
'[13:41:09.544 12/05/1995]',-0.005,0.001,0.001,121.428,-
'[13:41:09.546 12/05/1995]',0.001,0.001,-0.005,121.428,-
'[13:41:09.548 12/05/1995]',0.001,0.001,-0.005,121.428,-
'[13:41:09.550 12/05/1995]',0.001,0.001,0.001,121.428,-
'[13:41:09.552 12/05/1995]',-0.005,0.017,0.001,119.553,-
'[13:41:09.554 12/05/1995]',0.001,0.034,0.006,119.553,-
'[13:41:09.556 12/05/1995]',-0.005,0.034,0.006,119.553,-
'[13:41:09.558 12/05/1995]',-0.005,0.034,0.006,119.553,-
'[13:41:09.560 12/05/1995]',0.001,0.034,0.006,117.453,-
'[13:41:09.562 12/05/1995]',-0.005,0.017,-0.005,117.453,-
'[13:41:09.564 12/05/1995]',-0.005,0.017,0.001,117.453,-
'[13:41:09.566 12/05/1995]',-0.005,0.017,-0.005,117.453,-
'[13:41:09.568 12/05/1995]',0.001,0.001,-0.005,115.053,-
'[13:41:09.570 12/05/1995]',-0.005,-0.015,-0.005,115.053,-
'[13:41:09.572 12/05/1995]',0.001,-0.015,-0.005,115.053,-
'[13:41:09.574 12/05/1995]',-0.005,-0.015,-0.005,115.053,-
'[13:41:09.576 12/05/1995]',-0.005,-0.015,-0.005,112.353,-
'[13:41:09.578 12/05/1995]',-0.005,-0.015,-0.011,112.353,-
'[13:41:09.580 12/05/1995]',-0.005,-0.015,-0.011,112.353,-
'[13:41:09.582 12/05/1995]',-0.005,-0.015,-0.011,112.353,-
'[13:41:09.584 12/05/1995]',-0.005,-0.015,-0.005,109.203,-
'[13:41:09.586 12/05/1995]',-0.005,-0.015,-0.005,109.203,-
'[13:41:09.588 12/05/1995]',-0.005,-0.015,-0.005,109.203,-
'[13:41:09.590 12/05/1995]',-0.005,-0.015,-0.005,109.203,-
'[13:41:09.592 12/05/1995]',-0.005,0.001,-0.005,105.528,-
'[13:41:09.594 12/05/1995]',-0.005,0.001,-0.005,105.528,-
'[13:41:09.596 12/05/1995]',-0.005,0.001,-0.011,105.528,-
'[13:41:09.598 12/05/1995]',-0.005,0.001,-0.011,105.528,-
'[13:41:09.600 12/05/1995]',-0.005,0.001,-0.005,101.553,-
'[13:41:09.602 12/05/1995]',-0.005,0.001,-0.005,101.553,-
'[13:41:09.604 12/05/1995]',-0.005,0.001,-0.005,101.553,-
'[13:41:09.606 12/05/1995]',-0.005,0.001,-0.005,101.553,-
'[13:41:09.608 12/05/1995]',-0.005,0.001,-0.005,97.727,-
'[13:41:09.610 12/05/1995]',-0.011,0.001,-0.011,97.727,-
'[13:41:09.612 12/05/1995]',-0.011,0.001,-0.011,97.727,-
'[13:41:09.614 12/05/1995]',-0.011,0.001,-0.005,97.727,-
'[13:41:09.616 12/05/1995]',-0.005,0.001,-0.005,94.352,-
'[13:41:09.618 12/05/1995]',-0.005,0.001,-0.005,94.352,-
'[13:41:09.620 12/05/1995]',-0.005,0.001,-0.005,94.352,-
'[13:41:09.622 12/05/1995]',-0.011,0.001,-0.005,94.352,-
'[13:41:09.624 12/05/1995]',-0.011,0.001,-0.005,91.877,-
'[13:41:09.626 12/05/1995]',-0.011,0.017,-0.005,91.877,-
'[13:41:09.628 12/05/1995]',-0.011,0.017,-0.011,91.877,-
'[13:41:09.630 12/05/1995]',-0.011,0.017,-0.011,91.877,-
'[13:41:09.632 12/05/1995]',-0.011,0.017,-0.005,90.302,-
'[13:41:09.634 12/05/1995]',-0.023,0.001,-0.011,90.302,-
'[13:41:09.636 12/05/1995]',-0.011,0.001,-0.011,90.302,-
'[13:41:09.638 12/05/1995]',-0.023,0.001,-0.011,90.302,-
'[13:41:09.640 12/05/1995]',-0.011,0.001,-0.011,89.327,-
'[13:41:09.642 12/05/1995]',-0.011,0.001,-0.011,89.327,-
'[13:41:09.644 12/05/1995]',-0.011,0.001,-0.011,89.327,-
'[13:41:09.646 12/05/1995]',-0.011,0.001,-0.023,89.327,-
'[13:41:09.648 12/05/1995]',-0.023,0.001,-0.023,88.577,-
'[13:41:09.650 12/05/1995]',-0.011,0.001,-0.023,88.577,-
'[13:41:09.652 12/05/1995]',-0.011,0.001,-0.011,88.577,-
'[13:41:09.654 12/05/1995]',-0.011,0.001,-0.011,88.577,-
'[13:41:09.656 12/05/1995]',-0.011,0.001,-0.011,87.902,-
'[13:41:09.658 12/05/1995]',-0.011,0.001,-0.011,87.902,-
'[13:41:09.660 12/05/1995]',-0.011,0.001,-0.023,87.902,-
'[13:41:09.662 12/05/1995]',-0.023,0.001,-0.023,87.902,-
'[13:41:09.664 12/05/1995]',-0.011,0.001,-0.023,87.302,-
'[13:41:09.666 12/05/1995]',-0.011,0.001,-0.023,87.302,-
'[13:41:09.668 12/05/1995]',-0.023,0.001,-0.023,87.302,-
'[13:41:09.670 12/05/1995]',-0.023,0.001,-0.023,87.302,-
'[13:41:09.672 12/05/1995]',-0.011,0.001,-0.011,86.852,-
'[13:41:09.674 12/05/1995]',-0.023,0.001,-0.011,86.852,-
'[13:41:09.676 12/05/1995]',-0.023,0.001,-0.023,86.852,-
'[13:41:09.678 12/05/1995]',-0.023,0.001,-0.023,86.852,-
'[13:41:09.680 12/05/1995]',-0.023,0.001,-0.023,86.477,-
'[13:41:09.682 12/05/1995]',-0.023,0.001,-0.023,86.477,-
'[13:41:09.684 12/05/1995]',-0.023,0.001,-0.023,86.477,-
'[13:41:09.686 12/05/1995]',-0.023,0.001,-0.023,86.477,-
'[13:41:09.688 12/05/1995]',-0.011,0.001,-0.023,85.952,-
'[13:41:09.690 12/05/1995]',-0.023,0.001,-0.011,85.952,-
'[13:41:09.692 12/05/1995]',-0.023,0.001,-0.023,85.952,-
'[13:41:09.694 12/05/1995]',-0.023,0.017,-0.023,85.952,-
'[13:41:09.696 12/05/1995]',-0.011,0.017,-0.011,85.577,-
'[13:41:09.698 12/05/1995]',-0.023,0.017,-0.011,85.577,-
'[13:41:09.700 12/05/1995]',-0.023,0.017,-0.023,85.577,-
'[13:41:09.702 12/05/1995]',-0.023,0.017,-0.011,85.577,-
'[13:41:09.704 12/05/1995]',-0.023,0.001,-0.011,85.127,-
'[13:41:09.706 12/05/1995]',-0.023,0.001,-0.023,85.127,-
'[13:41:09.708 12/05/1995]',-0.023,0.001,-0.023,85.127,-
'[13:41:09.710 12/05/1995]',-0.023,0.001,-0.023,85.127,-
'[13:41:09.712 12/05/1995]',-0.011,0.001,-0.023,84.527,-
'[13:41:09.714 12/05/1995]',-0.011,0.001,-0.023,84.527,-
'[13:41:09.716 12/05/1995]',-0.023,0.001,-0.023,84.527,-
'[13:41:09.718 12/05/1995]',-0.023,0.001,-0.023,84.527,-
'[13:41:09.720 12/05/1995]',-0.023,-0.015,-0.011,84.077,-
'[13:41:09.722 12/05/1995]',-0.023,0.001,-0.011,84.077,-
'[13:41:09.724 12/05/1995]',-0.023,0.001,-0.023,84.077,-
'[13:41:09.726 12/05/1995]',-0.023,-0.015,-0.023,84.077,-
'[13:41:09.728 12/05/1995]',-0.023,0.001,-0.023,83.477,-
'[13:41:09.730 12/05/1995]',-0.011,0.001,-0.023,83.477,-
'[13:41:09.732 12/05/1995]',-0.023,0.001,-0.023,83.477,-
'[13:41:09.734 12/05/1995]',-0.023,0.001,-0.023,83.477,-
'[13:41:09.736 12/05/1995]',-0.023,0.001,-0.011,82.952,-
'[13:41:09.738 12/05/1995]',-0.011,0.001,-0.011,82.952,-
'[13:41:09.740 12/05/1995]',-0.011,0.001,-0.011,82.952,-
'[13:41:09.742 12/05/1995]',-0.011,0.001,-0.023,82.952,-
'[13:41:09.744 12/05/1995]',-0.011,0.001,-0.023,82.352,-
'[13:41:09.746 12/05/1995]',-0.011,0.001,-0.023,82.352,-
'[13:41:09.748 12/05/1995]',-0.023,0.001,-0.023,82.352,-
'[13:41:09.750 12/05/1995]',-0.023,0.001,-0.023,82.352,-
'[13:41:09.752 12/05/1995]',-0.023,0.001,-0.011,81.677,-
'[13:41:09.754 12/05/1995]',-0.023,0.001,-0.011,81.677,-
'[13:41:09.756 12/05/1995]',-0.023,0.001,-0.023,81.677,-
'[13:41:09.758 12/05/1995]',-0.023,0.001,-0.023,81.677,-
'[13:41:09.760 12/05/1995]',-0.023,0.001,-0.023,81.002,-
'[13:41:09.762 12/05/1995]',-0.023,0.001,-0.023,81.002,-
'[13:41:09.764 12/05/1995]',-0.011,0.001,-0.011,81.002,-
'[13:41:09.766 12/05/1995]',-0.023,0.001,-0.011,81.002,-
'[13:41:09.768 12/05/1995]',-0.011,0.001,-0.011,80.327,-
'[13:41:09.770 12/05/1995]',-0.011,0.001,-0.011,80.327,-
'[13:41:09.772 12/05/1995]',-0.011,0.001,-0.011,80.327,-
'[13:41:09.774 12/05/1995]',-0.011,0.001,-0.011,80.327,-
'[13:41:09.776 12/05/1995]',-0.011,0.001,-0.011,79.577,-
'[13:41:09.778 12/05/1995]',-0.011,0.001,-0.023,79.577,-
'[13:41:09.780 12/05/1995]',-0.011,0.001,-0.011,79.577,-
'[13:41:09.782 12/05/1995]',-0.011,0.001,-0.011,79.577,-
'[13:41:09.784 12/05/1995]',-0.023,-0.015,-0.011,78.827,-
'[13:41:09.786 12/05/1995]',-0.023,-0.015,-0.011,78.827,-
'[13:41:09.788 12/05/1995]',-0.011,0.001,-0.011,78.827,-
'[13:41:09.790 12/05/1995]',-0.023,-0.015,-0.011,78.827,-
'[13:41:09.792 12/05/1995]',-0.023,0.001,-0.011,78.077,-
'[13:41:09.794 12/05/1995]',-0.023,0.001,-0.011,78.077,-
'[13:41:09.796 12/05/1995]',-0.011,0.001,-0.011,78.077,-
'[13:41:09.798 12/05/1995]',-0.011,0.001,-0.011,78.077,-
'[13:41:09.800 12/05/1995]',-0.011,0.001,-0.011,77.327,-
'[13:41:09.802 12/05/1995]',-0.011,0.001,-0.005,77.327,-
'[13:41:09.804 12/05/1995]',-0.023,0.001,-0.011,77.327,-
'[13:41:09.806 12/05/1995]',-0.011,0.001,-0.005,77.327,-
'[13:41:09.808 12/05/1995]',-0.023,0.001,-0.005,76.652,-
'[13:41:09.810 12/05/1995]',-0.023,0.001,-0.011,76.652,-
'[13:41:09.812 12/05/1995]',-0.023,0.001,-0.011,76.652,-
'[13:41:09.814 12/05/1995]',-0.023,0.001,-0.011,76.652,-
'[13:41:09.816 12/05/1995]',-0.011,0.001,-0.011,75.902,-
'[13:41:09.818 12/05/1995]',-0.011,0.001,-0.011,75.902,-
'[13:41:09.820 12/05/1995]',-0.011,0.001,-0.005,75.902,-
'[13:41:09.822 12/05/1995]',-0.023,0.001,-0.005,75.902,-
'[13:41:09.824 12/05/1995]',-0.005,0.001,-0.011,75.227,-
'[13:41:09.826 12/05/1995]',-0.005,0.001,-0.011,75.227,-
'[13:41:09.828 12/05/1995]',-0.005,0.001,-0.011,75.227,-
'[13:41:09.830 12/05/1995]',-0.005,0.001,-0.011,75.227,-
'[13:41:09.832 12/05/1995]',-0.011,-0.015,-0.011,74.627,-
'[13:41:09.834 12/05/1995]',-0.011,-0.015,-0.011,74.627,-
'[13:41:09.836 12/05/1995]',-0.011,-0.015,-0.011,74.627,-
'[13:41:09.838 12/05/1995]',-0.011,-0.015,-0.011,74.627,-
'[13:41:09.840 12/05/1995]',-0.011,0.001,-0.011,74.027,-
'[13:41:09.842 12/05/1995]',-0.011,0.001,-0.011,74.027,-
'[13:41:09.844 12/05/1995]',-0.023,0.017,-0.023,74.027,-
'[13:41:09.846 12/05/1995]',-0.023,0.034,-0.023,74.027,-
'[13:41:09.848 12/05/1995]',-0.023,0.034,-0.023,73.427,-
'[13:41:09.850 12/05/1995]',-0.023,0.050,-0.023,73.427,-
'[13:41:09.852 12/05/1995]',-0.023,0.050,-0.023,73.427,-
'[13:41:09.854 12/05/1995]',-0.023,0.034,-0.011,73.427,-
'[13:41:09.856 12/05/1995]',-0.011,0.034,-0.005,72.827,-
'[13:41:09.858 12/05/1995]',-0.011,0.034,-0.005,72.827,-
'[13:41:09.860 12/05/1995]',-0.011,0.034,-0.011,72.827,-
'[13:41:09.862 12/05/1995]',-0.011,0.034,-0.005,72.827,-
'[13:41:09.864 12/05/1995]',-0.023,0.017,-0.005,72.227,-
'[13:41:09.866 12/05/1995]',-0.023,0.017,-0.005,72.227,-
'[13:41:09.868 12/05/1995]',-0.023,0.017,-0.005,72.227,-
'[13:41:09.870 12/05/1995]',-0.029,0.017,-0.011,72.227,-
'[13:41:09.872 12/05/1995]',-0.035,0.017,-0.011,71.777,-
'[13:41:09.874 12/05/1995]',-0.047,0.017,-0.029,71.777,-
'[13:41:09.876 12/05/1995]',-0.053,0.017,-0.029,71.777,-
'[13:41:09.878 12/05/1995]',-0.053,0.017,-0.035,71.777,-
'[13:41:09.880 12/05/1995]',-0.053,0.017,-0.035,71.177,-
'[13:41:09.882 12/05/1995]',-0.053,0.001,-0.035,71.177,-
'[13:41:09.884 12/05/1995]',-0.065,0.001,-0.035,71.177,-
'[13:41:09.886 12/05/1995]',-0.065,0.001,-0.046,71.177,-
'[13:41:09.888 12/05/1995]',-0.065,0.001,-0.035,70.727,-
'[13:41:09.890 12/05/1995]',-0.065,0.001,-0.035,70.727,-
'[13:41:09.892 12/05/1995]',-0.065,0.001,-0.035,70.727,-
'[13:41:09.894 12/05/1995]',-0.065,0.017,-0.035,70.727,-
'[13:41:09.896 12/05/1995]',-0.065,0.017,-0.035,70.277,-
'[13:41:09.898 12/05/1995]',-0.053,0.017,-0.035,70.277,-
'[13:41:09.900 12/05/1995]',-0.053,0.034,-0.035,70.277,-
'[13:41:09.902 12/05/1995]',-0.053,0.017,-0.046,70.277,-
'[13:41:09.904 12/05/1995]',-0.053,0.017,-0.035,69.827,-
'[13:41:09.906 12/05/1995]',-0.047,0.034,-0.035,69.827,-
'[13:41:09.908 12/05/1995]',-0.053,0.034,-0.035,69.827,-
'[13:41:09.910 12/05/1995]',-0.047,0.034,-0.035,69.827,-
'[13:41:09.912 12/05/1995]',-0.047,0.034,-0.035,69.527,-
'[13:41:09.914 12/05/1995]',-0.029,0.034,-0.029,69.527,-
'[13:41:09.916 12/05/1995]',-0.023,0.017,-0.029,69.527,-
'[13:41:09.918 12/05/1995]',-0.023,0.017,-0.023,69.527,-
'[13:41:09.920 12/05/1995]',-0.005,0.017,-0.011,69.152,-
'[13:41:09.922 12/05/1995]',-0.005,0.001,-0.011,69.152,-
'[13:41:09.924 12/05/1995]',0.001,0.001,-0.005,69.152,-
'[13:41:09.926 12/05/1995]',0.006,-0.015,0.001,69.152,-
'[13:41:09.928 12/05/1995]',0.001,-0.015,0.001,68.852,-
'[13:41:09.930 12/05/1995]',0.006,-0.015,0.001,68.852,-
'[13:41:09.932 12/05/1995]',0.006,-0.015,0.001,68.852,-
'[13:41:09.934 12/05/1995]',0.006,-0.031,0.006,68.852,-
'[13:41:09.936 12/05/1995]',0.006,-0.031,0.006,68.477,-
'[13:41:09.938 12/05/1995]',0.006,-0.031,0.006,68.477,-
'[13:41:09.940 12/05/1995]',0.006,-0.031,0.006,68.477,-
'[13:41:09.942 12/05/1995]',0.006,-0.031,0.006,68.477,-
'[13:41:09.944 12/05/1995]',0.001,-0.031,0.001,68.177,-
'[13:41:09.946 12/05/1995]',0.006,-0.031,0.001,68.177,-
'[13:41:09.948 12/05/1995]',0.006,-0.031,0.001,68.177,-
'[13:41:09.950 12/05/1995]',0.006,-0.031,0.006,68.177,-
'[13:41:09.952 12/05/1995]',0.006,-0.031,0.006,67.877,-
'[13:41:09.954 12/05/1995]',0.006,-0.031,0.006,67.877,-
'[13:41:09.956 12/05/1995]',0.006,-0.031,0.006,67.877,-
'[13:41:09.958 12/05/1995]',0.006,-0.031,0.001,67.877,-
'[13:41:09.960 12/05/1995]',0.001,-0.031,0.001,67.577,-
'[13:41:09.962 12/05/1995]',0.006,-0.015,0.001,67.577,-
'[13:41:09.964 12/05/1995]',0.006,-0.015,0.001,67.577,-
'[13:41:09.966 12/05/1995]',0.006,-0.015,0.001,67.577,-
'[13:41:09.968 12/05/1995]',0.006,-0.015,0.001,67.277,-
'[13:41:09.970 12/05/1995]',0.006,-0.031,0.001,67.277,-
'[13:41:09.972 12/05/1995]',0.006,-0.031,0.006,67.277,-
'[13:41:09.974 12/05/1995]',0.001,-0.031,0.006,67.277,-
'[13:41:09.976 12/05/1995]',0.006,-0.031,0.006,66.977,-
'[13:41:09.978 12/05/1995]',0.006,-0.015,0.001,66.977,-
'[13:41:09.980 12/05/1995]',0.006,-0.015,0.006,66.977,-
'[13:41:09.982 12/05/1995]',0.006,-0.031,0.006,66.977,-
'[13:41:09.984 12/05/1995]',0.012,-0.031,0.012,66.677,-
'[13:41:09.986 12/05/1995]',0.024,-0.031,0.024,66.677,-
'[13:41:09.988 12/05/1995]',0.054,-0.031,0.047,66.677,-
'[13:41:09.990 12/05/1995]',0.077,-0.031,0.071,66.677,-
'[13:41:09.992 12/05/1995]',0.119,-0.031,0.100,66.377,-
'[13:41:09.994 12/05/1995]',0.160,-0.048,0.135,66.377,-
'[13:41:09.996 12/05/1995]',0.208,-0.048,0.182,66.377,-
'[13:41:09.998 12/05/1995]',0.267,-0.064,0.229,66.377,-
'[13:41:10.000 12/05/1995]',0.308,-0.048,0.263,66.077,-
'[13:41:10.002 12/05/1995]',0.326,-0.031,0.281,66.077,-
'[13:41:10.004 12/05/1995]',0.332,0.001,0.281,66.077,-
'[13:41:10.006 12/05/1995]',0.332,0.034,0.269,66.077,-
'[13:41:10.008 12/05/1995]',0.332,0.083,0.258,65.777,-
'[13:41:10.010 12/05/1995]',0.314,0.148,0.217,65.777,-
'[13:41:10.012 12/05/1995]',0.273,0.230,0.164,65.777,-
'[13:41:10.014 12/05/1995]',0.231,0.295,0.100,65.777,-
'[13:41:10.016 12/05/1995]',0.196,0.361,0.053,65.477,-
'[13:41:10.018 12/05/1995]',0.166,0.344,0.024,65.477,-
'[13:41:10.020 12/05/1995]',0.178,0.295,0.012,65.477,-
'[13:41:10.022 12/05/1995]',0.178,0.181,0.035,65.477,-
'[13:41:10.024 12/05/1995]',0.184,0.001,0.071,65.177,-
'[13:41:10.026 12/05/1995]',0.196,-0.179,0.117,65.177,-
'[13:41:10.028 12/05/1995]',0.202,-0.342,0.158,65.177,-
'[13:41:10.030 12/05/1995]',0.202,-0.472,0.182,65.177,-
'[13:41:10.032 12/05/1995]',0.178,-0.538,0.182,64.877,-
'[13:41:10.034 12/05/1995]',0.143,-0.587,0.164,64.877,-
'[13:41:10.036 12/05/1995]',0.095,-0.620,0.135,64.877,-
'[13:41:10.038 12/05/1995]',0.072,-0.620,0.117,64.877,-
'[13:41:10.040 12/05/1995]',0.036,-0.587,0.094,64.577,-
'[13:41:10.042 12/05/1995]',0.030,-0.538,0.077,64.577,-
'[13:41:10.044 12/05/1995]',0.012,-0.472,0.065,64.577,-
'[13:41:10.046 12/05/1995]',0.012,-0.408,0.053,64.577,-
'[13:41:10.048 12/05/1995]',0.001,-0.342,0.035,64.202,-
'[13:41:10.050 12/05/1995]',-0.011,-0.276,0.012,64.202,-
'[13:41:10.052 12/05/1995]',-0.035,-0.195,-0.005,64.202,-
'[13:41:10.054 12/05/1995]',-0.047,-0.146,-0.023,64.202,-
'[13:41:10.056 12/05/1995]',-0.047,-0.080,-0.029,63.902,-
'[13:41:10.058 12/05/1995]',-0.047,-0.048,-0.029,63.902,-
'[13:41:10.060 12/05/1995]',-0.047,-0.031,-0.029,63.902,-
'[13:41:10.062 12/05/1995]',-0.035,-0.015,-0.029,63.902,-
'[13:41:10.064 12/05/1995]',-0.035,-0.015,-0.029,63.602,-
'[13:41:10.066 12/05/1995]',-0.035,-0.031,-0.023,63.602,-
'[13:41:10.068 12/05/1995]',-0.029,-0.031,-0.011,63.602,-
'[13:41:10.070 12/05/1995]',-0.029,-0.031,-0.011,63.602,-
'[13:41:10.072 12/05/1995]',-0.029,-0.031,-0.011,63.302,-
'[13:41:10.074 12/05/1995]',-0.029,-0.015,-0.011,63.302,-
'[13:41:10.076 12/05/1995]',-0.029,-0.031,-0.023,63.302,-
'[13:41:10.078 12/05/1995]',-0.029,-0.015,-0.011,63.302,-
'[13:41:10.080 12/05/1995]',-0.029,-0.015,-0.011,62.927,-
'[13:41:10.082 12/05/1995]',-0.035,-0.031,-0.011,62.927,-
'[13:41:10.084 12/05/1995]',-0.029,-0.015,-0.011,62.927,-
'[13:41:10.086 12/05/1995]',-0.029,-0.015,-0.011,62.927,-
'[13:41:10.088 12/05/1995]',-0.029,-0.015,-0.011,62.627,-
'[13:41:10.090 12/05/1995]',-0.029,-0.015,-0.011,62.627,-
'[13:41:10.092 12/05/1995]',-0.029,-0.015,-0.011,62.627,-
'[13:41:10.094 12/05/1995]',-0.029,-0.015,-0.011,62.627,-
'[13:41:10.096 12/05/1995]',-0.029,-0.015,-0.011,62.327,-
'[13:41:10.098 12/05/1995]',-0.029,0.001,-0.023,62.327,-
'[13:41:10.100 12/05/1995]',-0.029,0.001,-0.023,62.327,-
'[13:41:10.102 12/05/1995]',-0.029,0.001,-0.011,62.327,-
'[13:41:10.104 12/05/1995]',-0.029,0.001,-0.023,62.177,-
'[13:41:10.106 12/05/1995]',-0.029,0.001,-0.011,62.177,-
'[13:41:10.108 12/05/1995]',-0.029,0.001,-0.023,62.177,-
'[13:41:10.110 12/05/1995]',-0.029,0.001,-0.023,62.177,-
'[13:41:10.112 12/05/1995]',-0.029,0.001,-0.023,61.877,-
'[13:41:10.114 12/05/1995]',-0.029,0.001,-0.023,61.877,-
'[13:41:10.116 12/05/1995]',-0.023,0.001,-0.023,61.877,-
'[13:41:10.118 12/05/1995]',-0.029,0.001,-0.023,61.877,-
'[13:41:10.120 12/05/1995]',-0.023,0.001,-0.023,61.652,-
'[13:41:10.122 12/05/1995]',-0.023,0.001,-0.011,61.652,-
'[13:41:10.124 12/05/1995]',-0.023,0.001,-0.023,61.652,-
'[13:41:10.126 12/05/1995]',-0.023,0.001,-0.023,61.652,-
'[13:41:10.128 12/05/1995]',-0.023,0.017,-0.029,61.427,-
'[13:41:10.130 12/05/1995]',-0.023,0.017,-0.023,61.427,-
'[13:41:10.132 12/05/1995]',-0.029,0.017,-0.023,61.427,-
'[13:41:10.134 12/05/1995]',-0.029,0.017,-0.029,61.427,-
'[13:41:10.136 12/05/1995]',-0.029,0.001,-0.023,61.202,-
'[13:41:10.138 12/05/1995]',-0.029,0.017,-0.023,61.202,-
'[13:41:10.140 12/05/1995]',-0.029,0.001,-0.023,61.202,-
'[13:41:10.142 12/05/1995]',-0.029,0.001,-0.029,61.202,-
'[13:41:10.144 12/05/1995]',-0.029,0.017,-0.029,60.977,-0.964
'[13:41:10.146 12/05/1995]',-0.029,0.017,-0.035,60.977,-0.964
'[13:41:10.148 12/05/1995]',-0.029,0.017,-0.029,60.977,-0.964
'[13:41:10.150 12/05/1995]',-0.029,0.017,-0.029,60.977,-0.964
'[13:41:10.152 12/05/1995]',-0.035,0.034,-0.029,60.677,-0.887
'[13:41:10.154 12/05/1995]',-0.035,0.034,-0.029,60.677,-0.887
'[13:41:10.156 12/05/1995]',-0.029,0.034,-0.029,60.677,-0.887
'[13:41:10.158 12/05/1995]',-0.029,0.034,-0.029,60.677,-0.887
'[13:41:10.160 12/05/1995]',-0.023,0.034,-0.023,60.452,-0.809
'[13:41:10.162 12/05/1995]',-0.029,0.034,-0.029,60.452,-0.809
'[13:41:10.164 12/05/1995]',-0.029,0.034,-0.029,60.452,-0.809
'[13:41:10.166 12/05/1995]',-0.029,0.034,-0.029,60.452,-0.809
'[13:41:10.168 12/05/1995]',-0.029,0.034,-0.029,60.227,-0.738
'[13:41:10.170 12/05/1995]',-0.029,0.034,-0.029,60.227,-0.738
'[13:41:10.172 12/05/1995]',-0.029,0.034,-0.029,60.227,-0.738
'[13:41:10.174 12/05/1995]',-0.029,0.034,-0.029,60.227,-0.738
'[13:41:10.176 12/05/1995]',-0.029,0.034,-0.023,60.227,-0.660
'[13:41:10.178 12/05/1995]',-0.029,0.034,-0.029,60.227,-0.660
'[13:41:10.180 12/05/1995]',-0.023,0.034,-0.023,60.227,-0.660
'[13:41:10.182 12/05/1995]',-0.023,0.034,-0.023,60.227,-0.660
'[13:41:10.184 12/05/1995]',-0.023,0.050,-0.023,60.527,-0.578
'[13:41:10.186 12/05/1995]',-0.029,0.050,-0.029,60.527,-0.578
'[13:41:10.188 12/05/1995]',-0.023,0.050,-0.029,60.527,-0.578
'[13:41:10.190 12/05/1995]',-0.029,0.050,-0.029,60.527,-0.578
'[13:41:10.192 12/05/1995]',-0.029,0.034,-0.029,61.352,-0.500
'[13:41:10.194 12/05/1995]',-0.023,0.034,-0.029,61.352,-0.500
'[13:41:10.196 12/05/1995]',-0.023,0.034,-0.023,61.352,-0.500
'[13:41:10.198 12/05/1995]',-0.023,0.034,-0.023,61.352,-0.500
'[13:41:10.200 12/05/1995]',-0.023,0.050,-0.023,63.452,-0.412
'[13:41:10.202 12/05/1995]',-0.011,0.034,-0.023,63.452,-0.412
'[13:41:10.204 12/05/1995]',-0.011,0.034,-0.023,63.452,-0.412
'[13:41:10.206 12/05/1995]',-0.011,0.034,-0.011,63.452,-0.412
'[13:41:10.208 12/05/1995]',-0.023,0.017,-0.011,67.652,-0.330
'[13:41:10.210 12/05/1995]',-0.011,0.034,-0.023,67.652,-0.330
'[13:41:10.212 12/05/1995]',-0.011,0.034,-0.011,67.652,-0.330
'[13:41:10.214 12/05/1995]',-0.023,0.017,-0.011,67.652,-0.330
'[13:41:10.216 12/05/1995]',-0.011,0.017,-0.011,74.477,-0.253
'[13:41:10.218 12/05/1995]',-0.011,0.017,-0.005,74.477,-0.253
'[13:41:10.220 12/05/1995]',-0.011,0.017,-0.005,74.477,-0.253
'[13:41:10.222 12/05/1995]',-0.011,0.017,-0.005,74.477,-0.253
'[13:41:10.224 12/05/1995]',-0.011,0.017,-0.005,83.327,-0.180
'[13:41:10.226 12/05/1995]',-0.005,0.017,0.001,83.327,-0.180
'[13:41:10.228 12/05/1995]',-0.005,0.001,0.001,83.327,-0.180
'[13:41:10.230 12/05/1995]',0.001,0.001,-0.005,83.327,-0.180
'[13:41:10.232 12/05/1995]',-0.005,0.017,-0.005,92.552,-0.103
'[13:41:10.234 12/05/1995]',0.001,0.017,0.001,92.552,-0.103
'[13:41:10.236 12/05/1995]',0.001,0.017,0.001,92.552,-0.103
'[13:41:10.238 12/05/1995]',0.001,0.017,0.006,92.552,-0.103
'[13:41:10.240 12/05/1995]',0.001,0.017,0.006,100.728,-0.046
'[13:41:10.242 12/05/1995]',0.001,0.017,0.006,100.728,-0.046
'[13:41:10.244 12/05/1995]',0.006,0.001,0.006,100.728,-0.046
'[13:41:10.246 12/05/1995]',0.012,0.001,0.006,100.728,-0.046
'[13:41:10.248 12/05/1995]',0.006,0.001,0.006,107.628,0.021
'[13:41:10.250 12/05/1995]',0.012,0.001,0.006,107.628,0.021
'[13:41:10.252 12/05/1995]',0.012,0.001,0.012,107.628,0.021
'[13:41:10.254 12/05/1995]',0.012,0.001,0.012,107.628,0.021
'[13:41:10.256 12/05/1995]',0.012,0.017,0.024,113.328,0.062
'[13:41:10.258 12/05/1995]',0.012,0.017,0.012,113.328,0.062
'[13:41:10.260 12/05/1995]',0.012,0.034,0.012,113.328,0.062
'[13:41:10.262 12/05/1995]',0.012,0.034,0.012,113.328,0.062
'[13:41:10.264 12/05/1995]',0.012,0.017,0.012,117.978,0.118
'[13:41:10.266 12/05/1995]',0.012,0.001,0.024,117.978,0.118
'[13:41:10.268 12/05/1995]',0.024,0.001,0.024,117.978,0.118
'[13:41:10.270 12/05/1995]',0.012,0.001,0.024,117.978,0.118
'[13:41:10.272 12/05/1995]',0.024,0.017,0.024,121.428,0.170
'[13:41:10.274 12/05/1995]',0.024,0.001,0.024,121.428,0.170
'[13:41:10.276 12/05/1995]',0.024,0.001,0.030,121.428,0.170
'[13:41:10.278 12/05/1995]',0.024,0.001,0.030,121.428,0.170
'[13:41:10.280 12/05/1995]',0.030,0.001,0.035,123.678,0.222
'[13:41:10.282 12/05/1995]',0.030,-0.015,0.035,123.678,0.222
'[13:41:10.284 12/05/1995]',0.030,-0.015,0.047,123.678,0.222
'[13:41:10.286 12/05/1995]',0.036,-0.031,0.053,123.678,0.222
'[13:41:10.288 12/05/1995]',0.036,-0.031,0.053,125.253,0.283
'[13:41:10.290 12/05/1995]',0.036,-0.031,0.053,125.253,0.283
'[13:41:10.292 12/05/1995]',0.030,-0.031,0.053,125.253,0.283
'[13:41:10.294 12/05/1995]',0.036,-0.031,0.053,125.253,0.283
'[13:41:10.296 12/05/1995]',0.036,-0.031,0.047,126.378,0.361
'[13:41:10.298 12/05/1995]',0.030,-0.015,0.047,126.378,0.361
'[13:41:10.300 12/05/1995]',0.030,-0.015,0.035,126.378,0.361
'[13:41:10.302 12/05/1995]',0.030,-0.015,0.035,126.378,0.361
'[13:41:10.304 12/05/1995]',0.030,-0.015,0.047,127.053,0.439
'[13:41:10.306 12/05/1995]',0.030,-0.015,0.047,127.053,0.439
'[13:41:10.308 12/05/1995]',0.030,-0.015,0.047,127.053,0.439
'[13:41:10.310 12/05/1995]',0.030,-0.015,0.047,127.053,0.439
'[13:41:10.312 12/05/1995]',0.024,-0.015,0.035,127.353,0.515
'[13:41:10.314 12/05/1995]',0.024,0.001,0.035,127.353,0.515
'[13:41:10.316 12/05/1995]',0.030,-0.015,0.035,127.353,0.515
'[13:41:10.318 12/05/1995]',0.030,-0.015,0.047,127.353,0.515
'[13:41:10.320 12/05/1995]',0.030,-0.015,0.047,127.203,0.614
'[13:41:10.322 12/05/1995]',0.030,-0.015,0.035,127.203,0.614
'[13:41:10.324 12/05/1995]',0.030,0.001,0.035,127.203,0.614
'[13:41:10.326 12/05/1995]',0.024,0.001,0.030,127.203,0.614
'[13:41:10.328 12/05/1995]',0.024,0.001,0.030,126.753,0.696
'[13:41:10.330 12/05/1995]',0.012,0.001,0.030,126.753,0.696
'[13:41:10.332 12/05/1995]',0.024,0.001,0.030,126.753,0.696
'[13:41:10.334 12/05/1995]',0.024,-0.015,0.035,126.753,0.696
'[13:41:10.336 12/05/1995]',0.024,-0.031,0.035,126.003,0.789
'[13:41:10.338 12/05/1995]',0.012,-0.015,0.030,126.003,0.789
'[13:41:10.340 12/05/1995]',0.024,-0.015,0.030,126.003,0.789
'[13:41:10.342 12/05/1995]',0.024,0.001,0.030,126.003,0.789
'[13:41:10.344 12/05/1995]',0.024,-0.015,0.030,124.953,0.872
'[13:41:10.346 12/05/1995]',0.024,-0.015,0.030,124.953,0.872
'[13:41:10.348 12/05/1995]',0.024,-0.031,0.030,124.953,0.872
'[13:41:10.350 12/05/1995]',0.012,-0.031,0.030,124.953,0.872
'[13:41:10.352 12/05/1995]',0.012,-0.031,0.030,123.753,0.954
'[13:41:10.354 12/05/1995]',0.012,-0.031,0.030,123.753,0.954
'[13:41:10.356 12/05/1995]',0.012,-0.015,0.030,123.753,0.954
'[13:41:10.358 12/05/1995]',0.024,-0.015,0.024,123.753,0.954
'[13:41:10.360 12/05/1995]',0.012,0.001,0.024,122.253,1.024
'[13:41:10.362 12/05/1995]',0.012,0.001,0.012,122.253,1.024
'[13:41:10.364 12/05/1995]',0.012,0.001,0.012,122.253,1.024
'[13:41:10.366 12/05/1995]',0.006,0.001,0.012,122.253,1.024
'[13:41:10.368 12/05/1995]',0.006,0.001,0.012,120.603,1.024
'[13:41:10.370 12/05/1995]',0.012,-0.015,0.024,120.603,1.024
'[13:41:10.372 12/05/1995]',0.012,-0.015,0.024,120.603,1.024
'[13:41:10.374 12/05/1995]',0.012,-0.015,0.024,120.603,1.024
'[13:41:10.376 12/05/1995]',0.006,-0.015,0.024,118.803,1.024
'[13:41:10.378 12/05/1995]',0.006,-0.031,0.024,118.803,1.024
'[13:41:10.380 12/05/1995]',0.006,-0.031,0.024,118.803,1.024
'[13:41:10.382 12/05/1995]',0.006,-0.031,0.012,118.803,1.024
'[13:41:10.384 12/05/1995]',0.006,-0.031,0.024,116.703,1.024
'[13:41:10.386 12/05/1995]',0.006,-0.031,0.024,116.703,1.024
'[13:41:10.388 12/05/1995]',0.006,-0.031,0.024,116.703,1.024
'[13:41:10.390 12/05/1995]',0.006,-0.015,0.024,116.703,1.024
'[13:41:10.392 12/05/1995]',0.006,-0.031,0.024,114.228,1.024
'[13:41:10.394 12/05/1995]',0.012,-0.015,0.012,114.228,1.024
'[13:41:10.396 12/05/1995]',0.006,-0.015,0.012,114.228,1.024
'[13:41:10.398 12/05/1995]',0.006,-0.015,0.012,114.228,1.024
'[13:41:10.400 12/05/1995]',0.012,-0.015,0.012,111.528,1.024
'[13:41:10.402 12/05/1995]',0.012,-0.031,0.024,111.528,1.024
'[13:41:10.404 12/05/1995]',0.012,-0.031,0.024,111.528,1.024
'[13:41:10.406 12/05/1995]',0.012,-0.031,0.024,111.528,1.024
'[13:41:10.408 12/05/1995]',0.012,-0.031,0.024,108.378,1.024
'[13:41:10.410 12/05/1995]',0.012,-0.031,0.024,108.378,1.024
'[13:41:10.412 12/05/1995]',0.012,-0.015,0.012,108.378,1.024
'[13:41:10.414 12/05/1995]',0.012,-0.015,0.012,108.378,1.024
'[13:41:10.416 12/05/1995]',0.006,-0.015,0.012,104.778,1.024
'[13:41:10.418 12/05/1995]',0.006,-0.015,0.012,104.778,1.024
'[13:41:10.420 12/05/1995]',0.006,-0.015,0.012,104.778,1.024
'[13:41:10.422 12/05/1995]',0.006,-0.015,0.024,104.778,1.024
'[13:41:10.424 12/05/1995]',0.006,-0.031,0.012,100.878,1.024
'[13:41:10.426 12/05/1995]',0.006,-0.031,0.012,100.878,1.024
'[13:41:10.428 12/05/1995]',0.006,-0.015,0.012,100.878,1.024
'[13:41:10.430 12/05/1995]',0.006,-0.031,0.012,100.878,1.024
'[13:41:10.432 12/05/1995]',0.012,-0.015,0.024,96.827,1.024
'[13:41:10.434 12/05/1995]',0.006,-0.031,0.024,96.827,1.024
'[13:41:10.436 12/05/1995]',0.012,-0.031,0.024,96.827,1.024
'[13:41:10.438 12/05/1995]',0.012,-0.031,0.024,96.827,1.024
'[13:41:10.440 12/05/1995]',0.012,-0.015,0.024,93.077,1.024
'[13:41:10.442 12/05/1995]',0.012,-0.015,0.012,93.077,1.024
'[13:41:10.444 12/05/1995]',0.012,-0.015,0.012,93.077,1.024
'[13:41:10.446 12/05/1995]',0.012,-0.015,0.024,93.077,1.024
'[13:41:10.448 12/05/1995]',0.006,-0.015,0.012,90.227,1.024
'[13:41:10.450 12/05/1995]',0.012,-0.015,0.012,90.227,1.024
'[13:41:10.452 12/05/1995]',0.006,-0.031,0.012,90.227,1.024
'[13:41:10.454 12/05/1995]',0.001,-0.015,0.012,90.227,1.024
'[13:41:10.456 12/05/1995]',0.006,-0.015,0.012,88.502,1.024
'[13:41:10.458 12/05/1995]',0.006,-0.015,0.006,88.502,1.024
'[13:41:10.460 12/05/1995]',0.006,-0.015,0.006,88.502,1.024
'[13:41:10.462 12/05/1995]',0.006,-0.015,0.006,88.502,1.024
'[13:41:10.464 12/05/1995]',0.006,-0.015,0.012,87.377,1.024
'[13:41:10.466 12/05/1995]',0.006,-0.015,0.006,87.377,1.024
'[13:41:10.468 12/05/1995]',0.006,-0.015,0.012,87.377,1.024
'[13:41:10.470 12/05/1995]',0.006,-0.031,0.012,87.377,1.024
'[13:41:10.472 12/05/1995]',0.006,-0.015,0.012,86.552,1.024
'[13:41:10.474 12/05/1995]',0.006,-0.015,0.006,86.552,1.024
'[13:41:10.476 12/05/1995]',0.006,-0.015,0.006,86.552,1.024
'[13:41:10.478 12/05/1995]',0.006,0.001,0.006,86.552,1.024
'[13:41:10.480 12/05/1995]',0.006,0.001,0.006,85.727,1.024
'[13:41:10.482 12/05/1995]',0.001,0.001,0.001,85.727,1.024
'[13:41:10.484 12/05/1995]',0.006,0.001,0.001,85.727,1.024
'[13:41:10.486 12/05/1995]',0.006,-0.015,0.006,85.727,1.024
'[13:41:10.488 12/05/1995]',0.001,0.001,0.006,85.127,1.024
'[13:41:10.490 12/05/1995]',0.006,0.001,0.006,85.127,1.024
'[13:41:10.492 12/05/1995]',0.001,-0.015,0.001,85.127,1.024
'[13:41:10.494 12/05/1995]',0.001,0.001,0.001,85.127,1.024
'[13:41:10.496 12/05/1995]',0.001,0.001,0.001,84.752,1.024
'[13:41:10.498 12/05/1995]',0.001,-0.015,0.001,84.752,1.024
'[13:41:10.500 12/05/1995]',0.001,0.001,0.001,84.752,1.024
'[13:41:10.502 12/05/1995]',0.001,0.001,0.006,84.752,1.024
'[13:41:10.504 12/05/1995]',0.001,0.001,0.006,84.452,1.024
'[13:41:10.506 12/05/1995]',0.001,0.001,0.006,84.452,1.024
'[13:41:10.508 12/05/1995]',0.001,0.001,0.001,84.452,1.024
'[13:41:10.510 12/05/1995]',0.001,0.001,0.001,84.452,1.024
'[13:41:10.512 12/05/1995]',0.001,0.001,-0.005,84.227,1.024
'[13:41:10.514 12/05/1995]',0.001,0.001,0.001,84.227,1.024
'[13:41:10.516 12/05/1995]',0.001,-0.015,0.001,84.227,1.024
'[13:41:10.518 12/05/1995]',0.001,-0.015,0.001,84.227,1.024
'[13:41:10.520 12/05/1995]',0.006,-0.015,0.006,83.852,1.024
'[13:41:10.522 12/05/1995]',0.001,-0.015,-0.005,83.852,1.024
'[13:41:10.524 12/05/1995]',0.001,-0.015,0.001,83.852,1.024
'[13:41:10.526 12/05/1995]',0.001,0.001,-0.005,83.852,1.024
'[13:41:10.528 12/05/1995]',-0.005,0.001,-0.005,83.552,1.024
'[13:41:10.530 12/05/1995]',-0.005,0.001,-0.005,83.552,1.024
'[13:41:10.532 12/05/1995]',-0.005,0.001,-0.005,83.552,1.024
'[13:41:10.534 12/05/1995]',-0.005,0.001,-0.005,83.552,1.024
'[13:41:10.536 12/05/1995]',-0.005,0.001,-0.005,83.327,1.024
'[13:41:10.538 12/05/1995]',-0.005,0.001,0.001,83.327,1.024
'[13:41:10.540 12/05/1995]',-0.005,0.001,-0.005,83.327,1.024
'[13:41:10.542 12/05/1995]',-0.005,0.001,-0.005,83.327,1.024
'[13:41:10.544 12/05/1995]',-0.005,0.001,-0.005,83.027,1.024
'[13:41:10.546 12/05/1995]',-0.005,0.001,-0.011,83.027,1.024
'[13:41:10.548 12/05/1995]',-0.005,0.001,-0.005,83.027,1.024
'[13:41:10.550 12/05/1995]',-0.005,0.001,-0.005,83.027,1.024
'[13:41:10.552 12/05/1995]',0.001,0.001,-0.005,82.727,1.024
'[13:41:10.554 12/05/1995]',-0.005,0.001,-0.005,82.727,1.024
'[13:41:10.556 12/05/1995]',-0.005,0.001,-0.011,82.727,1.024
'[13:41:10.558 12/05/1995]',-0.005,0.001,-0.011,82.727,1.024
'[13:41:10.560 12/05/1995]',-0.005,0.001,-0.005,82.277,1.024
'[13:41:10.562 12/05/1995]',-0.005,0.001,-0.011,82.277,1.024
'[13:41:10.564 12/05/1995]',-0.005,0.001,-0.011,82.277,1.024
'[13:41:10.566 12/05/1995]',-0.005,0.001,-0.011,82.277,1.024
'[13:41:10.568 12/05/1995]',-0.005,0.001,-0.005,81.827,1.024
'[13:41:10.570 12/05/1995]',-0.005,0.001,-0.005,81.827,1.024
'[13:41:10.572 12/05/1995]',-0.005,0.001,-0.005,81.827,1.024
'[13:41:10.574 12/05/1995]',-0.005,0.001,-0.005,81.827,1.024
'[13:41:10.576 12/05/1995]',-0.005,0.001,0.001,81.377,1.024
'[13:41:10.578 12/05/1995]',-0.005,0.001,-0.011,81.377,1.024
'[13:41:10.580 12/05/1995]',-0.005,0.001,-0.011,81.377,1.024
'[13:41:10.582 12/05/1995]',-0.011,0.001,-0.011,81.377,1.024
'[13:41:10.584 12/05/1995]',-0.005,0.001,-0.005,80.777,0.789
'[13:41:10.586 12/05/1995]',-0.005,0.001,-0.005,80.777,0.789
'[13:41:10.588 12/05/1995]',-0.005,0.001,-0.011,80.777,0.789
'[13:41:10.590 12/05/1995]',-0.011,0.001,-0.011,80.777,0.789
'[13:41:10.592 12/05/1995]',-0.011,0.001,-0.011,80.327,0.253
'[13:41:10.594 12/05/1995]',-0.005,0.001,-0.011,80.327,0.253
'[13:41:10.596 12/05/1995]',-0.005,0.001,-0.011,80.327,0.253
'[13:41:10.598 12/05/1995]',-0.005,0.001,-0.011,80.327,0.253
'[13:41:10.600 12/05/1995]',-0.011,0.001,-0.011,79.802,-0.227
'[13:41:10.602 12/05/1995]',-0.005,0.001,-0.011,79.802,-0.227
'[13:41:10.604 12/05/1995]',-0.011,0.001,-0.005,79.802,-0.227
'[13:41:10.606 12/05/1995]',-0.011,0.001,-0.011,79.802,-0.227
'[13:41:10.608 12/05/1995]',-0.005,0.001,-0.011,79.352,-0.639
'[13:41:10.610 12/05/1995]',-0.005,0.001,-0.011,79.352,-0.639
'[13:41:10.612 12/05/1995]',-0.005,0.001,-0.011,79.352,-0.639
'[13:41:10.614 12/05/1995]',-0.011,0.001,-0.011,79.352,-0.639
'[13:41:10.616 12/05/1995]',-0.005,0.001,-0.011,78.902,-0.959
'[13:41:10.618 12/05/1995]',-0.005,0.001,-0.011,78.902,-0.959
'[13:41:10.620 12/05/1995]',-0.011,0.001,-0.005,78.902,-0.959
'[13:41:10.622 12/05/1995]',-0.011,0.001,-0.011,78.902,-0.959
'[13:41:10.624 12/05/1995]',-0.011,0.001,-0.011,78.377,-
'[13:41:10.626 12/05/1995]',-0.023,0.001,-0.011,78.377,-
'[13:41:10.628 12/05/1995]',-0.011,0.001,-0.023,78.377,-
'[13:41:10.630 12/05/1995]',-0.011,0.017,-0.023,78.377,-
'[13:41:10.632 12/05/1995]',-0.011,0.001,-0.011,77.927,-
'[13:41:10.634 12/05/1995]',-0.011,0.001,-0.011,77.927,-
'[13:41:10.636 12/05/1995]',-0.005,0.001,-0.011,77.927,-
'[13:41:10.638 12/05/1995]',-0.005,0.001,-0.011,77.927,-
'[13:41:10.640 12/05/1995]',-0.011,0.001,-0.011,77.402,-
'[13:41:10.642 12/05/1995]',-0.005,0.017,-0.011,77.402,-
'[13:41:10.644 12/05/1995]',-0.005,0.017,-0.011,77.402,-
'[13:41:10.646 12/05/1995]',-0.005,0.017,-0.011,77.402,-
'[13:41:10.648 12/05/1995]',-0.011,0.017,-0.011,76.877,-
'[13:41:10.650 12/05/1995]',-0.011,0.017,-0.011,76.877,-
'[13:41:10.652 12/05/1995]',-0.011,0.017,-0.011,76.877,-
'[13:41:10.654 12/05/1995]',-0.011,0.017,-0.023,76.877,-
'[13:41:10.656 12/05/1995]',-0.011,0.034,-0.011,76.427,-
'[13:41:10.658 12/05/1995]',-0.011,0.034,-0.023,76.427,-
'[13:41:10.660 12/05/1995]',-0.023,0.050,-0.023,76.427,-
'[13:41:10.662 12/05/1995]',-0.023,0.066,-0.023,76.427,-
'[13:41:10.664 12/05/1995]',-0.023,0.066,-0.023,75.977,-
'[13:41:10.666 12/05/1995]',-0.011,0.066,-0.029,75.977,-
'[13:41:10.668 12/05/1995]',-0.011,0.066,-0.023,75.977,-
'[13:41:10.670 12/05/1995]',-0.023,0.066,-0.023,75.977,-
'[13:41:10.672 12/05/1995]',-0.011,0.066,-0.011,75.452,-
'[13:41:10.674 12/05/1995]',-0.011,0.050,-0.011,75.452,-
'[13:41:10.676 12/05/1995]',-0.005,0.050,-0.011,75.452,-
'[13:41:10.678 12/05/1995]',-0.011,0.050,-0.011,75.452,-
'[13:41:10.680 12/05/1995]',-0.005,0.050,-0.005,74.927,-
'[13:41:10.682 12/05/1995]',-0.005,0.034,-0.005,74.927,-
'[13:41:10.684 12/05/1995]',-0.023,0.034,-0.011,74.927,-
'[13:41:10.686 12/05/1995]',-0.029,0.034,-0.023,74.927,-
'[13:41:10.688 12/05/1995]',-0.035,0.034,-0.023,74.477,-
'[13:41:10.690 12/05/1995]',-0.047,0.034,-0.029,74.477,-
'[13:41:10.692 12/05/1995]',-0.053,0.034,-0.035,74.477,-
'[13:41:10.694 12/05/1995]',-0.065,0.034,-0.046,74.477,-
'[13:41:10.696 12/05/1995]',-0.071,0.017,-0.052,74.027,-
'[13:41:10.698 12/05/1995]',-0.065,0.017,-0.052,74.027,-
'[13:41:10.700 12/05/1995]',-0.065,0.017,-0.064,74.027,-
'[13:41:10.702 12/05/1995]',-0.071,0.017,-0.052,74.027,-
'[13:41:10.704 12/05/1995]',-0.065,0.017,-0.052,73.577,-
'[13:41:10.706 12/05/1995]',-0.065,0.017,-0.052,73.577,-
'[13:41:10.708 12/05/1995]',-0.065,0.034,-0.052,73.577,-
'[13:41:10.710 12/05/1995]',-0.071,0.034,-0.052,73.577,-
'[13:41:10.712 12/05/1995]',-0.065,0.034,-0.052,73.127,-
'[13:41:10.714 12/05/1995]',-0.065,0.034,-0.052,73.127,-
'[13:41:10.716 12/05/1995]',-0.065,0.034,-0.052,73.127,-
'[13:41:10.718 12/05/1995]',-0.065,0.034,-0.052,73.127,-
'[13:41:10.720 12/05/1995]',-0.053,0.050,-0.052,72.827,-
'[13:41:10.722 12/05/1995]',-0.053,0.050,-0.046,72.827,-
'[13:41:10.724 12/05/1995]',-0.053,0.034,-0.052,72.827,-
'[13:41:10.726 12/05/1995]',-0.047,0.050,-0.046,72.827,-
'[13:41:10.728 12/05/1995]',-0.035,0.050,-0.046,72.452,-
'[13:41:10.730 12/05/1995]',-0.035,0.050,-0.046,72.452,-
'[13:41:10.732 12/05/1995]',-0.029,0.050,-0.046,72.452,-
'[13:41:10.734 12/05/1995]',-0.023,0.050,-0.035,72.452,-
'[13:41:10.736 12/05/1995]',-0.011,0.034,-0.029,72.077,-
'[13:41:10.738 12/05/1995]',-0.011,0.017,-0.023,72.077,-
'[13:41:10.740 12/05/1995]',-0.005,0.017,-0.023,72.077,-
'[13:41:10.742 12/05/1995]',0.001,0.001,-0.011,72.077,-
'[13:41:10.744 12/05/1995]',0.001,0.001,-0.011,71.702,-
'[13:41:10.746 12/05/1995]',0.001,0.001,-0.011,71.702,-
'[13:41:10.748 12/05/1995]',0.001,0.001,-0.011,71.702,-
'[13:41:10.750 12/05/1995]',-0.005,-0.015,-0.011,71.702,-
'[13:41:10.752 12/05/1995]',0.001,-0.015,-0.011,71.327,-
'[13:41:10.754 12/05/1995]',-0.005,-0.015,-0.005,71.327,-
'[13:41:10.756 12/05/1995]',0.001,-0.015,-0.005,71.327,-
'[13:41:10.758 12/05/1995]',-0.005,-0.015,-0.005,71.327,-
'[13:41:10.760 12/05/1995]',0.001,-0.015,-0.005,70.877,-
'[13:41:10.762 12/05/1995]',-0.005,-0.015,-0.011,70.877,-
'[13:41:10.764 12/05/1995]',-0.005,-0.015,-0.011,70.877,-
'[13:41:10.766 12/05/1995]',0.001,-0.015,-0.011,70.877,-
'[13:41:10.768 12/05/1995]',-0.005,-0.015,-0.011,70.577,-
'[13:41:10.770 12/05/1995]',-0.005,-0.015,-0.005,70.577,-
'[13:41:10.772 12/05/1995]',-0.005,-0.015,-0.011,70.577,-
'[13:41:10.774 12/05/1995]',0.001,-0.015,-0.011,70.577,-
'[13:41:10.776 12/05/1995]',-0.005,-0.015,-0.011,70.277,-
'[13:41:10.778 12/05/1995]',-0.005,-0.015,-0.011,70.277,-
'[13:41:10.780 12/05/1995]',0.001,0.001,-0.011,70.277,-
'[13:41:10.782 12/05/1995]',-0.005,-0.015,-0.011,70.277,-
'[13:41:10.784 12/05/1995]',-0.005,-0.015,-0.011,70.052,-
'[13:41:10.786 12/05/1995]',-0.005,-0.015,-0.011,70.052,-
'[13:41:10.788 12/05/1995]',-0.011,-0.015,-0.011,70.052,-
'[13:41:10.790 12/05/1995]',-0.005,-0.015,-0.005,70.052,-
'[13:41:10.792 12/05/1995]',-0.005,-0.015,-0.005,69.827,-
'[13:41:10.794 12/05/1995]',0.001,-0.015,-0.005,69.827,-
'[13:41:10.796 12/05/1995]',0.001,-0.015,-0.005,69.827,-
'[13:41:10.798 12/05/1995]',0.001,-0.015,-0.005,69.827,-
'[13:41:10.800 12/05/1995]',0.001,-0.015,0.001,69.452,-
'[13:41:10.802 12/05/1995]',0.012,-0.015,0.012,69.452,-
'[13:41:10.804 12/05/1995]',0.030,-0.015,0.030,69.452,-
'[13:41:10.806 12/05/1995]',0.066,-0.015,0.047,69.452,-
'[13:41:10.808 12/05/1995]',0.095,-0.015,0.077,69.152,-
'[13:41:10.810 12/05/1995]',0.137,-0.031,0.111,69.152,-
'[13:41:10.812 12/05/1995]',0.184,-0.031,0.153,69.152,-
'[13:41:10.814 12/05/1995]',0.231,-0.048,0.199,69.152,-
'[13:41:10.816 12/05/1995]',0.273,-0.048,0.240,68.852,-
'[13:41:10.818 12/05/1995]',0.308,-0.031,0.263,68.852,-
'[13:41:10.820 12/05/1995]',0.326,0.001,0.269,68.852,-
'[13:41:10.822 12/05/1995]',0.326,0.034,0.263,68.852,-
'[13:41:10.824 12/05/1995]',0.314,0.083,0.240,68.477,-
'[13:41:10.826 12/05/1995]',0.308,0.148,0.217,68.477,-
'[13:41:10.828 12/05/1995]',0.284,0.214,0.164,68.477,-
'[13:41:10.830 12/05/1995]',0.231,0.295,0.111,68.477,-
'[13:41:10.832 12/05/1995]',0.196,0.361,0.053,68.177,-
'[13:41:10.834 12/05/1995]',0.160,0.377,0.012,68.177,-
'[13:41:10.836 12/05/1995]',0.166,0.344,0.006,68.177,-
'[13:41:10.838 12/05/1995]',0.178,0.230,0.024,68.177,-
'[13:41:10.840 12/05/1995]',0.178,0.083,0.047,67.802,-
'[13:41:10.842 12/05/1995]',0.178,-0.080,0.077,67.802,-
'[13:41:10.844 12/05/1995]',0.178,-0.244,0.117,67.802,-
'[13:41:10.846 12/05/1995]',0.166,-0.391,0.141,67.802,-
'[13:41:10.848 12/05/1995]',0.160,-0.489,0.158,67.427,-
'[13:41:10.850 12/05/1995]',0.137,-0.554,0.153,67.427,-
'[13:41:10.852 12/05/1995]',0.095,-0.571,0.129,67.427,-
'[13:41:10.854 12/05/1995]',0.066,-0.587,0.100,67.427,-
'[13:41:10.856 12/05/1995]',0.030,-0.587,0.077,67.052,-
'[13:41:10.858 12/05/1995]',0.006,-0.554,0.053,67.052,-
'[13:41:10.860 12/05/1995]',-0.005,-0.505,0.035,67.052,-
'[13:41:10.862 12/05/1995]',-0.011,-0.440,0.030,67.052,-
'[13:41:10.864 12/05/1995]',-0.023,-0.358,0.012,66.677,-
'[13:41:10.866 12/05/1995]',-0.035,-0.293,0.006,66.677,-
'[13:41:10.868 12/05/1995]',-0.053,-0.195,-0.023,66.677,-
'[13:41:10.870 12/05/1995]',-0.071,-0.130,-0.035,66.677,-
'[13:41:10.872 12/05/1995]',-0.077,-0.080,-0.052,66.302,-
'[13:41:10.874 12/05/1995]',-0.071,-0.031,-0.064,66.302,-
'[13:41:10.876 12/05/1995]',-0.071,-0.015,-0.064,66.302,-
'[13:41:10.878 12/05/1995]',-0.065,0.001,-0.052,66.302,-
'[13:41:10.880 12/05/1995]',-0.053,0.001,-0.052,66.002,-
'[13:41:10.882 12/05/1995]',-0.065,0.001,-0.046,66.002,-
'[13:41:10.884 12/05/1995]',-0.065,0.001,-0.035,66.002,-
'[13:41:10.886 12/05/1995]',-0.065,-0.015,-0.035,66.002,-
'[13:41:10.888 12/05/1995]',-0.065,-0.015,-0.035,65.702,-
'[13:41:10.890 12/05/1995]',-0.065,-0.031,-0.035,65.702,-
'[13:41:10.892 12/05/1995]',-0.065,-0.031,-0.035,65.702,-
'[13:41:10.894 12/05/1995]',-0.065,-0.048,-0.046,65.702,-
'[13:41:10.896 12/05/1995]',-0.053,-0.031,-0.046,65.477,-
'[13:41:10.898 12/05/1995]',-0.053,-0.015,-0.035,65.477,-
'[13:41:10.900 12/05/1995]',-0.053,0.001,-0.035,65.477,-
'[13:41:10.902 12/05/1995]',-0.053,0.017,-0.035,65.477,-
'[13:41:10.904 12/05/1995]',-0.053,0.034,-0.029,65.177,-
'[13:41:10.906 12/05/1995]',-0.047,0.034,-0.029,65.177,-
'[13:41:10.908 12/05/1995]',-0.047,0.034,-0.029,65.177,-
'[13:41:10.910 12/05/1995]',-0.047,0.034,-0.029,65.177,-
'[13:41:10.912 12/05/1995]',-0.035,0.034,-0.029,64.802,-
'[13:41:10.914 12/05/1995]',-0.047,0.034,-0.035,64.802,-
'[13:41:10.916 12/05/1995]',-0.035,0.034,-0.035,64.802,-
'[13:41:10.918 12/05/1995]',-0.035,0.034,-0.035,64.802,-
'[13:41:10.920 12/05/1995]',-0.047,0.034,-0.035,64.577,-
'[13:41:10.922 12/05/1995]',-0.047,0.017,-0.046,64.577,-
'[13:41:10.924 12/05/1995]',-0.047,0.017,-0.052,64.577,-
'[13:41:10.926 12/05/1995]',-0.047,0.017,-0.052,64.577,-
'[13:41:10.928 12/05/1995]',-0.035,0.017,-0.052,64.352,-
'[13:41:10.930 12/05/1995]',-0.035,0.034,-0.052,64.352,-
'[13:41:10.932 12/05/1995]',-0.035,0.034,-0.046,64.352,-
'[13:41:10.934 12/05/1995]',-0.047,0.034,-0.052,64.352,-
'[13:41:10.936 12/05/1995]',-0.047,0.017,-0.046,64.202,-
'[13:41:10.938 12/05/1995]',-0.047,0.017,-0.046,64.202,-
'[13:41:10.940 12/05/1995]',-0.053,0.034,-0.046,64.202,-
'[13:41:10.942 12/05/1995]',-0.071,0.066,-0.046,64.202,-
'[13:41:10.944 12/05/1995]',-0.065,0.099,-0.046,63.977,-
'[13:41:10.946 12/05/1995]',-0.065,0.115,-0.046,63.977,-
'[13:41:10.948 12/05/1995]',-0.065,0.132,-0.035,63.977,-
'[13:41:10.950 12/05/1995]',-0.053,0.115,-0.035,63.977,-
'[13:41:10.952 12/05/1995]',-0.053,0.115,-0.035,63.677,-
'[13:41:10.954 12/05/1995]',-0.053,0.099,-0.035,63.677,-
'[13:41:10.956 12/05/1995]',-0.047,0.099,-0.035,63.677,-
'[13:41:10.958 12/05/1995]',-0.035,0.099,-0.035,63.677,-
'[13:41:10.960 12/05/1995]',-0.047,0.099,-0.046,63.452,-
'[13:41:10.962 12/05/1995]',-0.047,0.099,-0.046,63.452,-
'[13:41:10.964 12/05/1995]',-0.047,0.099,-0.046,63.452,-
'[13:41:10.966 12/05/1995]',-0.047,0.099,-0.052,63.452,-
'[13:41:10.968 12/05/1995]',-0.047,0.083,-0.052,63.227,-
'[13:41:10.970 12/05/1995]',-0.053,0.066,-0.052,63.227,-
'[13:41:10.972 12/05/1995]',-0.047,0.066,-0.052,63.227,-
'[13:41:10.974 12/05/1995]',-0.047,0.066,-0.052,63.227,-
'[13:41:10.976 12/05/1995]',-0.047,0.066,-0.052,63.002,-
'[13:41:10.978 12/05/1995]',-0.047,0.050,-0.064,63.002,-
'[13:41:10.980 12/05/1995]',-0.047,0.050,-0.052,63.002,-
'[13:41:10.982 12/05/1995]',-0.047,0.066,-0.064,63.002,-
'[13:41:10.984 12/05/1995]',-0.047,0.050,-0.052,62.777,-
'[13:41:10.986 12/05/1995]',-0.047,0.034,-0.064,62.777,-
'[13:41:10.988 12/05/1995]',-0.035,0.034,-0.064,62.777,-
'[13:41:10.990 12/05/1995]',-0.047,0.034,-0.070,62.777,-
'[13:41:10.992 12/05/1995]',-0.047,0.034,-0.070,62.777,-
'[13:41:10.994 12/05/1995]',-0.047,0.034,-0.070,62.777,-
'[13:41:10.996 12/05/1995]',-0.047,0.050,-0.070,62.777,-
'[13:41:10.998 12/05/1995]',-0.047,0.050,-0.070,62.777,-
'[13:41:11.000 12/05/1995]',-0.035,0.050,-0.064,63.077,-
'[13:41:11.002 12/05/1995]',-0.047,0.050,-0.052,63.077,-
'[13:41:11.004 12/05/1995]',-0.047,0.066,-0.052,63.077,-
'[13:41:11.006 12/05/1995]',-0.047,0.066,-0.052,63.077,-
'[13:41:11.008 12/05/1995]',-0.047,0.066,-0.052,63.977,-
'[13:41:11.010 12/05/1995]',-0.047,0.066,-0.064,63.977,-
'[13:41:11.012 12/05/1995]',-0.053,0.083,-0.064,63.977,-
'[13:41:11.014 12/05/1995]',-0.047,0.083,-0.052,63.977,-
'[13:41:11.016 12/05/1995]',-0.047,0.083,-0.052,66.302,-
'[13:41:11.018 12/05/1995]',-0.047,0.066,-0.052,66.302,-
'[13:41:11.020 12/05/1995]',-0.047,0.050,-0.052,66.302,-
'[13:41:11.022 12/05/1995]',-0.035,0.050,-0.064,66.302,-
'[13:41:11.024 12/05/1995]',-0.047,0.050,-0.064,70.727,-
'[13:41:11.026 12/05/1995]',-0.035,0.050,-0.052,70.727,-
'[13:41:11.028 12/05/1995]',-0.047,0.066,-0.052,70.727,-
'[13:41:11.030 12/05/1995]',-0.035,0.066,-0.064,70.727,-
'[13:41:11.032 12/05/1995]',-0.047,0.066,-0.052,77.702,-
'[13:41:11.034 12/05/1995]',-0.047,0.066,-0.052,77.702,-
'[13:41:11.036 12/05/1995]',-0.047,0.066,-0.064,77.702,-
'[13:41:11.038 12/05/1995]',-0.047,0.050,-0.046,77.702,-
'[13:41:11.040 12/05/1995]',-0.035,0.050,-0.052,86.627,-
'[13:41:11.042 12/05/1995]',-0.035,0.050,-0.052,86.627,-
'[13:41:11.044 12/05/1995]',-0.035,0.050,-0.052,86.627,-
'[13:41:11.046 12/05/1995]',-0.035,0.050,-0.052,86.627,-
'[13:41:11.048 12/05/1995]',-0.035,0.066,-0.046,96.002,-
'[13:41:11.050 12/05/1995]',-0.029,0.066,-0.046,96.002,-
'[13:41:11.052 12/05/1995]',-0.029,0.066,-0.035,96.002,-
'[13:41:11.054 12/05/1995]',-0.029,0.066,-0.029,96.002,-
'[13:41:11.056 12/05/1995]',-0.029,0.066,-0.035,104.478,-
'[13:41:11.058 12/05/1995]',-0.035,0.083,-0.035,104.478,-
'[13:41:11.060 12/05/1995]',-0.029,0.066,-0.035,104.478,-
'[13:41:11.062 12/05/1995]',-0.023,0.066,-0.035,104.478,-
'[13:41:11.064 12/05/1995]',-0.029,0.066,-0.035,111.678,-
'[13:41:11.066 12/05/1995]',-0.023,0.066,-0.029,111.678,-
'[13:41:11.068 12/05/1995]',-0.023,0.066,-0.029,111.678,-
'[13:41:11.070 12/05/1995]',-0.011,0.066,-0.011,111.678,-
'[13:41:11.072 12/05/1995]',-0.023,0.083,-0.011,117.603,-
'[13:41:11.074 12/05/1995]',-0.011,0.083,-0.011,117.603,-
'[13:41:11.076 12/05/1995]',-0.011,0.066,-0.011,117.603,-
'[13:41:11.078 12/05/1995]',-0.005,0.066,-0.011,117.603,-
'[13:41:11.080 12/05/1995]',-0.005,0.083,-0.005,122.253,-
'[13:41:11.082 12/05/1995]',-0.011,0.099,0.001,122.253,-
'[13:41:11.084 12/05/1995]',-0.011,0.132,0.006,122.253,-
'[13:41:11.086 12/05/1995]',-0.011,0.148,0.012,122.253,-
'[13:41:11.088 12/05/1995]',-0.011,0.132,0.012,125.553,-
'[13:41:11.090 12/05/1995]',-0.011,0.132,0.024,125.553,-
'[13:41:11.092 12/05/1995]',-0.011,0.115,0.012,125.553,-
'[13:41:11.094 12/05/1995]',-0.005,0.083,0.012,125.553,-
'[13:41:11.096 12/05/1995]',0.001,0.066,0.006,127.653,-
'[13:41:11.098 12/05/1995]',0.006,0.034,0.001,127.653,-
'[13:41:11.100 12/05/1995]',0.001,0.017,0.001,127.653,-
'[13:41:11.102 12/05/1995]',0.001,0.017,0.001,127.653,-
'[13:41:11.104 12/05/1995]',0.001,0.017,0.001,129.003,-
'[13:41:11.106 12/05/1995]',0.001,0.017,0.001,129.003,-
'[13:41:11.108 12/05/1995]',0.006,0.034,0.006,129.003,-
'[13:41:11.110 12/05/1995]',0.001,0.034,0.006,129.003,-
'[13:41:11.112 12/05/1995]',0.012,0.034,0.006,129.903,-
'[13:41:11.114 12/05/1995]',0.012,0.017,0.006,129.903,-
'[13:41:11.116 12/05/1995]',0.012,0.034,0.012,129.903,-
'[13:41:11.118 12/05/1995]',0.012,0.034,0.012,129.903,-
'[13:41:11.120 12/05/1995]',0.006,0.017,0.012,130.428,-
'[13:41:11.122 12/05/1995]',0.012,0.017,0.012,130.428,-
'[13:41:11.124 12/05/1995]',0.006,0.001,0.006,130.428,-
'[13:41:11.126 12/05/1995]',0.006,0.001,0.006,130.428,-
'[13:41:11.128 12/05/1995]',0.012,0.001,0.006,130.503,-
'[13:41:11.130 12/05/1995]',0.006,0.001,0.001,130.503,-
'[13:41:11.132 12/05/1995]',0.012,-0.015,0.006,130.503,-
'[13:41:11.134 12/05/1995]',0.012,-0.015,0.006,130.503,-
'[13:41:11.136 12/05/1995]',0.012,-0.015,0.006,130.278,-
'[13:41:11.138 12/05/1995]',0.012,-0.015,0.006,130.278,-
'[13:41:11.140 12/05/1995]',0.006,-0.015,0.006,130.278,-
'[13:41:11.142 12/05/1995]',0.006,0.001,0.006,130.278,-
'[13:41:11.144 12/05/1995]',0.006,0.001,0.001,129.753,-
'[13:41:11.146 12/05/1995]',0.006,0.001,0.006,129.753,-
'[13:41:11.148 12/05/1995]',0.006,0.001,0.006,129.753,-
'[13:41:11.150 12/05/1995]',0.006,0.017,0.006,129.753,-
'[13:41:11.152 12/05/1995]',0.006,0.017,0.006,129.003,-
'[13:41:11.154 12/05/1995]',0.012,0.017,0.006,129.003,-
'[13:41:11.156 12/05/1995]',0.012,0.001,0.006,129.003,-
'[13:41:11.158 12/05/1995]',0.012,0.017,0.006,129.003,-
'[13:41:11.160 12/05/1995]',0.006,0.017,0.012,127.953,-
'[13:41:11.162 12/05/1995]',0.006,0.017,0.006,127.953,-
'[13:41:11.164 12/05/1995]',0.001,0.017,0.001,127.953,-
'[13:41:11.166 12/05/1995]',0.001,0.017,0.006,127.953,-
'[13:41:11.168 12/05/1995]',0.006,0.034,0.012,126.753,-
'[13:41:11.170 12/05/1995]',0.001,0.034,0.012,126.753,-
'[13:41:11.172 12/05/1995]',0.006,0.034,0.012,126.753,-
'[13:41:11.174 12/05/1995]',0.001,0.034,0.012,126.753,-
'[13:41:11.176 12/05/1995]',-0.005,0.050,0.006,125.403,-
'[13:41:11.178 12/05/1995]',-0.011,0.066,0.006,125.403,-
'[13:41:11.180 12/05/1995]',-0.023,0.066,0.001,125.403,-
'[13:41:11.182 12/05/1995]',-0.011,0.050,0.001,125.403,-
'[13:41:11.184 12/05/1995]',-0.011,0.034,0.001,123.828,-
'[13:41:11.186 12/05/1995]',-0.005,0.017,0.001,123.828,-
'[13:41:11.188 12/05/1995]',-0.005,0.017,0.001,123.828,-
'[13:41:11.190 12/05/1995]',-0.005,0.001,-0.005,123.828,-
'[13:41:11.192 12/05/1995]',0.001,0.001,-0.005,121.953,-
'[13:41:11.194 12/05/1995]',0.001,0.001,-0.005,121.953,-
'[13:41:11.196 12/05/1995]',0.001,-0.015,-0.011,121.953,-
'[13:41:11.198 12/05/1995]',-0.005,-0.031,-0.011,121.953,-
'[13:41:11.200 12/05/1995]',0.001,-0.031,-0.011,120.078,-
'[13:41:11.202 12/05/1995]',0.001,-0.031,-0.011,120.078,-
'[13:41:11.204 12/05/1995]',0.001,-0.031,-0.005,120.078,-
'[13:41:11.206 12/05/1995]',-0.005,-0.015,-0.005,120.078,-
'[13:41:11.208 12/05/1995]',0.001,0.001,-0.005,117.828,-
'[13:41:11.210 12/05/1995]',-0.005,0.034,0.001,117.828,-
'[13:41:11.212 12/05/1995]',-0.005,0.050,0.001,117.828,-
'[13:41:11.214 12/05/1995]',-0.011,0.050,0.001,117.828,-
'[13:41:11.216 12/05/1995]',-0.011,0.034,-0.005,115.128,-
'[13:41:11.218 12/05/1995]',-0.011,0.017,-0.005,115.128,-
'[13:41:11.220 12/05/1995]',-0.011,0.001,-0.005,115.128,-
'[13:41:11.222 12/05/1995]',-0.011,-0.015,-0.011,115.128,-
'[13:41:11.224 12/05/1995]',-0.011,-0.015,-0.011,112.128,-
'[13:41:11.226 12/05/1995]',-0.005,-0.015,-0.005,112.128,-
'[13:41:11.228 12/05/1995]',-0.011,0.001,-0.011,112.128,-
'[13:41:11.230 12/05/1995]',-0.005,0.001,-0.005,112.128,-
'[13:41:11.232 12/05/1995]',-0.005,0.017,-0.005,108.603,-
'[13:41:11.234 12/05/1995]',-0.011,0.001,-0.005,108.603,-
'[13:41:11.236 12/05/1995]',-0.011,0.001,-0.005,108.603,-
'[13:41:11.238 12/05/1995]',-0.005,0.001,-0.005,108.603,-
'[13:41:11.240 12/05/1995]',-0.011,0.001,-0.005,104.628,-
'[13:41:11.242 12/05/1995]',-0.011,0.034,0.001,104.628,-
'[13:41:11.244 12/05/1995]',-0.005,0.050,0.006,104.628,-
'[13:41:11.246 12/05/1995]',-0.005,0.066,0.006,104.628,-
'[13:41:11.248 12/05/1995]',-0.011,0.099,0.012,100.578,-
'[13:41:11.250 12/05/1995]',-0.023,0.148,0.024,100.578,-
'[13:41:11.252 12/05/1995]',-0.023,0.148,0.024,100.578,-
'[13:41:11.254 12/05/1995]',-0.023,0.148,0.024,100.578,-
'[13:41:11.256 12/05/1995]',-0.029,0.115,0.006,96.977,-
'[13:41:11.258 12/05/1995]',-0.029,0.066,-0.005,96.977,-
'[13:41:11.260 12/05/1995]',-0.011,0.001,-0.011,96.977,-
'[13:41:11.262 12/05/1995]',-0.011,-0.031,-0.029,96.977,-
'[13:41:11.264 12/05/1995]',-0.005,-0.048,-0.023,94.127,-
'[13:41:11.266 12/05/1995]',-0.005,-0.031,-0.029,94.127,-
'[13:41:11.268 12/05/1995]',-0.005,-0.031,-0.011,94.127,-
'[13:41:11.270 12/05/1995]',-0.005,-0.031,-0.011,94.127,-
'[13:41:11.272 12/05/1995]',-0.005,-0.015,-0.011,92.252,-
'[13:41:11.274 12/05/1995]',-0.005,-0.015,-0.011,92.252,-
'[13:41:11.276 12/05/1995]',-0.005,-0.031,-0.023,92.252,-
'[13:41:11.278 12/05/1995]',-0.005,-0.015,-0.023,92.252,-
'[13:41:11.280 12/05/1995]',-0.005,-0.015,-0.011,91.127,-
'[13:41:11.282 12/05/1995]',-0.005,-0.031,-0.023,91.127,-
'[13:41:11.284 12/05/1995]',-0.005,-0.048,-0.023,91.127,-
'[13:41:11.286 12/05/1995]',-0.005,-0.048,-0.023,91.127,-
'[13:41:11.288 12/05/1995]',-0.005,-0.031,-0.023,90.377,-
'[13:41:11.290 12/05/1995]',-0.005,-0.031,-0.023,90.377,-
'[13:41:11.292 12/05/1995]',-0.011,-0.031,-0.023,90.377,-
'[13:41:11.294 12/05/1995]',-0.005,-0.031,-0.023,90.377,-
'[13:41:11.296 12/05/1995]',-0.005,-0.031,-0.023,89.777,-
'[13:41:11.298 12/05/1995]',-0.005,-0.031,-0.023,89.777,-
'[13:41:11.300 12/05/1995]',-0.011,-0.031,-0.023,89.777,-
'[13:41:11.302 12/05/1995]',-0.011,-0.015,-0.011,89.777,-
'[13:41:11.304 12/05/1995]',-0.011,-0.015,-0.011,89.177,-
'[13:41:11.306 12/05/1995]',-0.011,0.001,-0.005,89.177,-
'[13:41:11.308 12/05/1995]',-0.011,0.001,-0.005,89.177,-
'[13:41:11.310 12/05/1995]',-0.011,0.017,-0.005,89.177,-
'[13:41:11.312 12/05/1995]',-0.011,0.017,-0.005,88.727,-
'[13:41:11.314 12/05/1995]',-0.011,0.017,-0.011,88.727,-
'[13:41:11.316 12/05/1995]',-0.011,0.001,-0.011,88.727,-
'[13:41:11.318 12/05/1995]',-0.023,0.001,-0.011,88.727,-
'[13:41:11.320 12/05/1995]',-0.011,0.001,-0.011,88.427,-
'[13:41:11.322 12/05/1995]',-0.023,0.001,-0.011,88.427,-
'[13:41:11.324 12/05/1995]',-0.023,0.001,-0.011,88.427,-
'[13:41:11.326 12/05/1995]',-0.023,0.001,-0.011,88.427,-
'[13:41:11.328 12/05/1995]',-0.011,-0.015,-0.023,87.977,-
'[13:41:11.330 12/05/1995]',-0.011,0.001,-0.023,87.977,-
'[13:41:11.332 12/05/1995]',-0.011,0.001,-0.023,87.977,-
'[13:41:11.334 12/05/1995]',-0.011,0.001,-0.011,87.977,-
'[13:41:11.336 12/05/1995]',-0.023,0.001,-0.011,87.677,-
'[13:41:11.338 12/05/1995]',-0.023,0.001,-0.011,87.677,-
'[13:41:11.340 12/05/1995]',-0.023,-0.015,-0.011,87.677,-
'[13:41:11.342 12/05/1995]',-0.023,-0.015,-0.023,87.677,-
'[13:41:11.344 12/05/1995]',-0.023,0.001,-0.023,87.302,-
'[13:41:11.346 12/05/1995]',-0.011,0.001,-0.023,87.302,-
'[13:41:11.348 12/05/1995]',-0.023,0.001,-0.011,87.302,-
'[13:41:11.350 12/05/1995]',-0.023,0.001,-0.023,87.302,-
'[13:41:11.352 12/05/1995]',-0.023,0.001,-0.011,86.927,-
'[13:41:11.354 12/05/1995]',-0.023,0.001,-0.011,86.927,-
'[13:41:11.356 12/05/1995]',-0.023,-0.015,-0.011,86.927,-
'[13:41:11.358 12/05/1995]',-0.023,0.001,-0.011,86.927,-
'[13:41:11.360 12/05/1995]',-0.011,0.001,-0.011,86.477,-
'[13:41:11.362 12/05/1995]',-0.011,0.017,-0.005,86.477,-
'[13:41:11.364 12/05/1995]',-0.023,0.017,-0.005,86.477,-
'[13:41:11.366 12/05/1995]',-0.011,0.017,-0.005,86.477,-
'[13:41:11.368 12/05/1995]',-0.023,0.017,-0.005,85.877,-
'[13:41:11.370 12/05/1995]',-0.023,0.001,-0.005,85.877,-
'[13:41:11.372 12/05/1995]',-0.011,0.001,-0.005,85.877,-
'[13:41:11.374 12/05/1995]',-0.011,0.001,-0.005,85.877,-
'[13:41:11.376 12/05/1995]',-0.011,0.001,-0.011,85.277,-
'[13:41:11.378 12/05/1995]',-0.011,0.001,-0.011,85.277,-
'[13:41:11.380 12/05/1995]',-0.023,0.001,-0.005,85.277,-
'[13:41:11.382 12/05/1995]',-0.023,0.001,-0.005,85.277,-
'[13:41:11.384 12/05/1995]',-0.023,0.001,-0.011,84.527,-
'[13:41:11.386 12/05/1995]',-0.011,0.001,-0.005,84.527,-
'[13:41:11.388 12/05/1995]',-0.011,0.001,-0.005,84.527,-
'[13:41:11.390 12/05/1995]',-0.023,0.001,-0.005,84.527,-
'[13:41:11.392 12/05/1995]',-0.023,0.001,-0.011,83.777,-
'[13:41:11.394 12/05/1995]',-0.023,0.001,-0.011,83.777,-
'[13:41:11.396 12/05/1995]',-0.029,-0.015,-0.011,83.777,-
'[13:41:11.398 12/05/1995]',-0.023,-0.015,-0.011,83.777,-
'[13:41:11.400 12/05/1995]',-0.011,-0.031,-0.011,83.027,-
'[13:41:11.402 12/05/1995]',-0.023,-0.031,-0.011,83.027,-
'[13:41:11.404 12/05/1995]',-0.011,-0.031,-0.005,83.027,-
'[13:41:11.406 12/05/1995]',-0.011,-0.031,-0.005,83.027,-
'[13:41:11.408 12/05/1995]',-0.011,-0.031,-0.005,82.277,-
'[13:41:11.410 12/05/1995]',-0.023,0.001,-0.005,82.277,-
'[13:41:11.412 12/05/1995]',-0.023,0.001,-0.005,82.277,-
'[13:41:11.414 12/05/1995]',-0.011,0.001,-0.005,82.277,-
'[13:41:11.416 12/05/1995]',-0.011,0.001,0.001,81.452,-
'[13:41:11.418 12/05/1995]',-0.011,0.017,0.001,81.452,-
'[13:41:11.420 12/05/1995]',-0.011,0.017,0.001,81.452,-
'[13:41:11.422 12/05/1995]',-0.011,0.017,0.001,81.452,-
'[13:41:11.424 12/05/1995]',-0.011,0.017,-0.005,80.627,-
'[13:41:11.426 12/05/1995]',-0.011,0.001,-0.005,80.627,-
'[13:41:11.428 12/05/1995]',-0.005,0.001,-0.005,80.627,-
'[13:41:11.430 12/05/1995]',-0.005,0.001,-0.005,80.627,-
'[13:41:11.432 12/05/1995]',-0.011,0.001,-0.005,79.802,-
'[13:41:11.434 12/05/1995]',-0.011,-0.015,-0.005,79.802,-
'[13:41:11.436 12/05/1995]',-0.011,-0.015,-0.005,79.802,-
'[13:41:11.438 12/05/1995]',-0.011,-0.015,-0.005,79.802,-
'[13:41:11.440 12/05/1995]',-0.023,-0.015,-0.005,79.052,-
'[13:41:11.442 12/05/1995]',-0.023,-0.015,-0.005,79.052,-
'[13:41:11.444 12/05/1995]',-0.023,-0.015,-0.005,79.052,-
'[13:41:11.446 12/05/1995]',-0.023,-0.015,-0.005,79.052,-
'[13:41:11.448 12/05/1995]',-0.011,-0.015,-0.005,78.302,-
'[13:41:11.450 12/05/1995]',-0.011,-0.015,-0.005,78.302,-
'[13:41:11.452 12/05/1995]',-0.011,-0.015,-0.005,78.302,-
'[13:41:11.454 12/05/1995]',-0.005,-0.015,-0.005,78.302,-
'[13:41:11.456 12/05/1995]',-0.005,-0.031,-0.005,77.552,-
'[13:41:11.458 12/05/1995]',-0.011,-0.048,-0.005,77.552,-
'[13:41:11.460 12/05/1995]',0.001,-0.048,-0.011,77.552,-
'[13:41:11.462 12/05/1995]',0.001,-0.048,-0.011,77.552,-
'[13:41:11.464 12/05/1995]',-0.005,-0.031,-0.005,76.877,-
'[13:41:11.466 12/05/1995]',-0.011,0.001,0.006,76.877,-
'[13:41:11.468 12/05/1995]',-0.023,0.066,0.024,76.877,-
'[13:41:11.470 12/05/1995]',-0.029,0.099,0.035,76.877,-
'[13:41:11.472 12/05/1995]',-0.035,0.099,0.024,76.277,-
'[13:41:11.474 12/05/1995]',-0.035,0.066,0.012,76.277,-
'[13:41:11.476 12/05/1995]',-0.029,0.050,0.001,76.277,-
'[13:41:11.478 12/05/1995]',-0.029,0.034,-0.005,76.277,-
'[13:41:11.480 12/05/1995]',-0.023,0.001,-0.005,75.677,-
'[13:41:11.482 12/05/1995]',-0.011,-0.015,-0.011,75.677,-
'[13:41:11.484 12/05/1995]',-0.011,-0.015,-0.011,75.677,-
'[13:41:11.486 12/05/1995]',-0.023,-0.015,-0.023,75.677,-
'[13:41:11.488 12/05/1995]',-0.011,-0.015,-0.011,75.227,-
'[13:41:11.490 12/05/1995]',-0.005,-0.015,-0.011,75.227,-
'[13:41:11.492 12/05/1995]',-0.005,0.001,-0.011,75.227,-
'[13:41:11.494 12/05/1995]',0.001,0.001,0.001,75.227,-
'[13:41:11.496 12/05/1995]',-0.005,0.001,0.006,74.852,-
'[13:41:11.498 12/05/1995]',0.001,0.017,0.006,74.852,-
'[13:41:11.500 12/05/1995]',-0.005,0.001,0.006,74.852,-
'[13:41:11.502 12/05/1995]',-0.005,-0.015,0.006,74.852,-
'[13:41:11.504 12/05/1995]',-0.011,-0.015,0.001,74.327,-
'[13:41:11.506 12/05/1995]',-0.023,-0.015,-0.005,74.327,-
'[13:41:11.508 12/05/1995]',-0.035,-0.015,-0.011,74.327,-
'[13:41:11.510 12/05/1995]',-0.047,0.001,-0.023,74.327,-
'[13:41:11.512 12/05/1995]',-0.053,0.001,-0.029,73.877,-
'[13:41:11.514 12/05/1995]',-0.065,0.001,-0.029,73.877,-
'[13:41:11.516 12/05/1995]',-0.071,0.001,-0.029,73.877,-
'[13:41:11.518 12/05/1995]',-0.071,0.001,-0.029,73.877,-
'[13:41:11.520 12/05/1995]',-0.065,0.001,-0.029,73.427,-
'[13:41:11.522 12/05/1995]',-0.065,0.001,-0.029,73.427,-
'[13:41:11.524 12/05/1995]',-0.065,0.017,-0.029,73.427,-
'[13:41:11.526 12/05/1995]',-0.065,0.017,-0.029,73.427,-
'[13:41:11.528 12/05/1995]',-0.053,0.017,-0.029,72.977,-
'[13:41:11.530 12/05/1995]',-0.065,0.017,-0.029,72.977,-
'[13:41:11.532 12/05/1995]',-0.065,0.017,-0.029,72.977,-
'[13:41:11.534 12/05/1995]',-0.065,0.017,-0.029,72.977,-
'[13:41:11.536 12/05/1995]',-0.065,0.017,-0.023,72.452,-
'[13:41:11.538 12/05/1995]',-0.065,0.001,-0.029,72.452,-
'[13:41:11.540 12/05/1995]',-0.053,0.001,-0.029,72.452,-
'[13:41:11.542 12/05/1995]',-0.053,0.001,-0.035,72.452,-
'[13:41:11.544 12/05/1995]',-0.047,0.001,-0.035,71.852,-
'[13:41:11.546 12/05/1995]',-0.047,0.001,-0.029,71.852,-
'[13:41:11.548 12/05/1995]',-0.047,-0.015,-0.029,71.852,-
'[13:41:11.550 12/05/1995]',-0.029,-0.031,-0.029,71.852,-
'[13:41:11.552 12/05/1995]',-0.023,-0.031,-0.023,71.252,-
'[13:41:11.554 12/05/1995]',-0.011,-0.048,-0.011,71.252,-
'[13:41:11.556 12/05/1995]',0.001,-0.064,-0.011,71.252,-
'[13:41:11.558 12/05/1995]',0.006,-0.064,-0.005,71.252,-
'[13:41:11.560 12/05/1995]',0.006,-0.048,0.001,70.727,-
'[13:41:11.562 12/05/1995]',0.006,-0.031,0.006,70.727,-
'[13:41:11.564 12/05/1995]',0.006,-0.031,0.006,70.727,-
'[13:41:11.566 12/05/1995]',0.001,-0.031,0.006,70.727,-
'[13:41:11.568 12/05/1995]',-0.005,-0.031,0.006,70.202,-
'[13:41:11.570 12/05/1995]',0.001,-0.048,0.006,70.202,-
'[13:41:11.572 12/05/1995]',0.012,-0.080,0.012,70.202,-
'[13:41:11.574 12/05/1995]',0.012,-0.080,0.006,70.202,-
'[13:41:11.576 12/05/1995]',0.012,-0.097,0.006,69.677,-
'[13:41:11.578 12/05/1995]',0.006,-0.097,0.006,69.677,-
'[13:41:11.580 12/05/1995]',0.006,-0.080,0.006,69.677,-
'[13:41:11.582 12/05/1995]',0.006,-0.048,0.012,69.677,-
'[13:41:11.584 12/05/1995]',0.006,-0.031,0.012,69.152,-
'[13:41:11.586 12/05/1995]',0.006,-0.048,0.012,69.152,-
'[13:41:11.588 12/05/1995]',0.006,-0.048,0.012,69.152,-
'[13:41:11.590 12/05/1995]',0.001,-0.048,0.006,69.152,-
'[13:41:11.592 12/05/1995]',-0.005,-0.031,0.006,68.627,-0.368
'[13:41:11.594 12/05/1995]',-0.005,-0.031,0.006,68.627,-0.368
'[13:41:11.596 12/05/1995]',-0.005,-0.048,0.001,68.627,-0.368
'[13:41:11.598 12/05/1995]',0.001,-0.031,0.006,68.627,-0.368
'[13:41:11.600 12/05/1995]',0.006,-0.031,0.012,68.102,0.560
'[13:41:11.602 12/05/1995]',0.006,-0.031,0.012,68.102,0.560
'[13:41:11.604 12/05/1995]',0.006,-0.031,0.024,68.102,0.560
'[13:41:11.606 12/05/1995]',0.012,-0.048,0.024,68.102,0.560
'[13:41:11.608 12/05/1995]',0.012,-0.048,0.012,67.727,1.024
'[13:41:11.610 12/05/1995]',0.006,-0.048,0.012,67.727,1.024
'[13:41:11.612 12/05/1995]',0.006,-0.064,0.006,67.727,1.024
'[13:41:11.614 12/05/1995]',0.006,-0.064,0.006,67.727,1.024
'[13:41:11.616 12/05/1995]',0.006,-0.064,0.012,67.277,1.024
'[13:41:11.618 12/05/1995]',0.006,-0.064,0.012,67.277,1.024
'[13:41:11.620 12/05/1995]',0.012,-0.064,0.024,67.277,1.024
'[13:41:11.622 12/05/1995]',0.012,-0.048,0.035,67.277,1.024
'[13:41:11.624 12/05/1995]',0.030,0.001,0.065,66.827,1.024
'[13:41:11.626 12/05/1995]',0.054,0.050,0.094,66.827,1.024
'[13:41:11.628 12/05/1995]',0.089,0.066,0.129,66.827,1.024
'[13:41:11.630 12/05/1995]',0.119,0.083,0.158,66.827,1.024
'[13:41:11.632 12/05/1995]',0.143,0.099,0.199,66.527,1.024
'[13:41:11.634 12/05/1995]',0.202,0.050,0.229,66.527,1.024
'[13:41:11.636 12/05/1995]',0.249,0.001,0.269,66.527,1.024
'[13:41:11.638 12/05/1995]',0.290,0.001,0.293,66.527,1.024
'[13:41:11.640 12/05/1995]',0.308,0.034,0.293,66.227,1.024
'[13:41:11.642 12/05/1995]',0.332,0.066,0.287,66.227,1.024
'[13:41:11.644 12/05/1995]',0.314,0.099,0.263,66.227,1.024
'[13:41:11.646 12/05/1995]',0.314,0.115,0.240,66.227,1.024
'[13:41:11.648 12/05/1995]',0.290,0.115,0.176,65.927,1.024
'[13:41:11.650 12/05/1995]',0.249,0.165,0.111,65.927,1.024
'[13:41:11.652 12/05/1995]',0.208,0.230,0.047,65.927,1.024
'[13:41:11.654 12/05/1995]',0.160,0.279,0.006,65.927,1.024
'[13:41:11.656 12/05/1995]',0.154,0.246,-0.005,65.702,1.024
'[13:41:11.658 12/05/1995]',0.166,0.165,-0.005,65.702,1.024
'[13:41:11.660 12/05/1995]',0.184,0.034,0.012,65.702,1.024
'[13:41:11.662 12/05/1995]',0.202,-0.130,0.065,65.702,1.024
'[13:41:11.664 12/05/1995]',0.208,-0.309,0.117,65.477,1.024
'[13:41:11.666 12/05/1995]',0.219,-0.457,0.158,65.477,1.024
'[13:41:11.668 12/05/1995]',0.208,-0.554,0.182,65.477,1.024
'[13:41:11.670 12/05/1995]',0.184,-0.620,0.182,65.477,1.024
'[13:41:11.672 12/05/1995]',0.137,-0.653,0.153,65.252,1.024
'[13:41:11.674 12/05/1995]',0.095,-0.636,0.117,65.252,1.024
'[13:41:11.676 12/05/1995]',0.054,-0.636,0.100,65.252,1.024
'[13:41:11.678 12/05/1995]',0.030,-0.587,0.088,65.252,1.024
'[13:41:11.680 12/05/1995]',0.024,-0.522,0.071,65.027,1.024
'[13:41:11.682 12/05/1995]',0.024,-0.472,0.065,65.027,1.024
'[13:41:11.684 12/05/1995]',0.012,-0.424,0.053,65.027,1.024
'[13:41:11.686 12/05/1995]',0.006,-0.358,0.035,65.027,1.024
'[13:41:11.688 12/05/1995]',-0.011,-0.293,0.012,64.802,1.024
'[13:41:11.690 12/05/1995]',-0.029,-0.212,0.001,64.802,1.024
'[13:41:11.692 12/05/1995]',-0.035,-0.162,-0.011,64.802,1.024
'[13:41:11.694 12/05/1995]',-0.035,-0.097,-0.023,64.802,1.024
'[13:41:11.696 12/05/1995]',-0.035,-0.048,-0.023,64.577,1.024
'[13:41:11.698 12/05/1995]',-0.029,-0.015,-0.011,64.577,1.024
'[13:41:11.700 12/05/1995]',-0.029,-0.015,-0.005,64.577,1.024
'[13:41:11.702 12/05/1995]',-0.035,-0.015,-0.005,64.577,1.024
'[13:41:11.704 12/05/1995]',-0.029,-0.015,0.001,64.427,1.024
'[13:41:11.706 12/05/1995]',-0.035,0.001,0.001,64.427,1.024
'[13:41:11.708 12/05/1995]',-0.047,0.001,-0.005,64.427,1.024
'[13:41:11.710 12/05/1995]',-0.053,0.001,-0.005,64.427,1.024
'[13:41:11.712 12/05/1995]',-0.047,-0.015,-0.005,64.127,1.024
'[13:41:11.714 12/05/1995]',-0.035,-0.031,-0.011,64.127,1.024
'[13:41:11.716 12/05/1995]',-0.029,-0.048,-0.023,64.127,1.024
'[13:41:11.718 12/05/1995]',-0.029,-0.064,-0.011,64.127,1.024
'[13:41:11.720 12/05/1995]',-0.029,-0.048,-0.005,63.977,1.024
'[13:41:11.722 12/05/1995]',-0.029,-0.031,-0.005,63.977,1.024
'[13:41:11.724 12/05/1995]',-0.029,-0.015,0.001,63.977,1.024
'[13:41:11.726 12/05/1995]',-0.035,0.017,0.001,63.977,1.024
'[13:41:11.728 12/05/1995]',-0.035,0.050,0.012,63.677,1.024
'[13:41:11.730 12/05/1995]',-0.035,0.066,0.024,63.677,1.024
'[13:41:11.732 12/05/1995]',-0.035,0.066,0.012,63.677,1.024
'[13:41:11.734 12/05/1995]',-0.035,0.066,0.024,63.677,1.024
'[13:41:11.736 12/05/1995]',-0.029,0.083,0.024,63.527,1.024
'[13:41:11.738 12/05/1995]',-0.029,0.066,0.012,63.527,1.024
'[13:41:11.740 12/05/1995]',-0.035,0.017,-0.005,63.527,1.024
'[13:41:11.742 12/05/1995]',-0.029,-0.015,-0.011,63.527,1.024
'[13:41:11.744 12/05/1995]',-0.023,-0.048,-0.023,63.377,1.024
'[13:41:11.746 12/05/1995]',-0.011,-0.080,-0.035,63.377,1.024
'[13:41:11.748 12/05/1995]',-0.011,-0.080,-0.035,63.377,1.024
'[13:41:11.750 12/05/1995]',-0.023,-0.097,-0.029,63.377,1.024
'[13:41:11.752 12/05/1995]',-0.023,-0.097,-0.029,63.227,1.024
'[13:41:11.754 12/05/1995]',-0.023,-0.080,-0.029,63.227,1.024
'[13:41:11.756 12/05/1995]',-0.029,-0.080,-0.029,63.227,1.024
'[13:41:11.758 12/05/1995]',-0.029,-0.064,-0.029,63.227,1.024
'[13:41:11.760 12/05/1995]',-0.023,-0.031,-0.023,63.002,1.024
'[13:41:11.762 12/05/1995]',-0.011,-0.015,-0.011,63.002,1.024
'[13:41:11.764 12/05/1995]',-0.011,-0.015,-0.023,63.002,1.024
'[13:41:11.766 12/05/1995]',-0.011,0.001,-0.011,63.002,1.024
'[13:41:11.768 12/05/1995]',-0.011,0.001,-0.011,62.927,1.024
'[13:41:11.770 12/05/1995]',-0.023,0.001,-0.011,62.927,1.024
'[13:41:11.772 12/05/1995]',-0.029,0.001,-0.011,62.927,1.024
'[13:41:11.774 12/05/1995]',-0.029,-0.015,-0.023,62.927,1.024
'[13:41:11.776 12/05/1995]',-0.035,-0.031,-0.029,62.627,1.024
'[13:41:11.778 12/05/1995]',-0.035,-0.015,-0.029,62.627,1.024
'[13:41:11.780 12/05/1995]',-0.035,-0.015,-0.029,62.627,1.024
'[13:41:11.782 12/05/1995]',-0.029,0.001,-0.023,62.627,1.024
'[13:41:11.784 12/05/1995]',-0.035,0.001,-0.023,62.327,1.024
'[13:41:11.786 12/05/1995]',-0.029,0.017,-0.005,62.327,1.024
'[13:41:11.788 12/05/1995]',-0.035,0.017,-0.011,62.327,1.024
'[13:41:11.790 12/05/1995]',-0.035,0.001,-0.011,62.327,1.024
'[13:41:11.792 12/05/1995]',-0.023,0.001,-0.023,62.027,1.024
'[13:41:11.794 12/05/1995]',-0.029,0.001,-0.011,62.027,1.024
'[13:41:11.796 12/05/1995]',-0.047,0.017,-0.023,62.027,1.024
'[13:41:11.798 12/05/1995]',-0.053,0.017,-0.023,62.027,1.024
'[13:41:11.800 12/05/1995]',-0.023,0.034,-0.005,61.727,1.024
'[13:41:11.802 12/05/1995]',-0.005,0.034,0.001,61.727,1.024
'[13:41:11.804 12/05/1995]',-0.023,0.050,-0.005,61.727,1.024
'[13:41:11.806 12/05/1995]',-0.023,0.034,-0.005,61.727,1.024
'[13:41:11.808 12/05/1995]',-0.029,0.017,-0.023,61.577,1.024
'[13:41:11.810 12/05/1995]',-0.035,0.017,-0.029,61.577,1.024
'[13:41:11.812 12/05/1995]',-0.029,0.001,-0.029,61.577,1.024
'[13:41:11.814 12/05/1995]',-0.023,-0.015,-0.035,61.577,1.024
'[13:41:11.816 12/05/1995]',-0.011,-0.048,-0.035,61.652,1.024
'[13:41:11.818 12/05/1995]',-0.023,-0.048,-0.035,61.652,1.024
'[13:41:11.820 12/05/1995]',-0.023,0.001,-0.023,61.652,1.024
'[13:41:11.822 12/05/1995]',-0.011,0.034,-0.011,61.652,1.024
'[13:41:11.824 12/05/1995]',-0.023,0.066,-0.011,62.252,1.024
'[13:41:11.826 12/05/1995]',-0.023,0.066,-0.011,62.252,1.024
'[13:41:11.828 12/05/1995]',-0.023,0.066,-0.011,62.252,1.024
'[13:41:11.830 12/05/1995]',-0.029,0.034,-0.023,62.252,1.024
'[13:41:11.832 12/05/1995]',-0.029,0.017,-0.029,63.827,1.024
'[13:41:11.834 12/05/1995]',-0.011,0.001,-0.023,63.827,1.024
'[13:41:11.836 12/05/1995]',-0.023,0.017,-0.011,63.827,1.024
'[13:41:11.838 12/05/1995]',-0.029,0.034,-0.011,63.827,1.024
'[13:41:11.840 12/05/1995]',-0.029,0.050,-0.005,67.352,1.024
'[13:41:11.842 12/05/1995]',-0.023,0.066,-0.005,67.352,1.024
'[13:41:11.844 12/05/1995]',-0.023,0.050,-0.005,67.352,1.024
'[13:41:11.846 12/05/1995]',-0.011,0.034,-0.011,67.352,1.024
'[13:41:11.848 12/05/1995]',-0.011,0.017,-0.011,73.877,1.024
'[13:41:11.850 12/05/1995]',-0.011,0.017,-0.011,73.877,1.024
'[13:41:11.852 12/05/1995]',-0.023,0.001,-0.011,73.877,1.024
'[13:41:11.854 12/05/1995]',-0.011,-0.015,-0.011,73.877,1.024
'[13:41:11.856 12/05/1995]',-0.011,-0.015,-0.011,83.477,1.024
'[13:41:11.858 12/05/1995]',-0.023,0.001,-0.011,83.477,1.024
'[13:41:11.860 12/05/1995]',-0.035,0.001,-0.011,83.477,1.024
'[13:41:11.862 12/05/1995]',-0.035,0.050,-0.011,83.477,1.024
'[13:41:11.864 12/05/1995]',-0.029,0.083,0.001,95.102,1.024
'[13:41:11.866 12/05/1995]',-0.023,0.083,0.001,95.102,1.024
'[13:41:11.868 12/05/1995]',-0.005,0.066,0.006,95.102,1.024
'[13:41:11.870 12/05/1995]',0.006,0.050,0.012,95.102,1.024
'[13:41:11.872 12/05/1995]',0.006,0.050,0.012,106.428,1.024
'[13:41:11.874 12/05/1995]',0.006,0.017,0.006,106.428,1.024
'[13:41:11.876 12/05/1995]',0.006,0.001,0.006,106.428,1.024
'[13:41:11.878 12/05/1995]',0.001,0.001,0.001,106.428,1.024
'[13:41:11.880 12/05/1995]',0.001,0.001,-0.005,115.503,1.024
'[13:41:11.882 12/05/1995]',0.001,0.001,-0.005,115.503,1.024
'[13:41:11.884 12/05/1995]',0.006,-0.015,-0.005,115.503,1.024
'[13:41:11.886 12/05/1995]',0.006,-0.031,0.001,115.503,1.024
'[13:41:11.888 12/05/1995]',0.012,-0.048,0.001,121.653,1.024
'[13:41:11.890 12/05/1995]',0.024,-0.048,0.001,121.653,1.024
'[13:41:11.892 12/05/1995]',0.012,-0.031,0.006,121.653,1.024
'[13:41:11.894 12/05/1995]',0.012,-0.015,0.006,121.653,1.024
'[13:41:11.896 12/05/1995]',0.006,0.001,0.012,125.703,1.024
'[13:41:11.898 12/05/1995]',0.006,0.017,0.024,125.703,1.024
'[13:41:11.900 12/05/1995]',0.006,0.017,0.024,125.703,1.024
'[13:41:11.902 12/05/1995]',0.006,0.017,0.030,125.703,1.024
'[13:41:11.904 12/05/1995]',0.006,0.001,0.030,128.403,1.024
'[13:41:11.906 12/05/1995]',0.006,0.001,0.030,128.403,1.024
'[13:41:11.908 12/05/1995]',0.012,-0.015,0.024,128.403,1.024
'[13:41:11.910 12/05/1995]',0.012,-0.031,0.024,128.403,1.024
'[13:41:11.912 12/05/1995]',0.012,-0.015,0.030,130.428,1.024
'[13:41:11.914 12/05/1995]',0.012,0.001,0.030,130.428,1.024
'[13:41:11.916 12/05/1995]',0.024,-0.015,0.030,130.428,1.024
'[13:41:11.918 12/05/1995]',0.030,-0.031,0.035,130.428,1.024
'[13:41:11.920 12/05/1995]',0.036,-0.031,0.035,131.853,1.024
'[13:41:11.922 12/05/1995]',0.030,-0.015,0.047,131.853,1.024
'[13:41:11.924 12/05/1995]',0.030,-0.015,0.047,131.853,1.024
'[13:41:11.926 12/05/1995]',0.030,-0.015,0.047,131.853,1.024
'[13:41:11.928 12/05/1995]',0.030,-0.015,0.047,132.603,1.024
'[13:41:11.930 12/05/1995]',0.024,0.001,0.047,132.603,1.024
'[13:41:11.932 12/05/1995]',0.006,0.001,0.047,132.603,1.024
'[13:41:11.934 12/05/1995]',0.012,0.001,0.035,132.603,1.024
'[13:41:11.936 12/05/1995]',0.036,-0.031,0.047,132.753,1.024
'[13:41:11.938 12/05/1995]',0.066,-0.048,0.047,132.753,1.024
'[13:41:11.940 12/05/1995]',0.072,-0.080,0.047,132.753,1.024
'[13:41:11.942 12/05/1995]',0.072,-0.080,0.035,132.753,1.024
'[13:41:11.944 12/05/1995]',0.054,-0.064,0.035,132.153,1.024
'[13:41:11.946 12/05/1995]',0.030,-0.048,0.030,132.153,1.024
'[13:41:11.948 12/05/1995]',0.024,-0.031,0.030,132.153,1.024
'[13:41:11.950 12/05/1995]',0.024,-0.015,0.035,132.153,1.024
'[13:41:11.952 12/05/1995]',0.030,-0.015,0.035,131.028,1.024
'[13:41:11.954 12/05/1995]',0.030,-0.031,0.030,131.028,1.024
'[13:41:11.956 12/05/1995]',0.030,-0.048,0.030,131.028,1.024
'[13:41:11.958 12/05/1995]',0.024,-0.031,0.030,131.028,1.024
'[13:41:11.960 12/05/1995]',0.001,0.001,0.030,129.603,1.024
'[13:41:11.962 12/05/1995]',-0.011,0.050,0.035,129.603,1.024
'[13:41:11.964 12/05/1995]',-0.011,0.066,0.047,129.603,1.024
'[13:41:11.966 12/05/1995]',-0.005,0.083,0.053,129.603,1.024
'[13:41:11.968 12/05/1995]',-0.011,0.083,0.053,127.953,1.024
'[13:41:11.970 12/05/1995]',0.001,0.066,0.047,127.953,1.024
'[13:41:11.972 12/05/1995]',0.012,0.050,0.047,127.953,1.024
'[13:41:11.974 12/05/1995]',0.036,0.017,0.035,127.953,1.024
'[13:41:11.976 12/05/1995]',0.036,0.001,0.030,126.303,1.024
'[13:41:11.978 12/05/1995]',0.024,-0.031,0.024,126.303,1.024
'[13:41:11.980 12/05/1995]',0.024,-0.080,0.006,126.303,1.024
'[13:41:11.982 12/05/1995]',0.030,-0.080,0.012,126.303,1.024
'[13:41:11.984 12/05/1995]',0.024,-0.064,0.024,124.578,1.024
'[13:41:11.986 12/05/1995]',0.006,-0.015,0.030,124.578,1.024
'[13:41:11.988 12/05/1995]',-0.005,0.017,0.030,124.578,1.024
'[13:41:11.990 12/05/1995]',-0.011,0.017,0.024,124.578,1.024
'[13:41:11.992 12/05/1995]',-0.011,0.001,0.012,122.778,1.024
'[13:41:11.994 12/05/1995]',-0.011,-0.031,0.006,122.778,1.024
'[13:41:11.996 12/05/1995]',-0.005,-0.064,-0.005,122.778,1.024
'[13:41:11.998 12/05/1995]',0.001,-0.080,-0.005,122.778,1.024
'[13:41:12.000 12/05/1995]',0.006,-0.080,-0.005,120.903,1.024
'[13:41:12.002 12/05/1995]',0.001,-0.064,0.001,120.903,1.024
'[13:41:12.004 12/05/1995]',0.001,-0.048,0.001,120.903,1.024
'[13:41:12.006 12/05/1995]',0.001,-0.048,0.006,120.903,1.024
'[13:41:12.008 12/05/1995]',0.001,-0.064,0.001,119.103,1.024
'[13:41:12.010 12/05/1995]',0.001,-0.064,0.001,119.103,1.024
'[13:41:12.012 12/05/1995]',0.001,-0.080,-0.005,119.103,1.024
'[13:41:12.014 12/05/1995]',-0.005,-0.080,-0.011,119.103,1.024
'[13:41:12.016 12/05/1995]',-0.011,-0.097,-0.011,117.228,1.024
'[13:41:12.018 12/05/1995]',-0.023,-0.097,-0.023,117.228,1.024
'[13:41:12.020 12/05/1995]',-0.023,-0.080,-0.005,117.228,1.024
'[13:41:12.022 12/05/1995]',-0.005,-0.048,0.001,117.228,1.024
'[13:41:12.024 12/05/1995]',-0.005,-0.031,0.006,115.278,1.024
'[13:41:12.026 12/05/1995]',0.001,-0.015,0.006,115.278,1.024
'[13:41:12.028 12/05/1995]',0.001,-0.031,0.001,115.278,1.024
'[13:41:12.030 12/05/1995]',-0.005,0.001,0.006,115.278,1.024
'[13:41:12.032 12/05/1995]',-0.011,0.001,0.006,113.103,1.024
'[13:41:12.034 12/05/1995]',-0.005,0.001,0.006,113.103,1.024
'[13:41:12.036 12/05/1995]',0.001,-0.015,0.006,113.103,1.024
'[13:41:12.038 12/05/1995]',0.001,-0.015,0.006,113.103,1.024
'[13:41:12.040 12/05/1995]',-0.005,0.001,0.001,110.478,1.024
'[13:41:12.042 12/05/1995]',-0.005,0.017,0.006,110.478,1.024
'[13:41:12.044 12/05/1995]',0.001,0.017,0.006,110.478,1.024
'[13:41:12.046 12/05/1995]',0.001,0.017,0.001,110.478,1.024
'[13:41:12.048 12/05/1995]',0.001,0.017,0.012,107.553,1.024
'[13:41:12.050 12/05/1995]',0.001,0.017,0.012,107.553,1.024
'[13:41:12.052 12/05/1995]',0.006,0.001,0.012,107.553,1.024
'[13:41:12.054 12/05/1995]',0.006,0.017,0.024,107.553,1.024
'[13:41:12.056 12/05/1995]',0.006,0.001,0.012,104.178,1.024
'[13:41:12.058 12/05/1995]',0.006,-0.015,0.006,104.178,1.024
'[13:41:12.060 12/05/1995]',0.001,-0.015,0.001,104.178,1.024
'[13:41:12.062 12/05/1995]',0.001,0.001,0.006,104.178,1.024
'[13:41:12.064 12/05/1995]',-0.011,0.034,0.012,100.278,1.024
'[13:41:12.066 12/05/1995]',-0.023,0.034,0.012,100.278,1.024
'[13:41:12.068 12/05/1995]',-0.011,0.034,0.024,100.278,1.024
'[13:41:12.070 12/05/1995]',-0.005,0.017,0.012,100.278,1.024
'[13:41:12.072 12/05/1995]',0.001,0.001,0.012,96.377,1.024
'[13:41:12.074 12/05/1995]',0.001,-0.031,0.006,96.377,1.024
'[13:41:12.076 12/05/1995]',0.001,-0.031,0.001,96.377,1.024
'[13:41:12.078 12/05/1995]',-0.005,-0.031,0.001,96.377,1.024
'[13:41:12.080 12/05/1995]',0.001,-0.015,0.001,92.927,1.024
'[13:41:12.082 12/05/1995]',-0.005,-0.015,0.006,92.927,1.024
'[13:41:12.084 12/05/1995]',-0.023,0.001,0.012,92.927,1.024
'[13:41:12.086 12/05/1995]',-0.011,0.034,0.030,92.927,1.024
'[13:41:12.088 12/05/1995]',-0.011,0.066,0.030,90.452,1.024
'[13:41:12.090 12/05/1995]',-0.011,0.066,0.030,90.452,1.024
'[13:41:12.092 12/05/1995]',-0.005,0.034,0.006,90.452,1.024
'[13:41:12.094 12/05/1995]',-0.005,-0.015,0.001,90.452,1.024
'[13:41:12.096 12/05/1995]',0.006,-0.064,-0.005,89.102,1.024
'[13:41:12.098 12/05/1995]',0.006,-0.097,-0.011,89.102,1.024
'[13:41:12.100 12/05/1995]',0.006,-0.097,-0.011,89.102,1.024
'[13:41:12.102 12/05/1995]',0.001,-0.097,-0.011,89.102,1.024
'[13:41:12.104 12/05/1995]',0.001,-0.097,-0.011,88.502,1.024
'[13:41:12.106 12/05/1995]',0.006,-0.097,-0.005,88.502,1.024
'[13:41:12.108 12/05/1995]',0.012,-0.080,-0.005,88.502,1.024
'[13:41:12.110 12/05/1995]',0.001,-0.064,-0.005,88.502,1.024
'[13:41:12.112 12/05/1995]',0.001,-0.048,-0.005,88.277,1.024
'[13:41:12.114 12/05/1995]',-0.005,-0.064,-0.005,88.277,1.024
'[13:41:12.116 12/05/1995]',-0.005,-0.064,-0.005,88.277,1.024
'[13:41:12.118 12/05/1995]',-0.005,-0.064,-0.005,88.277,1.024
'[13:41:12.120 12/05/1995]',0.001,-0.064,-0.005,87.977,1.024
'[13:41:12.122 12/05/1995]',-0.005,-0.048,-0.005,87.977,1.024
'[13:41:12.124 12/05/1995]',-0.005,-0.048,-0.005,87.977,1.024
'[13:41:12.126 12/05/1995]',-0.005,-0.031,-0.005,87.977,1.024
'[13:41:12.128 12/05/1995]',-0.011,0.001,0.001,87.827,1.024
'[13:41:12.130 12/05/1995]',-0.011,0.034,0.001,87.827,1.024
'[13:41:12.132 12/05/1995]',-0.005,0.034,0.006,87.827,1.024
'[13:41:12.134 12/05/1995]',-0.005,0.050,0.006,87.827,1.024
'[13:41:12.136 12/05/1995]',-0.011,0.050,0.012,87.677,1.024
'[13:41:12.138 12/05/1995]',-0.011,0.066,0.012,87.677,1.024
'[13:41:12.140 12/05/1995]',-0.005,0.050,0.006,87.677,1.024
'[13:41:12.142 12/05/1995]',-0.023,0.050,0.006,87.677,1.024
'[13:41:12.144 12/05/1995]',-0.011,0.050,0.006,87.527,1.024
'[13:41:12.146 12/05/1995]',-0.011,0.017,0.006,87.527,1.024
'[13:41:12.148 12/05/1995]',-0.011,0.001,0.001,87.527,1.024
'[13:41:12.150 12/05/1995]',-0.011,-0.015,-0.005,87.527,1.024
'[13:41:12.152 12/05/1995]',-0.011,-0.031,-0.005,87.227,1.024
'[13:41:12.154 12/05/1995]',-0.011,-0.031,-0.011,87.227,1.024
'[13:41:12.156 12/05/1995]',-0.011,-0.048,-0.011,87.227,1.024
'[13:41:12.158 12/05/1995]',-0.023,-0.048,-0.011,87.227,1.024
'[13:41:12.160 12/05/1995]',-0.005,-0.031,-0.005,86.927,1.024
'[13:41:12.162 12/05/1995]',0.006,-0.015,0.001,86.927,1.024
'[13:41:12.164 12/05/1995]',0.012,-0.015,0.001,86.927,1.024
'[13:41:12.166 12/05/1995]',0.012,-0.015,0.001,86.927,1.024
'[13:41:12.168 12/05/1995]',0.012,-0.031,-0.005,86.702,1.024
'[13:41:12.170 12/05/1995]',0.012,-0.031,-0.005,86.702,1.024
'[13:41:12.172 12/05/1995]',0.006,-0.031,-0.005,86.702,1.024
'[13:41:12.174 12/05/1995]',0.001,-0.031,-0.005,86.702,1.024
'[13:41:12.176 12/05/1995]',0.001,-0.031,-0.005,86.402,1.024
'[13:41:12.178 12/05/1995]',-0.005,-0.031,-0.005,86.402,1.024
'[13:41:12.180 12/05/1995]',-0.005,-0.015,-0.011,86.402,1.024
'[13:41:12.182 12/05/1995]',-0.005,-0.015,-0.005,86.402,1.024
'[13:41:12.184 12/05/1995]',-0.005,-0.031,0.001,86.027,1.024
'[13:41:12.186 12/05/1995]',-0.005,-0.031,-0.005,86.027,1.024
'[13:41:12.188 12/05/1995]',-0.011,-0.031,-0.011,86.027,1.024
'[13:41:12.190 12/05/1995]',-0.011,-0.015,-0.011,86.027,1.024
'[13:41:12.192 12/05/1995]',-0.005,-0.015,-0.005,85.502,1.024
'[13:41:12.194 12/05/1995]',-0.005,-0.015,-0.005,85.502,1.024
'[13:41:12.196 12/05/1995]',0.006,-0.015,-0.005,85.502,1.024
'[13:41:12.198 12/05/1995]',-0.005,-0.015,-0.005,85.502,1.024
'[13:41:12.200 12/05/1995]',-0.011,-0.015,-0.005,84.902,1.024
'[13:41:12.202 12/05/1995]',-0.011,-0.031,-0.005,84.902,1.024
'[13:41:12.204 12/05/1995]',-0.011,-0.031,-0.005,84.902,1.024
'[13:41:12.206 12/05/1995]',-0.011,-0.015,-0.005,84.902,1.024
'[13:41:12.208 12/05/1995]',-0.011,-0.015,-0.005,84.152,1.024
'[13:41:12.210 12/05/1995]',-0.023,-0.015,-0.011,84.152,1.024
'[13:41:12.212 12/05/1995]',-0.029,-0.031,-0.011,84.152,1.024
'[13:41:12.214 12/05/1995]',-0.047,-0.031,-0.023,84.152,1.024
'[13:41:12.216 12/05/1995]',-0.029,-0.031,-0.011,83.477,1.024
'[13:41:12.218 12/05/1995]',0.006,-0.015,-0.005,83.477,1.024
'[13:41:12.220 12/05/1995]',0.006,-0.031,0.001,83.477,1.024
'[13:41:12.222 12/05/1995]',0.006,-0.031,0.001,83.477,1.024
'[13:41:12.224 12/05/1995]',0.012,-0.048,0.001,82.727,1.024
'[13:41:12.226 12/05/1995]',0.006,-0.048,0.001,82.727,1.024
'[13:41:12.228 12/05/1995]',0.006,-0.015,0.006,82.727,1.024
'[13:41:12.230 12/05/1995]',0.001,0.017,0.012,82.727,1.024
'[13:41:12.232 12/05/1995]',0.001,0.034,0.012,81.977,1.024
'[13:41:12.234 12/05/1995]',-0.011,0.017,0.006,81.977,1.024
'[13:41:12.236 12/05/1995]',-0.023,0.017,0.006,81.977,1.024
'[13:41:12.238 12/05/1995]',-0.011,0.017,0.006,81.977,1.024
'[13:41:12.240 12/05/1995]',-0.011,0.017,0.006,81.077,1.024
'[13:41:12.242 12/05/1995]',-0.005,0.001,0.001,81.077,1.024
'[13:41:12.244 12/05/1995]',-0.005,-0.015,0.001,81.077,1.024
'[13:41:12.246 12/05/1995]',-0.011,0.017,0.001,81.077,1.024
'[13:41:12.248 12/05/1995]',-0.023,0.050,0.006,80.402,1.024
'[13:41:12.250 12/05/1995]',-0.023,0.050,0.006,80.402,1.024
'[13:41:12.252 12/05/1995]',-0.029,0.066,0.006,80.402,1.024
'[13:41:12.254 12/05/1995]',-0.029,0.050,0.006,80.402,1.024
'[13:41:12.256 12/05/1995]',-0.029,0.050,0.006,79.652,1.024
'[13:41:12.258 12/05/1995]',-0.023,0.017,-0.011,79.652,1.024
'[13:41:12.260 12/05/1995]',-0.029,-0.015,-0.023,79.652,1.024
'[13:41:12.262 12/05/1995]',-0.011,-0.064,-0.029,79.652,1.024
'[13:41:12.264 12/05/1995]',-0.005,-0.097,-0.029,78.977,1.024
'[13:41:12.266 12/05/1995]',0.001,-0.113,-0.029,78.977,1.024
'[13:41:12.268 12/05/1995]',0.006,-0.113,-0.023,78.977,1.024
'[13:41:12.270 12/05/1995]',0.012,-0.113,-0.011,78.977,1.024
'[13:41:12.272 12/05/1995]',0.012,-0.080,-0.011,78.227,1.024
'[13:41:12.274 12/05/1995]',0.012,-0.080,-0.005,78.227,1.024
'[13:41:12.276 12/05/1995]',0.012,-0.048,-0.005,78.227,1.024
'[13:41:12.278 12/05/1995]',0.006,-0.048,-0.005,78.227,1.024
'[13:41:12.280 12/05/1995]',0.001,-0.031,-0.011,77.327,1.024
'[13:41:12.282 12/05/1995]',0.001,-0.031,-0.005,77.327,1.024
'[13:41:12.284 12/05/1995]',-0.005,-0.048,-0.005,77.327,1.024
'[13:41:12.286 12/05/1995]',-0.005,-0.048,-0.005,77.327,1.024
'[13:41:12.288 12/05/1995]',-0.005,-0.031,-0.005,76.652,1.024
'[13:41:12.290 12/05/1995]',0.001,-0.015,0.001,76.652,1.024
'[13:41:12.292 12/05/1995]',-0.005,0.001,0.001,76.652,1.024
'[13:41:12.294 12/05/1995]',-0.011,0.017,-0.005,76.652,1.024
'[13:41:12.296 12/05/1995]',-0.011,0.017,-0.005,75.977,1.024
'[13:41:12.298 12/05/1995]',-0.011,0.034,-0.005,75.977,1.024
'[13:41:12.300 12/05/1995]',-0.023,0.099,0.006,75.977,1.024
'[13:41:12.302 12/05/1995]',-0.023,0.148,0.024,75.977,1.024
'[13:41:12.304 12/05/1995]',-0.023,0.181,0.024,75.302,1.024
'[13:41:12.306 12/05/1995]',-0.023,0.148,0.012,75.302,1.024
'[13:41:12.308 12/05/1995]',-0.011,0.099,0.006,75.302,1.024
'[13:41:12.310 12/05/1995]',-0.005,0.066,0.001,75.302,1.024
'[13:41:12.312 12/05/1995]',0.001,0.017,-0.005,74.702,1.024
'[13:41:12.314 12/05/1995]',0.006,-0.031,-0.011,74.702,1.024
'[13:41:12.316 12/05/1995]',0.001,-0.080,-0.023,74.702,1.024
'[13:41:12.318 12/05/1995]',0.001,-0.097,-0.023,74.702,1.024
'[13:41:12.320 12/05/1995]',-0.005,-0.097,-0.023,74.177,1.024
'[13:41:12.322 12/05/1995]',-0.011,-0.080,-0.029,74.177,1.024
'[13:41:12.324 12/05/1995]',-0.023,-0.048,-0.029,74.177,1.024
'[13:41:12.326 12/05/1995]',-0.029,-0.048,-0.029,74.177,1.024
'[13:41:12.328 12/05/1995]',-0.053,-0.048,-0.046,73.652,1.024
'[13:41:12.330 12/05/1995]',-0.065,-0.031,-0.046,73.652,1.024
'[13:41:12.332 12/05/1995]',-0.065,-0.031,-0.052,73.652,1.024
'[13:41:12.334 12/05/1995]',-0.053,-0.048,-0.052,73.652,1.024
'[13:41:12.336 12/05/1995]',-0.047,-0.064,-0.052,73.277,1.024
'[13:41:12.338 12/05/1995]',-0.035,-0.064,-0.046,73.277,1.024
'[13:41:12.340 12/05/1995]',-0.035,-0.048,-0.046,73.277,1.024
'[13:41:12.342 12/05/1995]',-0.035,-0.015,-0.035,73.277,1.024
'[13:41:12.344 12/05/1995]',-0.047,0.001,-0.035,72.902,1.024
'[13:41:12.346 12/05/1995]',-0.035,0.034,-0.035,72.902,1.024
'[13:41:12.348 12/05/1995]',-0.047,0.034,-0.035,72.902,1.024
'[13:41:12.350 12/05/1995]',-0.047,0.034,-0.035,72.902,1.024
'[13:41:12.352 12/05/1995]',-0.047,0.034,-0.035,72.602,1.024
'[13:41:12.354 12/05/1995]',-0.053,0.017,-0.046,72.602,1.024
'[13:41:12.356 12/05/1995]',-0.053,0.017,-0.046,72.602,1.024
'[13:41:12.358 12/05/1995]',-0.047,0.017,-0.046,72.602,1.024
'[13:41:12.360 12/05/1995]',-0.047,0.017,-0.046,72.227,1.024
'[13:41:12.362 12/05/1995]',-0.035,0.034,-0.046,72.227,1.024
'[13:41:12.364 12/05/1995]',-0.029,0.066,-0.035,72.227,1.024
'[13:41:12.366 12/05/1995]',-0.029,0.083,-0.029,72.227,1.024
'[13:41:12.368 12/05/1995]',-0.029,0.083,-0.023,72.077,1.024
'[13:41:12.370 12/05/1995]',-0.023,0.066,-0.023,72.077,1.024
'[13:41:12.372 12/05/1995]',-0.023,0.034,-0.023,72.077,1.024
'[13:41:12.374 12/05/1995]',-0.011,0.001,-0.023,72.077,1.024
'[13:41:12.376 12/05/1995]',-0.011,0.001,-0.029,71.777,1.024
'[13:41:12.378 12/05/1995]',-0.011,0.001,-0.011,71.777,1.024
'[13:41:12.380 12/05/1995]',-0.005,0.001,-0.005,71.777,1.024
'[13:41:12.382 12/05/1995]',-0.011,0.034,0.006,71.777,1.024
'[13:41:12.384 12/05/1995]',-0.023,0.083,0.012,71.552,1.024
'[13:41:12.386 12/05/1995]',-0.023,0.099,0.024,71.552,1.024
'[13:41:12.388 12/05/1995]',-0.023,0.099,0.024,71.552,1.024
'[13:41:12.390 12/05/1995]',-0.029,0.066,0.006,71.552,1.024
'[13:41:12.392 12/05/1995]',-0.005,0.017,0.001,71.252,1.024
'[13:41:12.394 12/05/1995]',0.001,-0.015,-0.005,71.252,1.024
'[13:41:12.396 12/05/1995]',0.006,-0.064,-0.011,71.252,1.024
'[13:41:12.398 12/05/1995]',0.006,-0.097,-0.023,71.252,1.024
'[13:41:12.400 12/05/1995]',0.024,-0.113,-0.023,70.952,1.024
'[13:41:12.402 12/05/1995]',0.024,-0.113,-0.011,70.952,1.024
'[13:41:12.404 12/05/1995]',0.030,-0.097,-0.011,70.952,1.024
'[13:41:12.406 12/05/1995]',0.030,-0.080,-0.005,70.952,1.024
'[13:41:12.408 12/05/1995]',0.024,-0.080,-0.005,70.727,1.024
'[13:41:12.410 12/05/1995]',0.012,-0.080,-0.011,70.727,1.024
'[13:41:12.412 12/05/1995]',0.012,-0.064,-0.011,70.727,1.024
'[13:41:12.414 12/05/1995]',0.006,-0.015,0.001,70.727,1.024
'[13:41:12.416 12/05/1995]',0.001,0.017,0.006,70.427,1.024
'[13:41:12.418 12/05/1995]',0.001,0.001,0.001,70.427,1.024
'[13:41:12.420 12/05/1995]',0.001,0.001,0.001,70.427,1.024
'[13:41:12.422 12/05/1995]',0.001,-0.015,-0.005,70.427,1.024
'[13:41:12.424 12/05/1995]',0.001,-0.015,-0.005,70.202,1.024
'[13:41:12.426 12/05/1995]',0.001,0.034,0.001,70.202,1.024
'[13:41:12.428 12/05/1995]',-0.005,0.083,0.006,70.202,1.024
'[13:41:12.430 12/05/1995]',-0.005,0.066,0.006,70.202,1.024
'[13:41:12.432 12/05/1995]',-0.005,0.017,0.001,69.977,1.024
'[13:41:12.434 12/05/1995]',-0.005,-0.015,-0.005,69.977,1.024
'[13:41:12.436 12/05/1995]',0.006,-0.064,-0.005,69.977,1.024
'[13:41:12.438 12/05/1995]',0.024,-0.080,0.001,69.977,1.024
'[13:41:12.440 12/05/1995]',0.048,-0.097,0.006,69.677,1.024
'[13:41:12.442 12/05/1995]',0.072,-0.113,0.024,69.677,1.024
'[13:41:12.444 12/05/1995]',0.095,-0.146,0.035,69.677,1.024
'[13:41:12.446 12/05/1995]',0.131,-0.162,0.077,69.677,1.024
'[13:41:12.448 12/05/1995]',0.178,-0.162,0.117,69.377,1.024
'[13:41:12.450 12/05/1995]',0.219,-0.130,0.176,69.377,1.024
'[13:41:12.452 12/05/1995]',0.249,-0.048,0.229,69.377,1.024
'[13:41:12.454 12/05/1995]',0.284,0.017,0.263,69.377,1.024
'[13:41:12.456 12/05/1995]',0.284,0.083,0.269,69.077,1.024
'[13:41:12.458 12/05/1995]',0.267,0.132,0.246,69.077,1.024
'[13:41:12.460 12/05/1995]',0.249,0.181,0.205,69.077,1.024
'[13:41:12.462 12/05/1995]',0.243,0.197,0.176,69.077,1.024
'[13:41:12.464 12/05/1995]',0.231,0.246,0.117,68.777,1.024
'[13:41:12.466 12/05/1995]',0.202,0.295,0.053,68.777,1.024
'[13:41:12.468 12/05/1995]',0.160,0.361,-0.005,68.777,1.024
'[13:41:12.470 12/05/1995]',0.137,0.377,-0.029,68.777,1.024
'[13:41:12.472 12/05/1995]',0.143,0.361,-0.035,68.477,1.024
'[13:41:12.474 12/05/1995]',0.143,0.279,-0.023,68.477,1.024
'[13:41:12.476 12/05/1995]',0.137,0.132,0.001,68.477,1.024
'[13:41:12.478 12/05/1995]',0.143,-0.048,0.035,68.477,1.024
'[13:41:12.480 12/05/1995]',0.154,-0.244,0.088,68.327,1.024
'[13:41:12.482 12/05/1995]',0.143,-0.375,0.117,68.327,1.024
'[13:41:12.484 12/05/1995]',0.131,-0.489,0.117,68.327,1.024
'[13:41:12.486 12/05/1995]',0.095,-0.554,0.100,68.327,1.024
'[13:41:12.488 12/05/1995]',0.054,-0.587,0.077,68.027,1.024
'[13:41:12.490 12/05/1995]',0.024,-0.587,0.053,68.027,1.024
'[13:41:12.492 12/05/1995]',0.006,-0.554,0.047,68.027,1.024
'[13:41:12.494 12/05/1995]',-0.005,-0.505,0.035,68.027,1.024
'[13:41:12.496 12/05/1995]',-0.005,-0.457,0.030,67.727,1.024
'[13:41:12.498 12/05/1995]',-0.005,-0.391,0.030,67.727,1.024
'[13:41:12.500 12/05/1995]',-0.011,-0.276,0.030,67.727,1.024
'[13:41:12.502 12/05/1995]',-0.035,-0.162,0.024,67.727,1.024
'[13:41:12.504 12/05/1995]',-0.053,-0.080,0.006,67.427,1.024
'[13:41:12.506 12/05/1995]',-0.065,-0.048,-0.023,67.427,1.024
'[13:41:12.508 12/05/1995]',-0.065,-0.048,-0.046,67.427,1.024
'[13:41:12.510 12/05/1995]',-0.053,-0.048,-0.052,67.427,1.024
'[13:41:12.512 12/05/1995]',-0.053,-0.048,-0.052,67.127,1.024
'[13:41:12.514 12/05/1995]',-0.047,-0.031,-0.052,67.127,1.024
'[13:41:12.516 12/05/1995]',-0.035,-0.015,-0.035,67.127,1.024
'[13:41:12.518 12/05/1995]',-0.035,0.001,-0.023,67.127,1.024
'[13:41:12.520 12/05/1995]',-0.035,0.001,-0.023,66.827,1.024
'[13:41:12.522 12/05/1995]',-0.035,-0.031,-0.023,66.827,1.024
'[13:41:12.524 12/05/1995]',-0.035,-0.031,-0.029,66.827,1.024
'[13:41:12.526 12/05/1995]',-0.029,-0.031,-0.029,66.827,1.024
'[13:41:12.528 12/05/1995]',-0.035,-0.031,-0.035,66.602,1.024
'[13:41:12.530 12/05/1995]',-0.035,-0.048,-0.035,66.602,1.024
'[13:41:12.532 12/05/1995]',-0.035,-0.048,-0.035,66.602,1.024
'[13:41:12.534 12/05/1995]',-0.029,-0.048,-0.029,66.602,1.024
'[13:41:12.536 12/05/1995]',-0.029,-0.031,-0.029,66.377,1.024
'[13:41:12.538 12/05/1995]',-0.023,-0.031,-0.029,66.377,1.024
'[13:41:12.540 12/05/1995]',-0.023,-0.031,-0.023,66.377,1.024
'[13:41:12.542 12/05/1995]',-0.011,-0.031,-0.029,66.377,1.024
'[13:41:12.544 12/05/1995]',-0.023,-0.048,-0.035,66.152,0.876
'[13:41:12.546 12/05/1995]',-0.011,-0.064,-0.035,66.152,0.876
'[13:41:12.548 12/05/1995]',-0.005,-0.048,-0.035,66.152,0.876
'[13:41:12.550 12/05/1995]',-0.011,-0.048,-0.046,66.152,0.876
'[13:41:12.552 12/05/1995]',-0.023,-0.031,-0.035,66.002,0.670
'[13:41:12.554 12/05/1995]',-0.011,-0.015,-0.029,66.002,0.670
'[13:41:12.556 12/05/1995]',-0.011,0.001,-0.029,66.002,0.670
'[13:41:12.558 12/05/1995]',-0.023,0.001,-0.029,66.002,0.670
'[13:41:12.560 12/05/1995]',-0.029,0.017,-0.035,65.777,0.469
'[13:41:12.562 12/05/1995]',-0.029,0.017,-0.035,65.777,0.469
'[13:41:12.564 12/05/1995]',-0.023,0.001,-0.035,65.777,0.469
'[13:41:12.566 12/05/1995]',-0.029,0.001,-0.035,65.777,0.469
'[13:41:12.568 12/05/1995]',-0.029,0.001,-0.035,65.702,0.274
'[13:41:12.570 12/05/1995]',-0.023,-0.015,-0.046,65.702,0.274
'[13:41:12.572 12/05/1995]',-0.023,-0.015,-0.046,65.702,0.274
'[13:41:12.574 12/05/1995]',-0.023,-0.015,-0.046,65.702,0.274
'[13:41:12.576 12/05/1995]',-0.023,0.001,-0.046,65.477,0.093
'[13:41:12.578 12/05/1995]',-0.029,0.001,-0.052,65.477,0.093
'[13:41:12.580 12/05/1995]',-0.035,0.034,-0.046,65.477,0.093
'[13:41:12.582 12/05/1995]',-0.035,0.050,-0.035,65.477,0.093
'[13:41:12.584 12/05/1995]',-0.047,0.050,-0.035,65.327,-0.077
'[13:41:12.586 12/05/1995]',-0.035,0.050,-0.035,65.327,-0.077
'[13:41:12.588 12/05/1995]',-0.035,0.034,-0.035,65.327,-0.077
'[13:41:12.590 12/05/1995]',-0.029,0.034,-0.035,65.327,-0.077
'[13:41:12.592 12/05/1995]',-0.023,0.050,-0.029,65.027,-0.222
'[13:41:12.594 12/05/1995]',-0.011,0.066,-0.035,65.027,-0.222
'[13:41:12.596 12/05/1995]',-0.011,0.066,-0.029,65.027,-0.222
'[13:41:12.598 12/05/1995]',-0.011,0.066,-0.029,65.027,-0.222
'[13:41:12.600 12/05/1995]',-0.011,0.050,-0.035,64.727,-0.356
'[13:41:12.602 12/05/1995]',-0.023,0.050,-0.029,64.727,-0.356
'[13:41:12.604 12/05/1995]',-0.023,0.050,-0.035,64.727,-0.356
'[13:41:12.606 12/05/1995]',-0.023,0.050,-0.035,64.727,-0.356
'[13:41:12.608 12/05/1995]',-0.029,0.050,-0.035,64.427,-0.474
'[13:41:12.610 12/05/1995]',-0.035,0.050,-0.046,64.427,-0.474
'[13:41:12.612 12/05/1995]',-0.035,0.034,-0.046,64.427,-0.474
'[13:41:12.614 12/05/1995]',-0.035,0.034,-0.052,64.427,-0.474
'[13:41:12.616 12/05/1995]',-0.029,0.034,-0.052,64.202,-0.573
'[13:41:12.618 12/05/1995]',-0.029,0.034,-0.052,64.202,-0.573
'[13:41:12.620 12/05/1995]',-0.023,0.017,-0.046,64.202,-0.573
'[13:41:12.622 12/05/1995]',-0.011,0.034,-0.035,64.202,-0.573
'[13:41:12.624 12/05/1995]',-0.011,0.050,-0.035,64.127,-0.660
'[13:41:12.626 12/05/1995]',-0.011,0.034,-0.035,64.127,-0.660
'[13:41:12.628 12/05/1995]',-0.011,0.034,-0.046,64.127,-0.660
'[13:41:12.630 12/05/1995]',-0.023,0.017,-0.052,64.127,-0.660
'[13:41:12.632 12/05/1995]',-0.023,0.001,-0.052,64.277,-0.738
'[13:41:12.634 12/05/1995]',-0.023,0.001,-0.052,64.277,-0.738
'[13:41:12.636 12/05/1995]',-0.023,0.001,-0.046,64.277,-0.738
'[13:41:12.638 12/05/1995]',-0.023,0.017,-0.035,64.277,-0.738
'[13:41:12.640 12/05/1995]',-0.029,0.034,-0.035,65.102,-0.804
'[13:41:12.642 12/05/1995]',-0.029,0.050,-0.046,65.102,-0.804
'[13:41:12.644 12/05/1995]',-0.023,0.034,-0.046,65.102,-0.804
'[13:41:12.646 12/05/1995]',-0.011,0.034,-0.046,65.102,-0.804
'[13:41:12.648 12/05/1995]',-0.023,0.017,-0.046,67.202,-0.867
'[13:41:12.650 12/05/1995]',-0.023,0.017,-0.046,67.202,-0.867
'[13:41:12.652 12/05/1995]',-0.023,0.034,-0.035,67.202,-0.867
'[13:41:12.654 12/05/1995]',-0.029,0.034,-0.035,67.202,-0.867
'[13:41:12.656 12/05/1995]',-0.029,0.034,-0.046,71.552,-0.923
'[13:41:12.658 12/05/1995]',-0.029,0.017,-0.046,71.552,-0.923
'[13:41:12.660 12/05/1995]',-0.029,0.017,-0.046,71.552,-0.923
'[13:41:12.662 12/05/1995]',-0.023,0.017,-0.046,71.552,-0.923
'[13:41:12.664 12/05/1995]',-0.011,0.017,-0.035,78.902,-0.975
'[13:41:12.666 12/05/1995]',-0.011,0.034,-0.035,78.902,-0.975
'[13:41:12.668 12/05/1995]',-0.011,0.034,-0.046,78.902,-0.975
'[13:41:12.670 12/05/1995]',-0.023,0.034,-0.035,78.902,-0.975
'[13:41:12.672 12/05/1995]',-0.023,0.034,-0.035,88.877,-
'[13:41:12.674 12/05/1995]',-0.023,0.034,-0.029,88.877,-
'[13:41:12.676 12/05/1995]',-0.011,0.050,-0.035,88.877,-
'[13:41:12.678 12/05/1995]',-0.011,0.066,-0.029,88.877,-
'[13:41:12.680 12/05/1995]',-0.011,0.050,-0.029,99.677,-
'[13:41:12.682 12/05/1995]',-0.011,0.034,-0.029,99.677,-
'[13:41:12.684 12/05/1995]',-0.005,0.034,-0.023,99.677,-
'[13:41:12.686 12/05/1995]',0.001,0.034,-0.023,99.677,-
'[13:41:12.688 12/05/1995]',0.001,0.017,-0.023,109.728,-
'[13:41:12.690 12/05/1995]',0.001,0.034,-0.011,109.728,-
'[13:41:12.692 12/05/1995]',0.001,0.034,-0.011,109.728,-
'[13:41:12.694 12/05/1995]',0.001,0.034,-0.023,109.728,-
'[13:41:12.696 12/05/1995]',0.001,0.017,-0.023,117.828,-
'[13:41:12.698 12/05/1995]',0.001,0.034,-0.011,117.828,-
'[13:41:12.700 12/05/1995]',-0.005,0.034,-0.023,117.828,-
'[13:41:12.702 12/05/1995]',0.001,0.034,-0.005,117.828,-
'[13:41:12.704 12/05/1995]',0.006,0.050,0.001,123.603,-
'[13:41:12.706 12/05/1995]',0.006,0.083,0.006,123.603,-
'[13:41:12.708 12/05/1995]',0.006,0.115,0.012,123.603,-
'[13:41:12.710 12/05/1995]',0.006,0.148,0.012,123.603,-
'[13:41:12.712 12/05/1995]',0.006,0.148,0.024,127.278,-
'[13:41:12.714 12/05/1995]',0.001,0.148,0.012,127.278,-
'[13:41:12.716 12/05/1995]',0.001,0.099,0.006,127.278,-
'[13:41:12.718 12/05/1995]',0.006,0.066,0.006,127.278,-
'[13:41:12.720 12/05/1995]',0.012,0.034,0.001,129.303,-1.010
'[13:41:12.722 12/05/1995]',0.012,0.017,0.006,129.303,-1.010
'[13:41:12.724 12/05/1995]',0.012,0.017,0.001,129.303,-1.010
'[13:41:12.726 12/05/1995]',0.006,0.034,0.001,129.303,-1.010
'[13:41:12.728 12/05/1995]',0.006,0.050,0.006,130.278,-0.933
'[13:41:12.730 12/05/1995]',0.006,0.066,0.012,130.278,-0.933
'[13:41:12.732 12/05/1995]',0.012,0.066,0.024,130.278,-0.933
'[13:41:12.734 12/05/1995]',0.024,0.066,0.030,130.278,-0.933
'[13:41:12.736 12/05/1995]',0.024,0.050,0.024,130.953,-0.836
'[13:41:12.738 12/05/1995]',0.030,0.017,0.012,130.953,-0.836
'[13:41:12.740 12/05/1995]',0.030,0.001,0.012,130.953,-0.836
'[13:41:12.742 12/05/1995]',0.030,-0.031,0.006,130.953,-0.836
'[13:41:12.744 12/05/1995]',0.036,-0.064,0.001,131.403,-0.712
'[13:41:12.746 12/05/1995]',0.036,-0.097,0.001,131.403,-0.712
'[13:41:12.748 12/05/1995]',0.036,-0.113,0.001,131.403,-0.712
'[13:41:12.750 12/05/1995]',0.036,-0.097,0.001,131.403,-0.712
'[13:41:12.752 12/05/1995]',0.036,-0.080,0.006,131.403,-0.573
'[13:41:12.754 12/05/1995]',0.030,-0.080,0.006,131.403,-0.573
'[13:41:12.756 12/05/1995]',0.030,-0.048,0.012,131.403,-0.573
'[13:41:12.758 12/05/1995]',0.024,-0.015,0.012,131.403,-0.573
'[13:41:12.760 12/05/1995]',0.036,-0.015,0.012,130.953,-0.412
'[13:41:12.762 12/05/1995]',0.036,0.001,0.012,130.953,-0.412
'[13:41:12.764 12/05/1995]',0.036,-0.015,0.012,130.953,-0.412
'[13:41:12.766 12/05/1995]',0.030,-0.015,0.012,130.953,-0.412
'[13:41:12.768 12/05/1995]',0.030,-0.015,0.012,130.278,-0.247
'[13:41:12.770 12/05/1995]',0.030,-0.031,0.006,130.278,-0.247
'[13:41:12.772 12/05/1995]',0.030,-0.015,0.006,130.278,-0.247
'[13:41:12.774 12/05/1995]',0.030,0.001,0.012,130.278,-0.247
'[13:41:12.776 12/05/1995]',0.030,0.001,0.006,129.453,-0.083
'[13:41:12.778 12/05/1995]',0.024,0.001,0.006,129.453,-0.083
'[13:41:12.780 12/05/1995]',0.024,0.001,0.006,129.453,-0.083
'[13:41:12.782 12/05/1995]',0.024,0.001,0.012,129.453,-0.083
'[13:41:12.784 12/05/1995]',0.006,0.001,0.006,128.478,0.083
'[13:41:12.786 12/05/1995]',0.006,0.001,0.006,128.478,0.083
'[13:41:12.788 12/05/1995]',0.006,0.001,0.006,128.478,0.083
'[13:41:12.790 12/05/1995]',0.006,0.017,0.006,128.478,0.083
'[13:41:12.792 12/05/1995]',0.012,0.017,0.006,127.503,0.253
'[13:41:12.794 12/05/1995]',0.024,0.017,0.006,127.503,0.253
'[13:41:12.796 12/05/1995]',0.012,0.017,0.006,127.503,0.253
'[13:41:12.798 12/05/1995]',0.012,0.001,0.001,127.503,0.253
'[13:41:12.800 12/05/1995]',0.012,0.001,0.006,126.378,0.407
'[13:41:12.802 12/05/1995]',0.012,0.001,0.001,126.378,0.407
'[13:41:12.804 12/05/1995]',0.006,0.001,0.001,126.378,0.407
'[13:41:12.806 12/05/1995]',0.006,0.001,0.001,126.378,0.407
'[13:41:12.808 12/05/1995]',0.006,0.001,0.001,125.178,0.551
'[13:41:12.810 12/05/1995]',0.006,0.001,-0.005,125.178,0.551
'[13:41:12.812 12/05/1995]',0.006,0.001,-0.005,125.178,0.551
'[13:41:12.814 12/05/1995]',0.001,0.001,-0.005,125.178,0.551
'[13:41:12.816 12/05/1995]',0.001,0.001,-0.005,123.828,0.691
'[13:41:12.818 12/05/1995]',0.001,0.001,-0.005,123.828,0.691
'[13:41:12.820 12/05/1995]',-0.005,0.001,-0.005,123.828,0.691
'[13:41:12.822 12/05/1995]',-0.005,0.001,-0.005,123.828,0.691
'[13:41:12.824 12/05/1995]',-0.005,0.001,-0.005,122.328,0.815
'[13:41:12.826 12/05/1995]',-0.005,-0.015,-0.005,122.328,0.815
'[13:41:12.828 12/05/1995]',-0.005,0.001,-0.011,122.328,0.815
'[13:41:12.830 12/05/1995]',-0.005,0.001,-0.023,122.328,0.815
'[13:41:12.832 12/05/1995]',-0.005,0.001,-0.011,120.753,0.933
'[13:41:12.834 12/05/1995]',-0.005,0.001,-0.011,120.753,0.933
'[13:41:12.836 12/05/1995]',0.006,0.001,-0.011,120.753,0.933
'[13:41:12.838 12/05/1995]',0.006,0.001,-0.011,120.753,0.933
'[13:41:12.840 12/05/1995]',0.006,0.017,-0.005,118.878,1.024
'[13:41:12.842 12/05/1995]',0.001,0.017,-0.005,118.878,1.024
'[13:41:12.844 12/05/1995]',0.001,0.034,-0.005,118.878,1.024
'[13:41:12.846 12/05/1995]',0.001,0.050,-0.005,118.878,1.024
'[13:41:12.848 12/05/1995]',-0.005,0.050,-0.005,116.778,1.024
'[13:41:12.850 12/05/1995]',-0.005,0.050,-0.005,116.778,1.024
'[13:41:12.852 12/05/1995]',-0.011,0.050,-0.005,116.778,1.024
'[13:41:12.854 12/05/1995]',-0.023,0.034,-0.011,116.778,1.024
'[13:41:12.856 12/05/1995]',-0.023,0.034,-0.011,114.228,1.024
'[13:41:12.858 12/05/1995]',-0.023,0.034,-0.011,114.228,1.024
'[13:41:12.860 12/05/1995]',-0.011,0.050,-0.011,114.228,1.024
'[13:41:12.862 12/05/1995]',-0.023,0.050,-0.011,114.228,1.024
'[13:41:12.864 12/05/1995]',-0.011,0.066,-0.005,111.303,1.024
'[13:41:12.866 12/05/1995]',-0.011,0.050,-0.011,111.303,1.024
'[13:41:12.868 12/05/1995]',-0.005,0.034,-0.011,111.303,1.024
'[13:41:12.870 12/05/1995]',-0.005,0.017,-0.011,111.303,1.024
'[13:41:12.872 12/05/1995]',-0.005,0.001,-0.011,107.703,1.024
'[13:41:12.874 12/05/1995]',-0.005,0.001,-0.023,107.703,1.024
'[13:41:12.876 12/05/1995]',-0.005,-0.015,-0.029,107.703,1.024
'[13:41:12.878 12/05/1995]',0.001,-0.015,-0.029,107.703,1.024
'[13:41:12.880 12/05/1995]',-0.005,-0.031,-0.029,103.878,1.024
'[13:41:12.882 12/05/1995]',0.001,-0.031,-0.035,103.878,1.024
'[13:41:12.884 12/05/1995]',-0.005,-0.031,-0.029,103.878,1.024
'[13:41:12.886 12/05/1995]',-0.005,-0.031,-0.029,103.878,1.024
'[13:41:12.888 12/05/1995]',-0.005,-0.015,-0.023,99.902,1.024
'[13:41:12.890 12/05/1995]',-0.011,0.001,-0.023,99.902,1.024
'[13:41:12.892 12/05/1995]',-0.011,0.001,-0.023,99.902,1.024
'[13:41:12.894 12/05/1995]',-0.011,0.001,-0.029,99.902,1.024
'[13:41:12.896 12/05/1995]',-0.005,0.001,-0.023,96.527,1.024
'[13:41:12.898 12/05/1995]',-0.005,0.017,-0.023,96.527,1.024
'[13:41:12.900 12/05/1995]',-0.005,0.001,-0.011,96.527,1.024
'[13:41:12.902 12/05/1995]',-0.005,0.001,-0.023,96.527,1.024
'[13:41:12.904 12/05/1995]',-0.011,0.001,-0.023,93.977,1.024
'[13:41:12.906 12/05/1995]',-0.011,0.001,-0.023,93.977,1.024
'[13:41:12.908 12/05/1995]',-0.011,0.017,-0.023,93.977,1.024
'[13:41:12.910 12/05/1995]',-0.011,0.017,-0.023,93.977,1.024
'[13:41:12.912 12/05/1995]',-0.005,0.017,-0.023,92.552,1.024
'[13:41:12.914 12/05/1995]',-0.011,0.017,-0.029,92.552,1.024
'[13:41:12.916 12/05/1995]',-0.011,0.017,-0.023,92.552,1.024
'[13:41:12.918 12/05/1995]',-0.011,0.017,-0.023,92.552,1.024
'[13:41:12.920 12/05/1995]',-0.011,0.017,-0.023,91.727,1.024
'[13:41:12.922 12/05/1995]',-0.011,0.017,-0.023,91.727,1.024
'[13:41:12.924 12/05/1995]',-0.005,0.017,-0.023,91.727,1.024
'[13:41:12.926 12/05/1995]',-0.005,0.017,-0.023,91.727,1.024
'[13:41:12.928 12/05/1995]',0.001,0.034,-0.023,91.277,1.024
'[13:41:12.930 12/05/1995]',0.001,0.034,-0.023,91.277,1.024
'[13:41:12.932 12/05/1995]',-0.005,0.034,-0.023,91.277,1.024
'[13:41:12.934 12/05/1995]',-0.005,0.034,-0.023,91.277,1.024
'[13:41:12.936 12/05/1995]',-0.005,0.017,-0.011,90.827,1.024
'[13:41:12.938 12/05/1995]',-0.011,0.017,-0.011,90.827,1.024
'[13:41:12.940 12/05/1995]',-0.005,0.017,-0.011,90.827,1.024
'[13:41:12.942 12/05/1995]',-0.011,0.034,-0.011,90.827,1.024
'[13:41:12.944 12/05/1995]',-0.005,0.034,-0.023,90.302,1.024
'[13:41:12.946 12/05/1995]',-0.011,0.034,-0.023,90.302,1.024
'[13:41:12.948 12/05/1995]',-0.011,0.017,-0.029,90.302,1.024
'[13:41:12.950 12/05/1995]',-0.011,0.017,-0.029,90.302,1.024
'[13:41:12.952 12/05/1995]',-0.011,0.017,-0.023,89.702,1.024
'[13:41:12.954 12/05/1995]',-0.011,0.017,-0.023,89.702,1.024
'[13:41:12.956 12/05/1995]',-0.011,0.017,-0.023,89.702,1.024
'[13:41:12.958 12/05/1995]',-0.011,0.017,-0.023,89.702,1.024
'[13:41:12.960 12/05/1995]',-0.011,0.001,-0.023,89.177,1.024
'[13:41:12.962 12/05/1995]',-0.011,0.001,-0.029,89.177,1.024
'[13:41:12.964 12/05/1995]',-0.023,0.001,-0.029,89.177,1.024
'[13:41:12.966 12/05/1995]',-0.011,0.017,-0.029,89.177,1.024
'[13:41:12.968 12/05/1995]',-0.023,0.017,-0.029,88.877,1.024
'[13:41:12.970 12/05/1995]',-0.023,0.017,-0.023,88.877,1.024
'[13:41:12.972 12/05/1995]',-0.023,0.017,-0.023,88.877,1.024
'[13:41:12.974 12/05/1995]',-0.011,0.017,-0.023,88.877,1.024
'[13:41:12.976 12/05/1995]',-0.011,0.017,-0.023,88.577,1.024
'[13:41:12.978 12/05/1995]',-0.011,0.017,-0.023,88.577,1.024
'[13:41:12.980 12/05/1995]',-0.023,0.017,-0.029,88.577,1.024
'[13:41:12.982 12/05/1995]',-0.011,0.017,-0.029,88.577,1.024
'[13:41:12.984 12/05/1995]',-0.023,0.017,-0.029,88.277,1.024
'[13:41:12.986 12/05/1995]',-0.023,0.017,-0.023,88.277,1.024
'[13:41:12.988 12/05/1995]',-0.023,0.001,-0.029,88.277,1.024
'[13:41:12.990 12/05/1995]',-0.023,0.001,-0.029,88.277,1.024
'[13:41:12.992 12/05/1995]',-0.011,0.001,-0.029,87.827,1.024
'[13:41:12.994 12/05/1995]',-0.011,0.017,-0.029,87.827,1.024
'[13:41:12.996 12/05/1995]',-0.011,0.017,-0.023,87.827,1.024
'[13:41:12.998 12/05/1995]',-0.005,0.034,-0.023,87.827,1.024
'[13:41:13.000 12/05/1995]',-0.011,0.034,-0.023,87.302,1.024
'[13:41:13.002 12/05/1995]',-0.011,0.017,-0.011,87.302,1.024
'[13:41:13.004 12/05/1995]',-0.005,0.001,-0.023,87.302,1.024
'[13:41:13.006 12/05/1995]',-0.005,0.001,-0.029,87.302,1.024
'[13:41:13.008 12/05/1995]',-0.005,-0.015,-0.029,86.627,1.024
'[13:41:13.010 12/05/1995]',-0.005,0.001,-0.029,86.627,1.024
'[13:41:13.012 12/05/1995]',-0.005,0.001,-0.023,86.627,1.024
'[13:41:13.014 12/05/1995]',-0.011,0.017,-0.023,86.627,1.024
'[13:41:13.016 12/05/1995]',-0.011,0.017,-0.023,85.877,1.024
'[13:41:13.018 12/05/1995]',-0.011,0.017,-0.023,85.877,1.024
'[13:41:13.020 12/05/1995]',-0.023,0.017,-0.023,85.877,1.024
'[13:41:13.022 12/05/1995]',-0.011,0.001,-0.023,85.877,1.024
'[13:41:13.024 12/05/1995]',-0.011,0.017,-0.011,85.127,1.024
'[13:41:13.026 12/05/1995]',-0.011,0.034,-0.011,85.127,1.024
'[13:41:13.028 12/05/1995]',-0.023,0.050,-0.011,85.127,1.024
'[13:41:13.030 12/05/1995]',-0.023,0.050,-0.011,85.127,1.024
'[13:41:13.032 12/05/1995]',-0.011,0.034,-0.011,84.377,1.024
'[13:41:13.034 12/05/1995]',-0.011,0.034,-0.011,84.377,1.024
'[13:41:13.036 12/05/1995]',-0.011,0.034,-0.011,84.377,1.024
