'Time and date','V','II','V','ABP','PAP','PLETH','RESP'
'hh:mm:ss.mmm dd/mm/yyyy','mV','mV','mV','mmHg','mmHg','mV','mV'
'[07:23:51.000 15/12/1995]',0.014,-0.021,0.001,73.668,44.450,0.000,-0.697
'[07:23:51.002 15/12/1995]',0.013,-0.019,0.001,73.668,44.450,0.000,-0.697
'[07:23:51.004 15/12/1995]',0.012,-0.018,0.001,73.668,44.450,0.000,-0.697
'[07:23:51.006 15/12/1995]',0.011,-0.016,0.001,73.668,44.450,0.000,-0.697
'[07:23:51.008 15/12/1995]',0.011,-0.015,0.006,92.573,45.100,0.000,-0.707
'[07:23:51.010 15/12/1995]',0.011,-0.014,0.006,92.573,45.100,0.000,-0.707
'[07:23:51.012 15/12/1995]',0.011,-0.013,0.012,92.573,45.100,0.000,-0.707
'[07:23:51.014 15/12/1995]',0.011,-0.011,0.006,92.573,45.100,0.000,-0.707
'[07:23:51.016 15/12/1995]',0.012,-0.011,0.006,109.452,45.650,0.000,-0.715
'[07:23:51.018 15/12/1995]',0.012,-0.011,0.001,109.452,45.650,0.000,-0.715
'[07:23:51.020 15/12/1995]',0.012,-0.011,0.001,109.452,45.650,0.000,-0.715
'[07:23:51.022 15/12/1995]',0.013,-0.011,0.001,109.452,45.650,0.000,-0.715
'[07:23:51.024 15/12/1995]',0.013,-0.010,0.006,120.780,46.250,0.000,-0.720
'[07:23:51.026 15/12/1995]',0.013,-0.008,0.006,120.780,46.250,0.000,-0.720
'[07:23:51.028 15/12/1995]',0.012,-0.006,0.006,120.780,46.250,0.000,-0.720
'[07:23:51.030 15/12/1995]',0.011,-0.005,0.006,120.780,46.250,0.000,-0.720
'[07:23:51.032 15/12/1995]',0.010,-0.002,0.001,125.206,46.850,0.000,-0.721
'[07:23:51.034 15/12/1995]',0.009,0.000,-0.005,125.206,46.850,0.000,-0.721
'[07:23:51.036 15/12/1995]',0.008,0.001,-0.005,125.206,46.850,0.000,-0.721
'[07:23:51.038 15/12/1995]',0.007,0.002,0.001,125.206,46.850,0.000,-0.721
'[07:23:51.040 15/12/1995]',0.006,0.002,0.001,123.781,47.350,0.000,-0.719
'[07:23:51.042 15/12/1995]',0.006,0.002,0.001,123.781,47.350,0.000,-0.719
'[07:23:51.044 15/12/1995]',0.005,-0.001,0.001,123.781,47.350,0.000,-0.719
'[07:23:51.046 15/12/1995]',0.005,-0.004,0.001,123.781,47.350,0.000,-0.719
'[07:23:51.048 15/12/1995]',0.005,-0.006,-0.005,118.830,47.900,0.000,-0.713
'[07:23:51.050 15/12/1995]',0.006,-0.008,-0.005,118.830,47.900,0.000,-0.713
'[07:23:51.052 15/12/1995]',0.006,-0.008,-0.005,118.830,47.900,0.000,-0.713
'[07:23:51.054 15/12/1995]',0.006,-0.008,-0.005,118.830,47.900,0.000,-0.713
'[07:23:51.056 15/12/1995]',0.006,-0.006,-0.005,112.753,48.300,0.000,-0.704
'[07:23:51.058 15/12/1995]',0.006,-0.005,0.001,112.753,48.300,0.000,-0.704
'[07:23:51.060 15/12/1995]',0.006,-0.003,0.001,112.753,48.300,0.000,-0.704
'[07:23:51.062 15/12/1995]',0.006,-0.001,0.006,112.753,48.300,0.000,-0.704
'[07:23:51.064 15/12/1995]',0.007,-0.001,0.006,106.902,48.600,0.000,-0.694
'[07:23:51.066 15/12/1995]',0.007,-0.002,0.001,106.902,48.600,0.000,-0.694
'[07:23:51.068 15/12/1995]',0.008,-0.004,0.001,106.902,48.600,0.000,-0.694
'[07:23:51.070 15/12/1995]',0.008,-0.006,-0.005,106.902,48.600,0.000,-0.694
'[07:23:51.072 15/12/1995]',0.009,-0.010,0.001,101.800,48.850,0.000,-0.681
'[07:23:51.074 15/12/1995]',0.009,-0.013,0.001,101.800,48.850,0.000,-0.681
'[07:23:51.076 15/12/1995]',0.009,-0.016,0.006,101.800,48.850,0.000,-0.681
'[07:23:51.078 15/12/1995]',0.010,-0.018,0.006,101.800,48.850,0.000,-0.681
'[07:23:51.080 15/12/1995]',0.009,-0.020,0.006,97.374,48.950,0.000,-0.666
'[07:23:51.082 15/12/1995]',0.009,-0.022,0.001,97.374,48.950,0.000,-0.666
'[07:23:51.084 15/12/1995]',0.008,-0.023,-0.005,97.374,48.950,0.000,-0.666
'[07:23:51.086 15/12/1995]',0.008,-0.024,-0.005,97.374,48.950,0.000,-0.666
'[07:23:51.088 15/12/1995]',0.008,-0.024,-0.011,93.323,48.850,0.000,-0.650
'[07:23:51.090 15/12/1995]',0.007,-0.024,0.001,93.323,48.850,0.000,-0.650
'[07:23:51.092 15/12/1995]',0.007,-0.024,0.001,93.323,48.850,0.000,-0.650
'[07:23:51.094 15/12/1995]',0.007,-0.023,0.006,93.323,48.850,0.000,-0.650
'[07:23:51.096 15/12/1995]',0.008,-0.021,0.006,89.872,48.600,0.000,-0.631
'[07:23:51.098 15/12/1995]',0.008,-0.020,0.006,89.872,48.600,0.000,-0.631
'[07:23:51.100 15/12/1995]',0.008,-0.020,0.001,89.872,48.600,0.000,-0.631
'[07:23:51.102 15/12/1995]',0.009,-0.020,0.001,89.872,48.600,0.000,-0.631
'[07:23:51.104 15/12/1995]',0.009,-0.022,0.001,86.722,48.300,0.000,-0.611
'[07:23:51.106 15/12/1995]',0.010,-0.024,-0.005,86.722,48.300,0.000,-0.611
'[07:23:51.108 15/12/1995]',0.009,-0.026,0.001,86.722,48.300,0.000,-0.611
'[07:23:51.110 15/12/1995]',0.009,-0.028,0.001,86.722,48.300,0.000,-0.611
'[07:23:51.112 15/12/1995]',0.008,-0.031,0.006,84.171,47.850,0.000,-0.589
'[07:23:51.114 15/12/1995]',0.007,-0.033,0.006,84.171,47.850,0.000,-0.589
'[07:23:51.116 15/12/1995]',0.006,-0.034,0.001,84.171,47.850,0.000,-0.589
'[07:23:51.118 15/12/1995]',0.006,-0.036,-0.005,84.171,47.850,0.000,-0.589
'[07:23:51.120 15/12/1995]',0.005,-0.037,-0.005,82.071,47.250,0.000,-0.566
'[07:23:51.122 15/12/1995]',0.005,-0.038,-0.005,82.071,47.250,0.000,-0.566
'[07:23:51.124 15/12/1995]',0.006,-0.039,0.001,82.071,47.250,0.000,-0.566
'[07:23:51.126 15/12/1995]',0.006,-0.040,0.001,82.071,47.250,0.000,-0.566
'[07:23:51.128 15/12/1995]',0.006,-0.041,0.006,80.345,46.550,0.000,-0.543
'[07:23:51.130 15/12/1995]',0.007,-0.042,0.001,80.345,46.550,0.000,-0.543
'[07:23:51.132 15/12/1995]',0.007,-0.042,0.001,80.345,46.550,0.000,-0.543
'[07:23:51.134 15/12/1995]',0.007,-0.042,0.001,80.345,46.550,0.000,-0.543
'[07:23:51.136 15/12/1995]',0.006,-0.042,-0.005,78.920,45.700,0.000,-0.521
'[07:23:51.138 15/12/1995]',0.006,-0.041,-0.005,78.920,45.700,0.000,-0.521
'[07:23:51.140 15/12/1995]',0.006,-0.040,-0.005,78.920,45.700,0.000,-0.521
'[07:23:51.142 15/12/1995]',0.006,-0.038,0.001,78.920,45.700,0.000,-0.521
'[07:23:51.144 15/12/1995]',0.006,-0.036,0.001,77.419,44.600,0.000,-0.499
'[07:23:51.146 15/12/1995]',0.006,-0.034,0.001,77.419,44.600,0.000,-0.499
'[07:23:51.148 15/12/1995]',0.006,-0.031,0.001,77.419,44.600,0.000,-0.499
'[07:23:51.150 15/12/1995]',0.006,-0.029,-0.005,77.419,44.600,0.000,-0.499
'[07:23:51.152 15/12/1995]',0.007,-0.027,-0.005,75.844,43.250,0.000,-0.479
'[07:23:51.154 15/12/1995]',0.007,-0.024,-0.005,75.844,43.250,0.000,-0.479
'[07:23:51.156 15/12/1995]',0.008,-0.022,0.001,75.844,43.250,0.000,-0.479
'[07:23:51.158 15/12/1995]',0.008,-0.019,0.001,75.844,43.250,0.000,-0.479
'[07:23:51.160 15/12/1995]',0.008,-0.016,0.006,74.044,41.500,0.000,-0.461
'[07:23:51.162 15/12/1995]',0.007,-0.013,0.006,74.044,41.500,0.000,-0.461
'[07:23:51.164 15/12/1995]',0.007,-0.010,0.001,74.044,41.500,0.000,-0.461
'[07:23:51.166 15/12/1995]',0.007,-0.007,-0.005,74.044,41.500,0.000,-0.461
'[07:23:51.168 15/12/1995]',0.007,-0.005,-0.005,71.943,39.550,0.000,-0.444
'[07:23:51.170 15/12/1995]',0.007,-0.002,-0.011,71.943,39.550,0.000,-0.444
'[07:23:51.172 15/12/1995]',0.006,-0.000,-0.011,71.943,39.550,0.000,-0.444
'[07:23:51.174 15/12/1995]',0.005,0.002,-0.005,71.943,39.550,0.000,-0.444
'[07:23:51.176 15/12/1995]',0.004,0.003,0.001,69.392,37.800,0.000,-0.428
'[07:23:51.178 15/12/1995]',0.003,0.005,0.001,69.392,37.800,0.000,-0.428
'[07:23:51.180 15/12/1995]',0.002,0.006,0.001,69.392,37.800,0.000,-0.428
'[07:23:51.182 15/12/1995]',0.002,0.008,-0.011,69.392,37.800,0.000,-0.428
'[07:23:51.184 15/12/1995]',0.002,0.009,-0.011,66.542,36.400,0.000,-0.415
'[07:23:51.186 15/12/1995]',0.002,0.011,-0.011,66.542,36.400,0.000,-0.415
'[07:23:51.188 15/12/1995]',0.002,0.012,-0.011,66.542,36.400,0.000,-0.415
'[07:23:51.190 15/12/1995]',0.002,0.014,-0.011,66.542,36.400,0.000,-0.415
'[07:23:51.192 15/12/1995]',0.001,0.014,-0.005,63.241,35.400,0.000,-0.405
'[07:23:51.194 15/12/1995]',0.001,0.014,-0.005,63.241,35.400,0.000,-0.405
'[07:23:51.196 15/12/1995]',0.000,0.013,-0.005,63.241,35.400,0.000,-0.405
'[07:23:51.198 15/12/1995]',-0.001,0.012,-0.005,63.241,35.400,0.000,-0.405
'[07:23:51.200 15/12/1995]',-0.002,0.013,-0.011,59.865,34.900,0.000,-0.398
'[07:23:51.202 15/12/1995]',-0.003,0.014,-0.011,59.865,34.900,0.000,-0.398
'[07:23:51.204 15/12/1995]',-0.003,0.018,-0.023,59.865,34.900,0.000,-0.398
'[07:23:51.206 15/12/1995]',-0.004,0.021,-0.023,59.865,34.900,0.000,-0.398
'[07:23:51.208 15/12/1995]',-0.005,0.024,-0.005,56.489,34.750,0.000,-0.393
'[07:23:51.210 15/12/1995]',-0.006,0.027,-0.011,56.489,34.750,0.000,-0.393
'[07:23:51.212 15/12/1995]',-0.007,0.030,-0.011,56.489,34.750,0.000,-0.393
'[07:23:51.214 15/12/1995]',-0.008,0.034,-0.011,56.489,34.750,0.000,-0.393
'[07:23:51.216 15/12/1995]',-0.009,0.035,-0.011,53.338,35.000,0.000,-0.389
'[07:23:51.218 15/12/1995]',-0.009,0.037,-0.023,53.338,35.000,0.000,-0.389
'[07:23:51.220 15/12/1995]',-0.008,0.037,-0.023,53.338,35.000,0.000,-0.389
'[07:23:51.222 15/12/1995]',-0.008,0.037,-0.011,53.338,35.000,0.000,-0.389
'[07:23:51.224 15/12/1995]',-0.007,0.036,-0.011,50.713,35.450,0.000,-0.388
'[07:23:51.226 15/12/1995]',-0.006,0.036,-0.005,50.713,35.450,0.000,-0.388
'[07:23:51.228 15/12/1995]',-0.006,0.035,-0.005,50.713,35.450,0.000,-0.388
'[07:23:51.230 15/12/1995]',-0.006,0.035,-0.011,50.713,35.450,0.000,-0.388
'[07:23:51.232 15/12/1995]',-0.006,0.034,-0.011,48.612,36.100,0.000,-0.388
'[07:23:51.234 15/12/1995]',-0.006,0.033,-0.023,48.612,36.100,0.000,-0.388
'[07:23:51.236 15/12/1995]',-0.007,0.031,-0.023,48.612,36.100,0.000,-0.388
'[07:23:51.238 15/12/1995]',-0.008,0.030,-0.023,48.612,36.100,0.000,-0.388
'[07:23:51.240 15/12/1995]',-0.008,0.028,-0.023,47.187,36.800,0.000,-0.389
'[07:23:51.242 15/12/1995]',-0.008,0.027,-0.011,47.187,36.800,0.000,-0.389
'[07:23:51.244 15/12/1995]',-0.009,0.026,-0.011,47.187,36.800,0.000,-0.389
'[07:23:51.246 15/12/1995]',-0.009,0.025,-0.011,47.187,36.800,0.000,-0.389
'[07:23:51.248 15/12/1995]',-0.010,0.025,-0.011,46.212,37.500,0.000,-0.390
'[07:23:51.250 15/12/1995]',-0.010,0.024,-0.023,46.212,37.500,0.000,-0.390
'[07:23:51.252 15/12/1995]',-0.011,0.024,-0.023,46.212,37.500,0.000,-0.390
'[07:23:51.254 15/12/1995]',-0.012,0.024,-0.023,46.212,37.500,0.000,-0.390
'[07:23:51.256 15/12/1995]',-0.012,0.025,-0.023,45.686,38.100,0.000,-0.390
'[07:23:51.258 15/12/1995]',-0.013,0.025,-0.023,45.686,38.100,0.000,-0.390
'[07:23:51.260 15/12/1995]',-0.014,0.025,-0.023,45.686,38.100,0.000,-0.390
'[07:23:51.262 15/12/1995]',-0.015,0.024,-0.023,45.686,38.100,0.000,-0.390
'[07:23:51.264 15/12/1995]',-0.015,0.023,-0.023,45.311,38.500,0.000,-0.388
'[07:23:51.266 15/12/1995]',-0.015,0.022,-0.023,45.311,38.500,0.000,-0.388
'[07:23:51.268 15/12/1995]',-0.014,0.022,-0.028,45.311,38.500,0.000,-0.388
'[07:23:51.270 15/12/1995]',-0.013,0.022,-0.028,45.311,38.500,0.000,-0.388
'[07:23:51.272 15/12/1995]',-0.012,0.022,-0.028,45.161,38.800,0.000,-0.386
'[07:23:51.274 15/12/1995]',-0.010,0.021,-0.011,45.161,38.800,0.000,-0.386
'[07:23:51.276 15/12/1995]',-0.009,0.021,-0.005,45.161,38.800,0.000,-0.386
'[07:23:51.278 15/12/1995]',-0.008,0.020,-0.005,45.161,38.800,0.000,-0.386
'[07:23:51.280 15/12/1995]',-0.006,0.019,-0.011,45.086,38.900,0.000,-0.383
'[07:23:51.282 15/12/1995]',-0.005,0.019,-0.011,45.086,38.900,0.000,-0.383
'[07:23:51.284 15/12/1995]',-0.004,0.019,-0.023,45.086,38.900,0.000,-0.383
'[07:23:51.286 15/12/1995]',-0.004,0.020,-0.023,45.086,38.900,0.000,-0.383
'[07:23:51.288 15/12/1995]',-0.003,0.021,-0.011,45.161,38.800,0.000,-0.382
'[07:23:51.290 15/12/1995]',-0.002,0.022,-0.011,45.161,38.800,0.000,-0.382
'[07:23:51.292 15/12/1995]',-0.002,0.024,-0.005,45.161,38.800,0.000,-0.382
'[07:23:51.294 15/12/1995]',-0.003,0.026,-0.011,45.161,38.800,0.000,-0.382
'[07:23:51.296 15/12/1995]',-0.004,0.028,-0.011,45.386,38.550,0.000,-0.381
'[07:23:51.298 15/12/1995]',-0.005,0.031,-0.023,45.386,38.550,0.000,-0.381
'[07:23:51.300 15/12/1995]',-0.006,0.032,-0.028,45.386,38.550,0.000,-0.381
'[07:23:51.302 15/12/1995]',-0.008,0.034,-0.034,45.386,38.550,0.000,-0.381
'[07:23:51.304 15/12/1995]',-0.010,0.034,-0.028,45.686,38.300,0.000,-0.381
'[07:23:51.306 15/12/1995]',-0.011,0.034,-0.028,45.686,38.300,0.000,-0.381
'[07:23:51.308 15/12/1995]',-0.011,0.033,-0.023,45.686,38.300,0.000,-0.381
'[07:23:51.310 15/12/1995]',-0.011,0.033,-0.011,45.686,38.300,0.000,-0.381
'[07:23:51.312 15/12/1995]',-0.011,0.032,-0.011,45.911,37.800,0.000,-0.381
'[07:23:51.314 15/12/1995]',-0.010,0.031,-0.005,45.911,37.800,0.000,-0.381
'[07:23:51.316 15/12/1995]',-0.010,0.032,-0.011,45.911,37.800,0.000,-0.381
'[07:23:51.318 15/12/1995]',-0.009,0.032,-0.023,45.911,37.800,0.000,-0.381
'[07:23:51.320 15/12/1995]',-0.010,0.035,-0.028,46.212,37.350,0.000,-0.381
'[07:23:51.322 15/12/1995]',-0.011,0.038,-0.028,46.212,37.350,0.000,-0.381
'[07:23:51.324 15/12/1995]',-0.012,0.043,-0.023,46.212,37.350,0.000,-0.381
'[07:23:51.326 15/12/1995]',-0.013,0.049,-0.023,46.212,37.350,0.000,-0.381
'[07:23:51.328 15/12/1995]',-0.015,0.055,-0.023,46.362,36.750,0.000,-0.380
'[07:23:51.330 15/12/1995]',-0.016,0.061,-0.023,46.362,36.750,0.000,-0.380
'[07:23:51.332 15/12/1995]',-0.017,0.066,-0.028,46.362,36.750,0.000,-0.380
'[07:23:51.334 15/12/1995]',-0.018,0.072,-0.028,46.362,36.750,0.000,-0.380
'[07:23:51.336 15/12/1995]',-0.020,0.076,-0.034,46.437,36.150,0.000,-0.378
'[07:23:51.338 15/12/1995]',-0.021,0.079,-0.034,46.437,36.150,0.000,-0.378
'[07:23:51.340 15/12/1995]',-0.023,0.082,-0.034,46.437,36.150,0.000,-0.378
'[07:23:51.342 15/12/1995]',-0.024,0.084,-0.034,46.437,36.150,0.000,-0.378
'[07:23:51.344 15/12/1995]',-0.025,0.086,-0.034,46.437,35.500,0.000,-0.377
'[07:23:51.346 15/12/1995]',-0.025,0.088,-0.028,46.437,35.500,0.000,-0.377
'[07:23:51.348 15/12/1995]',-0.026,0.089,-0.028,46.437,35.500,0.000,-0.377
'[07:23:51.350 15/12/1995]',-0.026,0.091,-0.034,46.437,35.500,0.000,-0.377
'[07:23:51.352 15/12/1995]',-0.027,0.093,-0.046,46.212,34.950,0.000,-0.375
'[07:23:51.354 15/12/1995]',-0.028,0.096,-0.046,46.212,34.950,0.000,-0.375
'[07:23:51.356 15/12/1995]',-0.028,0.100,-0.046,46.212,34.950,0.000,-0.375
'[07:23:51.358 15/12/1995]',-0.029,0.105,-0.034,46.212,34.950,0.000,-0.375
'[07:23:51.360 15/12/1995]',-0.029,0.108,-0.034,46.062,34.350,0.000,-0.374
'[07:23:51.362 15/12/1995]',-0.030,0.112,-0.034,46.062,34.350,0.000,-0.374
'[07:23:51.364 15/12/1995]',-0.031,0.113,-0.034,46.062,34.350,0.000,-0.374
'[07:23:51.366 15/12/1995]',-0.032,0.114,-0.046,46.062,34.350,0.000,-0.374
'[07:23:51.368 15/12/1995]',-0.033,0.114,-0.046,45.761,33.850,0.000,-0.373
'[07:23:51.370 15/12/1995]',-0.033,0.113,-0.052,45.761,33.850,0.000,-0.373
'[07:23:51.372 15/12/1995]',-0.034,0.110,-0.046,45.761,33.850,0.000,-0.373
'[07:23:51.374 15/12/1995]',-0.035,0.107,-0.046,45.761,33.850,0.000,-0.373
'[07:23:51.376 15/12/1995]',-0.036,0.103,-0.034,45.386,33.300,0.000,-0.372
'[07:23:51.378 15/12/1995]',-0.037,0.099,-0.046,45.386,33.300,0.000,-0.372
'[07:23:51.380 15/12/1995]',-0.038,0.097,-0.046,45.386,33.300,0.000,-0.372
'[07:23:51.382 15/12/1995]',-0.040,0.095,-0.052,45.386,33.300,0.000,-0.372
'[07:23:51.384 15/12/1995]',-0.042,0.095,-0.052,45.011,32.850,0.000,-0.372
'[07:23:51.386 15/12/1995]',-0.043,0.095,-0.063,45.011,32.850,0.000,-0.372
'[07:23:51.388 15/12/1995]',-0.044,0.096,-0.063,45.011,32.850,0.000,-0.372
'[07:23:51.390 15/12/1995]',-0.045,0.098,-0.052,45.011,32.850,0.000,-0.372
'[07:23:51.392 15/12/1995]',-0.046,0.099,-0.052,44.561,32.400,0.000,-0.371
'[07:23:51.394 15/12/1995]',-0.046,0.101,-0.046,44.561,32.400,0.000,-0.371
'[07:23:51.396 15/12/1995]',-0.046,0.101,-0.046,44.561,32.400,0.000,-0.371
'[07:23:51.398 15/12/1995]',-0.045,0.102,-0.052,44.561,32.400,0.000,-0.371
'[07:23:51.400 15/12/1995]',-0.043,0.101,-0.052,44.036,32.000,0.000,-0.371
'[07:23:51.402 15/12/1995]',-0.041,0.099,-0.052,44.036,32.000,0.000,-0.371
'[07:23:51.404 15/12/1995]',-0.038,0.095,-0.046,44.036,32.000,0.000,-0.371
'[07:23:51.406 15/12/1995]',-0.035,0.090,-0.034,44.036,32.000,0.000,-0.371
'[07:23:51.408 15/12/1995]',-0.032,0.084,-0.028,43.511,31.600,0.000,-0.371
'[07:23:51.410 15/12/1995]',-0.030,0.079,-0.023,43.511,31.600,0.000,-0.371
'[07:23:51.412 15/12/1995]',-0.027,0.073,-0.023,43.511,31.600,0.000,-0.371
'[07:23:51.414 15/12/1995]',-0.024,0.067,-0.023,43.511,31.600,0.000,-0.371
'[07:23:51.416 15/12/1995]',-0.022,0.061,-0.028,43.061,31.300,0.000,-0.371
'[07:23:51.418 15/12/1995]',-0.020,0.056,-0.028,43.061,31.300,0.000,-0.371
'[07:23:51.420 15/12/1995]',-0.018,0.050,-0.028,43.061,31.300,0.000,-0.371
'[07:23:51.422 15/12/1995]',-0.017,0.044,-0.028,43.061,31.300,0.000,-0.371
'[07:23:51.424 15/12/1995]',-0.016,0.037,-0.023,42.536,31.050,0.000,-0.371
'[07:23:51.426 15/12/1995]',-0.015,0.031,-0.011,42.536,31.050,0.000,-0.371
'[07:23:51.428 15/12/1995]',-0.014,0.023,-0.011,42.536,31.050,0.000,-0.371
'[07:23:51.430 15/12/1995]',-0.013,0.016,-0.011,42.536,31.050,0.000,-0.371
'[07:23:51.432 15/12/1995]',-0.012,0.010,-0.011,42.011,30.850,0.000,-0.371
'[07:23:51.434 15/12/1995]',-0.011,0.003,-0.023,42.011,30.850,0.000,-0.371
'[07:23:51.436 15/12/1995]',-0.010,-0.003,-0.028,42.011,30.850,0.000,-0.371
'[07:23:51.438 15/12/1995]',-0.009,-0.008,-0.023,42.011,30.850,0.000,-0.371
'[07:23:51.440 15/12/1995]',-0.008,-0.012,-0.011,41.485,30.500,0.000,-0.371
'[07:23:51.442 15/12/1995]',-0.007,-0.015,-0.005,41.485,30.500,0.000,-0.371
'[07:23:51.444 15/12/1995]',-0.006,-0.018,-0.005,41.485,30.500,0.000,-0.371
'[07:23:51.446 15/12/1995]',-0.004,-0.021,-0.005,41.485,30.500,0.000,-0.371
'[07:23:51.448 15/12/1995]',-0.002,-0.024,-0.005,40.960,30.200,0.000,-0.371
'[07:23:51.450 15/12/1995]',0.000,-0.026,-0.005,40.960,30.200,0.000,-0.371
'[07:23:51.452 15/12/1995]',0.002,-0.027,-0.005,40.960,30.200,0.000,-0.371
'[07:23:51.454 15/12/1995]',0.004,-0.029,0.001,40.960,30.200,0.000,-0.371
'[07:23:51.456 15/12/1995]',0.005,-0.030,0.001,40.435,29.850,0.000,-0.371
'[07:23:51.458 15/12/1995]',0.006,-0.031,0.006,40.435,29.850,0.000,-0.371
'[07:23:51.460 15/12/1995]',0.005,-0.031,0.001,40.435,29.850,0.000,-0.371
'[07:23:51.462 15/12/1995]',0.005,-0.031,0.001,40.435,29.850,0.000,-0.371
'[07:23:51.464 15/12/1995]',0.004,-0.029,0.001,39.910,29.500,0.000,-0.371
'[07:23:51.466 15/12/1995]',0.004,-0.027,-0.005,39.910,29.500,0.000,-0.371
'[07:23:51.468 15/12/1995]',0.002,-0.024,-0.011,39.910,29.500,0.000,-0.371
'[07:23:51.470 15/12/1995]',0.001,-0.021,-0.011,39.910,29.500,0.000,-0.371
'[07:23:51.472 15/12/1995]',-0.001,-0.019,-0.023,39.460,29.250,0.000,-0.370
'[07:23:51.474 15/12/1995]',-0.002,-0.018,-0.023,39.460,29.250,0.000,-0.370
'[07:23:51.476 15/12/1995]',-0.003,-0.017,-0.011,39.460,29.250,0.000,-0.370
'[07:23:51.478 15/12/1995]',-0.004,-0.016,-0.005,39.460,29.250,0.000,-0.370
'[07:23:51.480 15/12/1995]',-0.004,-0.016,0.001,38.935,29.000,0.000,-0.366
'[07:23:51.482 15/12/1995]',-0.003,-0.017,-0.005,38.935,29.000,0.000,-0.366
'[07:23:51.484 15/12/1995]',-0.002,-0.016,-0.011,38.935,29.000,0.000,-0.366
'[07:23:51.486 15/12/1995]',0.000,-0.016,-0.011,38.935,29.000,0.000,-0.366
'[07:23:51.488 15/12/1995]',0.001,-0.014,-0.005,38.635,28.800,0.000,-0.361
'[07:23:51.490 15/12/1995]',0.002,-0.011,0.001,38.635,28.800,0.000,-0.361
'[07:23:51.492 15/12/1995]',0.001,-0.005,0.001,38.635,28.800,0.000,-0.361
'[07:23:51.494 15/12/1995]',0.000,0.002,0.001,38.635,28.800,0.000,-0.361
'[07:23:51.496 15/12/1995]',-0.005,0.014,-0.005,38.260,28.650,0.000,-0.353
'[07:23:51.498 15/12/1995]',-0.010,0.027,-0.023,38.260,28.650,0.000,-0.353
'[07:23:51.500 15/12/1995]',-0.020,0.048,-0.046,38.260,28.650,0.000,-0.353
'[07:23:51.502 15/12/1995]',-0.030,0.068,-0.069,38.260,28.650,0.000,-0.353
'[07:23:51.504 15/12/1995]',-0.047,0.095,-0.092,38.035,28.600,0.000,-0.345
'[07:23:51.506 15/12/1995]',-0.063,0.122,-0.115,38.035,28.600,0.000,-0.345
'[07:23:51.508 15/12/1995]',-0.086,0.153,-0.138,38.035,28.600,0.000,-0.345
'[07:23:51.510 15/12/1995]',-0.109,0.184,-0.161,38.035,28.600,0.000,-0.345
'[07:23:51.512 15/12/1995]',-0.135,0.217,-0.201,37.884,28.600,0.000,-0.338
'[07:23:51.514 15/12/1995]',-0.161,0.249,-0.236,37.884,28.600,0.000,-0.338
'[07:23:51.516 15/12/1995]',-0.187,0.278,-0.259,37.884,28.600,0.000,-0.338
'[07:23:51.518 15/12/1995]',-0.212,0.306,-0.282,37.884,28.600,0.000,-0.338
'[07:23:51.520 15/12/1995]',-0.232,0.325,-0.299,37.734,28.650,0.000,-0.331
'[07:23:51.522 15/12/1995]',-0.252,0.344,-0.299,37.734,28.650,0.000,-0.331
'[07:23:51.524 15/12/1995]',-0.263,0.348,-0.305,37.734,28.650,0.000,-0.331
'[07:23:51.526 15/12/1995]',-0.275,0.352,-0.288,37.734,28.650,0.000,-0.331
'[07:23:51.528 15/12/1995]',-0.276,0.338,-0.282,37.659,28.600,0.000,-0.325
'[07:23:51.530 15/12/1995]',-0.277,0.324,-0.282,37.659,28.600,0.000,-0.325
'[07:23:51.532 15/12/1995]',-0.268,0.294,-0.265,37.659,28.600,0.000,-0.325
'[07:23:51.534 15/12/1995]',-0.259,0.265,-0.242,37.659,28.600,0.000,-0.325
'[07:23:51.536 15/12/1995]',-0.242,0.226,-0.213,37.584,28.500,0.000,-0.319
'[07:23:51.538 15/12/1995]',-0.225,0.187,-0.178,37.584,28.500,0.000,-0.319
'[07:23:51.540 15/12/1995]',-0.204,0.147,-0.155,37.584,28.500,0.000,-0.319
'[07:23:51.542 15/12/1995]',-0.182,0.107,-0.126,37.584,28.500,0.000,-0.319
'[07:23:51.544 15/12/1995]',-0.159,0.071,-0.098,37.509,28.400,0.000,-0.313
'[07:23:51.546 15/12/1995]',-0.135,0.034,-0.086,37.509,28.400,0.000,-0.313
'[07:23:51.548 15/12/1995]',-0.113,0.004,-0.069,37.509,28.400,0.000,-0.313
'[07:23:51.550 15/12/1995]',-0.092,-0.026,-0.052,37.509,28.400,0.000,-0.313
'[07:23:51.552 15/12/1995]',-0.074,-0.051,-0.046,37.434,28.200,0.000,-0.308
'[07:23:51.554 15/12/1995]',-0.056,-0.076,-0.028,37.434,28.200,0.000,-0.308
'[07:23:51.556 15/12/1995]',-0.042,-0.096,-0.023,37.434,28.200,0.000,-0.308
'[07:23:51.558 15/12/1995]',-0.028,-0.116,0.001,37.434,28.200,0.000,-0.308
'[07:23:51.560 15/12/1995]',-0.018,-0.131,0.006,37.359,28.100,0.000,-0.304
'[07:23:51.562 15/12/1995]',-0.008,-0.146,0.012,37.359,28.100,0.000,-0.304
'[07:23:51.564 15/12/1995]',-0.001,-0.154,0.012,37.359,28.100,0.000,-0.304
'[07:23:51.566 15/12/1995]',0.006,-0.163,0.006,37.359,28.100,0.000,-0.304
'[07:23:51.568 15/12/1995]',0.010,-0.166,0.006,37.134,28.200,0.000,-0.302
'[07:23:51.570 15/12/1995]',0.015,-0.169,0.006,37.134,28.200,0.000,-0.302
'[07:23:51.572 15/12/1995]',0.018,-0.166,0.012,37.134,28.200,0.000,-0.302
'[07:23:51.574 15/12/1995]',0.021,-0.163,0.023,37.134,28.200,0.000,-0.302
'[07:23:51.576 15/12/1995]',0.023,-0.157,0.029,36.984,28.850,0.000,-0.304
'[07:23:51.578 15/12/1995]',0.025,-0.150,0.029,36.984,28.850,0.000,-0.304
'[07:23:51.580 15/12/1995]',0.027,-0.141,0.029,36.984,28.850,0.000,-0.304
'[07:23:51.582 15/12/1995]',0.029,-0.133,0.023,36.984,28.850,0.000,-0.304
'[07:23:51.584 15/12/1995]',0.030,-0.123,0.023,36.759,30.150,0.000,-0.308
'[07:23:51.586 15/12/1995]',0.031,-0.113,0.023,36.759,30.150,0.000,-0.308
'[07:23:51.588 15/12/1995]',0.031,-0.104,0.012,36.759,30.150,0.000,-0.308
'[07:23:51.590 15/12/1995]',0.032,-0.095,0.023,36.759,30.150,0.000,-0.308
'[07:23:51.592 15/12/1995]',0.032,-0.086,0.029,36.534,31.950,0.000,-0.316
'[07:23:51.594 15/12/1995]',0.033,-0.078,0.029,36.534,31.950,0.000,-0.316
'[07:23:51.596 15/12/1995]',0.033,-0.071,0.029,36.534,31.950,0.000,-0.316
'[07:23:51.598 15/12/1995]',0.034,-0.065,0.029,36.534,31.950,0.000,-0.316
'[07:23:51.600 15/12/1995]',0.035,-0.061,0.029,36.234,33.950,0.000,-0.327
'[07:23:51.602 15/12/1995]',0.036,-0.057,0.023,36.234,33.950,0.000,-0.327
'[07:23:51.604 15/12/1995]',0.037,-0.055,0.029,36.234,33.950,0.000,-0.327
'[07:23:51.606 15/12/1995]',0.038,-0.053,0.029,36.234,33.950,0.000,-0.327
'[07:23:51.608 15/12/1995]',0.039,-0.051,0.035,36.009,35.400,0.000,-0.342
'[07:23:51.610 15/12/1995]',0.039,-0.050,0.047,36.009,35.400,0.000,-0.342
'[07:23:51.612 15/12/1995]',0.038,-0.048,0.035,36.009,35.400,0.000,-0.342
'[07:23:51.614 15/12/1995]',0.037,-0.047,0.029,36.009,35.400,0.000,-0.342
'[07:23:51.616 15/12/1995]',0.034,-0.044,0.023,35.709,36.100,0.000,-0.361
'[07:23:51.618 15/12/1995]',0.032,-0.041,0.006,35.709,36.100,0.000,-0.361
'[07:23:51.620 15/12/1995]',0.030,-0.038,0.006,35.709,36.100,0.000,-0.361
'[07:23:51.622 15/12/1995]',0.028,-0.034,0.012,35.709,36.100,0.000,-0.361
'[07:23:51.624 15/12/1995]',0.027,-0.031,0.023,35.409,36.300,0.000,-0.384
'[07:23:51.626 15/12/1995]',0.025,-0.028,0.029,35.409,36.300,0.000,-0.384
'[07:23:51.628 15/12/1995]',0.025,-0.026,0.029,35.409,36.300,0.000,-0.384
'[07:23:51.630 15/12/1995]',0.024,-0.024,0.023,35.409,36.300,0.000,-0.384
'[07:23:51.632 15/12/1995]',0.024,-0.024,0.023,35.109,36.600,0.000,-0.408
'[07:23:51.634 15/12/1995]',0.024,-0.023,0.012,35.109,36.600,0.000,-0.408
'[07:23:51.636 15/12/1995]',0.023,-0.023,0.006,35.109,36.600,0.000,-0.408
'[07:23:51.638 15/12/1995]',0.022,-0.023,0.006,35.109,36.600,0.000,-0.408
'[07:23:51.640 15/12/1995]',0.020,-0.024,0.006,34.734,37.050,0.000,-0.433
'[07:23:51.642 15/12/1995]',0.018,-0.024,0.006,34.734,37.050,0.000,-0.433
'[07:23:51.644 15/12/1995]',0.016,-0.024,0.006,34.734,37.050,0.000,-0.433
'[07:23:51.646 15/12/1995]',0.015,-0.024,0.006,34.734,37.050,0.000,-0.433
'[07:23:51.648 15/12/1995]',0.014,-0.023,0.006,34.434,37.650,0.000,-0.460
'[07:23:51.650 15/12/1995]',0.013,-0.021,0.006,34.434,37.650,0.000,-0.460
'[07:23:51.652 15/12/1995]',0.013,-0.021,0.006,34.434,37.650,0.000,-0.460
'[07:23:51.654 15/12/1995]',0.014,-0.020,0.006,34.434,37.650,0.000,-0.460
'[07:23:51.656 15/12/1995]',0.015,-0.018,0.006,34.134,38.150,0.000,-0.487
'[07:23:51.658 15/12/1995]',0.016,-0.016,0.012,34.134,38.150,0.000,-0.487
'[07:23:51.660 15/12/1995]',0.017,-0.015,0.023,34.134,38.150,0.000,-0.487
'[07:23:51.662 15/12/1995]',0.018,-0.014,0.023,34.134,38.150,0.000,-0.487
'[07:23:51.664 15/12/1995]',0.019,-0.012,0.012,34.134,38.750,0.000,-0.514
'[07:23:51.666 15/12/1995]',0.020,-0.011,0.006,34.134,38.750,0.000,-0.514
'[07:23:51.668 15/12/1995]',0.020,-0.009,0.006,34.134,38.750,0.000,-0.514
'[07:23:51.670 15/12/1995]',0.020,-0.008,0.006,34.134,38.750,0.000,-0.514
'[07:23:51.672 15/12/1995]',0.020,-0.006,0.006,34.884,39.500,0.000,-0.538
'[07:23:51.674 15/12/1995]',0.020,-0.005,0.012,34.884,39.500,0.000,-0.538
'[07:23:51.676 15/12/1995]',0.019,-0.004,0.023,34.884,39.500,0.000,-0.538
'[07:23:51.678 15/12/1995]',0.019,-0.002,0.023,34.884,39.500,0.000,-0.538
'[07:23:51.680 15/12/1995]',0.019,-0.001,0.012,37.659,40.400,0.000,-0.561
'[07:23:51.682 15/12/1995]',0.018,0.000,0.012,37.659,40.400,0.000,-0.561
'[07:23:51.684 15/12/1995]',0.018,0.001,0.006,37.659,40.400,0.000,-0.561
'[07:23:51.686 15/12/1995]',0.017,0.002,0.006,37.659,40.400,0.000,-0.561
'[07:23:51.688 15/12/1995]',0.017,0.003,0.006,43.961,41.350,0.000,-0.583
'[07:23:51.690 15/12/1995]',0.016,0.004,0.006,43.961,41.350,0.000,-0.583
'[07:23:51.692 15/12/1995]',0.015,0.005,0.012,43.961,41.350,0.000,-0.583
'[07:23:51.694 15/12/1995]',0.015,0.006,0.006,43.961,41.350,0.000,-0.583
'[07:23:51.696 15/12/1995]',0.013,0.007,0.001,55.289,42.250,0.000,-0.603
'[07:23:51.698 15/12/1995]',0.012,0.008,0.001,55.289,42.250,0.000,-0.603
'[07:23:51.700 15/12/1995]',0.011,0.010,-0.011,55.289,42.250,0.000,-0.603
'[07:23:51.702 15/12/1995]',0.010,0.011,-0.005,55.289,42.250,0.000,-0.603
'[07:23:51.704 15/12/1995]',0.009,0.013,-0.005,71.343,43.100,0.000,-0.619
'[07:23:51.706 15/12/1995]',0.009,0.014,0.001,71.343,43.100,0.000,-0.619
'[07:23:51.708 15/12/1995]',0.009,0.014,0.006,71.343,43.100,0.000,-0.619
'[07:23:51.710 15/12/1995]',0.009,0.014,0.012,71.343,43.100,0.000,-0.619
'[07:23:51.712 15/12/1995]',0.010,0.014,0.012,89.797,43.850,0.000,-0.633
'[07:23:51.714 15/12/1995]',0.010,0.014,0.006,89.797,43.850,0.000,-0.633
'[07:23:51.716 15/12/1995]',0.010,0.014,0.001,89.797,43.850,0.000,-0.633
'[07:23:51.718 15/12/1995]',0.011,0.014,-0.005,89.797,43.850,0.000,-0.633
'[07:23:51.720 15/12/1995]',0.011,0.014,0.001,107.052,44.550,0.000,-0.645
'[07:23:51.722 15/12/1995]',0.011,0.015,0.001,107.052,44.550,0.000,-0.645
'[07:23:51.724 15/12/1995]',0.011,0.017,0.006,107.052,44.550,0.000,-0.645
'[07:23:51.726 15/12/1995]',0.011,0.019,0.006,107.052,44.550,0.000,-0.645
'[07:23:51.728 15/12/1995]',0.011,0.021,0.001,119.430,45.200,0.000,-0.654
'[07:23:51.730 15/12/1995]',0.011,0.023,0.006,119.430,45.200,0.000,-0.654
'[07:23:51.732 15/12/1995]',0.011,0.024,0.006,119.430,45.200,0.000,-0.654
'[07:23:51.734 15/12/1995]',0.011,0.026,0.001,119.430,45.200,0.000,-0.654
'[07:23:51.736 15/12/1995]',0.010,0.029,0.001,125.131,45.900,0.000,-0.662
'[07:23:51.738 15/12/1995]',0.010,0.031,0.001,125.131,45.900,0.000,-0.662
'[07:23:51.740 15/12/1995]',0.009,0.034,0.001,125.131,45.900,0.000,-0.662
'[07:23:51.742 15/12/1995]',0.008,0.037,0.001,125.131,45.900,0.000,-0.662
'[07:23:51.744 15/12/1995]',0.007,0.038,0.001,124.681,46.550,0.000,-0.667
'[07:23:51.746 15/12/1995]',0.006,0.040,-0.005,124.681,46.550,0.000,-0.667
'[07:23:51.748 15/12/1995]',0.004,0.041,-0.005,124.681,46.550,0.000,-0.667
'[07:23:51.750 15/12/1995]',0.002,0.042,-0.011,124.681,46.550,0.000,-0.667
'[07:23:51.752 15/12/1995]',0.000,0.041,-0.023,120.255,47.350,0.000,-0.671
'[07:23:51.754 15/12/1995]',-0.002,0.040,-0.023,120.255,47.350,0.000,-0.671
'[07:23:51.756 15/12/1995]',-0.002,0.039,-0.011,120.255,47.350,0.000,-0.671
'[07:23:51.758 15/12/1995]',-0.003,0.037,0.001,120.255,47.350,0.000,-0.671
'[07:23:51.760 15/12/1995]',-0.003,0.034,-0.005,114.254,48.200,0.000,-0.672
'[07:23:51.762 15/12/1995]',-0.003,0.031,-0.005,114.254,48.200,0.000,-0.672
'[07:23:51.764 15/12/1995]',-0.002,0.029,-0.005,114.254,48.200,0.000,-0.672
'[07:23:51.766 15/12/1995]',-0.001,0.027,-0.005,114.254,48.200,0.000,-0.672
'[07:23:51.768 15/12/1995]',0.000,0.026,-0.005,108.402,49.050,0.000,-0.672
'[07:23:51.770 15/12/1995]',0.001,0.024,-0.005,108.402,49.050,0.000,-0.672
'[07:23:51.772 15/12/1995]',0.002,0.023,-0.005,108.402,49.050,0.000,-0.672
'[07:23:51.774 15/12/1995]',0.003,0.023,-0.005,108.402,49.050,0.000,-0.672
'[07:23:51.776 15/12/1995]',0.003,0.024,-0.005,103.301,49.800,0.000,-0.669
'[07:23:51.778 15/12/1995]',0.004,0.024,0.001,103.301,49.800,0.000,-0.669
'[07:23:51.780 15/12/1995]',0.004,0.024,-0.005,103.301,49.800,0.000,-0.669
'[07:23:51.782 15/12/1995]',0.004,0.024,-0.005,103.301,49.800,0.000,-0.669
'[07:23:51.784 15/12/1995]',0.004,0.024,-0.005,99.025,50.350,0.000,-0.665
'[07:23:51.786 15/12/1995]',0.004,0.023,-0.011,99.025,50.350,0.000,-0.665
'[07:23:51.788 15/12/1995]',0.004,0.021,-0.005,99.025,50.350,0.000,-0.665
'[07:23:51.790 15/12/1995]',0.004,0.020,-0.005,99.025,50.350,0.000,-0.665
'[07:23:51.792 15/12/1995]',0.005,0.017,0.001,95.274,50.650,0.000,-0.658
'[07:23:51.794 15/12/1995]',0.006,0.014,0.006,95.274,50.650,0.000,-0.658
'[07:23:51.796 15/12/1995]',0.006,0.010,0.006,95.274,50.650,0.000,-0.658
'[07:23:51.798 15/12/1995]',0.007,0.006,0.006,95.274,50.650,0.000,-0.658
'[07:23:51.800 15/12/1995]',0.008,0.003,0.001,91.898,50.750,0.000,-0.650
'[07:23:51.802 15/12/1995]',0.008,0.000,-0.005,91.898,50.750,0.000,-0.650
'[07:23:51.804 15/12/1995]',0.007,-0.000,-0.005,91.898,50.750,0.000,-0.650
'[07:23:51.806 15/12/1995]',0.007,-0.001,-0.005,91.898,50.750,0.000,-0.650
'[07:23:51.808 15/12/1995]',0.006,0.000,-0.005,88.897,50.650,0.000,-0.641
'[07:23:51.810 15/12/1995]',0.006,0.002,0.001,88.897,50.650,0.000,-0.641
'[07:23:51.812 15/12/1995]',0.005,0.004,-0.005,88.897,50.650,0.000,-0.641
'[07:23:51.814 15/12/1995]',0.005,0.006,-0.005,88.897,50.650,0.000,-0.641
'[07:23:51.816 15/12/1995]',0.004,0.008,-0.005,86.347,50.350,0.000,-0.630
'[07:23:51.818 15/12/1995]',0.004,0.010,-0.011,86.347,50.350,0.000,-0.630
'[07:23:51.820 15/12/1995]',0.004,0.010,-0.005,86.347,50.350,0.000,-0.630
'[07:23:51.822 15/12/1995]',0.003,0.010,-0.005,86.347,50.350,0.000,-0.630
'[07:23:51.824 15/12/1995]',0.003,0.008,0.001,84.246,49.750,0.000,-0.619
'[07:23:51.826 15/12/1995]',0.004,0.006,-0.005,84.246,49.750,0.000,-0.619
'[07:23:51.828 15/12/1995]',0.003,0.004,0.001,84.246,49.750,0.000,-0.619
'[07:23:51.830 15/12/1995]',0.003,0.002,-0.005,84.246,49.750,0.000,-0.619
'[07:23:51.832 15/12/1995]',0.002,0.001,-0.005,82.446,49.000,0.000,-0.608
'[07:23:51.834 15/12/1995]',0.002,-0.001,-0.011,82.446,49.000,0.000,-0.608
'[07:23:51.836 15/12/1995]',0.001,-0.002,-0.011,82.446,49.000,0.000,-0.608
'[07:23:51.838 15/12/1995]',-0.001,-0.002,-0.011,82.446,49.000,0.000,-0.608
'[07:23:51.840 15/12/1995]',-0.001,-0.001,-0.005,80.870,47.950,0.000,-0.598
'[07:23:51.842 15/12/1995]',-0.002,0.000,-0.005,80.870,47.950,0.000,-0.598
'[07:23:51.844 15/12/1995]',-0.001,0.002,0.001,80.870,47.950,0.000,-0.598
'[07:23:51.846 15/12/1995]',0.000,0.004,0.001,80.870,47.950,0.000,-0.598
'[07:23:51.848 15/12/1995]',0.001,0.006,0.001,79.370,46.750,0.000,-0.589
'[07:23:51.850 15/12/1995]',0.002,0.009,-0.011,79.370,46.750,0.000,-0.589
'[07:23:51.852 15/12/1995]',0.002,0.011,-0.011,79.370,46.750,0.000,-0.589
'[07:23:51.854 15/12/1995]',0.002,0.014,-0.011,79.370,46.750,0.000,-0.589
'[07:23:51.856 15/12/1995]',0.002,0.016,-0.011,77.719,45.500,0.000,-0.581
'[07:23:51.858 15/12/1995]',0.001,0.018,-0.005,77.719,45.500,0.000,-0.581
'[07:23:51.860 15/12/1995]',0.001,0.018,-0.005,77.719,45.500,0.000,-0.581
'[07:23:51.862 15/12/1995]',0.000,0.019,-0.005,77.719,45.500,0.000,-0.581
'[07:23:51.864 15/12/1995]',-0.000,0.020,-0.005,75.919,44.100,0.000,-0.574
'[07:23:51.866 15/12/1995]',-0.001,0.021,-0.005,75.919,44.100,0.000,-0.574
'[07:23:51.868 15/12/1995]',-0.000,0.021,-0.011,75.919,44.100,0.000,-0.574
'[07:23:51.870 15/12/1995]',0.000,0.022,-0.011,75.919,44.100,0.000,-0.574
'[07:23:51.872 15/12/1995]',0.000,0.024,-0.005,73.818,42.650,0.000,-0.569
'[07:23:51.874 15/12/1995]',0.000,0.026,-0.005,73.818,42.650,0.000,-0.569
'[07:23:51.876 15/12/1995]',-0.001,0.028,0.001,73.818,42.650,0.000,-0.569
'[07:23:51.878 15/12/1995]',-0.001,0.031,-0.005,73.818,42.650,0.000,-0.569
'[07:23:51.880 15/12/1995]',-0.003,0.033,-0.011,71.418,41.350,0.000,-0.565
'[07:23:51.882 15/12/1995]',-0.004,0.035,-0.011,71.418,41.350,0.000,-0.565
'[07:23:51.884 15/12/1995]',-0.006,0.037,-0.023,71.418,41.350,0.000,-0.565
'[07:23:51.886 15/12/1995]',-0.008,0.039,-0.023,71.418,41.350,0.000,-0.565
'[07:23:51.888 15/12/1995]',-0.008,0.039,-0.023,68.642,40.050,0.000,-0.562
'[07:23:51.890 15/12/1995]',-0.008,0.039,-0.011,68.642,40.050,0.000,-0.562
'[07:23:51.892 15/12/1995]',-0.007,0.037,-0.005,68.642,40.050,0.000,-0.562
'[07:23:51.894 15/12/1995]',-0.006,0.036,-0.005,68.642,40.050,0.000,-0.562
'[07:23:51.896 15/12/1995]',-0.004,0.035,-0.005,65.491,38.850,0.000,-0.560
'[07:23:51.898 15/12/1995]',-0.003,0.034,-0.005,65.491,38.850,0.000,-0.560
'[07:23:51.900 15/12/1995]',-0.002,0.033,-0.011,65.491,38.850,0.000,-0.560
'[07:23:51.902 15/12/1995]',-0.001,0.033,-0.011,65.491,38.850,0.000,-0.560
'[07:23:51.904 15/12/1995]',-0.000,0.034,-0.011,62.041,37.950,0.000,-0.558
'[07:23:51.906 15/12/1995]',0.000,0.035,-0.011,62.041,37.950,0.000,-0.558
'[07:23:51.908 15/12/1995]',-0.000,0.037,-0.011,62.041,37.950,0.000,-0.558
'[07:23:51.910 15/12/1995]',-0.001,0.039,-0.005,62.041,37.950,0.000,-0.558
'[07:23:51.912 15/12/1995]',-0.001,0.040,-0.005,58.515,37.150,0.000,-0.558
'[07:23:51.914 15/12/1995]',-0.002,0.042,-0.005,58.515,37.150,0.000,-0.558
'[07:23:51.916 15/12/1995]',-0.002,0.042,-0.011,58.515,37.150,0.000,-0.558
'[07:23:51.918 15/12/1995]',-0.002,0.042,-0.011,58.515,37.150,0.000,-0.558
'[07:23:51.920 15/12/1995]',-0.002,0.042,-0.023,55.289,36.600,0.000,-0.558
'[07:23:51.922 15/12/1995]',-0.002,0.042,-0.011,55.289,36.600,0.000,-0.558
'[07:23:51.924 15/12/1995]',-0.002,0.043,-0.005,55.289,36.600,0.000,-0.558
'[07:23:51.926 15/12/1995]',-0.002,0.043,-0.005,55.289,36.600,0.000,-0.558
'[07:23:51.928 15/12/1995]',-0.003,0.046,-0.005,52.363,36.300,0.000,-0.560
'[07:23:51.930 15/12/1995]',-0.003,0.048,-0.011,52.363,36.300,0.000,-0.560
'[07:23:51.932 15/12/1995]',-0.004,0.051,-0.023,52.363,36.300,0.000,-0.560
'[07:23:51.934 15/12/1995]',-0.006,0.054,-0.023,52.363,36.300,0.000,-0.560
'[07:23:51.936 15/12/1995]',-0.007,0.057,-0.023,50.113,36.300,0.000,-0.564
'[07:23:51.938 15/12/1995]',-0.009,0.060,-0.023,50.113,36.300,0.000,-0.564
'[07:23:51.940 15/12/1995]',-0.010,0.061,-0.023,50.113,36.300,0.000,-0.564
'[07:23:51.942 15/12/1995]',-0.012,0.063,-0.011,50.113,36.300,0.000,-0.564
'[07:23:51.944 15/12/1995]',-0.013,0.061,-0.023,48.387,36.450,0.000,-0.569
'[07:23:51.946 15/12/1995]',-0.014,0.060,-0.028,48.387,36.450,0.000,-0.569
'[07:23:51.948 15/12/1995]',-0.015,0.057,-0.023,48.387,36.450,0.000,-0.569
'[07:23:51.950 15/12/1995]',-0.016,0.054,-0.028,48.387,36.450,0.000,-0.569
'[07:23:51.952 15/12/1995]',-0.016,0.050,-0.028,47.262,36.750,0.000,-0.575
'[07:23:51.954 15/12/1995]',-0.016,0.047,-0.028,47.262,36.750,0.000,-0.575
'[07:23:51.956 15/12/1995]',-0.015,0.044,-0.023,47.262,36.750,0.000,-0.575
'[07:23:51.958 15/12/1995]',-0.015,0.041,-0.011,47.262,36.750,0.000,-0.575
'[07:23:51.960 15/12/1995]',-0.013,0.039,-0.005,46.662,37.200,0.000,-0.581
'[07:23:51.962 15/12/1995]',-0.012,0.037,-0.005,46.662,37.200,0.000,-0.581
'[07:23:51.964 15/12/1995]',-0.012,0.035,-0.011,46.662,37.200,0.000,-0.581
'[07:23:51.966 15/12/1995]',-0.011,0.034,-0.023,46.662,37.200,0.000,-0.581
'[07:23:51.968 15/12/1995]',-0.011,0.035,-0.028,46.287,37.650,0.000,-0.587
'[07:23:51.970 15/12/1995]',-0.012,0.035,-0.028,46.287,37.650,0.000,-0.587
'[07:23:51.972 15/12/1995]',-0.012,0.036,-0.028,46.287,37.650,0.000,-0.587
'[07:23:51.974 15/12/1995]',-0.013,0.037,-0.023,46.287,37.650,0.000,-0.587
'[07:23:51.976 15/12/1995]',-0.013,0.039,-0.023,46.137,38.050,0.000,-0.593
'[07:23:51.978 15/12/1995]',-0.014,0.041,-0.011,46.137,38.050,0.000,-0.593
'[07:23:51.980 15/12/1995]',-0.014,0.042,-0.011,46.137,38.050,0.000,-0.593
'[07:23:51.982 15/12/1995]',-0.013,0.043,-0.023,46.137,38.050,0.000,-0.593
'[07:23:51.984 15/12/1995]',-0.013,0.043,-0.023,46.137,38.400,0.000,-0.599
'[07:23:51.986 15/12/1995]',-0.013,0.043,-0.028,46.137,38.400,0.000,-0.599
'[07:23:51.988 15/12/1995]',-0.013,0.043,-0.028,46.137,38.400,0.000,-0.599
'[07:23:51.990 15/12/1995]',-0.013,0.043,-0.023,46.137,38.400,0.000,-0.599
'[07:23:51.992 15/12/1995]',-0.013,0.042,-0.023,46.212,38.550,0.000,-0.603
'[07:23:51.994 15/12/1995]',-0.013,0.041,-0.005,46.212,38.550,0.000,-0.603
'[07:23:51.996 15/12/1995]',-0.012,0.042,-0.011,46.212,38.550,0.000,-0.603
'[07:23:51.998 15/12/1995]',-0.011,0.042,-0.023,46.212,38.550,0.000,-0.603
'[07:23:52.000 15/12/1995]',-0.010,0.042,-0.023,46.362,38.550,0.000,-0.606
'[07:23:52.002 15/12/1995]',-0.009,0.043,-0.023,46.362,38.550,0.000,-0.606
'[07:23:52.004 15/12/1995]',-0.009,0.043,-0.023,46.362,38.550,0.000,-0.606
'[07:23:52.006 15/12/1995]',-0.008,0.044,-0.023,46.362,38.550,0.000,-0.606
'[07:23:52.008 15/12/1995]',-0.008,0.045,-0.005,46.662,38.450,0.000,-0.607
'[07:23:52.010 15/12/1995]',-0.008,0.045,-0.011,46.662,38.450,0.000,-0.607
'[07:23:52.012 15/12/1995]',-0.009,0.044,-0.011,46.662,38.450,0.000,-0.607
'[07:23:52.014 15/12/1995]',-0.010,0.043,-0.011,46.662,38.450,0.000,-0.607
'[07:23:52.016 15/12/1995]',-0.011,0.043,-0.028,46.962,38.200,0.000,-0.608
'[07:23:52.018 15/12/1995]',-0.012,0.042,-0.028,46.962,38.200,0.000,-0.608
'[07:23:52.020 15/12/1995]',-0.014,0.041,-0.028,46.962,38.200,0.000,-0.608
'[07:23:52.022 15/12/1995]',-0.016,0.040,-0.034,46.962,38.200,0.000,-0.608
'[07:23:52.024 15/12/1995]',-0.017,0.040,-0.028,47.262,37.950,0.000,-0.609
'[07:23:52.026 15/12/1995]',-0.018,0.040,-0.023,47.262,37.950,0.000,-0.609
'[07:23:52.028 15/12/1995]',-0.018,0.042,-0.023,47.262,37.950,0.000,-0.609
'[07:23:52.030 15/12/1995]',-0.019,0.043,-0.023,47.262,37.950,0.000,-0.609
'[07:23:52.032 15/12/1995]',-0.019,0.046,-0.028,47.412,37.650,0.000,-0.609
'[07:23:52.034 15/12/1995]',-0.019,0.050,-0.028,47.412,37.650,0.000,-0.609
'[07:23:52.036 15/12/1995]',-0.019,0.055,-0.028,47.412,37.650,0.000,-0.609
'[07:23:52.038 15/12/1995]',-0.019,0.060,-0.034,47.412,37.650,0.000,-0.609
'[07:23:52.040 15/12/1995]',-0.018,0.066,-0.028,47.487,37.350,0.000,-0.609
'[07:23:52.042 15/12/1995]',-0.018,0.072,-0.023,47.487,37.350,0.000,-0.609
'[07:23:52.044 15/12/1995]',-0.017,0.079,-0.011,47.487,37.350,0.000,-0.609
'[07:23:52.046 15/12/1995]',-0.017,0.085,-0.011,47.487,37.350,0.000,-0.609
'[07:23:52.048 15/12/1995]',-0.016,0.089,-0.023,47.412,37.000,0.000,-0.609
'[07:23:52.050 15/12/1995]',-0.015,0.094,-0.023,47.412,37.000,0.000,-0.609
'[07:23:52.052 15/12/1995]',-0.014,0.096,-0.023,47.412,37.000,0.000,-0.609
'[07:23:52.054 15/12/1995]',-0.013,0.098,-0.023,47.412,37.000,0.000,-0.609
'[07:23:52.056 15/12/1995]',-0.014,0.100,-0.023,47.262,36.600,0.000,-0.609
'[07:23:52.058 15/12/1995]',-0.014,0.101,-0.023,47.262,36.600,0.000,-0.609
'[07:23:52.060 15/12/1995]',-0.016,0.103,-0.023,47.262,36.600,0.000,-0.609
'[07:23:52.062 15/12/1995]',-0.018,0.104,-0.028,47.262,36.600,0.000,-0.609
'[07:23:52.064 15/12/1995]',-0.021,0.105,-0.028,46.962,36.050,0.000,-0.608
'[07:23:52.066 15/12/1995]',-0.024,0.107,-0.046,46.962,36.050,0.000,-0.608
'[07:23:52.068 15/12/1995]',-0.028,0.109,-0.052,46.962,36.050,0.000,-0.608
'[07:23:52.070 15/12/1995]',-0.032,0.111,-0.052,46.962,36.050,0.000,-0.608
'[07:23:52.072 15/12/1995]',-0.034,0.113,-0.052,46.587,35.450,0.000,-0.608
'[07:23:52.074 15/12/1995]',-0.037,0.115,-0.046,46.587,35.450,0.000,-0.608
'[07:23:52.076 15/12/1995]',-0.037,0.115,-0.046,46.587,35.450,0.000,-0.608
'[07:23:52.078 15/12/1995]',-0.038,0.115,-0.034,46.587,35.450,0.000,-0.608
'[07:23:52.080 15/12/1995]',-0.037,0.113,-0.034,46.137,34.800,0.000,-0.607
'[07:23:52.082 15/12/1995]',-0.036,0.111,-0.034,46.137,34.800,0.000,-0.607
'[07:23:52.084 15/12/1995]',-0.035,0.106,-0.034,46.137,34.800,0.000,-0.607
'[07:23:52.086 15/12/1995]',-0.034,0.102,-0.034,46.137,34.800,0.000,-0.607
'[07:23:52.088 15/12/1995]',-0.033,0.099,-0.034,45.686,34.250,0.000,-0.606
'[07:23:52.090 15/12/1995]',-0.033,0.095,-0.046,45.686,34.250,0.000,-0.606
'[07:23:52.092 15/12/1995]',-0.033,0.094,-0.034,45.686,34.250,0.000,-0.606
'[07:23:52.094 15/12/1995]',-0.033,0.092,-0.034,45.686,34.250,0.000,-0.606
'[07:23:52.096 15/12/1995]',-0.035,0.092,-0.046,45.161,33.600,0.000,-0.605
'[07:23:52.098 15/12/1995]',-0.036,0.092,-0.052,45.161,33.600,0.000,-0.605
'[07:23:52.100 15/12/1995]',-0.037,0.093,-0.052,45.161,33.600,0.000,-0.605
'[07:23:52.102 15/12/1995]',-0.038,0.095,-0.052,45.161,33.600,0.000,-0.605
'[07:23:52.104 15/12/1995]',-0.039,0.095,-0.052,44.561,32.900,0.000,-0.604
'[07:23:52.106 15/12/1995]',-0.039,0.096,-0.052,44.561,32.900,0.000,-0.604
'[07:23:52.108 15/12/1995]',-0.039,0.095,-0.034,44.561,32.900,0.000,-0.604
'[07:23:52.110 15/12/1995]',-0.038,0.094,-0.034,44.561,32.900,0.000,-0.604
'[07:23:52.112 15/12/1995]',-0.036,0.091,-0.034,44.036,32.250,0.000,-0.603
'[07:23:52.114 15/12/1995]',-0.033,0.088,-0.034,44.036,32.250,0.000,-0.603
'[07:23:52.116 15/12/1995]',-0.030,0.084,-0.034,44.036,32.250,0.000,-0.603
'[07:23:52.118 15/12/1995]',-0.027,0.079,-0.034,44.036,32.250,0.000,-0.603
'[07:23:52.120 15/12/1995]',-0.023,0.074,-0.028,43.511,31.750,0.000,-0.601
'[07:23:52.122 15/12/1995]',-0.020,0.069,-0.028,43.511,31.750,0.000,-0.601
'[07:23:52.124 15/12/1995]',-0.017,0.064,-0.011,43.511,31.750,0.000,-0.601
'[07:23:52.126 15/12/1995]',-0.013,0.059,-0.011,43.511,31.750,0.000,-0.601
'[07:23:52.128 15/12/1995]',-0.011,0.055,-0.005,42.986,31.400,0.000,-0.598
'[07:23:52.130 15/12/1995]',-0.009,0.050,-0.005,42.986,31.400,0.000,-0.598
'[07:23:52.132 15/12/1995]',-0.006,0.045,-0.005,42.986,31.400,0.000,-0.598
'[07:23:52.134 15/12/1995]',-0.004,0.040,-0.005,42.986,31.400,0.000,-0.598
'[07:23:52.136 15/12/1995]',-0.002,0.033,-0.011,42.461,31.050,0.000,-0.595
'[07:23:52.138 15/12/1995]',0.000,0.027,-0.011,42.461,31.050,0.000,-0.595
'[07:23:52.140 15/12/1995]',0.001,0.020,-0.011,42.461,31.050,0.000,-0.595
'[07:23:52.142 15/12/1995]',0.003,0.014,-0.005,42.461,31.050,0.000,-0.595
'[07:23:52.144 15/12/1995]',0.003,0.007,0.001,41.935,30.700,0.000,-0.592
'[07:23:52.146 15/12/1995]',0.004,0.001,0.001,41.935,30.700,0.000,-0.592
'[07:23:52.148 15/12/1995]',0.004,-0.004,0.001,41.935,30.700,0.000,-0.592
'[07:23:52.150 15/12/1995]',0.004,-0.008,-0.005,41.935,30.700,0.000,-0.592
'[07:23:52.152 15/12/1995]',0.004,-0.011,-0.011,41.335,30.300,0.000,-0.587
'[07:23:52.154 15/12/1995]',0.005,-0.014,-0.011,41.335,30.300,0.000,-0.587
'[07:23:52.156 15/12/1995]',0.004,-0.015,-0.011,41.335,30.300,0.000,-0.587
'[07:23:52.158 15/12/1995]',0.004,-0.016,0.001,41.335,30.300,0.000,-0.587
'[07:23:52.160 15/12/1995]',0.004,-0.017,-0.005,40.810,29.950,0.000,-0.582
'[07:23:52.162 15/12/1995]',0.003,-0.018,0.001,40.810,29.950,0.000,-0.582
'[07:23:52.164 15/12/1995]',0.004,-0.019,-0.005,40.810,29.950,0.000,-0.582
'[07:23:52.166 15/12/1995]',0.004,-0.020,-0.005,40.810,29.950,0.000,-0.582
'[07:23:52.168 15/12/1995]',0.005,-0.022,0.001,40.285,29.700,0.000,-0.577
'[07:23:52.170 15/12/1995]',0.006,-0.024,-0.005,40.285,29.700,0.000,-0.577
'[07:23:52.172 15/12/1995]',0.008,-0.025,0.001,40.285,29.700,0.000,-0.577
'[07:23:52.174 15/12/1995]',0.009,-0.026,0.006,40.285,29.700,0.000,-0.577
'[07:23:52.176 15/12/1995]',0.009,-0.027,0.012,39.835,29.500,0.000,-0.570
'[07:23:52.178 15/12/1995]',0.010,-0.029,0.006,39.835,29.500,0.000,-0.570
'[07:23:52.180 15/12/1995]',0.009,-0.029,0.001,39.835,29.500,0.000,-0.570
'[07:23:52.182 15/12/1995]',0.009,-0.030,0.001,39.835,29.500,0.000,-0.570
'[07:23:52.184 15/12/1995]',0.008,-0.029,-0.005,39.460,29.350,0.000,-0.560
'[07:23:52.186 15/12/1995]',0.008,-0.029,-0.005,39.460,29.350,0.000,-0.560
'[07:23:52.188 15/12/1995]',0.008,-0.028,-0.005,39.460,29.350,0.000,-0.560
'[07:23:52.190 15/12/1995]',0.007,-0.027,0.001,39.460,29.350,0.000,-0.560
'[07:23:52.192 15/12/1995]',0.008,-0.026,0.001,39.085,29.450,0.000,-0.549
'[07:23:52.194 15/12/1995]',0.008,-0.024,0.001,39.085,29.450,0.000,-0.549
'[07:23:52.196 15/12/1995]',0.009,-0.021,0.006,39.085,29.450,0.000,-0.549
'[07:23:52.198 15/12/1995]',0.009,-0.018,0.012,39.085,29.450,0.000,-0.549
'[07:23:52.200 15/12/1995]',0.010,-0.012,0.012,38.785,29.550,0.000,-0.536
'[07:23:52.202 15/12/1995]',0.010,-0.006,0.006,38.785,29.550,0.000,-0.536
'[07:23:52.204 15/12/1995]',0.007,0.006,0.001,38.785,29.550,0.000,-0.536
'[07:23:52.206 15/12/1995]',0.004,0.018,-0.005,38.785,29.550,0.000,-0.536
'[07:23:52.208 15/12/1995]',-0.005,0.037,-0.023,38.485,29.650,0.000,-0.522
'[07:23:52.210 15/12/1995]',-0.015,0.056,-0.034,38.485,29.650,0.000,-0.522
'[07:23:52.212 15/12/1995]',-0.032,0.084,-0.069,38.485,29.650,0.000,-0.522
'[07:23:52.214 15/12/1995]',-0.049,0.111,-0.092,38.485,29.650,0.000,-0.522
'[07:23:52.216 15/12/1995]',-0.074,0.145,-0.132,38.335,29.700,0.000,-0.507
'[07:23:52.218 15/12/1995]',-0.098,0.178,-0.172,38.335,29.700,0.000,-0.507
'[07:23:52.220 15/12/1995]',-0.126,0.213,-0.213,38.335,29.700,0.000,-0.507
'[07:23:52.222 15/12/1995]',-0.153,0.247,-0.236,38.335,29.700,0.000,-0.507
'[07:23:52.224 15/12/1995]',-0.179,0.277,-0.242,38.185,29.700,0.000,-0.492
'[07:23:52.226 15/12/1995]',-0.205,0.307,-0.259,38.185,29.700,0.000,-0.492
'[07:23:52.228 15/12/1995]',-0.225,0.326,-0.265,38.185,29.700,0.000,-0.492
'[07:23:52.230 15/12/1995]',-0.245,0.346,-0.282,38.185,29.700,0.000,-0.492
'[07:23:52.232 15/12/1995]',-0.256,0.350,-0.288,38.035,29.600,0.000,-0.476
'[07:23:52.234 15/12/1995]',-0.267,0.355,-0.299,38.035,29.600,0.000,-0.476
'[07:23:52.236 15/12/1995]',-0.268,0.340,-0.299,38.035,29.600,0.000,-0.476
'[07:23:52.238 15/12/1995]',-0.270,0.326,-0.282,38.035,29.600,0.000,-0.476
'[07:23:52.240 15/12/1995]',-0.262,0.294,-0.265,37.884,29.350,0.000,-0.460
'[07:23:52.242 15/12/1995]',-0.253,0.262,-0.224,37.884,29.350,0.000,-0.460
'[07:23:52.244 15/12/1995]',-0.236,0.220,-0.196,37.884,29.350,0.000,-0.460
'[07:23:52.246 15/12/1995]',-0.218,0.179,-0.161,37.884,29.350,0.000,-0.460
'[07:23:52.248 15/12/1995]',-0.195,0.138,-0.150,37.809,29.100,0.000,-0.445
'[07:23:52.250 15/12/1995]',-0.172,0.096,-0.126,37.809,29.100,0.000,-0.445
'[07:23:52.252 15/12/1995]',-0.147,0.060,-0.098,37.809,29.100,0.000,-0.445
'[07:23:52.254 15/12/1995]',-0.123,0.024,-0.086,37.809,29.100,0.000,-0.445
'[07:23:52.256 15/12/1995]',-0.101,-0.006,-0.063,37.734,28.800,0.000,-0.430
'[07:23:52.258 15/12/1995]',-0.078,-0.035,-0.034,37.734,28.800,0.000,-0.430
'[07:23:52.260 15/12/1995]',-0.060,-0.059,-0.023,37.734,28.800,0.000,-0.430
'[07:23:52.262 15/12/1995]',-0.042,-0.082,-0.011,37.734,28.800,0.000,-0.430
'[07:23:52.264 15/12/1995]',-0.028,-0.101,0.001,37.659,28.650,0.000,-0.417
'[07:23:52.266 15/12/1995]',-0.013,-0.120,0.001,37.659,28.650,0.000,-0.417
'[07:23:52.268 15/12/1995]',-0.003,-0.133,0.006,37.659,28.650,0.000,-0.417
'[07:23:52.270 15/12/1995]',0.007,-0.147,0.012,37.659,28.650,0.000,-0.417
'[07:23:52.272 15/12/1995]',0.014,-0.156,0.012,37.509,28.750,0.000,-0.406
'[07:23:52.274 15/12/1995]',0.021,-0.166,0.023,37.509,28.750,0.000,-0.406
'[07:23:52.276 15/12/1995]',0.025,-0.169,0.035,37.509,28.750,0.000,-0.406
'[07:23:52.278 15/12/1995]',0.030,-0.173,0.035,37.509,28.750,0.000,-0.406
'[07:23:52.280 15/12/1995]',0.032,-0.171,0.035,37.359,29.200,0.000,-0.397
'[07:23:52.282 15/12/1995]',0.035,-0.169,0.029,37.359,29.200,0.000,-0.397
'[07:23:52.284 15/12/1995]',0.037,-0.164,0.029,37.359,29.200,0.000,-0.397
'[07:23:52.286 15/12/1995]',0.039,-0.159,0.029,37.359,29.200,0.000,-0.397
'[07:23:52.288 15/12/1995]',0.041,-0.150,0.029,37.209,30.300,0.000,-0.392
'[07:23:52.290 15/12/1995]',0.043,-0.142,0.035,37.209,30.300,0.000,-0.392
'[07:23:52.292 15/12/1995]',0.044,-0.132,0.047,37.209,30.300,0.000,-0.392
'[07:23:52.294 15/12/1995]',0.046,-0.122,0.047,37.209,30.300,0.000,-0.392
'[07:23:52.296 15/12/1995]',0.046,-0.113,0.052,36.984,31.900,0.000,-0.389
'[07:23:52.298 15/12/1995]',0.047,-0.105,0.047,36.984,31.900,0.000,-0.389
'[07:23:52.300 15/12/1995]',0.047,-0.097,0.035,36.984,31.900,0.000,-0.389
'[07:23:52.302 15/12/1995]',0.047,-0.089,0.029,36.984,31.900,0.000,-0.389
'[07:23:52.304 15/12/1995]',0.046,-0.082,0.029,36.759,33.700,0.000,-0.392
'[07:23:52.306 15/12/1995]',0.045,-0.076,0.035,36.759,33.700,0.000,-0.392
'[07:23:52.308 15/12/1995]',0.044,-0.070,0.047,36.759,33.700,0.000,-0.392
'[07:23:52.310 15/12/1995]',0.043,-0.064,0.035,36.759,33.700,0.000,-0.392
'[07:23:52.312 15/12/1995]',0.041,-0.059,0.035,36.459,35.450,0.000,-0.402
'[07:23:52.314 15/12/1995]',0.040,-0.054,0.035,36.459,35.450,0.000,-0.402
'[07:23:52.316 15/12/1995]',0.040,-0.050,0.029,36.459,35.450,0.000,-0.402
'[07:23:52.318 15/12/1995]',0.039,-0.045,0.029,36.459,35.450,0.000,-0.402
'[07:23:52.320 15/12/1995]',0.039,-0.042,0.029,36.159,36.650,0.000,-0.417
'[07:23:52.322 15/12/1995]',0.039,-0.039,0.029,36.159,36.650,0.000,-0.417
'[07:23:52.324 15/12/1995]',0.040,-0.037,0.035,36.159,36.650,0.000,-0.417
'[07:23:52.326 15/12/1995]',0.040,-0.035,0.035,36.159,36.650,0.000,-0.417
'[07:23:52.328 15/12/1995]',0.040,-0.034,0.035,35.784,37.100,0.000,-0.440
'[07:23:52.330 15/12/1995]',0.040,-0.034,0.029,35.784,37.100,0.000,-0.440
'[07:23:52.332 15/12/1995]',0.040,-0.034,0.029,35.784,37.100,0.000,-0.440
'[07:23:52.334 15/12/1995]',0.039,-0.034,0.029,35.784,37.100,0.000,-0.440
'[07:23:52.336 15/12/1995]',0.039,-0.035,0.029,35.484,37.050,0.000,-0.464
'[07:23:52.338 15/12/1995]',0.039,-0.037,0.035,35.484,37.050,0.000,-0.464
'[07:23:52.340 15/12/1995]',0.039,-0.038,0.035,35.484,37.050,0.000,-0.464
'[07:23:52.342 15/12/1995]',0.039,-0.039,0.035,35.484,37.050,0.000,-0.464
'[07:23:52.344 15/12/1995]',0.039,-0.039,0.047,35.184,37.050,0.000,-0.488
'[07:23:52.346 15/12/1995]',0.038,-0.040,0.035,35.184,37.050,0.000,-0.488
'[07:23:52.348 15/12/1995]',0.038,-0.040,0.035,35.184,37.050,0.000,-0.488
'[07:23:52.350 15/12/1995]',0.038,-0.040,0.029,35.184,37.050,0.000,-0.488
'[07:23:52.352 15/12/1995]',0.038,-0.039,0.029,34.884,37.300,0.000,-0.512
'[07:23:52.354 15/12/1995]',0.038,-0.038,0.029,34.884,37.300,0.000,-0.512
'[07:23:52.356 15/12/1995]',0.039,-0.037,0.035,34.884,37.300,0.000,-0.512
'[07:23:52.358 15/12/1995]',0.040,-0.037,0.035,34.884,37.300,0.000,-0.512
'[07:23:52.360 15/12/1995]',0.041,-0.036,0.047,34.584,37.500,0.000,-0.535
'[07:23:52.362 15/12/1995]',0.042,-0.036,0.035,34.584,37.500,0.000,-0.535
'[07:23:52.364 15/12/1995]',0.041,-0.034,0.035,34.584,37.500,0.000,-0.535
'[07:23:52.366 15/12/1995]',0.040,-0.033,0.029,34.584,37.500,0.000,-0.535
'[07:23:52.368 15/12/1995]',0.038,-0.032,0.012,34.434,37.800,0.000,-0.557
'[07:23:52.370 15/12/1995]',0.036,-0.031,0.012,34.434,37.800,0.000,-0.557
'[07:23:52.372 15/12/1995]',0.035,-0.029,0.012,34.434,37.800,0.000,-0.557
'[07:23:52.374 15/12/1995]',0.033,-0.027,0.023,34.434,37.800,0.000,-0.557
'[07:23:52.376 15/12/1995]',0.031,-0.024,0.023,34.809,38.200,0.000,-0.577
'[07:23:52.378 15/12/1995]',0.030,-0.021,0.029,34.809,38.200,0.000,-0.577
'[07:23:52.380 15/12/1995]',0.029,-0.019,0.023,34.809,38.200,0.000,-0.577
'[07:23:52.382 15/12/1995]',0.028,-0.016,0.023,34.809,38.200,0.000,-0.577
'[07:23:52.384 15/12/1995]',0.027,-0.013,0.012,36.534,38.800,0.000,-0.595
'[07:23:52.386 15/12/1995]',0.026,-0.009,0.012,36.534,38.800,0.000,-0.595
'[07:23:52.388 15/12/1995]',0.026,-0.006,0.012,36.534,38.800,0.000,-0.595
'[07:23:52.390 15/12/1995]',0.026,-0.003,0.023,36.534,38.800,0.000,-0.595
'[07:23:52.392 15/12/1995]',0.027,-0.001,0.029,41.110,39.550,0.000,-0.610
'[07:23:52.394 15/12/1995]',0.028,0.001,0.029,41.110,39.550,0.000,-0.610
'[07:23:52.396 15/12/1995]',0.029,0.002,0.029,41.110,39.550,0.000,-0.610
'[07:23:52.398 15/12/1995]',0.029,0.002,0.029,41.110,39.550,0.000,-0.610
'[07:23:52.400 15/12/1995]',0.030,0.002,0.023,50.188,40.500,0.000,-0.623
'[07:23:52.402 15/12/1995]',0.030,0.001,0.012,50.188,40.500,0.000,-0.623
'[07:23:52.404 15/12/1995]',0.030,0.002,0.012,50.188,40.500,0.000,-0.623
'[07:23:52.406 15/12/1995]',0.031,0.002,0.023,50.188,40.500,0.000,-0.623
'[07:23:52.408 15/12/1995]',0.030,0.004,0.023,64.366,41.450,0.000,-0.634
'[07:23:52.410 15/12/1995]',0.030,0.005,0.029,64.366,41.450,0.000,-0.634
'[07:23:52.412 15/12/1995]',0.029,0.007,0.029,64.366,41.450,0.000,-0.634
'[07:23:52.414 15/12/1995]',0.029,0.008,0.023,64.366,41.450,0.000,-0.634
'[07:23:52.416 15/12/1995]',0.028,0.008,0.023,82.221,42.450,0.000,-0.643
'[07:23:52.418 15/12/1995]',0.027,0.008,0.012,82.221,42.450,0.000,-0.643
'[07:23:52.420 15/12/1995]',0.025,0.008,0.006,82.221,42.450,0.000,-0.643
'[07:23:52.422 15/12/1995]',0.024,0.008,0.006,82.221,42.450,0.000,-0.643
'[07:23:52.424 15/12/1995]',0.022,0.009,0.006,100.600,43.400,0.000,-0.651
'[07:23:52.426 15/12/1995]',0.021,0.009,0.012,100.600,43.400,0.000,-0.651
'[07:23:52.428 15/12/1995]',0.019,0.011,0.023,100.600,43.400,0.000,-0.651
'[07:23:52.430 15/12/1995]',0.018,0.012,0.012,100.600,43.400,0.000,-0.651
'[07:23:52.432 15/12/1995]',0.018,0.014,0.012,115.379,44.350,0.000,-0.657
'[07:23:52.434 15/12/1995]',0.017,0.016,0.006,115.379,44.350,0.000,-0.657
'[07:23:52.436 15/12/1995]',0.017,0.017,0.012,115.379,44.350,0.000,-0.657
'[07:23:52.438 15/12/1995]',0.017,0.018,0.012,115.379,44.350,0.000,-0.657
'[07:23:52.440 15/12/1995]',0.016,0.018,0.006,124.081,45.500,0.000,-0.659
'[07:23:52.442 15/12/1995]',0.016,0.018,0.006,124.081,45.500,0.000,-0.659
'[07:23:52.444 15/12/1995]',0.016,0.018,0.012,124.081,45.500,0.000,-0.659
'[07:23:52.446 15/12/1995]',0.015,0.018,0.012,124.081,45.500,0.000,-0.659
'[07:23:52.448 15/12/1995]',0.014,0.017,0.006,126.107,46.750,0.000,-0.659
'[07:23:52.450 15/12/1995]',0.013,0.017,0.006,126.107,46.750,0.000,-0.659
'[07:23:52.452 15/12/1995]',0.013,0.017,0.001,126.107,46.750,0.000,-0.659
'[07:23:52.454 15/12/1995]',0.013,0.017,0.001,126.107,46.750,0.000,-0.659
'[07:23:52.456 15/12/1995]',0.013,0.016,0.006,123.106,48.100,0.000,-0.657
'[07:23:52.458 15/12/1995]',0.013,0.016,0.012,123.106,48.100,0.000,-0.657
'[07:23:52.460 15/12/1995]',0.013,0.016,0.012,123.106,48.100,0.000,-0.657
'[07:23:52.462 15/12/1995]',0.013,0.015,0.006,123.106,48.100,0.000,-0.657
'[07:23:52.464 15/12/1995]',0.013,0.015,0.006,117.554,49.350,0.000,-0.654
'[07:23:52.466 15/12/1995]',0.013,0.015,0.006,117.554,49.350,0.000,-0.654
'[07:23:52.468 15/12/1995]',0.013,0.017,0.001,117.554,49.350,0.000,-0.654
'[07:23:52.470 15/12/1995]',0.013,0.018,0.001,117.554,49.350,0.000,-0.654
'[07:23:52.472 15/12/1995]',0.013,0.020,0.001,111.478,50.350,0.000,-0.651
'[07:23:52.474 15/12/1995]',0.012,0.021,0.006,111.478,50.350,0.000,-0.651
'[07:23:52.476 15/12/1995]',0.012,0.022,0.001,111.478,50.350,0.000,-0.651
'[07:23:52.478 15/12/1995]',0.011,0.023,0.006,111.478,50.350,0.000,-0.651
'[07:23:52.480 15/12/1995]',0.011,0.022,0.006,105.926,51.000,0.000,-0.647
'[07:23:52.482 15/12/1995]',0.011,0.021,0.001,105.926,51.000,0.000,-0.647
'[07:23:52.484 15/12/1995]',0.012,0.018,0.001,105.926,51.000,0.000,-0.647
'[07:23:52.486 15/12/1995]',0.012,0.016,0.001,105.926,51.000,0.000,-0.647
'[07:23:52.488 15/12/1995]',0.013,0.013,0.006,101.125,51.350,0.000,-0.642
'[07:23:52.490 15/12/1995]',0.014,0.011,0.006,101.125,51.350,0.000,-0.642
'[07:23:52.492 15/12/1995]',0.016,0.008,0.012,101.125,51.350,0.000,-0.642
'[07:23:52.494 15/12/1995]',0.017,0.006,0.023,101.125,51.350,0.000,-0.642
'[07:23:52.496 15/12/1995]',0.018,0.004,0.023,96.924,51.350,0.000,-0.637
'[07:23:52.498 15/12/1995]',0.020,0.002,0.023,96.924,51.350,0.000,-0.637
'[07:23:52.500 15/12/1995]',0.020,0.002,0.012,96.924,51.350,0.000,-0.637
'[07:23:52.502 15/12/1995]',0.020,0.001,0.006,96.924,51.350,0.000,-0.637
'[07:23:52.504 15/12/1995]',0.019,0.002,0.006,93.323,51.250,0.000,-0.629
'[07:23:52.506 15/12/1995]',0.018,0.002,0.001,93.323,51.250,0.000,-0.629
'[07:23:52.508 15/12/1995]',0.017,0.004,0.006,93.323,51.250,0.000,-0.629
'[07:23:52.510 15/12/1995]',0.015,0.005,0.006,93.323,51.250,0.000,-0.629
'[07:23:52.512 15/12/1995]',0.014,0.006,0.006,90.173,50.900,0.000,-0.621
'[07:23:52.514 15/12/1995]',0.012,0.008,0.006,90.173,50.900,0.000,-0.621
'[07:23:52.516 15/12/1995]',0.011,0.006,0.006,90.173,50.900,0.000,-0.621
'[07:23:52.518 15/12/1995]',0.010,0.005,0.001,90.173,50.900,0.000,-0.621
'[07:23:52.520 15/12/1995]',0.010,0.003,0.001,87.547,50.350,0.000,-0.610
'[07:23:52.522 15/12/1995]',0.009,0.000,0.001,87.547,50.350,0.000,-0.610
'[07:23:52.524 15/12/1995]',0.009,-0.003,0.001,87.547,50.350,0.000,-0.610
'[07:23:52.526 15/12/1995]',0.009,-0.006,0.001,87.547,50.350,0.000,-0.610
'[07:23:52.528 15/12/1995]',0.009,-0.009,0.006,85.221,49.700,0.000,-0.599
'[07:23:52.530 15/12/1995]',0.009,-0.012,0.006,85.221,49.700,0.000,-0.599
'[07:23:52.532 15/12/1995]',0.009,-0.013,0.006,85.221,49.700,0.000,-0.599
'[07:23:52.534 15/12/1995]',0.009,-0.014,0.001,85.221,49.700,0.000,-0.599
'[07:23:52.536 15/12/1995]',0.010,-0.014,0.001,83.346,48.900,0.000,-0.588
'[07:23:52.538 15/12/1995]',0.010,-0.014,0.001,83.346,48.900,0.000,-0.588
'[07:23:52.540 15/12/1995]',0.010,-0.013,0.006,83.346,48.900,0.000,-0.588
'[07:23:52.542 15/12/1995]',0.010,-0.012,0.006,83.346,48.900,0.000,-0.588
'[07:23:52.544 15/12/1995]',0.010,-0.011,0.006,81.620,47.900,0.000,-0.577
'[07:23:52.546 15/12/1995]',0.010,-0.011,0.006,81.620,47.900,0.000,-0.577
'[07:23:52.548 15/12/1995]',0.009,-0.009,0.001,81.620,47.900,0.000,-0.577
'[07:23:52.550 15/12/1995]',0.009,-0.008,0.001,81.620,47.900,0.000,-0.577
'[07:23:52.552 15/12/1995]',0.009,-0.006,-0.005,80.195,46.750,0.000,-0.567
'[07:23:52.554 15/12/1995]',0.008,-0.005,-0.005,80.195,46.750,0.000,-0.567
'[07:23:52.556 15/12/1995]',0.009,-0.004,0.001,80.195,46.750,0.000,-0.567
'[07:23:52.558 15/12/1995]',0.009,-0.002,0.006,80.195,46.750,0.000,-0.567
'[07:23:52.560 15/12/1995]',0.010,-0.001,0.006,78.620,45.550,0.000,-0.557
'[07:23:52.562 15/12/1995]',0.010,0.000,0.006,78.620,45.550,0.000,-0.557
'[07:23:52.564 15/12/1995]',0.011,0.002,0.012,78.620,45.550,0.000,-0.557
'[07:23:52.566 15/12/1995]',0.011,0.004,0.006,78.620,45.550,0.000,-0.557
'[07:23:52.568 15/12/1995]',0.012,0.006,0.001,77.044,44.200,0.000,-0.549
'[07:23:52.570 15/12/1995]',0.013,0.008,0.001,77.044,44.200,0.000,-0.549
'[07:23:52.572 15/12/1995]',0.013,0.008,0.001,77.044,44.200,0.000,-0.549
'[07:23:52.574 15/12/1995]',0.013,0.009,0.006,77.044,44.200,0.000,-0.549
'[07:23:52.576 15/12/1995]',0.012,0.010,0.006,75.094,42.850,0.000,-0.543
'[07:23:52.578 15/12/1995]',0.011,0.011,0.006,75.094,42.850,0.000,-0.543
'[07:23:52.580 15/12/1995]',0.011,0.013,0.006,75.094,42.850,0.000,-0.543
'[07:23:52.582 15/12/1995]',0.010,0.015,0.006,75.094,42.850,0.000,-0.543
'[07:23:52.584 15/12/1995]',0.010,0.018,0.001,72.768,41.550,0.000,-0.538
'[07:23:52.586 15/12/1995]',0.009,0.021,-0.005,72.768,41.550,0.000,-0.538
'[07:23:52.588 15/12/1995]',0.009,0.023,-0.005,72.768,41.550,0.000,-0.538
'[07:23:52.590 15/12/1995]',0.009,0.026,-0.005,72.768,41.550,0.000,-0.538
'[07:23:52.592 15/12/1995]',0.008,0.029,0.001,70.068,40.400,0.000,-0.534
'[07:23:52.594 15/12/1995]',0.007,0.031,0.006,70.068,40.400,0.000,-0.534
'[07:23:52.596 15/12/1995]',0.006,0.033,0.006,70.068,40.400,0.000,-0.534
'[07:23:52.598 15/12/1995]',0.006,0.034,-0.005,70.068,40.400,0.000,-0.534
'[07:23:52.600 15/12/1995]',0.005,0.035,-0.005,67.067,39.250,0.000,-0.530
'[07:23:52.602 15/12/1995]',0.005,0.036,-0.011,67.067,39.250,0.000,-0.530
'[07:23:52.604 15/12/1995]',0.004,0.036,-0.011,67.067,39.250,0.000,-0.530
'[07:23:52.606 15/12/1995]',0.004,0.037,-0.005,67.067,39.250,0.000,-0.530
'[07:23:52.608 15/12/1995]',0.003,0.037,-0.011,63.616,38.350,0.000,-0.526
'[07:23:52.610 15/12/1995]',0.002,0.038,0.001,63.616,38.350,0.000,-0.526
'[07:23:52.612 15/12/1995]',0.002,0.039,-0.005,63.616,38.350,0.000,-0.526
'[07:23:52.614 15/12/1995]',0.002,0.040,-0.005,63.616,38.350,0.000,-0.526
'[07:23:52.616 15/12/1995]',0.002,0.039,-0.005,60.090,37.650,0.000,-0.521
'[07:23:52.618 15/12/1995]',0.002,0.039,-0.005,60.090,37.650,0.000,-0.521
'[07:23:52.620 15/12/1995]',0.003,0.039,-0.005,60.090,37.650,0.000,-0.521
'[07:23:52.622 15/12/1995]',0.003,0.040,-0.005,60.090,37.650,0.000,-0.521
'[07:23:52.624 15/12/1995]',0.004,0.041,0.001,56.639,37.150,0.000,-0.518
'[07:23:52.626 15/12/1995]',0.005,0.042,0.001,56.639,37.150,0.000,-0.518
'[07:23:52.628 15/12/1995]',0.005,0.043,0.001,56.639,37.150,0.000,-0.518
'[07:23:52.630 15/12/1995]',0.005,0.045,0.001,56.639,37.150,0.000,-0.518
'[07:23:52.632 15/12/1995]',0.004,0.046,-0.005,53.563,36.950,0.000,-0.516
'[07:23:52.634 15/12/1995]',0.004,0.047,-0.005,53.563,36.950,0.000,-0.516
'[07:23:52.636 15/12/1995]',0.003,0.047,-0.011,53.563,36.950,0.000,-0.516
'[07:23:52.638 15/12/1995]',0.003,0.047,-0.005,53.563,36.950,0.000,-0.516
'[07:23:52.640 15/12/1995]',0.002,0.047,-0.005,51.013,36.850,0.000,-0.515
'[07:23:52.642 15/12/1995]',0.001,0.047,-0.005,51.013,36.850,0.000,-0.515
'[07:23:52.644 15/12/1995]',-0.001,0.047,-0.005,51.013,36.850,0.000,-0.515
'[07:23:52.646 15/12/1995]',-0.002,0.047,-0.011,51.013,36.850,0.000,-0.515
'[07:23:52.648 15/12/1995]',-0.003,0.045,-0.011,49.137,36.950,0.000,-0.516
'[07:23:52.650 15/12/1995]',-0.004,0.044,-0.023,49.137,36.950,0.000,-0.516
'[07:23:52.652 15/12/1995]',-0.004,0.042,-0.011,49.137,36.950,0.000,-0.516
'[07:23:52.654 15/12/1995]',-0.004,0.040,-0.011,49.137,36.950,0.000,-0.516
'[07:23:52.656 15/12/1995]',-0.003,0.037,-0.005,47.862,37.150,0.000,-0.518
'[07:23:52.658 15/12/1995]',-0.002,0.034,-0.005,47.862,37.150,0.000,-0.518
'[07:23:52.660 15/12/1995]',-0.001,0.031,0.001,47.862,37.150,0.000,-0.518
'[07:23:52.662 15/12/1995]',0.001,0.027,0.006,47.862,37.150,0.000,-0.518
'[07:23:52.664 15/12/1995]',0.002,0.026,0.001,47.112,37.500,0.000,-0.521
'[07:23:52.666 15/12/1995]',0.003,0.024,0.001,47.112,37.500,0.000,-0.521
'[07:23:52.668 15/12/1995]',0.004,0.023,-0.005,47.112,37.500,0.000,-0.521
'[07:23:52.670 15/12/1995]',0.004,0.022,-0.005,47.112,37.500,0.000,-0.521
'[07:23:52.672 15/12/1995]',0.004,0.022,-0.005,46.737,37.800,0.000,-0.525
'[07:23:52.674 15/12/1995]',0.003,0.022,-0.005,46.737,37.800,0.000,-0.525
'[07:23:52.676 15/12/1995]',0.002,0.023,-0.005,46.737,37.800,0.000,-0.525
'[07:23:52.678 15/12/1995]',0.002,0.024,-0.005,46.737,37.800,0.000,-0.525
'[07:23:52.680 15/12/1995]',0.001,0.026,-0.005,46.512,38.100,0.000,-0.529
'[07:23:52.682 15/12/1995]',-0.001,0.027,-0.011,46.512,38.100,0.000,-0.529
'[07:23:52.684 15/12/1995]',-0.002,0.029,-0.023,46.512,38.100,0.000,-0.529
'[07:23:52.686 15/12/1995]',-0.003,0.031,-0.023,46.512,38.100,0.000,-0.529
'[07:23:52.688 15/12/1995]',-0.003,0.031,-0.011,46.512,38.400,0.000,-0.533
'[07:23:52.690 15/12/1995]',-0.003,0.031,-0.005,46.512,38.400,0.000,-0.533
'[07:23:52.692 15/12/1995]',-0.003,0.031,0.001,46.512,38.400,0.000,-0.533
'[07:23:52.694 15/12/1995]',-0.003,0.031,0.001,46.512,38.400,0.000,-0.533
'[07:23:52.696 15/12/1995]',-0.003,0.030,-0.005,46.587,38.550,0.000,-0.536
'[07:23:52.698 15/12/1995]',-0.004,0.030,-0.011,46.587,38.550,0.000,-0.536
'[07:23:52.700 15/12/1995]',-0.004,0.030,-0.023,46.587,38.550,0.000,-0.536
'[07:23:52.702 15/12/1995]',-0.005,0.031,-0.028,46.587,38.550,0.000,-0.536
'[07:23:52.704 15/12/1995]',-0.005,0.031,-0.023,46.737,38.700,0.000,-0.538
'[07:23:52.706 15/12/1995]',-0.006,0.031,-0.023,46.737,38.700,0.000,-0.538
'[07:23:52.708 15/12/1995]',-0.007,0.032,-0.011,46.737,38.700,0.000,-0.538
'[07:23:52.710 15/12/1995]',-0.008,0.034,-0.011,46.737,38.700,0.000,-0.538
'[07:23:52.712 15/12/1995]',-0.008,0.035,-0.005,47.037,38.700,0.000,-0.539
'[07:23:52.714 15/12/1995]',-0.008,0.037,-0.011,47.037,38.700,0.000,-0.539
'[07:23:52.716 15/12/1995]',-0.008,0.038,-0.023,47.037,38.700,0.000,-0.539
'[07:23:52.718 15/12/1995]',-0.008,0.039,-0.023,47.037,38.700,0.000,-0.539
'[07:23:52.720 15/12/1995]',-0.008,0.039,-0.023,47.262,38.650,0.000,-0.539
'[07:23:52.722 15/12/1995]',-0.008,0.040,-0.023,47.262,38.650,0.000,-0.539
'[07:23:52.724 15/12/1995]',-0.007,0.039,-0.011,47.262,38.650,0.000,-0.539
'[07:23:52.726 15/12/1995]',-0.007,0.038,-0.005,47.262,38.650,0.000,-0.539
'[07:23:52.728 15/12/1995]',-0.005,0.037,-0.005,47.562,38.500,0.000,-0.538
'[07:23:52.730 15/12/1995]',-0.004,0.035,-0.011,47.562,38.500,0.000,-0.538
'[07:23:52.732 15/12/1995]',-0.003,0.032,-0.011,47.562,38.500,0.000,-0.538
'[07:23:52.734 15/12/1995]',-0.002,0.030,-0.011,47.562,38.500,0.000,-0.538
'[07:23:52.736 15/12/1995]',-0.001,0.028,-0.011,47.712,38.350,0.000,-0.535
'[07:23:52.738 15/12/1995]',0.001,0.027,-0.011,47.712,38.350,0.000,-0.535
'[07:23:52.740 15/12/1995]',0.001,0.029,-0.005,47.712,38.350,0.000,-0.535
'[07:23:52.742 15/12/1995]',0.002,0.031,-0.005,47.712,38.350,0.000,-0.535
'[07:23:52.744 15/12/1995]',0.001,0.036,-0.005,47.787,38.100,0.000,-0.532
'[07:23:52.746 15/12/1995]',0.001,0.041,-0.005,47.787,38.100,0.000,-0.532
'[07:23:52.748 15/12/1995]',-0.001,0.047,-0.011,47.787,38.100,0.000,-0.532
'[07:23:52.750 15/12/1995]',-0.002,0.053,-0.023,47.787,38.100,0.000,-0.532
'[07:23:52.752 15/12/1995]',-0.003,0.059,-0.023,47.712,37.800,0.000,-0.527
'[07:23:52.754 15/12/1995]',-0.005,0.066,-0.023,47.712,37.800,0.000,-0.527
'[07:23:52.756 15/12/1995]',-0.005,0.071,-0.023,47.712,37.800,0.000,-0.527
'[07:23:52.758 15/12/1995]',-0.006,0.076,-0.011,47.712,37.800,0.000,-0.527
'[07:23:52.760 15/12/1995]',-0.008,0.079,-0.011,47.562,37.350,0.000,-0.520
'[07:23:52.762 15/12/1995]',-0.009,0.082,-0.011,47.562,37.350,0.000,-0.520
'[07:23:52.764 15/12/1995]',-0.010,0.085,-0.011,47.562,37.350,0.000,-0.520
'[07:23:52.766 15/12/1995]',-0.012,0.088,-0.023,47.562,37.350,0.000,-0.520
'[07:23:52.768 15/12/1995]',-0.014,0.091,-0.028,47.337,36.800,0.000,-0.512
'[07:23:52.770 15/12/1995]',-0.016,0.094,-0.034,47.337,36.800,0.000,-0.512
'[07:23:52.772 15/12/1995]',-0.018,0.098,-0.034,47.337,36.800,0.000,-0.512
'[07:23:52.774 15/12/1995]',-0.021,0.101,-0.034,47.337,36.800,0.000,-0.512
'[07:23:52.776 15/12/1995]',-0.023,0.105,-0.034,47.037,36.150,0.000,-0.502
'[07:23:52.778 15/12/1995]',-0.025,0.109,-0.034,47.037,36.150,0.000,-0.502
'[07:23:52.780 15/12/1995]',-0.027,0.110,-0.034,47.037,36.150,0.000,-0.502
'[07:23:52.782 15/12/1995]',-0.028,0.111,-0.046,47.037,36.150,0.000,-0.502
'[07:23:52.784 15/12/1995]',-0.028,0.109,-0.046,46.737,35.500,0.000,-0.492
'[07:23:52.786 15/12/1995]',-0.028,0.108,-0.046,46.737,35.500,0.000,-0.492
'[07:23:52.788 15/12/1995]',-0.028,0.103,-0.034,46.737,35.500,0.000,-0.492
'[07:23:52.790 15/12/1995]',-0.027,0.099,-0.028,46.737,35.500,0.000,-0.492
'[07:23:52.792 15/12/1995]',-0.026,0.095,-0.028,46.212,34.750,0.000,-0.483
'[07:23:52.794 15/12/1995]',-0.025,0.090,-0.023,46.212,34.750,0.000,-0.483
'[07:23:52.796 15/12/1995]',-0.025,0.087,-0.023,46.212,34.750,0.000,-0.483
'[07:23:52.798 15/12/1995]',-0.024,0.084,-0.028,46.212,34.750,0.000,-0.483
'[07:23:52.800 15/12/1995]',-0.025,0.084,-0.034,45.761,33.900,0.000,-0.476
'[07:23:52.802 15/12/1995]',-0.025,0.083,-0.046,45.761,33.900,0.000,-0.476
'[07:23:52.804 15/12/1995]',-0.027,0.085,-0.052,45.761,33.900,0.000,-0.476
'[07:23:52.806 15/12/1995]',-0.029,0.087,-0.052,45.761,33.900,0.000,-0.476
'[07:23:52.808 15/12/1995]',-0.031,0.090,-0.046,45.236,33.050,0.000,-0.469
'[07:23:52.810 15/12/1995]',-0.032,0.092,-0.034,45.236,33.050,0.000,-0.469
'[07:23:52.812 15/12/1995]',-0.032,0.093,-0.034,45.236,33.050,0.000,-0.469
'[07:23:52.814 15/12/1995]',-0.032,0.093,-0.034,45.236,33.050,0.000,-0.469
'[07:23:52.816 15/12/1995]',-0.030,0.091,-0.034,44.711,32.400,0.000,-0.464
'[07:23:52.818 15/12/1995]',-0.028,0.088,-0.034,44.711,32.400,0.000,-0.464
'[07:23:52.820 15/12/1995]',-0.025,0.085,-0.028,44.711,32.400,0.000,-0.464
'[07:23:52.822 15/12/1995]',-0.022,0.082,-0.028,44.711,32.400,0.000,-0.464
'[07:23:52.824 15/12/1995]',-0.019,0.077,-0.028,44.111,31.900,0.000,-0.458
'[07:23:52.826 15/12/1995]',-0.017,0.072,-0.011,44.111,31.900,0.000,-0.458
'[07:23:52.828 15/12/1995]',-0.015,0.067,-0.011,44.111,31.900,0.000,-0.458
'[07:23:52.830 15/12/1995]',-0.013,0.062,-0.011,44.111,31.900,0.000,-0.458
'[07:23:52.832 15/12/1995]',-0.012,0.056,-0.023,43.586,31.550,0.000,-0.453
'[07:23:52.834 15/12/1995]',-0.011,0.051,-0.023,43.586,31.550,0.000,-0.453
'[07:23:52.836 15/12/1995]',-0.010,0.046,-0.023,43.586,31.550,0.000,-0.453
'[07:23:52.838 15/12/1995]',-0.009,0.040,-0.023,43.586,31.550,0.000,-0.453
'[07:23:52.840 15/12/1995]',-0.008,0.034,-0.011,43.061,31.250,0.000,-0.447
'[07:23:52.842 15/12/1995]',-0.007,0.027,-0.011,43.061,31.250,0.000,-0.447
'[07:23:52.844 15/12/1995]',-0.006,0.019,-0.005,43.061,31.250,0.000,-0.447
'[07:23:52.846 15/12/1995]',-0.005,0.010,-0.005,43.061,31.250,0.000,-0.447
'[07:23:52.848 15/12/1995]',-0.003,0.002,-0.005,42.611,31.000,0.000,-0.441
'[07:23:52.850 15/12/1995]',-0.002,-0.006,-0.005,42.611,31.000,0.000,-0.441
'[07:23:52.852 15/12/1995]',0.001,-0.013,-0.005,42.611,31.000,0.000,-0.441
'[07:23:52.854 15/12/1995]',0.003,-0.019,0.001,42.611,31.000,0.000,-0.441
'[07:23:52.856 15/12/1995]',0.004,-0.023,0.001,42.086,30.700,0.000,-0.432
'[07:23:52.858 15/12/1995]',0.006,-0.027,0.001,42.086,30.700,0.000,-0.432
'[07:23:52.860 15/12/1995]',0.006,-0.029,0.006,42.086,30.700,0.000,-0.432
'[07:23:52.862 15/12/1995]',0.007,-0.031,0.006,42.086,30.700,0.000,-0.432
'[07:23:52.864 15/12/1995]',0.008,-0.033,0.006,41.560,30.450,0.000,-0.423
'[07:23:52.866 15/12/1995]',0.008,-0.034,0.001,41.560,30.450,0.000,-0.423
'[07:23:52.868 15/12/1995]',0.009,-0.035,-0.005,41.560,30.450,0.000,-0.423
'[07:23:52.870 15/12/1995]',0.009,-0.035,-0.005,41.560,30.450,0.000,-0.423
'[07:23:52.872 15/12/1995]',0.010,-0.035,0.001,41.110,30.200,0.000,-0.412
'[07:23:52.874 15/12/1995]',0.010,-0.036,0.001,41.110,30.200,0.000,-0.412
'[07:23:52.876 15/12/1995]',0.011,-0.037,0.006,41.110,30.200,0.000,-0.412
'[07:23:52.878 15/12/1995]',0.011,-0.037,0.012,41.110,30.200,0.000,-0.412
'[07:23:52.880 15/12/1995]',0.011,-0.038,0.006,40.585,30.000,0.000,-0.400
'[07:23:52.882 15/12/1995]',0.011,-0.038,0.006,40.585,30.000,0.000,-0.400
'[07:23:52.884 15/12/1995]',0.011,-0.038,0.001,40.585,30.000,0.000,-0.400
'[07:23:52.886 15/12/1995]',0.011,-0.037,0.001,40.585,30.000,0.000,-0.400
'[07:23:52.888 15/12/1995]',0.011,-0.037,0.001,40.135,29.900,0.000,-0.386
'[07:23:52.890 15/12/1995]',0.011,-0.037,0.001,40.135,29.900,0.000,-0.386
'[07:23:52.892 15/12/1995]',0.011,-0.037,0.006,40.135,29.900,0.000,-0.386
'[07:23:52.894 15/12/1995]',0.011,-0.037,0.006,40.135,29.900,0.000,-0.386
'[07:23:52.896 15/12/1995]',0.012,-0.036,0.006,39.760,29.950,0.000,-0.370
'[07:23:52.898 15/12/1995]',0.012,-0.035,0.006,39.760,29.950,0.000,-0.370
'[07:23:52.900 15/12/1995]',0.013,-0.033,0.006,39.760,29.950,0.000,-0.370
'[07:23:52.902 15/12/1995]',0.014,-0.031,0.006,39.760,29.950,0.000,-0.370
'[07:23:52.904 15/12/1995]',0.016,-0.028,0.006,39.385,30.150,0.000,-0.353
'[07:23:52.906 15/12/1995]',0.017,-0.025,0.012,39.385,30.150,0.000,-0.353
'[07:23:52.908 15/12/1995]',0.018,-0.019,0.023,39.385,30.150,0.000,-0.353
'[07:23:52.910 15/12/1995]',0.019,-0.013,0.023,39.385,30.150,0.000,-0.353
'[07:23:52.912 15/12/1995]',0.016,-0.002,0.012,39.010,30.250,0.000,-0.336
'[07:23:52.914 15/12/1995]',0.012,0.009,0.001,39.010,30.250,0.000,-0.336
'[07:23:52.916 15/12/1995]',0.004,0.026,-0.011,39.010,30.250,0.000,-0.336
'[07:23:52.918 15/12/1995]',-0.005,0.043,-0.034,39.010,30.250,0.000,-0.336
'[07:23:52.920 15/12/1995]',-0.022,0.069,-0.069,38.785,30.450,0.000,-0.318
'[07:23:52.922 15/12/1995]',-0.038,0.094,-0.098,38.785,30.450,0.000,-0.318
'[07:23:52.924 15/12/1995]',-0.062,0.125,-0.115,38.785,30.450,0.000,-0.318
'[07:23:52.926 15/12/1995]',-0.086,0.156,-0.150,38.785,30.450,0.000,-0.318
'[07:23:52.928 15/12/1995]',-0.114,0.189,-0.190,38.710,30.500,0.000,-0.298
'[07:23:52.930 15/12/1995]',-0.141,0.223,-0.219,38.710,30.500,0.000,-0.298
'[07:23:52.932 15/12/1995]',-0.168,0.253,-0.242,38.710,30.500,0.000,-0.298
'[07:23:52.934 15/12/1995]',-0.194,0.284,-0.265,38.710,30.500,0.000,-0.298
'[07:23:52.936 15/12/1995]',-0.215,0.305,-0.276,38.560,30.450,0.000,-0.279
'[07:23:52.938 15/12/1995]',-0.236,0.326,-0.282,38.560,30.450,0.000,-0.279
'[07:23:52.940 15/12/1995]',-0.249,0.333,-0.288,38.560,30.450,0.000,-0.279
'[07:23:52.942 15/12/1995]',-0.262,0.339,-0.282,38.560,30.450,0.000,-0.279
'[07:23:52.944 15/12/1995]',-0.266,0.329,-0.282,38.485,30.250,0.000,-0.260
'[07:23:52.946 15/12/1995]',-0.269,0.319,-0.282,38.485,30.250,0.000,-0.260
'[07:23:52.948 15/12/1995]',-0.264,0.291,-0.276,38.485,30.250,0.000,-0.260
'[07:23:52.950 15/12/1995]',-0.259,0.262,-0.259,38.485,30.250,0.000,-0.260
'[07:23:52.952 15/12/1995]',-0.245,0.223,-0.236,38.410,29.900,0.000,-0.242
'[07:23:52.954 15/12/1995]',-0.232,0.183,-0.196,38.410,29.900,0.000,-0.242
'[07:23:52.956 15/12/1995]',-0.211,0.141,-0.172,38.410,29.900,0.000,-0.242
'[07:23:52.958 15/12/1995]',-0.190,0.098,-0.132,38.410,29.900,0.000,-0.242
'[07:23:52.960 15/12/1995]',-0.166,0.061,-0.109,38.410,29.500,0.000,-0.227
'[07:23:52.962 15/12/1995]',-0.142,0.024,-0.075,38.410,29.500,0.000,-0.227
'[07:23:52.964 15/12/1995]',-0.119,-0.006,-0.069,38.410,29.500,0.000,-0.227
'[07:23:52.966 15/12/1995]',-0.095,-0.036,-0.063,38.410,29.500,0.000,-0.227
'[07:23:52.968 15/12/1995]',-0.075,-0.059,-0.034,38.335,29.150,0.000,-0.212
'[07:23:52.970 15/12/1995]',-0.055,-0.083,-0.028,38.335,29.150,0.000,-0.212
'[07:23:52.972 15/12/1995]',-0.040,-0.103,-0.011,38.335,29.150,0.000,-0.212
'[07:23:52.974 15/12/1995]',-0.024,-0.123,0.001,38.335,29.150,0.000,-0.212
'[07:23:52.976 15/12/1995]',-0.013,-0.138,0.012,38.185,28.950,0.000,-0.201
'[07:23:52.978 15/12/1995]',-0.002,-0.154,0.023,38.185,28.950,0.000,-0.201
'[07:23:52.980 15/12/1995]',0.007,-0.166,0.023,38.185,28.950,0.000,-0.201
'[07:23:52.982 15/12/1995]',0.015,-0.177,0.023,38.185,28.950,0.000,-0.201
'[07:23:52.984 15/12/1995]',0.021,-0.182,0.023,38.110,29.100,0.000,-0.192
'[07:23:52.986 15/12/1995]',0.027,-0.188,0.023,38.110,29.100,0.000,-0.192
'[07:23:52.988 15/12/1995]',0.031,-0.187,0.035,38.110,29.100,0.000,-0.192
'[07:23:52.990 15/12/1995]',0.036,-0.186,0.047,38.110,29.100,0.000,-0.192
'[07:23:52.992 15/12/1995]',0.039,-0.181,0.047,37.884,29.700,0.000,-0.185
'[07:23:52.994 15/12/1995]',0.043,-0.175,0.052,37.884,29.700,0.000,-0.185
'[07:23:52.996 15/12/1995]',0.044,-0.166,0.047,37.884,29.700,0.000,-0.185
'[07:23:52.998 15/12/1995]',0.046,-0.157,0.035,37.884,29.700,0.000,-0.185
'[07:23:53.000 15/12/1995]',0.047,-0.146,0.035,37.659,30.850,0.000,-0.180
'[07:23:53.002 15/12/1995]',0.048,-0.136,0.035,37.659,30.850,0.000,-0.180
'[07:23:53.004 15/12/1995]',0.048,-0.125,0.035,37.659,30.850,0.000,-0.180
'[07:23:53.006 15/12/1995]',0.048,-0.114,0.035,37.659,30.850,0.000,-0.180
'[07:23:53.008 15/12/1995]',0.048,-0.105,0.047,37.359,32.350,0.000,-0.180
'[07:23:53.010 15/12/1995]',0.048,-0.095,0.047,37.359,32.350,0.000,-0.180
'[07:23:53.012 15/12/1995]',0.048,-0.088,0.047,37.359,32.350,0.000,-0.180
'[07:23:53.014 15/12/1995]',0.047,-0.081,0.047,37.359,32.350,0.000,-0.180
'[07:23:53.016 15/12/1995]',0.048,-0.075,0.035,37.059,34.050,0.000,-0.185
'[07:23:53.018 15/12/1995]',0.048,-0.069,0.035,37.059,34.050,0.000,-0.185
'[07:23:53.020 15/12/1995]',0.049,-0.065,0.035,37.059,34.050,0.000,-0.185
'[07:23:53.022 15/12/1995]',0.049,-0.061,0.047,37.059,34.050,0.000,-0.185
'[07:23:53.024 15/12/1995]',0.050,-0.059,0.052,36.759,35.700,0.000,-0.196
'[07:23:53.026 15/12/1995]',0.050,-0.057,0.052,36.759,35.700,0.000,-0.196
'[07:23:53.028 15/12/1995]',0.050,-0.056,0.052,36.759,35.700,0.000,-0.196
'[07:23:53.030 15/12/1995]',0.049,-0.056,0.035,36.759,35.700,0.000,-0.196
'[07:23:53.032 15/12/1995]',0.048,-0.056,0.035,36.459,36.800,0.000,-0.211
'[07:23:53.034 15/12/1995]',0.046,-0.056,0.029,36.459,36.800,0.000,-0.211
'[07:23:53.036 15/12/1995]',0.045,-0.056,0.029,36.459,36.800,0.000,-0.211
'[07:23:53.038 15/12/1995]',0.044,-0.056,0.029,36.459,36.800,0.000,-0.211
'[07:23:53.040 15/12/1995]',0.042,-0.055,0.029,36.159,37.200,0.000,-0.230
'[07:23:53.042 15/12/1995]',0.040,-0.054,0.035,36.159,37.200,0.000,-0.230
'[07:23:53.044 15/12/1995]',0.039,-0.052,0.035,36.159,37.200,0.000,-0.230
'[07:23:53.046 15/12/1995]',0.037,-0.050,0.029,36.159,37.200,0.000,-0.230
'[07:23:53.048 15/12/1995]',0.036,-0.047,0.029,35.784,37.150,0.000,-0.253
'[07:23:53.050 15/12/1995]',0.034,-0.044,0.023,35.784,37.150,0.000,-0.253
'[07:23:53.052 15/12/1995]',0.032,-0.042,0.023,35.784,37.150,0.000,-0.253
'[07:23:53.054 15/12/1995]',0.031,-0.039,0.012,35.784,37.150,0.000,-0.253
'[07:23:53.056 15/12/1995]',0.030,-0.037,0.023,35.484,37.200,0.000,-0.278
'[07:23:53.058 15/12/1995]',0.029,-0.036,0.023,35.484,37.200,0.000,-0.278
'[07:23:53.060 15/12/1995]',0.030,-0.036,0.029,35.484,37.200,0.000,-0.278
'[07:23:53.062 15/12/1995]',0.030,-0.036,0.029,35.484,37.200,0.000,-0.278
'[07:23:53.064 15/12/1995]',0.032,-0.036,0.029,35.109,37.500,0.000,-0.305
'[07:23:53.066 15/12/1995]',0.033,-0.037,0.029,35.109,37.500,0.000,-0.305
'[07:23:53.068 15/12/1995]',0.035,-0.036,0.035,35.109,37.500,0.000,-0.305
'[07:23:53.070 15/12/1995]',0.036,-0.036,0.029,35.109,37.500,0.000,-0.305
'[07:23:53.072 15/12/1995]',0.038,-0.034,0.029,34.809,37.750,0.000,-0.334
'[07:23:53.074 15/12/1995]',0.039,-0.033,0.035,34.809,37.750,0.000,-0.334
'[07:23:53.076 15/12/1995]',0.038,-0.032,0.035,34.809,37.750,0.000,-0.334
'[07:23:53.078 15/12/1995]',0.038,-0.031,0.029,34.809,37.750,0.000,-0.334
'[07:23:53.080 15/12/1995]',0.037,-0.029,0.029,34.809,38.050,0.000,-0.359
'[07:23:53.082 15/12/1995]',0.036,-0.027,0.023,34.809,38.050,0.000,-0.359
'[07:23:53.084 15/12/1995]',0.035,-0.024,0.023,34.809,38.050,0.000,-0.359
'[07:23:53.086 15/12/1995]',0.033,-0.022,0.012,34.809,38.050,0.000,-0.359
'[07:23:53.088 15/12/1995]',0.033,-0.021,0.023,35.559,38.500,0.000,-0.383
'[07:23:53.090 15/12/1995]',0.032,-0.019,0.035,35.559,38.500,0.000,-0.383
'[07:23:53.092 15/12/1995]',0.032,-0.018,0.029,35.559,38.500,0.000,-0.383
'[07:23:53.094 15/12/1995]',0.033,-0.017,0.035,35.559,38.500,0.000,-0.383
'[07:23:53.096 15/12/1995]',0.033,-0.016,0.035,38.410,39.200,0.000,-0.404
'[07:23:53.098 15/12/1995]',0.034,-0.016,0.035,38.410,39.200,0.000,-0.404
'[07:23:53.100 15/12/1995]',0.035,-0.015,0.029,38.410,39.200,0.000,-0.404
'[07:23:53.102 15/12/1995]',0.036,-0.014,0.029,38.410,39.200,0.000,-0.404
'[07:23:53.104 15/12/1995]',0.036,-0.014,0.029,44.861,40.050,0.000,-0.423
'[07:23:53.106 15/12/1995]',0.036,-0.013,0.029,44.861,40.050,0.000,-0.423
'[07:23:53.108 15/12/1995]',0.036,-0.012,0.035,44.861,40.050,0.000,-0.423
'[07:23:53.110 15/12/1995]',0.035,-0.011,0.035,44.861,40.050,0.000,-0.423
'[07:23:53.112 15/12/1995]',0.034,-0.010,0.029,56.264,40.900,0.000,-0.441
'[07:23:53.114 15/12/1995]',0.033,-0.008,0.023,56.264,40.900,0.000,-0.441
'[07:23:53.116 15/12/1995]',0.031,-0.006,0.023,56.264,40.900,0.000,-0.441
'[07:23:53.118 15/12/1995]',0.029,-0.005,0.012,56.264,40.900,0.000,-0.441
'[07:23:53.120 15/12/1995]',0.027,-0.002,0.012,72.543,41.850,0.000,-0.456
'[07:23:53.122 15/12/1995]',0.024,0.000,0.006,72.543,41.850,0.000,-0.456
'[07:23:53.124 15/12/1995]',0.023,0.002,0.012,72.543,41.850,0.000,-0.456
'[07:23:53.126 15/12/1995]',0.021,0.004,0.012,72.543,41.850,0.000,-0.456
'[07:23:53.128 15/12/1995]',0.020,0.006,0.012,91.223,42.850,0.000,-0.469
'[07:23:53.130 15/12/1995]',0.019,0.008,0.006,91.223,42.850,0.000,-0.469
'[07:23:53.132 15/12/1995]',0.019,0.008,0.012,91.223,42.850,0.000,-0.469
'[07:23:53.134 15/12/1995]',0.018,0.008,0.006,91.223,42.850,0.000,-0.469
'[07:23:53.136 15/12/1995]',0.018,0.009,0.006,108.552,43.950,0.000,-0.479
'[07:23:53.138 15/12/1995]',0.019,0.009,0.006,108.552,43.950,0.000,-0.479
'[07:23:53.140 15/12/1995]',0.018,0.010,0.012,108.552,43.950,0.000,-0.479
'[07:23:53.142 15/12/1995]',0.018,0.011,0.012,108.552,43.950,0.000,-0.479
'[07:23:53.144 15/12/1995]',0.017,0.013,0.012,120.780,45.250,0.000,-0.489
'[07:23:53.146 15/12/1995]',0.017,0.014,0.006,120.780,45.250,0.000,-0.489
'[07:23:53.148 15/12/1995]',0.016,0.016,0.006,120.780,45.250,0.000,-0.489
'[07:23:53.150 15/12/1995]',0.015,0.018,0.001,120.780,45.250,0.000,-0.489
'[07:23:53.152 15/12/1995]',0.015,0.018,0.001,126.182,46.650,0.000,-0.497
'[07:23:53.154 15/12/1995]',0.015,0.019,0.006,126.182,46.650,0.000,-0.497
'[07:23:53.156 15/12/1995]',0.015,0.019,0.006,126.182,46.650,0.000,-0.497
'[07:23:53.158 15/12/1995]',0.016,0.020,0.012,126.182,46.650,0.000,-0.497
'[07:23:53.160 15/12/1995]',0.016,0.019,0.023,125.506,48.050,0.000,-0.504
'[07:23:53.162 15/12/1995]',0.017,0.019,0.012,125.506,48.050,0.000,-0.504
'[07:23:53.164 15/12/1995]',0.018,0.019,0.012,125.506,48.050,0.000,-0.504
'[07:23:53.166 15/12/1995]',0.019,0.019,0.006,125.506,48.050,0.000,-0.504
'[07:23:53.168 15/12/1995]',0.018,0.019,0.006,120.855,49.300,0.000,-0.510
'[07:23:53.170 15/12/1995]',0.018,0.019,0.006,120.855,49.300,0.000,-0.510
'[07:23:53.172 15/12/1995]',0.018,0.019,0.006,120.855,49.300,0.000,-0.510
'[07:23:53.174 15/12/1995]',0.017,0.020,0.012,120.855,49.300,0.000,-0.510
'[07:23:53.176 15/12/1995]',0.017,0.021,0.012,114.854,50.250,0.000,-0.513
'[07:23:53.178 15/12/1995]',0.017,0.021,0.012,114.854,50.250,0.000,-0.513
'[07:23:53.180 15/12/1995]',0.017,0.022,0.012,114.854,50.250,0.000,-0.513
'[07:23:53.182 15/12/1995]',0.017,0.022,0.006,114.854,50.250,0.000,-0.513
'[07:23:53.184 15/12/1995]',0.017,0.022,0.006,108.927,50.950,0.000,-0.515
'[07:23:53.186 15/12/1995]',0.017,0.021,0.001,108.927,50.950,0.000,-0.515
'[07:23:53.188 15/12/1995]',0.017,0.020,0.001,108.927,50.950,0.000,-0.515
'[07:23:53.190 15/12/1995]',0.017,0.018,0.006,108.927,50.950,0.000,-0.515
'[07:23:53.192 15/12/1995]',0.016,0.016,0.012,103.826,51.300,0.000,-0.516
'[07:23:53.194 15/12/1995]',0.016,0.014,0.012,103.826,51.300,0.000,-0.516
'[07:23:53.196 15/12/1995]',0.016,0.012,0.012,103.826,51.300,0.000,-0.516
'[07:23:53.198 15/12/1995]',0.017,0.010,0.006,103.826,51.300,0.000,-0.516
'[07:23:53.200 15/12/1995]',0.017,0.009,0.006,99.325,51.350,0.000,-0.516
'[07:23:53.202 15/12/1995]',0.018,0.008,0.006,99.325,51.350,0.000,-0.516
'[07:23:53.204 15/12/1995]',0.018,0.006,0.006,99.325,51.350,0.000,-0.516
'[07:23:53.206 15/12/1995]',0.019,0.005,0.012,99.325,51.350,0.000,-0.516
'[07:23:53.208 15/12/1995]',0.020,0.005,0.023,95.424,51.250,0.000,-0.516
'[07:23:53.210 15/12/1995]',0.021,0.005,0.023,95.424,51.250,0.000,-0.516
'[07:23:53.212 15/12/1995]',0.021,0.005,0.023,95.424,51.250,0.000,-0.516
'[07:23:53.214 15/12/1995]',0.021,0.005,0.023,95.424,51.250,0.000,-0.516
'[07:23:53.216 15/12/1995]',0.020,0.005,0.006,91.973,50.900,0.000,-0.516
'[07:23:53.218 15/12/1995]',0.020,0.005,0.001,91.973,50.900,0.000,-0.516
'[07:23:53.220 15/12/1995]',0.018,0.003,-0.005,91.973,50.900,0.000,-0.516
'[07:23:53.222 15/12/1995]',0.017,0.002,-0.005,91.973,50.900,0.000,-0.516
'[07:23:53.224 15/12/1995]',0.015,-0.001,0.001,89.047,50.350,0.000,-0.516
'[07:23:53.226 15/12/1995]',0.013,-0.004,0.006,89.047,50.350,0.000,-0.516
'[07:23:53.228 15/12/1995]',0.012,-0.006,0.006,89.047,50.350,0.000,-0.516
'[07:23:53.230 15/12/1995]',0.011,-0.008,0.006,89.047,50.350,0.000,-0.516
'[07:23:53.232 15/12/1995]',0.010,-0.009,0.001,86.647,49.700,0.000,-0.515
'[07:23:53.234 15/12/1995]',0.010,-0.009,0.001,86.647,49.700,0.000,-0.515
'[07:23:53.236 15/12/1995]',0.010,-0.009,0.001,86.647,49.700,0.000,-0.515
'[07:23:53.238 15/12/1995]',0.011,-0.009,0.001,86.647,49.700,0.000,-0.515
'[07:23:53.240 15/12/1995]',0.012,-0.008,0.006,84.696,48.900,0.000,-0.513
'[07:23:53.242 15/12/1995]',0.013,-0.008,0.012,84.696,48.900,0.000,-0.513
'[07:23:53.244 15/12/1995]',0.013,-0.007,0.012,84.696,48.900,0.000,-0.513
'[07:23:53.246 15/12/1995]',0.013,-0.006,0.006,84.696,48.900,0.000,-0.513
'[07:23:53.248 15/12/1995]',0.013,-0.006,0.001,83.046,47.900,0.000,-0.510
'[07:23:53.250 15/12/1995]',0.012,-0.005,0.006,83.046,47.900,0.000,-0.510
'[07:23:53.252 15/12/1995]',0.012,-0.005,-0.005,83.046,47.900,0.000,-0.510
'[07:23:53.254 15/12/1995]',0.011,-0.005,0.001,83.046,47.900,0.000,-0.510
'[07:23:53.256 15/12/1995]',0.010,-0.005,0.001,81.545,46.750,0.000,-0.507
'[07:23:53.258 15/12/1995]',0.010,-0.005,0.001,81.545,46.750,0.000,-0.507
'[07:23:53.260 15/12/1995]',0.009,-0.004,0.006,81.545,46.750,0.000,-0.507
'[07:23:53.262 15/12/1995]',0.009,-0.003,0.001,81.545,46.750,0.000,-0.507
'[07:23:53.264 15/12/1995]',0.009,-0.002,0.006,80.045,45.500,0.000,-0.503
'[07:23:53.266 15/12/1995]',0.010,0.000,-0.005,80.045,45.500,0.000,-0.503
'[07:23:53.268 15/12/1995]',0.011,0.001,0.001,80.045,45.500,0.000,-0.503
'[07:23:53.270 15/12/1995]',0.011,0.002,0.001,80.045,45.500,0.000,-0.503
'[07:23:53.272 15/12/1995]',0.012,0.003,0.006,78.470,44.100,0.000,-0.501
'[07:23:53.274 15/12/1995]',0.013,0.003,0.012,78.470,44.100,0.000,-0.501
'[07:23:53.276 15/12/1995]',0.013,0.003,0.012,78.470,44.100,0.000,-0.501
'[07:23:53.278 15/12/1995]',0.013,0.003,0.012,78.470,44.100,0.000,-0.501
'[07:23:53.280 15/12/1995]',0.013,0.004,0.006,76.744,42.600,0.000,-0.499
'[07:23:53.282 15/12/1995]',0.012,0.005,0.001,76.744,42.600,0.000,-0.499
'[07:23:53.284 15/12/1995]',0.012,0.007,0.001,76.744,42.600,0.000,-0.499
'[07:23:53.286 15/12/1995]',0.011,0.009,0.001,76.744,42.600,0.000,-0.499
'[07:23:53.288 15/12/1995]',0.011,0.011,0.001,74.644,41.250,0.000,-0.499
'[07:23:53.290 15/12/1995]',0.011,0.012,0.001,74.644,41.250,0.000,-0.499
'[07:23:53.292 15/12/1995]',0.010,0.014,0.006,74.644,41.250,0.000,-0.499
'[07:23:53.294 15/12/1995]',0.010,0.017,0.006,74.644,41.250,0.000,-0.499
'[07:23:53.296 15/12/1995]',0.010,0.019,0.006,72.168,40.000,0.000,-0.499
'[07:23:53.298 15/12/1995]',0.009,0.021,0.006,72.168,40.000,0.000,-0.499
'[07:23:53.300 15/12/1995]',0.010,0.022,0.006,72.168,40.000,0.000,-0.499
'[07:23:53.302 15/12/1995]',0.011,0.024,0.001,72.168,40.000,0.000,-0.499
'[07:23:53.304 15/12/1995]',0.011,0.026,0.001,69.242,38.900,0.000,-0.499
'[07:23:53.306 15/12/1995]',0.012,0.028,0.006,69.242,38.900,0.000,-0.499
'[07:23:53.308 15/12/1995]',0.012,0.031,0.006,69.242,38.900,0.000,-0.499
'[07:23:53.310 15/12/1995]',0.012,0.034,0.006,69.242,38.900,0.000,-0.499
'[07:23:53.312 15/12/1995]',0.012,0.035,0.006,66.017,38.050,0.000,-0.499
'[07:23:53.314 15/12/1995]',0.012,0.037,0.006,66.017,38.050,0.000,-0.499
'[07:23:53.316 15/12/1995]',0.012,0.039,0.001,66.017,38.050,0.000,-0.499
'[07:23:53.318 15/12/1995]',0.011,0.041,-0.005,66.017,38.050,0.000,-0.499
'[07:23:53.320 15/12/1995]',0.011,0.042,-0.005,62.566,37.450,0.000,-0.499
'[07:23:53.322 15/12/1995]',0.011,0.042,0.001,62.566,37.450,0.000,-0.499
'[07:23:53.324 15/12/1995]',0.010,0.042,0.006,62.566,37.450,0.000,-0.499
'[07:23:53.326 15/12/1995]',0.009,0.041,0.006,62.566,37.450,0.000,-0.499
'[07:23:53.328 15/12/1995]',0.008,0.040,0.006,59.040,37.050,0.000,-0.499
'[07:23:53.330 15/12/1995]',0.007,0.038,0.006,59.040,37.050,0.000,-0.499
'[07:23:53.332 15/12/1995]',0.007,0.035,-0.005,59.040,37.050,0.000,-0.499
'[07:23:53.334 15/12/1995]',0.007,0.032,0.001,59.040,37.050,0.000,-0.499
'[07:23:53.336 15/12/1995]',0.007,0.029,-0.005,55.814,36.850,0.000,-0.501
'[07:23:53.338 15/12/1995]',0.007,0.027,-0.005,55.814,36.850,0.000,-0.501
'[07:23:53.340 15/12/1995]',0.006,0.026,-0.005,55.814,36.850,0.000,-0.501
'[07:23:53.342 15/12/1995]',0.006,0.024,0.001,55.814,36.850,0.000,-0.501
'[07:23:53.344 15/12/1995]',0.005,0.025,0.001,52.888,36.850,0.000,-0.503
'[07:23:53.346 15/12/1995]',0.005,0.026,-0.005,52.888,36.850,0.000,-0.503
'[07:23:53.348 15/12/1995]',0.005,0.028,-0.005,52.888,36.850,0.000,-0.503
'[07:23:53.350 15/12/1995]',0.005,0.031,-0.005,52.888,36.850,0.000,-0.503
'[07:23:53.352 15/12/1995]',0.005,0.032,-0.005,50.638,37.000,0.000,-0.507
'[07:23:53.354 15/12/1995]',0.004,0.034,-0.011,50.638,37.000,0.000,-0.507
'[07:23:53.356 15/12/1995]',0.004,0.034,-0.005,50.638,37.000,0.000,-0.507
'[07:23:53.358 15/12/1995]',0.004,0.034,-0.005,50.638,37.000,0.000,-0.507
'[07:23:53.360 15/12/1995]',0.004,0.035,0.001,48.987,37.150,0.000,-0.511
'[07:23:53.362 15/12/1995]',0.005,0.036,0.001,48.987,37.150,0.000,-0.511
'[07:23:53.364 15/12/1995]',0.005,0.035,0.006,48.987,37.150,0.000,-0.511
'[07:23:53.366 15/12/1995]',0.006,0.035,0.001,48.987,37.150,0.000,-0.511
'[07:23:53.368 15/12/1995]',0.006,0.034,-0.005,47.937,37.400,0.000,-0.517
'[07:23:53.370 15/12/1995]',0.006,0.034,-0.011,47.937,37.400,0.000,-0.517
'[07:23:53.372 15/12/1995]',0.005,0.033,-0.005,47.937,37.400,0.000,-0.517
'[07:23:53.374 15/12/1995]',0.005,0.032,-0.005,47.937,37.400,0.000,-0.517
'[07:23:53.376 15/12/1995]',0.004,0.031,-0.005,47.262,37.650,0.000,-0.524
'[07:23:53.378 15/12/1995]',0.004,0.031,0.001,47.262,37.650,0.000,-0.524
'[07:23:53.380 15/12/1995]',0.003,0.029,-0.005,47.262,37.650,0.000,-0.524
'[07:23:53.382 15/12/1995]',0.002,0.027,-0.005,47.262,37.650,0.000,-0.524
'[07:23:53.384 15/12/1995]',0.002,0.028,-0.011,46.887,37.850,0.000,-0.532
'[07:23:53.386 15/12/1995]',0.002,0.028,-0.011,46.887,37.850,0.000,-0.532
'[07:23:53.388 15/12/1995]',0.002,0.029,-0.011,46.887,37.850,0.000,-0.532
'[07:23:53.390 15/12/1995]',0.002,0.031,-0.005,46.887,37.850,0.000,-0.532
'[07:23:53.392 15/12/1995]',0.003,0.031,0.001,46.662,38.100,0.000,-0.540
'[07:23:53.394 15/12/1995]',0.004,0.031,0.001,46.662,38.100,0.000,-0.540
'[07:23:53.396 15/12/1995]',0.005,0.032,0.006,46.662,38.100,0.000,-0.540
'[07:23:53.398 15/12/1995]',0.006,0.033,0.001,46.662,38.100,0.000,-0.540
'[07:23:53.400 15/12/1995]',0.006,0.033,0.001,46.512,38.200,0.000,-0.547
'[07:23:53.402 15/12/1995]',0.006,0.034,-0.005,46.512,38.200,0.000,-0.547
'[07:23:53.404 15/12/1995]',0.006,0.033,-0.011,46.512,38.200,0.000,-0.547
'[07:23:53.406 15/12/1995]',0.006,0.032,-0.005,46.512,38.200,0.000,-0.547
'[07:23:53.408 15/12/1995]',0.006,0.030,-0.005,46.587,38.300,0.000,-0.554
'[07:23:53.410 15/12/1995]',0.006,0.027,-0.005,46.587,38.300,0.000,-0.554
'[07:23:53.412 15/12/1995]',0.006,0.024,0.001,46.587,38.300,0.000,-0.554
'[07:23:53.414 15/12/1995]',0.006,0.021,-0.005,46.587,38.300,0.000,-0.554
'[07:23:53.416 15/12/1995]',0.006,0.020,-0.005,46.737,38.200,0.000,-0.561
'[07:23:53.418 15/12/1995]',0.006,0.019,-0.005,46.737,38.200,0.000,-0.561
'[07:23:53.420 15/12/1995]',0.006,0.019,-0.005,46.737,38.200,0.000,-0.561
'[07:23:53.422 15/12/1995]',0.006,0.019,-0.005,46.737,38.200,0.000,-0.561
'[07:23:53.424 15/12/1995]',0.005,0.019,-0.005,47.037,38.150,0.000,-0.566
'[07:23:53.426 15/12/1995]',0.005,0.019,0.001,47.037,38.150,0.000,-0.566
'[07:23:53.428 15/12/1995]',0.004,0.019,0.001,47.037,38.150,0.000,-0.566
'[07:23:53.430 15/12/1995]',0.003,0.020,-0.005,47.037,38.150,0.000,-0.566
'[07:23:53.432 15/12/1995]',0.001,0.021,-0.011,47.262,38.100,0.000,-0.567
'[07:23:53.434 15/12/1995]',-0.001,0.021,-0.023,47.262,38.100,0.000,-0.567
'[07:23:53.436 15/12/1995]',-0.003,0.022,-0.023,47.262,38.100,0.000,-0.567
'[07:23:53.438 15/12/1995]',-0.004,0.022,-0.023,47.262,38.100,0.000,-0.567
'[07:23:53.440 15/12/1995]',-0.005,0.022,-0.011,47.562,38.000,0.000,-0.566
'[07:23:53.442 15/12/1995]',-0.006,0.022,-0.011,47.562,38.000,0.000,-0.566
'[07:23:53.444 15/12/1995]',-0.005,0.023,-0.005,47.562,38.000,0.000,-0.566
'[07:23:53.446 15/12/1995]',-0.004,0.023,-0.005,47.562,38.000,0.000,-0.566
'[07:23:53.448 15/12/1995]',-0.003,0.024,-0.005,47.712,37.800,0.000,-0.561
'[07:23:53.450 15/12/1995]',-0.002,0.026,-0.011,47.712,37.800,0.000,-0.561
'[07:23:53.452 15/12/1995]',-0.001,0.030,-0.011,47.712,37.800,0.000,-0.561
'[07:23:53.454 15/12/1995]',-0.001,0.034,-0.011,47.712,37.800,0.000,-0.561
'[07:23:53.456 15/12/1995]',-0.000,0.040,-0.011,47.787,37.600,0.000,-0.555
'[07:23:53.458 15/12/1995]',0.000,0.047,-0.005,47.787,37.600,0.000,-0.555
'[07:23:53.460 15/12/1995]',0.000,0.055,-0.005,47.787,37.600,0.000,-0.555
'[07:23:53.462 15/12/1995]',0.000,0.063,-0.005,47.787,37.600,0.000,-0.555
'[07:23:53.464 15/12/1995]',0.000,0.069,-0.005,47.712,37.200,0.000,-0.548
'[07:23:53.466 15/12/1995]',0.000,0.076,-0.011,47.712,37.200,0.000,-0.548
'[07:23:53.468 15/12/1995]',0.000,0.081,-0.023,47.712,37.200,0.000,-0.548
'[07:23:53.470 15/12/1995]',0.000,0.085,-0.011,47.712,37.200,0.000,-0.548
'[07:23:53.472 15/12/1995]',-0.000,0.088,-0.005,47.562,36.750,0.000,-0.539
'[07:23:53.474 15/12/1995]',-0.001,0.091,-0.005,47.562,36.750,0.000,-0.539
'[07:23:53.476 15/12/1995]',-0.002,0.093,-0.005,47.562,36.750,0.000,-0.539
'[07:23:53.478 15/12/1995]',-0.003,0.095,-0.011,47.562,36.750,0.000,-0.539
'[07:23:53.480 15/12/1995]',-0.005,0.097,-0.011,47.262,36.150,0.000,-0.528
'[07:23:53.482 15/12/1995]',-0.007,0.099,-0.023,47.262,36.150,0.000,-0.528
'[07:23:53.484 15/12/1995]',-0.011,0.101,-0.034,47.262,36.150,0.000,-0.528
'[07:23:53.486 15/12/1995]',-0.014,0.104,-0.034,47.262,36.150,0.000,-0.528
'[07:23:53.488 15/12/1995]',-0.017,0.106,-0.046,46.962,35.500,0.000,-0.518
'[07:23:53.490 15/12/1995]',-0.021,0.108,-0.034,46.962,35.500,0.000,-0.518
'[07:23:53.492 15/12/1995]',-0.023,0.108,-0.034,46.962,35.500,0.000,-0.518
'[07:23:53.494 15/12/1995]',-0.025,0.108,-0.028,46.962,35.500,0.000,-0.518
'[07:23:53.496 15/12/1995]',-0.025,0.103,-0.028,46.512,34.800,0.000,-0.508
'[07:23:53.498 15/12/1995]',-0.025,0.099,-0.028,46.512,34.800,0.000,-0.508
'[07:23:53.500 15/12/1995]',-0.024,0.095,-0.028,46.512,34.800,0.000,-0.508
'[07:23:53.502 15/12/1995]',-0.022,0.090,-0.028,46.512,34.800,0.000,-0.508
'[07:23:53.504 15/12/1995]',-0.021,0.086,-0.028,46.062,34.000,0.000,-0.499
'[07:23:53.506 15/12/1995]',-0.019,0.082,-0.028,46.062,34.000,0.000,-0.499
'[07:23:53.508 15/12/1995]',-0.019,0.080,-0.023,46.062,34.000,0.000,-0.499
'[07:23:53.510 15/12/1995]',-0.019,0.077,-0.023,46.062,34.000,0.000,-0.499
'[07:23:53.512 15/12/1995]',-0.021,0.077,-0.023,45.611,33.250,0.000,-0.491
'[07:23:53.514 15/12/1995]',-0.022,0.076,-0.034,45.611,33.250,0.000,-0.491
'[07:23:53.516 15/12/1995]',-0.023,0.079,-0.034,45.611,33.250,0.000,-0.491
'[07:23:53.518 15/12/1995]',-0.024,0.081,-0.046,45.611,33.250,0.000,-0.491
'[07:23:53.520 15/12/1995]',-0.025,0.084,-0.046,45.086,32.600,0.000,-0.483
'[07:23:53.522 15/12/1995]',-0.025,0.087,-0.034,45.086,32.600,0.000,-0.483
'[07:23:53.524 15/12/1995]',-0.025,0.088,-0.028,45.086,32.600,0.000,-0.483
'[07:23:53.526 15/12/1995]',-0.024,0.088,-0.023,45.086,32.600,0.000,-0.483
'[07:23:53.528 15/12/1995]',-0.022,0.087,-0.023,44.561,32.000,0.000,-0.477
'[07:23:53.530 15/12/1995]',-0.020,0.085,-0.023,44.561,32.000,0.000,-0.477
'[07:23:53.532 15/12/1995]',-0.018,0.080,-0.023,44.561,32.000,0.000,-0.477
'[07:23:53.534 15/12/1995]',-0.016,0.076,-0.023,44.561,32.000,0.000,-0.477
'[07:23:53.536 15/12/1995]',-0.013,0.071,-0.023,44.036,31.600,0.000,-0.473
'[07:23:53.538 15/12/1995]',-0.011,0.065,-0.023,44.036,31.600,0.000,-0.473
'[07:23:53.540 15/12/1995]',-0.009,0.059,-0.011,44.036,31.600,0.000,-0.473
'[07:23:53.542 15/12/1995]',-0.006,0.053,-0.005,44.036,31.600,0.000,-0.473
'[07:23:53.544 15/12/1995]',-0.004,0.047,0.001,43.511,31.250,0.000,-0.469
'[07:23:53.546 15/12/1995]',-0.001,0.041,0.001,43.511,31.250,0.000,-0.469
'[07:23:53.548 15/12/1995]',0.002,0.034,0.001,43.511,31.250,0.000,-0.469
'[07:23:53.550 15/12/1995]',0.005,0.027,-0.005,43.511,31.250,0.000,-0.469
'[07:23:53.552 15/12/1995]',0.007,0.018,-0.005,43.061,30.950,0.000,-0.467
'[07:23:53.554 15/12/1995]',0.009,0.010,0.001,43.061,30.950,0.000,-0.467
'[07:23:53.556 15/12/1995]',0.010,0.002,0.006,43.061,30.950,0.000,-0.467
'[07:23:53.558 15/12/1995]',0.011,-0.005,0.006,43.061,30.950,0.000,-0.467
'[07:23:53.560 15/12/1995]',0.011,-0.011,0.012,42.536,30.650,0.000,-0.464
'[07:23:53.562 15/12/1995]',0.011,-0.017,0.006,42.536,30.650,0.000,-0.464
'[07:23:53.564 15/12/1995]',0.011,-0.020,0.006,42.536,30.650,0.000,-0.464
'[07:23:53.566 15/12/1995]',0.011,-0.024,0.001,42.536,30.650,0.000,-0.464
'[07:23:53.568 15/12/1995]',0.010,-0.025,-0.005,42.011,30.300,0.000,-0.461
'[07:23:53.570 15/12/1995]',0.010,-0.026,-0.005,42.011,30.300,0.000,-0.461
'[07:23:53.572 15/12/1995]',0.009,-0.026,-0.005,42.011,30.300,0.000,-0.461
'[07:23:53.574 15/12/1995]',0.008,-0.026,0.001,42.011,30.300,0.000,-0.461
'[07:23:53.576 15/12/1995]',0.008,-0.026,0.006,41.560,30.000,0.000,-0.457
'[07:23:53.578 15/12/1995]',0.008,-0.027,0.006,41.560,30.000,0.000,-0.457
'[07:23:53.580 15/12/1995]',0.009,-0.028,0.006,41.560,30.000,0.000,-0.457
'[07:23:53.582 15/12/1995]',0.009,-0.030,0.001,41.560,30.000,0.000,-0.457
'[07:23:53.584 15/12/1995]',0.011,-0.031,0.001,41.035,29.800,0.000,-0.453
'[07:23:53.586 15/12/1995]',0.012,-0.032,0.001,41.035,29.800,0.000,-0.453
'[07:23:53.588 15/12/1995]',0.014,-0.033,0.006,41.035,29.800,0.000,-0.453
'[07:23:53.590 15/12/1995]',0.015,-0.034,0.012,41.035,29.800,0.000,-0.453
'[07:23:53.592 15/12/1995]',0.016,-0.034,0.012,40.585,29.650,0.000,-0.449
'[07:23:53.594 15/12/1995]',0.018,-0.034,0.012,40.585,29.650,0.000,-0.449
'[07:23:53.596 15/12/1995]',0.018,-0.034,0.012,40.585,29.650,0.000,-0.449
'[07:23:53.598 15/12/1995]',0.018,-0.033,0.012,40.585,29.650,0.000,-0.449
'[07:23:53.600 15/12/1995]',0.018,-0.032,0.006,40.060,29.700,0.000,-0.443
'[07:23:53.602 15/12/1995]',0.018,-0.031,0.006,40.060,29.700,0.000,-0.443
'[07:23:53.604 15/12/1995]',0.018,-0.031,0.006,40.060,29.700,0.000,-0.443
'[07:23:53.606 15/12/1995]',0.018,-0.030,0.006,40.060,29.700,0.000,-0.443
'[07:23:53.608 15/12/1995]',0.019,-0.028,0.012,39.610,29.900,0.000,-0.437
'[07:23:53.610 15/12/1995]',0.020,-0.027,0.012,39.610,29.900,0.000,-0.437
'[07:23:53.612 15/12/1995]',0.021,-0.024,0.023,39.610,29.900,0.000,-0.437
'[07:23:53.614 15/12/1995]',0.022,-0.021,0.023,39.610,29.900,0.000,-0.437
'[07:23:53.616 15/12/1995]',0.022,-0.014,0.023,39.310,30.100,0.000,-0.430
'[07:23:53.618 15/12/1995]',0.022,-0.008,0.012,39.310,30.100,0.000,-0.430
'[07:23:53.620 15/12/1995]',0.019,0.002,0.012,39.310,30.100,0.000,-0.430
'[07:23:53.622 15/12/1995]',0.016,0.011,0.006,39.310,30.100,0.000,-0.430
'[07:23:53.624 15/12/1995]',0.006,0.027,-0.005,39.085,30.200,0.000,-0.423
'[07:23:53.626 15/12/1995]',-0.003,0.042,-0.023,39.085,30.200,0.000,-0.423
'[07:23:53.628 15/12/1995]',-0.019,0.065,-0.046,39.085,30.200,0.000,-0.423
'[07:23:53.630 15/12/1995]',-0.035,0.088,-0.075,39.085,30.200,0.000,-0.423
'[07:23:53.632 15/12/1995]',-0.058,0.117,-0.115,38.935,30.200,0.000,-0.414
'[07:23:53.634 15/12/1995]',-0.082,0.146,-0.150,38.935,30.200,0.000,-0.414
'[07:23:53.636 15/12/1995]',-0.108,0.180,-0.178,38.935,30.200,0.000,-0.414
'[07:23:53.638 15/12/1995]',-0.135,0.213,-0.219,38.935,30.200,0.000,-0.414
'[07:23:53.640 15/12/1995]',-0.162,0.244,-0.236,38.785,30.200,0.000,-0.405
'[07:23:53.642 15/12/1995]',-0.188,0.275,-0.253,38.785,30.200,0.000,-0.405
'[07:23:53.644 15/12/1995]',-0.210,0.299,-0.259,38.785,30.200,0.000,-0.405
'[07:23:53.646 15/12/1995]',-0.232,0.322,-0.276,38.785,30.200,0.000,-0.405
'[07:23:53.648 15/12/1995]',-0.246,0.330,-0.282,38.710,30.100,0.000,-0.395
'[07:23:53.650 15/12/1995]',-0.261,0.338,-0.288,38.710,30.100,0.000,-0.395
'[07:23:53.652 15/12/1995]',-0.265,0.327,-0.288,38.710,30.100,0.000,-0.395
'[07:23:53.654 15/12/1995]',-0.269,0.317,-0.282,38.710,30.100,0.000,-0.395
'[07:23:53.656 15/12/1995]',-0.263,0.288,-0.276,38.635,29.800,0.000,-0.386
'[07:23:53.658 15/12/1995]',-0.258,0.259,-0.242,38.635,29.800,0.000,-0.386
'[07:23:53.660 15/12/1995]',-0.243,0.219,-0.213,38.635,29.800,0.000,-0.386
'[07:23:53.662 15/12/1995]',-0.228,0.179,-0.178,38.635,29.800,0.000,-0.386
'[07:23:53.664 15/12/1995]',-0.207,0.136,-0.161,38.485,29.350,0.000,-0.376
'[07:23:53.666 15/12/1995]',-0.185,0.092,-0.138,38.485,29.350,0.000,-0.376
'[07:23:53.668 15/12/1995]',-0.161,0.053,-0.115,38.485,29.350,0.000,-0.376
'[07:23:53.670 15/12/1995]',-0.137,0.014,-0.092,38.485,29.350,0.000,-0.376
'[07:23:53.672 15/12/1995]',-0.113,-0.017,-0.069,38.410,28.950,0.000,-0.366
'[07:23:53.674 15/12/1995]',-0.089,-0.049,-0.046,38.410,28.950,0.000,-0.366
'[07:23:53.676 15/12/1995]',-0.069,-0.073,-0.028,38.410,28.950,0.000,-0.366
'[07:23:53.678 15/12/1995]',-0.049,-0.098,-0.005,38.410,28.950,0.000,-0.366
'[07:23:53.680 15/12/1995]',-0.032,-0.116,0.006,38.260,28.650,0.000,-0.357
'[07:23:53.682 15/12/1995]',-0.016,-0.135,0.012,38.260,28.650,0.000,-0.357
'[07:23:53.684 15/12/1995]',-0.004,-0.148,0.012,38.260,28.650,0.000,-0.357
'[07:23:53.686 15/12/1995]',0.009,-0.162,0.023,38.260,28.650,0.000,-0.357
'[07:23:53.688 15/12/1995]',0.018,-0.170,0.029,38.185,28.650,0.000,-0.351
'[07:23:53.690 15/12/1995]',0.027,-0.178,0.029,38.185,28.650,0.000,-0.351
'[07:23:53.692 15/12/1995]',0.032,-0.180,0.035,38.185,28.650,0.000,-0.351
'[07:23:53.694 15/12/1995]',0.038,-0.182,0.047,38.185,28.650,0.000,-0.351
'[07:23:53.696 15/12/1995]',0.040,-0.178,0.047,37.959,29.000,0.000,-0.347
'[07:23:53.698 15/12/1995]',0.043,-0.175,0.035,37.959,29.000,0.000,-0.347
'[07:23:53.700 15/12/1995]',0.044,-0.169,0.035,37.959,29.000,0.000,-0.347
'[07:23:53.702 15/12/1995]',0.045,-0.162,0.035,37.959,29.000,0.000,-0.347
'[07:23:53.704 15/12/1995]',0.045,-0.154,0.029,37.734,29.850,0.000,-0.345
'[07:23:53.706 15/12/1995]',0.046,-0.146,0.035,37.734,29.850,0.000,-0.345
'[07:23:53.708 15/12/1995]',0.046,-0.137,0.035,37.734,29.850,0.000,-0.345
'[07:23:53.710 15/12/1995]',0.047,-0.127,0.047,37.734,29.850,0.000,-0.345
'[07:23:53.712 15/12/1995]',0.048,-0.117,0.047,37.509,31.200,0.000,-0.346
'[07:23:53.714 15/12/1995]',0.049,-0.107,0.047,37.509,31.200,0.000,-0.346
'[07:23:53.716 15/12/1995]',0.049,-0.098,0.047,37.509,31.200,0.000,-0.346
'[07:23:53.718 15/12/1995]',0.050,-0.088,0.047,37.509,31.200,0.000,-0.346
'[07:23:53.720 15/12/1995]',0.050,-0.081,0.035,37.209,32.850,0.000,-0.351
'[07:23:53.722 15/12/1995]',0.051,-0.074,0.047,37.209,32.850,0.000,-0.351
'[07:23:53.724 15/12/1995]',0.051,-0.069,0.047,37.209,32.850,0.000,-0.351
'[07:23:53.726 15/12/1995]',0.051,-0.064,0.052,37.209,32.850,0.000,-0.351
'[07:23:53.728 15/12/1995]',0.050,-0.061,0.052,36.909,34.550,0.000,-0.360
'[07:23:53.730 15/12/1995]',0.049,-0.059,0.052,36.909,34.550,0.000,-0.360
'[07:23:53.732 15/12/1995]',0.048,-0.058,0.035,36.909,34.550,0.000,-0.360
'[07:23:53.734 15/12/1995]',0.047,-0.057,0.029,36.909,34.550,0.000,-0.360
'[07:23:53.736 15/12/1995]',0.046,-0.057,0.029,36.609,36.000,0.000,-0.373
'[07:23:53.738 15/12/1995]',0.046,-0.056,0.029,36.609,36.000,0.000,-0.373
'[07:23:53.740 15/12/1995]',0.045,-0.056,0.035,36.609,36.000,0.000,-0.373
'[07:23:53.742 15/12/1995]',0.045,-0.055,0.035,36.609,36.000,0.000,-0.373
'[07:23:53.744 15/12/1995]',0.044,-0.054,0.035,36.309,36.750,0.000,-0.389
'[07:23:53.746 15/12/1995]',0.044,-0.053,0.035,36.309,36.750,0.000,-0.389
'[07:23:53.748 15/12/1995]',0.044,-0.051,0.035,36.309,36.750,0.000,-0.389
'[07:23:53.750 15/12/1995]',0.043,-0.050,0.029,36.309,36.750,0.000,-0.389
'[07:23:53.752 15/12/1995]',0.042,-0.048,0.023,35.934,36.850,0.000,-0.406
'[07:23:53.754 15/12/1995]',0.042,-0.047,0.029,35.934,36.850,0.000,-0.406
'[07:23:53.756 15/12/1995]',0.042,-0.046,0.029,35.934,36.850,0.000,-0.406
'[07:23:53.758 15/12/1995]',0.042,-0.045,0.035,35.934,36.850,0.000,-0.406
'[07:23:53.760 15/12/1995]',0.042,-0.044,0.047,35.559,36.850,0.000,-0.426
'[07:23:53.762 15/12/1995]',0.042,-0.043,0.047,35.559,36.850,0.000,-0.426
'[07:23:53.764 15/12/1995]',0.043,-0.043,0.047,35.559,36.850,0.000,-0.426
'[07:23:53.766 15/12/1995]',0.044,-0.043,0.035,35.559,36.850,0.000,-0.426
'[07:23:53.768 15/12/1995]',0.045,-0.042,0.035,35.184,37.050,0.000,-0.449
'[07:23:53.770 15/12/1995]',0.046,-0.041,0.029,35.184,37.050,0.000,-0.449
'[07:23:53.772 15/12/1995]',0.046,-0.040,0.035,35.184,37.050,0.000,-0.449
'[07:23:53.774 15/12/1995]',0.047,-0.039,0.035,35.184,37.050,0.000,-0.449
'[07:23:53.776 15/12/1995]',0.046,-0.037,0.047,34.959,37.350,0.000,-0.470
'[07:23:53.778 15/12/1995]',0.046,-0.035,0.047,34.959,37.350,0.000,-0.470
'[07:23:53.780 15/12/1995]',0.044,-0.033,0.035,34.959,37.350,0.000,-0.470
'[07:23:53.782 15/12/1995]',0.043,-0.031,0.029,34.959,37.350,0.000,-0.470
'[07:23:53.784 15/12/1995]',0.041,-0.029,0.023,34.734,37.600,0.000,-0.490
'[07:23:53.786 15/12/1995]',0.039,-0.027,0.023,34.734,37.600,0.000,-0.490
'[07:23:53.788 15/12/1995]',0.038,-0.024,0.023,34.734,37.600,0.000,-0.490
'[07:23:53.790 15/12/1995]',0.037,-0.021,0.029,34.734,37.600,0.000,-0.490
'[07:23:53.792 15/12/1995]',0.036,-0.019,0.035,35.034,37.800,0.000,-0.509
'[07:23:53.794 15/12/1995]',0.036,-0.017,0.035,35.034,37.800,0.000,-0.509
'[07:23:53.796 15/12/1995]',0.036,-0.014,0.029,35.034,37.800,0.000,-0.509
'[07:23:53.798 15/12/1995]',0.036,-0.012,0.029,35.034,37.800,0.000,-0.509
'[07:23:53.800 15/12/1995]',0.036,-0.010,0.029,36.534,38.300,0.000,-0.526
'[07:23:53.802 15/12/1995]',0.036,-0.008,0.023,36.534,38.300,0.000,-0.526
'[07:23:53.804 15/12/1995]',0.036,-0.007,0.023,36.534,38.300,0.000,-0.526
'[07:23:53.806 15/12/1995]',0.036,-0.005,0.029,36.534,38.300,0.000,-0.526
'[07:23:53.808 15/12/1995]',0.036,-0.006,0.029,40.810,39.000,0.000,-0.542
'[07:23:53.810 15/12/1995]',0.036,-0.006,0.035,40.810,39.000,0.000,-0.542
'[07:23:53.812 15/12/1995]',0.036,-0.007,0.029,40.810,39.000,0.000,-0.542
'[07:23:53.814 15/12/1995]',0.036,-0.008,0.029,40.810,39.000,0.000,-0.542
'[07:23:53.816 15/12/1995]',0.036,-0.008,0.029,49.512,39.800,0.000,-0.555
'[07:23:53.818 15/12/1995]',0.035,-0.008,0.023,49.512,39.800,0.000,-0.555
'[07:23:53.820 15/12/1995]',0.035,-0.006,0.023,49.512,39.800,0.000,-0.555
'[07:23:53.822 15/12/1995]',0.034,-0.004,0.023,49.512,39.800,0.000,-0.555
'[07:23:53.824 15/12/1995]',0.034,-0.000,0.029,63.316,40.800,0.000,-0.567
'[07:23:53.826 15/12/1995]',0.033,0.003,0.023,63.316,40.800,0.000,-0.567
'[07:23:53.828 15/12/1995]',0.032,0.006,0.029,63.316,40.800,0.000,-0.567
'[07:23:53.830 15/12/1995]',0.031,0.009,0.023,63.316,40.800,0.000,-0.567
'[07:23:53.832 15/12/1995]',0.030,0.010,0.023,81.170,41.800,0.000,-0.577
'[07:23:53.834 15/12/1995]',0.029,0.011,0.012,81.170,41.800,0.000,-0.577
'[07:23:53.836 15/12/1995]',0.028,0.011,0.012,81.170,41.800,0.000,-0.577
'[07:23:53.838 15/12/1995]',0.027,0.011,0.012,81.170,41.800,0.000,-0.577
'[07:23:53.840 15/12/1995]',0.026,0.010,0.012,99.775,42.850,0.000,-0.585
'[07:23:53.842 15/12/1995]',0.025,0.008,0.023,99.775,42.850,0.000,-0.585
'[07:23:53.844 15/12/1995]',0.024,0.008,0.023,99.775,42.850,0.000,-0.585
'[07:23:53.846 15/12/1995]',0.024,0.008,0.012,99.775,42.850,0.000,-0.585
'[07:23:53.848 15/12/1995]',0.023,0.010,0.012,115.079,44.000,0.000,-0.592
'[07:23:53.850 15/12/1995]',0.022,0.011,0.006,115.079,44.000,0.000,-0.592
'[07:23:53.852 15/12/1995]',0.022,0.011,0.012,115.079,44.000,0.000,-0.592
'[07:23:53.854 15/12/1995]',0.021,0.011,0.012,115.079,44.000,0.000,-0.592
'[07:23:53.856 15/12/1995]',0.021,0.011,0.006,124.156,45.450,0.000,-0.597
'[07:23:53.858 15/12/1995]',0.020,0.011,0.012,124.156,45.450,0.000,-0.597
'[07:23:53.860 15/12/1995]',0.021,0.012,0.023,124.156,45.450,0.000,-0.597
'[07:23:53.862 15/12/1995]',0.021,0.013,0.023,124.156,45.450,0.000,-0.597
'[07:23:53.864 15/12/1995]',0.022,0.014,0.023,126.407,46.850,0.000,-0.602
'[07:23:53.866 15/12/1995]',0.022,0.015,0.012,126.407,46.850,0.000,-0.602
'[07:23:53.868 15/12/1995]',0.023,0.016,0.012,126.407,46.850,0.000,-0.602
'[07:23:53.870 15/12/1995]',0.023,0.017,0.012,126.407,46.850,0.000,-0.602
'[07:23:53.872 15/12/1995]',0.023,0.018,0.012,123.481,48.250,0.000,-0.606
'[07:23:53.874 15/12/1995]',0.022,0.019,0.012,123.481,48.250,0.000,-0.606
'[07:23:53.876 15/12/1995]',0.022,0.019,0.012,123.481,48.250,0.000,-0.606
'[07:23:53.878 15/12/1995]',0.021,0.020,0.012,123.481,48.250,0.000,-0.606
'[07:23:53.880 15/12/1995]',0.021,0.019,0.012,118.005,49.400,0.000,-0.610
'[07:23:53.882 15/12/1995]',0.020,0.019,0.006,118.005,49.400,0.000,-0.610
'[07:23:53.884 15/12/1995]',0.019,0.019,0.006,118.005,49.400,0.000,-0.610
'[07:23:53.886 15/12/1995]',0.018,0.019,0.006,118.005,49.400,0.000,-0.610
'[07:23:53.888 15/12/1995]',0.017,0.019,0.006,111.928,50.250,0.000,-0.612
'[07:23:53.890 15/12/1995]',0.017,0.020,0.006,111.928,50.250,0.000,-0.612
'[07:23:53.892 15/12/1995]',0.016,0.021,0.006,111.928,50.250,0.000,-0.612
'[07:23:53.894 15/12/1995]',0.015,0.021,0.012,111.928,50.250,0.000,-0.612
'[07:23:53.896 15/12/1995]',0.014,0.022,0.012,106.452,50.750,0.000,-0.614
'[07:23:53.898 15/12/1995]',0.014,0.023,0.006,106.452,50.750,0.000,-0.614
'[07:23:53.900 15/12/1995]',0.014,0.024,0.006,106.452,50.750,0.000,-0.614
'[07:23:53.902 15/12/1995]',0.015,0.024,0.001,106.452,50.750,0.000,-0.614
'[07:23:53.904 15/12/1995]',0.015,0.025,0.006,101.800,51.050,0.000,-0.615
'[07:23:53.906 15/12/1995]',0.016,0.025,0.006,101.800,51.050,0.000,-0.615
'[07:23:53.908 15/12/1995]',0.017,0.025,0.012,101.800,51.050,0.000,-0.615
'[07:23:53.910 15/12/1995]',0.018,0.024,0.023,101.800,51.050,0.000,-0.615
'[07:23:53.912 15/12/1995]',0.019,0.023,0.012,97.674,51.050,0.000,-0.616
'[07:23:53.914 15/12/1995]',0.020,0.021,0.012,97.674,51.050,0.000,-0.616
'[07:23:53.916 15/12/1995]',0.020,0.020,0.006,97.674,51.050,0.000,-0.616
'[07:23:53.918 15/12/1995]',0.020,0.018,0.006,97.674,51.050,0.000,-0.616
'[07:23:53.920 15/12/1995]',0.020,0.015,0.006,93.923,50.900,0.000,-0.615
'[07:23:53.922 15/12/1995]',0.019,0.012,0.006,93.923,50.900,0.000,-0.615
'[07:23:53.924 15/12/1995]',0.019,0.008,0.012,93.923,50.900,0.000,-0.615
'[07:23:53.926 15/12/1995]',0.018,0.005,0.012,93.923,50.900,0.000,-0.615
'[07:23:53.928 15/12/1995]',0.018,0.002,0.023,90.698,50.450,0.000,-0.614
'[07:23:53.930 15/12/1995]',0.018,-0.001,0.012,90.698,50.450,0.000,-0.614
'[07:23:53.932 15/12/1995]',0.018,-0.002,0.006,90.698,50.450,0.000,-0.614
'[07:23:53.934 15/12/1995]',0.018,-0.004,0.006,90.698,50.450,0.000,-0.614
'[07:23:53.936 15/12/1995]',0.018,-0.005,0.001,87.922,49.900,0.000,-0.612
'[07:23:53.938 15/12/1995]',0.018,-0.006,0.006,87.922,49.900,0.000,-0.612
'[07:23:53.940 15/12/1995]',0.019,-0.007,0.012,87.922,49.900,0.000,-0.612
'[07:23:53.942 15/12/1995]',0.020,-0.008,0.023,87.922,49.900,0.000,-0.612
'[07:23:53.944 15/12/1995]',0.021,-0.009,0.012,85.596,49.100,0.000,-0.609
'[07:23:53.946 15/12/1995]',0.022,-0.009,0.029,85.596,49.100,0.000,-0.609
'[07:23:53.948 15/12/1995]',0.022,-0.010,0.023,85.596,49.100,0.000,-0.609
'[07:23:53.950 15/12/1995]',0.022,-0.011,0.012,85.596,49.100,0.000,-0.609
'[07:23:53.952 15/12/1995]',0.022,-0.011,0.006,83.646,48.250,0.000,-0.606
'[07:23:53.954 15/12/1995]',0.022,-0.011,0.006,83.646,48.250,0.000,-0.606
'[07:23:53.956 15/12/1995]',0.021,-0.011,0.006,83.646,48.250,0.000,-0.606
'[07:23:53.958 15/12/1995]',0.020,-0.011,0.006,83.646,48.250,0.000,-0.606
'[07:23:53.960 15/12/1995]',0.018,-0.011,0.012,82.071,47.150,0.000,-0.603
'[07:23:53.962 15/12/1995]',0.016,-0.011,0.006,82.071,47.150,0.000,-0.603
'[07:23:53.964 15/12/1995]',0.015,-0.010,0.006,82.071,47.150,0.000,-0.603
'[07:23:53.966 15/12/1995]',0.013,-0.008,0.001,82.071,47.150,0.000,-0.603
'[07:23:53.968 15/12/1995]',0.013,-0.007,0.001,80.495,45.900,0.000,-0.600
'[07:23:53.970 15/12/1995]',0.012,-0.005,0.001,80.495,45.900,0.000,-0.600
'[07:23:53.972 15/12/1995]',0.012,-0.003,0.006,80.495,45.900,0.000,-0.600
'[07:23:53.974 15/12/1995]',0.011,-0.002,0.006,80.495,45.900,0.000,-0.600
'[07:23:53.976 15/12/1995]',0.011,0.000,0.006,78.920,44.550,0.000,-0.598
'[07:23:53.978 15/12/1995]',0.011,0.002,0.006,78.920,44.550,0.000,-0.598
'[07:23:53.980 15/12/1995]',0.012,0.005,0.012,78.920,44.550,0.000,-0.598
'[07:23:53.982 15/12/1995]',0.012,0.007,0.006,78.920,44.550,0.000,-0.598
'[07:23:53.984 15/12/1995]',0.012,0.009,0.006,77.269,43.150,0.000,-0.596
'[07:23:53.986 15/12/1995]',0.012,0.011,0.001,77.269,43.150,0.000,-0.596
'[07:23:53.988 15/12/1995]',0.012,0.011,0.001,77.269,43.150,0.000,-0.596
'[07:23:53.990 15/12/1995]',0.012,0.012,0.006,77.269,43.150,0.000,-0.596
'[07:23:53.992 15/12/1995]',0.012,0.013,0.006,75.244,41.700,0.000,-0.595
'[07:23:53.994 15/12/1995]',0.011,0.013,0.006,75.244,41.700,0.000,-0.595
'[07:23:53.996 15/12/1995]',0.011,0.014,0.006,75.244,41.700,0.000,-0.595
'[07:23:53.998 15/12/1995]',0.011,0.015,0.006,75.244,41.700,0.000,-0.595
'[07:23:54.000 15/12/1995]',0.012,0.016,0.006,72.993,40.350,0.000,-0.595
'[07:23:54.002 15/12/1995]',0.012,0.018,0.001,72.993,40.350,0.000,-0.595
'[07:23:54.004 15/12/1995]',0.012,0.020,0.001,72.993,40.350,0.000,-0.595
'[07:23:54.006 15/12/1995]',0.013,0.023,0.006,72.993,40.350,0.000,-0.595
'[07:23:54.008 15/12/1995]',0.013,0.026,0.006,70.293,39.100,0.000,-0.594
'[07:23:54.010 15/12/1995]',0.013,0.029,0.006,70.293,39.100,0.000,-0.594
'[07:23:54.012 15/12/1995]',0.013,0.032,0.006,70.293,39.100,0.000,-0.594
'[07:23:54.014 15/12/1995]',0.012,0.034,0.006,70.293,39.100,0.000,-0.594
'[07:23:54.016 15/12/1995]',0.012,0.037,0.001,67.217,38.000,0.000,-0.593
'[07:23:54.018 15/12/1995]',0.012,0.040,0.001,67.217,38.000,0.000,-0.593
'[07:23:54.020 15/12/1995]',0.012,0.040,0.001,67.217,38.000,0.000,-0.593
'[07:23:54.022 15/12/1995]',0.012,0.041,0.001,67.217,38.000,0.000,-0.593
'[07:23:54.024 15/12/1995]',0.012,0.040,0.006,63.841,37.100,0.000,-0.592
'[07:23:54.026 15/12/1995]',0.012,0.039,0.012,63.841,37.100,0.000,-0.592
'[07:23:54.028 15/12/1995]',0.012,0.037,0.006,63.841,37.100,0.000,-0.592
'[07:23:54.030 15/12/1995]',0.012,0.035,0.006,63.841,37.100,0.000,-0.592
'[07:23:54.032 15/12/1995]',0.012,0.034,0.001,60.390,36.400,0.000,-0.592
'[07:23:54.034 15/12/1995]',0.012,0.034,0.001,60.390,36.400,0.000,-0.592
'[07:23:54.036 15/12/1995]',0.011,0.034,-0.005,60.390,36.400,0.000,-0.592
'[07:23:54.038 15/12/1995]',0.011,0.034,-0.005,60.390,36.400,0.000,-0.592
'[07:23:54.040 15/12/1995]',0.010,0.035,0.001,56.939,36.000,0.000,-0.592
'[07:23:54.042 15/12/1995]',0.009,0.037,0.001,56.939,36.000,0.000,-0.592
'[07:23:54.044 15/12/1995]',0.008,0.040,0.001,56.939,36.000,0.000,-0.592
'[07:23:54.046 15/12/1995]',0.007,0.042,0.001,56.939,36.000,0.000,-0.592
'[07:23:54.048 15/12/1995]',0.007,0.043,0.001,53.788,35.750,0.000,-0.592
'[07:23:54.050 15/12/1995]',0.007,0.044,-0.005,53.788,35.750,0.000,-0.592
'[07:23:54.052 15/12/1995]',0.008,0.044,-0.005,53.788,35.750,0.000,-0.592
'[07:23:54.054 15/12/1995]',0.008,0.044,0.001,53.788,35.750,0.000,-0.592
'[07:23:54.056 15/12/1995]',0.008,0.043,0.001,51.163,35.700,0.000,-0.593
'[07:23:54.058 15/12/1995]',0.008,0.042,0.001,51.163,35.700,0.000,-0.593
'[07:23:54.060 15/12/1995]',0.008,0.041,0.006,51.163,35.700,0.000,-0.593
'[07:23:54.062 15/12/1995]',0.007,0.040,0.001,51.163,35.700,0.000,-0.593
'[07:23:54.064 15/12/1995]',0.006,0.040,-0.005,49.137,35.900,0.000,-0.594
'[07:23:54.066 15/12/1995]',0.005,0.039,-0.005,49.137,35.900,0.000,-0.594
'[07:23:54.068 15/12/1995]',0.004,0.037,-0.011,49.137,35.900,0.000,-0.594
'[07:23:54.070 15/12/1995]',0.004,0.036,-0.011,49.137,35.900,0.000,-0.594
'[07:23:54.072 15/12/1995]',0.004,0.036,-0.005,47.787,36.100,0.000,-0.595
'[07:23:54.074 15/12/1995]',0.004,0.036,0.001,47.787,36.100,0.000,-0.595
'[07:23:54.076 15/12/1995]',0.004,0.035,0.006,47.787,36.100,0.000,-0.595
'[07:23:54.078 15/12/1995]',0.005,0.035,0.006,47.787,36.100,0.000,-0.595
'[07:23:54.080 15/12/1995]',0.006,0.034,0.006,47.037,36.500,0.000,-0.595
'[07:23:54.082 15/12/1995]',0.006,0.034,0.006,47.037,36.500,0.000,-0.595
'[07:23:54.084 15/12/1995]',0.007,0.032,0.001,47.037,36.500,0.000,-0.595
'[07:23:54.086 15/12/1995]',0.008,0.031,-0.005,47.037,36.500,0.000,-0.595
'[07:23:54.088 15/12/1995]',0.009,0.030,0.001,46.587,36.950,0.000,-0.595
'[07:23:54.090 15/12/1995]',0.009,0.029,0.001,46.587,36.950,0.000,-0.595
'[07:23:54.092 15/12/1995]',0.009,0.027,0.006,46.587,36.950,0.000,-0.595
'[07:23:54.094 15/12/1995]',0.009,0.026,0.006,46.587,36.950,0.000,-0.595
'[07:23:54.096 15/12/1995]',0.008,0.026,0.001,46.437,37.350,0.000,-0.595
'[07:23:54.098 15/12/1995]',0.007,0.025,-0.005,46.437,37.350,0.000,-0.595
'[07:23:54.100 15/12/1995]',0.006,0.025,-0.011,46.437,37.350,0.000,-0.595
'[07:23:54.102 15/12/1995]',0.005,0.025,-0.011,46.437,37.350,0.000,-0.595
'[07:23:54.104 15/12/1995]',0.003,0.026,-0.011,46.437,37.750,0.000,-0.595
'[07:23:54.106 15/12/1995]',0.002,0.027,-0.011,46.437,37.750,0.000,-0.595
'[07:23:54.108 15/12/1995]',0.001,0.027,-0.005,46.437,37.750,0.000,-0.595
'[07:23:54.110 15/12/1995]',-0.001,0.027,-0.005,46.437,37.750,0.000,-0.595
'[07:23:54.112 15/12/1995]',-0.001,0.027,-0.005,46.662,38.100,0.000,-0.594
'[07:23:54.114 15/12/1995]',-0.001,0.027,-0.005,46.662,38.100,0.000,-0.594
'[07:23:54.116 15/12/1995]',-0.000,0.027,-0.011,46.662,38.100,0.000,-0.594
'[07:23:54.118 15/12/1995]',0.000,0.027,-0.011,46.662,38.100,0.000,-0.594
'[07:23:54.120 15/12/1995]',0.000,0.026,-0.011,46.887,38.400,0.000,-0.594
'[07:23:54.122 15/12/1995]',0.001,0.025,-0.011,46.887,38.400,0.000,-0.594
'[07:23:54.124 15/12/1995]',0.001,0.025,-0.005,46.887,38.400,0.000,-0.594
'[07:23:54.126 15/12/1995]',0.002,0.024,0.001,46.887,38.400,0.000,-0.594
'[07:23:54.128 15/12/1995]',0.003,0.025,0.001,47.187,38.550,0.000,-0.593
'[07:23:54.130 15/12/1995]',0.003,0.025,0.001,47.187,38.550,0.000,-0.593
'[07:23:54.132 15/12/1995]',0.004,0.027,-0.005,47.187,38.550,0.000,-0.593
'[07:23:54.134 15/12/1995]',0.004,0.028,-0.005,47.187,38.550,0.000,-0.593
'[07:23:54.136 15/12/1995]',0.004,0.029,-0.023,47.562,38.650,0.000,-0.590
'[07:23:54.138 15/12/1995]',0.004,0.031,-0.005,47.562,38.650,0.000,-0.590
'[07:23:54.140 15/12/1995]',0.004,0.030,-0.005,47.562,38.650,0.000,-0.590
'[07:23:54.142 15/12/1995]',0.004,0.030,0.001,47.562,38.650,0.000,-0.590
'[07:23:54.144 15/12/1995]',0.004,0.029,0.001,47.787,38.550,0.000,-0.587
'[07:23:54.146 15/12/1995]',0.004,0.027,0.001,47.787,38.550,0.000,-0.587
'[07:23:54.148 15/12/1995]',0.004,0.026,-0.005,47.787,38.550,0.000,-0.587
'[07:23:54.150 15/12/1995]',0.004,0.025,-0.005,47.787,38.550,0.000,-0.587
'[07:23:54.152 15/12/1995]',0.004,0.025,-0.011,48.087,38.450,0.000,-0.582
'[07:23:54.154 15/12/1995]',0.004,0.025,-0.011,48.087,38.450,0.000,-0.582
'[07:23:54.156 15/12/1995]',0.004,0.027,-0.005,48.087,38.450,0.000,-0.582
'[07:23:54.158 15/12/1995]',0.004,0.028,-0.005,48.087,38.450,0.000,-0.582
'[07:23:54.160 15/12/1995]',0.004,0.032,0.001,48.237,38.150,0.000,-0.578
'[07:23:54.162 15/12/1995]',0.004,0.036,0.001,48.237,38.150,0.000,-0.578
'[07:23:54.164 15/12/1995]',0.003,0.041,-0.005,48.237,38.150,0.000,-0.578
'[07:23:54.166 15/12/1995]',0.003,0.047,-0.011,48.237,38.150,0.000,-0.578
'[07:23:54.168 15/12/1995]',0.003,0.052,-0.011,48.237,37.750,0.000,-0.574
'[07:23:54.170 15/12/1995]',0.002,0.058,-0.011,48.237,37.750,0.000,-0.574
'[07:23:54.172 15/12/1995]',0.002,0.063,-0.005,48.237,37.750,0.000,-0.574
'[07:23:54.174 15/12/1995]',0.002,0.069,-0.005,48.237,37.750,0.000,-0.574
'[07:23:54.176 15/12/1995]',0.002,0.073,-0.005,48.087,37.200,0.000,-0.570
'[07:23:54.178 15/12/1995]',0.002,0.077,-0.005,48.087,37.200,0.000,-0.570
'[07:23:54.180 15/12/1995]',0.002,0.080,-0.005,48.087,37.200,0.000,-0.570
'[07:23:54.182 15/12/1995]',0.002,0.082,-0.005,48.087,37.200,0.000,-0.570
'[07:23:54.184 15/12/1995]',0.001,0.085,-0.005,47.787,36.500,0.000,-0.567
'[07:23:54.186 15/12/1995]',0.001,0.087,-0.011,47.787,36.500,0.000,-0.567
'[07:23:54.188 15/12/1995]',0.000,0.090,-0.011,47.787,36.500,0.000,-0.567
'[07:23:54.190 15/12/1995]',-0.001,0.093,-0.011,47.787,36.500,0.000,-0.567
'[07:23:54.192 15/12/1995]',-0.003,0.096,-0.011,47.562,35.800,0.000,-0.564
'[07:23:54.194 15/12/1995]',-0.006,0.099,-0.023,47.562,35.800,0.000,-0.564
'[07:23:54.196 15/12/1995]',-0.009,0.103,-0.023,47.562,35.800,0.000,-0.564
'[07:23:54.198 15/12/1995]',-0.012,0.106,-0.028,47.562,35.800,0.000,-0.564
'[07:23:54.200 15/12/1995]',-0.015,0.107,-0.028,47.187,35.000,0.000,-0.560
'[07:23:54.202 15/12/1995]',-0.018,0.108,-0.046,47.187,35.000,0.000,-0.560
'[07:23:54.204 15/12/1995]',-0.020,0.107,-0.046,47.187,35.000,0.000,-0.560
'[07:23:54.206 15/12/1995]',-0.022,0.105,-0.028,47.187,35.000,0.000,-0.560
'[07:23:54.208 15/12/1995]',-0.023,0.102,-0.028,46.737,34.050,0.000,-0.557
'[07:23:54.210 15/12/1995]',-0.025,0.099,-0.023,46.737,34.050,0.000,-0.557
'[07:23:54.212 15/12/1995]',-0.025,0.096,-0.028,46.737,34.050,0.000,-0.557
'[07:23:54.214 15/12/1995]',-0.026,0.094,-0.028,46.737,34.050,0.000,-0.557
'[07:23:54.216 15/12/1995]',-0.026,0.093,-0.034,46.212,33.200,0.000,-0.553
'[07:23:54.218 15/12/1995]',-0.027,0.092,-0.052,46.212,33.200,0.000,-0.553
'[07:23:54.220 15/12/1995]',-0.028,0.092,-0.046,46.212,33.200,0.000,-0.553
'[07:23:54.222 15/12/1995]',-0.029,0.092,-0.046,46.212,33.200,0.000,-0.553
'[07:23:54.224 15/12/1995]',-0.030,0.092,-0.034,45.686,32.400,0.000,-0.548
