'Time and date','II','MCL1','V','ABP','PAP'
'hh:mm:ss.mmm dd/mm/yyyy','mV','mV','mV','mmHg','mmHg'
'[09:38:50.000 20/12/1995]',0.002,-0.061,-0.054,72.796,30.750
'[09:38:50.002 20/12/1995]',-0.039,-0.061,-0.064,72.796,30.750
'[09:38:50.004 20/12/1995]',-0.039,-0.061,-0.045,72.796,30.750
'[09:38:50.006 20/12/1995]',-0.019,-0.061,-0.027,72.796,30.750
'[09:38:50.008 20/12/1995]',-0.019,-0.074,-0.045,71.232,30.225
'[09:38:50.010 20/12/1995]',0.002,-0.086,-0.054,71.232,30.225
'[09:38:50.012 20/12/1995]',0.042,-0.086,-0.064,71.232,30.225
'[09:38:50.014 20/12/1995]',0.042,-0.049,-0.045,71.232,30.225
'[09:38:50.016 20/12/1995]',0.002,-0.024,-0.054,69.716,30.125
'[09:38:50.018 20/12/1995]',-0.142,0.013,-0.054,69.716,30.125
'[09:38:50.020 20/12/1995]',-0.142,0.026,-0.045,69.716,30.125
'[09:38:50.022 20/12/1995]',-0.080,0.038,-0.008,69.716,30.125
'[09:38:50.024 20/12/1995]',-0.080,0.051,0.001,68.246,30.525
'[09:38:50.026 20/12/1995]',-0.142,0.051,-0.018,68.246,30.525
'[09:38:50.028 20/12/1995]',-0.203,0.051,-0.036,68.246,30.525
'[09:38:50.030 20/12/1995]',-0.142,0.051,-0.036,68.246,30.525
'[09:38:50.032 20/12/1995]',-0.121,0.038,-0.036,66.919,30.950
'[09:38:50.034 20/12/1995]',-0.121,0.038,-0.036,66.919,30.950
'[09:38:50.036 20/12/1995]',-0.162,0.051,-0.036,66.919,30.950
'[09:38:50.038 20/12/1995]',-0.101,0.051,-0.027,66.919,30.950
'[09:38:50.040 20/12/1995]',0.002,0.026,-0.018,65.782,30.650
'[09:38:50.042 20/12/1995]',0.144,-0.024,-0.008,65.782,30.650
'[09:38:50.044 20/12/1995]',0.390,-0.074,0.001,65.782,30.650
'[09:38:50.046 20/12/1995]',0.492,-0.111,0.001,65.782,30.650
'[09:38:50.048 20/12/1995]',0.288,0.001,0.001,65.166,29.650
'[09:38:50.050 20/12/1995]',-0.039,0.138,0.001,65.166,29.650
'[09:38:50.052 20/12/1995]',-0.325,0.213,-0.018,65.166,29.650
'[09:38:50.054 20/12/1995]',-0.428,0.250,-0.018,65.166,29.650
'[09:38:50.056 20/12/1995]',-0.428,0.213,-0.018,65.118,29.125
'[09:38:50.058 20/12/1995]',-0.387,0.188,-0.018,65.118,29.125
'[09:38:50.060 20/12/1995]',-0.285,0.126,-0.018,65.118,29.125
'[09:38:50.062 20/12/1995]',-0.203,0.076,-0.008,65.118,29.125
'[09:38:50.064 20/12/1995]',-0.080,0.013,-0.008,65.735,30.225
'[09:38:50.066 20/12/1995]',-0.039,-0.024,-0.027,65.735,30.225
'[09:38:50.068 20/12/1995]',-0.039,-0.061,-0.073,65.735,30.225
'[09:38:50.070 20/12/1995]',-0.060,-0.061,-0.073,65.735,30.225
'[09:38:50.072 20/12/1995]',-0.039,-0.049,-0.045,67.014,33.275
'[09:38:50.074 20/12/1995]',0.062,-0.099,-0.036,67.014,33.275
'[09:38:50.076 20/12/1995]',0.144,-0.136,-0.045,67.014,33.275
'[09:38:50.078 20/12/1995]',0.103,-0.124,-0.064,67.014,33.275
'[09:38:50.080 20/12/1995]',0.002,-0.099,-0.064,68.768,37.200
'[09:38:50.082 20/12/1995]',-0.019,-0.074,-0.073,68.768,37.200
'[09:38:50.084 20/12/1995]',-0.039,-0.049,-0.064,68.768,37.200
'[09:38:50.086 20/12/1995]',-0.039,-0.036,-0.064,68.768,37.200
'[09:38:50.088 20/12/1995]',-0.060,0.001,-0.045,70.900,40.700
'[09:38:50.090 20/12/1995]',-0.060,0.001,-0.036,70.900,40.700
'[09:38:50.092 20/12/1995]',-0.121,0.026,-0.045,70.900,40.700
'[09:38:50.094 20/12/1995]',-0.162,0.051,-0.036,70.900,40.700
'[09:38:50.096 20/12/1995]',-0.121,0.063,-0.036,73.270,42.825
'[09:38:50.098 20/12/1995]',0.042,0.038,0.001,73.270,42.825
'[09:38:50.100 20/12/1995]',0.267,-0.011,0.010,73.270,42.825
'[09:38:50.102 20/12/1995]',0.288,-0.049,0.001,73.270,42.825
'[09:38:50.104 20/12/1995]',0.144,-0.049,-0.036,75.782,44.000
'[09:38:50.106 20/12/1995]',0.002,-0.011,-0.054,75.782,44.000
'[09:38:50.108 20/12/1995]',0.002,-0.036,-0.064,75.782,44.000
'[09:38:50.110 20/12/1995]',0.144,-0.074,-0.036,75.782,44.000
'[09:38:50.112 20/12/1995]',0.206,-0.099,-0.036,78.531,44.875
'[09:38:50.114 20/12/1995]',0.124,-0.111,-0.082,78.531,44.875
'[09:38:50.116 20/12/1995]',-0.019,-0.136,-0.137,78.531,44.875
'[09:38:50.118 20/12/1995]',-0.142,-0.124,-0.155,78.531,44.875
'[09:38:50.120 20/12/1995]',-0.203,-0.049,-0.100,81.280,45.000
'[09:38:50.122 20/12/1995]',-0.203,0.001,-0.073,81.280,45.000
'[09:38:50.124 20/12/1995]',-0.162,0.013,-0.045,81.280,45.000
'[09:38:50.126 20/12/1995]',-0.080,0.001,-0.036,81.280,45.000
'[09:38:50.128 20/12/1995]',0.021,-0.049,-0.027,84.218,45.000
'[09:38:50.130 20/12/1995]',0.042,-0.086,-0.036,84.218,45.000
'[09:38:50.132 20/12/1995]',0.002,-0.111,-0.082,84.218,45.000
'[09:38:50.134 20/12/1995]',-0.039,-0.161,-0.119,84.218,45.000
'[09:38:50.136 20/12/1995]',-0.060,-0.161,-0.119,87.251,45.000
'[09:38:50.138 20/12/1995]',-0.060,-0.111,-0.100,87.251,45.000
'[09:38:50.140 20/12/1995]',-0.060,-0.061,-0.082,87.251,45.000
'[09:38:50.142 20/12/1995]',-0.039,-0.049,-0.064,87.251,45.000
'[09:38:50.144 20/12/1995]',0.002,-0.036,-0.045,90.332,45.000
'[09:38:50.146 20/12/1995]',0.021,-0.036,-0.036,90.332,45.000
'[09:38:50.148 20/12/1995]',0.103,-0.074,-0.045,90.332,45.000
'[09:38:50.150 20/12/1995]',0.165,-0.111,-0.036,90.332,45.000
'[09:38:50.152 20/12/1995]',0.226,-0.149,-0.054,93.507,45.000
'[09:38:50.154 20/12/1995]',0.206,-0.186,-0.073,93.507,45.000
'[09:38:50.156 20/12/1995]',0.206,-0.198,-0.082,93.507,45.000
'[09:38:50.158 20/12/1995]',0.144,-0.186,-0.100,93.507,45.000
'[09:38:50.160 20/12/1995]',0.124,-0.186,-0.091,96.635,44.350
'[09:38:50.162 20/12/1995]',0.124,-0.186,-0.091,96.635,44.350
'[09:38:50.164 20/12/1995]',0.042,-0.161,-0.091,96.635,44.350
'[09:38:50.166 20/12/1995]',-0.060,-0.136,-0.091,96.635,44.350
'[09:38:50.168 20/12/1995]',-0.080,-0.124,-0.091,99.573,44.050
'[09:38:50.170 20/12/1995]',-0.039,-0.111,-0.082,99.573,44.050
'[09:38:50.172 20/12/1995]',-0.019,-0.136,-0.091,99.573,44.050
'[09:38:50.174 20/12/1995]',-0.039,-0.161,-0.109,99.573,44.050
'[09:38:50.176 20/12/1995]',0.002,-0.211,-0.137,102.133,43.825
'[09:38:50.178 20/12/1995]',0.083,-0.273,-0.155,102.133,43.825
'[09:38:50.180 20/12/1995]',0.103,-0.286,-0.155,102.133,43.825
'[09:38:50.182 20/12/1995]',0.002,-0.223,-0.146,102.133,43.825
'[09:38:50.184 20/12/1995]',-0.121,-0.149,-0.119,104.265,43.350
'[09:38:50.186 20/12/1995]',-0.142,-0.124,-0.100,104.265,43.350
'[09:38:50.188 20/12/1995]',-0.101,-0.124,-0.082,104.265,43.350
'[09:38:50.190 20/12/1995]',-0.060,-0.099,-0.073,104.265,43.350
'[09:38:50.192 20/12/1995]',-0.080,-0.061,-0.054,106.019,42.750
'[09:38:50.194 20/12/1995]',-0.162,-0.036,-0.064,106.019,42.750
'[09:38:50.196 20/12/1995]',-0.183,-0.036,-0.064,106.019,42.750
'[09:38:50.198 20/12/1995]',-0.142,-0.061,-0.064,106.019,42.750
'[09:38:50.200 20/12/1995]',-0.142,-0.099,-0.064,107.156,42.350
'[09:38:50.202 20/12/1995]',-0.101,-0.136,-0.082,107.156,42.350
'[09:38:50.204 20/12/1995]',-0.060,-0.198,-0.091,107.156,42.350
'[09:38:50.206 20/12/1995]',-0.019,-0.261,-0.109,107.156,42.350
'[09:38:50.208 20/12/1995]',-0.060,-0.261,-0.128,107.867,42.475
'[09:38:50.210 20/12/1995]',-0.142,-0.223,-0.137,107.867,42.475
'[09:38:50.212 20/12/1995]',-0.203,-0.186,-0.137,107.867,42.475
'[09:38:50.214 20/12/1995]',-0.244,-0.149,-0.109,107.867,42.475
'[09:38:50.216 20/12/1995]',-0.265,-0.074,-0.082,108.152,43.050
'[09:38:50.218 20/12/1995]',-0.265,0.001,-0.054,108.152,43.050
'[09:38:50.220 20/12/1995]',-0.224,0.038,-0.018,108.152,43.050
'[09:38:50.222 20/12/1995]',-0.142,0.038,0.001,108.152,43.050
'[09:38:50.224 20/12/1995]',0.103,-0.024,0.019,108.104,43.825
'[09:38:50.226 20/12/1995]',0.349,-0.149,0.019,108.104,43.825
'[09:38:50.228 20/12/1995]',0.328,-0.236,-0.027,108.104,43.825
'[09:38:50.230 20/12/1995]',0.062,-0.236,-0.091,108.104,43.825
'[09:38:50.232 20/12/1995]',-0.183,-0.211,-0.146,107.773,44.400
'[09:38:50.234 20/12/1995]',-0.305,-0.186,-0.146,107.773,44.400
'[09:38:50.236 20/12/1995]',-0.325,-0.161,-0.128,107.773,44.400
'[09:38:50.238 20/12/1995]',-0.285,-0.149,-0.119,107.773,44.400
'[09:38:50.240 20/12/1995]',-0.265,-0.136,-0.100,107.156,44.575
'[09:38:50.242 20/12/1995]',-0.224,-0.099,-0.082,107.156,44.575
'[09:38:50.244 20/12/1995]',-0.101,-0.086,-0.045,107.156,44.575
'[09:38:50.246 20/12/1995]',-0.019,-0.074,-0.018,107.156,44.575
'[09:38:50.248 20/12/1995]',-0.060,-0.036,-0.027,106.445,44.450
'[09:38:50.250 20/12/1995]',-0.121,0.001,-0.027,106.445,44.450
'[09:38:50.252 20/12/1995]',-0.142,0.026,-0.008,106.445,44.450
'[09:38:50.254 20/12/1995]',-0.101,0.051,0.001,106.445,44.450
'[09:38:50.256 20/12/1995]',-0.060,0.038,0.001,105.498,44.000
'[09:38:50.258 20/12/1995]',-0.039,0.013,0.001,105.498,44.000
'[09:38:50.260 20/12/1995]',-0.101,0.026,-0.018,105.498,44.000
'[09:38:50.262 20/12/1995]',-0.203,0.001,-0.045,105.498,44.000
'[09:38:50.264 20/12/1995]',-0.305,0.013,-0.073,104.455,43.400
'[09:38:50.266 20/12/1995]',-0.387,0.026,-0.064,104.455,43.400
'[09:38:50.268 20/12/1995]',-0.387,0.038,-0.036,104.455,43.400
'[09:38:50.270 20/12/1995]',-0.305,0.026,-0.027,104.455,43.400
'[09:38:50.272 20/12/1995]',-0.265,0.001,-0.018,103.270,42.525
'[09:38:50.274 20/12/1995]',-0.183,0.001,-0.018,103.270,42.525
'[09:38:50.276 20/12/1995]',0.002,-0.036,-0.008,103.270,42.525
'[09:38:50.278 20/12/1995]',0.165,-0.061,0.001,103.270,42.525
'[09:38:50.280 20/12/1995]',0.185,-0.024,0.010,101.991,41.525
'[09:38:50.282 20/12/1995]',0.021,0.051,0.001,101.991,41.525
'[09:38:50.284 20/12/1995]',-0.121,0.101,-0.008,101.991,41.525
'[09:38:50.286 20/12/1995]',-0.244,0.163,-0.018,101.991,41.525
'[09:38:50.288 20/12/1995]',-0.203,0.176,0.001,100.664,40.350
'[09:38:50.290 20/12/1995]',-0.121,0.163,0.028,100.664,40.350
'[09:38:50.292 20/12/1995]',-0.060,0.138,0.037,100.664,40.350
'[09:38:50.294 20/12/1995]',-0.080,0.138,0.037,100.664,40.350
'[09:38:50.296 20/12/1995]',-0.080,0.101,0.019,99.289,39.250
'[09:38:50.298 20/12/1995]',-0.101,0.076,0.010,99.289,39.250
'[09:38:50.300 20/12/1995]',-0.203,0.051,0.001,99.289,39.250
'[09:38:50.302 20/12/1995]',-0.305,0.026,-0.045,99.289,39.250
'[09:38:50.304 20/12/1995]',-0.346,-0.024,-0.082,97.915,38.250
'[09:38:50.306 20/12/1995]',-0.224,-0.074,-0.073,97.915,38.250
'[09:38:50.308 20/12/1995]',-0.039,-0.099,-0.036,97.915,38.250
'[09:38:50.310 20/12/1995]',0.062,-0.136,-0.027,97.915,38.250
'[09:38:50.312 20/12/1995]',0.062,-0.161,-0.045,96.493,37.375
'[09:38:50.314 20/12/1995]',0.103,-0.161,-0.054,96.493,37.375
'[09:38:50.316 20/12/1995]',0.103,-0.111,-0.036,96.493,37.375
'[09:38:50.318 20/12/1995]',0.042,-0.061,-0.027,96.493,37.375
'[09:38:50.320 20/12/1995]',-0.080,0.001,-0.027,95.166,36.500
'[09:38:50.322 20/12/1995]',-0.183,0.051,-0.018,95.166,36.500
'[09:38:50.324 20/12/1995]',-0.224,0.076,-0.018,95.166,36.500
'[09:38:50.326 20/12/1995]',-0.285,0.076,-0.018,95.166,36.500
'[09:38:50.328 20/12/1995]',-0.325,0.088,-0.008,93.886,35.575
'[09:38:50.330 20/12/1995]',-0.305,0.063,-0.018,93.886,35.575
'[09:38:50.332 20/12/1995]',-0.224,0.051,0.001,93.886,35.575
'[09:38:50.334 20/12/1995]',-0.121,0.026,0.001,93.886,35.575
'[09:38:50.336 20/12/1995]',-0.060,0.001,0.001,92.796,34.800
'[09:38:50.338 20/12/1995]',-0.019,0.013,0.001,92.796,34.800
'[09:38:50.340 20/12/1995]',0.002,0.026,0.001,92.796,34.800
'[09:38:50.342 20/12/1995]',0.021,0.063,0.028,92.796,34.800
'[09:38:50.344 20/12/1995]',-0.019,0.138,0.046,91.896,34.625
'[09:38:50.346 20/12/1995]',-0.142,0.163,0.019,91.896,34.625
'[09:38:50.348 20/12/1995]',-0.224,0.163,0.001,91.896,34.625
'[09:38:50.350 20/12/1995]',-0.285,0.101,-0.008,91.896,34.625
'[09:38:50.352 20/12/1995]',-0.203,0.051,-0.018,91.232,34.975
'[09:38:50.354 20/12/1995]',-0.080,0.001,0.001,91.232,34.975
'[09:38:50.356 20/12/1995]',0.002,-0.024,0.001,91.232,34.975
'[09:38:50.358 20/12/1995]',-0.019,0.001,0.001,91.232,34.975
'[09:38:50.360 20/12/1995]',-0.060,0.001,0.001,90.806,35.625
'[09:38:50.362 20/12/1995]',0.062,-0.011,0.001,90.806,35.625
'[09:38:50.364 20/12/1995]',0.124,0.013,0.019,90.806,35.625
'[09:38:50.366 20/12/1995]',0.021,0.088,0.019,90.806,35.625
'[09:38:50.368 20/12/1995]',-0.183,0.188,0.001,90.616,36.025
'[09:38:50.370 20/12/1995]',-0.366,0.213,0.001,90.616,36.025
'[09:38:50.372 20/12/1995]',-0.346,0.163,0.001,90.616,36.025
'[09:38:50.374 20/12/1995]',-0.080,0.038,0.001,90.616,36.025
'[09:38:50.376 20/12/1995]',0.206,-0.074,0.019,90.711,36.100
'[09:38:50.378 20/12/1995]',0.308,-0.136,0.019,90.711,36.100
'[09:38:50.380 20/12/1995]',0.185,-0.136,0.001,90.711,36.100
'[09:38:50.382 20/12/1995]',-0.019,-0.086,-0.064,90.711,36.100
'[09:38:50.384 20/12/1995]',-0.203,-0.024,-0.073,91.043,36.025
'[09:38:50.386 20/12/1995]',-0.346,0.051,-0.054,91.043,36.025
'[09:38:50.388 20/12/1995]',-0.428,0.113,-0.018,91.043,36.025
'[09:38:50.390 20/12/1995]',-0.469,0.138,-0.008,91.043,36.025
'[09:38:50.392 20/12/1995]',-0.448,0.138,0.001,91.611,36.025
'[09:38:50.394 20/12/1995]',-0.407,0.138,0.001,91.611,36.025
'[09:38:50.396 20/12/1995]',-0.285,0.101,0.001,91.611,36.025
'[09:38:50.398 20/12/1995]',-0.162,0.063,0.010,91.611,36.025
'[09:38:50.400 20/12/1995]',0.002,0.013,0.028,92.417,36.200
'[09:38:50.402 20/12/1995]',0.124,-0.024,0.037,92.417,36.200
'[09:38:50.404 20/12/1995]',0.124,-0.049,0.010,92.417,36.200
'[09:38:50.406 20/12/1995]',0.002,-0.061,-0.027,92.417,36.200
'[09:38:50.408 20/12/1995]',-0.162,-0.024,-0.064,93.318,36.325
'[09:38:50.410 20/12/1995]',-0.265,-0.011,-0.064,93.318,36.325
'[09:38:50.412 20/12/1995]',-0.203,0.001,-0.036,93.318,36.325
'[09:38:50.414 20/12/1995]',-0.101,0.001,0.001,93.318,36.325
'[09:38:50.416 20/12/1995]',-0.039,0.001,0.001,94.360,36.200
'[09:38:50.418 20/12/1995]',-0.101,0.013,0.001,94.360,36.200
'[09:38:50.420 20/12/1995]',-0.203,0.026,-0.018,94.360,36.200
'[09:38:50.422 20/12/1995]',-0.265,0.076,-0.008,94.360,36.200
'[09:38:50.424 20/12/1995]',-0.285,0.101,0.001,95.450,35.975
'[09:38:50.426 20/12/1995]',-0.285,0.101,0.001,95.450,35.975
'[09:38:50.428 20/12/1995]',-0.285,0.101,0.001,95.450,35.975
'[09:38:50.430 20/12/1995]',-0.285,0.101,0.001,95.450,35.975
'[09:38:50.432 20/12/1995]',-0.285,0.113,0.001,96.540,35.750
'[09:38:50.434 20/12/1995]',-0.244,0.113,0.010,96.540,35.750
'[09:38:50.436 20/12/1995]',-0.080,0.076,0.037,96.540,35.750
'[09:38:50.438 20/12/1995]',0.144,0.026,0.056,96.540,35.750
'[09:38:50.440 20/12/1995]',0.349,-0.024,0.074,97.678,35.500
'[09:38:50.442 20/12/1995]',0.288,-0.011,0.046,97.678,35.500
'[09:38:50.444 20/12/1995]',0.021,0.038,0.010,97.678,35.500
'[09:38:50.446 20/12/1995]',-0.224,0.101,0.001,97.678,35.500
'[09:38:50.448 20/12/1995]',-0.407,0.163,0.001,98.720,35.325
'[09:38:50.450 20/12/1995]',-0.489,0.225,0.001,98.720,35.325
'[09:38:50.452 20/12/1995]',-0.428,0.238,0.019,98.720,35.325
'[09:38:50.454 20/12/1995]',-0.346,0.238,0.037,98.720,35.325
'[09:38:50.456 20/12/1995]',-0.285,0.200,0.046,99.763,35.275
'[09:38:50.458 20/12/1995]',-0.203,0.138,0.037,99.763,35.275
'[09:38:50.460 20/12/1995]',-0.142,0.101,0.019,99.763,35.275
'[09:38:50.462 20/12/1995]',-0.162,0.051,0.001,99.763,35.275
'[09:38:50.464 20/12/1995]',-0.162,0.001,-0.018,100.853,35.400
'[09:38:50.466 20/12/1995]',-0.142,-0.036,-0.036,100.853,35.400
'[09:38:50.468 20/12/1995]',-0.080,-0.061,-0.027,100.853,35.400
'[09:38:50.470 20/12/1995]',-0.101,-0.074,-0.027,100.853,35.400
'[09:38:50.472 20/12/1995]',-0.142,-0.074,-0.045,101.943,35.625
'[09:38:50.474 20/12/1995]',-0.203,-0.061,-0.054,101.943,35.625
'[09:38:50.476 20/12/1995]',-0.224,-0.049,-0.064,101.943,35.625
'[09:38:50.478 20/12/1995]',-0.224,-0.011,-0.036,101.943,35.625
'[09:38:50.480 20/12/1995]',-0.142,0.001,0.001,103.081,35.750
'[09:38:50.482 20/12/1995]',-0.080,0.001,0.001,103.081,35.750
'[09:38:50.484 20/12/1995]',-0.060,0.001,0.010,103.081,35.750
'[09:38:50.486 20/12/1995]',-0.080,0.013,0.001,103.081,35.750
'[09:38:50.488 20/12/1995]',-0.080,0.038,0.001,104.123,35.750
'[09:38:50.490 20/12/1995]',-0.142,0.051,-0.008,104.123,35.750
'[09:38:50.492 20/12/1995]',-0.183,0.051,-0.018,104.123,35.750
'[09:38:50.494 20/12/1995]',-0.162,0.051,-0.018,104.123,35.750
'[09:38:50.496 20/12/1995]',-0.142,0.038,-0.018,105.071,35.500
'[09:38:50.498 20/12/1995]',-0.142,0.051,-0.018,105.071,35.500
'[09:38:50.500 20/12/1995]',-0.080,0.013,-0.008,105.071,35.500
'[09:38:50.502 20/12/1995]',0.062,-0.024,0.001,105.071,35.500
'[09:38:50.504 20/12/1995]',0.124,-0.049,0.001,105.877,35.050
'[09:38:50.506 20/12/1995]',0.062,-0.049,-0.008,105.877,35.050
'[09:38:50.508 20/12/1995]',-0.060,-0.024,-0.036,105.877,35.050
'[09:38:50.510 20/12/1995]',-0.121,-0.011,-0.027,105.877,35.050
'[09:38:50.512 20/12/1995]',-0.121,0.038,0.001,106.540,34.450
'[09:38:50.514 20/12/1995]',-0.019,0.051,0.001,106.540,34.450
'[09:38:50.516 20/12/1995]',0.002,0.076,0.001,106.540,34.450
'[09:38:50.518 20/12/1995]',-0.060,0.113,0.001,106.540,34.450
'[09:38:50.520 20/12/1995]',-0.162,0.163,0.001,107.156,33.925
'[09:38:50.522 20/12/1995]',-0.285,0.188,0.001,107.156,33.925
'[09:38:50.524 20/12/1995]',-0.387,0.188,0.001,107.156,33.925
'[09:38:50.526 20/12/1995]',-0.387,0.138,-0.008,107.156,33.925
'[09:38:50.528 20/12/1995]',-0.387,0.101,-0.018,107.630,33.350
'[09:38:50.530 20/12/1995]',-0.346,0.088,-0.018,107.630,33.350
'[09:38:50.532 20/12/1995]',-0.325,0.088,-0.008,107.630,33.350
'[09:38:50.534 20/12/1995]',-0.305,0.101,0.001,107.630,33.350
'[09:38:50.536 20/12/1995]',-0.224,0.088,0.001,107.962,32.875
'[09:38:50.538 20/12/1995]',-0.101,0.038,0.010,107.962,32.875
'[09:38:50.540 20/12/1995]',0.021,-0.024,0.019,107.962,32.875
'[09:38:50.542 20/12/1995]',0.062,-0.049,0.001,107.962,32.875
'[09:38:50.544 20/12/1995]',0.002,-0.061,-0.018,108.104,32.400
'[09:38:50.546 20/12/1995]',-0.142,-0.049,-0.045,108.104,32.400
'[09:38:50.548 20/12/1995]',-0.224,-0.024,-0.054,108.104,32.400
'[09:38:50.550 20/12/1995]',-0.265,0.001,-0.045,108.104,32.400
'[09:38:50.552 20/12/1995]',-0.244,0.001,-0.027,108.009,32.175
'[09:38:50.554 20/12/1995]',-0.244,0.013,-0.018,108.009,32.175
'[09:38:50.556 20/12/1995]',-0.224,0.026,-0.008,108.009,32.175
'[09:38:50.558 20/12/1995]',-0.224,0.026,-0.008,108.009,32.175
'[09:38:50.560 20/12/1995]',-0.203,0.026,-0.008,107.678,32.000
'[09:38:50.562 20/12/1995]',-0.203,0.038,0.001,107.678,32.000
'[09:38:50.564 20/12/1995]',-0.183,0.038,0.001,107.678,32.000
'[09:38:50.566 20/12/1995]',-0.183,0.038,0.001,107.678,32.000
'[09:38:50.568 20/12/1995]',-0.183,0.051,0.001,107.062,32.000
'[09:38:50.570 20/12/1995]',-0.183,0.038,0.001,107.062,32.000
'[09:38:50.572 20/12/1995]',-0.183,0.051,0.001,107.062,32.000
'[09:38:50.574 20/12/1995]',-0.183,0.051,0.001,107.062,32.000
'[09:38:50.576 20/12/1995]',-0.183,0.051,0.001,106.161,32.175
'[09:38:50.578 20/12/1995]',-0.183,0.051,0.001,106.161,32.175
'[09:38:50.580 20/12/1995]',-0.203,0.038,0.001,106.161,32.175
'[09:38:50.582 20/12/1995]',-0.183,0.051,0.001,106.161,32.175
'[09:38:50.584 20/12/1995]',-0.203,0.051,0.001,105.118,32.575
'[09:38:50.586 20/12/1995]',-0.203,0.051,0.010,105.118,32.575
'[09:38:50.588 20/12/1995]',-0.183,0.063,0.010,105.118,32.575
'[09:38:50.590 20/12/1995]',-0.162,0.051,0.028,105.118,32.575
'[09:38:50.592 20/12/1995]',-0.142,0.051,0.019,103.934,33.050
'[09:38:50.594 20/12/1995]',-0.162,0.063,0.019,103.934,33.050
'[09:38:50.596 20/12/1995]',-0.203,0.088,0.019,103.934,33.050
'[09:38:50.598 20/12/1995]',-0.183,0.101,0.028,103.934,33.050
'[09:38:50.600 20/12/1995]',-0.162,0.101,0.037,102.701,33.400
'[09:38:50.602 20/12/1995]',-0.142,0.101,0.028,102.701,33.400
'[09:38:50.604 20/12/1995]',-0.142,0.088,0.028,102.701,33.400
'[09:38:50.606 20/12/1995]',-0.121,0.076,0.028,102.701,33.400
'[09:38:50.608 20/12/1995]',-0.142,0.051,0.001,101.517,33.575
'[09:38:50.610 20/12/1995]',-0.183,0.051,-0.008,101.517,33.575
'[09:38:50.612 20/12/1995]',-0.244,0.026,-0.036,101.517,33.575
'[09:38:50.614 20/12/1995]',-0.265,0.026,-0.036,101.517,33.575
'[09:38:50.616 20/12/1995]',-0.285,0.038,-0.036,100.284,33.525
'[09:38:50.618 20/12/1995]',-0.285,0.051,-0.027,100.284,33.525
'[09:38:50.620 20/12/1995]',-0.285,0.063,-0.027,100.284,33.525
'[09:38:50.622 20/12/1995]',-0.265,0.076,-0.027,100.284,33.525
'[09:38:50.624 20/12/1995]',-0.244,0.076,-0.018,99.052,33.350
'[09:38:50.626 20/12/1995]',-0.224,0.051,-0.027,99.052,33.350
'[09:38:50.628 20/12/1995]',-0.224,0.001,-0.036,99.052,33.350
'[09:38:50.630 20/12/1995]',-0.224,-0.024,-0.064,99.052,33.350
'[09:38:50.632 20/12/1995]',-0.203,-0.061,-0.064,97.820,33.000
'[09:38:50.634 20/12/1995]',-0.162,-0.099,-0.064,97.820,33.000
'[09:38:50.636 20/12/1995]',-0.019,-0.136,-0.036,97.820,33.000
'[09:38:50.638 20/12/1995]',0.083,-0.136,-0.018,97.820,33.000
'[09:38:50.640 20/12/1995]',0.021,-0.099,-0.027,96.635,32.575
'[09:38:50.642 20/12/1995]',-0.121,-0.036,-0.036,96.635,32.575
'[09:38:50.644 20/12/1995]',-0.244,-0.024,-0.054,96.635,32.575
'[09:38:50.646 20/12/1995]',-0.285,-0.024,-0.064,96.635,32.575
'[09:38:50.648 20/12/1995]',-0.285,-0.011,-0.064,95.403,32.100
'[09:38:50.650 20/12/1995]',-0.285,-0.011,-0.054,95.403,32.100
'[09:38:50.652 20/12/1995]',-0.224,0.001,-0.045,95.403,32.100
'[09:38:50.654 20/12/1995]',-0.183,0.001,-0.018,95.403,32.100
'[09:38:50.656 20/12/1995]',-0.142,0.013,0.001,94.171,31.700
'[09:38:50.658 20/12/1995]',-0.080,0.013,0.001,94.171,31.700
'[09:38:50.660 20/12/1995]',-0.039,0.001,0.001,94.171,31.700
'[09:38:50.662 20/12/1995]',0.021,0.001,0.001,94.171,31.700
'[09:38:50.664 20/12/1995]',0.002,0.001,0.001,92.938,31.300
'[09:38:50.666 20/12/1995]',-0.101,0.026,0.001,92.938,31.300
'[09:38:50.668 20/12/1995]',-0.203,0.076,0.001,92.938,31.300
'[09:38:50.670 20/12/1995]',-0.265,0.088,-0.008,92.938,31.300
'[09:38:50.672 20/12/1995]',-0.325,0.101,-0.027,91.848,30.950
'[09:38:50.674 20/12/1995]',-0.346,0.101,-0.018,91.848,30.950
'[09:38:50.676 20/12/1995]',-0.325,0.101,-0.008,91.848,30.950
'[09:38:50.678 20/12/1995]',-0.325,0.101,0.001,91.848,30.950
'[09:38:50.680 20/12/1995]',-0.285,0.101,0.001,90.806,30.650
'[09:38:50.682 20/12/1995]',-0.265,0.101,0.001,90.806,30.650
'[09:38:50.684 20/12/1995]',-0.244,0.088,0.001,90.806,30.650
'[09:38:50.686 20/12/1995]',-0.224,0.088,0.010,90.806,30.650
'[09:38:50.688 20/12/1995]',-0.203,0.076,0.010,89.716,30.525
'[09:38:50.690 20/12/1995]',-0.203,0.076,0.001,89.716,30.525
'[09:38:50.692 20/12/1995]',-0.183,0.076,0.001,89.716,30.525
'[09:38:50.694 20/12/1995]',-0.183,0.076,0.001,89.716,30.525
'[09:38:50.696 20/12/1995]',-0.183,0.076,0.001,88.863,30.400
'[09:38:50.698 20/12/1995]',-0.183,0.088,0.001,88.863,30.400
'[09:38:50.700 20/12/1995]',-0.183,0.088,0.001,88.863,30.400
'[09:38:50.702 20/12/1995]',-0.183,0.076,0.001,88.863,30.400
'[09:38:50.704 20/12/1995]',-0.183,0.076,0.001,88.009,30.350
'[09:38:50.706 20/12/1995]',-0.183,0.076,0.001,88.009,30.350
'[09:38:50.708 20/12/1995]',-0.183,0.076,0.001,88.009,30.350
'[09:38:50.710 20/12/1995]',-0.183,0.101,0.010,88.009,30.350
'[09:38:50.712 20/12/1995]',-0.203,0.138,0.028,87.299,30.350
'[09:38:50.714 20/12/1995]',-0.224,0.163,0.037,87.299,30.350
'[09:38:50.716 20/12/1995]',-0.244,0.176,0.046,87.299,30.350
'[09:38:50.718 20/12/1995]',-0.285,0.163,0.046,87.299,30.350
'[09:38:50.720 20/12/1995]',-0.325,0.126,0.046,86.635,30.225
'[09:38:50.722 20/12/1995]',-0.346,0.076,0.037,86.635,30.225
'[09:38:50.724 20/12/1995]',-0.325,0.026,0.037,86.635,30.225
'[09:38:50.726 20/12/1995]',-0.305,0.001,0.019,86.635,30.225
'[09:38:50.728 20/12/1995]',-0.265,-0.024,0.001,86.066,30.050
'[09:38:50.730 20/12/1995]',-0.183,-0.074,-0.027,86.066,30.050
'[09:38:50.732 20/12/1995]',-0.060,-0.099,-0.054,86.066,30.050
'[09:38:50.734 20/12/1995]',0.042,-0.161,-0.082,86.066,30.050
'[09:38:50.736 20/12/1995]',0.165,-0.211,-0.119,85.545,29.875
'[09:38:50.738 20/12/1995]',0.247,-0.248,-0.164,85.545,29.875
'[09:38:50.740 20/12/1995]',0.349,-0.273,-0.192,85.545,29.875
'[09:38:50.742 20/12/1995]',0.431,-0.298,-0.247,85.545,29.875
'[09:38:50.744 20/12/1995]',0.513,-0.336,-0.293,85.071,29.700
'[09:38:50.746 20/12/1995]',0.594,-0.360,-0.338,85.071,29.700
'[09:38:50.748 20/12/1995]',0.696,-0.373,-0.384,85.071,29.700
'[09:38:50.750 20/12/1995]',0.737,-0.410,-0.421,85.071,29.700
'[09:38:50.752 20/12/1995]',0.758,-0.410,-0.439,84.550,29.700
'[09:38:50.754 20/12/1995]',0.676,-0.398,-0.430,84.550,29.700
'[09:38:50.756 20/12/1995]',0.554,-0.373,-0.412,84.550,29.700
'[09:38:50.758 20/12/1995]',0.431,-0.323,-0.375,84.550,29.700
'[09:38:50.760 20/12/1995]',0.328,-0.273,-0.348,84.171,29.875
'[09:38:50.762 20/12/1995]',0.185,-0.211,-0.293,84.171,29.875
'[09:38:50.764 20/12/1995]',0.042,-0.149,-0.238,84.171,29.875
'[09:38:50.766 20/12/1995]',-0.080,-0.074,-0.173,84.171,29.875
'[09:38:50.768 20/12/1995]',-0.162,0.001,-0.100,83.839,30.400
'[09:38:50.770 20/12/1995]',-0.224,0.051,-0.054,83.839,30.400
'[09:38:50.772 20/12/1995]',-0.285,0.088,-0.018,83.839,30.400
'[09:38:50.774 20/12/1995]',-0.325,0.113,0.001,83.839,30.400
'[09:38:50.776 20/12/1995]',-0.346,0.113,0.019,83.460,31.175
'[09:38:50.778 20/12/1995]',-0.366,0.126,0.037,83.460,31.175
'[09:38:50.780 20/12/1995]',-0.346,0.126,0.037,83.460,31.175
'[09:38:50.782 20/12/1995]',-0.346,0.138,0.046,83.460,31.175
'[09:38:50.784 20/12/1995]',-0.305,0.138,0.046,82.986,31.925
'[09:38:50.786 20/12/1995]',-0.285,0.138,0.046,82.986,31.925
'[09:38:50.788 20/12/1995]',-0.244,0.113,0.046,82.986,31.925
'[09:38:50.790 20/12/1995]',-0.224,0.101,0.037,82.986,31.925
'[09:38:50.792 20/12/1995]',-0.183,0.101,0.028,82.464,32.350
'[09:38:50.794 20/12/1995]',-0.162,0.101,0.019,82.464,32.350
'[09:38:50.796 20/12/1995]',-0.142,0.101,0.010,82.464,32.350
'[09:38:50.798 20/12/1995]',-0.142,0.101,0.010,82.464,32.350
'[09:38:50.800 20/12/1995]',-0.142,0.088,0.019,81.659,32.275
'[09:38:50.802 20/12/1995]',-0.142,0.101,0.019,81.659,32.275
'[09:38:50.804 20/12/1995]',-0.142,0.101,0.028,81.659,32.275
'[09:38:50.806 20/12/1995]',-0.142,0.101,0.028,81.659,32.275
'[09:38:50.808 20/12/1995]',-0.142,0.088,0.019,80.711,31.925
'[09:38:50.810 20/12/1995]',-0.142,0.076,0.010,80.711,31.925
'[09:38:50.812 20/12/1995]',-0.142,0.076,0.001,80.711,31.925
'[09:38:50.814 20/12/1995]',-0.142,0.076,0.010,80.711,31.925
'[09:38:50.816 20/12/1995]',-0.142,0.076,0.001,79.526,31.575
'[09:38:50.818 20/12/1995]',-0.142,0.076,0.001,79.526,31.575
'[09:38:50.820 20/12/1995]',-0.142,0.076,0.001,79.526,31.575
'[09:38:50.822 20/12/1995]',-0.142,0.076,0.010,79.526,31.575
'[09:38:50.824 20/12/1995]',-0.142,0.101,0.019,78.057,31.300
'[09:38:50.826 20/12/1995]',-0.142,0.138,0.037,78.057,31.300
'[09:38:50.828 20/12/1995]',-0.142,0.163,0.046,78.057,31.300
'[09:38:50.830 20/12/1995]',-0.142,0.188,0.046,78.057,31.300
'[09:38:50.832 20/12/1995]',-0.142,0.188,0.046,76.398,30.950
'[09:38:50.834 20/12/1995]',-0.142,0.176,0.046,76.398,30.950
'[09:38:50.836 20/12/1995]',-0.101,0.163,0.037,76.398,30.950
'[09:38:50.838 20/12/1995]',-0.101,0.138,0.028,76.398,30.950
'[09:38:50.840 20/12/1995]',-0.101,0.113,0.028,74.739,30.300
'[09:38:50.842 20/12/1995]',-0.101,0.126,0.028,74.739,30.300
'[09:38:50.844 20/12/1995]',-0.101,0.126,0.019,74.739,30.300
'[09:38:50.846 20/12/1995]',-0.121,0.126,0.010,74.739,30.300
'[09:38:50.848 20/12/1995]',-0.121,0.101,0.001,73.033,29.475
'[09:38:50.850 20/12/1995]',-0.101,0.076,0.001,73.033,29.475
'[09:38:50.852 20/12/1995]',-0.101,0.051,0.001,73.033,29.475
'[09:38:50.854 20/12/1995]',-0.080,0.026,0.001,73.033,29.475
'[09:38:50.856 20/12/1995]',-0.080,0.026,0.001,71.327,28.700
'[09:38:50.858 20/12/1995]',-0.060,0.001,0.001,71.327,28.700
'[09:38:50.860 20/12/1995]',-0.039,0.001,0.001,71.327,28.700
'[09:38:50.862 20/12/1995]',-0.019,0.001,-0.008,71.327,28.700
'[09:38:50.864 20/12/1995]',-0.019,0.001,-0.008,69.668,28.250
'[09:38:50.866 20/12/1995]',-0.039,0.013,-0.008,69.668,28.250
'[09:38:50.868 20/12/1995]',-0.039,0.026,-0.008,69.668,28.250
'[09:38:50.870 20/12/1995]',-0.060,0.026,0.001,69.668,28.250
'[09:38:50.872 20/12/1995]',-0.060,0.013,-0.008,68.199,28.300
'[09:38:50.874 20/12/1995]',-0.080,0.013,-0.008,68.199,28.300
'[09:38:50.876 20/12/1995]',-0.080,0.026,-0.008,68.199,28.300
'[09:38:50.878 20/12/1995]',-0.080,0.026,-0.008,68.199,28.300
'[09:38:50.880 20/12/1995]',-0.080,0.026,-0.008,66.777,28.825
'[09:38:50.882 20/12/1995]',-0.060,0.026,-0.008,66.777,28.825
'[09:38:50.884 20/12/1995]',-0.060,0.026,-0.018,66.777,28.825
'[09:38:50.886 20/12/1995]',-0.060,0.026,-0.008,66.777,28.825
'[09:38:50.888 20/12/1995]',-0.060,0.026,-0.008,65.640,29.250
'[09:38:50.890 20/12/1995]',-0.060,0.038,-0.008,65.640,29.250
'[09:38:50.892 20/12/1995]',-0.039,0.063,0.001,65.640,29.250
'[09:38:50.894 20/12/1995]',-0.039,0.063,0.001,65.640,29.250
'[09:38:50.896 20/12/1995]',-0.039,0.076,0.001,64.882,29.125
'[09:38:50.898 20/12/1995]',-0.019,0.076,0.001,64.882,29.125
'[09:38:50.900 20/12/1995]',-0.019,0.076,0.001,64.882,29.125
'[09:38:50.902 20/12/1995]',-0.019,0.063,0.001,64.882,29.125
'[09:38:50.904 20/12/1995]',0.002,0.076,0.001,64.739,28.950
'[09:38:50.906 20/12/1995]',-0.019,0.063,0.001,64.739,28.950
'[09:38:50.908 20/12/1995]',0.002,0.051,0.001,64.739,28.950
'[09:38:50.910 20/12/1995]',0.002,0.051,0.001,64.739,28.950
'[09:38:50.912 20/12/1995]',-0.019,0.051,0.001,65.118,29.825
'[09:38:50.914 20/12/1995]',0.002,0.063,0.001,65.118,29.825
'[09:38:50.916 20/12/1995]',0.002,0.088,0.001,65.118,29.825
'[09:38:50.918 20/12/1995]',0.002,0.101,0.010,65.118,29.825
'[09:38:50.920 20/12/1995]',0.002,0.151,0.019,66.114,32.275
'[09:38:50.922 20/12/1995]',-0.019,0.163,0.028,66.114,32.275
'[09:38:50.924 20/12/1995]',-0.019,0.188,0.037,66.114,32.275
'[09:38:50.926 20/12/1995]',-0.019,0.163,0.037,66.114,32.275
'[09:38:50.928 20/12/1995]',-0.019,0.113,0.019,67.630,35.800
'[09:38:50.930 20/12/1995]',0.002,0.051,0.001,67.630,35.800
'[09:38:50.932 20/12/1995]',0.002,0.001,-0.018,67.630,35.800
'[09:38:50.934 20/12/1995]',0.021,-0.049,-0.036,67.630,35.800
'[09:38:50.936 20/12/1995]',0.042,-0.074,-0.045,69.573,39.200
'[09:38:50.938 20/12/1995]',0.042,-0.074,-0.054,69.573,39.200
'[09:38:50.940 20/12/1995]',0.042,-0.074,-0.054,69.573,39.200
'[09:38:50.942 20/12/1995]',0.042,-0.049,-0.036,69.573,39.200
'[09:38:50.944 20/12/1995]',0.042,-0.011,-0.027,71.801,41.475
'[09:38:50.946 20/12/1995]',0.021,0.013,-0.008,71.801,41.475
'[09:38:50.948 20/12/1995]',0.042,0.038,0.001,71.801,41.475
'[09:38:50.950 20/12/1995]',0.021,0.038,0.001,71.801,41.475
'[09:38:50.952 20/12/1995]',0.042,0.051,0.001,74.171,42.475
'[09:38:50.954 20/12/1995]',0.042,0.026,0.001,74.171,42.475
'[09:38:50.956 20/12/1995]',0.042,0.001,-0.008,74.171,42.475
'[09:38:50.958 20/12/1995]',0.062,-0.024,-0.027,74.171,42.475
'[09:38:50.960 20/12/1995]',0.062,-0.049,-0.045,76.682,42.825
'[09:38:50.962 20/12/1995]',0.062,-0.061,-0.054,76.682,42.825
'[09:38:50.964 20/12/1995]',0.062,-0.074,-0.064,76.682,42.825
'[09:38:50.966 20/12/1995]',0.062,-0.074,-0.064,76.682,42.825
'[09:38:50.968 20/12/1995]',0.062,-0.086,-0.064,79.242,43.125
'[09:38:50.970 20/12/1995]',0.062,-0.086,-0.064,79.242,43.125
'[09:38:50.972 20/12/1995]',0.062,-0.074,-0.064,79.242,43.125
'[09:38:50.974 20/12/1995]',0.083,-0.074,-0.054,79.242,43.125
'[09:38:50.976 20/12/1995]',0.103,-0.061,-0.054,81.848,43.225
'[09:38:50.978 20/12/1995]',0.103,-0.061,-0.045,81.848,43.225
'[09:38:50.980 20/12/1995]',0.083,-0.049,-0.045,81.848,43.225
'[09:38:50.982 20/12/1995]',0.083,-0.061,-0.045,81.848,43.225
'[09:38:50.984 20/12/1995]',0.062,-0.061,-0.045,84.455,43.000
'[09:38:50.986 20/12/1995]',0.083,-0.074,-0.054,84.455,43.000
'[09:38:50.988 20/12/1995]',0.062,-0.074,-0.054,84.455,43.000
'[09:38:50.990 20/12/1995]',0.062,-0.074,-0.054,84.455,43.000
'[09:38:50.992 20/12/1995]',0.062,-0.074,-0.054,87.156,42.350
'[09:38:50.994 20/12/1995]',0.062,-0.074,-0.054,87.156,42.350
'[09:38:50.996 20/12/1995]',0.103,-0.074,-0.045,87.156,42.350
'[09:38:50.998 20/12/1995]',0.124,-0.074,-0.036,87.156,42.350
'[09:38:51.000 20/12/1995]',0.124,-0.074,-0.045,89.953,41.525
'[09:38:51.002 20/12/1995]',0.124,-0.074,-0.045,89.953,41.525
'[09:38:51.004 20/12/1995]',0.124,-0.086,-0.045,89.953,41.525
'[09:38:51.006 20/12/1995]',0.083,-0.086,-0.045,89.953,41.525
'[09:38:51.008 20/12/1995]',0.062,-0.074,-0.045,92.796,41.000
'[09:38:51.010 20/12/1995]',0.062,-0.074,-0.054,92.796,41.000
'[09:38:51.012 20/12/1995]',0.042,-0.074,-0.054,92.796,41.000
'[09:38:51.014 20/12/1995]',0.042,-0.061,-0.054,92.796,41.000
'[09:38:51.016 20/12/1995]',0.062,-0.061,-0.045,95.450,40.700
'[09:38:51.018 20/12/1995]',0.062,-0.074,-0.054,95.450,40.700
'[09:38:51.020 20/12/1995]',0.062,-0.086,-0.054,95.450,40.700
'[09:38:51.022 20/12/1995]',0.083,-0.099,-0.054,95.450,40.700
'[09:38:51.024 20/12/1995]',0.165,-0.124,-0.045,97.820,40.600
'[09:38:51.026 20/12/1995]',0.206,-0.136,-0.036,97.820,40.600
'[09:38:51.028 20/12/1995]',0.165,-0.136,-0.045,97.820,40.600
'[09:38:51.030 20/12/1995]',0.103,-0.136,-0.054,97.820,40.600
'[09:38:51.032 20/12/1995]',0.042,-0.124,-0.064,99.953,40.300
'[09:38:51.034 20/12/1995]',0.021,-0.136,-0.064,99.953,40.300
'[09:38:51.036 20/12/1995]',0.002,-0.136,-0.064,99.953,40.300
'[09:38:51.038 20/12/1995]',0.002,-0.136,-0.064,99.953,40.300
'[09:38:51.040 20/12/1995]',0.002,-0.136,-0.054,101.659,39.950
'[09:38:51.042 20/12/1995]',0.002,-0.149,-0.064,101.659,39.950
'[09:38:51.044 20/12/1995]',0.002,-0.149,-0.064,101.659,39.950
'[09:38:51.046 20/12/1995]',0.002,-0.149,-0.064,101.659,39.950
'[09:38:51.048 20/12/1995]',0.002,-0.161,-0.064,102.938,39.675
'[09:38:51.050 20/12/1995]',0.002,-0.186,-0.073,102.938,39.675
'[09:38:51.052 20/12/1995]',0.021,-0.186,-0.073,102.938,39.675
'[09:38:51.054 20/12/1995]',0.002,-0.186,-0.064,102.938,39.675
'[09:38:51.056 20/12/1995]',0.002,-0.186,-0.073,103.839,39.775
'[09:38:51.058 20/12/1995]',-0.039,-0.161,-0.064,103.839,39.775
'[09:38:51.060 20/12/1995]',-0.039,-0.149,-0.064,103.839,39.775
'[09:38:51.062 20/12/1995]',-0.039,-0.136,-0.064,103.839,39.775
'[09:38:51.064 20/12/1995]',-0.039,-0.136,-0.064,104.265,40.300
'[09:38:51.066 20/12/1995]',-0.019,-0.149,-0.064,104.265,40.300
'[09:38:51.068 20/12/1995]',-0.019,-0.161,-0.064,104.265,40.300
'[09:38:51.070 20/12/1995]',0.002,-0.161,-0.064,104.265,40.300
'[09:38:51.072 20/12/1995]',-0.019,-0.149,-0.054,104.313,40.875
'[09:38:51.074 20/12/1995]',-0.019,-0.124,-0.036,104.313,40.875
'[09:38:51.076 20/12/1995]',-0.019,-0.099,-0.036,104.313,40.875
'[09:38:51.078 20/12/1995]',-0.019,-0.099,-0.027,104.313,40.875
'[09:38:51.080 20/12/1995]',0.002,-0.074,-0.008,104.123,41.300
'[09:38:51.082 20/12/1995]',0.002,-0.049,0.001,104.123,41.300
'[09:38:51.084 20/12/1995]',0.002,-0.036,0.001,104.123,41.300
'[09:38:51.086 20/12/1995]',-0.019,-0.024,0.001,104.123,41.300
'[09:38:51.088 20/12/1995]',-0.060,0.001,0.001,103.555,41.300
'[09:38:51.090 20/12/1995]',-0.060,0.001,0.001,103.555,41.300
'[09:38:51.092 20/12/1995]',-0.060,0.001,0.001,103.555,41.300
'[09:38:51.094 20/12/1995]',-0.039,0.013,0.001,103.555,41.300
'[09:38:51.096 20/12/1995]',-0.039,0.026,0.001,102.844,40.950
'[09:38:51.098 20/12/1995]',-0.039,0.026,0.001,102.844,40.950
'[09:38:51.100 20/12/1995]',-0.039,0.026,0.001,102.844,40.950
'[09:38:51.102 20/12/1995]',-0.019,0.013,0.001,102.844,40.950
'[09:38:51.104 20/12/1995]',0.002,0.001,0.001,101.943,40.250
'[09:38:51.106 20/12/1995]',0.002,0.001,0.010,101.943,40.250
'[09:38:51.108 20/12/1995]',0.002,0.001,0.019,101.943,40.250
'[09:38:51.110 20/12/1995]',0.002,0.001,0.019,101.943,40.250
'[09:38:51.112 20/12/1995]',0.002,0.026,0.028,100.900,39.375
'[09:38:51.114 20/12/1995]',-0.019,0.026,0.019,100.900,39.375
'[09:38:51.116 20/12/1995]',-0.039,0.038,0.019,100.900,39.375
'[09:38:51.118 20/12/1995]',-0.060,0.038,0.019,100.900,39.375
'[09:38:51.120 20/12/1995]',-0.060,0.051,0.019,99.621,38.250
'[09:38:51.122 20/12/1995]',-0.060,0.051,0.019,99.621,38.250
'[09:38:51.124 20/12/1995]',-0.060,0.051,0.028,99.621,38.250
'[09:38:51.126 20/12/1995]',-0.039,0.063,0.028,99.621,38.250
'[09:38:51.128 20/12/1995]',-0.060,0.088,0.028,98.246,37.025
'[09:38:51.130 20/12/1995]',-0.060,0.126,0.037,98.246,37.025
'[09:38:51.132 20/12/1995]',-0.060,0.151,0.056,98.246,37.025
'[09:38:51.134 20/12/1995]',-0.060,0.163,0.065,98.246,37.025
'[09:38:51.136 20/12/1995]',-0.060,0.163,0.074,96.777,35.625
'[09:38:51.138 20/12/1995]',-0.039,0.138,0.065,96.777,35.625
'[09:38:51.140 20/12/1995]',-0.039,0.113,0.065,96.777,35.625
'[09:38:51.142 20/12/1995]',-0.039,0.101,0.056,96.777,35.625
'[09:38:51.144 20/12/1995]',-0.019,0.076,0.037,95.213,34.275
'[09:38:51.146 20/12/1995]',-0.019,0.051,0.028,95.213,34.275
'[09:38:51.148 20/12/1995]',0.002,0.038,0.037,95.213,34.275
'[09:38:51.150 20/12/1995]',-0.019,0.026,0.019,95.213,34.275
'[09:38:51.152 20/12/1995]',-0.039,0.013,0.019,93.649,32.925
'[09:38:51.154 20/12/1995]',-0.019,0.013,0.019,93.649,32.925
'[09:38:51.156 20/12/1995]',0.002,0.001,0.019,93.649,32.925
'[09:38:51.158 20/12/1995]',0.002,0.001,0.010,93.649,32.925
'[09:38:51.160 20/12/1995]',0.002,0.001,0.019,92.180,31.750
'[09:38:51.162 20/12/1995]',0.002,0.026,0.019,92.180,31.750
'[09:38:51.164 20/12/1995]',0.002,0.026,0.019,92.180,31.750
'[09:38:51.166 20/12/1995]',0.002,0.038,0.019,92.180,31.750
'[09:38:51.168 20/12/1995]',0.002,0.051,0.028,90.806,30.750
'[09:38:51.170 20/12/1995]',0.002,0.076,0.046,90.806,30.750
'[09:38:51.172 20/12/1995]',0.002,0.101,0.056,90.806,30.750
'[09:38:51.174 20/12/1995]',-0.019,0.113,0.056,90.806,30.750
'[09:38:51.176 20/12/1995]',-0.039,0.138,0.056,89.431,30.050
'[09:38:51.178 20/12/1995]',-0.060,0.151,0.056,89.431,30.050
'[09:38:51.180 20/12/1995]',-0.039,0.163,0.056,89.431,30.050
'[09:38:51.182 20/12/1995]',-0.019,0.151,0.056,89.431,30.050
'[09:38:51.184 20/12/1995]',0.002,0.138,0.056,88.246,29.650
'[09:38:51.186 20/12/1995]',0.002,0.126,0.056,88.246,29.650
'[09:38:51.188 20/12/1995]',0.002,0.113,0.056,88.246,29.650
'[09:38:51.190 20/12/1995]',0.002,0.101,0.065,88.246,29.650
'[09:38:51.192 20/12/1995]',0.021,0.101,0.056,87.251,29.600
'[09:38:51.194 20/12/1995]',0.021,0.076,0.046,87.251,29.600
'[09:38:51.196 20/12/1995]',0.002,0.063,0.037,87.251,29.600
'[09:38:51.198 20/12/1995]',0.002,0.051,0.037,87.251,29.600
'[09:38:51.200 20/12/1995]',0.002,0.051,0.037,86.445,29.875
'[09:38:51.202 20/12/1995]',-0.019,0.051,0.037,86.445,29.875
'[09:38:51.204 20/12/1995]',-0.019,0.063,0.046,86.445,29.875
'[09:38:51.206 20/12/1995]',-0.019,0.076,0.056,86.445,29.875
'[09:38:51.208 20/12/1995]',-0.019,0.088,0.065,85.877,30.350
'[09:38:51.210 20/12/1995]',-0.019,0.101,0.056,85.877,30.350
'[09:38:51.212 20/12/1995]',-0.019,0.088,0.056,85.877,30.350
'[09:38:51.214 20/12/1995]',0.002,0.076,0.056,85.877,30.350
'[09:38:51.216 20/12/1995]',0.002,0.076,0.046,85.687,30.650
'[09:38:51.218 20/12/1995]',0.002,0.076,0.056,85.687,30.650
'[09:38:51.220 20/12/1995]',0.002,0.076,0.056,85.687,30.650
'[09:38:51.222 20/12/1995]',0.002,0.088,0.056,85.687,30.650
'[09:38:51.224 20/12/1995]',0.002,0.088,0.056,85.735,30.700
'[09:38:51.226 20/12/1995]',0.002,0.088,0.056,85.735,30.700
'[09:38:51.228 20/12/1995]',0.002,0.088,0.056,85.735,30.700
'[09:38:51.230 20/12/1995]',0.002,0.076,0.065,85.735,30.700
'[09:38:51.232 20/12/1995]',0.002,0.088,0.056,86.019,30.575
'[09:38:51.234 20/12/1995]',0.002,0.101,0.065,86.019,30.575
'[09:38:51.236 20/12/1995]',0.002,0.101,0.065,86.019,30.575
'[09:38:51.238 20/12/1995]',0.002,0.101,0.065,86.019,30.575
'[09:38:51.240 20/12/1995]',0.002,0.088,0.065,86.540,30.400
'[09:38:51.242 20/12/1995]',0.002,0.076,0.065,86.540,30.400
'[09:38:51.244 20/12/1995]',0.042,0.076,0.074,86.540,30.400
'[09:38:51.246 20/12/1995]',0.062,0.076,0.083,86.540,30.400
'[09:38:51.248 20/12/1995]',0.062,0.076,0.074,87.299,30.175
'[09:38:51.250 20/12/1995]',0.021,0.076,0.065,87.299,30.175
'[09:38:51.252 20/12/1995]',0.002,0.076,0.056,87.299,30.175
'[09:38:51.254 20/12/1995]',-0.039,0.076,0.046,87.299,30.175
'[09:38:51.256 20/12/1995]',-0.039,0.076,0.046,88.152,29.825
'[09:38:51.258 20/12/1995]',-0.039,0.076,0.046,88.152,29.825
'[09:38:51.260 20/12/1995]',-0.039,0.076,0.056,88.152,29.825
'[09:38:51.262 20/12/1995]',-0.019,0.076,0.056,88.152,29.825
'[09:38:51.264 20/12/1995]',0.002,0.076,0.065,89.052,29.300
'[09:38:51.266 20/12/1995]',0.002,0.076,0.074,89.052,29.300
'[09:38:51.268 20/12/1995]',0.002,0.063,0.074,89.052,29.300
'[09:38:51.270 20/12/1995]',0.002,0.063,0.074,89.052,29.300
'[09:38:51.272 20/12/1995]',-0.019,0.063,0.074,90.095,28.525
'[09:38:51.274 20/12/1995]',-0.039,0.076,0.074,90.095,28.525
'[09:38:51.276 20/12/1995]',-0.019,0.101,0.083,90.095,28.525
'[09:38:51.278 20/12/1995]',-0.019,0.126,0.083,90.095,28.525
'[09:38:51.280 20/12/1995]',-0.039,0.138,0.092,91.137,27.775
'[09:38:51.282 20/12/1995]',-0.060,0.163,0.092,91.137,27.775
'[09:38:51.284 20/12/1995]',-0.060,0.176,0.092,91.137,27.775
'[09:38:51.286 20/12/1995]',-0.060,0.151,0.092,91.137,27.775
'[09:38:51.288 20/12/1995]',-0.039,0.138,0.092,92.180,27.200
'[09:38:51.290 20/12/1995]',-0.019,0.101,0.083,92.180,27.200
'[09:38:51.292 20/12/1995]',-0.039,0.076,0.074,92.180,27.200
'[09:38:51.294 20/12/1995]',-0.019,0.051,0.065,92.180,27.200
'[09:38:51.296 20/12/1995]',0.002,0.051,0.065,93.128,26.775
'[09:38:51.298 20/12/1995]',0.002,0.038,0.074,93.128,26.775
'[09:38:51.300 20/12/1995]',0.021,0.038,0.065,93.128,26.775
'[09:38:51.302 20/12/1995]',0.042,0.026,0.074,93.128,26.775
'[09:38:51.304 20/12/1995]',0.021,0.038,0.074,94.076,26.725
'[09:38:51.306 20/12/1995]',0.002,0.038,0.065,94.076,26.725
'[09:38:51.308 20/12/1995]',0.002,0.051,0.065,94.076,26.725
'[09:38:51.310 20/12/1995]',0.002,0.051,0.074,94.076,26.725
'[09:38:51.312 20/12/1995]',0.002,0.076,0.074,94.929,26.775
'[09:38:51.314 20/12/1995]',-0.039,0.101,0.083,94.929,26.775
'[09:38:51.316 20/12/1995]',-0.060,0.138,0.083,94.929,26.775
'[09:38:51.318 20/12/1995]',-0.080,0.163,0.083,94.929,26.775
'[09:38:51.320 20/12/1995]',-0.101,0.163,0.083,95.877,26.825
'[09:38:51.322 20/12/1995]',-0.101,0.163,0.083,95.877,26.825
'[09:38:51.324 20/12/1995]',-0.101,0.138,0.074,95.877,26.825
'[09:38:51.326 20/12/1995]',-0.080,0.088,0.074,95.877,26.825
'[09:38:51.328 20/12/1995]',-0.060,0.063,0.065,96.825,26.775
'[09:38:51.330 20/12/1995]',-0.039,0.051,0.065,96.825,26.775
'[09:38:51.332 20/12/1995]',-0.019,0.051,0.065,96.825,26.775
'[09:38:51.334 20/12/1995]',-0.039,0.051,0.065,96.825,26.775
'[09:38:51.336 20/12/1995]',-0.019,0.051,0.065,97.773,26.550
'[09:38:51.338 20/12/1995]',-0.019,0.038,0.065,97.773,26.550
'[09:38:51.340 20/12/1995]',0.002,0.038,0.074,97.773,26.550
'[09:38:51.342 20/12/1995]',0.002,0.051,0.074,97.773,26.550
'[09:38:51.344 20/12/1995]',0.002,0.063,0.083,98.720,26.125
'[09:38:51.346 20/12/1995]',0.002,0.076,0.083,98.720,26.125
'[09:38:51.348 20/12/1995]',0.002,0.101,0.092,98.720,26.125
'[09:38:51.350 20/12/1995]',0.002,0.151,0.111,98.720,26.125
'[09:38:51.352 20/12/1995]',0.002,0.163,0.111,99.621,25.675
'[09:38:51.354 20/12/1995]',0.002,0.163,0.120,99.621,25.675
'[09:38:51.356 20/12/1995]',0.002,0.138,0.102,99.621,25.675
'[09:38:51.358 20/12/1995]',0.002,0.113,0.092,99.621,25.675
'[09:38:51.360 20/12/1995]',0.002,0.101,0.083,100.427,25.125
'[09:38:51.362 20/12/1995]',-0.019,0.076,0.065,100.427,25.125
'[09:38:51.364 20/12/1995]',0.002,0.051,0.065,100.427,25.125
'[09:38:51.366 20/12/1995]',0.002,0.026,0.056,100.427,25.125
'[09:38:51.368 20/12/1995]',0.002,0.026,0.056,101.185,24.600
'[09:38:51.370 20/12/1995]',0.002,0.026,0.056,101.185,24.600
'[09:38:51.372 20/12/1995]',0.021,0.026,0.065,101.185,24.600
'[09:38:51.374 20/12/1995]',0.083,0.013,0.083,101.185,24.600
'[09:38:51.376 20/12/1995]',0.165,0.001,0.092,101.706,24.025
'[09:38:51.378 20/12/1995]',0.226,0.013,0.102,101.706,24.025
'[09:38:51.380 20/12/1995]',0.185,0.026,0.102,101.706,24.025
'[09:38:51.382 20/12/1995]',0.062,0.076,0.092,101.706,24.025
'[09:38:51.384 20/12/1995]',0.002,0.101,0.083,102.180,23.450
'[09:38:51.386 20/12/1995]',-0.060,0.126,0.083,102.180,23.450
'[09:38:51.388 20/12/1995]',-0.060,0.138,0.083,102.180,23.450
'[09:38:51.390 20/12/1995]',-0.080,0.138,0.083,102.180,23.450
'[09:38:51.392 20/12/1995]',-0.101,0.126,0.083,102.370,22.850
'[09:38:51.394 20/12/1995]',-0.101,0.101,0.065,102.370,22.850
'[09:38:51.396 20/12/1995]',-0.080,0.101,0.065,102.370,22.850
'[09:38:51.398 20/12/1995]',-0.039,0.088,0.065,102.370,22.850
'[09:38:51.400 20/12/1995]',-0.019,0.088,0.065,102.227,22.325
'[09:38:51.402 20/12/1995]',-0.019,0.101,0.074,102.227,22.325
'[09:38:51.404 20/12/1995]',0.002,0.113,0.083,102.227,22.325
'[09:38:51.406 20/12/1995]',0.002,0.126,0.092,102.227,22.325
'[09:38:51.408 20/12/1995]',0.002,0.101,0.092,101.706,21.850
'[09:38:51.410 20/12/1995]',0.021,0.088,0.092,101.706,21.850
'[09:38:51.412 20/12/1995]',0.021,0.063,0.083,101.706,21.850
'[09:38:51.414 20/12/1995]',0.042,0.051,0.083,101.706,21.850
'[09:38:51.416 20/12/1995]',0.042,0.051,0.083,100.948,21.450
'[09:38:51.418 20/12/1995]',0.002,0.051,0.083,100.948,21.450
'[09:38:51.420 20/12/1995]',0.002,0.076,0.083,100.948,21.450
'[09:38:51.422 20/12/1995]',0.002,0.076,0.083,100.948,21.450
'[09:38:51.424 20/12/1995]',0.002,0.051,0.074,100.000,21.150
'[09:38:51.426 20/12/1995]',0.002,0.051,0.074,100.000,21.150
'[09:38:51.428 20/12/1995]',0.021,0.038,0.065,100.000,21.150
'[09:38:51.430 20/12/1995]',0.042,0.051,0.065,100.000,21.150
'[09:38:51.432 20/12/1995]',0.062,0.038,0.074,98.910,20.975
'[09:38:51.434 20/12/1995]',0.062,0.063,0.083,98.910,20.975
'[09:38:51.436 20/12/1995]',0.042,0.101,0.083,98.910,20.975
'[09:38:51.438 20/12/1995]',0.062,0.126,0.111,98.910,20.975
'[09:38:51.440 20/12/1995]',0.062,0.138,0.111,97.630,20.925
'[09:38:51.442 20/12/1995]',0.042,0.138,0.111,97.630,20.925
'[09:38:51.444 20/12/1995]',0.042,0.138,0.102,97.630,20.925
'[09:38:51.446 20/12/1995]',0.002,0.113,0.092,97.630,20.925
'[09:38:51.448 20/12/1995]',0.002,0.101,0.083,96.303,20.850
'[09:38:51.450 20/12/1995]',0.021,0.063,0.083,96.303,20.850
'[09:38:51.452 20/12/1995]',0.021,0.038,0.074,96.303,20.850
'[09:38:51.454 20/12/1995]',0.042,0.026,0.074,96.303,20.850
'[09:38:51.456 20/12/1995]',0.083,0.001,0.074,94.882,20.675
'[09:38:51.458 20/12/1995]',0.124,0.001,0.065,94.882,20.675
'[09:38:51.460 20/12/1995]',0.124,-0.011,0.056,94.882,20.675
'[09:38:51.462 20/12/1995]',0.083,0.001,0.056,94.882,20.675
'[09:38:51.464 20/12/1995]',0.021,0.013,0.046,93.460,20.325
'[09:38:51.466 20/12/1995]',0.002,0.026,0.037,93.460,20.325
'[09:38:51.468 20/12/1995]',-0.019,0.026,0.046,93.460,20.325
'[09:38:51.470 20/12/1995]',-0.019,0.038,0.046,93.460,20.325
'[09:38:51.472 20/12/1995]',0.002,0.026,0.037,92.038,19.975
'[09:38:51.474 20/12/1995]',0.002,0.001,0.046,92.038,19.975
'[09:38:51.476 20/12/1995]',0.002,0.001,0.046,92.038,19.975
'[09:38:51.478 20/12/1995]',0.062,-0.011,0.056,92.038,19.975
'[09:38:51.480 20/12/1995]',0.144,-0.024,0.074,90.664,19.625
'[09:38:51.482 20/12/1995]',0.185,-0.024,0.083,90.664,19.625
'[09:38:51.484 20/12/1995]',0.185,-0.011,0.083,90.664,19.625
'[09:38:51.486 20/12/1995]',0.103,0.013,0.083,90.664,19.625
'[09:38:51.488 20/12/1995]',0.021,0.038,0.083,89.242,19.500
'[09:38:51.490 20/12/1995]',0.002,0.063,0.074,89.242,19.500
'[09:38:51.492 20/12/1995]',-0.039,0.063,0.065,89.242,19.500
'[09:38:51.494 20/12/1995]',-0.039,0.063,0.074,89.242,19.500
'[09:38:51.496 20/12/1995]',-0.039,0.063,0.074,87.820,19.500
'[09:38:51.498 20/12/1995]',-0.019,0.063,0.074,87.820,19.500
'[09:38:51.500 20/12/1995]',0.002,0.063,0.074,87.820,19.500
'[09:38:51.502 20/12/1995]',0.002,0.051,0.074,87.820,19.500
'[09:38:51.504 20/12/1995]',0.002,0.063,0.083,86.493,19.500
'[09:38:51.506 20/12/1995]',0.021,0.063,0.083,86.493,19.500
'[09:38:51.508 20/12/1995]',0.083,0.063,0.102,86.493,19.500
'[09:38:51.510 20/12/1995]',0.144,0.063,0.111,86.493,19.500
'[09:38:51.512 20/12/1995]',0.144,0.063,0.111,85.213,19.500
'[09:38:51.514 20/12/1995]',0.144,0.076,0.111,85.213,19.500
'[09:38:51.516 20/12/1995]',0.083,0.101,0.102,85.213,19.500
'[09:38:51.518 20/12/1995]',0.021,0.138,0.102,85.213,19.500
'[09:38:51.520 20/12/1995]',0.002,0.151,0.102,84.076,19.400
'[09:38:51.522 20/12/1995]',0.002,0.151,0.102,84.076,19.400
'[09:38:51.524 20/12/1995]',0.002,0.163,0.102,84.076,19.400
'[09:38:51.526 20/12/1995]',-0.019,0.138,0.102,84.076,19.400
'[09:38:51.528 20/12/1995]',0.002,0.138,0.092,82.986,19.275
'[09:38:51.530 20/12/1995]',0.002,0.101,0.102,82.986,19.275
'[09:38:51.532 20/12/1995]',0.042,0.076,0.102,82.986,19.275
'[09:38:51.534 20/12/1995]',0.103,0.063,0.111,82.986,19.275
'[09:38:51.536 20/12/1995]',0.185,0.051,0.120,82.085,19.100
'[09:38:51.538 20/12/1995]',0.226,0.051,0.120,82.085,19.100
'[09:38:51.540 20/12/1995]',0.185,0.076,0.120,82.085,19.100
'[09:38:51.542 20/12/1995]',0.124,0.126,0.120,82.085,19.100
'[09:38:51.544 20/12/1995]',0.042,0.176,0.129,81.232,18.875
'[09:38:51.546 20/12/1995]',0.002,0.213,0.120,81.232,18.875
'[09:38:51.548 20/12/1995]',-0.060,0.213,0.111,81.232,18.875
'[09:38:51.550 20/12/1995]',-0.060,0.200,0.102,81.232,18.875
'[09:38:51.552 20/12/1995]',-0.039,0.163,0.092,80.569,18.575
'[09:38:51.554 20/12/1995]',-0.019,0.113,0.083,80.569,18.575
'[09:38:51.556 20/12/1995]',0.002,0.088,0.083,80.569,18.575
'[09:38:51.558 20/12/1995]',0.021,0.051,0.083,80.569,18.575
'[09:38:51.560 20/12/1995]',0.062,0.026,0.083,79.953,18.275
'[09:38:51.562 20/12/1995]',0.124,0.001,0.083,79.953,18.275
'[09:38:51.564 20/12/1995]',0.185,-0.011,0.092,79.953,18.275
'[09:38:51.566 20/12/1995]',0.226,-0.024,0.092,79.953,18.275
'[09:38:51.568 20/12/1995]',0.226,-0.036,0.102,79.431,17.875
'[09:38:51.570 20/12/1995]',0.165,-0.036,0.111,79.431,17.875
'[09:38:51.572 20/12/1995]',0.062,-0.024,0.111,79.431,17.875
'[09:38:51.574 20/12/1995]',0.002,-0.024,0.111,79.431,17.875
'[09:38:51.576 20/12/1995]',-0.060,-0.011,0.102,78.957,17.400
'[09:38:51.578 20/12/1995]',-0.101,-0.011,0.083,78.957,17.400
'[09:38:51.580 20/12/1995]',-0.060,-0.024,0.056,78.957,17.400
'[09:38:51.582 20/12/1995]',0.021,-0.049,0.019,78.957,17.400
'[09:38:51.584 20/12/1995]',0.144,-0.074,0.001,78.436,16.925
'[09:38:51.586 20/12/1995]',0.267,-0.136,-0.018,78.436,16.925
'[09:38:51.588 20/12/1995]',0.410,-0.174,-0.045,78.436,16.925
'[09:38:51.590 20/12/1995]',0.554,-0.211,-0.073,78.436,16.925
'[09:38:51.592 20/12/1995]',0.676,-0.248,-0.109,78.009,16.525
'[09:38:51.594 20/12/1995]',0.737,-0.298,-0.164,78.009,16.525
'[09:38:51.596 20/12/1995]',0.819,-0.323,-0.229,78.009,16.525
'[09:38:51.598 20/12/1995]',0.900,-0.373,-0.283,78.009,16.525
'[09:38:51.600 20/12/1995]',0.982,-0.385,-0.329,77.630,16.300
'[09:38:51.602 20/12/1995]',1.023,-0.385,-0.348,77.630,16.300
'[09:38:51.604 20/12/1995]',1.023,-0.360,-0.348,77.630,16.300
'[09:38:51.606 20/12/1995]',1.003,-0.323,-0.311,77.630,16.300
'[09:38:51.608 20/12/1995]',0.921,-0.273,-0.265,77.156,16.350
'[09:38:51.610 20/12/1995]',0.860,-0.223,-0.210,77.156,16.350
'[09:38:51.612 20/12/1995]',0.758,-0.149,-0.164,77.156,16.350
'[09:38:51.614 20/12/1995]',0.614,-0.061,-0.100,77.156,16.350
'[09:38:51.616 20/12/1995]',0.431,0.013,-0.036,76.777,16.575
'[09:38:51.618 20/12/1995]',0.267,0.101,0.019,76.777,16.575
'[09:38:51.620 20/12/1995]',0.103,0.213,0.083,76.777,16.575
'[09:38:51.622 20/12/1995]',0.002,0.263,0.129,76.777,16.575
'[09:38:51.624 20/12/1995]',-0.080,0.275,0.165,76.398,16.875
'[09:38:51.626 20/12/1995]',-0.142,0.275,0.175,76.398,16.875
'[09:38:51.628 20/12/1995]',-0.183,0.275,0.193,76.398,16.875
'[09:38:51.630 20/12/1995]',-0.203,0.238,0.193,76.398,16.875
'[09:38:51.632 20/12/1995]',-0.183,0.238,0.202,75.877,17.175
'[09:38:51.634 20/12/1995]',-0.162,0.213,0.193,75.877,17.175
'[09:38:51.636 20/12/1995]',-0.121,0.188,0.184,75.877,17.175
'[09:38:51.638 20/12/1995]',-0.080,0.176,0.184,75.877,17.175
'[09:38:51.640 20/12/1995]',-0.019,0.163,0.184,75.308,17.275
'[09:38:51.642 20/12/1995]',0.021,0.151,0.175,75.308,17.275
'[09:38:51.644 20/12/1995]',0.062,0.163,0.175,75.308,17.275
'[09:38:51.646 20/12/1995]',0.083,0.163,0.175,75.308,17.275
'[09:38:51.648 20/12/1995]',0.124,0.176,0.165,74.502,17.225
'[09:38:51.650 20/12/1995]',0.144,0.176,0.156,74.502,17.225
'[09:38:51.652 20/12/1995]',0.124,0.188,0.147,74.502,17.225
'[09:38:51.654 20/12/1995]',0.124,0.176,0.138,74.502,17.225
'[09:38:51.656 20/12/1995]',0.124,0.176,0.138,73.555,17.175
'[09:38:51.658 20/12/1995]',0.124,0.176,0.138,73.555,17.175
'[09:38:51.660 20/12/1995]',0.124,0.188,0.147,73.555,17.175
'[09:38:51.662 20/12/1995]',0.124,0.200,0.147,73.555,17.175
'[09:38:51.664 20/12/1995]',0.144,0.188,0.156,72.464,17.275
'[09:38:51.666 20/12/1995]',0.185,0.188,0.165,72.464,17.275
'[09:38:51.668 20/12/1995]',0.206,0.163,0.165,72.464,17.275
'[09:38:51.670 20/12/1995]',0.226,0.126,0.147,72.464,17.275
'[09:38:51.672 20/12/1995]',0.247,0.076,0.138,71.137,17.525
'[09:38:51.674 20/12/1995]',0.288,0.038,0.120,71.137,17.525
'[09:38:51.676 20/12/1995]',0.288,0.026,0.111,71.137,17.525
'[09:38:51.678 20/12/1995]',0.288,0.038,0.111,71.137,17.525
'[09:38:51.680 20/12/1995]',0.247,0.051,0.111,69.668,17.625
'[09:38:51.682 20/12/1995]',0.206,0.063,0.111,69.668,17.625
'[09:38:51.684 20/12/1995]',0.206,0.063,0.111,69.668,17.625
'[09:38:51.686 20/12/1995]',0.206,0.051,0.111,69.668,17.625
'[09:38:51.688 20/12/1995]',0.226,0.063,0.120,68.104,17.525
'[09:38:51.690 20/12/1995]',0.247,0.063,0.129,68.104,17.525
'[09:38:51.692 20/12/1995]',0.267,0.063,0.129,68.104,17.525
'[09:38:51.694 20/12/1995]',0.247,0.063,0.129,68.104,17.525
'[09:38:51.696 20/12/1995]',0.206,0.063,0.129,66.493,17.000
'[09:38:51.698 20/12/1995]',0.185,0.076,0.120,66.493,17.000
'[09:38:51.700 20/12/1995]',0.144,0.088,0.111,66.493,17.000
'[09:38:51.702 20/12/1995]',0.083,0.101,0.102,66.493,17.000
'[09:38:51.704 20/12/1995]',0.062,0.088,0.092,64.882,16.400
'[09:38:51.706 20/12/1995]',0.062,0.101,0.083,64.882,16.400
'[09:38:51.708 20/12/1995]',0.062,0.101,0.083,64.882,16.400
'[09:38:51.710 20/12/1995]',0.062,0.113,0.092,64.882,16.400
'[09:38:51.712 20/12/1995]',0.083,0.113,0.092,63.223,16.300
'[09:38:51.714 20/12/1995]',0.103,0.113,0.111,63.223,16.300
'[09:38:51.716 20/12/1995]',0.144,0.101,0.111,63.223,16.300
'[09:38:51.718 20/12/1995]',0.144,0.101,0.111,63.223,16.300
'[09:38:51.720 20/12/1995]',0.144,0.101,0.111,61.611,17.100
'[09:38:51.722 20/12/1995]',0.144,0.101,0.111,61.611,17.100
'[09:38:51.724 20/12/1995]',0.144,0.101,0.111,61.611,17.100
'[09:38:51.726 20/12/1995]',0.144,0.101,0.111,61.611,17.100
'[09:38:51.728 20/12/1995]',0.144,0.138,0.111,60.047,18.700
'[09:38:51.730 20/12/1995]',0.144,0.151,0.120,60.047,18.700
'[09:38:51.732 20/12/1995]',0.165,0.138,0.111,60.047,18.700
'[09:38:51.734 20/12/1995]',0.185,0.138,0.111,60.047,18.700
'[09:38:51.736 20/12/1995]',0.206,0.101,0.111,58.673,20.100
'[09:38:51.738 20/12/1995]',0.206,0.088,0.111,58.673,20.100
'[09:38:51.740 20/12/1995]',0.226,0.076,0.102,58.673,20.100
'[09:38:51.742 20/12/1995]',0.247,0.051,0.092,58.673,20.100
'[09:38:51.744 20/12/1995]',0.267,0.038,0.092,57.536,20.575
'[09:38:51.746 20/12/1995]',0.267,0.026,0.083,57.536,20.575
'[09:38:51.748 20/12/1995]',0.288,0.026,0.083,57.536,20.575
'[09:38:51.750 20/12/1995]',0.288,0.013,0.083,57.536,20.575
'[09:38:51.752 20/12/1995]',0.288,0.026,0.074,56.730,20.575
'[09:38:51.754 20/12/1995]',0.247,0.038,0.074,56.730,20.575
'[09:38:51.756 20/12/1995]',0.206,0.051,0.074,56.730,20.575
'[09:38:51.758 20/12/1995]',0.206,0.051,0.074,56.730,20.575
'[09:38:51.760 20/12/1995]',0.206,0.038,0.083,56.445,21.450
'[09:38:51.762 20/12/1995]',0.288,0.026,0.092,56.445,21.450
'[09:38:51.764 20/12/1995]',0.369,0.001,0.102,56.445,21.450
'[09:38:51.766 20/12/1995]',0.431,-0.024,0.111,56.445,21.450
'[09:38:51.768 20/12/1995]',0.431,-0.024,0.102,56.777,23.900
'[09:38:51.770 20/12/1995]',0.349,0.001,0.083,56.777,23.900
'[09:38:51.772 20/12/1995]',0.247,0.026,0.074,56.777,23.900
'[09:38:51.774 20/12/1995]',0.124,0.076,0.065,56.777,23.900
'[09:38:51.776 20/12/1995]',0.083,0.076,0.065,57.773,27.300
'[09:38:51.778 20/12/1995]',0.083,0.076,0.056,57.773,27.300
'[09:38:51.780 20/12/1995]',0.083,0.063,0.056,57.773,27.300
'[09:38:51.782 20/12/1995]',0.103,0.038,0.046,57.773,27.300
'[09:38:51.784 20/12/1995]',0.144,0.026,0.046,59.242,30.300
'[09:38:51.786 20/12/1995]',0.165,0.001,0.046,59.242,30.300
'[09:38:51.788 20/12/1995]',0.185,-0.011,0.046,59.242,30.300
'[09:38:51.790 20/12/1995]',0.247,-0.011,0.056,59.242,30.300
'[09:38:51.792 20/12/1995]',0.288,-0.024,0.056,61.185,32.175
'[09:38:51.794 20/12/1995]',0.328,-0.036,0.056,61.185,32.175
'[09:38:51.796 20/12/1995]',0.328,-0.036,0.046,61.185,32.175
'[09:38:51.798 20/12/1995]',0.288,-0.024,0.037,61.185,32.175
'[09:38:51.800 20/12/1995]',0.247,-0.011,0.028,63.412,33.350
'[09:38:51.802 20/12/1995]',0.185,0.013,0.028,63.412,33.350
'[09:38:51.804 20/12/1995]',0.144,0.063,0.037,63.412,33.350
'[09:38:51.806 20/12/1995]',0.124,0.076,0.028,63.412,33.350
'[09:38:51.808 20/12/1995]',0.124,0.076,0.046,65.735,34.400
'[09:38:51.810 20/12/1995]',0.144,0.063,0.046,65.735,34.400
'[09:38:51.812 20/12/1995]',0.144,0.038,0.037,65.735,34.400
'[09:38:51.814 20/12/1995]',0.144,0.001,0.028,65.735,34.400
'[09:38:51.816 20/12/1995]',0.165,-0.024,0.019,68.104,35.450
'[09:38:51.818 20/12/1995]',0.185,-0.024,0.010,68.104,35.450
'[09:38:51.820 20/12/1995]',0.206,-0.036,0.019,68.104,35.450
'[09:38:51.822 20/12/1995]',0.226,-0.024,0.028,68.104,35.450
'[09:38:51.824 20/12/1995]',0.247,0.001,0.037,70.474,36.025
'[09:38:51.826 20/12/1995]',0.247,0.001,0.046,70.474,36.025
'[09:38:51.828 20/12/1995]',0.288,0.013,0.046,70.474,36.025
'[09:38:51.830 20/12/1995]',0.267,0.001,0.028,70.474,36.025
'[09:38:51.832 20/12/1995]',0.288,-0.024,0.019,72.891,35.625
'[09:38:51.834 20/12/1995]',0.288,-0.061,0.010,72.891,35.625
'[09:38:51.836 20/12/1995]',0.288,-0.099,0.001,72.891,35.625
'[09:38:51.838 20/12/1995]',0.288,-0.136,-0.008,72.891,35.625
'[09:38:51.840 20/12/1995]',0.267,-0.161,-0.018,75.403,34.400
'[09:38:51.842 20/12/1995]',0.267,-0.174,-0.018,75.403,34.400
'[09:38:51.844 20/12/1995]',0.247,-0.186,-0.018,75.403,34.400
'[09:38:51.846 20/12/1995]',0.247,-0.186,-0.018,75.403,34.400
'[09:38:51.848 20/12/1995]',0.267,-0.186,-0.027,78.057,33.050
'[09:38:51.850 20/12/1995]',0.288,-0.186,-0.018,78.057,33.050
'[09:38:51.852 20/12/1995]',0.308,-0.174,-0.008,78.057,33.050
'[09:38:51.854 20/12/1995]',0.328,-0.161,0.001,78.057,33.050
'[09:38:51.856 20/12/1995]',0.349,-0.136,0.001,80.806,31.925
'[09:38:51.858 20/12/1995]',0.410,-0.149,0.010,80.806,31.925
'[09:38:51.860 20/12/1995]',0.492,-0.161,0.028,80.806,31.925
'[09:38:51.862 20/12/1995]',0.574,-0.186,0.056,80.806,31.925
'[09:38:51.864 20/12/1995]',0.635,-0.198,0.056,83.412,31.225
'[09:38:51.866 20/12/1995]',0.635,-0.211,0.028,83.412,31.225
'[09:38:51.868 20/12/1995]',0.594,-0.211,0.001,83.412,31.225
'[09:38:51.870 20/12/1995]',0.472,-0.186,-0.018,83.412,31.225
'[09:38:51.872 20/12/1995]',0.308,-0.174,-0.054,85.829,30.700
'[09:38:51.874 20/12/1995]',0.165,-0.149,-0.082,85.829,30.700
'[09:38:51.876 20/12/1995]',0.083,-0.161,-0.082,85.829,30.700
'[09:38:51.878 20/12/1995]',0.062,-0.161,-0.082,85.829,30.700
'[09:38:51.880 20/12/1995]',0.103,-0.174,-0.073,88.009,30.225
'[09:38:51.882 20/12/1995]',0.144,-0.186,-0.054,88.009,30.225
'[09:38:51.884 20/12/1995]',0.185,-0.161,-0.036,88.009,30.225
'[09:38:51.886 20/12/1995]',0.206,-0.161,-0.018,88.009,30.225
'[09:38:51.888 20/12/1995]',0.206,-0.161,-0.018,89.905,29.825
'[09:38:51.890 20/12/1995]',0.206,-0.161,-0.008,89.905,29.825
'[09:38:51.892 20/12/1995]',0.206,-0.161,0.001,89.905,29.825
'[09:38:51.894 20/12/1995]',0.206,-0.136,0.001,89.905,29.825
'[09:38:51.896 20/12/1995]',0.185,-0.124,0.001,91.327,29.825
'[09:38:51.898 20/12/1995]',0.206,-0.111,0.001,91.327,29.825
'[09:38:51.900 20/12/1995]',0.185,-0.111,0.001,91.327,29.825
'[09:38:51.902 20/12/1995]',0.165,-0.111,0.001,91.327,29.825
'[09:38:51.904 20/12/1995]',0.144,-0.086,0.001,92.322,30.175
'[09:38:51.906 20/12/1995]',0.124,-0.074,0.001,92.322,30.175
'[09:38:51.908 20/12/1995]',0.103,-0.074,0.001,92.322,30.175
'[09:38:51.910 20/12/1995]',0.124,-0.086,0.010,92.322,30.175
'[09:38:51.912 20/12/1995]',0.144,-0.086,0.010,92.938,30.950
'[09:38:51.914 20/12/1995]',0.124,-0.086,0.019,92.938,30.950
'[09:38:51.916 20/12/1995]',0.103,-0.086,0.019,92.938,30.950
'[09:38:51.918 20/12/1995]',0.083,-0.086,0.028,92.938,30.950
'[09:38:51.920 20/12/1995]',0.103,-0.086,0.028,93.175,31.750
'[09:38:51.922 20/12/1995]',0.124,-0.086,0.037,93.175,31.750
'[09:38:51.924 20/12/1995]',0.144,-0.086,0.037,93.175,31.750
'[09:38:51.926 20/12/1995]',0.165,-0.074,0.046,93.175,31.750
'[09:38:51.928 20/12/1995]',0.165,-0.061,0.056,93.175,32.525
'[09:38:51.930 20/12/1995]',0.144,-0.024,0.065,93.175,32.525
'[09:38:51.932 20/12/1995]',0.144,0.001,0.074,93.175,32.525
'[09:38:51.934 20/12/1995]',0.124,0.001,0.083,93.175,32.525
'[09:38:51.936 20/12/1995]',0.103,0.026,0.083,92.844,32.925
'[09:38:51.938 20/12/1995]',0.103,0.051,0.083,92.844,32.925
'[09:38:51.940 20/12/1995]',0.103,0.076,0.092,92.844,32.925
'[09:38:51.942 20/12/1995]',0.124,0.088,0.092,92.844,32.925
'[09:38:51.944 20/12/1995]',0.124,0.101,0.102,92.227,33.100
'[09:38:51.946 20/12/1995]',0.144,0.113,0.111,92.227,33.100
'[09:38:51.948 20/12/1995]',0.144,0.113,0.120,92.227,33.100
'[09:38:51.950 20/12/1995]',0.144,0.088,0.120,92.227,33.100
'[09:38:51.952 20/12/1995]',0.124,0.051,0.111,91.469,33.000
'[09:38:51.954 20/12/1995]',0.103,0.013,0.092,91.469,33.000
'[09:38:51.956 20/12/1995]',0.083,0.001,0.083,91.469,33.000
'[09:38:51.958 20/12/1995]',0.062,-0.024,0.083,91.469,33.000
'[09:38:51.960 20/12/1995]',0.062,-0.024,0.074,90.474,32.625
'[09:38:51.962 20/12/1995]',0.062,-0.024,0.083,90.474,32.625
'[09:38:51.964 20/12/1995]',0.083,-0.011,0.083,90.474,32.625
'[09:38:51.966 20/12/1995]',0.103,-0.011,0.102,90.474,32.625
'[09:38:51.968 20/12/1995]',0.144,0.001,0.111,89.289,31.925
'[09:38:51.970 20/12/1995]',0.185,0.001,0.111,89.289,31.925
'[09:38:51.972 20/12/1995]',0.185,0.001,0.111,89.289,31.925
'[09:38:51.974 20/12/1995]',0.165,0.038,0.111,89.289,31.925
'[09:38:51.976 20/12/1995]',0.144,0.051,0.102,88.009,31.050
'[09:38:51.978 20/12/1995]',0.083,0.063,0.092,88.009,31.050
'[09:38:51.980 20/12/1995]',0.062,0.051,0.092,88.009,31.050
'[09:38:51.982 20/12/1995]',0.062,0.051,0.092,88.009,31.050
'[09:38:51.984 20/12/1995]',0.083,0.076,0.111,86.635,30.000
'[09:38:51.986 20/12/1995]',0.165,0.051,0.138,86.635,30.000
'[09:38:51.988 20/12/1995]',0.267,0.051,0.147,86.635,30.000
'[09:38:51.990 20/12/1995]',0.328,0.051,0.156,86.635,30.000
'[09:38:51.992 20/12/1995]',0.349,0.038,0.156,85.166,28.825
'[09:38:51.994 20/12/1995]',0.308,0.051,0.147,85.166,28.825
'[09:38:51.996 20/12/1995]',0.226,0.076,0.129,85.166,28.825
'[09:38:51.998 20/12/1995]',0.124,0.113,0.111,85.166,28.825
'[09:38:52.000 20/12/1995]',0.021,0.138,0.111,83.791,27.775
'[09:38:52.002 20/12/1995]',-0.019,0.163,0.102,83.791,27.775
'[09:38:52.004 20/12/1995]',-0.060,0.188,0.111,83.791,27.775
'[09:38:52.006 20/12/1995]',-0.080,0.213,0.120,83.791,27.775
'[09:38:52.008 20/12/1995]',-0.101,0.238,0.129,82.464,26.775
'[09:38:52.010 20/12/1995]',-0.080,0.275,0.138,82.464,26.775
'[09:38:52.012 20/12/1995]',-0.039,0.275,0.147,82.464,26.775
'[09:38:52.014 20/12/1995]',0.002,0.275,0.165,82.464,26.775
'[09:38:52.016 20/12/1995]',0.021,0.238,0.156,81.185,25.950
'[09:38:52.018 20/12/1995]',0.062,0.213,0.165,81.185,25.950
'[09:38:52.020 20/12/1995]',0.083,0.188,0.156,81.185,25.950
'[09:38:52.022 20/12/1995]',0.062,0.163,0.138,81.185,25.950
'[09:38:52.024 20/12/1995]',0.062,0.138,0.120,80.047,25.075
'[09:38:52.026 20/12/1995]',0.062,0.088,0.102,80.047,25.075
'[09:38:52.028 20/12/1995]',0.062,0.051,0.083,80.047,25.075
'[09:38:52.030 20/12/1995]',0.062,0.026,0.083,80.047,25.075
'[09:38:52.032 20/12/1995]',0.062,0.001,0.074,79.052,24.150
'[09:38:52.034 20/12/1995]',0.062,0.026,0.074,79.052,24.150
'[09:38:52.036 20/12/1995]',0.062,0.051,0.083,79.052,24.150
'[09:38:52.038 20/12/1995]',0.062,0.088,0.083,79.052,24.150
'[09:38:52.040 20/12/1995]',0.083,0.113,0.102,78.294,23.325
'[09:38:52.042 20/12/1995]',0.083,0.126,0.111,78.294,23.325
'[09:38:52.044 20/12/1995]',0.103,0.101,0.102,78.294,23.325
'[09:38:52.046 20/12/1995]',0.103,0.088,0.102,78.294,23.325
'[09:38:52.048 20/12/1995]',0.103,0.076,0.102,77.725,22.800
'[09:38:52.050 20/12/1995]',0.124,0.051,0.102,77.725,22.800
'[09:38:52.052 20/12/1995]',0.124,0.051,0.102,77.725,22.800
'[09:38:52.054 20/12/1995]',0.124,0.038,0.092,77.725,22.800
'[09:38:52.056 20/12/1995]',0.103,0.038,0.092,77.393,22.550
'[09:38:52.058 20/12/1995]',0.103,0.051,0.083,77.393,22.550
'[09:38:52.060 20/12/1995]',0.083,0.051,0.083,77.393,22.550
'[09:38:52.062 20/12/1995]',0.083,0.063,0.083,77.393,22.550
'[09:38:52.064 20/12/1995]',0.083,0.076,0.083,77.299,22.275
'[09:38:52.066 20/12/1995]',0.083,0.088,0.083,77.299,22.275
'[09:38:52.068 20/12/1995]',0.124,0.113,0.092,77.299,22.275
'[09:38:52.070 20/12/1995]',0.124,0.138,0.102,77.299,22.275
'[09:38:52.072 20/12/1995]',0.124,0.163,0.111,77.441,21.750
'[09:38:52.074 20/12/1995]',0.103,0.176,0.120,77.441,21.750
'[09:38:52.076 20/12/1995]',0.103,0.188,0.129,77.441,21.750
'[09:38:52.078 20/12/1995]',0.083,0.163,0.129,77.441,21.750
'[09:38:52.080 20/12/1995]',0.062,0.113,0.129,77.915,21.200
'[09:38:52.082 20/12/1995]',0.042,0.076,0.120,77.915,21.200
'[09:38:52.084 20/12/1995]',0.042,0.026,0.111,77.915,21.200
'[09:38:52.086 20/12/1995]',0.062,0.001,0.083,77.915,21.200
'[09:38:52.088 20/12/1995]',0.062,0.001,0.083,78.626,20.925
'[09:38:52.090 20/12/1995]',0.083,0.001,0.083,78.626,20.925
'[09:38:52.092 20/12/1995]',0.103,0.051,0.092,78.626,20.925
'[09:38:52.094 20/12/1995]',0.124,0.088,0.102,78.626,20.925
'[09:38:52.096 20/12/1995]',0.144,0.101,0.111,79.526,20.975
'[09:38:52.098 20/12/1995]',0.144,0.113,0.120,79.526,20.975
'[09:38:52.100 20/12/1995]',0.144,0.138,0.120,79.526,20.975
'[09:38:52.102 20/12/1995]',0.144,0.126,0.111,79.526,20.975
'[09:38:52.104 20/12/1995]',0.124,0.151,0.120,80.616,21.100
'[09:38:52.106 20/12/1995]',0.103,0.163,0.129,80.616,21.100
'[09:38:52.108 20/12/1995]',0.083,0.176,0.129,80.616,21.100
'[09:38:52.110 20/12/1995]',0.083,0.138,0.120,80.616,21.100
'[09:38:52.112 20/12/1995]',0.083,0.113,0.120,81.801,21.275
'[09:38:52.114 20/12/1995]',0.062,0.101,0.111,81.801,21.275
'[09:38:52.116 20/12/1995]',0.062,0.076,0.092,81.801,21.275
'[09:38:52.118 20/12/1995]',0.062,0.063,0.083,81.801,21.275
'[09:38:52.120 20/12/1995]',0.124,0.051,0.092,82.986,21.275
'[09:38:52.122 20/12/1995]',0.206,0.076,0.129,82.986,21.275
'[09:38:52.124 20/12/1995]',0.288,0.063,0.138,82.986,21.275
'[09:38:52.126 20/12/1995]',0.288,0.051,0.138,82.986,21.275
'[09:38:52.128 20/12/1995]',0.288,0.051,0.120,84.218,21.275
'[09:38:52.130 20/12/1995]',0.226,0.051,0.102,84.218,21.275
'[09:38:52.132 20/12/1995]',0.165,0.076,0.102,84.218,21.275
'[09:38:52.134 20/12/1995]',0.083,0.138,0.102,84.218,21.275
'[09:38:52.136 20/12/1995]',0.021,0.188,0.111,85.498,21.375
'[09:38:52.138 20/12/1995]',0.002,0.213,0.111,85.498,21.375
'[09:38:52.140 20/12/1995]',-0.019,0.213,0.111,85.498,21.375
'[09:38:52.142 20/12/1995]',-0.019,0.188,0.111,85.498,21.375
'[09:38:52.144 20/12/1995]',-0.019,0.163,0.102,86.777,21.575
'[09:38:52.146 20/12/1995]',-0.019,0.138,0.092,86.777,21.575
'[09:38:52.148 20/12/1995]',0.002,0.101,0.083,86.777,21.575
'[09:38:52.150 20/12/1995]',0.002,0.076,0.083,86.777,21.575
'[09:38:52.152 20/12/1995]',0.002,0.051,0.074,88.104,22.025
'[09:38:52.154 20/12/1995]',0.021,0.038,0.074,88.104,22.025
'[09:38:52.156 20/12/1995]',0.042,0.051,0.083,88.104,22.025
'[09:38:52.158 20/12/1995]',0.042,0.063,0.083,88.104,22.025
'[09:38:52.160 20/12/1995]',0.062,0.063,0.083,89.526,22.675
'[09:38:52.162 20/12/1995]',0.062,0.051,0.083,89.526,22.675
'[09:38:52.164 20/12/1995]',0.062,0.051,0.083,89.526,22.675
'[09:38:52.166 20/12/1995]',0.062,0.063,0.092,89.526,22.675
'[09:38:52.168 20/12/1995]',0.042,0.088,0.102,90.948,23.375
'[09:38:52.170 20/12/1995]',0.042,0.101,0.111,90.948,23.375
'[09:38:52.172 20/12/1995]',0.042,0.101,0.111,90.948,23.375
'[09:38:52.174 20/12/1995]',0.062,0.101,0.111,90.948,23.375
'[09:38:52.176 20/12/1995]',0.062,0.063,0.092,92.417,23.800
'[09:38:52.178 20/12/1995]',0.062,0.051,0.092,92.417,23.800
'[09:38:52.180 20/12/1995]',0.062,0.051,0.083,92.417,23.800
'[09:38:52.182 20/12/1995]',0.062,0.063,0.102,92.417,23.800
'[09:38:52.184 20/12/1995]',0.042,0.076,0.102,93.839,23.675
'[09:38:52.186 20/12/1995]',0.042,0.088,0.102,93.839,23.675
'[09:38:52.188 20/12/1995]',0.042,0.101,0.111,93.839,23.675
'[09:38:52.190 20/12/1995]',0.042,0.101,0.111,93.839,23.675
'[09:38:52.192 20/12/1995]',0.042,0.088,0.120,95.166,23.025
'[09:38:52.194 20/12/1995]',0.062,0.138,0.138,95.166,23.025
'[09:38:52.196 20/12/1995]',0.062,0.200,0.165,95.166,23.025
'[09:38:52.198 20/12/1995]',0.083,0.250,0.175,95.166,23.025
'[09:38:52.200 20/12/1995]',0.062,0.288,0.184,96.351,22.150
'[09:38:52.202 20/12/1995]',0.062,0.300,0.193,96.351,22.150
'[09:38:52.204 20/12/1995]',0.062,0.300,0.184,96.351,22.150
'[09:38:52.206 20/12/1995]',0.062,0.238,0.165,96.351,22.150
'[09:38:52.208 20/12/1995]',0.062,0.163,0.120,97.393,21.200
'[09:38:52.210 20/12/1995]',0.042,0.076,0.083,97.393,21.200
'[09:38:52.212 20/12/1995]',0.042,0.026,0.074,97.393,21.200
'[09:38:52.214 20/12/1995]',0.062,-0.011,0.056,97.393,21.200
'[09:38:52.216 20/12/1995]',0.103,-0.036,0.056,98.294,20.400
'[09:38:52.218 20/12/1995]',0.124,-0.036,0.056,98.294,20.400
'[09:38:52.220 20/12/1995]',0.144,-0.024,0.083,98.294,20.400
'[09:38:52.222 20/12/1995]',0.144,-0.011,0.083,98.294,20.400
'[09:38:52.224 20/12/1995]',0.144,-0.011,0.083,99.052,19.700
'[09:38:52.226 20/12/1995]',0.144,0.013,0.092,99.052,19.700
'[09:38:52.228 20/12/1995]',0.165,0.026,0.102,99.052,19.700
'[09:38:52.230 20/12/1995]',0.165,0.038,0.092,99.052,19.700
'[09:38:52.232 20/12/1995]',0.144,0.051,0.083,99.573,19.100
'[09:38:52.234 20/12/1995]',0.124,0.051,0.083,99.573,19.100
'[09:38:52.236 20/12/1995]',0.144,0.063,0.111,99.573,19.100
'[09:38:52.238 20/12/1995]',0.185,0.038,0.102,99.573,19.100
'[09:38:52.240 20/12/1995]',0.206,0.026,0.102,99.668,18.700
'[09:38:52.242 20/12/1995]',0.185,0.013,0.092,99.668,18.700
'[09:38:52.244 20/12/1995]',0.144,0.026,0.083,99.668,18.700
'[09:38:52.246 20/12/1995]',0.083,0.051,0.083,99.668,18.700
'[09:38:52.248 20/12/1995]',0.002,0.113,0.083,99.431,18.450
'[09:38:52.250 20/12/1995]',-0.060,0.188,0.102,99.431,18.450
'[09:38:52.252 20/12/1995]',-0.080,0.238,0.111,99.431,18.450
'[09:38:52.254 20/12/1995]',-0.060,0.238,0.120,99.431,18.450
'[09:38:52.256 20/12/1995]',-0.039,0.225,0.120,98.910,18.350
'[09:38:52.258 20/12/1995]',-0.019,0.188,0.111,98.910,18.350
'[09:38:52.260 20/12/1995]',0.002,0.163,0.092,98.910,18.350
'[09:38:52.262 20/12/1995]',0.002,0.101,0.092,98.910,18.350
'[09:38:52.264 20/12/1995]',0.042,0.051,0.083,98.104,18.450
'[09:38:52.266 20/12/1995]',0.042,0.026,0.083,98.104,18.450
'[09:38:52.268 20/12/1995]',0.042,0.038,0.092,98.104,18.450
'[09:38:52.270 20/12/1995]',0.021,0.026,0.092,98.104,18.450
'[09:38:52.272 20/12/1995]',0.021,0.038,0.092,97.109,18.700
'[09:38:52.274 20/12/1995]',0.021,0.051,0.092,97.109,18.700
'[09:38:52.276 20/12/1995]',0.021,0.076,0.111,97.109,18.700
'[09:38:52.278 20/12/1995]',0.021,0.101,0.120,97.109,18.700
'[09:38:52.280 20/12/1995]',0.021,0.126,0.138,95.972,19.050
'[09:38:52.282 20/12/1995]',0.042,0.101,0.129,95.972,19.050
'[09:38:52.284 20/12/1995]',0.042,0.076,0.111,95.972,19.050
'[09:38:52.286 20/12/1995]',0.062,0.063,0.102,95.972,19.050
'[09:38:52.288 20/12/1995]',0.062,0.076,0.111,94.692,19.450
'[09:38:52.290 20/12/1995]',0.042,0.051,0.102,94.692,19.450
'[09:38:52.292 20/12/1995]',0.042,0.051,0.102,94.692,19.450
'[09:38:52.294 20/12/1995]',0.021,0.051,0.102,94.692,19.450
'[09:38:52.296 20/12/1995]',0.042,0.063,0.120,93.318,19.625
'[09:38:52.298 20/12/1995]',0.042,0.038,0.102,93.318,19.625
'[09:38:52.300 20/12/1995]',0.042,0.026,0.102,93.318,19.625
'[09:38:52.302 20/12/1995]',0.042,0.026,0.092,93.318,19.625
'[09:38:52.304 20/12/1995]',0.042,0.013,0.092,91.896,19.575
'[09:38:52.306 20/12/1995]',0.042,0.026,0.092,91.896,19.575
'[09:38:52.308 20/12/1995]',0.042,0.038,0.102,91.896,19.575
'[09:38:52.310 20/12/1995]',0.042,0.051,0.102,91.896,19.575
'[09:38:52.312 20/12/1995]',0.062,0.051,0.092,90.474,19.275
'[09:38:52.314 20/12/1995]',0.062,0.063,0.102,90.474,19.275
'[09:38:52.316 20/12/1995]',0.062,0.051,0.102,90.474,19.275
'[09:38:52.318 20/12/1995]',0.062,0.038,0.102,90.474,19.275
'[09:38:52.320 20/12/1995]',0.062,0.038,0.092,89.005,18.875
'[09:38:52.322 20/12/1995]',0.062,0.051,0.102,89.005,18.875
'[09:38:52.324 20/12/1995]',0.042,0.076,0.111,89.005,18.875
'[09:38:52.326 20/12/1995]',0.062,0.063,0.102,89.005,18.875
'[09:38:52.328 20/12/1995]',0.062,0.076,0.120,87.583,18.525
'[09:38:52.330 20/12/1995]',0.062,0.051,0.102,87.583,18.525
'[09:38:52.332 20/12/1995]',0.042,0.038,0.092,87.583,18.525
'[09:38:52.334 20/12/1995]',0.042,0.051,0.092,87.583,18.525
'[09:38:52.336 20/12/1995]',0.021,0.051,0.092,86.161,18.100
'[09:38:52.338 20/12/1995]',0.021,0.076,0.102,86.161,18.100
'[09:38:52.340 20/12/1995]',0.021,0.101,0.120,86.161,18.100
'[09:38:52.342 20/12/1995]',0.042,0.113,0.138,86.161,18.100
'[09:38:52.344 20/12/1995]',0.062,0.101,0.129,84.834,17.700
'[09:38:52.346 20/12/1995]',0.062,0.101,0.129,84.834,17.700
'[09:38:52.348 20/12/1995]',0.062,0.101,0.129,84.834,17.700
'[09:38:52.350 20/12/1995]',0.062,0.101,0.129,84.834,17.700
'[09:38:52.352 20/12/1995]',0.062,0.113,0.147,83.697,17.275
'[09:38:52.354 20/12/1995]',0.144,0.101,0.175,83.697,17.275
'[09:38:52.356 20/12/1995]',0.206,0.101,0.184,83.697,17.275
'[09:38:52.358 20/12/1995]',0.247,0.063,0.175,83.697,17.275
'[09:38:52.360 20/12/1995]',0.226,0.038,0.165,82.607,17.100
'[09:38:52.362 20/12/1995]',0.185,0.051,0.156,82.607,17.100
'[09:38:52.364 20/12/1995]',0.062,0.126,0.165,82.607,17.100
'[09:38:52.366 20/12/1995]',-0.019,0.200,0.156,82.607,17.100
'[09:38:52.368 20/12/1995]',-0.101,0.225,0.156,81.659,17.175
'[09:38:52.370 20/12/1995]',-0.121,0.213,0.147,81.659,17.175
'[09:38:52.372 20/12/1995]',-0.101,0.188,0.138,81.659,17.175
'[09:38:52.374 20/12/1995]',-0.101,0.163,0.138,81.659,17.175
'[09:38:52.376 20/12/1995]',-0.060,0.163,0.147,80.853,17.275
'[09:38:52.378 20/12/1995]',-0.060,0.163,0.147,80.853,17.275
'[09:38:52.380 20/12/1995]',-0.039,0.163,0.156,80.853,17.275
'[09:38:52.382 20/12/1995]',-0.039,0.188,0.165,80.853,17.275
'[09:38:52.384 20/12/1995]',-0.039,0.213,0.165,80.142,17.450
'[09:38:52.386 20/12/1995]',-0.019,0.213,0.156,80.142,17.450
'[09:38:52.388 20/12/1995]',0.002,0.188,0.156,80.142,17.450
'[09:38:52.390 20/12/1995]',0.002,0.151,0.138,80.142,17.450
'[09:38:52.392 20/12/1995]',0.002,0.076,0.120,79.526,17.525
'[09:38:52.394 20/12/1995]',0.002,0.013,0.092,79.526,17.525
'[09:38:52.396 20/12/1995]',0.002,0.001,0.092,79.526,17.525
'[09:38:52.398 20/12/1995]',0.002,0.013,0.102,79.526,17.525
'[09:38:52.400 20/12/1995]',0.021,0.026,0.102,78.957,17.450
'[09:38:52.402 20/12/1995]',0.042,0.026,0.102,78.957,17.450
'[09:38:52.404 20/12/1995]',0.042,0.051,0.111,78.957,17.450
'[09:38:52.406 20/12/1995]',0.042,0.038,0.111,78.957,17.450
'[09:38:52.408 20/12/1995]',0.042,0.026,0.111,78.578,17.350
'[09:38:52.410 20/12/1995]',0.021,0.038,0.129,78.578,17.350
'[09:38:52.412 20/12/1995]',0.002,0.051,0.138,78.578,17.350
'[09:38:52.414 20/12/1995]',0.002,0.063,0.147,78.578,17.350
'[09:38:52.416 20/12/1995]',-0.019,0.051,0.147,78.199,17.275
'[09:38:52.418 20/12/1995]',0.002,0.051,0.138,78.199,17.275
'[09:38:52.420 20/12/1995]',0.021,0.038,0.120,78.199,17.275
'[09:38:52.422 20/12/1995]',0.103,0.013,0.083,78.199,17.275
'[09:38:52.424 20/12/1995]',0.206,0.001,0.056,77.915,17.225
'[09:38:52.426 20/12/1995]',0.328,-0.024,0.010,77.915,17.225
'[09:38:52.428 20/12/1995]',0.451,-0.061,-0.008,77.915,17.225
'[09:38:52.430 20/12/1995]',0.594,-0.111,-0.054,77.915,17.225
'[09:38:52.432 20/12/1995]',0.717,-0.161,-0.082,77.630,17.175
'[09:38:52.434 20/12/1995]',0.799,-0.161,-0.109,77.630,17.175
'[09:38:52.436 20/12/1995]',0.900,-0.161,-0.137,77.630,17.175
'[09:38:52.438 20/12/1995]',1.023,-0.161,-0.173,77.630,17.175
'[09:38:52.440 20/12/1995]',1.146,-0.161,-0.210,77.346,17.050
'[09:38:52.442 20/12/1995]',1.227,-0.161,-0.247,77.346,17.050
'[09:38:52.444 20/12/1995]',1.289,-0.161,-0.274,77.346,17.050
'[09:38:52.446 20/12/1995]',1.289,-0.161,-0.265,77.346,17.050
'[09:38:52.448 20/12/1995]',1.207,-0.161,-0.265,77.109,17.100
'[09:38:52.450 20/12/1995]',1.064,-0.161,-0.229,77.109,17.100
'[09:38:52.452 20/12/1995]',0.900,-0.111,-0.173,77.109,17.100
'[09:38:52.454 20/12/1995]',0.758,-0.074,-0.146,77.109,17.100
'[09:38:52.456 20/12/1995]',0.574,-0.049,-0.082,76.919,17.450
'[09:38:52.458 20/12/1995]',0.410,-0.024,-0.036,76.919,17.450
'[09:38:52.460 20/12/1995]',0.226,0.026,0.028,76.919,17.450
'[09:38:52.462 20/12/1995]',0.083,0.101,0.092,76.919,17.450
'[09:38:52.464 20/12/1995]',0.002,0.163,0.138,76.682,18.225
'[09:38:52.466 20/12/1995]',-0.101,0.200,0.175,76.682,18.225
'[09:38:52.468 20/12/1995]',-0.183,0.238,0.221,76.682,18.225
'[09:38:52.470 20/12/1995]',-0.203,0.275,0.248,76.682,18.225
'[09:38:52.472 20/12/1995]',-0.244,0.300,0.266,76.445,19.150
'[09:38:52.474 20/12/1995]',-0.203,0.288,0.266,76.445,19.150
'[09:38:52.476 20/12/1995]',-0.142,0.238,0.257,76.445,19.150
'[09:38:52.478 20/12/1995]',-0.060,0.200,0.239,76.445,19.150
'[09:38:52.480 20/12/1995]',0.002,0.188,0.230,76.303,20.050
'[09:38:52.482 20/12/1995]',0.021,0.188,0.230,76.303,20.050
'[09:38:52.484 20/12/1995]',0.042,0.188,0.211,76.303,20.050
'[09:38:52.486 20/12/1995]',0.021,0.163,0.193,76.303,20.050
'[09:38:52.488 20/12/1995]',0.042,0.176,0.175,76.019,20.675
'[09:38:52.490 20/12/1995]',0.062,0.176,0.175,76.019,20.675
'[09:38:52.492 20/12/1995]',0.103,0.188,0.175,76.019,20.675
'[09:38:52.494 20/12/1995]',0.144,0.163,0.175,76.019,20.675
'[09:38:52.496 20/12/1995]',0.165,0.138,0.165,75.640,21.150
'[09:38:52.498 20/12/1995]',0.144,0.126,0.156,75.640,21.150
'[09:38:52.500 20/12/1995]',0.124,0.113,0.147,75.640,21.150
'[09:38:52.502 20/12/1995]',0.083,0.126,0.147,75.640,21.150
'[09:38:52.504 20/12/1995]',0.042,0.126,0.138,75.118,21.500
'[09:38:52.506 20/12/1995]',0.002,0.138,0.138,75.118,21.500
'[09:38:52.508 20/12/1995]',0.002,0.188,0.156,75.118,21.500
'[09:38:52.510 20/12/1995]',-0.019,0.225,0.165,75.118,21.500
'[09:38:52.512 20/12/1995]',0.002,0.275,0.175,74.360,21.800
'[09:38:52.514 20/12/1995]',0.002,0.325,0.184,74.360,21.800
'[09:38:52.516 20/12/1995]',0.002,0.325,0.184,74.360,21.800
'[09:38:52.518 20/12/1995]',0.042,0.300,0.184,74.360,21.800
'[09:38:52.520 20/12/1995]',0.062,0.275,0.184,73.412,21.850
'[09:38:52.522 20/12/1995]',0.103,0.225,0.175,73.412,21.850
'[09:38:52.524 20/12/1995]',0.124,0.200,0.175,73.412,21.850
'[09:38:52.526 20/12/1995]',0.103,0.188,0.165,73.412,21.850
'[09:38:52.528 20/12/1995]',0.103,0.151,0.156,72.227,21.575
'[09:38:52.530 20/12/1995]',0.124,0.076,0.120,72.227,21.575
'[09:38:52.532 20/12/1995]',0.144,0.026,0.102,72.227,21.575
'[09:38:52.534 20/12/1995]',0.144,0.001,0.092,72.227,21.575
'[09:38:52.536 20/12/1995]',0.144,0.001,0.083,70.900,20.850
'[09:38:52.538 20/12/1995]',0.165,0.001,0.083,70.900,20.850
'[09:38:52.540 20/12/1995]',0.206,0.001,0.074,70.900,20.850
'[09:38:52.542 20/12/1995]',0.206,0.001,0.056,70.900,20.850
'[09:38:52.544 20/12/1995]',0.185,0.001,0.056,69.479,20.150
'[09:38:52.546 20/12/1995]',0.185,0.013,0.065,69.479,20.150
'[09:38:52.548 20/12/1995]',0.185,0.026,0.074,69.479,20.150
'[09:38:52.550 20/12/1995]',0.185,0.038,0.074,69.479,20.150
'[09:38:52.552 20/12/1995]',0.185,0.051,0.083,67.962,20.050
'[09:38:52.554 20/12/1995]',0.165,0.076,0.092,67.962,20.050
'[09:38:52.556 20/12/1995]',0.144,0.113,0.111,67.962,20.050
'[09:38:52.558 20/12/1995]',0.144,0.151,0.111,67.962,20.050
'[09:38:52.560 20/12/1995]',0.144,0.138,0.111,66.351,20.925
'[09:38:52.562 20/12/1995]',0.165,0.101,0.083,66.351,20.925
'[09:38:52.564 20/12/1995]',0.165,0.076,0.083,66.351,20.925
'[09:38:52.566 20/12/1995]',0.185,0.076,0.074,66.351,20.925
'[09:38:52.568 20/12/1995]',0.206,0.051,0.065,64.787,22.325
'[09:38:52.570 20/12/1995]',0.206,0.063,0.074,64.787,22.325
'[09:38:52.572 20/12/1995]',0.206,0.101,0.083,64.787,22.325
'[09:38:52.574 20/12/1995]',0.226,0.126,0.083,64.787,22.325
'[09:38:52.576 20/12/1995]',0.247,0.163,0.092,63.270,23.450
'[09:38:52.578 20/12/1995]',0.288,0.188,0.102,63.270,23.450
'[09:38:52.580 20/12/1995]',0.308,0.188,0.092,63.270,23.450
'[09:38:52.582 20/12/1995]',0.349,0.188,0.092,63.270,23.450
'[09:38:52.584 20/12/1995]',0.349,0.163,0.083,61.943,24.150
'[09:38:52.586 20/12/1995]',0.369,0.113,0.056,61.943,24.150
'[09:38:52.588 20/12/1995]',0.369,0.051,0.037,61.943,24.150
'[09:38:52.590 20/12/1995]',0.349,0.026,0.037,61.943,24.150
'[09:38:52.592 20/12/1995]',0.328,0.001,0.028,60.948,25.075
'[09:38:52.594 20/12/1995]',0.308,0.001,0.037,60.948,25.075
'[09:38:52.596 20/12/1995]',0.308,0.013,0.046,60.948,25.075
'[09:38:52.598 20/12/1995]',0.308,0.051,0.056,60.948,25.075
'[09:38:52.600 20/12/1995]',0.349,0.026,0.037,60.427,27.200
'[09:38:52.602 20/12/1995]',0.349,0.026,0.037,60.427,27.200
'[09:38:52.604 20/12/1995]',0.369,0.026,0.046,60.427,27.200
'[09:38:52.606 20/12/1995]',0.369,0.076,0.056,60.427,27.200
'[09:38:52.608 20/12/1995]',0.369,0.101,0.065,60.474,30.650
'[09:38:52.610 20/12/1995]',0.369,0.138,0.074,60.474,30.650
'[09:38:52.612 20/12/1995]',0.349,0.138,0.065,60.474,30.650
'[09:38:52.614 20/12/1995]',0.328,0.126,0.056,60.474,30.650
'[09:38:52.616 20/12/1995]',0.288,0.076,0.037,61.232,34.700
'[09:38:52.618 20/12/1995]',0.288,0.038,0.028,61.232,34.700
'[09:38:52.620 20/12/1995]',0.267,0.038,0.028,61.232,34.700
'[09:38:52.622 20/12/1995]',0.267,0.051,0.037,61.232,34.700
'[09:38:52.624 20/12/1995]',0.267,0.101,0.046,62.559,38.325
'[09:38:52.626 20/12/1995]',0.288,0.138,0.065,62.559,38.325
'[09:38:52.628 20/12/1995]',0.288,0.163,0.074,62.559,38.325
'[09:38:52.630 20/12/1995]',0.308,0.151,0.074,62.559,38.325
'[09:38:52.632 20/12/1995]',0.328,0.113,0.065,64.218,41.125
'[09:38:52.634 20/12/1995]',0.328,0.101,0.056,64.218,41.125
'[09:38:52.636 20/12/1995]',0.369,0.076,0.037,64.218,41.125
'[09:38:52.638 20/12/1995]',0.390,0.026,0.010,64.218,41.125
'[09:38:52.640 20/12/1995]',0.431,0.051,0.028,66.161,42.925
'[09:38:52.642 20/12/1995]',0.451,0.076,0.028,66.161,42.925
'[09:38:52.644 20/12/1995]',0.451,0.101,0.028,66.161,42.925
'[09:38:52.646 20/12/1995]',0.451,0.113,0.019,66.161,42.925
'[09:38:52.648 20/12/1995]',0.431,0.101,0.019,68.389,44.000
'[09:38:52.650 20/12/1995]',0.431,0.051,0.001,68.389,44.000
'[09:38:52.652 20/12/1995]',0.410,0.013,0.001,68.389,44.000
'[09:38:52.654 20/12/1995]',0.390,-0.024,0.001,68.389,44.000
'[09:38:52.656 20/12/1995]',0.390,-0.074,-0.008,70.711,44.225
'[09:38:52.658 20/12/1995]',0.390,-0.074,0.001,70.711,44.225
'[09:38:52.660 20/12/1995]',0.390,-0.049,0.001,70.711,44.225
'[09:38:52.662 20/12/1995]',0.390,-0.049,0.001,70.711,44.225
'[09:38:52.664 20/12/1995]',0.369,-0.061,0.001,73.175,43.750
'[09:38:52.666 20/12/1995]',0.349,-0.049,0.001,73.175,43.750
'[09:38:52.668 20/12/1995]',0.328,-0.024,0.010,73.175,43.750
'[09:38:52.670 20/12/1995]',0.308,-0.024,0.019,73.175,43.750
'[09:38:52.672 20/12/1995]',0.288,-0.024,0.019,75.735,42.650
'[09:38:52.674 20/12/1995]',0.288,-0.049,0.010,75.735,42.650
'[09:38:52.676 20/12/1995]',0.288,-0.074,0.010,75.735,42.650
'[09:38:52.678 20/12/1995]',0.288,-0.086,0.001,75.735,42.650
'[09:38:52.680 20/12/1995]',0.308,-0.086,0.001,78.294,41.175
'[09:38:52.682 20/12/1995]',0.308,-0.061,0.001,78.294,41.175
'[09:38:52.684 20/12/1995]',0.288,-0.011,0.001,78.294,41.175
'[09:38:52.686 20/12/1995]',0.288,0.001,0.001,78.294,41.175
'[09:38:52.688 20/12/1995]',0.308,-0.024,0.001,80.900,39.950
'[09:38:52.690 20/12/1995]',0.328,-0.024,0.001,80.900,39.950
'[09:38:52.692 20/12/1995]',0.328,-0.024,0.001,80.900,39.950
'[09:38:52.694 20/12/1995]',0.349,-0.049,0.001,80.900,39.950
'[09:38:52.696 20/12/1995]',0.349,-0.074,-0.008,83.602,39.425
'[09:38:52.698 20/12/1995]',0.349,-0.074,-0.018,83.602,39.425
'[09:38:52.700 20/12/1995]',0.349,-0.099,-0.027,83.602,39.425
'[09:38:52.702 20/12/1995]',0.349,-0.124,-0.027,83.602,39.425
'[09:38:52.704 20/12/1995]',0.369,-0.136,-0.036,86.398,39.675
'[09:38:52.706 20/12/1995]',0.349,-0.111,-0.008,86.398,39.675
'[09:38:52.708 20/12/1995]',0.349,-0.061,0.001,86.398,39.675
'[09:38:52.710 20/12/1995]',0.328,-0.024,0.001,86.398,39.675
'[09:38:52.712 20/12/1995]',0.328,0.026,0.019,89.052,40.350
'[09:38:52.714 20/12/1995]',0.328,0.026,0.019,89.052,40.350
'[09:38:52.716 20/12/1995]',0.349,0.001,0.010,89.052,40.350
'[09:38:52.718 20/12/1995]',0.349,-0.011,0.001,89.052,40.350
'[09:38:52.720 20/12/1995]',0.349,-0.024,0.001,91.611,41.000
'[09:38:52.722 20/12/1995]',0.349,-0.049,0.001,91.611,41.000
'[09:38:52.724 20/12/1995]',0.328,-0.061,0.001,91.611,41.000
'[09:38:52.726 20/12/1995]',0.308,-0.074,0.001,91.611,41.000
'[09:38:52.728 20/12/1995]',0.288,-0.036,0.010,93.886,41.300
'[09:38:52.730 20/12/1995]',0.288,-0.024,0.010,93.886,41.300
'[09:38:52.732 20/12/1995]',0.288,-0.011,0.019,93.886,41.300
'[09:38:52.734 20/12/1995]',0.288,-0.049,0.019,93.886,41.300
'[09:38:52.736 20/12/1995]',0.288,-0.049,0.010,95.782,41.350
'[09:38:52.738 20/12/1995]',0.288,-0.061,0.010,95.782,41.350
'[09:38:52.740 20/12/1995]',0.267,-0.024,0.028,95.782,41.350
'[09:38:52.742 20/12/1995]',0.226,-0.024,0.028,95.782,41.350
'[09:38:52.744 20/12/1995]',0.185,-0.036,0.028,97.346,41.525
'[09:38:52.746 20/12/1995]',0.165,-0.049,0.019,97.346,41.525
'[09:38:52.748 20/12/1995]',0.124,-0.061,0.019,97.346,41.525
'[09:38:52.750 20/12/1995]',0.103,-0.074,0.019,97.346,41.525
'[09:38:52.752 20/12/1995]',0.083,-0.136,0.001,98.389,42.175
'[09:38:52.754 20/12/1995]',0.062,-0.161,0.001,98.389,42.175
'[09:38:52.756 20/12/1995]',0.062,-0.198,0.001,98.389,42.175
'[09:38:52.758 20/12/1995]',0.062,-0.186,0.001,98.389,42.175
'[09:38:52.760 20/12/1995]',0.083,-0.136,0.019,99.052,43.050
'[09:38:52.762 20/12/1995]',0.062,-0.061,0.046,99.052,43.050
'[09:38:52.764 20/12/1995]',0.083,0.001,0.074,99.052,43.050
'[09:38:52.766 20/12/1995]',0.103,0.013,0.083,99.052,43.050
'[09:38:52.768 20/12/1995]',0.083,0.001,0.083,99.336,43.825
'[09:38:52.770 20/12/1995]',0.062,-0.036,0.074,99.336,43.825
'[09:38:52.772 20/12/1995]',0.042,-0.074,0.074,99.336,43.825
'[09:38:52.774 20/12/1995]',0.021,-0.074,0.083,99.336,43.825
'[09:38:52.776 20/12/1995]',0.002,-0.061,0.092,99.289,44.225
'[09:38:52.778 20/12/1995]',0.002,-0.049,0.102,99.289,44.225
'[09:38:52.780 20/12/1995]',-0.019,-0.049,0.102,99.289,44.225
'[09:38:52.782 20/12/1995]',-0.060,-0.024,0.120,99.289,44.225
'[09:38:52.784 20/12/1995]',-0.060,-0.011,0.138,98.910,44.225
'[09:38:52.786 20/12/1995]',-0.080,-0.011,0.147,98.910,44.225
'[09:38:52.788 20/12/1995]',-0.080,0.001,0.175,98.910,44.225
'[09:38:52.790 20/12/1995]',-0.080,0.001,0.175,98.910,44.225
'[09:38:52.792 20/12/1995]',-0.080,0.026,0.165,98.294,43.925
'[09:38:52.794 20/12/1995]',-0.080,0.076,0.165,98.294,43.925
'[09:38:52.796 20/12/1995]',-0.121,0.138,0.175,98.294,43.925
'[09:38:52.798 20/12/1995]',-0.142,0.151,0.175,98.294,43.925
'[09:38:52.800 20/12/1995]',-0.162,0.138,0.175,97.488,43.525
'[09:38:52.802 20/12/1995]',-0.162,0.138,0.184,97.488,43.525
'[09:38:52.804 20/12/1995]',-0.183,0.113,0.184,97.488,43.525
'[09:38:52.806 20/12/1995]',-0.203,0.076,0.175,97.488,43.525
'[09:38:52.808 20/12/1995]',-0.224,0.063,0.175,96.493,43.000
'[09:38:52.810 20/12/1995]',-0.224,0.076,0.184,96.493,43.000
'[09:38:52.812 20/12/1995]',-0.203,0.063,0.175,96.493,43.000
'[09:38:52.814 20/12/1995]',-0.183,0.038,0.165,96.493,43.000
'[09:38:52.816 20/12/1995]',-0.183,0.038,0.175,95.355,42.300
'[09:38:52.818 20/12/1995]',-0.183,0.063,0.184,95.355,42.300
'[09:38:52.820 20/12/1995]',-0.183,0.113,0.202,95.355,42.300
'[09:38:52.822 20/12/1995]',-0.183,0.126,0.202,95.355,42.300
'[09:38:52.824 20/12/1995]',-0.203,0.113,0.202,94.076,41.425
'[09:38:52.826 20/12/1995]',-0.224,0.138,0.202,94.076,41.425
'[09:38:52.828 20/12/1995]',-0.265,0.151,0.211,94.076,41.425
'[09:38:52.830 20/12/1995]',-0.265,0.138,0.211,94.076,41.425
'[09:38:52.832 20/12/1995]',-0.265,0.088,0.184,92.607,40.425
'[09:38:52.834 20/12/1995]',-0.265,0.051,0.184,92.607,40.425
'[09:38:52.836 20/12/1995]',-0.285,0.026,0.184,92.607,40.425
'[09:38:52.838 20/12/1995]',-0.305,0.013,0.193,92.607,40.425
'[09:38:52.840 20/12/1995]',-0.346,0.051,0.202,91.232,39.325
'[09:38:52.842 20/12/1995]',-0.346,0.101,0.230,91.232,39.325
'[09:38:52.844 20/12/1995]',-0.366,0.151,0.248,91.232,39.325
'[09:38:52.846 20/12/1995]',-0.366,0.176,0.266,91.232,39.325
'[09:38:52.848 20/12/1995]',-0.366,0.163,0.257,89.858,38.200
'[09:38:52.850 20/12/1995]',-0.346,0.126,0.248,89.858,38.200
'[09:38:52.852 20/12/1995]',-0.325,0.101,0.248,89.858,38.200
'[09:38:52.854 20/12/1995]',-0.346,0.063,0.248,89.858,38.200
'[09:38:52.856 20/12/1995]',-0.346,0.001,0.221,88.483,37.275
'[09:38:52.858 20/12/1995]',-0.325,0.013,0.221,88.483,37.275
'[09:38:52.860 20/12/1995]',-0.346,0.038,0.230,88.483,37.275
'[09:38:52.862 20/12/1995]',-0.305,0.088,0.239,88.483,37.275
'[09:38:52.864 20/12/1995]',-0.305,0.163,0.266,87.299,36.450
'[09:38:52.866 20/12/1995]',-0.325,0.188,0.266,87.299,36.450
'[09:38:52.868 20/12/1995]',-0.325,0.163,0.248,87.299,36.450
'[09:38:52.870 20/12/1995]',-0.325,0.113,0.239,87.299,36.450
'[09:38:52.872 20/12/1995]',-0.285,0.038,0.211,86.161,35.625
'[09:38:52.874 20/12/1995]',-0.285,0.001,0.193,86.161,35.625
'[09:38:52.876 20/12/1995]',-0.265,0.001,0.193,86.161,35.625
'[09:38:52.878 20/12/1995]',-0.244,0.026,0.193,86.161,35.625
'[09:38:52.880 20/12/1995]',-0.244,0.051,0.193,85.308,34.625
'[09:38:52.882 20/12/1995]',-0.224,0.076,0.184,85.308,34.625
'[09:38:52.884 20/12/1995]',-0.224,0.101,0.193,85.308,34.625
'[09:38:52.886 20/12/1995]',-0.224,0.163,0.221,85.308,34.625
'[09:38:52.888 20/12/1995]',-0.224,0.188,0.230,84.597,33.525
'[09:38:52.890 20/12/1995]',-0.203,0.213,0.239,84.597,33.525
'[09:38:52.892 20/12/1995]',-0.162,0.163,0.221,84.597,33.525
'[09:38:52.894 20/12/1995]',-0.142,0.076,0.184,84.597,33.525
'[09:38:52.896 20/12/1995]',-0.142,0.001,0.156,84.218,32.750
'[09:38:52.898 20/12/1995]',-0.142,-0.024,0.138,84.218,32.750
'[09:38:52.900 20/12/1995]',-0.162,-0.011,0.138,84.218,32.750
'[09:38:52.902 20/12/1995]',-0.183,0.001,0.147,84.218,32.750
'[09:38:52.904 20/12/1995]',-0.183,0.026,0.165,84.171,32.750
'[09:38:52.906 20/12/1995]',-0.183,0.063,0.165,84.171,32.750
'[09:38:52.908 20/12/1995]',-0.183,0.101,0.175,84.171,32.750
'[09:38:52.910 20/12/1995]',-0.183,0.088,0.156,84.171,32.750
'[09:38:52.912 20/12/1995]',-0.142,0.076,0.156,84.408,33.350
'[09:38:52.914 20/12/1995]',-0.121,0.026,0.129,84.408,33.350
'[09:38:52.916 20/12/1995]',-0.121,0.026,0.129,84.408,33.350
'[09:38:52.918 20/12/1995]',-0.121,0.063,0.156,84.408,33.350
'[09:38:52.920 20/12/1995]',-0.142,0.138,0.175,84.929,33.875
'[09:38:52.922 20/12/1995]',-0.121,0.188,0.193,84.929,33.875
'[09:38:52.924 20/12/1995]',-0.080,0.238,0.202,84.929,33.875
'[09:38:52.926 20/12/1995]',-0.060,0.288,0.221,84.929,33.875
'[09:38:52.928 20/12/1995]',-0.060,0.300,0.221,85.687,33.925
'[09:38:52.930 20/12/1995]',-0.080,0.213,0.202,85.687,33.925
'[09:38:52.932 20/12/1995]',-0.101,0.101,0.175,85.687,33.925
'[09:38:52.934 20/12/1995]',-0.121,0.051,0.165,85.687,33.925
'[09:38:52.936 20/12/1995]',-0.121,0.026,0.147,86.635,33.625
'[09:38:52.938 20/12/1995]',-0.101,0.038,0.138,86.635,33.625
'[09:38:52.940 20/12/1995]',-0.101,0.076,0.147,86.635,33.625
'[09:38:52.942 20/12/1995]',-0.060,0.101,0.147,86.635,33.625
'[09:38:52.944 20/12/1995]',-0.060,0.126,0.147,87.725,33.275
'[09:38:52.946 20/12/1995]',-0.019,0.101,0.138,87.725,33.275
'[09:38:52.948 20/12/1995]',0.002,0.038,0.120,87.725,33.275
'[09:38:52.950 20/12/1995]',0.002,-0.011,0.102,87.725,33.275
'[09:38:52.952 20/12/1995]',0.021,-0.024,0.102,88.910,32.925
'[09:38:52.954 20/12/1995]',0.042,-0.049,0.102,88.910,32.925
'[09:38:52.956 20/12/1995]',0.062,-0.049,0.120,88.910,32.925
'[09:38:52.958 20/12/1995]',0.062,-0.049,0.129,88.910,32.925
'[09:38:52.960 20/12/1995]',0.062,-0.036,0.120,90.000,32.575
'[09:38:52.962 20/12/1995]',0.062,-0.049,0.111,90.000,32.575
'[09:38:52.964 20/12/1995]',0.042,-0.049,0.102,90.000,32.575
'[09:38:52.966 20/12/1995]',0.021,-0.011,0.102,90.000,32.575
'[09:38:52.968 20/12/1995]',0.002,0.051,0.111,91.185,32.100
'[09:38:52.970 20/12/1995]',-0.019,0.088,0.111,91.185,32.100
'[09:38:52.972 20/12/1995]',-0.039,0.101,0.102,91.185,32.100
'[09:38:52.974 20/12/1995]',-0.039,0.113,0.111,91.185,32.100
'[09:38:52.976 20/12/1995]',-0.039,0.101,0.102,92.322,31.825
'[09:38:52.978 20/12/1995]',-0.060,0.076,0.102,92.322,31.825
'[09:38:52.980 20/12/1995]',-0.060,0.088,0.111,92.322,31.825
'[09:38:52.982 20/12/1995]',-0.080,0.138,0.129,92.322,31.825
'[09:38:52.984 20/12/1995]',-0.060,0.151,0.138,93.507,32.100
'[09:38:52.986 20/12/1995]',-0.060,0.188,0.165,93.507,32.100
'[09:38:52.988 20/12/1995]',-0.039,0.163,0.156,93.507,32.100
'[09:38:52.990 20/12/1995]',-0.039,0.163,0.156,93.507,32.100
'[09:38:52.992 20/12/1995]',-0.019,0.101,0.129,94.739,33.100
'[09:38:52.994 20/12/1995]',0.002,0.051,0.102,94.739,33.100
'[09:38:52.996 20/12/1995]',0.002,0.088,0.120,94.739,33.100
'[09:38:52.998 20/12/1995]',0.002,0.176,0.147,94.739,33.100
'[09:38:53.000 20/12/1995]',0.021,0.238,0.175,96.066,34.575
'[09:38:53.002 20/12/1995]',0.042,0.275,0.175,96.066,34.575
'[09:38:53.004 20/12/1995]',0.062,0.238,0.147,96.066,34.575
'[09:38:53.006 20/12/1995]',0.083,0.176,0.129,96.066,34.575
'[09:38:53.008 20/12/1995]',0.083,0.101,0.092,97.441,35.800
'[09:38:53.010 20/12/1995]',0.103,0.001,0.065,97.441,35.800
'[09:38:53.012 20/12/1995]',0.083,-0.024,0.056,97.441,35.800
'[09:38:53.014 20/12/1995]',0.062,-0.024,0.056,97.441,35.800
'[09:38:53.016 20/12/1995]',0.042,0.038,0.083,98.910,36.200
'[09:38:53.018 20/12/1995]',0.042,0.088,0.111,98.910,36.200
'[09:38:53.020 20/12/1995]',0.062,0.076,0.102,98.910,36.200
'[09:38:53.022 20/12/1995]',0.062,0.076,0.111,98.910,36.200
'[09:38:53.024 20/12/1995]',0.062,0.026,0.102,100.284,35.575
'[09:38:53.026 20/12/1995]',0.083,-0.036,0.083,100.284,35.575
'[09:38:53.028 20/12/1995]',0.083,0.001,0.092,100.284,35.575
'[09:38:53.030 20/12/1995]',0.062,0.101,0.129,100.284,35.575
'[09:38:53.032 20/12/1995]',0.042,0.200,0.156,101.517,34.225
'[09:38:53.034 20/12/1995]',0.042,0.213,0.156,101.517,34.225
'[09:38:53.036 20/12/1995]',0.062,0.163,0.120,101.517,34.225
'[09:38:53.038 20/12/1995]',0.062,0.063,0.092,101.517,34.225
'[09:38:53.040 20/12/1995]',0.042,0.038,0.083,102.607,32.825
'[09:38:53.042 20/12/1995]',0.042,0.001,0.083,102.607,32.825
'[09:38:53.044 20/12/1995]',0.002,0.001,0.092,102.607,32.825
'[09:38:53.046 20/12/1995]',0.002,0.026,0.102,102.607,32.825
'[09:38:53.048 20/12/1995]',0.002,0.051,0.102,103.507,31.700
'[09:38:53.050 20/12/1995]',0.002,0.051,0.111,103.507,31.700
'[09:38:53.052 20/12/1995]',0.021,0.063,0.111,103.507,31.700
'[09:38:53.054 20/12/1995]',0.042,0.088,0.102,103.507,31.700
'[09:38:53.056 20/12/1995]',0.042,0.163,0.120,104.218,31.000
'[09:38:53.058 20/12/1995]',0.042,0.213,0.138,104.218,31.000
'[09:38:53.060 20/12/1995]',0.062,0.163,0.120,104.218,31.000
'[09:38:53.062 20/12/1995]',0.042,0.088,0.111,104.218,31.000
'[09:38:53.064 20/12/1995]',0.021,0.026,0.092,104.834,30.525
'[09:38:53.066 20/12/1995]',0.021,-0.011,0.083,104.834,30.525
'[09:38:53.068 20/12/1995]',0.021,-0.011,0.083,104.834,30.525
'[09:38:53.070 20/12/1995]',0.002,0.038,0.102,104.834,30.525
'[09:38:53.072 20/12/1995]',0.021,0.138,0.138,105.355,30.225
'[09:38:53.074 20/12/1995]',0.021,0.225,0.147,105.355,30.225
'[09:38:53.076 20/12/1995]',0.021,0.225,0.147,105.355,30.225
'[09:38:53.078 20/12/1995]',0.062,0.176,0.138,105.355,30.225
'[09:38:53.080 20/12/1995]',0.062,0.126,0.120,105.735,30.175
'[09:38:53.082 20/12/1995]',0.083,0.051,0.102,105.735,30.175
'[09:38:53.084 20/12/1995]',0.103,0.001,0.083,105.735,30.175
'[09:38:53.086 20/12/1995]',0.083,-0.036,0.083,105.735,30.175
'[09:38:53.088 20/12/1995]',0.083,-0.049,0.074,105.877,30.475
'[09:38:53.090 20/12/1995]',0.062,-0.024,0.083,105.877,30.475
'[09:38:53.092 20/12/1995]',0.042,0.001,0.083,105.877,30.475
'[09:38:53.094 20/12/1995]',0.042,0.001,0.074,105.877,30.475
'[09:38:53.096 20/12/1995]',0.042,0.013,0.074,105.829,30.950
'[09:38:53.098 20/12/1995]',0.062,0.063,0.083,105.829,30.950
'[09:38:53.100 20/12/1995]',0.062,0.076,0.083,105.829,30.950
'[09:38:53.102 20/12/1995]',0.062,0.038,0.083,105.829,30.950
'[09:38:53.104 20/12/1995]',0.062,0.001,0.074,105.498,31.475
'[09:38:53.106 20/12/1995]',0.062,-0.024,0.074,105.498,31.475
'[09:38:53.108 20/12/1995]',0.083,-0.061,0.065,105.498,31.475
'[09:38:53.110 20/12/1995]',0.083,-0.074,0.056,105.498,31.475
'[09:38:53.112 20/12/1995]',0.083,-0.074,0.056,104.882,31.925
'[09:38:53.114 20/12/1995]',0.083,-0.074,0.056,104.882,31.925
'[09:38:53.116 20/12/1995]',0.042,-0.074,0.046,104.882,31.925
'[09:38:53.118 20/12/1995]',0.002,-0.049,0.056,104.882,31.925
'[09:38:53.120 20/12/1995]',0.002,0.001,0.065,104.123,32.400
'[09:38:53.122 20/12/1995]',0.002,0.051,0.083,104.123,32.400
'[09:38:53.124 20/12/1995]',0.002,0.138,0.120,104.123,32.400
'[09:38:53.126 20/12/1995]',0.002,0.176,0.138,104.123,32.400
'[09:38:53.128 20/12/1995]',0.021,0.101,0.111,103.128,32.825
'[09:38:53.130 20/12/1995]',0.062,0.026,0.083,103.128,32.825
'[09:38:53.132 20/12/1995]',0.062,0.001,0.083,103.128,32.825
'[09:38:53.134 20/12/1995]',0.083,-0.011,0.074,103.128,32.825
'[09:38:53.136 20/12/1995]',0.062,-0.036,0.065,101.943,32.925
'[09:38:53.138 20/12/1995]',0.083,-0.061,0.046,101.943,32.925
'[09:38:53.140 20/12/1995]',0.103,-0.061,0.046,101.943,32.925
'[09:38:53.142 20/12/1995]',0.103,-0.049,0.056,101.943,32.925
'[09:38:53.144 20/12/1995]',0.083,-0.024,0.056,100.664,32.575
'[09:38:53.146 20/12/1995]',0.062,0.001,0.065,100.664,32.575
'[09:38:53.148 20/12/1995]',0.062,0.051,0.074,100.664,32.575
'[09:38:53.150 20/12/1995]',0.062,0.101,0.083,100.664,32.575
'[09:38:53.152 20/12/1995]',0.062,0.126,0.083,99.289,31.875
'[09:38:53.154 20/12/1995]',0.062,0.138,0.083,99.289,31.875
'[09:38:53.156 20/12/1995]',0.062,0.138,0.092,99.289,31.875
'[09:38:53.158 20/12/1995]',0.042,0.113,0.092,99.289,31.875
'[09:38:53.160 20/12/1995]',0.021,0.076,0.083,97.820,30.950
'[09:38:53.162 20/12/1995]',0.021,0.026,0.083,97.820,30.950
'[09:38:53.164 20/12/1995]',0.042,-0.024,0.056,97.820,30.950
'[09:38:53.166 20/12/1995]',0.062,-0.111,0.037,97.820,30.950
'[09:38:53.168 20/12/1995]',0.062,-0.161,0.010,96.351,30.050
'[09:38:53.170 20/12/1995]',0.083,-0.136,0.028,96.351,30.050
'[09:38:53.172 20/12/1995]',0.083,-0.036,0.046,96.351,30.050
'[09:38:53.174 20/12/1995]',0.062,0.026,0.074,96.351,30.050
'[09:38:53.176 20/12/1995]',0.042,0.138,0.111,94.882,29.350
'[09:38:53.178 20/12/1995]',0.002,0.238,0.147,94.882,29.350
'[09:38:53.180 20/12/1995]',0.021,0.275,0.175,94.882,29.350
'[09:38:53.182 20/12/1995]',0.042,0.288,0.175,94.882,29.350
'[09:38:53.184 20/12/1995]',0.062,0.250,0.165,93.460,28.825
'[09:38:53.186 20/12/1995]',0.103,0.200,0.147,93.460,28.825
'[09:38:53.188 20/12/1995]',0.124,0.138,0.120,93.460,28.825
'[09:38:53.190 20/12/1995]',0.144,0.063,0.092,93.460,28.825
'[09:38:53.192 20/12/1995]',0.144,-0.024,0.083,92.038,28.525
'[09:38:53.194 20/12/1995]',0.144,-0.049,0.074,92.038,28.525
'[09:38:53.196 20/12/1995]',0.103,-0.074,0.046,92.038,28.525
'[09:38:53.198 20/12/1995]',0.062,-0.074,0.037,92.038,28.525
'[09:38:53.200 20/12/1995]',0.042,-0.074,0.037,90.806,28.475
'[09:38:53.202 20/12/1995]',0.021,-0.074,0.037,90.806,28.475
'[09:38:53.204 20/12/1995]',0.002,-0.049,0.046,90.806,28.475
'[09:38:53.206 20/12/1995]',0.002,-0.049,0.046,90.806,28.475
'[09:38:53.208 20/12/1995]',0.002,-0.074,0.056,89.621,28.525
'[09:38:53.210 20/12/1995]',0.002,-0.049,0.065,89.621,28.525
'[09:38:53.212 20/12/1995]',0.002,0.001,0.083,89.621,28.525
'[09:38:53.214 20/12/1995]',0.021,0.051,0.092,89.621,28.525
'[09:38:53.216 20/12/1995]',0.042,0.076,0.102,88.626,28.525
'[09:38:53.218 20/12/1995]',0.062,0.063,0.102,88.626,28.525
'[09:38:53.220 20/12/1995]',0.083,0.063,0.102,88.626,28.525
'[09:38:53.222 20/12/1995]',0.083,0.051,0.111,88.626,28.525
'[09:38:53.224 20/12/1995]',0.083,0.076,0.129,87.678,28.425
'[09:38:53.226 20/12/1995]',0.083,0.076,0.129,87.678,28.425
'[09:38:53.228 20/12/1995]',0.083,0.101,0.138,87.678,28.425
'[09:38:53.230 20/12/1995]',0.083,0.076,0.129,87.678,28.425
'[09:38:53.232 20/12/1995]',0.083,0.051,0.120,86.825,28.250
'[09:38:53.234 20/12/1995]',0.042,0.001,0.092,86.825,28.250
'[09:38:53.236 20/12/1995]',0.042,-0.011,0.074,86.825,28.250
'[09:38:53.238 20/12/1995]',0.021,-0.011,0.065,86.825,28.250
'[09:38:53.240 20/12/1995]',0.002,0.001,0.056,86.066,28.075
'[09:38:53.242 20/12/1995]',-0.019,0.051,0.065,86.066,28.075
'[09:38:53.244 20/12/1995]',-0.060,0.063,0.083,86.066,28.075
'[09:38:53.246 20/12/1995]',-0.080,0.051,0.083,86.066,28.075
'[09:38:53.248 20/12/1995]',-0.101,0.001,0.083,85.403,27.950
'[09:38:53.250 20/12/1995]',-0.121,0.001,0.092,85.403,27.950
'[09:38:53.252 20/12/1995]',-0.142,0.026,0.111,85.403,27.950
'[09:38:53.254 20/12/1995]',-0.121,0.051,0.120,85.403,27.950
'[09:38:53.256 20/12/1995]',-0.060,0.076,0.129,84.834,28.000
'[09:38:53.258 20/12/1995]',0.021,0.038,0.102,84.834,28.000
'[09:38:53.260 20/12/1995]',0.144,-0.024,0.046,84.834,28.000
'[09:38:53.262 20/12/1995]',0.288,-0.074,0.001,84.834,28.000
'[09:38:53.264 20/12/1995]',0.390,-0.099,-0.018,84.360,28.000
'[09:38:53.266 20/12/1995]',0.513,-0.099,-0.073,84.360,28.000
'[09:38:53.268 20/12/1995]',0.655,-0.161,-0.146,84.360,28.000
'[09:38:53.270 20/12/1995]',0.758,-0.198,-0.183,84.360,28.000
'[09:38:53.272 20/12/1995]',0.860,-0.236,-0.219,83.934,27.775
'[09:38:53.274 20/12/1995]',1.003,-0.273,-0.274,83.934,27.775
'[09:38:53.276 20/12/1995]',1.126,-0.336,-0.348,83.934,27.775
'[09:38:53.278 20/12/1995]',1.227,-0.373,-0.384,83.934,27.775
'[09:38:53.280 20/12/1995]',1.289,-0.410,-0.439,83.507,27.375
'[09:38:53.282 20/12/1995]',1.268,-0.410,-0.439,83.507,27.375
'[09:38:53.284 20/12/1995]',1.186,-0.323,-0.412,83.507,27.375
'[09:38:53.286 20/12/1995]',1.064,-0.261,-0.357,83.507,27.375
'[09:38:53.288 20/12/1995]',0.962,-0.149,-0.302,83.081,26.950
'[09:38:53.290 20/12/1995]',0.860,-0.061,-0.238,83.081,26.950
'[09:38:53.292 20/12/1995]',0.717,0.001,-0.164,83.081,26.950
'[09:38:53.294 20/12/1995]',0.574,0.051,-0.091,83.081,26.950
'[09:38:53.296 20/12/1995]',0.390,0.101,-0.008,82.654,26.900
'[09:38:53.298 20/12/1995]',0.226,0.101,0.037,82.654,26.900
'[09:38:53.300 20/12/1995]',0.124,0.051,0.065,82.654,26.900
'[09:38:53.302 20/12/1995]',0.002,0.013,0.074,82.654,26.900
'[09:38:53.304 20/12/1995]',-0.080,0.013,0.092,82.275,27.375
'[09:38:53.306 20/12/1995]',-0.142,0.026,0.120,82.275,27.375
'[09:38:53.308 20/12/1995]',-0.162,0.001,0.111,82.275,27.375
'[09:38:53.310 20/12/1995]',-0.162,-0.049,0.102,82.275,27.375
'[09:38:53.312 20/12/1995]',-0.142,-0.049,0.102,81.943,28.000
'[09:38:53.314 20/12/1995]',-0.121,-0.049,0.092,81.943,28.000
'[09:38:53.316 20/12/1995]',-0.101,0.001,0.111,81.943,28.000
'[09:38:53.318 20/12/1995]',-0.080,0.051,0.129,81.943,28.000
'[09:38:53.320 20/12/1995]',-0.019,0.126,0.147,81.611,28.475
'[09:38:53.322 20/12/1995]',0.002,0.163,0.156,81.611,28.475
'[09:38:53.324 20/12/1995]',0.021,0.213,0.156,81.611,28.475
'[09:38:53.326 20/12/1995]',0.042,0.288,0.175,81.611,28.475
'[09:38:53.328 20/12/1995]',0.042,0.338,0.184,81.137,28.525
'[09:38:53.330 20/12/1995]',0.062,0.275,0.184,81.137,28.525
'[09:38:53.332 20/12/1995]',0.083,0.176,0.147,81.137,28.525
'[09:38:53.334 20/12/1995]',0.103,0.013,0.092,81.137,28.525
'[09:38:53.336 20/12/1995]',0.103,-0.049,0.074,80.521,28.350
'[09:38:53.338 20/12/1995]',0.124,-0.086,0.065,80.521,28.350
'[09:38:53.340 20/12/1995]',0.124,-0.049,0.074,80.521,28.350
'[09:38:53.342 20/12/1995]',0.124,0.026,0.092,80.521,28.350
'[09:38:53.344 20/12/1995]',0.124,0.101,0.120,79.621,28.175
'[09:38:53.346 20/12/1995]',0.144,0.138,0.111,79.621,28.175
'[09:38:53.348 20/12/1995]',0.165,0.126,0.102,79.621,28.175
'[09:38:53.350 20/12/1995]',0.165,0.076,0.083,79.621,28.175
'[09:38:53.352 20/12/1995]',0.144,0.026,0.065,78.578,28.175
'[09:38:53.354 20/12/1995]',0.124,0.001,0.065,78.578,28.175
'[09:38:53.356 20/12/1995]',0.083,-0.049,0.046,78.578,28.175
'[09:38:53.358 20/12/1995]',0.062,-0.074,0.056,78.578,28.175
'[09:38:53.360 20/12/1995]',0.062,-0.086,0.046,77.346,28.175
'[09:38:53.362 20/12/1995]',0.042,-0.111,0.037,77.346,28.175
'[09:38:53.364 20/12/1995]',0.062,-0.099,0.046,77.346,28.175
'[09:38:53.366 20/12/1995]',0.083,-0.049,0.065,77.346,28.175
'[09:38:53.368 20/12/1995]',0.103,0.026,0.092,75.972,28.000
'[09:38:53.370 20/12/1995]',0.124,0.051,0.102,75.972,28.000
'[09:38:53.372 20/12/1995]',0.124,0.051,0.102,75.972,28.000
'[09:38:53.374 20/12/1995]',0.124,0.013,0.083,75.972,28.000
'[09:38:53.376 20/12/1995]',0.083,-0.024,0.065,74.408,27.825
'[09:38:53.378 20/12/1995]',0.062,-0.036,0.065,74.408,27.825
'[09:38:53.380 20/12/1995]',0.062,-0.061,0.056,74.408,27.825
'[09:38:53.382 20/12/1995]',0.062,-0.024,0.074,74.408,27.825
'[09:38:53.384 20/12/1995]',0.083,-0.024,0.056,72.796,27.725
'[09:38:53.386 20/12/1995]',0.083,0.001,0.065,72.796,27.725
'[09:38:53.388 20/12/1995]',0.103,0.001,0.056,72.796,27.725
'[09:38:53.390 20/12/1995]',0.083,0.026,0.065,72.796,27.725
'[09:38:53.392 20/12/1995]',0.083,0.076,0.083,71.137,27.775
'[09:38:53.394 20/12/1995]',0.103,0.151,0.111,71.137,27.775
'[09:38:53.396 20/12/1995]',0.144,0.213,0.129,71.137,27.775
'[09:38:53.398 20/12/1995]',0.185,0.213,0.129,71.137,27.775
'[09:38:53.400 20/12/1995]',0.226,0.138,0.120,69.526,28.075
'[09:38:53.402 20/12/1995]',0.288,0.026,0.083,69.526,28.075
'[09:38:53.404 20/12/1995]',0.288,0.001,0.083,69.526,28.075
'[09:38:53.406 20/12/1995]',0.247,0.001,0.083,69.526,28.075
'[09:38:53.408 20/12/1995]',0.185,0.076,0.120,67.962,28.350
'[09:38:53.410 20/12/1995]',0.124,0.138,0.129,67.962,28.350
'[09:38:53.412 20/12/1995]',0.083,0.213,0.129,67.962,28.350
'[09:38:53.414 20/12/1995]',0.083,0.275,0.138,67.962,28.350
'[09:38:53.416 20/12/1995]',0.083,0.238,0.129,66.682,27.825
'[09:38:53.418 20/12/1995]',0.144,0.101,0.083,66.682,27.825
'[09:38:53.420 20/12/1995]',0.185,-0.024,0.019,66.682,27.825
'[09:38:53.422 20/12/1995]',0.206,-0.124,0.001,66.682,27.825
'[09:38:53.424 20/12/1995]',0.206,-0.149,0.001,65.687,26.475
'[09:38:53.426 20/12/1995]',0.206,-0.186,0.001,65.687,26.475
'[09:38:53.428 20/12/1995]',0.226,-0.198,0.001,65.687,26.475
'[09:38:53.430 20/12/1995]',0.226,-0.174,0.001,65.687,26.475
'[09:38:53.432 20/12/1995]',0.206,-0.099,0.010,65.166,25.675
'[09:38:53.434 20/12/1995]',0.165,-0.011,0.037,65.166,25.675
'[09:38:53.436 20/12/1995]',0.144,0.038,0.046,65.166,25.675
'[09:38:53.438 20/12/1995]',0.144,0.076,0.065,65.166,25.675
'[09:38:53.440 20/12/1995]',0.144,0.063,0.065,65.308,26.600
'[09:38:53.442 20/12/1995]',0.185,0.063,0.074,65.308,26.600
'[09:38:53.444 20/12/1995]',0.185,0.026,0.056,65.308,26.600
'[09:38:53.446 20/12/1995]',0.206,-0.049,0.028,65.308,26.600
'[09:38:53.448 20/12/1995]',0.226,-0.099,0.001,66.114,29.475
'[09:38:53.450 20/12/1995]',0.206,-0.136,0.001,66.114,29.475
'[09:38:53.452 20/12/1995]',0.206,-0.161,0.001,66.114,29.475
'[09:38:53.454 20/12/1995]',0.165,-0.186,0.001,66.114,29.475
'[09:38:53.456 20/12/1995]',0.165,-0.186,0.001,67.441,33.275
'[09:38:53.458 20/12/1995]',0.165,-0.161,0.001,67.441,33.275
'[09:38:53.460 20/12/1995]',0.185,-0.149,0.001,67.441,33.275
'[09:38:53.462 20/12/1995]',0.206,-0.124,0.001,67.441,33.275
'[09:38:53.464 20/12/1995]',0.206,-0.074,0.028,69.242,36.675
'[09:38:53.466 20/12/1995]',0.206,-0.011,0.046,69.242,36.675
'[09:38:53.468 20/12/1995]',0.206,0.063,0.074,69.242,36.675
'[09:38:53.470 20/12/1995]',0.185,0.188,0.111,69.242,36.675
'[09:38:53.472 20/12/1995]',0.165,0.263,0.129,71.422,39.250
'[09:38:53.474 20/12/1995]',0.185,0.225,0.111,71.422,39.250
'[09:38:53.476 20/12/1995]',0.206,0.151,0.083,71.422,39.250
'[09:38:53.478 20/12/1995]',0.226,0.051,0.046,71.422,39.250
'[09:38:53.480 20/12/1995]',0.226,-0.024,0.001,73.791,40.875
'[09:38:53.482 20/12/1995]',0.185,-0.111,-0.008,73.791,40.875
'[09:38:53.484 20/12/1995]',0.144,-0.161,-0.036,73.791,40.875
'[09:38:53.486 20/12/1995]',0.124,-0.236,-0.064,73.791,40.875
'[09:38:53.488 20/12/1995]',0.124,-0.273,-0.064,76.398,41.875
'[09:38:53.490 20/12/1995]',0.165,-0.248,-0.036,76.398,41.875
'[09:38:53.492 20/12/1995]',0.206,-0.223,-0.018,76.398,41.875
'[09:38:53.494 20/12/1995]',0.267,-0.186,0.001,76.398,41.875
'[09:38:53.496 20/12/1995]',0.288,-0.099,0.028,79.100,42.350
'[09:38:53.498 20/12/1995]',0.288,0.026,0.056,79.100,42.350
'[09:38:53.500 20/12/1995]',0.267,0.101,0.065,79.100,42.350
'[09:38:53.502 20/12/1995]',0.267,0.176,0.065,79.100,42.350
'[09:38:53.504 20/12/1995]',0.247,0.213,0.065,81.896,42.225
'[09:38:53.506 20/12/1995]',0.247,0.101,0.019,81.896,42.225
'[09:38:53.508 20/12/1995]',0.206,0.001,0.001,81.896,42.225
'[09:38:53.510 20/12/1995]',0.206,-0.099,-0.018,81.896,42.225
'[09:38:53.512 20/12/1995]',0.206,-0.161,-0.027,84.834,41.650
'[09:38:53.514 20/12/1995]',0.206,-0.149,-0.008,84.834,41.650
'[09:38:53.516 20/12/1995]',0.206,-0.074,0.010,84.834,41.650
'[09:38:53.518 20/12/1995]',0.206,-0.024,0.028,84.834,41.650
'[09:38:53.520 20/12/1995]',0.247,0.001,0.028,87.962,40.950
'[09:38:53.522 20/12/1995]',0.267,-0.036,0.001,87.962,40.950
'[09:38:53.524 20/12/1995]',0.267,-0.111,-0.008,87.962,40.950
'[09:38:53.526 20/12/1995]',0.288,-0.149,-0.027,87.962,40.950
'[09:38:53.528 20/12/1995]',0.288,-0.174,-0.054,91.185,40.600
'[09:38:53.530 20/12/1995]',0.288,-0.198,-0.054,91.185,40.600
'[09:38:53.532 20/12/1995]',0.288,-0.211,-0.054,91.185,40.600
'[09:38:53.534 20/12/1995]',0.288,-0.186,-0.045,91.185,40.600
'[09:38:53.536 20/12/1995]',0.288,-0.161,-0.027,94.502,40.600
'[09:38:53.538 20/12/1995]',0.288,-0.149,-0.018,94.502,40.600
'[09:38:53.540 20/12/1995]',0.288,-0.174,-0.018,94.502,40.600
'[09:38:53.542 20/12/1995]',0.288,-0.236,-0.036,94.502,40.600
'[09:38:53.544 20/12/1995]',0.247,-0.261,-0.054,97.773,40.600
'[09:38:53.546 20/12/1995]',0.226,-0.248,-0.054,97.773,40.600
'[09:38:53.548 20/12/1995]',0.206,-0.286,-0.073,97.773,40.600
'[09:38:53.550 20/12/1995]',0.206,-0.311,-0.082,97.773,40.600
'[09:38:53.552 20/12/1995]',0.206,-0.323,-0.091,100.900,40.125
'[09:38:53.554 20/12/1995]',0.206,-0.323,-0.091,100.900,40.125
'[09:38:53.556 20/12/1995]',0.206,-0.273,-0.082,100.900,40.125
'[09:38:53.558 20/12/1995]',0.206,-0.223,-0.064,100.900,40.125
'[09:38:53.560 20/12/1995]',0.206,-0.161,-0.045,103.649,39.250
'[09:38:53.562 20/12/1995]',0.226,-0.136,-0.036,103.649,39.250
'[09:38:53.564 20/12/1995]',0.267,-0.149,-0.036,103.649,39.250
'[09:38:53.566 20/12/1995]',0.267,-0.161,-0.036,103.649,39.250
'[09:38:53.568 20/12/1995]',0.267,-0.111,-0.008,106.066,38.500
'[09:38:53.570 20/12/1995]',0.247,-0.036,0.001,106.066,38.500
'[09:38:53.572 20/12/1995]',0.206,-0.011,0.001,106.066,38.500
'[09:38:53.574 20/12/1995]',0.206,-0.074,-0.008,106.066,38.500
'[09:38:53.576 20/12/1995]',0.206,-0.136,-0.027,107.867,38.325
'[09:38:53.578 20/12/1995]',0.206,-0.186,-0.036,107.867,38.325
'[09:38:53.580 20/12/1995]',0.226,-0.223,-0.036,107.867,38.325
'[09:38:53.582 20/12/1995]',0.267,-0.248,-0.027,107.867,38.325
'[09:38:53.584 20/12/1995]',0.288,-0.236,-0.008,109.242,38.800
'[09:38:53.586 20/12/1995]',0.328,-0.223,0.001,109.242,38.800
'[09:38:53.588 20/12/1995]',0.328,-0.186,0.010,109.242,38.800
'[09:38:53.590 20/12/1995]',0.308,-0.186,0.001,109.242,38.800
'[09:38:53.592 20/12/1995]',0.267,-0.161,0.001,110.095,39.550
'[09:38:53.594 20/12/1995]',0.206,-0.161,-0.018,110.095,39.550
'[09:38:53.596 20/12/1995]',0.185,-0.174,-0.036,110.095,39.550
'[09:38:53.598 20/12/1995]',0.144,-0.186,-0.045,110.095,39.550
'[09:38:53.600 20/12/1995]',0.103,-0.186,-0.045,110.569,40.250
'[09:38:53.602 20/12/1995]',0.062,-0.186,-0.036,110.569,40.250
'[09:38:53.604 20/12/1995]',0.021,-0.174,-0.027,110.569,40.250
'[09:38:53.606 20/12/1995]',0.002,-0.136,-0.018,110.569,40.250
'[09:38:53.608 20/12/1995]',0.002,-0.099,0.001,110.758,40.775
'[09:38:53.610 20/12/1995]',-0.019,-0.049,0.001,110.758,40.775
'[09:38:53.612 20/12/1995]',-0.039,-0.024,0.010,110.758,40.775
'[09:38:53.614 20/12/1995]',-0.039,0.001,0.019,110.758,40.775
'[09:38:53.616 20/12/1995]',-0.019,0.001,0.028,110.664,41.125
'[09:38:53.618 20/12/1995]',0.002,0.001,0.028,110.664,41.125
'[09:38:53.620 20/12/1995]',0.002,-0.024,0.028,110.664,41.125
'[09:38:53.622 20/12/1995]',0.002,-0.049,0.028,110.664,41.125
'[09:38:53.624 20/12/1995]',0.002,-0.074,0.019,110.379,41.250
'[09:38:53.626 20/12/1995]',0.021,-0.074,0.019,110.379,41.250
'[09:38:53.628 20/12/1995]',0.021,-0.074,0.019,110.379,41.250
'[09:38:53.630 20/12/1995]',0.021,-0.061,0.028,110.379,41.250
'[09:38:53.632 20/12/1995]',0.021,-0.049,0.028,109.953,41.050
'[09:38:53.634 20/12/1995]',0.021,-0.036,0.037,109.953,41.050
'[09:38:53.636 20/12/1995]',0.021,0.001,0.056,109.953,41.050
'[09:38:53.638 20/12/1995]',0.021,0.051,0.074,109.953,41.050
'[09:38:53.640 20/12/1995]',0.042,0.101,0.083,109.384,40.475
'[09:38:53.642 20/12/1995]',0.042,0.101,0.092,109.384,40.475
'[09:38:53.644 20/12/1995]',0.062,0.101,0.092,109.384,40.475
'[09:38:53.646 20/12/1995]',0.062,0.101,0.102,109.384,40.475
'[09:38:53.648 20/12/1995]',0.083,0.188,0.138,108.720,39.600
'[09:38:53.650 20/12/1995]',0.062,0.275,0.175,108.720,39.600
'[09:38:53.652 20/12/1995]',0.083,0.313,0.184,108.720,39.600
'[09:38:53.654 20/12/1995]',0.083,0.238,0.165,108.720,39.600
'[09:38:53.656 20/12/1995]',0.083,0.101,0.120,108.009,38.500
'[09:38:53.658 20/12/1995]',0.083,-0.024,0.074,108.009,38.500
'[09:38:53.660 20/12/1995]',0.083,-0.111,0.028,108.009,38.500
'[09:38:53.662 20/12/1995]',0.062,-0.186,0.001,108.009,38.500
'[09:38:53.664 20/12/1995]',0.062,-0.236,-0.027,107.062,37.325
'[09:38:53.666 20/12/1995]',0.021,-0.248,-0.045,107.062,37.325
'[09:38:53.668 20/12/1995]',0.002,-0.248,-0.064,107.062,37.325
'[09:38:53.670 20/12/1995]',0.002,-0.223,-0.054,107.062,37.325
'[09:38:53.672 20/12/1995]',-0.019,-0.186,-0.045,106.019,36.100
'[09:38:53.674 20/12/1995]',0.002,-0.174,-0.027,106.019,36.100
'[09:38:53.676 20/12/1995]',0.002,-0.124,0.001,106.019,36.100
'[09:38:53.678 20/12/1995]',0.002,-0.074,0.019,106.019,36.100
'[09:38:53.680 20/12/1995]',0.021,-0.061,0.028,104.787,34.575
'[09:38:53.682 20/12/1995]',0.042,-0.024,0.046,104.787,34.575
'[09:38:53.684 20/12/1995]',0.042,-0.024,0.046,104.787,34.575
'[09:38:53.686 20/12/1995]',0.042,-0.049,0.037,104.787,34.575
'[09:38:53.688 20/12/1995]',0.021,-0.049,0.019,103.412,32.575
'[09:38:53.690 20/12/1995]',0.002,-0.049,0.010,103.412,32.575
'[09:38:53.692 20/12/1995]',0.002,-0.011,0.010,103.412,32.575
'[09:38:53.694 20/12/1995]',-0.019,0.001,0.010,103.412,32.575
'[09:38:53.696 20/12/1995]',-0.019,-0.011,0.001,101.801,30.300
'[09:38:53.698 20/12/1995]',-0.019,-0.024,0.010,101.801,30.300
'[09:38:53.700 20/12/1995]',-0.039,0.001,0.028,101.801,30.300
'[09:38:53.702 20/12/1995]',-0.039,0.026,0.056,101.801,30.300
'[09:38:53.704 20/12/1995]',-0.039,0.026,0.065,100.095,28.525
'[09:38:53.706 20/12/1995]',-0.039,0.026,0.074,100.095,28.525
'[09:38:53.708 20/12/1995]',-0.039,0.051,0.083,100.095,28.525
'[09:38:53.710 20/12/1995]',-0.039,0.076,0.083,100.095,28.525
'[09:38:53.712 20/12/1995]',-0.039,0.088,0.083,98.483,28.175
'[09:38:53.714 20/12/1995]',-0.019,0.076,0.074,98.483,28.175
'[09:38:53.716 20/12/1995]',-0.019,0.088,0.083,98.483,28.175
'[09:38:53.718 20/12/1995]',0.002,0.038,0.065,98.483,28.175
'[09:38:53.720 20/12/1995]',0.002,0.001,0.056,97.062,29.350
'[09:38:53.722 20/12/1995]',0.002,0.001,0.056,97.062,29.350
'[09:38:53.724 20/12/1995]',0.002,0.013,0.056,97.062,29.350
'[09:38:53.726 20/12/1995]',0.002,0.026,0.065,97.062,29.350
'[09:38:53.728 20/12/1995]',-0.019,0.026,0.065,95.735,31.350
'[09:38:53.730 20/12/1995]',0.002,0.051,0.074,95.735,31.350
'[09:38:53.732 20/12/1995]',0.002,0.051,0.083,95.735,31.350
'[09:38:53.734 20/12/1995]',0.002,0.051,0.083,95.735,31.350
'[09:38:53.736 20/12/1995]',0.002,0.038,0.083,94.739,33.225
'[09:38:53.738 20/12/1995]',0.002,0.013,0.065,94.739,33.225
'[09:38:53.740 20/12/1995]',0.002,0.013,0.065,94.739,33.225
'[09:38:53.742 20/12/1995]',0.002,0.001,0.074,94.739,33.225
'[09:38:53.744 20/12/1995]',0.002,0.001,0.065,94.028,34.400
'[09:38:53.746 20/12/1995]',0.002,-0.024,0.056,94.028,34.400
'[09:38:53.748 20/12/1995]',0.002,-0.011,0.065,94.028,34.400
'[09:38:53.750 20/12/1995]',0.002,-0.024,0.065,94.028,34.400
'[09:38:53.752 20/12/1995]',0.002,-0.011,0.074,93.744,34.750
'[09:38:53.754 20/12/1995]',0.002,0.001,0.083,93.744,34.750
'[09:38:53.756 20/12/1995]',0.002,0.001,0.083,93.744,34.750
'[09:38:53.758 20/12/1995]',0.021,0.001,0.083,93.744,34.750
'[09:38:53.760 20/12/1995]',0.042,0.001,0.092,93.791,34.450
'[09:38:53.762 20/12/1995]',0.062,0.013,0.102,93.791,34.450
'[09:38:53.764 20/12/1995]',0.083,0.013,0.102,93.791,34.450
'[09:38:53.766 20/12/1995]',0.062,0.013,0.102,93.791,34.450
'[09:38:53.768 20/12/1995]',0.042,0.013,0.083,94.171,33.625
'[09:38:53.770 20/12/1995]',0.002,0.026,0.074,94.171,33.625
'[09:38:53.772 20/12/1995]',-0.019,0.038,0.056,94.171,33.625
'[09:38:53.774 20/12/1995]',-0.060,0.038,0.056,94.171,33.625
'[09:38:53.776 20/12/1995]',-0.060,0.051,0.056,94.882,32.575
'[09:38:53.778 20/12/1995]',-0.060,0.063,0.065,94.882,32.575
'[09:38:53.780 20/12/1995]',-0.060,0.063,0.083,94.882,32.575
'[09:38:53.782 20/12/1995]',-0.060,0.051,0.083,94.882,32.575
'[09:38:53.784 20/12/1995]',-0.019,0.051,0.083,95.829,31.525
'[09:38:53.786 20/12/1995]',0.002,0.051,0.102,95.829,31.525
'[09:38:53.788 20/12/1995]',0.002,0.126,0.129,95.829,31.525
'[09:38:53.790 20/12/1995]',0.002,0.225,0.165,95.829,31.525
'[09:38:53.792 20/12/1995]',-0.019,0.338,0.193,97.014,30.650
'[09:38:53.794 20/12/1995]',-0.060,0.412,0.211,97.014,30.650
'[09:38:53.796 20/12/1995]',-0.080,0.400,0.193,97.014,30.650
'[09:38:53.798 20/12/1995]',-0.101,0.300,0.165,97.014,30.650
'[09:38:53.800 20/12/1995]',-0.080,0.126,0.102,98.294,30.050
'[09:38:53.802 20/12/1995]',-0.060,-0.049,0.046,98.294,30.050
'[09:38:53.804 20/12/1995]',-0.039,-0.161,0.010,98.294,30.050
'[09:38:53.806 20/12/1995]',-0.019,-0.223,0.001,98.294,30.050
'[09:38:53.808 20/12/1995]',0.002,-0.236,-0.008,99.621,29.700
'[09:38:53.810 20/12/1995]',0.002,-0.223,-0.008,99.621,29.700
'[09:38:53.812 20/12/1995]',0.002,-0.211,0.001,99.621,29.700
'[09:38:53.814 20/12/1995]',0.002,-0.174,0.001,99.621,29.700
'[09:38:53.816 20/12/1995]',0.002,-0.124,0.001,100.948,29.600
'[09:38:53.818 20/12/1995]',0.002,-0.074,0.010,100.948,29.600
'[09:38:53.820 20/12/1995]',0.002,-0.049,0.010,100.948,29.600
'[09:38:53.822 20/12/1995]',0.021,-0.049,0.019,100.948,29.600
'[09:38:53.824 20/12/1995]',0.042,-0.049,0.019,102.180,29.600
'[09:38:53.826 20/12/1995]',0.062,-0.049,0.019,102.180,29.600
'[09:38:53.828 20/12/1995]',0.083,-0.049,0.010,102.180,29.600
'[09:38:53.830 20/12/1995]',0.083,-0.061,0.010,102.180,29.600
'[09:38:53.832 20/12/1995]',0.083,-0.061,0.010,103.318,29.875
'[09:38:53.834 20/12/1995]',0.042,-0.061,0.001,103.318,29.875
'[09:38:53.836 20/12/1995]',0.002,-0.049,0.019,103.318,29.875
'[09:38:53.838 20/12/1995]',-0.039,-0.036,0.019,103.318,29.875
'[09:38:53.840 20/12/1995]',-0.060,-0.024,0.037,104.408,30.300
'[09:38:53.842 20/12/1995]',-0.060,-0.011,0.046,104.408,30.300
'[09:38:53.844 20/12/1995]',-0.039,-0.011,0.046,104.408,30.300
'[09:38:53.846 20/12/1995]',-0.039,0.001,0.046,104.408,30.300
'[09:38:53.848 20/12/1995]',-0.019,0.001,0.046,105.355,30.700
'[09:38:53.850 20/12/1995]',-0.019,0.013,0.037,105.355,30.700
'[09:38:53.852 20/12/1995]',0.002,0.013,0.028,105.355,30.700
'[09:38:53.854 20/12/1995]',0.002,0.001,0.028,105.355,30.700
'[09:38:53.856 20/12/1995]',0.021,0.001,0.028,106.209,31.125
'[09:38:53.858 20/12/1995]',0.021,0.001,0.028,106.209,31.125
'[09:38:53.860 20/12/1995]',0.042,0.001,0.028,106.209,31.125
'[09:38:53.862 20/12/1995]',0.062,0.001,0.019,106.209,31.125
'[09:38:53.864 20/12/1995]',0.062,0.013,0.028,107.062,31.475
'[09:38:53.866 20/12/1995]',0.042,0.001,0.028,107.062,31.475
'[09:38:53.868 20/12/1995]',0.021,0.001,0.028,107.062,31.475
'[09:38:53.870 20/12/1995]',0.021,0.001,0.028,107.062,31.475
'[09:38:53.872 20/12/1995]',0.002,0.001,0.019,107.773,31.575
'[09:38:53.874 20/12/1995]',0.002,0.001,0.028,107.773,31.575
'[09:38:53.876 20/12/1995]',0.002,0.013,0.028,107.773,31.575
'[09:38:53.878 20/12/1995]',0.002,0.051,0.037,107.773,31.575
'[09:38:53.880 20/12/1995]',0.002,0.101,0.065,108.389,31.475
'[09:38:53.882 20/12/1995]',0.002,0.151,0.074,108.389,31.475
'[09:38:53.884 20/12/1995]',0.002,0.176,0.083,108.389,31.475
'[09:38:53.886 20/12/1995]',0.021,0.163,0.083,108.389,31.475
'[09:38:53.888 20/12/1995]',0.062,0.101,0.065,108.768,31.000
'[09:38:53.890 20/12/1995]',0.083,0.051,0.056,108.768,31.000
'[09:38:53.892 20/12/1995]',0.124,0.001,0.046,108.768,31.000
'[09:38:53.894 20/12/1995]',0.165,-0.049,0.028,108.768,31.000
'[09:38:53.896 20/12/1995]',0.185,-0.061,0.028,108.957,30.300
'[09:38:53.898 20/12/1995]',0.165,-0.024,0.046,108.957,30.300
'[09:38:53.900 20/12/1995]',0.144,-0.011,0.037,108.957,30.300
'[09:38:53.902 20/12/1995]',0.103,-0.024,0.019,108.957,30.300
'[09:38:53.904 20/12/1995]',0.062,-0.049,0.001,109.005,29.525
'[09:38:53.906 20/12/1995]',0.021,-0.061,-0.008,109.005,29.525
'[09:38:53.908 20/12/1995]',0.002,-0.074,-0.018,109.005,29.525
'[09:38:53.910 20/12/1995]',0.002,-0.074,-0.018,109.005,29.525
'[09:38:53.912 20/12/1995]',0.021,-0.099,-0.027,108.910,28.825
'[09:38:53.914 20/12/1995]',0.021,-0.099,-0.018,108.910,28.825
'[09:38:53.916 20/12/1995]',0.021,-0.086,-0.018,108.910,28.825
'[09:38:53.918 20/12/1995]',0.021,-0.074,-0.008,108.910,28.825
'[09:38:53.920 20/12/1995]',0.021,-0.074,0.001,108.626,28.175
'[09:38:53.922 20/12/1995]',0.021,-0.074,0.001,108.626,28.175
