'Time and date','II ','I ','V ','ABP ','PLETH ','RESP '
'hh:mm:ss.mmm dd/mm/yyyy','mV','mV','mV','mmHg','mV','mV'
'[13:21:42.000 30/01/1995]',0.114,-0.062,0.225,67.586,0.000,-0.552
'[13:21:42.002 30/01/1995]',0.114,-0.062,0.225,67.586,0.000,-0.552
'[13:21:42.004 30/01/1995]',0.133,-0.062,0.225,67.586,0.000,-0.552
'[13:21:42.006 30/01/1995]',0.133,-0.062,0.257,67.586,0.000,-0.552
'[13:21:42.008 30/01/1995]',0.114,-0.062,0.225,67.183,0.000,-0.551
'[13:21:42.010 30/01/1995]',0.133,-0.062,0.225,67.183,0.000,-0.551
'[13:21:42.012 30/01/1995]',0.133,-0.062,0.225,67.183,0.000,-0.551
'[13:21:42.014 30/01/1995]',0.114,-0.062,0.225,67.183,0.000,-0.551
'[13:21:42.016 30/01/1995]',0.114,-0.030,0.225,66.722,0.000,-0.550
'[13:21:42.018 30/01/1995]',0.133,-0.030,0.225,66.722,0.000,-0.550
'[13:21:42.020 30/01/1995]',0.133,-0.030,0.225,66.722,0.000,-0.550
'[13:21:42.022 30/01/1995]',0.133,-0.030,0.225,66.722,0.000,-0.550
'[13:21:42.024 30/01/1995]',0.133,-0.030,0.225,66.261,0.000,-0.549
'[13:21:42.026 30/01/1995]',0.133,-0.030,0.225,66.261,0.000,-0.549
'[13:21:42.028 30/01/1995]',0.133,-0.030,0.225,66.261,0.000,-0.549
'[13:21:42.030 30/01/1995]',0.133,-0.030,0.225,66.261,0.000,-0.549
'[13:21:42.032 30/01/1995]',0.133,-0.030,0.225,65.800,0.000,-0.547
'[13:21:42.034 30/01/1995]',0.133,-0.030,0.225,65.800,0.000,-0.547
'[13:21:42.036 30/01/1995]',0.133,-0.030,0.225,65.800,0.000,-0.547
'[13:21:42.038 30/01/1995]',0.133,-0.030,0.225,65.800,0.000,-0.547
'[13:21:42.040 30/01/1995]',0.133,-0.030,0.225,65.454,0.000,-0.545
'[13:21:42.042 30/01/1995]',0.133,-0.030,0.225,65.454,0.000,-0.545
'[13:21:42.044 30/01/1995]',0.133,0.003,0.257,65.454,0.000,-0.545
'[13:21:42.046 30/01/1995]',0.133,0.003,0.225,65.454,0.000,-0.545
'[13:21:42.048 30/01/1995]',0.133,0.003,0.225,65.166,0.000,-0.543
'[13:21:42.050 30/01/1995]',0.133,0.003,0.225,65.166,0.000,-0.543
'[13:21:42.052 30/01/1995]',0.133,0.003,0.225,65.166,0.000,-0.543
'[13:21:42.054 30/01/1995]',0.133,0.003,0.225,65.166,0.000,-0.543
'[13:21:42.056 30/01/1995]',0.133,0.003,0.225,64.993,0.000,-0.541
'[13:21:42.058 30/01/1995]',0.152,0.003,0.225,64.993,0.000,-0.541
'[13:21:42.060 30/01/1995]',0.133,0.003,0.225,64.993,0.000,-0.541
'[13:21:42.062 30/01/1995]',0.133,0.003,0.225,64.993,0.000,-0.541
'[13:21:42.064 30/01/1995]',0.133,0.003,0.225,65.051,0.000,-0.538
'[13:21:42.066 30/01/1995]',0.133,0.003,0.257,65.051,0.000,-0.538
'[13:21:42.068 30/01/1995]',0.133,0.003,0.225,65.051,0.000,-0.538
'[13:21:42.070 30/01/1995]',0.133,0.003,0.225,65.051,0.000,-0.538
'[13:21:42.072 30/01/1995]',0.152,0.034,0.225,65.397,0.000,-0.536
'[13:21:42.074 30/01/1995]',0.171,0.034,0.225,65.397,0.000,-0.536
'[13:21:42.076 30/01/1995]',0.171,0.034,0.225,65.397,0.000,-0.536
'[13:21:42.078 30/01/1995]',0.171,0.034,0.225,65.397,0.000,-0.536
'[13:21:42.080 30/01/1995]',0.152,0.034,0.225,66.376,0.000,-0.533
'[13:21:42.082 30/01/1995]',0.152,0.034,0.225,66.376,0.000,-0.533
'[13:21:42.084 30/01/1995]',0.152,0.034,0.225,66.376,0.000,-0.533
'[13:21:42.086 30/01/1995]',0.152,0.067,0.225,66.376,0.000,-0.533
'[13:21:42.088 30/01/1995]',0.171,0.067,0.225,68.278,0.000,-0.530
'[13:21:42.090 30/01/1995]',0.190,0.099,0.225,68.278,0.000,-0.530
'[13:21:42.092 30/01/1995]',0.209,0.099,0.257,68.278,0.000,-0.530
'[13:21:42.094 30/01/1995]',0.228,0.132,0.225,68.278,0.000,-0.530
'[13:21:42.096 30/01/1995]',0.247,0.165,0.257,71.447,0.000,-0.526
'[13:21:42.098 30/01/1995]',0.247,0.197,0.257,71.447,0.000,-0.526
'[13:21:42.100 30/01/1995]',0.247,0.197,0.257,71.447,0.000,-0.526
'[13:21:42.102 30/01/1995]',0.228,0.165,0.225,71.447,0.000,-0.526
'[13:21:42.104 30/01/1995]',0.228,0.165,0.225,75.941,0.000,-0.522
'[13:21:42.106 30/01/1995]',0.209,0.165,0.225,75.941,0.000,-0.522
'[13:21:42.108 30/01/1995]',0.190,0.132,0.193,75.941,0.000,-0.522
'[13:21:42.110 30/01/1995]',0.152,0.099,0.193,75.941,0.000,-0.522
'[13:21:42.112 30/01/1995]',0.114,0.067,0.193,81.645,0.000,-0.518
'[13:21:42.114 30/01/1995]',0.077,0.034,0.161,81.645,0.000,-0.518
'[13:21:42.116 30/01/1995]',0.058,0.034,0.193,81.645,0.000,-0.518
'[13:21:42.118 30/01/1995]',0.039,0.003,0.161,81.645,0.000,-0.518
'[13:21:42.120 30/01/1995]',0.020,0.003,0.161,88.156,0.000,-0.513
'[13:21:42.122 30/01/1995]',0.020,0.003,0.161,88.156,0.000,-0.513
'[13:21:42.124 30/01/1995]',0.020,0.003,0.161,88.156,0.000,-0.513
'[13:21:42.126 30/01/1995]',0.020,0.034,0.161,88.156,0.000,-0.513
'[13:21:42.128 30/01/1995]',0.039,0.034,0.097,94.897,0.000,-0.506
'[13:21:42.130 30/01/1995]',0.039,0.067,0.097,94.897,0.000,-0.506
'[13:21:42.132 30/01/1995]',0.058,0.067,0.161,94.897,0.000,-0.506
'[13:21:42.134 30/01/1995]',0.058,0.067,0.161,94.897,0.000,-0.506
'[13:21:42.136 30/01/1995]',0.077,0.099,0.161,101.351,0.000,-0.497
'[13:21:42.138 30/01/1995]',0.077,0.099,0.097,101.351,0.000,-0.497
'[13:21:42.140 30/01/1995]',0.077,0.099,0.065,101.351,0.000,-0.497
'[13:21:42.142 30/01/1995]',0.096,0.099,0.161,101.351,0.000,-0.497
'[13:21:42.144 30/01/1995]',0.096,0.132,0.097,107.055,0.000,-0.486
'[13:21:42.146 30/01/1995]',0.096,0.132,0.097,107.055,0.000,-0.486
'[13:21:42.148 30/01/1995]',0.096,0.132,0.065,107.055,0.000,-0.486
'[13:21:42.150 30/01/1995]',0.096,0.132,0.065,107.055,0.000,-0.486
'[13:21:42.152 30/01/1995]',0.096,0.165,0.065,111.664,0.000,-0.473
'[13:21:42.154 30/01/1995]',0.096,0.165,0.065,111.664,0.000,-0.473
'[13:21:42.156 30/01/1995]',0.096,0.165,0.065,111.664,0.000,-0.473
'[13:21:42.158 30/01/1995]',0.114,0.165,0.065,111.664,0.000,-0.473
'[13:21:42.160 30/01/1995]',0.114,0.165,0.065,115.064,0.000,-0.459
'[13:21:42.162 30/01/1995]',0.114,0.165,0.033,115.064,0.000,-0.459
'[13:21:42.164 30/01/1995]',0.114,0.165,0.033,115.064,0.000,-0.459
'[13:21:42.166 30/01/1995]',0.114,0.197,0.065,115.064,0.000,-0.459
'[13:21:42.168 30/01/1995]',0.114,0.165,0.033,117.196,0.000,-0.444
'[13:21:42.170 30/01/1995]',0.114,0.197,0.033,117.196,0.000,-0.444
'[13:21:42.172 30/01/1995]',0.114,0.197,0.033,117.196,0.000,-0.444
'[13:21:42.174 30/01/1995]',0.114,0.197,0.033,117.196,0.000,-0.444
'[13:21:42.176 30/01/1995]',0.114,0.165,0.033,118.233,0.000,-0.427
'[13:21:42.178 30/01/1995]',0.114,0.165,0.003,118.233,0.000,-0.427
'[13:21:42.180 30/01/1995]',0.096,0.165,0.033,118.233,0.000,-0.427
'[13:21:42.182 30/01/1995]',0.096,0.132,0.003,118.233,0.000,-0.427
'[13:21:42.184 30/01/1995]',0.096,0.132,0.033,118.233,0.000,-0.409
'[13:21:42.186 30/01/1995]',0.096,0.132,0.003,118.233,0.000,-0.409
'[13:21:42.188 30/01/1995]',0.114,0.132,0.003,118.233,0.000,-0.409
'[13:21:42.190 30/01/1995]',0.114,0.099,0.003,118.233,0.000,-0.409
'[13:21:42.192 30/01/1995]',0.114,0.099,0.003,117.484,0.000,-0.392
'[13:21:42.194 30/01/1995]',0.096,0.067,0.003,117.484,0.000,-0.392
'[13:21:42.196 30/01/1995]',0.096,0.067,0.003,117.484,0.000,-0.392
'[13:21:42.198 30/01/1995]',0.096,0.067,0.003,117.484,0.000,-0.392
'[13:21:42.200 30/01/1995]',0.096,0.034,0.003,116.158,0.000,-0.374
'[13:21:42.202 30/01/1995]',0.096,0.034,0.003,116.158,0.000,-0.374
'[13:21:42.204 30/01/1995]',0.096,0.034,0.003,116.158,0.000,-0.374
'[13:21:42.206 30/01/1995]',0.096,0.003,0.003,116.158,0.000,-0.374
'[13:21:42.208 30/01/1995]',0.096,0.003,0.003,114.372,0.000,-0.356
'[13:21:42.210 30/01/1995]',0.077,0.003,0.003,114.372,0.000,-0.356
'[13:21:42.212 30/01/1995]',0.077,0.003,0.003,114.372,0.000,-0.356
'[13:21:42.214 30/01/1995]',0.077,0.003,0.003,114.372,0.000,-0.356
'[13:21:42.216 30/01/1995]',0.077,0.003,0.003,112.471,0.000,-0.340
'[13:21:42.218 30/01/1995]',0.058,-0.030,0.003,112.471,0.000,-0.340
'[13:21:42.220 30/01/1995]',0.058,-0.030,0.003,112.471,0.000,-0.340
'[13:21:42.222 30/01/1995]',0.077,-0.030,0.003,112.471,0.000,-0.340
'[13:21:42.224 30/01/1995]',0.077,-0.030,0.003,110.397,0.000,-0.323
'[13:21:42.226 30/01/1995]',0.077,-0.030,0.003,110.397,0.000,-0.323
'[13:21:42.228 30/01/1995]',0.058,-0.062,0.003,110.397,0.000,-0.323
'[13:21:42.230 30/01/1995]',0.058,-0.062,0.003,110.397,0.000,-0.323
'[13:21:42.232 30/01/1995]',0.039,-0.062,0.003,108.322,0.000,-0.305
'[13:21:42.234 30/01/1995]',0.039,-0.062,0.003,108.322,0.000,-0.305
'[13:21:42.236 30/01/1995]',0.039,-0.062,0.003,108.322,0.000,-0.305
'[13:21:42.238 30/01/1995]',0.039,-0.062,0.003,108.322,0.000,-0.305
'[13:21:42.240 30/01/1995]',0.058,-0.062,0.003,106.306,0.000,-0.288
'[13:21:42.242 30/01/1995]',0.058,-0.062,0.003,106.306,0.000,-0.288
'[13:21:42.244 30/01/1995]',0.058,-0.095,0.003,106.306,0.000,-0.288
'[13:21:42.246 30/01/1995]',0.039,-0.095,0.003,106.306,0.000,-0.288
'[13:21:42.248 30/01/1995]',0.020,-0.095,0.003,104.347,0.000,-0.271
'[13:21:42.250 30/01/1995]',0.020,-0.095,0.003,104.347,0.000,-0.271
'[13:21:42.252 30/01/1995]',0.039,-0.095,0.003,104.347,0.000,-0.271
'[13:21:42.254 30/01/1995]',0.039,-0.095,0.003,104.347,0.000,-0.271
'[13:21:42.256 30/01/1995]',0.039,-0.095,0.003,102.388,0.000,-0.254
'[13:21:42.258 30/01/1995]',0.039,-0.095,0.003,102.388,0.000,-0.254
'[13:21:42.260 30/01/1995]',0.039,-0.095,0.003,102.388,0.000,-0.254
'[13:21:42.262 30/01/1995]',0.039,-0.095,0.003,102.388,0.000,-0.254
'[13:21:42.264 30/01/1995]',0.039,-0.095,0.003,100.544,0.000,-0.236
'[13:21:42.266 30/01/1995]',0.020,-0.095,0.003,100.544,0.000,-0.236
'[13:21:42.268 30/01/1995]',0.020,-0.062,0.003,100.544,0.000,-0.236
'[13:21:42.270 30/01/1995]',0.020,-0.095,0.003,100.544,0.000,-0.236
'[13:21:42.272 30/01/1995]',0.039,-0.095,0.003,98.758,0.000,-0.220
'[13:21:42.274 30/01/1995]',0.020,-0.095,0.003,98.758,0.000,-0.220
'[13:21:42.276 30/01/1995]',0.020,-0.095,0.003,98.758,0.000,-0.220
'[13:21:42.278 30/01/1995]',0.020,-0.095,0.003,98.758,0.000,-0.220
'[13:21:42.280 30/01/1995]',0.020,-0.095,0.003,96.972,0.000,-0.203
'[13:21:42.282 30/01/1995]',0.020,-0.095,0.003,96.972,0.000,-0.203
'[13:21:42.284 30/01/1995]',0.020,-0.095,0.003,96.972,0.000,-0.203
'[13:21:42.286 30/01/1995]',0.020,-0.095,0.003,96.972,0.000,-0.203
'[13:21:42.288 30/01/1995]',0.020,-0.095,0.003,95.185,0.000,-0.186
'[13:21:42.290 30/01/1995]',0.039,-0.095,0.003,95.185,0.000,-0.186
'[13:21:42.292 30/01/1995]',0.039,-0.062,0.003,95.185,0.000,-0.186
'[13:21:42.294 30/01/1995]',0.039,-0.062,0.003,95.185,0.000,-0.186
'[13:21:42.296 30/01/1995]',0.039,-0.062,0.003,93.399,0.000,-0.169
'[13:21:42.298 30/01/1995]',0.039,-0.095,0.003,93.399,0.000,-0.169
'[13:21:42.300 30/01/1995]',0.020,-0.095,0.003,93.399,0.000,-0.169
'[13:21:42.302 30/01/1995]',0.020,-0.095,0.003,93.399,0.000,-0.169
'[13:21:42.304 30/01/1995]',0.039,-0.062,0.003,91.555,0.000,-0.150
'[13:21:42.306 30/01/1995]',0.039,-0.062,0.003,91.555,0.000,-0.150
'[13:21:42.308 30/01/1995]',0.039,-0.062,0.003,91.555,0.000,-0.150
'[13:21:42.310 30/01/1995]',0.039,-0.095,0.003,91.555,0.000,-0.150
'[13:21:42.312 30/01/1995]',0.039,-0.062,0.003,89.712,0.000,-0.131
'[13:21:42.314 30/01/1995]',0.039,-0.062,0.003,89.712,0.000,-0.131
'[13:21:42.316 30/01/1995]',0.039,-0.062,0.003,89.712,0.000,-0.131
'[13:21:42.318 30/01/1995]',0.039,-0.062,0.033,89.712,0.000,-0.131
'[13:21:42.320 30/01/1995]',0.039,-0.062,0.003,87.810,0.000,-0.111
'[13:21:42.322 30/01/1995]',0.039,-0.062,0.003,87.810,0.000,-0.111
'[13:21:42.324 30/01/1995]',0.039,-0.062,0.003,87.810,0.000,-0.111
'[13:21:42.326 30/01/1995]',0.039,-0.062,0.003,87.810,0.000,-0.111
'[13:21:42.328 30/01/1995]',0.039,-0.062,0.003,86.024,0.000,-0.089
'[13:21:42.330 30/01/1995]',0.039,-0.062,0.003,86.024,0.000,-0.089
'[13:21:42.332 30/01/1995]',0.039,-0.062,0.003,86.024,0.000,-0.089
'[13:21:42.334 30/01/1995]',0.039,-0.062,0.003,86.024,0.000,-0.089
'[13:21:42.336 30/01/1995]',0.039,-0.062,0.033,84.296,0.000,-0.067
'[13:21:42.338 30/01/1995]',0.039,-0.062,0.003,84.296,0.000,-0.067
'[13:21:42.340 30/01/1995]',0.039,-0.062,0.003,84.296,0.000,-0.067
'[13:21:42.342 30/01/1995]',0.039,-0.062,0.003,84.296,0.000,-0.067
'[13:21:42.344 30/01/1995]',0.039,-0.062,0.003,82.797,0.000,-0.043
'[13:21:42.346 30/01/1995]',0.039,-0.062,0.033,82.797,0.000,-0.043
'[13:21:42.348 30/01/1995]',0.039,-0.062,0.003,82.797,0.000,-0.043
'[13:21:42.350 30/01/1995]',0.058,-0.030,0.033,82.797,0.000,-0.043
'[13:21:42.352 30/01/1995]',0.058,-0.030,0.003,81.587,0.000,-0.018
'[13:21:42.354 30/01/1995]',0.077,-0.030,0.033,81.587,0.000,-0.018
'[13:21:42.356 30/01/1995]',0.077,-0.030,0.033,81.587,0.000,-0.018
'[13:21:42.358 30/01/1995]',0.096,0.003,0.033,81.587,0.000,-0.018
'[13:21:42.360 30/01/1995]',0.114,0.003,0.033,80.781,0.000,0.004
'[13:21:42.362 30/01/1995]',0.114,0.003,0.033,80.781,0.000,0.004
'[13:21:42.364 30/01/1995]',0.133,0.003,0.033,80.781,0.000,0.004
'[13:21:42.366 30/01/1995]',0.152,0.034,0.033,80.781,0.000,0.004
'[13:21:42.368 30/01/1995]',0.133,0.034,0.033,80.262,0.000,0.026
'[13:21:42.370 30/01/1995]',0.133,0.003,0.033,80.262,0.000,0.026
'[13:21:42.372 30/01/1995]',0.114,0.003,0.033,80.262,0.000,0.026
'[13:21:42.374 30/01/1995]',0.077,-0.030,0.033,80.262,0.000,0.026
'[13:21:42.376 30/01/1995]',0.039,-0.062,0.003,80.032,0.000,0.048
'[13:21:42.378 30/01/1995]',0.020,-0.062,0.003,80.032,0.000,0.048
'[13:21:42.380 30/01/1995]',0.002,-0.062,0.003,80.032,0.000,0.048
'[13:21:42.382 30/01/1995]',0.002,-0.062,0.003,80.032,0.000,0.048
'[13:21:42.384 30/01/1995]',0.020,-0.030,0.003,80.089,0.000,0.069
'[13:21:42.386 30/01/1995]',0.058,-0.030,0.033,80.089,0.000,0.069
'[13:21:42.388 30/01/1995]',0.096,0.003,0.033,80.089,0.000,0.069
'[13:21:42.390 30/01/1995]',0.114,0.003,0.033,80.089,0.000,0.069
'[13:21:42.392 30/01/1995]',0.096,0.003,0.033,80.262,0.000,0.087
'[13:21:42.394 30/01/1995]',0.077,0.003,0.003,80.262,0.000,0.087
'[13:21:42.396 30/01/1995]',0.039,-0.030,0.003,80.262,0.000,0.087
'[13:21:42.398 30/01/1995]',0.002,-0.062,0.003,80.262,0.000,0.087
'[13:21:42.400 30/01/1995]',0.002,-0.095,0.003,80.550,0.000,0.105
'[13:21:42.402 30/01/1995]',-0.017,-0.128,0.003,80.550,0.000,0.105
'[13:21:42.404 30/01/1995]',-0.036,-0.128,0.003,80.550,0.000,0.105
'[13:21:42.406 30/01/1995]',-0.036,-0.128,0.003,80.550,0.000,0.105
'[13:21:42.408 30/01/1995]',-0.017,-0.128,0.003,80.896,0.000,0.121
'[13:21:42.410 30/01/1995]',-0.017,-0.128,0.003,80.896,0.000,0.121
'[13:21:42.412 30/01/1995]',-0.017,-0.128,0.003,80.896,0.000,0.121
'[13:21:42.414 30/01/1995]',-0.017,-0.095,0.003,80.896,0.000,0.121
'[13:21:42.416 30/01/1995]',-0.017,-0.095,0.003,81.127,0.000,0.137
'[13:21:42.418 30/01/1995]',-0.017,-0.095,0.003,81.127,0.000,0.137
'[13:21:42.420 30/01/1995]',0.002,-0.095,0.003,81.127,0.000,0.137
'[13:21:42.422 30/01/1995]',0.002,-0.095,0.003,81.127,0.000,0.137
'[13:21:42.424 30/01/1995]',0.002,-0.095,0.003,81.299,0.000,0.151
'[13:21:42.426 30/01/1995]',0.002,-0.095,0.003,81.299,0.000,0.151
'[13:21:42.428 30/01/1995]',0.002,-0.062,0.003,81.299,0.000,0.151
'[13:21:42.430 30/01/1995]',0.002,-0.062,0.003,81.299,0.000,0.151
'[13:21:42.432 30/01/1995]',0.002,-0.062,0.003,81.299,0.000,0.166
'[13:21:42.434 30/01/1995]',0.002,-0.062,0.003,81.299,0.000,0.166
'[13:21:42.436 30/01/1995]',0.002,-0.062,0.003,81.299,0.000,0.166
'[13:21:42.438 30/01/1995]',0.020,-0.062,0.003,81.299,0.000,0.166
'[13:21:42.440 30/01/1995]',0.039,-0.062,0.003,81.184,0.000,0.179
'[13:21:42.442 30/01/1995]',0.039,-0.062,0.003,81.184,0.000,0.179
'[13:21:42.444 30/01/1995]',0.039,-0.062,0.003,81.184,0.000,0.179
'[13:21:42.446 30/01/1995]',0.058,-0.062,0.003,81.184,0.000,0.179
'[13:21:42.448 30/01/1995]',0.058,-0.062,0.003,80.954,0.000,0.192
'[13:21:42.450 30/01/1995]',0.058,-0.062,0.003,80.954,0.000,0.192
'[13:21:42.452 30/01/1995]',0.058,-0.062,0.003,80.954,0.000,0.192
'[13:21:42.454 30/01/1995]',0.077,-0.062,0.033,80.954,0.000,0.192
'[13:21:42.456 30/01/1995]',0.096,-0.030,0.003,80.550,0.000,0.203
'[13:21:42.458 30/01/1995]',0.114,-0.030,0.033,80.550,0.000,0.203
'[13:21:42.460 30/01/1995]',0.114,-0.030,0.003,80.550,0.000,0.203
'[13:21:42.462 30/01/1995]',0.114,-0.030,0.033,80.550,0.000,0.203
'[13:21:42.464 30/01/1995]',0.096,-0.030,0.003,80.147,0.000,0.212
'[13:21:42.466 30/01/1995]',0.096,-0.030,0.003,80.147,0.000,0.212
'[13:21:42.468 30/01/1995]',0.096,-0.030,0.003,80.147,0.000,0.212
'[13:21:42.470 30/01/1995]',0.096,-0.030,0.033,80.147,0.000,0.212
'[13:21:42.472 30/01/1995]',0.096,-0.030,0.003,79.571,0.000,0.222
'[13:21:42.474 30/01/1995]',0.114,-0.030,0.033,79.571,0.000,0.222
'[13:21:42.476 30/01/1995]',0.114,-0.030,0.003,79.571,0.000,0.222
'[13:21:42.478 30/01/1995]',0.114,-0.030,0.003,79.571,0.000,0.222
'[13:21:42.480 30/01/1995]',0.114,-0.030,0.033,78.995,0.000,0.230
'[13:21:42.482 30/01/1995]',0.114,0.003,0.033,78.995,0.000,0.230
'[13:21:42.484 30/01/1995]',0.114,0.003,0.033,78.995,0.000,0.230
'[13:21:42.486 30/01/1995]',0.114,0.003,0.003,78.995,0.000,0.230
'[13:21:42.488 30/01/1995]',0.114,0.003,0.003,78.418,0.000,0.236
'[13:21:42.490 30/01/1995]',0.114,0.003,0.003,78.418,0.000,0.236
'[13:21:42.492 30/01/1995]',0.114,0.003,0.003,78.418,0.000,0.236
'[13:21:42.494 30/01/1995]',0.114,0.003,0.003,78.418,0.000,0.236
'[13:21:42.496 30/01/1995]',0.096,0.003,0.003,77.785,0.000,0.241
'[13:21:42.498 30/01/1995]',0.077,0.003,0.003,77.785,0.000,0.241
'[13:21:42.500 30/01/1995]',0.058,0.003,0.003,77.785,0.000,0.241
'[13:21:42.502 30/01/1995]',0.039,0.003,0.003,77.785,0.000,0.241
'[13:21:42.504 30/01/1995]',0.020,0.003,0.003,77.209,0.000,0.246
'[13:21:42.506 30/01/1995]',0.002,0.003,0.003,77.209,0.000,0.246
'[13:21:42.508 30/01/1995]',0.002,0.003,-0.029,77.209,0.000,0.246
'[13:21:42.510 30/01/1995]',0.002,-0.030,0.003,77.209,0.000,0.246
'[13:21:42.512 30/01/1995]',0.002,-0.030,-0.029,76.632,0.000,0.251
'[13:21:42.514 30/01/1995]',0.002,-0.030,-0.029,76.632,0.000,0.251
'[13:21:42.516 30/01/1995]',0.002,-0.030,-0.029,76.632,0.000,0.251
'[13:21:42.518 30/01/1995]',0.002,-0.030,-0.029,76.632,0.000,0.251
'[13:21:42.520 30/01/1995]',0.002,-0.062,-0.029,76.056,0.000,0.256
'[13:21:42.522 30/01/1995]',0.002,-0.062,-0.029,76.056,0.000,0.256
'[13:21:42.524 30/01/1995]',0.002,-0.062,-0.029,76.056,0.000,0.256
'[13:21:42.526 30/01/1995]',0.002,-0.062,-0.029,76.056,0.000,0.256
'[13:21:42.528 30/01/1995]',0.002,-0.062,-0.029,75.538,0.000,0.262
'[13:21:42.530 30/01/1995]',0.002,-0.062,-0.029,75.538,0.000,0.262
'[13:21:42.532 30/01/1995]',-0.017,-0.062,-0.029,75.538,0.000,0.262
'[13:21:42.534 30/01/1995]',-0.017,-0.062,-0.029,75.538,0.000,0.262
'[13:21:42.536 30/01/1995]',-0.017,-0.062,-0.029,75.019,0.000,0.268
'[13:21:42.538 30/01/1995]',0.002,-0.062,-0.029,75.019,0.000,0.268
'[13:21:42.540 30/01/1995]',0.002,-0.062,-0.029,75.019,0.000,0.268
'[13:21:42.542 30/01/1995]',0.002,-0.062,-0.029,75.019,0.000,0.268
'[13:21:42.544 30/01/1995]',0.002,-0.062,-0.029,74.616,0.000,0.274
'[13:21:42.546 30/01/1995]',0.002,-0.062,-0.029,74.616,0.000,0.274
'[13:21:42.548 30/01/1995]',0.002,-0.030,-0.029,74.616,0.000,0.274
'[13:21:42.550 30/01/1995]',0.002,-0.030,-0.029,74.616,0.000,0.274
'[13:21:42.552 30/01/1995]',0.002,-0.030,-0.029,74.155,0.000,0.282
'[13:21:42.554 30/01/1995]',0.002,-0.030,-0.029,74.155,0.000,0.282
'[13:21:42.556 30/01/1995]',0.002,-0.030,-0.029,74.155,0.000,0.282
'[13:21:42.558 30/01/1995]',0.002,-0.030,-0.029,74.155,0.000,0.282
'[13:21:42.560 30/01/1995]',0.002,-0.030,-0.029,73.751,0.000,0.291
'[13:21:42.562 30/01/1995]',0.002,-0.030,-0.029,73.751,0.000,0.291
'[13:21:42.564 30/01/1995]',-0.017,-0.030,0.003,73.751,0.000,0.291
'[13:21:42.566 30/01/1995]',-0.017,-0.030,0.003,73.751,0.000,0.291
'[13:21:42.568 30/01/1995]',-0.017,-0.030,0.033,73.348,0.000,0.301
'[13:21:42.570 30/01/1995]',-0.017,-0.030,0.129,73.348,0.000,0.301
'[13:21:42.572 30/01/1995]',0.002,-0.030,0.161,73.348,0.000,0.301
'[13:21:42.574 30/01/1995]',0.002,-0.030,0.161,73.348,0.000,0.301
'[13:21:42.576 30/01/1995]',0.002,-0.030,0.129,72.945,0.000,0.311
'[13:21:42.578 30/01/1995]',0.002,0.003,0.065,72.945,0.000,0.311
'[13:21:42.580 30/01/1995]',0.002,0.003,0.003,72.945,0.000,0.311
'[13:21:42.582 30/01/1995]',0.002,0.003,-0.093,72.945,0.000,0.311
'[13:21:42.584 30/01/1995]',-0.017,0.034,-0.348,72.541,0.000,0.321
'[13:21:42.586 30/01/1995]',-0.093,0.067,-0.570,72.541,0.000,0.321
'[13:21:42.588 30/01/1995]',-0.150,0.132,-0.793,72.541,0.000,0.321
'[13:21:42.590 30/01/1995]',-0.188,0.197,-1.046,72.541,0.000,0.321
'[13:21:42.592 30/01/1995]',-0.281,0.263,-1.206,72.253,0.000,0.330
'[13:21:42.594 30/01/1995]',-0.376,0.328,-1.364,72.253,0.000,0.330
'[13:21:42.596 30/01/1995]',-0.509,0.393,-1.555,72.253,0.000,0.330
'[13:21:42.598 30/01/1995]',-0.602,0.426,-1.683,72.253,0.000,0.330
'[13:21:42.600 30/01/1995]',-0.735,0.426,-1.809,71.965,0.000,0.339
'[13:21:42.602 30/01/1995]',-0.829,0.458,-1.904,71.965,0.000,0.339
'[13:21:42.604 30/01/1995]',-0.886,0.458,-2.032,71.965,0.000,0.339
'[13:21:42.606 30/01/1995]',-0.942,0.490,-2.096,71.965,0.000,0.339
'[13:21:42.608 30/01/1995]',-0.961,0.555,-2.128,71.792,0.000,0.347
'[13:21:42.610 30/01/1995]',-0.942,0.588,-2.096,71.792,0.000,0.347
'[13:21:42.612 30/01/1995]',-0.886,0.620,-2.032,71.792,0.000,0.347
'[13:21:42.614 30/01/1995]',-0.829,0.620,-1.904,71.792,0.000,0.347
'[13:21:42.616 30/01/1995]',-0.716,0.588,-1.778,71.677,0.000,0.354
'[13:21:42.618 30/01/1995]',-0.602,0.522,-1.619,71.677,0.000,0.354
'[13:21:42.620 30/01/1995]',-0.509,0.426,-1.428,71.677,0.000,0.354
'[13:21:42.622 30/01/1995]',-0.414,0.328,-1.238,71.677,0.000,0.354
'[13:21:42.624 30/01/1995]',-0.338,0.230,-1.078,71.562,0.000,0.361
'[13:21:42.626 30/01/1995]',-0.281,0.197,-0.951,71.562,0.000,0.361
'[13:21:42.628 30/01/1995]',-0.207,0.165,-0.761,71.562,0.000,0.361
'[13:21:42.630 30/01/1995]',-0.169,0.132,-0.633,71.562,0.000,0.361
'[13:21:42.632 30/01/1995]',-0.112,0.099,-0.474,71.562,0.000,0.367
'[13:21:42.634 30/01/1995]',-0.074,0.067,-0.348,71.562,0.000,0.367
'[13:21:42.636 30/01/1995]',-0.036,0.067,-0.220,71.562,0.000,0.367
'[13:21:42.638 30/01/1995]',0.002,0.067,-0.157,71.562,0.000,0.367
'[13:21:42.640 30/01/1995]',0.002,0.034,-0.093,71.562,0.000,0.373
'[13:21:42.642 30/01/1995]',0.020,0.003,-0.029,71.562,0.000,0.373
'[13:21:42.644 30/01/1995]',0.020,0.003,0.003,71.562,0.000,0.373
'[13:21:42.646 30/01/1995]',0.002,0.003,0.033,71.562,0.000,0.373
'[13:21:42.648 30/01/1995]',0.020,-0.030,0.065,71.620,0.000,0.378
'[13:21:42.650 30/01/1995]',0.020,-0.030,0.097,71.620,0.000,0.378
'[13:21:42.652 30/01/1995]',0.020,-0.062,0.161,71.620,0.000,0.378
'[13:21:42.654 30/01/1995]',0.039,-0.062,0.161,71.620,0.000,0.378
'[13:21:42.656 30/01/1995]',0.039,-0.062,0.161,71.562,0.000,0.382
'[13:21:42.658 30/01/1995]',0.039,-0.062,0.193,71.562,0.000,0.382
'[13:21:42.660 30/01/1995]',0.039,-0.062,0.193,71.562,0.000,0.382
'[13:21:42.662 30/01/1995]',0.058,-0.062,0.193,71.562,0.000,0.382
'[13:21:42.664 30/01/1995]',0.039,-0.062,0.225,71.504,0.000,0.385
'[13:21:42.666 30/01/1995]',0.058,-0.062,0.225,71.504,0.000,0.385
'[13:21:42.668 30/01/1995]',0.039,-0.095,0.225,71.504,0.000,0.385
'[13:21:42.670 30/01/1995]',0.058,-0.062,0.225,71.504,0.000,0.385
'[13:21:42.672 30/01/1995]',0.058,-0.062,0.225,71.331,0.000,0.387
'[13:21:42.674 30/01/1995]',0.058,-0.062,0.225,71.331,0.000,0.387
'[13:21:42.676 30/01/1995]',0.058,-0.062,0.225,71.331,0.000,0.387
'[13:21:42.678 30/01/1995]',0.058,-0.062,0.225,71.331,0.000,0.387
'[13:21:42.680 30/01/1995]',0.058,-0.062,0.257,71.101,0.000,0.389
'[13:21:42.682 30/01/1995]',0.058,-0.062,0.257,71.101,0.000,0.389
'[13:21:42.684 30/01/1995]',0.058,-0.062,0.257,71.101,0.000,0.389
'[13:21:42.686 30/01/1995]',0.058,-0.062,0.257,71.101,0.000,0.389
'[13:21:42.688 30/01/1995]',0.058,-0.062,0.257,70.813,0.000,0.391
'[13:21:42.690 30/01/1995]',0.058,-0.062,0.257,70.813,0.000,0.391
'[13:21:42.692 30/01/1995]',0.058,-0.062,0.257,70.813,0.000,0.391
'[13:21:42.694 30/01/1995]',0.058,-0.062,0.257,70.813,0.000,0.391
'[13:21:42.696 30/01/1995]',0.058,-0.062,0.257,70.410,0.000,0.392
'[13:21:42.698 30/01/1995]',0.058,-0.062,0.257,70.410,0.000,0.392
'[13:21:42.700 30/01/1995]',0.058,-0.062,0.257,70.410,0.000,0.392
'[13:21:42.702 30/01/1995]',0.058,-0.062,0.257,70.410,0.000,0.392
'[13:21:42.704 30/01/1995]',0.058,-0.062,0.288,69.949,0.000,0.392
'[13:21:42.706 30/01/1995]',0.077,-0.062,0.288,69.949,0.000,0.392
'[13:21:42.708 30/01/1995]',0.077,-0.062,0.257,69.949,0.000,0.392
'[13:21:42.710 30/01/1995]',0.058,-0.062,0.257,69.949,0.000,0.392
'[13:21:42.712 30/01/1995]',0.058,-0.062,0.257,69.488,0.000,0.390
'[13:21:42.714 30/01/1995]',0.058,-0.062,0.288,69.488,0.000,0.390
'[13:21:42.716 30/01/1995]',0.058,-0.062,0.257,69.488,0.000,0.390
'[13:21:42.718 30/01/1995]',0.058,-0.030,0.257,69.488,0.000,0.390
'[13:21:42.720 30/01/1995]',0.077,-0.062,0.257,68.969,0.000,0.386
'[13:21:42.722 30/01/1995]',0.077,-0.030,0.257,68.969,0.000,0.386
'[13:21:42.724 30/01/1995]',0.077,-0.030,0.257,68.969,0.000,0.386
'[13:21:42.726 30/01/1995]',0.077,-0.030,0.257,68.969,0.000,0.386
'[13:21:42.728 30/01/1995]',0.077,-0.030,0.257,68.451,0.000,0.382
'[13:21:42.730 30/01/1995]',0.077,-0.030,0.257,68.451,0.000,0.382
'[13:21:42.732 30/01/1995]',0.077,-0.030,0.257,68.451,0.000,0.382
'[13:21:42.734 30/01/1995]',0.077,-0.030,0.257,68.451,0.000,0.382
'[13:21:42.736 30/01/1995]',0.077,-0.030,0.257,67.990,0.000,0.375
'[13:21:42.738 30/01/1995]',0.077,-0.030,0.257,67.990,0.000,0.375
'[13:21:42.740 30/01/1995]',0.077,-0.030,0.257,67.990,0.000,0.375
'[13:21:42.742 30/01/1995]',0.077,-0.030,0.257,67.990,0.000,0.375
'[13:21:42.744 30/01/1995]',0.077,-0.030,0.257,67.586,0.000,0.367
'[13:21:42.746 30/01/1995]',0.077,-0.030,0.257,67.586,0.000,0.367
'[13:21:42.748 30/01/1995]',0.077,-0.030,0.288,67.586,0.000,0.367
'[13:21:42.750 30/01/1995]',0.077,-0.030,0.288,67.586,0.000,0.367
'[13:21:42.752 30/01/1995]',0.077,-0.030,0.288,67.183,0.000,0.357
'[13:21:42.754 30/01/1995]',0.077,0.003,0.257,67.183,0.000,0.357
'[13:21:42.756 30/01/1995]',0.077,0.003,0.257,67.183,0.000,0.357
'[13:21:42.758 30/01/1995]',0.077,0.003,0.257,67.183,0.000,0.357
'[13:21:42.760 30/01/1995]',0.096,0.003,0.288,66.895,0.000,0.346
'[13:21:42.762 30/01/1995]',0.077,0.003,0.288,66.895,0.000,0.346
'[13:21:42.764 30/01/1995]',0.077,0.003,0.288,66.895,0.000,0.346
'[13:21:42.766 30/01/1995]',0.077,0.003,0.257,66.895,0.000,0.346
'[13:21:42.768 30/01/1995]',0.077,0.003,0.288,66.664,0.000,0.335
'[13:21:42.770 30/01/1995]',0.077,0.003,0.288,66.664,0.000,0.335
'[13:21:42.772 30/01/1995]',0.077,0.003,0.288,66.664,0.000,0.335
'[13:21:42.774 30/01/1995]',0.077,0.003,0.257,66.664,0.000,0.335
'[13:21:42.776 30/01/1995]',0.096,0.003,0.288,66.607,0.000,0.324
'[13:21:42.778 30/01/1995]',0.077,0.003,0.257,66.607,0.000,0.324
'[13:21:42.780 30/01/1995]',0.077,0.003,0.257,66.607,0.000,0.324
'[13:21:42.782 30/01/1995]',0.077,0.003,0.257,66.607,0.000,0.324
'[13:21:42.784 30/01/1995]',0.077,0.003,0.257,66.722,0.000,0.312
'[13:21:42.786 30/01/1995]',0.077,0.003,0.257,66.722,0.000,0.312
'[13:21:42.788 30/01/1995]',0.077,0.003,0.257,66.722,0.000,0.312
'[13:21:42.790 30/01/1995]',0.077,0.003,0.288,66.722,0.000,0.312
'[13:21:42.792 30/01/1995]',0.077,0.034,0.257,67.298,0.000,0.300
'[13:21:42.794 30/01/1995]',0.077,0.034,0.257,67.298,0.000,0.300
'[13:21:42.796 30/01/1995]',0.058,0.034,0.288,67.298,0.000,0.300
'[13:21:42.798 30/01/1995]',0.058,0.034,0.257,67.298,0.000,0.300
'[13:21:42.800 30/01/1995]',0.058,0.034,0.257,68.623,0.000,0.289
'[13:21:42.802 30/01/1995]',0.058,0.034,0.257,68.623,0.000,0.289
'[13:21:42.804 30/01/1995]',0.058,0.034,0.257,68.623,0.000,0.289
'[13:21:42.806 30/01/1995]',0.058,0.034,0.257,68.623,0.000,0.289
'[13:21:42.808 30/01/1995]',0.077,0.034,0.288,70.986,0.000,0.277
'[13:21:42.810 30/01/1995]',0.058,0.034,0.257,70.986,0.000,0.277
'[13:21:42.812 30/01/1995]',0.058,0.067,0.257,70.986,0.000,0.277
'[13:21:42.814 30/01/1995]',0.058,0.067,0.257,70.986,0.000,0.277
'[13:21:42.816 30/01/1995]',0.058,0.067,0.257,74.731,0.000,0.265
'[13:21:42.818 30/01/1995]',0.058,0.067,0.257,74.731,0.000,0.265
'[13:21:42.820 30/01/1995]',0.058,0.067,0.257,74.731,0.000,0.265
'[13:21:42.822 30/01/1995]',0.058,0.067,0.257,74.731,0.000,0.265
'[13:21:42.824 30/01/1995]',0.058,0.067,0.257,79.859,0.000,0.252
'[13:21:42.826 30/01/1995]',0.077,0.099,0.257,79.859,0.000,0.252
'[13:21:42.828 30/01/1995]',0.058,0.099,0.257,79.859,0.000,0.252
'[13:21:42.830 30/01/1995]',0.058,0.099,0.257,79.859,0.000,0.252
'[13:21:42.832 30/01/1995]',0.058,0.099,0.257,86.139,0.000,0.238
'[13:21:42.834 30/01/1995]',0.058,0.099,0.257,86.139,0.000,0.238
'[13:21:42.836 30/01/1995]',0.058,0.099,0.225,86.139,0.000,0.238
'[13:21:42.838 30/01/1995]',0.058,0.099,0.225,86.139,0.000,0.238
'[13:21:42.840 30/01/1995]',0.077,0.132,0.225,92.938,0.000,0.226
'[13:21:42.842 30/01/1995]',0.077,0.132,0.225,92.938,0.000,0.226
'[13:21:42.844 30/01/1995]',0.058,0.132,0.225,92.938,0.000,0.226
'[13:21:42.846 30/01/1995]',0.058,0.132,0.225,92.938,0.000,0.226
'[13:21:42.848 30/01/1995]',0.058,0.165,0.225,99.680,0.000,0.213
'[13:21:42.850 30/01/1995]',0.058,0.165,0.225,99.680,0.000,0.213
'[13:21:42.852 30/01/1995]',0.058,0.132,0.225,99.680,0.000,0.213
'[13:21:42.854 30/01/1995]',0.058,0.165,0.225,99.680,0.000,0.213
'[13:21:42.856 30/01/1995]',0.058,0.165,0.225,105.902,0.000,0.201
'[13:21:42.858 30/01/1995]',0.058,0.165,0.193,105.902,0.000,0.201
'[13:21:42.860 30/01/1995]',0.058,0.165,0.193,105.902,0.000,0.201
'[13:21:42.862 30/01/1995]',0.058,0.165,0.193,105.902,0.000,0.201
'[13:21:42.864 30/01/1995]',0.058,0.165,0.193,111.030,0.000,0.189
'[13:21:42.866 30/01/1995]',0.039,0.197,0.193,111.030,0.000,0.189
'[13:21:42.868 30/01/1995]',0.039,0.197,0.193,111.030,0.000,0.189
'[13:21:42.870 30/01/1995]',0.039,0.197,0.161,111.030,0.000,0.189
'[13:21:42.872 30/01/1995]',0.058,0.197,0.161,114.948,0.000,0.177
'[13:21:42.874 30/01/1995]',0.058,0.197,0.161,114.948,0.000,0.177
'[13:21:42.876 30/01/1995]',0.039,0.197,0.161,114.948,0.000,0.177
'[13:21:42.878 30/01/1995]',0.039,0.197,0.161,114.948,0.000,0.177
'[13:21:42.880 30/01/1995]',0.039,0.197,0.161,117.599,0.000,0.168
'[13:21:42.882 30/01/1995]',0.039,0.197,0.161,117.599,0.000,0.168
'[13:21:42.884 30/01/1995]',0.020,0.197,0.161,117.599,0.000,0.168
'[13:21:42.886 30/01/1995]',0.039,0.197,0.161,117.599,0.000,0.168
'[13:21:42.888 30/01/1995]',0.039,0.197,0.097,118.924,0.000,0.159
'[13:21:42.890 30/01/1995]',0.039,0.197,0.097,118.924,0.000,0.159
'[13:21:42.892 30/01/1995]',0.039,0.197,0.097,118.924,0.000,0.159
'[13:21:42.894 30/01/1995]',0.039,0.197,0.065,118.924,0.000,0.159
'[13:21:42.896 30/01/1995]',0.039,0.165,0.097,119.155,0.000,0.150
'[13:21:42.898 30/01/1995]',0.020,0.165,0.065,119.155,0.000,0.150
'[13:21:42.900 30/01/1995]',0.020,0.165,0.065,119.155,0.000,0.150
'[13:21:42.902 30/01/1995]',0.020,0.132,0.065,119.155,0.000,0.150
'[13:21:42.904 30/01/1995]',0.020,0.132,0.065,118.406,0.000,0.142
'[13:21:42.906 30/01/1995]',0.020,0.132,0.065,118.406,0.000,0.142
'[13:21:42.908 30/01/1995]',0.020,0.099,0.065,118.406,0.000,0.142
'[13:21:42.910 30/01/1995]',0.020,0.099,0.065,118.406,0.000,0.142
'[13:21:42.912 30/01/1995]',0.020,0.099,0.065,116.908,0.000,0.136
'[13:21:42.914 30/01/1995]',0.020,0.067,0.065,116.908,0.000,0.136
'[13:21:42.916 30/01/1995]',0.002,0.067,0.065,116.908,0.000,0.136
'[13:21:42.918 30/01/1995]',0.002,0.034,0.065,116.908,0.000,0.136
'[13:21:42.920 30/01/1995]',0.002,0.034,0.033,114.948,0.000,0.129
'[13:21:42.922 30/01/1995]',0.002,0.034,0.065,114.948,0.000,0.129
'[13:21:42.924 30/01/1995]',0.002,0.003,0.065,114.948,0.000,0.129
'[13:21:42.926 30/01/1995]',0.002,0.003,0.065,114.948,0.000,0.129
'[13:21:42.928 30/01/1995]',0.002,0.003,0.033,112.644,0.000,0.122
'[13:21:42.930 30/01/1995]',0.002,0.003,0.065,112.644,0.000,0.122
'[13:21:42.932 30/01/1995]',-0.017,-0.030,0.065,112.644,0.000,0.122
'[13:21:42.934 30/01/1995]',-0.017,-0.030,0.033,112.644,0.000,0.122
'[13:21:42.936 30/01/1995]',-0.017,-0.030,0.065,110.166,0.000,0.116
'[13:21:42.938 30/01/1995]',-0.017,-0.030,0.065,110.166,0.000,0.116
'[13:21:42.940 30/01/1995]',-0.017,-0.030,0.033,110.166,0.000,0.116
'[13:21:42.942 30/01/1995]',-0.017,-0.030,0.065,110.166,0.000,0.116
'[13:21:42.944 30/01/1995]',-0.017,-0.062,0.065,107.689,0.000,0.108
'[13:21:42.946 30/01/1995]',-0.017,-0.062,0.065,107.689,0.000,0.108
'[13:21:42.948 30/01/1995]',-0.036,-0.062,0.065,107.689,0.000,0.108
'[13:21:42.950 30/01/1995]',-0.036,-0.062,0.065,107.689,0.000,0.108
'[13:21:42.952 30/01/1995]',-0.036,-0.062,0.065,105.269,0.000,0.101
'[13:21:42.954 30/01/1995]',-0.036,-0.095,0.065,105.269,0.000,0.101
'[13:21:42.956 30/01/1995]',-0.036,-0.095,0.065,105.269,0.000,0.101
'[13:21:42.958 30/01/1995]',-0.036,-0.095,0.065,105.269,0.000,0.101
'[13:21:42.960 30/01/1995]',-0.036,-0.095,0.065,102.906,0.000,0.093
'[13:21:42.962 30/01/1995]',-0.036,-0.095,0.033,102.906,0.000,0.093
'[13:21:42.964 30/01/1995]',-0.055,-0.095,0.065,102.906,0.000,0.093
'[13:21:42.966 30/01/1995]',-0.055,-0.095,0.065,102.906,0.000,0.093
'[13:21:42.968 30/01/1995]',-0.055,-0.095,0.065,100.659,0.000,0.086
'[13:21:42.970 30/01/1995]',-0.036,-0.095,0.065,100.659,0.000,0.086
'[13:21:42.972 30/01/1995]',-0.036,-0.095,0.065,100.659,0.000,0.086
'[13:21:42.974 30/01/1995]',-0.036,-0.095,0.065,100.659,0.000,0.086
'[13:21:42.976 30/01/1995]',-0.036,-0.095,0.065,98.470,0.000,0.077
'[13:21:42.978 30/01/1995]',-0.036,-0.095,0.065,98.470,0.000,0.077
'[13:21:42.980 30/01/1995]',-0.036,-0.095,0.065,98.470,0.000,0.077
'[13:21:42.982 30/01/1995]',-0.055,-0.095,0.065,98.470,0.000,0.077
'[13:21:42.984 30/01/1995]',-0.055,-0.095,0.065,96.453,0.000,0.069
'[13:21:42.986 30/01/1995]',-0.055,-0.095,0.033,96.453,0.000,0.069
'[13:21:42.988 30/01/1995]',-0.036,-0.095,0.033,96.453,0.000,0.069
'[13:21:42.990 30/01/1995]',-0.036,-0.095,0.065,96.453,0.000,0.069
'[13:21:42.992 30/01/1995]',-0.036,-0.095,0.033,94.494,0.000,0.060
'[13:21:42.994 30/01/1995]',-0.036,-0.095,0.033,94.494,0.000,0.060
'[13:21:42.996 30/01/1995]',-0.036,-0.095,0.033,94.494,0.000,0.060
'[13:21:42.998 30/01/1995]',-0.036,-0.095,0.033,94.494,0.000,0.060
'[13:21:43.000 30/01/1995]',-0.036,-0.095,0.065,92.650,0.000,0.050
'[13:21:43.002 30/01/1995]',-0.036,-0.095,0.065,92.650,0.000,0.050
'[13:21:43.004 30/01/1995]',-0.036,-0.095,0.033,92.650,0.000,0.050
'[13:21:43.006 30/01/1995]',-0.036,-0.095,0.033,92.650,0.000,0.050
'[13:21:43.008 30/01/1995]',-0.017,-0.095,0.033,90.806,0.000,0.038
'[13:21:43.010 30/01/1995]',-0.017,-0.095,0.065,90.806,0.000,0.038
'[13:21:43.012 30/01/1995]',-0.036,-0.095,0.033,90.806,0.000,0.038
'[13:21:43.014 30/01/1995]',-0.036,-0.095,0.033,90.806,0.000,0.038
'[13:21:43.016 30/01/1995]',-0.036,-0.095,0.033,89.020,0.000,0.026
'[13:21:43.018 30/01/1995]',-0.036,-0.095,0.065,89.020,0.000,0.026
'[13:21:43.020 30/01/1995]',-0.017,-0.095,0.033,89.020,0.000,0.026
'[13:21:43.022 30/01/1995]',-0.017,-0.095,0.065,89.020,0.000,0.026
'[13:21:43.024 30/01/1995]',-0.017,-0.095,0.033,87.292,0.000,0.013
'[13:21:43.026 30/01/1995]',-0.017,-0.095,0.065,87.292,0.000,0.013
'[13:21:43.028 30/01/1995]',-0.017,-0.095,0.033,87.292,0.000,0.013
'[13:21:43.030 30/01/1995]',-0.017,-0.095,0.065,87.292,0.000,0.013
'[13:21:43.032 30/01/1995]',-0.017,-0.095,0.033,85.563,0.000,-0.002
'[13:21:43.034 30/01/1995]',-0.017,-0.095,0.065,85.563,0.000,-0.002
'[13:21:43.036 30/01/1995]',-0.017,-0.095,0.033,85.563,0.000,-0.002
'[13:21:43.038 30/01/1995]',0.002,-0.095,0.033,85.563,0.000,-0.002
'[13:21:43.040 30/01/1995]',0.002,-0.095,0.033,83.892,0.000,-0.017
'[13:21:43.042 30/01/1995]',0.002,-0.095,0.033,83.892,0.000,-0.017
'[13:21:43.044 30/01/1995]',0.002,-0.062,0.033,83.892,0.000,-0.017
'[13:21:43.046 30/01/1995]',0.002,-0.062,0.065,83.892,0.000,-0.017
'[13:21:43.048 30/01/1995]',-0.017,-0.062,0.033,82.394,0.000,-0.033
'[13:21:43.050 30/01/1995]',-0.017,-0.095,0.033,82.394,0.000,-0.033
'[13:21:43.052 30/01/1995]',-0.017,-0.062,0.065,82.394,0.000,-0.033
'[13:21:43.054 30/01/1995]',0.002,-0.062,0.033,82.394,0.000,-0.033
'[13:21:43.056 30/01/1995]',0.002,-0.062,0.033,81.011,0.000,-0.050
'[13:21:43.058 30/01/1995]',0.002,-0.062,0.033,81.011,0.000,-0.050
'[13:21:43.060 30/01/1995]',0.002,-0.062,0.033,81.011,0.000,-0.050
'[13:21:43.062 30/01/1995]',0.002,-0.062,0.033,81.011,0.000,-0.050
'[13:21:43.064 30/01/1995]',0.002,-0.062,0.033,79.917,0.000,-0.066
'[13:21:43.066 30/01/1995]',-0.017,-0.062,0.033,79.917,0.000,-0.066
'[13:21:43.068 30/01/1995]',-0.017,-0.062,0.033,79.917,0.000,-0.066
'[13:21:43.070 30/01/1995]',-0.017,-0.062,0.033,79.917,0.000,-0.066
'[13:21:43.072 30/01/1995]',0.002,-0.062,0.033,79.052,0.000,-0.083
'[13:21:43.074 30/01/1995]',0.002,-0.062,0.003,79.052,0.000,-0.083
'[13:21:43.076 30/01/1995]',0.002,-0.062,0.033,79.052,0.000,-0.083
'[13:21:43.078 30/01/1995]',0.002,-0.062,0.033,79.052,0.000,-0.083
'[13:21:43.080 30/01/1995]',-0.017,-0.062,0.033,78.534,0.000,-0.099
'[13:21:43.082 30/01/1995]',-0.017,-0.062,0.033,78.534,0.000,-0.099
'[13:21:43.084 30/01/1995]',-0.017,-0.062,0.033,78.534,0.000,-0.099
'[13:21:43.086 30/01/1995]',-0.017,-0.062,0.033,78.534,0.000,-0.099
'[13:21:43.088 30/01/1995]',0.002,-0.062,0.033,78.361,0.000,-0.116
'[13:21:43.090 30/01/1995]',0.002,-0.062,0.033,78.361,0.000,-0.116
'[13:21:43.092 30/01/1995]',0.002,-0.062,0.003,78.361,0.000,-0.116
'[13:21:43.094 30/01/1995]',0.002,-0.062,0.003,78.361,0.000,-0.116
'[13:21:43.096 30/01/1995]',-0.017,-0.062,0.033,78.418,0.000,-0.132
'[13:21:43.098 30/01/1995]',-0.017,-0.062,0.003,78.418,0.000,-0.132
'[13:21:43.100 30/01/1995]',-0.017,-0.062,0.003,78.418,0.000,-0.132
'[13:21:43.102 30/01/1995]',-0.017,-0.062,0.003,78.418,0.000,-0.132
'[13:21:43.104 30/01/1995]',-0.017,-0.062,0.003,78.591,0.000,-0.147
'[13:21:43.106 30/01/1995]',0.002,-0.062,0.003,78.591,0.000,-0.147
'[13:21:43.108 30/01/1995]',0.002,-0.062,0.003,78.591,0.000,-0.147
'[13:21:43.110 30/01/1995]',0.002,-0.062,0.003,78.591,0.000,-0.147
'[13:21:43.112 30/01/1995]',0.002,-0.062,0.003,78.879,0.000,-0.162
'[13:21:43.114 30/01/1995]',0.002,-0.062,0.003,78.879,0.000,-0.162
'[13:21:43.116 30/01/1995]',-0.017,-0.062,0.003,78.879,0.000,-0.162
'[13:21:43.118 30/01/1995]',0.002,-0.062,0.003,78.879,0.000,-0.162
'[13:21:43.120 30/01/1995]',0.002,-0.062,0.003,79.225,0.000,-0.177
'[13:21:43.122 30/01/1995]',0.002,-0.062,0.003,79.225,0.000,-0.177
'[13:21:43.124 30/01/1995]',0.002,-0.062,0.003,79.225,0.000,-0.177
'[13:21:43.126 30/01/1995]',0.002,-0.062,0.003,79.225,0.000,-0.177
'[13:21:43.128 30/01/1995]',0.002,-0.062,0.003,79.513,0.000,-0.192
'[13:21:43.130 30/01/1995]',-0.017,-0.062,0.003,79.513,0.000,-0.192
'[13:21:43.132 30/01/1995]',-0.017,-0.062,0.003,79.513,0.000,-0.192
'[13:21:43.134 30/01/1995]',-0.017,-0.062,0.003,79.513,0.000,-0.192
'[13:21:43.136 30/01/1995]',-0.017,-0.062,0.003,79.744,0.000,-0.207
'[13:21:43.138 30/01/1995]',-0.017,-0.062,0.003,79.744,0.000,-0.207
'[13:21:43.140 30/01/1995]',-0.017,-0.062,0.003,79.744,0.000,-0.207
'[13:21:43.142 30/01/1995]',-0.017,-0.062,0.003,79.744,0.000,-0.207
'[13:21:43.144 30/01/1995]',-0.017,-0.062,0.003,79.744,0.000,-0.223
'[13:21:43.146 30/01/1995]',-0.036,-0.062,0.003,79.744,0.000,-0.223
'[13:21:43.148 30/01/1995]',-0.036,-0.062,0.003,79.744,0.000,-0.223
'[13:21:43.150 30/01/1995]',-0.017,-0.062,0.003,79.744,0.000,-0.223
'[13:21:43.152 30/01/1995]',-0.017,-0.062,0.003,79.686,0.000,-0.238
'[13:21:43.154 30/01/1995]',-0.017,-0.062,0.003,79.686,0.000,-0.238
'[13:21:43.156 30/01/1995]',-0.017,-0.062,0.003,79.686,0.000,-0.238
'[13:21:43.158 30/01/1995]',-0.017,-0.062,0.003,79.686,0.000,-0.238
'[13:21:43.160 30/01/1995]',0.002,-0.062,0.003,79.456,0.000,-0.254
'[13:21:43.162 30/01/1995]',-0.017,-0.062,0.003,79.456,0.000,-0.254
'[13:21:43.164 30/01/1995]',-0.017,-0.062,0.003,79.456,0.000,-0.254
'[13:21:43.166 30/01/1995]',-0.017,-0.062,0.003,79.456,0.000,-0.254
'[13:21:43.168 30/01/1995]',-0.017,-0.062,0.003,79.052,0.000,-0.270
'[13:21:43.170 30/01/1995]',-0.017,-0.095,0.003,79.052,0.000,-0.270
'[13:21:43.172 30/01/1995]',-0.017,-0.095,0.003,79.052,0.000,-0.270
'[13:21:43.174 30/01/1995]',0.002,-0.062,0.003,79.052,0.000,-0.270
'[13:21:43.176 30/01/1995]',0.002,-0.062,0.003,78.591,0.000,-0.285
'[13:21:43.178 30/01/1995]',0.002,-0.062,0.003,78.591,0.000,-0.285
'[13:21:43.180 30/01/1995]',0.002,-0.062,0.033,78.591,0.000,-0.285
'[13:21:43.182 30/01/1995]',0.002,-0.062,0.033,78.591,0.000,-0.285
'[13:21:43.184 30/01/1995]',0.002,-0.062,0.033,78.015,0.000,-0.300
'[13:21:43.186 30/01/1995]',0.002,-0.062,0.033,78.015,0.000,-0.300
'[13:21:43.188 30/01/1995]',0.002,-0.062,0.033,78.015,0.000,-0.300
'[13:21:43.190 30/01/1995]',0.002,-0.062,0.033,78.015,0.000,-0.300
'[13:21:43.192 30/01/1995]',0.002,-0.062,0.033,77.324,0.000,-0.317
'[13:21:43.194 30/01/1995]',0.002,-0.062,0.033,77.324,0.000,-0.317
'[13:21:43.196 30/01/1995]',0.002,-0.062,0.033,77.324,0.000,-0.317
'[13:21:43.198 30/01/1995]',0.002,-0.062,0.033,77.324,0.000,-0.317
'[13:21:43.200 30/01/1995]',0.020,-0.062,0.033,76.690,0.000,-0.333
'[13:21:43.202 30/01/1995]',0.020,-0.030,0.033,76.690,0.000,-0.333
'[13:21:43.204 30/01/1995]',0.039,-0.030,0.033,76.690,0.000,-0.333
'[13:21:43.206 30/01/1995]',0.058,-0.030,0.033,76.690,0.000,-0.333
'[13:21:43.208 30/01/1995]',0.039,-0.030,0.065,76.056,0.000,-0.350
'[13:21:43.210 30/01/1995]',0.039,-0.030,0.033,76.056,0.000,-0.350
'[13:21:43.212 30/01/1995]',0.020,-0.030,0.033,76.056,0.000,-0.350
'[13:21:43.214 30/01/1995]',0.020,-0.030,0.033,76.056,0.000,-0.350
'[13:21:43.216 30/01/1995]',0.002,-0.030,0.033,75.365,0.000,-0.368
'[13:21:43.218 30/01/1995]',0.002,0.003,0.033,75.365,0.000,-0.368
'[13:21:43.220 30/01/1995]',0.002,0.003,0.033,75.365,0.000,-0.368
'[13:21:43.222 30/01/1995]',0.002,0.003,0.033,75.365,0.000,-0.368
'[13:21:43.224 30/01/1995]',0.002,0.003,0.033,74.731,0.000,-0.387
'[13:21:43.226 30/01/1995]',0.002,0.003,0.003,74.731,0.000,-0.387
'[13:21:43.228 30/01/1995]',-0.017,0.003,0.003,74.731,0.000,-0.387
'[13:21:43.230 30/01/1995]',-0.036,0.003,0.003,74.731,0.000,-0.387
'[13:21:43.232 30/01/1995]',-0.036,0.003,0.003,74.155,0.000,-0.406
'[13:21:43.234 30/01/1995]',-0.055,0.003,0.003,74.155,0.000,-0.406
'[13:21:43.236 30/01/1995]',-0.055,0.003,0.003,74.155,0.000,-0.406
'[13:21:43.238 30/01/1995]',-0.055,-0.030,0.003,74.155,0.000,-0.406
'[13:21:43.240 30/01/1995]',-0.055,-0.030,0.003,73.579,0.000,-0.426
'[13:21:43.242 30/01/1995]',-0.074,-0.062,0.003,73.579,0.000,-0.426
'[13:21:43.244 30/01/1995]',-0.093,-0.062,0.003,73.579,0.000,-0.426
'[13:21:43.246 30/01/1995]',-0.093,-0.062,0.003,73.579,0.000,-0.426
'[13:21:43.248 30/01/1995]',-0.093,-0.062,0.003,73.060,0.000,-0.446
'[13:21:43.250 30/01/1995]',-0.093,-0.062,0.003,73.060,0.000,-0.446
'[13:21:43.252 30/01/1995]',-0.093,-0.062,0.003,73.060,0.000,-0.446
'[13:21:43.254 30/01/1995]',-0.093,-0.062,0.003,73.060,0.000,-0.446
'[13:21:43.256 30/01/1995]',-0.093,-0.062,0.003,72.541,0.000,-0.464
'[13:21:43.258 30/01/1995]',-0.093,-0.062,0.003,72.541,0.000,-0.464
'[13:21:43.260 30/01/1995]',-0.112,-0.062,0.003,72.541,0.000,-0.464
'[13:21:43.262 30/01/1995]',-0.112,-0.062,0.003,72.541,0.000,-0.464
'[13:21:43.264 30/01/1995]',-0.131,-0.062,0.003,72.138,0.000,-0.480
'[13:21:43.266 30/01/1995]',-0.112,-0.062,0.003,72.138,0.000,-0.480
'[13:21:43.268 30/01/1995]',-0.112,-0.062,0.003,72.138,0.000,-0.480
'[13:21:43.270 30/01/1995]',-0.112,-0.062,0.003,72.138,0.000,-0.480
'[13:21:43.272 30/01/1995]',-0.112,-0.062,0.003,71.735,0.000,-0.495
'[13:21:43.274 30/01/1995]',-0.093,-0.062,0.003,71.735,0.000,-0.495
'[13:21:43.276 30/01/1995]',-0.093,-0.062,0.003,71.735,0.000,-0.495
'[13:21:43.278 30/01/1995]',-0.112,-0.062,0.003,71.735,0.000,-0.495
'[13:21:43.280 30/01/1995]',-0.112,-0.062,0.003,71.331,0.000,-0.508
'[13:21:43.282 30/01/1995]',-0.112,-0.062,0.003,71.331,0.000,-0.508
'[13:21:43.284 30/01/1995]',-0.112,-0.062,0.003,71.331,0.000,-0.508
'[13:21:43.286 30/01/1995]',-0.112,-0.062,0.003,71.331,0.000,-0.508
'[13:21:43.288 30/01/1995]',-0.093,-0.062,0.003,71.043,0.000,-0.520
'[13:21:43.290 30/01/1995]',-0.093,-0.030,0.003,71.043,0.000,-0.520
'[13:21:43.292 30/01/1995]',-0.093,-0.030,0.033,71.043,0.000,-0.520
'[13:21:43.294 30/01/1995]',-0.112,-0.030,0.065,71.043,0.000,-0.520
'[13:21:43.296 30/01/1995]',-0.093,0.003,0.129,70.698,0.000,-0.531
'[13:21:43.298 30/01/1995]',-0.074,0.003,0.225,70.698,0.000,-0.531
'[13:21:43.300 30/01/1995]',-0.074,0.003,0.225,70.698,0.000,-0.531
'[13:21:43.302 30/01/1995]',-0.074,0.003,0.193,70.698,0.000,-0.531
'[13:21:43.304 30/01/1995]',-0.055,0.003,0.161,70.410,0.000,-0.540
'[13:21:43.306 30/01/1995]',-0.055,0.003,0.065,70.410,0.000,-0.540
'[13:21:43.308 30/01/1995]',-0.055,0.003,0.003,70.410,0.000,-0.540
'[13:21:43.310 30/01/1995]',-0.093,0.003,-0.157,70.410,0.000,-0.540
'[13:21:43.312 30/01/1995]',-0.169,0.034,-0.412,70.121,0.000,-0.548
'[13:21:43.314 30/01/1995]',-0.244,0.067,-0.665,70.121,0.000,-0.548
'[13:21:43.316 30/01/1995]',-0.300,0.099,-0.888,70.121,0.000,-0.548
'[13:21:43.318 30/01/1995]',-0.376,0.165,-1.110,70.121,0.000,-0.548
'[13:21:43.320 30/01/1995]',-0.452,0.230,-1.270,69.949,0.000,-0.553
'[13:21:43.322 30/01/1995]',-0.546,0.295,-1.428,69.949,0.000,-0.553
'[13:21:43.324 30/01/1995]',-0.621,0.361,-1.587,69.949,0.000,-0.553
'[13:21:43.326 30/01/1995]',-0.716,0.393,-1.714,69.949,0.000,-0.553
'[13:21:43.328 30/01/1995]',-0.792,0.458,-1.809,69.776,0.000,-0.557
'[13:21:43.330 30/01/1995]',-0.848,0.458,-1.904,69.776,0.000,-0.557
'[13:21:43.332 30/01/1995]',-0.886,0.490,-2.032,69.776,0.000,-0.557
'[13:21:43.334 30/01/1995]',-0.923,0.555,-2.064,69.776,0.000,-0.557
'[13:21:43.336 30/01/1995]',-0.904,0.555,-2.032,69.661,0.000,-0.559
'[13:21:43.338 30/01/1995]',-0.867,0.588,-1.968,69.661,0.000,-0.559
'[13:21:43.340 30/01/1995]',-0.810,0.555,-1.872,69.661,0.000,-0.559
'[13:21:43.342 30/01/1995]',-0.697,0.522,-1.746,69.661,0.000,-0.559
'[13:21:43.344 30/01/1995]',-0.583,0.458,-1.587,69.718,0.000,-0.559
'[13:21:43.346 30/01/1995]',-0.509,0.361,-1.364,69.718,0.000,-0.559
'[13:21:43.348 30/01/1995]',-0.433,0.263,-1.238,69.718,0.000,-0.559
'[13:21:43.350 30/01/1995]',-0.357,0.197,-1.046,69.718,0.000,-0.559
'[13:21:43.352 30/01/1995]',-0.300,0.132,-0.857,69.833,0.000,-0.559
'[13:21:43.354 30/01/1995]',-0.263,0.099,-0.729,69.833,0.000,-0.559
'[13:21:43.356 30/01/1995]',-0.207,0.067,-0.570,69.833,0.000,-0.559
'[13:21:43.358 30/01/1995]',-0.169,0.067,-0.443,69.833,0.000,-0.559
'[13:21:43.360 30/01/1995]',-0.131,0.067,-0.284,70.006,0.000,-0.557
'[13:21:43.362 30/01/1995]',-0.093,0.034,-0.188,70.006,0.000,-0.557
'[13:21:43.364 30/01/1995]',-0.093,0.003,-0.093,70.006,0.000,-0.557
'[13:21:43.366 30/01/1995]',-0.074,0.003,-0.029,70.006,0.000,-0.557
'[13:21:43.368 30/01/1995]',-0.074,0.003,0.003,70.121,0.000,-0.554
'[13:21:43.370 30/01/1995]',-0.074,-0.030,0.033,70.121,0.000,-0.554
'[13:21:43.372 30/01/1995]',-0.055,-0.030,0.097,70.121,0.000,-0.554
'[13:21:43.374 30/01/1995]',-0.055,-0.030,0.097,70.121,0.000,-0.554
'[13:21:43.376 30/01/1995]',-0.036,-0.030,0.193,70.294,0.000,-0.550
'[13:21:43.378 30/01/1995]',-0.017,-0.030,0.225,70.294,0.000,-0.550
'[13:21:43.380 30/01/1995]',-0.017,-0.030,0.257,70.294,0.000,-0.550
'[13:21:43.382 30/01/1995]',-0.017,-0.062,0.257,70.294,0.000,-0.550
'[13:21:43.384 30/01/1995]',-0.017,-0.062,0.257,70.410,0.000,-0.546
'[13:21:43.386 30/01/1995]',-0.017,-0.062,0.257,70.410,0.000,-0.546
'[13:21:43.388 30/01/1995]',0.002,-0.062,0.288,70.410,0.000,-0.546
'[13:21:43.390 30/01/1995]',0.002,-0.062,0.288,70.410,0.000,-0.546
'[13:21:43.392 30/01/1995]',0.002,-0.062,0.288,70.410,0.000,-0.542
'[13:21:43.394 30/01/1995]',0.002,-0.062,0.288,70.410,0.000,-0.542
'[13:21:43.396 30/01/1995]',0.002,-0.062,0.288,70.410,0.000,-0.542
'[13:21:43.398 30/01/1995]',0.002,-0.062,0.320,70.410,0.000,-0.542
'[13:21:43.400 30/01/1995]',0.002,-0.062,0.320,70.294,0.000,-0.537
'[13:21:43.402 30/01/1995]',0.002,-0.062,0.320,70.294,0.000,-0.537
'[13:21:43.404 30/01/1995]',0.002,-0.062,0.288,70.294,0.000,-0.537
'[13:21:43.406 30/01/1995]',0.002,-0.062,0.288,70.294,0.000,-0.537
'[13:21:43.408 30/01/1995]',0.002,-0.062,0.320,70.064,0.000,-0.532
'[13:21:43.410 30/01/1995]',0.002,-0.062,0.320,70.064,0.000,-0.532
'[13:21:43.412 30/01/1995]',0.002,-0.062,0.320,70.064,0.000,-0.532
'[13:21:43.414 30/01/1995]',0.002,-0.062,0.320,70.064,0.000,-0.532
'[13:21:43.416 30/01/1995]',0.002,-0.062,0.320,69.661,0.000,-0.528
'[13:21:43.418 30/01/1995]',0.002,-0.062,0.320,69.661,0.000,-0.528
'[13:21:43.420 30/01/1995]',0.002,-0.062,0.320,69.661,0.000,-0.528
'[13:21:43.422 30/01/1995]',0.002,-0.062,0.320,69.661,0.000,-0.528
'[13:21:43.424 30/01/1995]',0.002,-0.030,0.320,69.257,0.000,-0.525
'[13:21:43.426 30/01/1995]',0.002,-0.030,0.320,69.257,0.000,-0.525
'[13:21:43.428 30/01/1995]',0.002,-0.030,0.320,69.257,0.000,-0.525
'[13:21:43.430 30/01/1995]',0.002,-0.062,0.320,69.257,0.000,-0.525
'[13:21:43.432 30/01/1995]',0.002,-0.030,0.320,68.623,0.000,-0.522
'[13:21:43.434 30/01/1995]',0.002,-0.062,0.320,68.623,0.000,-0.522
'[13:21:43.436 30/01/1995]',0.002,-0.062,0.320,68.623,0.000,-0.522
'[13:21:43.438 30/01/1995]',0.002,-0.030,0.320,68.623,0.000,-0.522
'[13:21:43.440 30/01/1995]',0.002,-0.030,0.320,68.047,0.000,-0.521
'[13:21:43.442 30/01/1995]',0.020,-0.030,0.320,68.047,0.000,-0.521
'[13:21:43.444 30/01/1995]',0.020,-0.030,0.320,68.047,0.000,-0.521
'[13:21:43.446 30/01/1995]',0.020,-0.030,0.320,68.047,0.000,-0.521
'[13:21:43.448 30/01/1995]',0.002,-0.030,0.320,67.413,0.000,-0.521
'[13:21:43.450 30/01/1995]',0.002,-0.030,0.320,67.413,0.000,-0.521
'[13:21:43.452 30/01/1995]',0.002,-0.030,0.320,67.413,0.000,-0.521
'[13:21:43.454 30/01/1995]',0.020,-0.030,0.320,67.413,0.000,-0.521
'[13:21:43.456 30/01/1995]',0.020,-0.030,0.320,66.780,0.000,-0.522
'[13:21:43.458 30/01/1995]',0.020,-0.030,0.320,66.780,0.000,-0.522
'[13:21:43.460 30/01/1995]',0.020,-0.030,0.320,66.780,0.000,-0.522
'[13:21:43.462 30/01/1995]',0.020,-0.030,0.288,66.780,0.000,-0.522
'[13:21:43.464 30/01/1995]',0.020,-0.030,0.320,66.146,0.000,-0.524
'[13:21:43.466 30/01/1995]',0.020,-0.030,0.320,66.146,0.000,-0.524
'[13:21:43.468 30/01/1995]',0.020,-0.030,0.320,66.146,0.000,-0.524
'[13:21:43.470 30/01/1995]',0.039,0.003,0.320,66.146,0.000,-0.524
'[13:21:43.472 30/01/1995]',0.039,0.003,0.320,65.570,0.000,-0.527
'[13:21:43.474 30/01/1995]',0.039,0.003,0.320,65.570,0.000,-0.527
'[13:21:43.476 30/01/1995]',0.039,0.003,0.288,65.570,0.000,-0.527
'[13:21:43.478 30/01/1995]',0.039,0.003,0.320,65.570,0.000,-0.527
'[13:21:43.480 30/01/1995]',0.020,0.003,0.320,65.166,0.000,-0.531
'[13:21:43.482 30/01/1995]',0.020,0.003,0.320,65.166,0.000,-0.531
'[13:21:43.484 30/01/1995]',0.020,0.003,0.320,65.166,0.000,-0.531
'[13:21:43.486 30/01/1995]',0.020,0.003,0.320,65.166,0.000,-0.531
'[13:21:43.488 30/01/1995]',0.039,0.003,0.320,64.763,0.000,-0.535
'[13:21:43.490 30/01/1995]',0.039,0.003,0.288,64.763,0.000,-0.535
'[13:21:43.492 30/01/1995]',0.039,0.003,0.288,64.763,0.000,-0.535
'[13:21:43.494 30/01/1995]',0.039,0.003,0.288,64.763,0.000,-0.535
'[13:21:43.496 30/01/1995]',0.039,0.003,0.320,64.532,0.000,-0.539
'[13:21:43.498 30/01/1995]',0.039,0.003,0.320,64.532,0.000,-0.539
'[13:21:43.500 30/01/1995]',0.039,0.003,0.320,64.532,0.000,-0.539
'[13:21:43.502 30/01/1995]',0.039,0.003,0.320,64.532,0.000,-0.539
'[13:21:43.504 30/01/1995]',0.058,0.003,0.288,64.360,0.000,-0.543
'[13:21:43.506 30/01/1995]',0.058,0.003,0.288,64.360,0.000,-0.543
'[13:21:43.508 30/01/1995]',0.058,0.034,0.288,64.360,0.000,-0.543
'[13:21:43.510 30/01/1995]',0.058,0.034,0.288,64.360,0.000,-0.543
'[13:21:43.512 30/01/1995]',0.058,0.034,0.288,64.417,0.000,-0.547
'[13:21:43.514 30/01/1995]',0.039,0.034,0.288,64.417,0.000,-0.547
'[13:21:43.516 30/01/1995]',0.039,0.034,0.288,64.417,0.000,-0.547
'[13:21:43.518 30/01/1995]',0.039,0.034,0.288,64.417,0.000,-0.547
'[13:21:43.520 30/01/1995]',0.058,0.034,0.288,64.705,0.000,-0.550
'[13:21:43.522 30/01/1995]',0.058,0.034,0.288,64.705,0.000,-0.550
'[13:21:43.524 30/01/1995]',0.058,0.034,0.288,64.705,0.000,-0.550
'[13:21:43.526 30/01/1995]',0.058,0.034,0.288,64.705,0.000,-0.550
'[13:21:43.528 30/01/1995]',0.058,0.067,0.257,65.627,0.000,-0.552
'[13:21:43.530 30/01/1995]',0.058,0.067,0.288,65.627,0.000,-0.552
'[13:21:43.532 30/01/1995]',0.039,0.067,0.288,65.627,0.000,-0.552
'[13:21:43.534 30/01/1995]',0.058,0.067,0.257,65.627,0.000,-0.552
'[13:21:43.536 30/01/1995]',0.039,0.067,0.257,67.413,0.000,-0.554
'[13:21:43.538 30/01/1995]',0.058,0.067,0.288,67.413,0.000,-0.554
'[13:21:43.540 30/01/1995]',0.058,0.067,0.257,67.413,0.000,-0.554
'[13:21:43.542 30/01/1995]',0.058,0.099,0.257,67.413,0.000,-0.554
'[13:21:43.544 30/01/1995]',0.039,0.099,0.257,70.410,0.000,-0.556
'[13:21:43.546 30/01/1995]',0.039,0.099,0.257,70.410,0.000,-0.556
'[13:21:43.548 30/01/1995]',0.039,0.099,0.257,70.410,0.000,-0.556
'[13:21:43.550 30/01/1995]',0.039,0.099,0.257,70.410,0.000,-0.556
'[13:21:43.552 30/01/1995]',0.058,0.099,0.257,74.789,0.000,-0.558
'[13:21:43.554 30/01/1995]',0.058,0.099,0.257,74.789,0.000,-0.558
'[13:21:43.556 30/01/1995]',0.058,0.099,0.257,74.789,0.000,-0.558
'[13:21:43.558 30/01/1995]',0.058,0.132,0.225,74.789,0.000,-0.558
'[13:21:43.560 30/01/1995]',0.039,0.132,0.193,80.378,0.000,-0.559
'[13:21:43.562 30/01/1995]',0.039,0.132,0.193,80.378,0.000,-0.559
'[13:21:43.564 30/01/1995]',0.039,0.132,0.193,80.378,0.000,-0.559
'[13:21:43.566 30/01/1995]',0.039,0.132,0.193,80.378,0.000,-0.559
'[13:21:43.568 30/01/1995]',0.039,0.165,0.193,86.773,0.000,-0.560
'[13:21:43.570 30/01/1995]',0.039,0.165,0.161,86.773,0.000,-0.560
'[13:21:43.572 30/01/1995]',0.058,0.165,0.161,86.773,0.000,-0.560
'[13:21:43.574 30/01/1995]',0.058,0.165,0.161,86.773,0.000,-0.560
'[13:21:43.576 30/01/1995]',0.058,0.197,0.161,93.457,0.000,-0.561
'[13:21:43.578 30/01/1995]',0.039,0.197,0.129,93.457,0.000,-0.561
'[13:21:43.580 30/01/1995]',0.039,0.197,0.161,93.457,0.000,-0.561
'[13:21:43.582 30/01/1995]',0.039,0.197,0.129,93.457,0.000,-0.561
'[13:21:43.584 30/01/1995]',0.039,0.197,0.129,99.795,0.000,-0.562
'[13:21:43.586 30/01/1995]',0.039,0.197,0.129,99.795,0.000,-0.562
'[13:21:43.588 30/01/1995]',0.039,0.197,0.129,99.795,0.000,-0.562
'[13:21:43.590 30/01/1995]',0.039,0.197,0.097,99.795,0.000,-0.562
'[13:21:43.592 30/01/1995]',0.039,0.230,0.129,105.326,0.000,-0.563
'[13:21:43.594 30/01/1995]',0.020,0.230,0.097,105.326,0.000,-0.563
'[13:21:43.596 30/01/1995]',0.020,0.230,0.097,105.326,0.000,-0.563
'[13:21:43.598 30/01/1995]',0.020,0.230,0.097,105.326,0.000,-0.563
'[13:21:43.600 30/01/1995]',0.020,0.230,0.097,109.705,0.000,-0.564
'[13:21:43.602 30/01/1995]',0.020,0.230,0.097,109.705,0.000,-0.564
'[13:21:43.604 30/01/1995]',0.020,0.230,0.065,109.705,0.000,-0.564
'[13:21:43.606 30/01/1995]',0.020,0.230,0.065,109.705,0.000,-0.564
'[13:21:43.608 30/01/1995]',0.020,0.230,0.065,112.759,0.000,-0.565
'[13:21:43.610 30/01/1995]',0.020,0.230,0.065,112.759,0.000,-0.565
'[13:21:43.612 30/01/1995]',0.020,0.230,0.033,112.759,0.000,-0.565
'[13:21:43.614 30/01/1995]',0.002,0.230,0.033,112.759,0.000,-0.565
'[13:21:43.616 30/01/1995]',0.002,0.230,0.033,114.488,0.000,-0.566
'[13:21:43.618 30/01/1995]',0.002,0.230,0.033,114.488,0.000,-0.566
'[13:21:43.620 30/01/1995]',0.002,0.197,0.033,114.488,0.000,-0.566
'[13:21:43.622 30/01/1995]',0.002,0.197,0.033,114.488,0.000,-0.566
'[13:21:43.624 30/01/1995]',0.002,0.197,0.003,115.006,0.000,-0.567
'[13:21:43.626 30/01/1995]',0.020,0.197,0.003,115.006,0.000,-0.567
'[13:21:43.628 30/01/1995]',0.002,0.165,0.003,115.006,0.000,-0.567
'[13:21:43.630 30/01/1995]',0.002,0.165,0.003,115.006,0.000,-0.567
'[13:21:43.632 30/01/1995]',0.002,0.165,0.003,114.372,0.000,-0.568
'[13:21:43.634 30/01/1995]',0.002,0.132,0.003,114.372,0.000,-0.568
'[13:21:43.636 30/01/1995]',0.002,0.132,0.003,114.372,0.000,-0.568
'[13:21:43.638 30/01/1995]',0.020,0.099,0.003,114.372,0.000,-0.568
'[13:21:43.640 30/01/1995]',0.020,0.099,0.003,112.932,0.000,-0.569
'[13:21:43.642 30/01/1995]',0.020,0.099,0.003,112.932,0.000,-0.569
'[13:21:43.644 30/01/1995]',0.002,0.067,0.003,112.932,0.000,-0.569
'[13:21:43.646 30/01/1995]',0.002,0.067,0.003,112.932,0.000,-0.569
'[13:21:43.648 30/01/1995]',0.002,0.034,0.003,110.800,0.000,-0.570
'[13:21:43.650 30/01/1995]',0.002,0.034,0.003,110.800,0.000,-0.570
'[13:21:43.652 30/01/1995]',0.002,0.034,0.003,110.800,0.000,-0.570
'[13:21:43.654 30/01/1995]',0.002,0.003,0.003,110.800,0.000,-0.570
'[13:21:43.656 30/01/1995]',0.002,0.003,0.003,108.380,0.000,-0.571
'[13:21:43.658 30/01/1995]',0.002,0.003,0.033,108.380,0.000,-0.571
'[13:21:43.660 30/01/1995]',0.002,0.003,0.033,108.380,0.000,-0.571
'[13:21:43.662 30/01/1995]',0.002,0.003,0.033,108.380,0.000,-0.571
'[13:21:43.664 30/01/1995]',0.002,-0.030,0.033,105.672,0.000,-0.572
'[13:21:43.666 30/01/1995]',0.002,-0.030,0.033,105.672,0.000,-0.572
'[13:21:43.668 30/01/1995]',0.002,-0.030,0.033,105.672,0.000,-0.572
'[13:21:43.670 30/01/1995]',0.002,-0.030,0.033,105.672,0.000,-0.572
'[13:21:43.672 30/01/1995]',0.002,-0.062,0.033,102.906,0.000,-0.571
'[13:21:43.674 30/01/1995]',0.002,-0.062,0.033,102.906,0.000,-0.571
'[13:21:43.676 30/01/1995]',0.002,-0.062,0.033,102.906,0.000,-0.571
'[13:21:43.678 30/01/1995]',0.002,-0.062,0.033,102.906,0.000,-0.571
'[13:21:43.680 30/01/1995]',0.002,-0.062,0.033,100.198,0.000,-0.570
'[13:21:43.682 30/01/1995]',0.002,-0.062,0.033,100.198,0.000,-0.570
'[13:21:43.684 30/01/1995]',0.002,-0.062,0.033,100.198,0.000,-0.570
'[13:21:43.686 30/01/1995]',0.002,-0.095,0.033,100.198,0.000,-0.570
'[13:21:43.688 30/01/1995]',0.002,-0.095,0.033,97.663,0.000,-0.568
'[13:21:43.690 30/01/1995]',0.002,-0.095,0.033,97.663,0.000,-0.568
'[13:21:43.692 30/01/1995]',0.002,-0.095,0.033,97.663,0.000,-0.568
'[13:21:43.694 30/01/1995]',0.002,-0.095,0.033,97.663,0.000,-0.568
'[13:21:43.696 30/01/1995]',0.002,-0.095,0.033,95.185,0.000,-0.566
'[13:21:43.698 30/01/1995]',0.002,-0.095,0.065,95.185,0.000,-0.566
'[13:21:43.700 30/01/1995]',0.002,-0.095,0.033,95.185,0.000,-0.566
'[13:21:43.702 30/01/1995]',0.002,-0.095,0.065,95.185,0.000,-0.566
'[13:21:43.704 30/01/1995]',0.002,-0.095,0.033,92.938,0.000,-0.563
'[13:21:43.706 30/01/1995]',0.002,-0.095,0.033,92.938,0.000,-0.563
'[13:21:43.708 30/01/1995]',0.002,-0.095,0.065,92.938,0.000,-0.563
'[13:21:43.710 30/01/1995]',0.002,-0.095,0.033,92.938,0.000,-0.563
'[13:21:43.712 30/01/1995]',0.002,-0.095,0.033,90.864,0.000,-0.560
'[13:21:43.714 30/01/1995]',0.002,-0.095,0.033,90.864,0.000,-0.560
'[13:21:43.716 30/01/1995]',0.002,-0.095,0.033,90.864,0.000,-0.560
'[13:21:43.718 30/01/1995]',0.002,-0.095,0.033,90.864,0.000,-0.560
'[13:21:43.720 30/01/1995]',0.002,-0.095,0.033,88.905,0.000,-0.557
'[13:21:43.722 30/01/1995]',0.002,-0.095,0.033,88.905,0.000,-0.557
'[13:21:43.724 30/01/1995]',0.002,-0.095,0.033,88.905,0.000,-0.557
'[13:21:43.726 30/01/1995]',0.002,-0.095,0.033,88.905,0.000,-0.557
'[13:21:43.728 30/01/1995]',0.002,-0.095,0.033,87.004,0.000,-0.553
'[13:21:43.730 30/01/1995]',0.002,-0.095,0.065,87.004,0.000,-0.553
'[13:21:43.732 30/01/1995]',0.002,-0.095,0.065,87.004,0.000,-0.553
'[13:21:43.734 30/01/1995]',0.002,-0.095,0.033,87.004,0.000,-0.553
'[13:21:43.736 30/01/1995]',0.002,-0.095,0.065,85.333,0.000,-0.549
'[13:21:43.738 30/01/1995]',0.002,-0.095,0.065,85.333,0.000,-0.549
'[13:21:43.740 30/01/1995]',0.002,-0.095,0.065,85.333,0.000,-0.549
'[13:21:43.742 30/01/1995]',0.002,-0.062,0.065,85.333,0.000,-0.549
'[13:21:43.744 30/01/1995]',0.002,-0.062,0.033,83.662,0.000,-0.544
'[13:21:43.746 30/01/1995]',0.002,-0.062,0.065,83.662,0.000,-0.544
'[13:21:43.748 30/01/1995]',0.002,-0.095,0.065,83.662,0.000,-0.544
'[13:21:43.750 30/01/1995]',0.002,-0.062,0.065,83.662,0.000,-0.544
'[13:21:43.752 30/01/1995]',0.002,-0.095,0.065,81.991,0.000,-0.538
'[13:21:43.754 30/01/1995]',0.002,-0.095,0.065,81.991,0.000,-0.538
'[13:21:43.756 30/01/1995]',0.002,-0.062,0.033,81.991,0.000,-0.538
'[13:21:43.758 30/01/1995]',0.020,-0.062,0.065,81.991,0.000,-0.538
'[13:21:43.760 30/01/1995]',0.002,-0.062,0.065,80.550,0.000,-0.533
'[13:21:43.762 30/01/1995]',0.002,-0.062,0.033,80.550,0.000,-0.533
'[13:21:43.764 30/01/1995]',0.002,-0.062,0.033,80.550,0.000,-0.533
'[13:21:43.766 30/01/1995]',0.002,-0.062,0.065,80.550,0.000,-0.533
'[13:21:43.768 30/01/1995]',0.002,-0.062,0.065,79.110,0.000,-0.528
'[13:21:43.770 30/01/1995]',0.002,-0.062,0.065,79.110,0.000,-0.528
'[13:21:43.772 30/01/1995]',0.002,-0.062,0.065,79.110,0.000,-0.528
'[13:21:43.774 30/01/1995]',0.020,-0.062,0.065,79.110,0.000,-0.528
'[13:21:43.776 30/01/1995]',0.020,-0.062,0.065,77.900,0.000,-0.523
'[13:21:43.778 30/01/1995]',0.020,-0.062,0.065,77.900,0.000,-0.523
'[13:21:43.780 30/01/1995]',0.002,-0.062,0.033,77.900,0.000,-0.523
'[13:21:43.782 30/01/1995]',0.002,-0.062,0.033,77.900,0.000,-0.523
'[13:21:43.784 30/01/1995]',0.002,-0.062,0.065,76.978,0.000,-0.518
'[13:21:43.786 30/01/1995]',0.020,-0.062,0.065,76.978,0.000,-0.518
'[13:21:43.788 30/01/1995]',0.020,-0.062,0.065,76.978,0.000,-0.518
'[13:21:43.790 30/01/1995]',0.020,-0.062,0.065,76.978,0.000,-0.518
'[13:21:43.792 30/01/1995]',0.020,-0.062,0.065,76.229,0.000,-0.514
'[13:21:43.794 30/01/1995]',0.020,-0.062,0.065,76.229,0.000,-0.514
'[13:21:43.796 30/01/1995]',0.020,-0.062,0.033,76.229,0.000,-0.514
'[13:21:43.798 30/01/1995]',0.002,-0.062,0.033,76.229,0.000,-0.514
'[13:21:43.800 30/01/1995]',0.002,-0.062,0.033,75.826,0.000,-0.510
'[13:21:43.802 30/01/1995]',0.002,-0.062,0.033,75.826,0.000,-0.510
'[13:21:43.804 30/01/1995]',0.020,-0.062,0.033,75.826,0.000,-0.510
'[13:21:43.806 30/01/1995]',0.020,-0.062,0.033,75.826,0.000,-0.510
'[13:21:43.808 30/01/1995]',0.020,-0.062,0.033,75.710,0.000,-0.506
'[13:21:43.810 30/01/1995]',0.020,-0.062,0.033,75.710,0.000,-0.506
'[13:21:43.812 30/01/1995]',0.002,-0.062,0.033,75.710,0.000,-0.506
'[13:21:43.814 30/01/1995]',0.002,-0.062,0.033,75.710,0.000,-0.506
'[13:21:43.816 30/01/1995]',0.002,-0.062,0.033,75.826,0.000,-0.502
'[13:21:43.818 30/01/1995]',0.002,-0.062,0.033,75.826,0.000,-0.502
'[13:21:43.820 30/01/1995]',0.002,-0.062,0.033,75.826,0.000,-0.502
'[13:21:43.822 30/01/1995]',0.020,-0.062,0.033,75.826,0.000,-0.502
'[13:21:43.824 30/01/1995]',0.020,-0.062,0.033,76.056,0.000,-0.499
'[13:21:43.826 30/01/1995]',0.020,-0.062,0.033,76.056,0.000,-0.499
'[13:21:43.828 30/01/1995]',0.020,-0.062,0.033,76.056,0.000,-0.499
'[13:21:43.830 30/01/1995]',0.002,-0.062,0.033,76.056,0.000,-0.499
'[13:21:43.832 30/01/1995]',0.002,-0.062,0.033,76.344,0.000,-0.496
'[13:21:43.834 30/01/1995]',0.002,-0.062,0.033,76.344,0.000,-0.496
'[13:21:43.836 30/01/1995]',0.002,-0.062,0.033,76.344,0.000,-0.496
'[13:21:43.838 30/01/1995]',0.020,-0.062,0.033,76.344,0.000,-0.496
'[13:21:43.840 30/01/1995]',0.020,-0.062,0.033,76.690,0.000,-0.494
'[13:21:43.842 30/01/1995]',0.020,-0.062,0.033,76.690,0.000,-0.494
'[13:21:43.844 30/01/1995]',0.020,-0.062,0.003,76.690,0.000,-0.494
'[13:21:43.846 30/01/1995]',0.020,-0.062,0.033,76.690,0.000,-0.494
'[13:21:43.848 30/01/1995]',0.002,-0.062,0.033,77.093,0.000,-0.493
'[13:21:43.850 30/01/1995]',0.002,-0.062,0.033,77.093,0.000,-0.493
'[13:21:43.852 30/01/1995]',0.020,-0.062,0.033,77.093,0.000,-0.493
'[13:21:43.854 30/01/1995]',0.020,-0.062,0.003,77.093,0.000,-0.493
'[13:21:43.856 30/01/1995]',0.020,-0.062,0.033,77.324,0.000,-0.493
'[13:21:43.858 30/01/1995]',0.020,-0.062,0.003,77.324,0.000,-0.493
'[13:21:43.860 30/01/1995]',0.020,-0.062,0.033,77.324,0.000,-0.493
'[13:21:43.862 30/01/1995]',0.020,-0.062,0.003,77.324,0.000,-0.493
'[13:21:43.864 30/01/1995]',0.002,-0.062,0.003,77.497,0.000,-0.492
'[13:21:43.866 30/01/1995]',0.002,-0.062,0.003,77.497,0.000,-0.492
'[13:21:43.868 30/01/1995]',0.002,-0.062,0.033,77.497,0.000,-0.492
'[13:21:43.870 30/01/1995]',0.020,-0.062,0.003,77.497,0.000,-0.492
'[13:21:43.872 30/01/1995]',0.020,-0.062,0.003,77.497,0.000,-0.492
'[13:21:43.874 30/01/1995]',0.020,-0.062,0.003,77.497,0.000,-0.492
'[13:21:43.876 30/01/1995]',0.020,-0.062,0.003,77.497,0.000,-0.492
'[13:21:43.878 30/01/1995]',0.020,-0.062,0.033,77.497,0.000,-0.492
'[13:21:43.880 30/01/1995]',0.020,-0.062,0.003,77.381,0.000,-0.491
'[13:21:43.882 30/01/1995]',0.002,-0.062,0.003,77.381,0.000,-0.491
'[13:21:43.884 30/01/1995]',0.002,-0.062,0.003,77.381,0.000,-0.491
'[13:21:43.886 30/01/1995]',0.002,-0.062,0.003,77.381,0.000,-0.491
'[13:21:43.888 30/01/1995]',0.002,-0.062,0.003,77.151,0.000,-0.491
'[13:21:43.890 30/01/1995]',0.020,-0.062,0.003,77.151,0.000,-0.491
'[13:21:43.892 30/01/1995]',0.020,-0.062,0.003,77.151,0.000,-0.491
'[13:21:43.894 30/01/1995]',0.020,-0.062,0.003,77.151,0.000,-0.491
'[13:21:43.896 30/01/1995]',0.020,-0.062,0.003,76.805,0.000,-0.491
'[13:21:43.898 30/01/1995]',0.002,-0.062,0.003,76.805,0.000,-0.491
'[13:21:43.900 30/01/1995]',0.002,-0.062,0.003,76.805,0.000,-0.491
'[13:21:43.902 30/01/1995]',0.002,-0.062,0.003,76.805,0.000,-0.491
'[13:21:43.904 30/01/1995]',0.020,-0.062,0.003,76.344,0.000,-0.491
'[13:21:43.906 30/01/1995]',0.020,-0.062,0.003,76.344,0.000,-0.491
'[13:21:43.908 30/01/1995]',0.020,-0.062,0.003,76.344,0.000,-0.491
'[13:21:43.910 30/01/1995]',0.020,-0.062,0.003,76.344,0.000,-0.491
'[13:21:43.912 30/01/1995]',0.020,-0.062,0.033,75.826,0.000,-0.492
'[13:21:43.914 30/01/1995]',0.039,-0.062,0.033,75.826,0.000,-0.492
'[13:21:43.916 30/01/1995]',0.039,-0.062,0.033,75.826,0.000,-0.492
'[13:21:43.918 30/01/1995]',0.058,-0.062,0.033,75.826,0.000,-0.492
'[13:21:43.920 30/01/1995]',0.077,-0.062,0.033,75.249,0.000,-0.492
'[13:21:43.922 30/01/1995]',0.077,-0.030,0.033,75.249,0.000,-0.492
'[13:21:43.924 30/01/1995]',0.077,-0.030,0.065,75.249,0.000,-0.492
'[13:21:43.926 30/01/1995]',0.077,-0.030,0.065,75.249,0.000,-0.492
'[13:21:43.928 30/01/1995]',0.077,-0.030,0.033,74.616,0.000,-0.493
'[13:21:43.930 30/01/1995]',0.058,-0.030,0.065,74.616,0.000,-0.493
'[13:21:43.932 30/01/1995]',0.058,-0.030,0.065,74.616,0.000,-0.493
'[13:21:43.934 30/01/1995]',0.058,-0.030,0.065,74.616,0.000,-0.493
'[13:21:43.936 30/01/1995]',0.077,-0.030,0.033,74.040,0.000,-0.494
'[13:21:43.938 30/01/1995]',0.096,-0.030,0.033,74.040,0.000,-0.494
'[13:21:43.940 30/01/1995]',0.096,-0.030,0.033,74.040,0.000,-0.494
'[13:21:43.942 30/01/1995]',0.096,-0.030,0.033,74.040,0.000,-0.494
'[13:21:43.944 30/01/1995]',0.096,-0.030,0.033,73.463,0.000,-0.495
'[13:21:43.946 30/01/1995]',0.096,-0.030,0.065,73.463,0.000,-0.495
'[13:21:43.948 30/01/1995]',0.077,-0.030,0.065,73.463,0.000,-0.495
'[13:21:43.950 30/01/1995]',0.077,-0.030,0.033,73.463,0.000,-0.495
'[13:21:43.952 30/01/1995]',0.077,0.003,0.033,72.887,0.000,-0.496
'[13:21:43.954 30/01/1995]',0.077,0.003,0.033,72.887,0.000,-0.496
'[13:21:43.956 30/01/1995]',0.077,0.003,0.033,72.887,0.000,-0.496
'[13:21:43.958 30/01/1995]',0.058,0.003,0.033,72.887,0.000,-0.496
'[13:21:43.960 30/01/1995]',0.058,0.003,0.033,72.311,0.000,-0.497
'[13:21:43.962 30/01/1995]',0.058,0.003,0.033,72.311,0.000,-0.497
'[13:21:43.964 30/01/1995]',0.039,0.003,0.033,72.311,0.000,-0.497
'[13:21:43.966 30/01/1995]',0.020,0.003,0.003,72.311,0.000,-0.497
'[13:21:43.968 30/01/1995]',0.002,0.003,0.003,71.735,0.000,-0.498
'[13:21:43.970 30/01/1995]',0.002,0.003,0.003,71.735,0.000,-0.498
'[13:21:43.972 30/01/1995]',0.002,0.003,0.003,71.735,0.000,-0.498
'[13:21:43.974 30/01/1995]',0.002,0.003,0.003,71.735,0.000,-0.498
'[13:21:43.976 30/01/1995]',0.002,0.003,0.003,71.274,0.000,-0.498
'[13:21:43.978 30/01/1995]',0.002,-0.030,0.003,71.274,0.000,-0.498
'[13:21:43.980 30/01/1995]',-0.017,-0.030,0.003,71.274,0.000,-0.498
'[13:21:43.982 30/01/1995]',-0.017,-0.030,0.003,71.274,0.000,-0.498
'[13:21:43.984 30/01/1995]',-0.017,-0.062,0.003,70.755,0.000,-0.498
'[13:21:43.986 30/01/1995]',-0.017,-0.062,0.003,70.755,0.000,-0.498
'[13:21:43.988 30/01/1995]',-0.017,-0.062,0.003,70.755,0.000,-0.498
'[13:21:43.990 30/01/1995]',-0.017,-0.062,0.003,70.755,0.000,-0.498
'[13:21:43.992 30/01/1995]',-0.017,-0.062,0.003,70.352,0.000,-0.497
'[13:21:43.994 30/01/1995]',-0.017,-0.062,0.003,70.352,0.000,-0.497
'[13:21:43.996 30/01/1995]',-0.036,-0.062,0.003,70.352,0.000,-0.497
'[13:21:43.998 30/01/1995]',-0.036,-0.062,0.003,70.352,0.000,-0.497
'[13:21:44.000 30/01/1995]',-0.036,-0.062,0.003,69.949,0.000,-0.497
'[13:21:44.002 30/01/1995]',-0.036,-0.062,0.003,69.949,0.000,-0.497
'[13:21:44.004 30/01/1995]',-0.036,-0.062,0.003,69.949,0.000,-0.497
'[13:21:44.006 30/01/1995]',-0.036,-0.062,0.003,69.949,0.000,-0.497
'[13:21:44.008 30/01/1995]',-0.036,-0.062,0.003,69.603,0.000,-0.496
'[13:21:44.010 30/01/1995]',-0.036,-0.062,0.003,69.603,0.000,-0.496
'[13:21:44.012 30/01/1995]',-0.036,-0.062,0.003,69.603,0.000,-0.496
'[13:21:44.014 30/01/1995]',-0.036,-0.062,0.003,69.603,0.000,-0.496
'[13:21:44.016 30/01/1995]',-0.036,-0.062,0.003,69.257,0.000,-0.495
'[13:21:44.018 30/01/1995]',-0.036,-0.062,0.003,69.257,0.000,-0.495
'[13:21:44.020 30/01/1995]',-0.036,-0.062,0.003,69.257,0.000,-0.495
'[13:21:44.022 30/01/1995]',-0.036,-0.062,0.003,69.257,0.000,-0.495
'[13:21:44.024 30/01/1995]',-0.017,-0.062,0.003,68.911,0.000,-0.493
'[13:21:44.026 30/01/1995]',-0.017,-0.030,0.003,68.911,0.000,-0.493
'[13:21:44.028 30/01/1995]',-0.017,-0.030,0.003,68.911,0.000,-0.493
'[13:21:44.030 30/01/1995]',-0.017,-0.030,0.033,68.911,0.000,-0.493
'[13:21:44.032 30/01/1995]',-0.017,-0.030,0.065,68.623,0.000,-0.491
'[13:21:44.034 30/01/1995]',-0.017,0.003,0.129,68.623,0.000,-0.491
'[13:21:44.036 30/01/1995]',0.002,0.003,0.193,68.623,0.000,-0.491
'[13:21:44.038 30/01/1995]',0.002,0.003,0.225,68.623,0.000,-0.491
'[13:21:44.040 30/01/1995]',0.002,0.003,0.193,68.335,0.000,-0.488
'[13:21:44.042 30/01/1995]',0.002,0.003,0.161,68.335,0.000,-0.488
'[13:21:44.044 30/01/1995]',0.020,0.003,0.065,68.335,0.000,-0.488
'[13:21:44.046 30/01/1995]',0.002,0.003,0.003,68.335,0.000,-0.488
'[13:21:44.048 30/01/1995]',0.002,0.003,-0.188,68.105,0.000,-0.485
'[13:21:44.050 30/01/1995]',-0.074,0.003,-0.443,68.105,0.000,-0.485
'[13:21:44.052 30/01/1995]',-0.150,0.034,-0.633,68.105,0.000,-0.485
'[13:21:44.054 30/01/1995]',-0.207,0.067,-0.888,68.105,0.000,-0.485
'[13:21:44.056 30/01/1995]',-0.263,0.132,-1.078,67.874,0.000,-0.482
'[13:21:44.058 30/01/1995]',-0.338,0.197,-1.238,67.874,0.000,-0.482
'[13:21:44.060 30/01/1995]',-0.452,0.295,-1.428,67.874,0.000,-0.482
'[13:21:44.062 30/01/1995]',-0.546,0.328,-1.555,67.874,0.000,-0.482
'[13:21:44.064 30/01/1995]',-0.621,0.393,-1.651,67.759,0.000,-0.478
'[13:21:44.066 30/01/1995]',-0.697,0.426,-1.778,67.759,0.000,-0.478
'[13:21:44.068 30/01/1995]',-0.773,0.458,-1.904,67.759,0.000,-0.478
'[13:21:44.070 30/01/1995]',-0.810,0.490,-1.936,67.759,0.000,-0.478
'[13:21:44.072 30/01/1995]',-0.848,0.555,-1.968,67.586,0.000,-0.474
'[13:21:44.074 30/01/1995]',-0.848,0.588,-1.968,67.586,0.000,-0.474
'[13:21:44.076 30/01/1995]',-0.810,0.620,-1.936,67.586,0.000,-0.474
'[13:21:44.078 30/01/1995]',-0.754,0.620,-1.872,67.586,0.000,-0.474
'[13:21:44.080 30/01/1995]',-0.678,0.620,-1.746,67.586,0.000,-0.470
'[13:21:44.082 30/01/1995]',-0.583,0.555,-1.619,67.586,0.000,-0.470
'[13:21:44.084 30/01/1995]',-0.490,0.490,-1.428,67.586,0.000,-0.470
'[13:21:44.086 30/01/1995]',-0.395,0.393,-1.270,67.586,0.000,-0.470
'[13:21:44.088 30/01/1995]',-0.338,0.295,-1.110,67.644,0.000,-0.467
'[13:21:44.090 30/01/1995]',-0.281,0.230,-0.983,67.644,0.000,-0.467
'[13:21:44.092 30/01/1995]',-0.225,0.165,-0.793,67.644,0.000,-0.467
'[13:21:44.094 30/01/1995]',-0.188,0.132,-0.665,67.644,0.000,-0.467
'[13:21:44.096 30/01/1995]',-0.150,0.099,-0.538,67.817,0.000,-0.464
'[13:21:44.098 30/01/1995]',-0.093,0.099,-0.412,67.817,0.000,-0.464
'[13:21:44.100 30/01/1995]',-0.074,0.067,-0.284,67.817,0.000,-0.464
'[13:21:44.102 30/01/1995]',-0.036,0.034,-0.157,67.817,0.000,-0.464
'[13:21:44.104 30/01/1995]',-0.017,0.034,-0.093,67.932,0.000,-0.461
'[13:21:44.106 30/01/1995]',0.002,0.003,-0.029,67.932,0.000,-0.461
'[13:21:44.108 30/01/1995]',0.002,0.003,0.003,67.932,0.000,-0.461
'[13:21:44.110 30/01/1995]',0.002,-0.030,0.033,67.932,0.000,-0.461
'[13:21:44.112 30/01/1995]',0.002,-0.030,0.065,68.162,0.000,-0.459
'[13:21:44.114 30/01/1995]',0.020,-0.030,0.097,68.162,0.000,-0.459
'[13:21:44.116 30/01/1995]',0.020,-0.030,0.161,68.162,0.000,-0.459
'[13:21:44.118 30/01/1995]',0.039,-0.030,0.161,68.162,0.000,-0.459
'[13:21:44.120 30/01/1995]',0.058,-0.030,0.193,68.335,0.000,-0.456
'[13:21:44.122 30/01/1995]',0.058,-0.062,0.193,68.335,0.000,-0.456
'[13:21:44.124 30/01/1995]',0.058,-0.062,0.193,68.335,0.000,-0.456
'[13:21:44.126 30/01/1995]',0.077,-0.062,0.193,68.335,0.000,-0.456
'[13:21:44.128 30/01/1995]',0.058,-0.062,0.225,68.451,0.000,-0.452
'[13:21:44.130 30/01/1995]',0.058,-0.062,0.225,68.451,0.000,-0.452
'[13:21:44.132 30/01/1995]',0.058,-0.062,0.225,68.451,0.000,-0.452
'[13:21:44.134 30/01/1995]',0.058,-0.062,0.225,68.451,0.000,-0.452
'[13:21:44.136 30/01/1995]',0.077,-0.062,0.225,68.451,0.000,-0.449
'[13:21:44.138 30/01/1995]',0.077,-0.062,0.225,68.451,0.000,-0.449
'[13:21:44.140 30/01/1995]',0.077,-0.062,0.225,68.451,0.000,-0.449
'[13:21:44.142 30/01/1995]',0.077,-0.062,0.225,68.451,0.000,-0.449
'[13:21:44.144 30/01/1995]',0.077,-0.062,0.257,68.451,0.000,-0.445
'[13:21:44.146 30/01/1995]',0.077,-0.062,0.257,68.451,0.000,-0.445
'[13:21:44.148 30/01/1995]',0.077,-0.062,0.257,68.451,0.000,-0.445
'[13:21:44.150 30/01/1995]',0.077,-0.062,0.225,68.451,0.000,-0.445
'[13:21:44.152 30/01/1995]',0.077,-0.062,0.257,68.220,0.000,-0.442
'[13:21:44.154 30/01/1995]',0.096,-0.062,0.257,68.220,0.000,-0.442
'[13:21:44.156 30/01/1995]',0.096,-0.062,0.257,68.220,0.000,-0.442
'[13:21:44.158 30/01/1995]',0.096,-0.062,0.257,68.220,0.000,-0.442
'[13:21:44.160 30/01/1995]',0.096,-0.062,0.257,68.047,0.000,-0.439
'[13:21:44.162 30/01/1995]',0.096,-0.062,0.257,68.047,0.000,-0.439
'[13:21:44.164 30/01/1995]',0.077,-0.062,0.257,68.047,0.000,-0.439
'[13:21:44.166 30/01/1995]',0.077,-0.062,0.257,68.047,0.000,-0.439
'[13:21:44.168 30/01/1995]',0.077,-0.062,0.257,67.644,0.000,-0.435
'[13:21:44.170 30/01/1995]',0.077,-0.062,0.257,67.644,0.000,-0.435
'[13:21:44.172 30/01/1995]',0.096,-0.062,0.257,67.644,0.000,-0.435
'[13:21:44.174 30/01/1995]',0.096,-0.062,0.257,67.644,0.000,-0.435
'[13:21:44.176 30/01/1995]',0.096,-0.062,0.257,67.241,0.000,-0.433
'[13:21:44.178 30/01/1995]',0.096,-0.062,0.257,67.241,0.000,-0.433
'[13:21:44.180 30/01/1995]',0.096,-0.030,0.257,67.241,0.000,-0.433
'[13:21:44.182 30/01/1995]',0.096,-0.062,0.257,67.241,0.000,-0.433
'[13:21:44.184 30/01/1995]',0.096,-0.062,0.257,66.780,0.000,-0.433
'[13:21:44.186 30/01/1995]',0.096,-0.030,0.257,66.780,0.000,-0.433
'[13:21:44.188 30/01/1995]',0.096,-0.030,0.225,66.780,0.000,-0.433
'[13:21:44.190 30/01/1995]',0.114,-0.030,0.257,66.780,0.000,-0.433
'[13:21:44.192 30/01/1995]',0.114,-0.030,0.257,66.319,0.000,-0.435
'[13:21:44.194 30/01/1995]',0.114,-0.030,0.257,66.319,0.000,-0.435
'[13:21:44.196 30/01/1995]',0.096,-0.030,0.257,66.319,0.000,-0.435
'[13:21:44.198 30/01/1995]',0.096,-0.030,0.257,66.319,0.000,-0.435
'[13:21:44.200 30/01/1995]',0.096,-0.030,0.257,65.800,0.000,-0.439
'[13:21:44.202 30/01/1995]',0.096,-0.030,0.257,65.800,0.000,-0.439
'[13:21:44.204 30/01/1995]',0.114,-0.030,0.257,65.800,0.000,-0.439
'[13:21:44.206 30/01/1995]',0.114,-0.030,0.257,65.800,0.000,-0.439
'[13:21:44.208 30/01/1995]',0.114,-0.030,0.257,65.339,0.000,-0.444
'[13:21:44.210 30/01/1995]',0.114,-0.030,0.257,65.339,0.000,-0.444
'[13:21:44.212 30/01/1995]',0.114,-0.030,0.257,65.339,0.000,-0.444
'[13:21:44.214 30/01/1995]',0.114,-0.030,0.257,65.339,0.000,-0.444
'[13:21:44.216 30/01/1995]',0.114,-0.030,0.225,64.993,0.000,-0.449
'[13:21:44.218 30/01/1995]',0.114,-0.030,0.257,64.993,0.000,-0.449
'[13:21:44.220 30/01/1995]',0.133,-0.030,0.257,64.993,0.000,-0.449
'[13:21:44.222 30/01/1995]',0.133,-0.030,0.225,64.993,0.000,-0.449
'[13:21:44.224 30/01/1995]',0.133,0.003,0.257,64.705,0.000,-0.456
'[13:21:44.226 30/01/1995]',0.133,0.003,0.257,64.705,0.000,-0.456
'[13:21:44.228 30/01/1995]',0.133,0.003,0.225,64.705,0.000,-0.456
'[13:21:44.230 30/01/1995]',0.114,0.003,0.257,64.705,0.000,-0.456
'[13:21:44.232 30/01/1995]',0.114,0.003,0.257,64.532,0.000,-0.463
'[13:21:44.234 30/01/1995]',0.114,0.003,0.257,64.532,0.000,-0.463
'[13:21:44.236 30/01/1995]',0.133,0.003,0.225,64.532,0.000,-0.463
'[13:21:44.238 30/01/1995]',0.133,0.003,0.257,64.532,0.000,-0.463
'[13:21:44.240 30/01/1995]',0.133,0.003,0.225,64.417,0.000,-0.470
'[13:21:44.242 30/01/1995]',0.133,0.003,0.225,64.417,0.000,-0.470
'[13:21:44.244 30/01/1995]',0.133,0.003,0.225,64.417,0.000,-0.470
'[13:21:44.246 30/01/1995]',0.114,0.003,0.225,64.417,0.000,-0.470
'[13:21:44.248 30/01/1995]',0.114,0.003,0.225,64.532,0.000,-0.478
'[13:21:44.250 30/01/1995]',0.114,0.003,0.225,64.532,0.000,-0.478
'[13:21:44.252 30/01/1995]',0.114,0.003,0.225,64.532,0.000,-0.478
'[13:21:44.254 30/01/1995]',0.114,0.003,0.225,64.532,0.000,-0.478
'[13:21:44.256 30/01/1995]',0.114,0.003,0.225,64.993,0.000,-0.486
'[13:21:44.258 30/01/1995]',0.114,0.003,0.225,64.993,0.000,-0.486
'[13:21:44.260 30/01/1995]',0.114,0.003,0.225,64.993,0.000,-0.486
'[13:21:44.262 30/01/1995]',0.114,0.003,0.225,64.993,0.000,-0.486
'[13:21:44.264 30/01/1995]',0.114,0.034,0.225,66.088,0.000,-0.494
'[13:21:44.266 30/01/1995]',0.114,0.034,0.225,66.088,0.000,-0.494
'[13:21:44.268 30/01/1995]',0.114,0.034,0.225,66.088,0.000,-0.494
'[13:21:44.270 30/01/1995]',0.114,0.034,0.225,66.088,0.000,-0.494
'[13:21:44.272 30/01/1995]',0.114,0.034,0.225,68.220,0.000,-0.502
'[13:21:44.274 30/01/1995]',0.114,0.034,0.225,68.220,0.000,-0.502
'[13:21:44.276 30/01/1995]',0.114,0.034,0.225,68.220,0.000,-0.502
'[13:21:44.278 30/01/1995]',0.114,0.034,0.225,68.220,0.000,-0.502
'[13:21:44.280 30/01/1995]',0.096,0.067,0.225,71.562,0.000,-0.510
'[13:21:44.282 30/01/1995]',0.096,0.067,0.225,71.562,0.000,-0.510
'[13:21:44.284 30/01/1995]',0.096,0.067,0.193,71.562,0.000,-0.510
'[13:21:44.286 30/01/1995]',0.114,0.067,0.161,71.562,0.000,-0.510
'[13:21:44.288 30/01/1995]',0.096,0.067,0.161,76.229,0.000,-0.517
'[13:21:44.290 30/01/1995]',0.096,0.067,0.161,76.229,0.000,-0.517
'[13:21:44.292 30/01/1995]',0.114,0.067,0.161,76.229,0.000,-0.517
'[13:21:44.294 30/01/1995]',0.096,0.067,0.161,76.229,0.000,-0.517
'[13:21:44.296 30/01/1995]',0.096,0.067,0.161,82.106,0.000,-0.523
'[13:21:44.298 30/01/1995]',0.096,0.067,0.161,82.106,0.000,-0.523
'[13:21:44.300 30/01/1995]',0.096,0.099,0.161,82.106,0.000,-0.523
'[13:21:44.302 30/01/1995]',0.096,0.099,0.129,82.106,0.000,-0.523
'[13:21:44.304 30/01/1995]',0.096,0.099,0.129,88.617,0.000,-0.529
'[13:21:44.306 30/01/1995]',0.096,0.099,0.129,88.617,0.000,-0.529
'[13:21:44.308 30/01/1995]',0.096,0.099,0.129,88.617,0.000,-0.529
'[13:21:44.310 30/01/1995]',0.096,0.099,0.129,88.617,0.000,-0.529
'[13:21:44.312 30/01/1995]',0.096,0.132,0.129,95.301,0.000,-0.534
'[13:21:44.314 30/01/1995]',0.077,0.132,0.129,95.301,0.000,-0.534
'[13:21:44.316 30/01/1995]',0.077,0.132,0.129,95.301,0.000,-0.534
'[13:21:44.318 30/01/1995]',0.077,0.132,0.097,95.301,0.000,-0.534
'[13:21:44.320 30/01/1995]',0.077,0.132,0.097,101.581,0.000,-0.538
'[13:21:44.322 30/01/1995]',0.096,0.165,0.097,101.581,0.000,-0.538
'[13:21:44.324 30/01/1995]',0.077,0.165,0.097,101.581,0.000,-0.538
'[13:21:44.326 30/01/1995]',0.077,0.165,0.097,101.581,0.000,-0.538
'[13:21:44.328 30/01/1995]',0.077,0.165,0.097,106.940,0.000,-0.542
'[13:21:44.330 30/01/1995]',0.077,0.165,0.097,106.940,0.000,-0.542
'[13:21:44.332 30/01/1995]',0.077,0.165,0.065,106.940,0.000,-0.542
'[13:21:44.334 30/01/1995]',0.077,0.165,0.097,106.940,0.000,-0.542
'[13:21:44.336 30/01/1995]',0.058,0.165,0.065,111.261,0.000,-0.546
'[13:21:44.338 30/01/1995]',0.077,0.197,0.065,111.261,0.000,-0.546
'[13:21:44.340 30/01/1995]',0.077,0.165,0.033,111.261,0.000,-0.546
'[13:21:44.342 30/01/1995]',0.077,0.197,0.065,111.261,0.000,-0.546
'[13:21:44.344 30/01/1995]',0.058,0.197,0.033,114.257,0.000,-0.550
'[13:21:44.346 30/01/1995]',0.058,0.197,0.033,114.257,0.000,-0.550
'[13:21:44.348 30/01/1995]',0.058,0.197,0.033,114.257,0.000,-0.550
'[13:21:44.350 30/01/1995]',0.058,0.197,0.033,114.257,0.000,-0.550
'[13:21:44.352 30/01/1995]',0.058,0.197,0.033,115.986,0.000,-0.553
'[13:21:44.354 30/01/1995]',0.058,0.197,0.003,115.986,0.000,-0.553
'[13:21:44.356 30/01/1995]',0.058,0.197,0.003,115.986,0.000,-0.553
'[13:21:44.358 30/01/1995]',0.058,0.165,0.003,115.986,0.000,-0.553
'[13:21:44.360 30/01/1995]',0.058,0.165,0.003,116.619,0.000,-0.556
'[13:21:44.362 30/01/1995]',0.039,0.165,0.003,116.619,0.000,-0.556
'[13:21:44.364 30/01/1995]',0.039,0.165,0.003,116.619,0.000,-0.556
'[13:21:44.366 30/01/1995]',0.039,0.132,0.003,116.619,0.000,-0.556
'[13:21:44.368 30/01/1995]',0.039,0.132,0.003,116.158,0.000,-0.558
'[13:21:44.370 30/01/1995]',0.039,0.132,0.003,116.158,0.000,-0.558
'[13:21:44.372 30/01/1995]',0.039,0.099,0.003,116.158,0.000,-0.558
'[13:21:44.374 30/01/1995]',0.039,0.099,0.003,116.158,0.000,-0.558
'[13:21:44.376 30/01/1995]',0.039,0.099,0.003,114.948,0.000,-0.560
'[13:21:44.378 30/01/1995]',0.020,0.067,0.003,114.948,0.000,-0.560
'[13:21:44.380 30/01/1995]',0.020,0.067,0.003,114.948,0.000,-0.560
'[13:21:44.382 30/01/1995]',0.020,0.034,0.003,114.948,0.000,-0.560
'[13:21:44.384 30/01/1995]',0.020,0.034,0.003,113.047,0.000,-0.562
'[13:21:44.386 30/01/1995]',0.020,0.034,0.003,113.047,0.000,-0.562
'[13:21:44.388 30/01/1995]',0.020,0.003,0.003,113.047,0.000,-0.562
'[13:21:44.390 30/01/1995]',0.020,0.003,0.003,113.047,0.000,-0.562
'[13:21:44.392 30/01/1995]',0.020,0.003,0.003,110.800,0.000,-0.564
'[13:21:44.394 30/01/1995]',0.020,0.003,0.003,110.800,0.000,-0.564
'[13:21:44.396 30/01/1995]',0.020,0.003,0.003,110.800,0.000,-0.564
'[13:21:44.398 30/01/1995]',0.002,0.003,0.003,110.800,0.000,-0.564
'[13:21:44.400 30/01/1995]',0.002,-0.030,0.003,108.380,0.000,-0.565
'[13:21:44.402 30/01/1995]',0.002,-0.030,0.003,108.380,0.000,-0.565
'[13:21:44.404 30/01/1995]',0.002,-0.030,0.003,108.380,0.000,-0.565
'[13:21:44.406 30/01/1995]',0.002,-0.030,0.003,108.380,0.000,-0.565
'[13:21:44.408 30/01/1995]',0.002,-0.062,0.003,105.902,0.000,-0.566
'[13:21:44.410 30/01/1995]',0.002,-0.062,0.003,105.902,0.000,-0.566
'[13:21:44.412 30/01/1995]',0.002,-0.062,0.033,105.902,0.000,-0.566
'[13:21:44.414 30/01/1995]',0.002,-0.062,0.033,105.902,0.000,-0.566
'[13:21:44.416 30/01/1995]',0.002,-0.062,0.033,103.425,0.000,-0.567
'[13:21:44.418 30/01/1995]',0.002,-0.062,0.033,103.425,0.000,-0.567
'[13:21:44.420 30/01/1995]',0.002,-0.062,0.033,103.425,0.000,-0.567
'[13:21:44.422 30/01/1995]',0.002,-0.095,0.033,103.425,0.000,-0.567
'[13:21:44.424 30/01/1995]',0.002,-0.062,0.003,100.947,0.000,-0.568
'[13:21:44.426 30/01/1995]',0.002,-0.095,0.033,100.947,0.000,-0.568
'[13:21:44.428 30/01/1995]',0.002,-0.095,0.033,100.947,0.000,-0.568
'[13:21:44.430 30/01/1995]',0.002,-0.095,0.033,100.947,0.000,-0.568
'[13:21:44.432 30/01/1995]',0.002,-0.095,0.033,98.700,0.000,-0.569
'[13:21:44.434 30/01/1995]',0.002,-0.095,0.033,98.700,0.000,-0.569
'[13:21:44.436 30/01/1995]',0.002,-0.095,0.033,98.700,0.000,-0.569
'[13:21:44.438 30/01/1995]',0.002,-0.095,0.003,98.700,0.000,-0.569
'[13:21:44.440 30/01/1995]',0.002,-0.095,0.033,96.453,0.000,-0.571
'[13:21:44.442 30/01/1995]',0.002,-0.095,0.003,96.453,0.000,-0.571
'[13:21:44.444 30/01/1995]',0.002,-0.095,0.033,96.453,0.000,-0.571
'[13:21:44.446 30/01/1995]',0.002,-0.095,0.003,96.453,0.000,-0.571
'[13:21:44.448 30/01/1995]',0.002,-0.095,0.033,94.379,0.000,-0.574
'[13:21:44.450 30/01/1995]',0.002,-0.095,0.033,94.379,0.000,-0.574
'[13:21:44.452 30/01/1995]',0.002,-0.095,0.033,94.379,0.000,-0.574
'[13:21:44.454 30/01/1995]',0.002,-0.095,0.033,94.379,0.000,-0.574
'[13:21:44.456 30/01/1995]',0.002,-0.095,0.033,92.362,0.000,-0.577
'[13:21:44.458 30/01/1995]',0.002,-0.095,0.033,92.362,0.000,-0.577
'[13:21:44.460 30/01/1995]',0.002,-0.095,0.033,92.362,0.000,-0.577
'[13:21:44.462 30/01/1995]',0.002,-0.095,0.033,92.362,0.000,-0.577
'[13:21:44.464 30/01/1995]',0.002,-0.095,0.033,90.518,0.000,-0.580
'[13:21:44.466 30/01/1995]',0.002,-0.095,0.033,90.518,0.000,-0.580
'[13:21:44.468 30/01/1995]',0.002,-0.095,0.033,90.518,0.000,-0.580
'[13:21:44.470 30/01/1995]',0.002,-0.095,0.033,90.518,0.000,-0.580
'[13:21:44.472 30/01/1995]',0.002,-0.095,0.003,88.732,0.000,-0.584
'[13:21:44.474 30/01/1995]',0.002,-0.095,0.003,88.732,0.000,-0.584
'[13:21:44.476 30/01/1995]',0.002,-0.095,0.033,88.732,0.000,-0.584
'[13:21:44.478 30/01/1995]',0.002,-0.095,0.033,88.732,0.000,-0.584
'[13:21:44.480 30/01/1995]',0.002,-0.095,0.033,87.004,0.000,-0.588
'[13:21:44.482 30/01/1995]',0.002,-0.095,0.033,87.004,0.000,-0.588
'[13:21:44.484 30/01/1995]',0.002,-0.095,0.033,87.004,0.000,-0.588
'[13:21:44.486 30/01/1995]',0.002,-0.095,0.033,87.004,0.000,-0.588
'[13:21:44.488 30/01/1995]',0.002,-0.095,0.033,85.333,0.000,-0.593
'[13:21:44.490 30/01/1995]',0.002,-0.095,0.033,85.333,0.000,-0.593
'[13:21:44.492 30/01/1995]',0.002,-0.062,0.003,85.333,0.000,-0.593
'[13:21:44.494 30/01/1995]',0.002,-0.062,0.003,85.333,0.000,-0.593
'[13:21:44.496 30/01/1995]',0.002,-0.062,0.033,83.662,0.000,-0.597
'[13:21:44.498 30/01/1995]',0.002,-0.062,0.033,83.662,0.000,-0.597
'[13:21:44.500 30/01/1995]',0.002,-0.095,0.033,83.662,0.000,-0.597
'[13:21:44.502 30/01/1995]',0.002,-0.062,0.033,83.662,0.000,-0.597
'[13:21:44.504 30/01/1995]',0.002,-0.062,0.033,82.106,0.000,-0.600
'[13:21:44.506 30/01/1995]',0.002,-0.062,0.033,82.106,0.000,-0.600
'[13:21:44.508 30/01/1995]',0.002,-0.062,0.033,82.106,0.000,-0.600
'[13:21:44.510 30/01/1995]',0.002,-0.062,0.033,82.106,0.000,-0.600
'[13:21:44.512 30/01/1995]',0.002,-0.062,0.033,80.666,0.000,-0.601
'[13:21:44.514 30/01/1995]',0.002,-0.062,0.033,80.666,0.000,-0.601
'[13:21:44.516 30/01/1995]',0.002,-0.062,0.033,80.666,0.000,-0.601
'[13:21:44.518 30/01/1995]',0.002,-0.062,0.033,80.666,0.000,-0.601
'[13:21:44.520 30/01/1995]',0.002,-0.062,0.033,79.398,0.000,-0.602
'[13:21:44.522 30/01/1995]',0.002,-0.062,0.033,79.398,0.000,-0.602
'[13:21:44.524 30/01/1995]',0.002,-0.062,0.033,79.398,0.000,-0.602
'[13:21:44.526 30/01/1995]',0.002,-0.062,0.033,79.398,0.000,-0.602
'[13:21:44.528 30/01/1995]',0.002,-0.062,0.033,78.418,0.000,-0.602
'[13:21:44.530 30/01/1995]',0.002,-0.062,0.033,78.418,0.000,-0.602
'[13:21:44.532 30/01/1995]',0.002,-0.062,0.033,78.418,0.000,-0.602
'[13:21:44.534 30/01/1995]',0.002,-0.062,0.033,78.418,0.000,-0.602
'[13:21:44.536 30/01/1995]',0.002,-0.062,0.033,77.727,0.000,-0.602
'[13:21:44.538 30/01/1995]',0.002,-0.062,0.033,77.727,0.000,-0.602
'[13:21:44.540 30/01/1995]',0.002,-0.062,0.033,77.727,0.000,-0.602
'[13:21:44.542 30/01/1995]',0.002,-0.062,0.033,77.727,0.000,-0.602
'[13:21:44.544 30/01/1995]',0.002,-0.062,0.033,77.324,0.000,-0.601
'[13:21:44.546 30/01/1995]',0.002,-0.062,0.033,77.324,0.000,-0.601
'[13:21:44.548 30/01/1995]',-0.017,-0.062,0.033,77.324,0.000,-0.601
'[13:21:44.550 30/01/1995]',-0.017,-0.062,0.003,77.324,0.000,-0.601
'[13:21:44.552 30/01/1995]',0.002,-0.062,0.003,77.209,0.000,-0.600
'[13:21:44.554 30/01/1995]',0.002,-0.062,0.033,77.209,0.000,-0.600
'[13:21:44.556 30/01/1995]',0.002,-0.062,0.033,77.209,0.000,-0.600
'[13:21:44.558 30/01/1995]',0.002,-0.062,0.033,77.209,0.000,-0.600
'[13:21:44.560 30/01/1995]',0.002,-0.062,0.003,77.266,0.000,-0.599
'[13:21:44.562 30/01/1995]',0.002,-0.062,0.003,77.266,0.000,-0.599
'[13:21:44.564 30/01/1995]',-0.017,-0.062,0.003,77.266,0.000,-0.599
'[13:21:44.566 30/01/1995]',-0.017,-0.062,0.003,77.266,0.000,-0.599
'[13:21:44.568 30/01/1995]',-0.017,-0.062,0.003,77.497,0.000,-0.597
'[13:21:44.570 30/01/1995]',0.002,-0.062,0.003,77.497,0.000,-0.597
'[13:21:44.572 30/01/1995]',0.002,-0.062,0.003,77.497,0.000,-0.597
'[13:21:44.574 30/01/1995]',0.002,-0.062,0.003,77.497,0.000,-0.597
'[13:21:44.576 30/01/1995]',0.002,-0.062,0.003,77.785,0.000,-0.594
'[13:21:44.578 30/01/1995]',-0.017,-0.062,0.003,77.785,0.000,-0.594
'[13:21:44.580 30/01/1995]',-0.017,-0.062,0.003,77.785,0.000,-0.594
'[13:21:44.582 30/01/1995]',-0.017,-0.062,0.003,77.785,0.000,-0.594
'[13:21:44.584 30/01/1995]',-0.017,-0.062,0.003,78.130,0.000,-0.592
'[13:21:44.586 30/01/1995]',-0.017,-0.062,0.003,78.130,0.000,-0.592
'[13:21:44.588 30/01/1995]',0.002,-0.062,0.003,78.130,0.000,-0.592
'[13:21:44.590 30/01/1995]',0.002,-0.062,0.003,78.130,0.000,-0.592
'[13:21:44.592 30/01/1995]',0.002,-0.062,0.003,78.303,0.000,-0.589
'[13:21:44.594 30/01/1995]',0.002,-0.062,0.003,78.303,0.000,-0.589
'[13:21:44.596 30/01/1995]',0.002,-0.062,0.003,78.303,0.000,-0.589
'[13:21:44.598 30/01/1995]',-0.017,-0.062,0.003,78.303,0.000,-0.589
'[13:21:44.600 30/01/1995]',0.002,-0.062,0.003,78.534,0.000,-0.587
'[13:21:44.602 30/01/1995]',0.002,-0.062,0.003,78.534,0.000,-0.587
'[13:21:44.604 30/01/1995]',0.002,-0.062,0.003,78.534,0.000,-0.587
'[13:21:44.606 30/01/1995]',0.002,-0.062,0.003,78.534,0.000,-0.587
'[13:21:44.608 30/01/1995]',0.002,-0.062,0.003,78.591,0.000,-0.584
'[13:21:44.610 30/01/1995]',0.002,-0.062,0.003,78.591,0.000,-0.584
'[13:21:44.612 30/01/1995]',0.002,-0.062,0.003,78.591,0.000,-0.584
'[13:21:44.614 30/01/1995]',-0.017,-0.062,0.003,78.591,0.000,-0.584
'[13:21:44.616 30/01/1995]',-0.017,-0.062,0.003,78.534,0.000,-0.582
'[13:21:44.618 30/01/1995]',-0.017,-0.062,0.003,78.534,0.000,-0.582
'[13:21:44.620 30/01/1995]',0.002,-0.062,0.003,78.534,0.000,-0.582
'[13:21:44.622 30/01/1995]',0.002,-0.062,0.003,78.534,0.000,-0.582
'[13:21:44.624 30/01/1995]',0.002,-0.062,0.003,78.303,0.000,-0.580
'[13:21:44.626 30/01/1995]',0.002,-0.062,0.003,78.303,0.000,-0.580
'[13:21:44.628 30/01/1995]',0.002,-0.062,0.003,78.303,0.000,-0.580
'[13:21:44.630 30/01/1995]',0.002,-0.062,0.003,78.303,0.000,-0.580
'[13:21:44.632 30/01/1995]',0.002,-0.062,0.003,78.015,0.000,-0.578
'[13:21:44.634 30/01/1995]',0.002,-0.062,0.003,78.015,0.000,-0.578
'[13:21:44.636 30/01/1995]',0.002,-0.062,0.003,78.015,0.000,-0.578
'[13:21:44.638 30/01/1995]',0.020,-0.062,0.033,78.015,0.000,-0.578
'[13:21:44.640 30/01/1995]',0.039,-0.062,0.033,77.612,0.000,-0.575
'[13:21:44.642 30/01/1995]',0.039,-0.062,0.033,77.612,0.000,-0.575
'[13:21:44.644 30/01/1995]',0.039,-0.030,0.033,77.612,0.000,-0.575
'[13:21:44.646 30/01/1995]',0.039,-0.062,0.033,77.612,0.000,-0.575
'[13:21:44.648 30/01/1995]',0.039,-0.062,0.033,77.093,0.000,-0.572
'[13:21:44.650 30/01/1995]',0.039,-0.062,0.033,77.093,0.000,-0.572
'[13:21:44.652 30/01/1995]',0.039,-0.062,0.033,77.093,0.000,-0.572
'[13:21:44.654 30/01/1995]',0.058,-0.062,0.033,77.093,0.000,-0.572
'[13:21:44.656 30/01/1995]',0.058,-0.062,0.033,76.575,0.000,-0.569
'[13:21:44.658 30/01/1995]',0.058,-0.030,0.033,76.575,0.000,-0.569
'[13:21:44.660 30/01/1995]',0.077,-0.030,0.033,76.575,0.000,-0.569
'[13:21:44.662 30/01/1995]',0.077,-0.030,0.033,76.575,0.000,-0.569
'[13:21:44.664 30/01/1995]',0.077,-0.030,0.033,75.999,0.000,-0.566
'[13:21:44.666 30/01/1995]',0.077,-0.030,0.033,75.999,0.000,-0.566
'[13:21:44.668 30/01/1995]',0.077,-0.030,0.033,75.999,0.000,-0.566
'[13:21:44.670 30/01/1995]',0.077,-0.030,0.033,75.999,0.000,-0.566
'[13:21:44.672 30/01/1995]',0.077,0.003,0.033,75.422,0.000,-0.562
'[13:21:44.674 30/01/1995]',0.058,0.003,0.003,75.422,0.000,-0.562
'[13:21:44.676 30/01/1995]',0.058,0.003,0.003,75.422,0.000,-0.562
'[13:21:44.678 30/01/1995]',0.039,0.003,0.003,75.422,0.000,-0.562
'[13:21:44.680 30/01/1995]',0.039,0.003,0.003,74.789,0.000,-0.559
'[13:21:44.682 30/01/1995]',0.020,0.003,0.003,74.789,0.000,-0.559
'[13:21:44.684 30/01/1995]',0.020,0.003,0.003,74.789,0.000,-0.559
'[13:21:44.686 30/01/1995]',0.020,0.003,0.003,74.789,0.000,-0.559
'[13:21:44.688 30/01/1995]',0.002,0.003,0.003,74.212,0.000,-0.556
'[13:21:44.690 30/01/1995]',0.002,0.003,0.003,74.212,0.000,-0.556
'[13:21:44.692 30/01/1995]',0.002,0.003,0.003,74.212,0.000,-0.556
'[13:21:44.694 30/01/1995]',0.002,0.003,0.003,74.212,0.000,-0.556
'[13:21:44.696 30/01/1995]',-0.017,0.003,0.003,73.636,0.000,-0.554
'[13:21:44.698 30/01/1995]',-0.017,-0.030,0.003,73.636,0.000,-0.554
'[13:21:44.700 30/01/1995]',-0.017,-0.030,0.003,73.636,0.000,-0.554
'[13:21:44.702 30/01/1995]',-0.017,-0.062,0.003,73.636,0.000,-0.554
'[13:21:44.704 30/01/1995]',-0.017,-0.062,-0.029,73.118,0.000,-0.551
'[13:21:44.706 30/01/1995]',-0.017,-0.062,-0.029,73.118,0.000,-0.551
'[13:21:44.708 30/01/1995]',-0.017,-0.062,-0.029,73.118,0.000,-0.551
'[13:21:44.710 30/01/1995]',-0.036,-0.062,0.003,73.118,0.000,-0.551
'[13:21:44.712 30/01/1995]',-0.036,-0.062,-0.029,72.599,0.000,-0.549
'[13:21:44.714 30/01/1995]',-0.036,-0.062,-0.029,72.599,0.000,-0.549
'[13:21:44.716 30/01/1995]',-0.036,-0.062,-0.029,72.599,0.000,-0.549
'[13:21:44.718 30/01/1995]',-0.036,-0.062,0.003,72.599,0.000,-0.549
'[13:21:44.720 30/01/1995]',-0.036,-0.062,-0.029,72.138,0.000,-0.546
'[13:21:44.722 30/01/1995]',-0.036,-0.062,-0.029,72.138,0.000,-0.546
'[13:21:44.724 30/01/1995]',-0.036,-0.062,-0.029,72.138,0.000,-0.546
'[13:21:44.726 30/01/1995]',-0.036,-0.062,-0.029,72.138,0.000,-0.546
'[13:21:44.728 30/01/1995]',-0.036,-0.062,-0.029,71.677,0.000,-0.543
'[13:21:44.730 30/01/1995]',-0.036,-0.062,-0.029,71.677,0.000,-0.543
'[13:21:44.732 30/01/1995]',-0.036,-0.062,-0.029,71.677,0.000,-0.543
'[13:21:44.734 30/01/1995]',-0.036,-0.062,-0.029,71.677,0.000,-0.543
'[13:21:44.736 30/01/1995]',-0.036,-0.062,0.003,71.216,0.000,-0.540
'[13:21:44.738 30/01/1995]',-0.036,-0.062,0.003,71.216,0.000,-0.540
'[13:21:44.740 30/01/1995]',-0.036,-0.062,-0.029,71.216,0.000,-0.540
'[13:21:44.742 30/01/1995]',-0.036,-0.062,-0.029,71.216,0.000,-0.540
'[13:21:44.744 30/01/1995]',-0.036,-0.062,-0.029,70.870,0.000,-0.537
'[13:21:44.746 30/01/1995]',-0.036,-0.062,0.003,70.870,0.000,-0.537
'[13:21:44.748 30/01/1995]',-0.036,-0.062,0.003,70.870,0.000,-0.537
'[13:21:44.750 30/01/1995]',-0.036,-0.030,0.003,70.870,0.000,-0.537
'[13:21:44.752 30/01/1995]',-0.036,-0.030,0.033,70.467,0.000,-0.534
'[13:21:44.754 30/01/1995]',-0.017,-0.030,0.097,70.467,0.000,-0.534
'[13:21:44.756 30/01/1995]',0.002,0.003,0.161,70.467,0.000,-0.534
'[13:21:44.758 30/01/1995]',0.002,0.003,0.225,70.467,0.000,-0.534
'[13:21:44.760 30/01/1995]',0.002,0.003,0.193,70.121,0.000,-0.530
'[13:21:44.762 30/01/1995]',0.002,0.003,0.161,70.121,0.000,-0.530
'[13:21:44.764 30/01/1995]',0.002,0.003,0.097,70.121,0.000,-0.530
'[13:21:44.766 30/01/1995]',0.002,0.003,0.003,70.121,0.000,-0.530
'[13:21:44.768 30/01/1995]',-0.017,0.003,-0.157,69.833,0.000,-0.526
'[13:21:44.770 30/01/1995]',-0.074,0.034,-0.412,69.833,0.000,-0.526
'[13:21:44.772 30/01/1995]',-0.169,0.034,-0.665,69.833,0.000,-0.526
'[13:21:44.774 30/01/1995]',-0.244,0.099,-0.888,69.833,0.000,-0.526
'[13:21:44.776 30/01/1995]',-0.300,0.132,-1.078,69.545,0.000,-0.522
'[13:21:44.778 30/01/1995]',-0.414,0.197,-1.270,69.545,0.000,-0.522
'[13:21:44.780 30/01/1995]',-0.528,0.263,-1.459,69.545,0.000,-0.522
'[13:21:44.782 30/01/1995]',-0.602,0.328,-1.555,69.545,0.000,-0.522
'[13:21:44.784 30/01/1995]',-0.678,0.393,-1.683,69.372,0.000,-0.518
'[13:21:44.786 30/01/1995]',-0.754,0.426,-1.809,69.372,0.000,-0.518
'[13:21:44.788 30/01/1995]',-0.829,0.458,-1.936,69.372,0.000,-0.518
'[13:21:44.790 30/01/1995]',-0.886,0.522,-2.032,69.372,0.000,-0.518
'[13:21:44.792 30/01/1995]',-0.904,0.555,-2.064,69.257,0.000,-0.513
'[13:21:44.794 30/01/1995]',-0.923,0.620,-2.064,69.257,0.000,-0.513
'[13:21:44.796 30/01/1995]',-0.886,0.653,-2.032,69.257,0.000,-0.513
'[13:21:44.798 30/01/1995]',-0.848,0.685,-1.936,69.257,0.000,-0.513
'[13:21:44.800 30/01/1995]',-0.773,0.653,-1.841,69.142,0.000,-0.508
'[13:21:44.802 30/01/1995]',-0.678,0.653,-1.714,69.142,0.000,-0.508
'[13:21:44.804 30/01/1995]',-0.565,0.588,-1.555,69.142,0.000,-0.508
'[13:21:44.806 30/01/1995]',-0.471,0.490,-1.364,69.142,0.000,-0.508
'[13:21:44.808 30/01/1995]',-0.376,0.361,-1.206,69.200,0.000,-0.503
'[13:21:44.810 30/01/1995]',-0.319,0.295,-1.014,69.200,0.000,-0.503
'[13:21:44.812 30/01/1995]',-0.263,0.230,-0.857,69.200,0.000,-0.503
'[13:21:44.814 30/01/1995]',-0.207,0.197,-0.697,69.200,0.000,-0.503
'[13:21:44.816 30/01/1995]',-0.150,0.165,-0.570,69.257,0.000,-0.498
'[13:21:44.818 30/01/1995]',-0.112,0.132,-0.443,69.257,0.000,-0.498
'[13:21:44.820 30/01/1995]',-0.055,0.099,-0.316,69.257,0.000,-0.498
'[13:21:44.822 30/01/1995]',-0.036,0.067,-0.188,69.257,0.000,-0.498
'[13:21:44.824 30/01/1995]',-0.017,0.034,-0.157,69.372,0.000,-0.493
'[13:21:44.826 30/01/1995]',0.002,0.034,-0.061,69.372,0.000,-0.493
'[13:21:44.828 30/01/1995]',0.002,0.003,0.003,69.372,0.000,-0.493
'[13:21:44.830 30/01/1995]',0.002,0.003,0.003,69.372,0.000,-0.493
'[13:21:44.832 30/01/1995]',0.002,-0.030,0.033,69.488,0.000,-0.488
'[13:21:44.834 30/01/1995]',0.002,-0.030,0.065,69.488,0.000,-0.488
'[13:21:44.836 30/01/1995]',0.020,-0.062,0.097,69.488,0.000,-0.488
'[13:21:44.838 30/01/1995]',0.039,-0.062,0.161,69.488,0.000,-0.488
'[13:21:44.840 30/01/1995]',0.058,-0.062,0.193,69.661,0.000,-0.482
'[13:21:44.842 30/01/1995]',0.058,-0.062,0.193,69.661,0.000,-0.482
'[13:21:44.844 30/01/1995]',0.058,-0.062,0.193,69.661,0.000,-0.482
'[13:21:44.846 30/01/1995]',0.058,-0.062,0.225,69.661,0.000,-0.482
'[13:21:44.848 30/01/1995]',0.058,-0.062,0.225,69.718,0.000,-0.477
'[13:21:44.850 30/01/1995]',0.077,-0.062,0.225,69.718,0.000,-0.477
'[13:21:44.852 30/01/1995]',0.077,-0.062,0.225,69.718,0.000,-0.477
'[13:21:44.854 30/01/1995]',0.077,-0.062,0.225,69.718,0.000,-0.477
'[13:21:44.856 30/01/1995]',0.096,-0.062,0.225,69.718,0.000,-0.471
'[13:21:44.858 30/01/1995]',0.096,-0.062,0.225,69.718,0.000,-0.471
'[13:21:44.860 30/01/1995]',0.096,-0.062,0.225,69.718,0.000,-0.471
'[13:21:44.862 30/01/1995]',0.096,-0.062,0.257,69.718,0.000,-0.471
'[13:21:44.864 30/01/1995]',0.077,-0.062,0.257,69.603,0.000,-0.466
'[13:21:44.866 30/01/1995]',0.077,-0.062,0.257,69.603,0.000,-0.466
'[13:21:44.868 30/01/1995]',0.077,-0.062,0.225,69.603,0.000,-0.466
'[13:21:44.870 30/01/1995]',0.096,-0.062,0.257,69.603,0.000,-0.466
'[13:21:44.872 30/01/1995]',0.096,-0.062,0.257,69.372,0.000,-0.459
'[13:21:44.874 30/01/1995]',0.096,-0.062,0.225,69.372,0.000,-0.459
'[13:21:44.876 30/01/1995]',0.096,-0.062,0.257,69.372,0.000,-0.459
'[13:21:44.878 30/01/1995]',0.096,-0.062,0.257,69.372,0.000,-0.459
'[13:21:44.880 30/01/1995]',0.096,-0.062,0.257,69.084,0.000,-0.454
'[13:21:44.882 30/01/1995]',0.096,-0.062,0.257,69.084,0.000,-0.454
'[13:21:44.884 30/01/1995]',0.096,-0.062,0.257,69.084,0.000,-0.454
'[13:21:44.886 30/01/1995]',0.096,-0.062,0.257,69.084,0.000,-0.454
'[13:21:44.888 30/01/1995]',0.114,-0.062,0.257,68.681,0.000,-0.450
'[13:21:44.890 30/01/1995]',0.096,-0.062,0.257,68.681,0.000,-0.450
'[13:21:44.892 30/01/1995]',0.114,-0.062,0.257,68.681,0.000,-0.450
'[13:21:44.894 30/01/1995]',0.114,-0.062,0.257,68.681,0.000,-0.450
'[13:21:44.896 30/01/1995]',0.114,-0.062,0.257,68.278,0.000,-0.447
'[13:21:44.898 30/01/1995]',0.114,-0.062,0.257,68.278,0.000,-0.447
'[13:21:44.900 30/01/1995]',0.096,-0.062,0.257,68.278,0.000,-0.447
'[13:21:44.902 30/01/1995]',0.114,-0.062,0.257,68.278,0.000,-0.447
'[13:21:44.904 30/01/1995]',0.114,-0.062,0.257,67.817,0.000,-0.445
'[13:21:44.906 30/01/1995]',0.114,-0.062,0.257,67.817,0.000,-0.445
'[13:21:44.908 30/01/1995]',0.133,-0.030,0.257,67.817,0.000,-0.445
'[13:21:44.910 30/01/1995]',0.114,-0.030,0.257,67.817,0.000,-0.445
'[13:21:44.912 30/01/1995]',0.114,-0.030,0.257,67.356,0.000,-0.445
'[13:21:44.914 30/01/1995]',0.114,-0.030,0.257,67.356,0.000,-0.445
'[13:21:44.916 30/01/1995]',0.114,-0.030,0.257,67.356,0.000,-0.445
'[13:21:44.918 30/01/1995]',0.114,-0.030,0.257,67.356,0.000,-0.445
'[13:21:44.920 30/01/1995]',0.133,-0.030,0.257,66.837,0.000,-0.447
'[13:21:44.922 30/01/1995]',0.133,-0.030,0.257,66.837,0.000,-0.447
'[13:21:44.924 30/01/1995]',0.133,-0.030,0.257,66.837,0.000,-0.447
'[13:21:44.926 30/01/1995]',0.133,-0.030,0.257,66.837,0.000,-0.447
'[13:21:44.928 30/01/1995]',0.133,-0.030,0.257,66.376,0.000,-0.451
'[13:21:44.930 30/01/1995]',0.114,-0.030,0.288,66.376,0.000,-0.451
'[13:21:44.932 30/01/1995]',0.114,-0.030,0.257,66.376,0.000,-0.451
'[13:21:44.934 30/01/1995]',0.114,-0.030,0.257,66.376,0.000,-0.451
'[13:21:44.936 30/01/1995]',0.133,-0.030,0.257,65.973,0.000,-0.457
'[13:21:44.938 30/01/1995]',0.133,-0.030,0.257,65.973,0.000,-0.457
'[13:21:44.940 30/01/1995]',0.133,0.003,0.257,65.973,0.000,-0.457
'[13:21:44.942 30/01/1995]',0.133,0.003,0.257,65.973,0.000,-0.457
'[13:21:44.944 30/01/1995]',0.133,0.003,0.257,65.627,0.000,-0.463
'[13:21:44.946 30/01/1995]',0.114,0.003,0.257,65.627,0.000,-0.463
'[13:21:44.948 30/01/1995]',0.114,0.003,0.257,65.627,0.000,-0.463
'[13:21:44.950 30/01/1995]',0.114,0.003,0.257,65.627,0.000,-0.463
'[13:21:44.952 30/01/1995]',0.114,0.003,0.257,65.339,0.000,-0.469
'[13:21:44.954 30/01/1995]',0.133,0.003,0.257,65.339,0.000,-0.469
'[13:21:44.956 30/01/1995]',0.133,0.003,0.257,65.339,0.000,-0.469
'[13:21:44.958 30/01/1995]',0.133,0.003,0.257,65.339,0.000,-0.469
'[13:21:44.960 30/01/1995]',0.114,0.003,0.257,65.166,0.000,-0.475
'[13:21:44.962 30/01/1995]',0.114,0.003,0.257,65.166,0.000,-0.475
'[13:21:44.964 30/01/1995]',0.114,0.003,0.257,65.166,0.000,-0.475
'[13:21:44.966 30/01/1995]',0.114,0.003,0.257,65.166,0.000,-0.475
'[13:21:44.968 30/01/1995]',0.114,0.003,0.257,65.224,0.000,-0.482
'[13:21:44.970 30/01/1995]',0.114,0.003,0.257,65.224,0.000,-0.482
'[13:21:44.972 30/01/1995]',0.133,0.003,0.225,65.224,0.000,-0.482
'[13:21:44.974 30/01/1995]',0.114,0.003,0.257,65.224,0.000,-0.482
'[13:21:44.976 30/01/1995]',0.133,0.003,0.257,65.742,0.000,-0.489
'[13:21:44.978 30/01/1995]',0.114,0.003,0.225,65.742,0.000,-0.489
'[13:21:44.980 30/01/1995]',0.114,0.003,0.257,65.742,0.000,-0.489
'[13:21:44.982 30/01/1995]',0.114,0.003,0.225,65.742,0.000,-0.489
'[13:21:44.984 30/01/1995]',0.114,0.034,0.257,67.010,0.000,-0.495
'[13:21:44.986 30/01/1995]',0.114,0.034,0.225,67.010,0.000,-0.495
'[13:21:44.988 30/01/1995]',0.114,0.034,0.225,67.010,0.000,-0.495
'[13:21:44.990 30/01/1995]',0.133,0.034,0.225,67.010,0.000,-0.495
'[13:21:44.992 30/01/1995]',0.114,0.034,0.225,69.200,0.000,-0.501
'[13:21:44.994 30/01/1995]',0.114,0.034,0.225,69.200,0.000,-0.501
'[13:21:44.996 30/01/1995]',0.114,0.034,0.225,69.200,0.000,-0.501
'[13:21:44.998 30/01/1995]',0.114,0.034,0.225,69.200,0.000,-0.501
'[13:21:45.000 30/01/1995]',0.114,0.067,0.225,72.772,0.000,-0.506
'[13:21:45.002 30/01/1995]',0.114,0.067,0.225,72.772,0.000,-0.506
'[13:21:45.004 30/01/1995]',0.114,0.067,0.225,72.772,0.000,-0.506
'[13:21:45.006 30/01/1995]',0.114,0.067,0.225,72.772,0.000,-0.506
'[13:21:45.008 30/01/1995]',0.114,0.067,0.225,77.669,0.000,-0.512
'[13:21:45.010 30/01/1995]',0.114,0.067,0.225,77.669,0.000,-0.512
'[13:21:45.012 30/01/1995]',0.114,0.067,0.225,77.669,0.000,-0.512
'[13:21:45.014 30/01/1995]',0.114,0.099,0.225,77.669,0.000,-0.512
'[13:21:45.016 30/01/1995]',0.096,0.099,0.225,83.719,0.000,-0.518
'[13:21:45.018 30/01/1995]',0.114,0.099,0.193,83.719,0.000,-0.518
'[13:21:45.020 30/01/1995]',0.114,0.099,0.193,83.719,0.000,-0.518
'[13:21:45.022 30/01/1995]',0.114,0.099,0.193,83.719,0.000,-0.518
'[13:21:45.024 30/01/1995]',0.114,0.099,0.193,90.461,0.000,-0.524
'[13:21:45.026 30/01/1995]',0.114,0.099,0.193,90.461,0.000,-0.524
'[13:21:45.028 30/01/1995]',0.114,0.132,0.193,90.461,0.000,-0.524
'[13:21:45.030 30/01/1995]',0.096,0.132,0.193,90.461,0.000,-0.524
'[13:21:45.032 30/01/1995]',0.096,0.132,0.193,97.260,0.000,-0.530
'[13:21:45.034 30/01/1995]',0.096,0.132,0.161,97.260,0.000,-0.530
'[13:21:45.036 30/01/1995]',0.096,0.132,0.193,97.260,0.000,-0.530
'[13:21:45.038 30/01/1995]',0.096,0.132,0.161,97.260,0.000,-0.530
'[13:21:45.040 30/01/1995]',0.096,0.165,0.161,103.655,0.000,-0.536
'[13:21:45.042 30/01/1995]',0.096,0.165,0.161,103.655,0.000,-0.536
'[13:21:45.044 30/01/1995]',0.096,0.165,0.161,103.655,0.000,-0.536
'[13:21:45.046 30/01/1995]',0.077,0.165,0.161,103.655,0.000,-0.536
'[13:21:45.048 30/01/1995]',0.077,0.165,0.161,109.129,0.000,-0.542
'[13:21:45.050 30/01/1995]',0.077,0.165,0.161,109.129,0.000,-0.542
'[13:21:45.052 30/01/1995]',0.077,0.165,0.097,109.129,0.000,-0.542
'[13:21:45.054 30/01/1995]',0.077,0.165,0.097,109.129,0.000,-0.542
'[13:21:45.056 30/01/1995]',0.077,0.165,0.097,113.393,0.000,-0.547
'[13:21:45.058 30/01/1995]',0.077,0.197,0.097,113.393,0.000,-0.547
'[13:21:45.060 30/01/1995]',0.077,0.197,0.097,113.393,0.000,-0.547
'[13:21:45.062 30/01/1995]',0.077,0.197,0.065,113.393,0.000,-0.547
'[13:21:45.064 30/01/1995]',0.077,0.197,0.065,116.389,0.000,-0.553
'[13:21:45.066 30/01/1995]',0.077,0.197,0.097,116.389,0.000,-0.553
'[13:21:45.068 30/01/1995]',0.058,0.197,0.065,116.389,0.000,-0.553
'[13:21:45.070 30/01/1995]',0.077,0.197,0.065,116.389,0.000,-0.553
'[13:21:45.072 30/01/1995]',0.077,0.197,0.033,118.175,0.000,-0.559
'[13:21:45.074 30/01/1995]',0.077,0.197,0.065,118.175,0.000,-0.559
'[13:21:45.076 30/01/1995]',0.077,0.197,0.033,118.175,0.000,-0.559
'[13:21:45.078 30/01/1995]',0.077,0.197,0.033,118.175,0.000,-0.559
'[13:21:45.080 30/01/1995]',0.058,0.165,0.033,118.694,0.000,-0.566
'[13:21:45.082 30/01/1995]',0.058,0.165,0.033,118.694,0.000,-0.566
'[13:21:45.084 30/01/1995]',0.039,0.165,0.033,118.694,0.000,-0.566
'[13:21:45.086 30/01/1995]',0.058,0.132,0.033,118.694,0.000,-0.566
'[13:21:45.088 30/01/1995]',0.058,0.132,0.033,118.290,0.000,-0.573
'[13:21:45.090 30/01/1995]',0.058,0.099,0.003,118.290,0.000,-0.573
'[13:21:45.092 30/01/1995]',0.039,0.099,0.033,118.290,0.000,-0.573
'[13:21:45.094 30/01/1995]',0.039,0.099,0.003,118.290,0.000,-0.573
'[13:21:45.096 30/01/1995]',0.039,0.099,0.033,117.080,0.000,-0.580
'[13:21:45.098 30/01/1995]',0.020,0.067,0.003,117.080,0.000,-0.580
'[13:21:45.100 30/01/1995]',0.020,0.067,0.003,117.080,0.000,-0.580
'[13:21:45.102 30/01/1995]',0.020,0.034,0.003,117.080,0.000,-0.580
'[13:21:45.104 30/01/1995]',0.020,0.034,0.003,115.352,0.000,-0.587
'[13:21:45.106 30/01/1995]',0.020,0.034,0.003,115.352,0.000,-0.587
'[13:21:45.108 30/01/1995]',0.020,0.003,0.003,115.352,0.000,-0.587
'[13:21:45.110 30/01/1995]',0.020,0.003,0.033,115.352,0.000,-0.587
'[13:21:45.112 30/01/1995]',0.002,0.003,0.003,113.278,0.000,-0.595
'[13:21:45.114 30/01/1995]',0.002,0.003,0.003,113.278,0.000,-0.595
'[13:21:45.116 30/01/1995]',0.002,0.003,0.033,113.278,0.000,-0.595
'[13:21:45.118 30/01/1995]',0.002,0.003,0.033,113.278,0.000,-0.595
'[13:21:45.120 30/01/1995]',0.002,-0.030,0.003,111.030,0.000,-0.603
'[13:21:45.122 30/01/1995]',0.002,-0.030,0.003,111.030,0.000,-0.603
'[13:21:45.124 30/01/1995]',0.002,-0.030,0.003,111.030,0.000,-0.603
'[13:21:45.126 30/01/1995]',0.002,-0.030,0.003,111.030,0.000,-0.603
'[13:21:45.128 30/01/1995]',0.002,-0.030,0.033,108.726,0.000,-0.611
'[13:21:45.130 30/01/1995]',0.002,-0.062,0.003,108.726,0.000,-0.611
'[13:21:45.132 30/01/1995]',0.002,-0.062,0.033,108.726,0.000,-0.611
'[13:21:45.134 30/01/1995]',-0.017,-0.062,0.033,108.726,0.000,-0.611
'[13:21:45.136 30/01/1995]',0.002,-0.062,0.003,106.479,0.000,-0.619
'[13:21:45.138 30/01/1995]',0.002,-0.062,0.003,106.479,0.000,-0.619
'[13:21:45.140 30/01/1995]',0.002,-0.062,0.033,106.479,0.000,-0.619
'[13:21:45.142 30/01/1995]',0.002,-0.062,0.003,106.479,0.000,-0.619
'[13:21:45.144 30/01/1995]',0.002,-0.095,0.003,104.289,0.000,-0.626
'[13:21:45.146 30/01/1995]',-0.017,-0.095,0.033,104.289,0.000,-0.626
'[13:21:45.148 30/01/1995]',-0.017,-0.095,0.033,104.289,0.000,-0.626
'[13:21:45.150 30/01/1995]',-0.017,-0.095,0.003,104.289,0.000,-0.626
'[13:21:45.152 30/01/1995]',-0.017,-0.095,0.033,102.157,0.000,-0.634
'[13:21:45.154 30/01/1995]',-0.017,-0.095,0.033,102.157,0.000,-0.634
'[13:21:45.156 30/01/1995]',-0.017,-0.095,0.003,102.157,0.000,-0.634
'[13:21:45.158 30/01/1995]',-0.017,-0.095,0.003,102.157,0.000,-0.634
'[13:21:45.160 30/01/1995]',-0.017,-0.095,0.003,100.198,0.000,-0.641
'[13:21:45.162 30/01/1995]',-0.017,-0.095,0.033,100.198,0.000,-0.641
'[13:21:45.164 30/01/1995]',-0.017,-0.095,0.033,100.198,0.000,-0.641
'[13:21:45.166 30/01/1995]',-0.017,-0.095,0.033,100.198,0.000,-0.641
'[13:21:45.168 30/01/1995]',-0.036,-0.095,0.003,98.297,0.000,-0.648
'[13:21:45.170 30/01/1995]',-0.017,-0.095,0.033,98.297,0.000,-0.648
'[13:21:45.172 30/01/1995]',-0.017,-0.095,0.003,98.297,0.000,-0.648
'[13:21:45.174 30/01/1995]',-0.017,-0.095,0.003,98.297,0.000,-0.648
'[13:21:45.176 30/01/1995]',-0.017,-0.095,0.003,96.395,0.000,-0.655
'[13:21:45.178 30/01/1995]',-0.017,-0.095,0.003,96.395,0.000,-0.655
'[13:21:45.180 30/01/1995]',-0.017,-0.095,0.033,96.395,0.000,-0.655
'[13:21:45.182 30/01/1995]',-0.017,-0.095,0.033,96.395,0.000,-0.655
'[13:21:45.184 30/01/1995]',-0.017,-0.095,0.033,94.552,0.000,-0.663
'[13:21:45.186 30/01/1995]',-0.017,-0.095,0.003,94.552,0.000,-0.663
'[13:21:45.188 30/01/1995]',-0.017,-0.095,0.033,94.552,0.000,-0.663
'[13:21:45.190 30/01/1995]',0.002,-0.095,0.033,94.552,0.000,-0.663
'[13:21:45.192 30/01/1995]',0.002,-0.095,0.033,92.708,0.000,-0.670
'[13:21:45.194 30/01/1995]',-0.017,-0.095,0.033,92.708,0.000,-0.670
'[13:21:45.196 30/01/1995]',-0.017,-0.062,0.033,92.708,0.000,-0.670
'[13:21:45.198 30/01/1995]',-0.017,-0.095,0.033,92.708,0.000,-0.670
'[13:21:45.200 30/01/1995]',-0.017,-0.095,0.033,90.864,0.000,-0.678
'[13:21:45.202 30/01/1995]',-0.017,-0.095,0.003,90.864,0.000,-0.678
'[13:21:45.204 30/01/1995]',-0.017,-0.062,0.033,90.864,0.000,-0.678
'[13:21:45.206 30/01/1995]',0.002,-0.062,0.033,90.864,0.000,-0.678
'[13:21:45.208 30/01/1995]',0.002,-0.062,0.033,89.020,0.000,-0.685
'[13:21:45.210 30/01/1995]',0.002,-0.062,0.033,89.020,0.000,-0.685
'[13:21:45.212 30/01/1995]',-0.017,-0.062,0.033,89.020,0.000,-0.685
'[13:21:45.214 30/01/1995]',-0.017,-0.062,0.033,89.020,0.000,-0.685
'[13:21:45.216 30/01/1995]',-0.017,-0.062,0.033,87.176,0.000,-0.692
'[13:21:45.218 30/01/1995]',-0.017,-0.062,0.033,87.176,0.000,-0.692
'[13:21:45.220 30/01/1995]',0.002,-0.062,0.033,87.176,0.000,-0.692
'[13:21:45.222 30/01/1995]',-0.017,-0.062,0.033,87.176,0.000,-0.692
'[13:21:45.224 30/01/1995]',0.002,-0.062,0.003,85.275,0.000,-0.698
'[13:21:45.226 30/01/1995]',-0.017,-0.062,0.033,85.275,0.000,-0.698
'[13:21:45.228 30/01/1995]',-0.017,-0.062,0.033,85.275,0.000,-0.698
'[13:21:45.230 30/01/1995]',-0.017,-0.062,0.033,85.275,0.000,-0.698
'[13:21:45.232 30/01/1995]',-0.017,-0.062,0.033,83.374,0.000,-0.704
'[13:21:45.234 30/01/1995]',-0.017,-0.062,0.033,83.374,0.000,-0.704
'[13:21:45.236 30/01/1995]',-0.017,-0.062,0.033,83.374,0.000,-0.704
'[13:21:45.238 30/01/1995]',-0.017,-0.062,0.033,83.374,0.000,-0.704
'[13:21:45.240 30/01/1995]',-0.017,-0.062,0.033,81.587,0.000,-0.709
'[13:21:45.242 30/01/1995]',-0.017,-0.062,0.033,81.587,0.000,-0.709
'[13:21:45.244 30/01/1995]',-0.017,-0.062,0.033,81.587,0.000,-0.709
'[13:21:45.246 30/01/1995]',-0.017,-0.062,0.033,81.587,0.000,-0.709
'[13:21:45.248 30/01/1995]',-0.036,-0.062,0.033,80.032,0.000,-0.713
'[13:21:45.250 30/01/1995]',-0.017,-0.062,0.033,80.032,0.000,-0.713
'[13:21:45.252 30/01/1995]',-0.017,-0.062,0.033,80.032,0.000,-0.713
'[13:21:45.254 30/01/1995]',-0.017,-0.062,0.033,80.032,0.000,-0.713
'[13:21:45.256 30/01/1995]',-0.017,-0.062,0.033,78.707,0.000,-0.717
'[13:21:45.258 30/01/1995]',-0.017,-0.062,0.033,78.707,0.000,-0.717
'[13:21:45.260 30/01/1995]',-0.017,-0.062,0.033,78.707,0.000,-0.717
'[13:21:45.262 30/01/1995]',-0.036,-0.062,0.033,78.707,0.000,-0.717
'[13:21:45.264 30/01/1995]',-0.036,-0.062,0.033,77.669,0.000,-0.719
'[13:21:45.266 30/01/1995]',-0.036,-0.062,0.033,77.669,0.000,-0.719
'[13:21:45.268 30/01/1995]',-0.036,-0.062,0.033,77.669,0.000,-0.719
'[13:21:45.270 30/01/1995]',-0.017,-0.030,0.033,77.669,0.000,-0.719
'[13:21:45.272 30/01/1995]',-0.017,-0.062,0.033,77.093,0.000,-0.720
'[13:21:45.274 30/01/1995]',-0.017,-0.062,0.033,77.093,0.000,-0.720
'[13:21:45.276 30/01/1995]',-0.017,-0.062,0.033,77.093,0.000,-0.720
'[13:21:45.278 30/01/1995]',-0.017,-0.030,0.033,77.093,0.000,-0.720
'[13:21:45.280 30/01/1995]',-0.036,-0.062,0.033,76.748,0.000,-0.720
'[13:21:45.282 30/01/1995]',-0.036,-0.062,0.033,76.748,0.000,-0.720
'[13:21:45.284 30/01/1995]',-0.036,-0.062,0.033,76.748,0.000,-0.720
'[13:21:45.286 30/01/1995]',-0.017,-0.062,0.033,76.748,0.000,-0.720
'[13:21:45.288 30/01/1995]',-0.017,-0.062,0.033,76.805,0.000,-0.719
'[13:21:45.290 30/01/1995]',-0.017,-0.062,0.033,76.805,0.000,-0.719
'[13:21:45.292 30/01/1995]',-0.017,-0.062,0.033,76.805,0.000,-0.719
'[13:21:45.294 30/01/1995]',-0.017,-0.062,0.033,76.805,0.000,-0.719
'[13:21:45.296 30/01/1995]',-0.017,-0.062,0.033,77.036,0.000,-0.718
'[13:21:45.298 30/01/1995]',-0.036,-0.062,0.033,77.036,0.000,-0.718
'[13:21:45.300 30/01/1995]',-0.017,-0.062,0.033,77.036,0.000,-0.718
'[13:21:45.302 30/01/1995]',-0.017,-0.062,0.033,77.036,0.000,-0.718
'[13:21:45.304 30/01/1995]',0.002,-0.062,0.033,77.381,0.000,-0.717
'[13:21:45.306 30/01/1995]',-0.017,-0.062,0.033,77.381,0.000,-0.717
'[13:21:45.308 30/01/1995]',-0.017,-0.062,0.003,77.381,0.000,-0.717
'[13:21:45.310 30/01/1995]',-0.017,-0.062,0.033,77.381,0.000,-0.717
'[13:21:45.312 30/01/1995]',-0.017,-0.062,0.033,77.842,0.000,-0.715
'[13:21:45.314 30/01/1995]',-0.017,-0.062,0.033,77.842,0.000,-0.715
'[13:21:45.316 30/01/1995]',-0.017,-0.062,0.033,77.842,0.000,-0.715
'[13:21:45.318 30/01/1995]',-0.017,-0.062,0.033,77.842,0.000,-0.715
'[13:21:45.320 30/01/1995]',-0.017,-0.062,0.003,78.246,0.000,-0.714
'[13:21:45.322 30/01/1995]',0.002,-0.062,0.033,78.246,0.000,-0.714
'[13:21:45.324 30/01/1995]',0.002,-0.062,0.003,78.246,0.000,-0.714
'[13:21:45.326 30/01/1995]',0.002,-0.062,0.033,78.246,0.000,-0.714
'[13:21:45.328 30/01/1995]',0.002,-0.062,0.033,78.534,0.000,-0.713
'[13:21:45.330 30/01/1995]',-0.017,-0.062,0.033,78.534,0.000,-0.713
'[13:21:45.332 30/01/1995]',-0.017,-0.062,0.003,78.534,0.000,-0.713
'[13:21:45.334 30/01/1995]',-0.017,-0.062,0.003,78.534,0.000,-0.713
'[13:21:45.336 30/01/1995]',-0.017,-0.062,0.003,78.707,0.000,-0.712
'[13:21:45.338 30/01/1995]',-0.017,-0.062,0.033,78.707,0.000,-0.712
'[13:21:45.340 30/01/1995]',0.002,-0.062,0.003,78.707,0.000,-0.712
'[13:21:45.342 30/01/1995]',0.002,-0.062,0.033,78.707,0.000,-0.712
'[13:21:45.344 30/01/1995]',0.002,-0.030,0.033,78.707,0.000,-0.711
'[13:21:45.346 30/01/1995]',0.002,-0.062,0.003,78.707,0.000,-0.711
'[13:21:45.348 30/01/1995]',0.002,-0.062,0.033,78.707,0.000,-0.711
'[13:21:45.350 30/01/1995]',0.002,-0.062,0.033,78.707,0.000,-0.711
'[13:21:45.352 30/01/1995]',0.002,-0.062,0.033,78.649,0.000,-0.711
'[13:21:45.354 30/01/1995]',0.002,-0.062,0.003,78.649,0.000,-0.711
'[13:21:45.356 30/01/1995]',0.002,-0.062,0.033,78.649,0.000,-0.711
'[13:21:45.358 30/01/1995]',0.002,-0.062,0.033,78.649,0.000,-0.711
'[13:21:45.360 30/01/1995]',0.002,-0.062,0.033,78.418,0.000,-0.710
'[13:21:45.362 30/01/1995]',0.002,-0.062,0.033,78.418,0.000,-0.710
'[13:21:45.364 30/01/1995]',0.002,-0.062,0.033,78.418,0.000,-0.710
'[13:21:45.366 30/01/1995]',0.020,-0.030,0.033,78.418,0.000,-0.710
'[13:21:45.368 30/01/1995]',0.020,-0.062,0.033,78.015,0.000,-0.709
'[13:21:45.370 30/01/1995]',0.039,-0.030,0.065,78.015,0.000,-0.709
'[13:21:45.372 30/01/1995]',0.058,-0.030,0.065,78.015,0.000,-0.709
'[13:21:45.374 30/01/1995]',0.058,-0.030,0.065,78.015,0.000,-0.709
'[13:21:45.376 30/01/1995]',0.058,-0.030,0.065,77.497,0.000,-0.707
'[13:21:45.378 30/01/1995]',0.058,-0.062,0.065,77.497,0.000,-0.707
'[13:21:45.380 30/01/1995]',0.039,-0.062,0.065,77.497,0.000,-0.707
'[13:21:45.382 30/01/1995]',0.039,-0.062,0.065,77.497,0.000,-0.707
'[13:21:45.384 30/01/1995]',0.058,-0.030,0.065,76.920,0.000,-0.705
'[13:21:45.386 30/01/1995]',0.058,-0.030,0.065,76.920,0.000,-0.705
'[13:21:45.388 30/01/1995]',0.077,-0.030,0.065,76.920,0.000,-0.705
'[13:21:45.390 30/01/1995]',0.077,-0.030,0.065,76.920,0.000,-0.705
'[13:21:45.392 30/01/1995]',0.096,-0.030,0.065,76.344,0.000,-0.703
'[13:21:45.394 30/01/1995]',0.096,0.003,0.065,76.344,0.000,-0.703
'[13:21:45.396 30/01/1995]',0.077,0.003,0.065,76.344,0.000,-0.703
'[13:21:45.398 30/01/1995]',0.077,0.003,0.065,76.344,0.000,-0.703
'[13:21:45.400 30/01/1995]',0.077,0.003,0.065,75.653,0.000,-0.699
'[13:21:45.402 30/01/1995]',0.077,0.003,0.065,75.653,0.000,-0.699
'[13:21:45.404 30/01/1995]',0.077,0.003,0.033,75.653,0.000,-0.699
'[13:21:45.406 30/01/1995]',0.077,0.003,0.033,75.653,0.000,-0.699
'[13:21:45.408 30/01/1995]',0.058,0.003,0.033,75.019,0.000,-0.695
'[13:21:45.410 30/01/1995]',0.039,0.003,0.033,75.019,0.000,-0.695
'[13:21:45.412 30/01/1995]',0.039,0.003,0.033,75.019,0.000,-0.695
'[13:21:45.414 30/01/1995]',0.020,0.003,0.033,75.019,0.000,-0.695
'[13:21:45.416 30/01/1995]',0.002,0.003,0.033,74.385,0.000,-0.691
'[13:21:45.418 30/01/1995]',0.002,0.003,0.003,74.385,0.000,-0.691
'[13:21:45.420 30/01/1995]',0.002,0.003,0.003,74.385,0.000,-0.691
'[13:21:45.422 30/01/1995]',0.002,0.003,0.003,74.385,0.000,-0.691
'[13:21:45.424 30/01/1995]',0.002,0.003,0.003,73.751,0.000,-0.685
'[13:21:45.426 30/01/1995]',-0.017,0.003,0.003,73.751,0.000,-0.685
'[13:21:45.428 30/01/1995]',-0.017,-0.030,0.003,73.751,0.000,-0.685
'[13:21:45.430 30/01/1995]',-0.036,-0.030,0.003,73.751,0.000,-0.685
'[13:21:45.432 30/01/1995]',-0.036,-0.062,0.003,73.175,0.000,-0.679
'[13:21:45.434 30/01/1995]',-0.036,-0.062,0.003,73.175,0.000,-0.679
'[13:21:45.436 30/01/1995]',-0.036,-0.062,0.003,73.175,0.000,-0.679
'[13:21:45.438 30/01/1995]',-0.036,-0.062,0.003,73.175,0.000,-0.679
'[13:21:45.440 30/01/1995]',-0.036,-0.062,0.003,72.599,0.000,-0.673
'[13:21:45.442 30/01/1995]',-0.036,-0.062,0.003,72.599,0.000,-0.673
'[13:21:45.444 30/01/1995]',-0.036,-0.062,0.003,72.599,0.000,-0.673
'[13:21:45.446 30/01/1995]',-0.055,-0.062,0.003,72.599,0.000,-0.673
'[13:21:45.448 30/01/1995]',-0.055,-0.062,0.003,72.080,0.000,-0.666
'[13:21:45.450 30/01/1995]',-0.055,-0.062,0.003,72.080,0.000,-0.666
'[13:21:45.452 30/01/1995]',-0.055,-0.062,0.003,72.080,0.000,-0.666
'[13:21:45.454 30/01/1995]',-0.036,-0.062,0.003,72.080,0.000,-0.666
'[13:21:45.456 30/01/1995]',-0.036,-0.062,0.003,71.562,0.000,-0.659
'[13:21:45.458 30/01/1995]',-0.036,-0.062,0.003,71.562,0.000,-0.659
'[13:21:45.460 30/01/1995]',-0.036,-0.062,0.003,71.562,0.000,-0.659
'[13:21:45.462 30/01/1995]',-0.055,-0.062,0.003,71.562,0.000,-0.659
'[13:21:45.464 30/01/1995]',-0.055,-0.062,0.003,71.101,0.000,-0.651
'[13:21:45.466 30/01/1995]',-0.055,-0.062,0.003,71.101,0.000,-0.651
'[13:21:45.468 30/01/1995]',-0.055,-0.062,0.003,71.101,0.000,-0.651
'[13:21:45.470 30/01/1995]',-0.055,-0.062,0.003,71.101,0.000,-0.651
'[13:21:45.472 30/01/1995]',-0.055,-0.062,0.003,70.698,0.000,-0.643
'[13:21:45.474 30/01/1995]',-0.055,-0.062,0.003,70.698,0.000,-0.643
'[13:21:45.476 30/01/1995]',-0.036,-0.030,0.003,70.698,0.000,-0.643
'[13:21:45.478 30/01/1995]',-0.036,-0.030,0.033,70.698,0.000,-0.643
'[13:21:45.480 30/01/1995]',-0.036,-0.030,0.065,70.294,0.000,-0.635
'[13:21:45.482 30/01/1995]',-0.036,0.003,0.129,70.294,0.000,-0.635
'[13:21:45.484 30/01/1995]',-0.017,0.003,0.193,70.294,0.000,-0.635
'[13:21:45.486 30/01/1995]',0.002,0.003,0.225,70.294,0.000,-0.635
'[13:21:45.488 30/01/1995]',0.002,0.003,0.225,70.006,0.000,-0.627
'[13:21:45.490 30/01/1995]',0.002,0.003,0.161,70.006,0.000,-0.627
'[13:21:45.492 30/01/1995]',0.002,-0.030,0.097,70.006,0.000,-0.627
'[13:21:45.494 30/01/1995]',0.002,-0.030,0.003,70.006,0.000,-0.627
'[13:21:45.496 30/01/1995]',-0.017,0.003,-0.093,69.661,0.000,-0.620
'[13:21:45.498 30/01/1995]',-0.074,0.003,-0.348,69.661,0.000,-0.620
'[13:21:45.500 30/01/1995]',-0.131,0.003,-0.538,69.661,0.000,-0.620
'[13:21:45.502 30/01/1995]',-0.188,0.034,-0.729,69.661,0.000,-0.620
'[13:21:45.504 30/01/1995]',-0.225,0.099,-0.951,69.430,0.000,-0.613
'[13:21:45.506 30/01/1995]',-0.300,0.165,-1.142,69.430,0.000,-0.613
'[13:21:45.508 30/01/1995]',-0.376,0.230,-1.301,69.430,0.000,-0.613
'[13:21:45.510 30/01/1995]',-0.471,0.295,-1.459,69.430,0.000,-0.613
'[13:21:45.512 30/01/1995]',-0.565,0.361,-1.587,69.200,0.000,-0.607
'[13:21:45.514 30/01/1995]',-0.621,0.393,-1.714,69.200,0.000,-0.607
'[13:21:45.516 30/01/1995]',-0.697,0.393,-1.809,69.200,0.000,-0.607
'[13:21:45.518 30/01/1995]',-0.735,0.458,-1.904,69.200,0.000,-0.607
'[13:21:45.520 30/01/1995]',-0.773,0.490,-1.968,69.084,0.000,-0.602
'[13:21:45.522 30/01/1995]',-0.773,0.490,-1.968,69.084,0.000,-0.602
'[13:21:45.524 30/01/1995]',-0.754,0.522,-1.936,69.084,0.000,-0.602
'[13:21:45.526 30/01/1995]',-0.697,0.490,-1.904,69.084,0.000,-0.602
'[13:21:45.528 30/01/1995]',-0.621,0.490,-1.809,69.084,0.000,-0.596
'[13:21:45.530 30/01/1995]',-0.528,0.426,-1.651,69.084,0.000,-0.596
'[13:21:45.532 30/01/1995]',-0.433,0.361,-1.491,69.084,0.000,-0.596
'[13:21:45.534 30/01/1995]',-0.338,0.263,-1.301,69.084,0.000,-0.596
'[13:21:45.536 30/01/1995]',-0.281,0.165,-1.142,69.142,0.000,-0.590
'[13:21:45.538 30/01/1995]',-0.244,0.132,-0.983,69.142,0.000,-0.590
'[13:21:45.540 30/01/1995]',-0.188,0.067,-0.825,69.142,0.000,-0.590
'[13:21:45.542 30/01/1995]',-0.131,0.067,-0.697,69.142,0.000,-0.590
'[13:21:45.544 30/01/1995]',-0.112,0.067,-0.538,69.257,0.000,-0.584
'[13:21:45.546 30/01/1995]',-0.074,0.034,-0.412,69.257,0.000,-0.584
'[13:21:45.548 30/01/1995]',-0.036,0.034,-0.252,69.257,0.000,-0.584
'[13:21:45.550 30/01/1995]',-0.017,0.034,-0.157,69.257,0.000,-0.584
'[13:21:45.552 30/01/1995]',0.002,0.003,-0.093,69.430,0.000,-0.578
'[13:21:45.554 30/01/1995]',0.002,0.003,-0.029,69.430,0.000,-0.578
'[13:21:45.556 30/01/1995]',0.002,0.003,0.003,69.430,0.000,-0.578
'[13:21:45.558 30/01/1995]',0.002,0.003,0.033,69.430,0.000,-0.578
'[13:21:45.560 30/01/1995]',0.002,-0.030,0.065,69.545,0.000,-0.572
'[13:21:45.562 30/01/1995]',0.002,-0.030,0.097,69.545,0.000,-0.572
'[13:21:45.564 30/01/1995]',0.020,-0.030,0.161,69.545,0.000,-0.572
'[13:21:45.566 30/01/1995]',0.020,-0.030,0.193,69.545,0.000,-0.572
'[13:21:45.568 30/01/1995]',0.039,-0.030,0.225,69.718,0.000,-0.566
'[13:21:45.570 30/01/1995]',0.039,-0.030,0.225,69.718,0.000,-0.566
'[13:21:45.572 30/01/1995]',0.039,-0.030,0.225,69.718,0.000,-0.566
'[13:21:45.574 30/01/1995]',0.058,-0.030,0.225,69.718,0.000,-0.566
'[13:21:45.576 30/01/1995]',0.058,-0.030,0.225,69.776,0.000,-0.560
'[13:21:45.578 30/01/1995]',0.058,-0.030,0.225,69.776,0.000,-0.560
