'Time and date','II','MCL1','V','ABP','PLETH','RESP'
'hh:mm:ss.mmm dd/mm/yyyy','mV','mV','mV','mmHg','mV','mV'
'[11:35:23.000 05/05/1995]',-0.086,-0.124,-0.097,101.803,-0.066,-0.249
'[11:35:23.002 05/05/1995]',-0.091,-0.106,-0.097,101.803,-0.066,-0.249
'[11:35:23.004 05/05/1995]',-0.100,-0.106,-0.097,101.803,-0.066,-0.249
'[11:35:23.006 05/05/1995]',-0.110,-0.106,-0.131,101.803,-0.066,-0.249
'[11:35:23.008 05/05/1995]',-0.120,-0.106,-0.131,102.104,-0.124,-0.250
'[11:35:23.010 05/05/1995]',-0.131,-0.106,-0.131,102.104,-0.124,-0.250
'[11:35:23.012 05/05/1995]',-0.136,-0.124,-0.131,102.104,-0.124,-0.250
'[11:35:23.014 05/05/1995]',-0.141,-0.124,-0.097,102.104,-0.124,-0.250
'[11:35:23.016 05/05/1995]',-0.135,-0.106,-0.097,102.554,-0.183,-0.251
'[11:35:23.018 05/05/1995]',-0.128,-0.088,-0.064,102.554,-0.183,-0.251
'[11:35:23.020 05/05/1995]',-0.107,-0.070,-0.030,102.554,-0.183,-0.251
'[11:35:23.022 05/05/1995]',-0.085,-0.052,0.003,102.554,-0.183,-0.251
'[11:35:23.024 05/05/1995]',-0.045,-0.016,0.035,103.080,-0.240,-0.251
'[11:35:23.026 05/05/1995]',-0.004,0.002,0.068,103.080,-0.240,-0.251
'[11:35:23.028 05/05/1995]',0.051,0.019,0.102,103.080,-0.240,-0.251
'[11:35:23.030 05/05/1995]',0.105,0.037,0.169,103.080,-0.240,-0.251
'[11:35:23.032 05/05/1995]',0.162,0.072,0.202,103.681,-0.296,-0.252
'[11:35:23.034 05/05/1995]',0.219,0.126,0.236,103.681,-0.296,-0.252
'[11:35:23.036 05/05/1995]',0.266,0.144,0.269,103.681,-0.296,-0.252
'[11:35:23.038 05/05/1995]',0.313,0.162,0.302,103.681,-0.296,-0.252
'[11:35:23.040 05/05/1995]',0.340,0.162,0.302,104.207,-0.347,-0.253
'[11:35:23.042 05/05/1995]',0.367,0.126,0.302,104.207,-0.347,-0.253
'[11:35:23.044 05/05/1995]',0.371,0.108,0.302,104.207,-0.347,-0.253
'[11:35:23.046 05/05/1995]',0.374,0.072,0.302,104.207,-0.347,-0.253
'[11:35:23.048 05/05/1995]',0.355,0.055,0.236,104.658,-0.393,-0.254
'[11:35:23.050 05/05/1995]',0.336,0.055,0.169,104.658,-0.393,-0.254
'[11:35:23.052 05/05/1995]',0.301,0.002,0.068,104.658,-0.393,-0.254
'[11:35:23.054 05/05/1995]',0.266,-0.142,-0.131,104.658,-0.393,-0.254
'[11:35:23.056 05/05/1995]',0.227,-0.374,-0.365,105.034,-0.433,-0.256
'[11:35:23.058 05/05/1995]',0.188,-0.606,-0.597,105.034,-0.433,-0.256
'[11:35:23.060 05/05/1995]',0.152,-0.731,-0.731,105.034,-0.433,-0.256
'[11:35:23.062 05/05/1995]',0.115,-0.766,-0.731,105.034,-0.433,-0.256
'[11:35:23.064 05/05/1995]',0.085,-0.749,-0.731,105.334,-0.514,-0.258
'[11:35:23.066 05/05/1995]',0.056,-0.695,-0.631,105.334,-0.514,-0.258
'[11:35:23.068 05/05/1995]',0.033,-0.660,-0.597,105.334,-0.514,-0.258
'[11:35:23.070 05/05/1995]',0.011,-0.588,-0.530,105.334,-0.514,-0.258
'[11:35:23.072 05/05/1995]',-0.004,-0.534,-0.465,105.334,-0.542,-0.260
'[11:35:23.074 05/05/1995]',-0.020,-0.481,-0.432,105.334,-0.542,-0.260
'[11:35:23.076 05/05/1995]',-0.033,-0.410,-0.365,105.334,-0.542,-0.260
'[11:35:23.078 05/05/1995]',-0.047,-0.374,-0.298,105.334,-0.542,-0.260
'[11:35:23.080 05/05/1995]',-0.060,-0.302,-0.264,105.334,-0.565,-0.263
'[11:35:23.082 05/05/1995]',-0.074,-0.266,-0.198,105.334,-0.565,-0.263
'[11:35:23.084 05/05/1995]',-0.085,-0.231,-0.198,105.334,-0.565,-0.263
'[11:35:23.086 05/05/1995]',-0.095,-0.195,-0.164,105.334,-0.565,-0.263
'[11:35:23.088 05/05/1995]',-0.102,-0.178,-0.131,105.034,-0.579,-0.265
'[11:35:23.090 05/05/1995]',-0.108,-0.178,-0.131,105.034,-0.579,-0.265
'[11:35:23.092 05/05/1995]',-0.112,-0.160,-0.097,105.034,-0.579,-0.265
'[11:35:23.094 05/05/1995]',-0.115,-0.142,-0.097,105.034,-0.579,-0.265
'[11:35:23.096 05/05/1995]',-0.116,-0.142,-0.097,104.733,-0.587,-0.267
'[11:35:23.098 05/05/1995]',-0.117,-0.124,-0.064,104.733,-0.587,-0.267
'[11:35:23.100 05/05/1995]',-0.118,-0.124,-0.064,104.733,-0.587,-0.267
'[11:35:23.102 05/05/1995]',-0.120,-0.124,-0.064,104.733,-0.587,-0.267
'[11:35:23.104 05/05/1995]',-0.120,-0.124,-0.064,104.207,-0.589,-0.269
'[11:35:23.106 05/05/1995]',-0.121,-0.124,-0.064,104.207,-0.589,-0.269
'[11:35:23.108 05/05/1995]',-0.120,-0.124,-0.064,104.207,-0.589,-0.269
'[11:35:23.110 05/05/1995]',-0.120,-0.124,-0.064,104.207,-0.589,-0.269
'[11:35:23.112 05/05/1995]',-0.120,-0.124,-0.064,103.606,-0.586,-0.271
'[11:35:23.114 05/05/1995]',-0.120,-0.124,-0.064,103.606,-0.586,-0.271
'[11:35:23.116 05/05/1995]',-0.120,-0.106,-0.064,103.606,-0.586,-0.271
'[11:35:23.118 05/05/1995]',-0.120,-0.106,-0.064,103.606,-0.586,-0.271
'[11:35:23.120 05/05/1995]',-0.119,-0.088,-0.064,103.005,-0.579,-0.273
'[11:35:23.122 05/05/1995]',-0.118,-0.106,-0.064,103.005,-0.579,-0.273
'[11:35:23.124 05/05/1995]',-0.116,-0.106,-0.064,103.005,-0.579,-0.273
'[11:35:23.126 05/05/1995]',-0.114,-0.106,-0.064,103.005,-0.579,-0.273
'[11:35:23.128 05/05/1995]',-0.110,-0.088,-0.030,102.329,-0.570,-0.275
'[11:35:23.130 05/05/1995]',-0.107,-0.088,-0.030,102.329,-0.570,-0.275
'[11:35:23.132 05/05/1995]',-0.100,-0.070,-0.030,102.329,-0.570,-0.275
'[11:35:23.134 05/05/1995]',-0.094,-0.070,-0.030,102.329,-0.570,-0.275
'[11:35:23.136 05/05/1995]',-0.090,-0.052,-0.030,101.728,-0.557,-0.278
'[11:35:23.138 05/05/1995]',-0.085,-0.070,-0.030,101.728,-0.557,-0.278
'[11:35:23.140 05/05/1995]',-0.082,-0.070,-0.030,101.728,-0.557,-0.278
'[11:35:23.142 05/05/1995]',-0.078,-0.070,-0.030,101.728,-0.557,-0.278
'[11:35:23.144 05/05/1995]',-0.074,-0.052,-0.030,101.127,-0.546,-0.281
'[11:35:23.146 05/05/1995]',-0.070,-0.052,0.003,101.127,-0.546,-0.281
'[11:35:23.148 05/05/1995]',-0.065,-0.034,0.003,101.127,-0.546,-0.281
'[11:35:23.150 05/05/1995]',-0.061,-0.034,0.003,101.127,-0.546,-0.281
'[11:35:23.152 05/05/1995]',-0.055,-0.016,0.003,100.601,-0.534,-0.285
'[11:35:23.154 05/05/1995]',-0.048,-0.034,0.003,100.601,-0.534,-0.285
'[11:35:23.156 05/05/1995]',-0.042,-0.034,0.003,100.601,-0.534,-0.285
'[11:35:23.158 05/05/1995]',-0.036,-0.034,0.003,100.601,-0.534,-0.285
'[11:35:23.160 05/05/1995]',-0.030,-0.016,0.003,100.150,-0.523,-0.288
'[11:35:23.162 05/05/1995]',-0.024,-0.016,0.003,100.150,-0.523,-0.288
'[11:35:23.164 05/05/1995]',-0.019,0.002,0.003,100.150,-0.523,-0.288
'[11:35:23.166 05/05/1995]',-0.013,0.002,0.035,100.150,-0.523,-0.288
'[11:35:23.168 05/05/1995]',-0.008,0.019,0.035,99.699,-0.513,-0.292
'[11:35:23.170 05/05/1995]',-0.003,0.019,0.035,99.699,-0.513,-0.292
'[11:35:23.172 05/05/1995]',0.001,0.019,0.035,99.699,-0.513,-0.292
'[11:35:23.174 05/05/1995]',0.006,0.019,0.035,99.699,-0.513,-0.292
'[11:35:23.176 05/05/1995]',0.009,0.019,0.035,99.549,-0.507,-0.295
'[11:35:23.178 05/05/1995]',0.013,0.037,0.068,99.549,-0.507,-0.295
'[11:35:23.180 05/05/1995]',0.017,0.055,0.068,99.549,-0.507,-0.295
'[11:35:23.182 05/05/1995]',0.021,0.072,0.102,99.549,-0.507,-0.295
'[11:35:23.184 05/05/1995]',0.024,0.090,0.102,100.376,-0.501,-0.298
'[11:35:23.186 05/05/1995]',0.027,0.108,0.102,100.376,-0.501,-0.298
'[11:35:23.188 05/05/1995]',0.031,0.108,0.102,100.376,-0.501,-0.298
'[11:35:23.190 05/05/1995]',0.034,0.126,0.102,100.376,-0.501,-0.298
'[11:35:23.192 05/05/1995]',0.039,0.126,0.135,103.231,-0.498,-0.301
'[11:35:23.194 05/05/1995]',0.044,0.126,0.169,103.231,-0.498,-0.301
'[11:35:23.196 05/05/1995]',0.053,0.162,0.169,103.231,-0.498,-0.301
'[11:35:23.198 05/05/1995]',0.061,0.198,0.202,103.231,-0.498,-0.301
'[11:35:23.200 05/05/1995]',0.072,0.216,0.236,109.391,-0.497,-0.304
'[11:35:23.202 05/05/1995]',0.083,0.234,0.236,109.391,-0.497,-0.304
'[11:35:23.204 05/05/1995]',0.094,0.234,0.236,109.391,-0.497,-0.304
'[11:35:23.206 05/05/1995]',0.105,0.252,0.236,109.391,-0.497,-0.304
'[11:35:23.208 05/05/1995]',0.116,0.252,0.269,119.083,-0.499,-0.306
'[11:35:23.210 05/05/1995]',0.127,0.269,0.302,119.083,-0.499,-0.306
'[11:35:23.212 05/05/1995]',0.136,0.287,0.302,119.083,-0.499,-0.306
'[11:35:23.214 05/05/1995]',0.145,0.305,0.302,119.083,-0.499,-0.306
'[11:35:23.216 05/05/1995]',0.152,0.322,0.336,131.180,-0.500,-0.308
'[11:35:23.218 05/05/1995]',0.158,0.340,0.336,131.180,-0.500,-0.308
'[11:35:23.220 05/05/1995]',0.163,0.340,0.336,131.180,-0.500,-0.308
'[11:35:23.222 05/05/1995]',0.168,0.322,0.336,131.180,-0.500,-0.308
'[11:35:23.224 05/05/1995]',0.170,0.322,0.336,143.651,-0.499,-0.311
'[11:35:23.226 05/05/1995]',0.172,0.305,0.302,143.651,-0.499,-0.311
'[11:35:23.228 05/05/1995]',0.171,0.305,0.336,143.651,-0.499,-0.311
'[11:35:23.230 05/05/1995]',0.169,0.305,0.336,143.651,-0.499,-0.311
'[11:35:23.232 05/05/1995]',0.165,0.305,0.302,154.470,-0.495,-0.316
'[11:35:23.234 05/05/1995]',0.161,0.287,0.302,154.470,-0.495,-0.316
'[11:35:23.236 05/05/1995]',0.157,0.287,0.302,154.470,-0.495,-0.316
'[11:35:23.238 05/05/1995]',0.152,0.269,0.269,154.470,-0.495,-0.316
'[11:35:23.240 05/05/1995]',0.147,0.252,0.236,162.585,-0.484,-0.321
'[11:35:23.242 05/05/1995]',0.142,0.234,0.236,162.585,-0.484,-0.321
'[11:35:23.244 05/05/1995]',0.137,0.216,0.236,162.585,-0.484,-0.321
'[11:35:23.246 05/05/1995]',0.132,0.216,0.236,162.585,-0.484,-0.321
'[11:35:23.248 05/05/1995]',0.127,0.198,0.236,167.844,-0.465,-0.328
'[11:35:23.250 05/05/1995]',0.122,0.198,0.202,167.844,-0.465,-0.328
'[11:35:23.252 05/05/1995]',0.116,0.180,0.202,167.844,-0.465,-0.328
'[11:35:23.254 05/05/1995]',0.110,0.162,0.169,167.844,-0.465,-0.328
'[11:35:23.256 05/05/1995]',0.103,0.126,0.169,170.624,-0.433,-0.334
'[11:35:23.258 05/05/1995]',0.097,0.126,0.135,170.624,-0.433,-0.334
'[11:35:23.260 05/05/1995]',0.091,0.108,0.102,170.624,-0.433,-0.334
'[11:35:23.262 05/05/1995]',0.085,0.108,0.102,170.624,-0.433,-0.334
'[11:35:23.264 05/05/1995]',0.081,0.090,0.102,171.450,-0.389,-0.341
'[11:35:23.266 05/05/1995]',0.077,0.090,0.068,171.450,-0.389,-0.341
'[11:35:23.268 05/05/1995]',0.073,0.072,0.068,171.450,-0.389,-0.341
'[11:35:23.270 05/05/1995]',0.070,0.055,0.035,171.450,-0.389,-0.341
'[11:35:23.272 05/05/1995]',0.065,0.019,0.035,170.774,-0.334,-0.348
'[11:35:23.274 05/05/1995]',0.061,0.002,0.035,170.774,-0.334,-0.348
'[11:35:23.276 05/05/1995]',0.057,0.002,0.003,170.774,-0.334,-0.348
'[11:35:23.278 05/05/1995]',0.053,0.002,0.003,170.774,-0.334,-0.348
'[11:35:23.280 05/05/1995]',0.049,0.002,0.003,168.670,-0.266,-0.355
'[11:35:23.282 05/05/1995]',0.046,0.002,0.003,168.670,-0.266,-0.355
'[11:35:23.284 05/05/1995]',0.043,0.002,0.003,168.670,-0.266,-0.355
'[11:35:23.286 05/05/1995]',0.040,0.002,0.003,168.670,-0.266,-0.355
'[11:35:23.288 05/05/1995]',0.038,0.002,0.003,165.590,-0.191,-0.362
'[11:35:23.290 05/05/1995]',0.037,0.002,0.003,165.590,-0.191,-0.362
'[11:35:23.292 05/05/1995]',0.037,-0.016,0.003,165.590,-0.191,-0.362
'[11:35:23.294 05/05/1995]',0.037,0.002,0.003,165.590,-0.191,-0.362
'[11:35:23.296 05/05/1995]',0.038,0.002,0.003,161.683,-0.113,-0.366
'[11:35:23.298 05/05/1995]',0.040,0.002,0.003,161.683,-0.113,-0.366
'[11:35:23.300 05/05/1995]',0.041,0.002,0.003,161.683,-0.113,-0.366
'[11:35:23.302 05/05/1995]',0.043,0.002,0.003,161.683,-0.113,-0.366
'[11:35:23.304 05/05/1995]',0.043,0.002,0.003,157.400,-0.035,-0.369
'[11:35:23.306 05/05/1995]',0.044,0.002,0.003,157.400,-0.035,-0.369
'[11:35:23.308 05/05/1995]',0.043,0.002,-0.030,157.400,-0.035,-0.369
'[11:35:23.310 05/05/1995]',0.043,0.002,-0.030,157.400,-0.035,-0.369
'[11:35:23.312 05/05/1995]',0.042,0.002,0.003,152.817,0.038,-0.371
'[11:35:23.314 05/05/1995]',0.041,0.002,0.003,152.817,0.038,-0.371
'[11:35:23.316 05/05/1995]',0.042,0.002,0.003,152.817,0.038,-0.371
'[11:35:23.318 05/05/1995]',0.043,0.002,0.003,152.817,0.038,-0.371
'[11:35:23.320 05/05/1995]',0.046,0.002,0.003,148.159,0.102,-0.372
'[11:35:23.322 05/05/1995]',0.050,0.002,-0.030,148.159,0.102,-0.372
'[11:35:23.324 05/05/1995]',0.056,0.002,-0.030,148.159,0.102,-0.372
'[11:35:23.326 05/05/1995]',0.063,0.002,-0.030,148.159,0.102,-0.372
'[11:35:23.328 05/05/1995]',0.069,0.002,-0.030,143.276,0.155,-0.371
'[11:35:23.330 05/05/1995]',0.075,0.002,0.003,143.276,0.155,-0.371
'[11:35:23.332 05/05/1995]',0.080,0.002,0.003,143.276,0.155,-0.371
'[11:35:23.334 05/05/1995]',0.084,0.002,0.003,143.276,0.155,-0.371
'[11:35:23.336 05/05/1995]',0.086,0.002,0.003,138.242,0.193,-0.368
'[11:35:23.338 05/05/1995]',0.088,0.002,0.003,138.242,0.193,-0.368
'[11:35:23.340 05/05/1995]',0.088,-0.016,0.003,138.242,0.193,-0.368
'[11:35:23.342 05/05/1995]',0.087,-0.016,-0.030,138.242,0.193,-0.368
'[11:35:23.344 05/05/1995]',0.085,-0.016,0.003,132.983,0.217,-0.365
'[11:35:23.346 05/05/1995]',0.084,-0.016,0.003,132.983,0.217,-0.365
'[11:35:23.348 05/05/1995]',0.082,-0.016,0.003,132.983,0.217,-0.365
'[11:35:23.350 05/05/1995]',0.080,-0.016,0.003,132.983,0.217,-0.365
'[11:35:23.352 05/05/1995]',0.076,-0.016,-0.030,127.573,0.229,-0.361
'[11:35:23.354 05/05/1995]',0.073,-0.034,-0.030,127.573,0.229,-0.361
'[11:35:23.356 05/05/1995]',0.068,-0.052,-0.064,127.573,0.229,-0.361
'[11:35:23.358 05/05/1995]',0.064,-0.052,-0.064,127.573,0.229,-0.361
'[11:35:23.360 05/05/1995]',0.060,-0.070,-0.064,122.014,0.228,-0.356
'[11:35:23.362 05/05/1995]',0.056,-0.088,-0.064,122.014,0.228,-0.356
'[11:35:23.364 05/05/1995]',0.051,-0.070,-0.064,122.014,0.228,-0.356
'[11:35:23.366 05/05/1995]',0.046,-0.070,-0.064,122.014,0.228,-0.356
'[11:35:23.368 05/05/1995]',0.043,-0.070,-0.064,116.604,0.215,-0.351
'[11:35:23.370 05/05/1995]',0.040,-0.088,-0.064,116.604,0.215,-0.351
'[11:35:23.372 05/05/1995]',0.038,-0.106,-0.064,116.604,0.215,-0.351
'[11:35:23.374 05/05/1995]',0.036,-0.106,-0.064,116.604,0.215,-0.351
'[11:35:23.376 05/05/1995]',0.033,-0.106,-0.064,111.495,0.193,-0.345
'[11:35:23.378 05/05/1995]',0.030,-0.088,-0.030,111.495,0.193,-0.345
'[11:35:23.380 05/05/1995]',0.026,-0.088,-0.030,111.495,0.193,-0.345
'[11:35:23.382 05/05/1995]',0.023,-0.088,-0.030,111.495,0.193,-0.345
'[11:35:23.384 05/05/1995]',0.017,-0.088,-0.030,107.213,0.162,-0.340
'[11:35:23.386 05/05/1995]',0.011,-0.088,-0.064,107.213,0.162,-0.340
'[11:35:23.388 05/05/1995]',0.004,-0.106,-0.064,107.213,0.162,-0.340
'[11:35:23.390 05/05/1995]',-0.003,-0.106,-0.064,107.213,0.162,-0.340
'[11:35:23.392 05/05/1995]',-0.011,-0.124,-0.097,103.907,0.124,-0.336
'[11:35:23.394 05/05/1995]',-0.019,-0.106,-0.097,103.907,0.124,-0.336
'[11:35:23.396 05/05/1995]',-0.027,-0.106,-0.064,103.907,0.124,-0.336
'[11:35:23.398 05/05/1995]',-0.036,-0.106,-0.064,103.907,0.124,-0.336
'[11:35:23.400 05/05/1995]',-0.043,-0.106,-0.064,101.578,0.081,-0.334
'[11:35:23.402 05/05/1995]',-0.051,-0.106,-0.097,101.578,0.081,-0.334
'[11:35:23.404 05/05/1995]',-0.058,-0.124,-0.097,101.578,0.081,-0.334
'[11:35:23.406 05/05/1995]',-0.065,-0.124,-0.097,101.578,0.081,-0.334
'[11:35:23.408 05/05/1995]',-0.069,-0.124,-0.097,100.075,0.029,-0.333
'[11:35:23.410 05/05/1995]',-0.073,-0.124,-0.097,100.075,0.029,-0.333
'[11:35:23.412 05/05/1995]',-0.073,-0.124,-0.097,100.075,0.029,-0.333
'[11:35:23.414 05/05/1995]',-0.073,-0.124,-0.097,100.075,0.029,-0.333
'[11:35:23.416 05/05/1995]',-0.071,-0.124,-0.097,99.174,-0.025,-0.333
'[11:35:23.418 05/05/1995]',-0.070,-0.124,-0.097,99.174,-0.025,-0.333
'[11:35:23.420 05/05/1995]',-0.068,-0.124,-0.097,99.174,-0.025,-0.333
'[11:35:23.422 05/05/1995]',-0.067,-0.124,-0.097,99.174,-0.025,-0.333
'[11:35:23.424 05/05/1995]',-0.065,-0.124,-0.097,98.873,-0.083,-0.334
'[11:35:23.426 05/05/1995]',-0.063,-0.142,-0.097,98.873,-0.083,-0.334
'[11:35:23.428 05/05/1995]',-0.063,-0.142,-0.097,98.873,-0.083,-0.334
'[11:35:23.430 05/05/1995]',-0.063,-0.124,-0.097,98.873,-0.083,-0.334
'[11:35:23.432 05/05/1995]',-0.063,-0.124,-0.097,98.873,-0.144,-0.336
'[11:35:23.434 05/05/1995]',-0.064,-0.124,-0.097,98.873,-0.144,-0.336
'[11:35:23.436 05/05/1995]',-0.067,-0.124,-0.097,98.873,-0.144,-0.336
'[11:35:23.438 05/05/1995]',-0.070,-0.124,-0.131,98.873,-0.144,-0.336
'[11:35:23.440 05/05/1995]',-0.076,-0.124,-0.131,99.098,-0.206,-0.340
'[11:35:23.442 05/05/1995]',-0.083,-0.106,-0.131,99.098,-0.206,-0.340
'[11:35:23.444 05/05/1995]',-0.093,-0.088,-0.131,99.098,-0.206,-0.340
'[11:35:23.446 05/05/1995]',-0.104,-0.070,-0.097,99.098,-0.206,-0.340
'[11:35:23.448 05/05/1995]',-0.115,-0.052,-0.097,99.699,-0.269,-0.344
'[11:35:23.450 05/05/1995]',-0.127,-0.070,-0.097,99.699,-0.269,-0.344
'[11:35:23.452 05/05/1995]',-0.130,-0.088,-0.097,99.699,-0.269,-0.344
'[11:35:23.454 05/05/1995]',-0.132,-0.106,-0.097,99.699,-0.269,-0.344
'[11:35:23.456 05/05/1995]',-0.122,-0.088,-0.064,100.225,-0.329,-0.347
'[11:35:23.458 05/05/1995]',-0.111,-0.070,-0.030,100.225,-0.329,-0.347
'[11:35:23.460 05/05/1995]',-0.084,-0.016,0.003,100.225,-0.329,-0.347
'[11:35:23.462 05/05/1995]',-0.057,0.002,0.035,100.225,-0.329,-0.347
'[11:35:23.464 05/05/1995]',-0.013,0.037,0.068,100.902,-0.387,-0.350
'[11:35:23.466 05/05/1995]',0.031,0.055,0.135,100.902,-0.387,-0.350
'[11:35:23.468 05/05/1995]',0.085,0.072,0.169,100.902,-0.387,-0.350
'[11:35:23.470 05/05/1995]',0.138,0.072,0.169,100.902,-0.387,-0.350
'[11:35:23.472 05/05/1995]',0.186,0.090,0.202,101.578,-0.440,-0.353
'[11:35:23.474 05/05/1995]',0.233,0.108,0.236,101.578,-0.440,-0.353
'[11:35:23.476 05/05/1995]',0.269,0.126,0.269,101.578,-0.440,-0.353
'[11:35:23.478 05/05/1995]',0.305,0.126,0.302,101.578,-0.440,-0.353
'[11:35:23.480 05/05/1995]',0.323,0.126,0.302,102.104,-0.488,-0.355
'[11:35:23.482 05/05/1995]',0.342,0.090,0.269,102.104,-0.488,-0.355
'[11:35:23.484 05/05/1995]',0.338,0.055,0.269,102.104,-0.488,-0.355
'[11:35:23.486 05/05/1995]',0.335,0.019,0.202,102.104,-0.488,-0.355
'[11:35:23.488 05/05/1995]',0.315,0.002,0.135,102.630,-0.531,-0.356
'[11:35:23.490 05/05/1995]',0.296,0.002,0.035,102.630,-0.531,-0.356
'[11:35:23.492 05/05/1995]',0.266,-0.124,-0.097,102.630,-0.531,-0.356
'[11:35:23.494 05/05/1995]',0.236,-0.302,-0.298,102.630,-0.531,-0.356
'[11:35:23.496 05/05/1995]',0.201,-0.516,-0.530,103.156,-0.566,-0.357
'[11:35:23.498 05/05/1995]',0.167,-0.660,-0.698,103.156,-0.566,-0.357
'[11:35:23.500 05/05/1995]',0.132,-0.731,-0.764,103.156,-0.566,-0.357
'[11:35:23.502 05/05/1995]',0.097,-0.749,-0.731,103.156,-0.566,-0.357
'[11:35:23.504 05/05/1995]',0.068,-0.731,-0.698,103.456,-0.593,-0.357
'[11:35:23.506 05/05/1995]',0.040,-0.678,-0.631,103.456,-0.593,-0.357
'[11:35:23.508 05/05/1995]',0.021,-0.606,-0.564,103.456,-0.593,-0.357
'[11:35:23.510 05/05/1995]',0.001,-0.534,-0.497,103.456,-0.593,-0.357
'[11:35:23.512 05/05/1995]',-0.013,-0.463,-0.432,103.606,-0.615,-0.357
'[11:35:23.514 05/05/1995]',-0.027,-0.392,-0.365,103.606,-0.615,-0.357
'[11:35:23.516 05/05/1995]',-0.041,-0.338,-0.298,103.606,-0.615,-0.357
'[11:35:23.518 05/05/1995]',-0.054,-0.284,-0.264,103.606,-0.615,-0.357
'[11:35:23.520 05/05/1995]',-0.065,-0.249,-0.231,103.681,-0.626,-0.356
'[11:35:23.522 05/05/1995]',-0.077,-0.213,-0.198,103.681,-0.626,-0.356
'[11:35:23.524 05/05/1995]',-0.085,-0.195,-0.164,103.681,-0.626,-0.356
'[11:35:23.526 05/05/1995]',-0.094,-0.160,-0.131,103.681,-0.626,-0.356
'[11:35:23.528 05/05/1995]',-0.100,-0.142,-0.131,103.606,-0.633,-0.355
'[11:35:23.530 05/05/1995]',-0.105,-0.124,-0.097,103.606,-0.633,-0.355
'[11:35:23.532 05/05/1995]',-0.109,-0.124,-0.097,103.606,-0.633,-0.355
'[11:35:23.534 05/05/1995]',-0.112,-0.124,-0.097,103.606,-0.633,-0.355
'[11:35:23.536 05/05/1995]',-0.114,-0.106,-0.064,103.456,-0.633,-0.353
'[11:35:23.538 05/05/1995]',-0.115,-0.106,-0.097,103.456,-0.633,-0.353
'[11:35:23.540 05/05/1995]',-0.115,-0.106,-0.064,103.456,-0.633,-0.353
'[11:35:23.542 05/05/1995]',-0.114,-0.106,-0.064,103.456,-0.633,-0.353
'[11:35:23.544 05/05/1995]',-0.111,-0.106,-0.064,103.080,-0.627,-0.351
'[11:35:23.546 05/05/1995]',-0.108,-0.070,-0.064,103.080,-0.627,-0.351
'[11:35:23.548 05/05/1995]',-0.103,-0.070,-0.030,103.080,-0.627,-0.351
'[11:35:23.550 05/05/1995]',-0.098,-0.070,-0.030,103.080,-0.627,-0.351
'[11:35:23.552 05/05/1995]',-0.096,-0.070,-0.030,102.554,-0.619,-0.350
'[11:35:23.554 05/05/1995]',-0.094,-0.070,-0.064,102.554,-0.619,-0.350
'[11:35:23.556 05/05/1995]',-0.093,-0.070,-0.064,102.554,-0.619,-0.350
'[11:35:23.558 05/05/1995]',-0.093,-0.088,-0.064,102.554,-0.619,-0.350
'[11:35:23.560 05/05/1995]',-0.091,-0.070,-0.064,101.878,-0.604,-0.348
'[11:35:23.562 05/05/1995]',-0.090,-0.070,-0.030,101.878,-0.604,-0.348
'[11:35:23.564 05/05/1995]',-0.088,-0.052,-0.030,101.878,-0.604,-0.348
'[11:35:23.566 05/05/1995]',-0.087,-0.052,-0.030,101.878,-0.604,-0.348
'[11:35:23.568 05/05/1995]',-0.085,-0.034,-0.030,101.052,-0.589,-0.346
'[11:35:23.570 05/05/1995]',-0.084,-0.034,-0.030,101.052,-0.589,-0.346
'[11:35:23.572 05/05/1995]',-0.080,-0.052,-0.030,101.052,-0.589,-0.346
'[11:35:23.574 05/05/1995]',-0.075,-0.052,-0.030,101.052,-0.589,-0.346
'[11:35:23.576 05/05/1995]',-0.072,-0.034,-0.030,100.301,-0.535,-0.345
'[11:35:23.578 05/05/1995]',-0.068,-0.016,-0.030,100.301,-0.535,-0.345
'[11:35:23.580 05/05/1995]',-0.065,-0.016,0.003,100.301,-0.535,-0.345
'[11:35:23.582 05/05/1995]',-0.061,0.002,0.003,100.301,-0.535,-0.345
'[11:35:23.584 05/05/1995]',-0.058,0.002,0.003,99.624,-0.518,-0.345
'[11:35:23.586 05/05/1995]',-0.056,0.002,0.003,99.624,-0.518,-0.345
'[11:35:23.588 05/05/1995]',-0.053,0.002,0.003,99.624,-0.518,-0.345
'[11:35:23.590 05/05/1995]',-0.051,0.002,0.003,99.624,-0.518,-0.345
'[11:35:23.592 05/05/1995]',-0.048,0.002,0.003,98.948,-0.502,-0.346
'[11:35:23.594 05/05/1995]',-0.046,0.002,0.003,98.948,-0.502,-0.346
'[11:35:23.596 05/05/1995]',-0.041,0.002,0.003,98.948,-0.502,-0.346
'[11:35:23.598 05/05/1995]',-0.036,0.019,0.003,98.948,-0.502,-0.346
'[11:35:23.600 05/05/1995]',-0.030,0.037,0.003,98.347,-0.486,-0.347
'[11:35:23.602 05/05/1995]',-0.024,0.037,0.003,98.347,-0.486,-0.347
'[11:35:23.604 05/05/1995]',-0.019,0.037,0.003,98.347,-0.486,-0.347
'[11:35:23.606 05/05/1995]',-0.014,0.037,0.003,98.347,-0.486,-0.347
'[11:35:23.608 05/05/1995]',-0.011,0.037,0.003,97.896,-0.474,-0.348
'[11:35:23.610 05/05/1995]',-0.007,0.037,0.035,97.896,-0.474,-0.348
'[11:35:23.612 05/05/1995]',-0.003,0.055,0.035,97.896,-0.474,-0.348
'[11:35:23.614 05/05/1995]',0.001,0.072,0.068,97.896,-0.474,-0.348
'[11:35:23.616 05/05/1995]',0.007,0.090,0.068,97.821,-0.463,-0.350
'[11:35:23.618 05/05/1995]',0.013,0.108,0.068,97.821,-0.463,-0.350
'[11:35:23.620 05/05/1995]',0.018,0.126,0.068,97.821,-0.463,-0.350
'[11:35:23.622 05/05/1995]',0.023,0.126,0.102,97.821,-0.463,-0.350
'[11:35:23.624 05/05/1995]',0.028,0.126,0.102,98.573,-0.457,-0.351
'[11:35:23.626 05/05/1995]',0.034,0.126,0.102,98.573,-0.457,-0.351
'[11:35:23.628 05/05/1995]',0.043,0.162,0.135,98.573,-0.457,-0.351
'[11:35:23.630 05/05/1995]',0.051,0.180,0.135,98.573,-0.457,-0.351
'[11:35:23.632 05/05/1995]',0.061,0.198,0.169,101.052,-0.452,-0.352
'[11:35:23.634 05/05/1995]',0.071,0.216,0.202,101.052,-0.452,-0.352
'[11:35:23.636 05/05/1995]',0.082,0.234,0.202,101.052,-0.452,-0.352
'[11:35:23.638 05/05/1995]',0.093,0.234,0.202,101.052,-0.452,-0.352
'[11:35:23.640 05/05/1995]',0.103,0.252,0.202,106.536,-0.450,-0.354
'[11:35:23.642 05/05/1995]',0.114,0.269,0.236,106.536,-0.450,-0.354
'[11:35:23.644 05/05/1995]',0.123,0.269,0.236,106.536,-0.450,-0.354
'[11:35:23.646 05/05/1995]',0.132,0.305,0.302,106.536,-0.450,-0.354
'[11:35:23.648 05/05/1995]',0.140,0.322,0.302,115.327,-0.451,-0.355
'[11:35:23.650 05/05/1995]',0.148,0.340,0.336,115.327,-0.451,-0.355
'[11:35:23.652 05/05/1995]',0.153,0.340,0.336,115.327,-0.451,-0.355
'[11:35:23.654 05/05/1995]',0.158,0.340,0.336,115.327,-0.451,-0.355
'[11:35:23.656 05/05/1995]',0.162,0.358,0.336,126.672,-0.452,-0.357
'[11:35:23.658 05/05/1995]',0.167,0.358,0.336,126.672,-0.452,-0.357
'[11:35:23.660 05/05/1995]',0.167,0.358,0.336,126.672,-0.452,-0.357
'[11:35:23.662 05/05/1995]',0.168,0.358,0.336,126.672,-0.452,-0.357
'[11:35:23.664 05/05/1995]',0.167,0.376,0.369,138.693,-0.453,-0.359
'[11:35:23.666 05/05/1995]',0.165,0.376,0.336,138.693,-0.453,-0.359
'[11:35:23.668 05/05/1995]',0.163,0.376,0.336,138.693,-0.453,-0.359
'[11:35:23.670 05/05/1995]',0.161,0.358,0.336,138.693,-0.453,-0.359
'[11:35:23.672 05/05/1995]',0.160,0.340,0.302,149.437,-0.450,-0.361
'[11:35:23.674 05/05/1995]',0.159,0.322,0.302,149.437,-0.450,-0.361
'[11:35:23.676 05/05/1995]',0.157,0.305,0.302,149.437,-0.450,-0.361
'[11:35:23.678 05/05/1995]',0.154,0.305,0.302,149.437,-0.450,-0.361
'[11:35:23.680 05/05/1995]',0.148,0.287,0.269,157.400,-0.440,-0.363
'[11:35:23.682 05/05/1995]',0.142,0.287,0.269,157.400,-0.440,-0.363
'[11:35:23.684 05/05/1995]',0.135,0.269,0.269,157.400,-0.440,-0.363
'[11:35:23.686 05/05/1995]',0.127,0.269,0.236,157.400,-0.440,-0.363
'[11:35:23.688 05/05/1995]',0.118,0.252,0.236,162.434,-0.422,-0.365
'[11:35:23.690 05/05/1995]',0.110,0.216,0.202,162.434,-0.422,-0.365
'[11:35:23.692 05/05/1995]',0.101,0.198,0.169,162.434,-0.422,-0.365
'[11:35:23.694 05/05/1995]',0.093,0.180,0.169,162.434,-0.422,-0.365
'[11:35:23.696 05/05/1995]',0.088,0.180,0.169,164.989,-0.394,-0.367
'[11:35:23.698 05/05/1995]',0.084,0.162,0.135,164.989,-0.394,-0.367
'[11:35:23.700 05/05/1995]',0.081,0.162,0.135,164.989,-0.394,-0.367
'[11:35:23.702 05/05/1995]',0.078,0.144,0.102,164.989,-0.394,-0.367
'[11:35:23.704 05/05/1995]',0.077,0.126,0.102,165.665,-0.351,-0.369
'[11:35:23.706 05/05/1995]',0.075,0.126,0.068,165.665,-0.351,-0.369
'[11:35:23.708 05/05/1995]',0.075,0.108,0.068,165.665,-0.351,-0.369
'[11:35:23.710 05/05/1995]',0.074,0.090,0.068,165.665,-0.351,-0.369
'[11:35:23.712 05/05/1995]',0.072,0.090,0.068,164.838,-0.297,-0.371
'[11:35:23.714 05/05/1995]',0.070,0.090,0.035,164.838,-0.297,-0.371
'[11:35:23.716 05/05/1995]',0.068,0.090,0.035,164.838,-0.297,-0.371
'[11:35:23.718 05/05/1995]',0.067,0.072,0.035,164.838,-0.297,-0.371
'[11:35:23.720 05/05/1995]',0.064,0.072,0.035,162.960,-0.231,-0.372
'[11:35:23.722 05/05/1995]',0.061,0.055,0.003,162.960,-0.231,-0.372
'[11:35:23.724 05/05/1995]',0.059,0.055,0.003,162.960,-0.231,-0.372
'[11:35:23.726 05/05/1995]',0.057,0.055,0.003,162.960,-0.231,-0.372
'[11:35:23.728 05/05/1995]',0.056,0.037,0.003,160.180,-0.155,-0.373
'[11:35:23.730 05/05/1995]',0.054,0.055,0.003,160.180,-0.155,-0.373
'[11:35:23.732 05/05/1995]',0.053,0.055,0.003,160.180,-0.155,-0.373
'[11:35:23.734 05/05/1995]',0.053,0.055,0.003,160.180,-0.155,-0.373
'[11:35:23.736 05/05/1995]',0.051,0.037,0.003,156.349,-0.074,-0.373
'[11:35:23.738 05/05/1995]',0.050,0.037,0.003,156.349,-0.074,-0.373
'[11:35:23.740 05/05/1995]',0.048,0.019,0.003,156.349,-0.074,-0.373
'[11:35:23.742 05/05/1995]',0.046,0.037,0.003,156.349,-0.074,-0.373
'[11:35:23.744 05/05/1995]',0.043,0.037,0.003,151.916,0.005,-0.372
'[11:35:23.746 05/05/1995]',0.040,0.055,0.003,151.916,0.005,-0.372
'[11:35:23.748 05/05/1995]',0.038,0.072,0.003,151.916,0.005,-0.372
'[11:35:23.750 05/05/1995]',0.037,0.072,0.003,151.916,0.005,-0.372
'[11:35:23.752 05/05/1995]',0.037,0.072,0.003,146.882,0.083,-0.369
'[11:35:23.754 05/05/1995]',0.037,0.055,0.003,146.882,0.083,-0.369
'[11:35:23.756 05/05/1995]',0.039,0.055,0.003,146.882,0.083,-0.369
'[11:35:23.758 05/05/1995]',0.041,0.055,0.003,146.882,0.083,-0.369
'[11:35:23.760 05/05/1995]',0.045,0.055,-0.030,141.548,0.149,-0.366
'[11:35:23.762 05/05/1995]',0.048,0.055,0.003,141.548,0.149,-0.366
'[11:35:23.764 05/05/1995]',0.052,0.055,0.003,141.548,0.149,-0.366
'[11:35:23.766 05/05/1995]',0.056,0.072,0.003,141.548,0.149,-0.366
'[11:35:23.768 05/05/1995]',0.058,0.055,0.003,136.213,0.205,-0.363
'[11:35:23.770 05/05/1995]',0.060,0.055,0.003,136.213,0.205,-0.363
'[11:35:23.772 05/05/1995]',0.060,0.055,0.003,136.213,0.205,-0.363
'[11:35:23.774 05/05/1995]',0.061,0.037,0.003,136.213,0.205,-0.363
'[11:35:23.776 05/05/1995]',0.062,0.055,0.003,130.804,0.247,-0.358
'[11:35:23.778 05/05/1995]',0.063,0.055,0.003,130.804,0.247,-0.358
'[11:35:23.780 05/05/1995]',0.062,0.055,0.003,130.804,0.247,-0.358
'[11:35:23.782 05/05/1995]',0.061,0.055,0.003,130.804,0.247,-0.358
'[11:35:23.784 05/05/1995]',0.059,0.037,0.003,125.394,0.274,-0.352
'[11:35:23.786 05/05/1995]',0.057,0.019,0.003,125.394,0.274,-0.352
'[11:35:23.788 05/05/1995]',0.053,0.019,0.003,125.394,0.274,-0.352
'[11:35:23.790 05/05/1995]',0.050,0.002,0.003,125.394,0.274,-0.352
'[11:35:23.792 05/05/1995]',0.048,0.002,-0.030,120.060,0.285,-0.346
'[11:35:23.794 05/05/1995]',0.047,0.002,-0.030,120.060,0.285,-0.346
'[11:35:23.796 05/05/1995]',0.046,0.002,-0.030,120.060,0.285,-0.346
'[11:35:23.798 05/05/1995]',0.046,0.002,-0.030,120.060,0.285,-0.346
'[11:35:23.800 05/05/1995]',0.046,0.002,-0.030,114.801,0.283,-0.340
'[11:35:23.802 05/05/1995]',0.047,0.002,-0.030,114.801,0.283,-0.340
'[11:35:23.804 05/05/1995]',0.048,-0.016,-0.030,114.801,0.283,-0.340
'[11:35:23.806 05/05/1995]',0.050,-0.034,-0.030,114.801,0.283,-0.340
'[11:35:23.808 05/05/1995]',0.048,-0.034,-0.030,109.992,0.271,-0.335
'[11:35:23.810 05/05/1995]',0.046,-0.034,-0.030,109.992,0.271,-0.335
'[11:35:23.812 05/05/1995]',0.043,-0.034,-0.030,109.992,0.271,-0.335
'[11:35:23.814 05/05/1995]',0.040,-0.034,-0.030,109.992,0.271,-0.335
'[11:35:23.816 05/05/1995]',0.037,-0.016,-0.030,105.785,0.245,-0.331
'[11:35:23.818 05/05/1995]',0.034,-0.016,-0.030,105.785,0.245,-0.331
'[11:35:23.820 05/05/1995]',0.029,-0.034,-0.030,105.785,0.245,-0.331
'[11:35:23.822 05/05/1995]',0.024,-0.034,-0.064,105.785,0.245,-0.331
'[11:35:23.824 05/05/1995]',0.018,-0.034,-0.064,102.329,0.215,-0.328
'[11:35:23.826 05/05/1995]',0.011,-0.034,-0.064,102.329,0.215,-0.328
'[11:35:23.828 05/05/1995]',0.003,-0.034,-0.064,102.329,0.215,-0.328
'[11:35:23.830 05/05/1995]',-0.006,-0.016,-0.064,102.329,0.215,-0.328
'[11:35:23.832 05/05/1995]',-0.015,-0.016,-0.064,99.925,0.172,-0.325
'[11:35:23.834 05/05/1995]',-0.024,-0.016,-0.064,99.925,0.172,-0.325
'[11:35:23.836 05/05/1995]',-0.033,-0.034,-0.064,99.925,0.172,-0.325
'[11:35:23.838 05/05/1995]',-0.041,-0.052,-0.064,99.925,0.172,-0.325
'[11:35:23.840 05/05/1995]',-0.047,-0.070,-0.064,98.347,0.126,-0.323
'[11:35:23.842 05/05/1995]',-0.053,-0.052,-0.064,98.347,0.126,-0.323
'[11:35:23.844 05/05/1995]',-0.056,-0.052,-0.064,98.347,0.126,-0.323
'[11:35:23.846 05/05/1995]',-0.060,-0.052,-0.064,98.347,0.126,-0.323
'[11:35:23.848 05/05/1995]',-0.061,-0.052,-0.064,97.521,0.071,-0.321
'[11:35:23.850 05/05/1995]',-0.063,-0.052,-0.064,97.521,0.071,-0.321
'[11:35:23.852 05/05/1995]',-0.063,-0.052,-0.064,97.521,0.071,-0.321
'[11:35:23.854 05/05/1995]',-0.064,-0.070,-0.097,97.521,0.071,-0.321
'[11:35:23.856 05/05/1995]',-0.064,-0.070,-0.097,97.220,0.015,-0.319
'[11:35:23.858 05/05/1995]',-0.064,-0.088,-0.097,97.220,0.015,-0.319
'[11:35:23.860 05/05/1995]',-0.065,-0.088,-0.097,97.220,0.015,-0.319
'[11:35:23.862 05/05/1995]',-0.067,-0.070,-0.097,97.220,0.015,-0.319
'[11:35:23.864 05/05/1995]',-0.067,-0.070,-0.097,97.370,-0.046,-0.318
'[11:35:23.866 05/05/1995]',-0.067,-0.070,-0.097,97.370,-0.046,-0.318
'[11:35:23.868 05/05/1995]',-0.065,-0.070,-0.097,97.370,-0.046,-0.318
'[11:35:23.870 05/05/1995]',-0.063,-0.070,-0.097,97.370,-0.046,-0.318
'[11:35:23.872 05/05/1995]',-0.061,-0.088,-0.097,97.746,-0.107,-0.318
'[11:35:23.874 05/05/1995]',-0.060,-0.088,-0.097,97.746,-0.107,-0.318
'[11:35:23.876 05/05/1995]',-0.063,-0.070,-0.097,97.746,-0.107,-0.318
'[11:35:23.878 05/05/1995]',-0.067,-0.052,-0.064,97.746,-0.107,-0.318
'[11:35:23.880 05/05/1995]',-0.078,-0.016,-0.064,98.272,-0.170,-0.317
'[11:35:23.882 05/05/1995]',-0.088,0.002,-0.064,98.272,-0.170,-0.317
'[11:35:23.884 05/05/1995]',-0.102,0.002,-0.064,98.272,-0.170,-0.317
'[11:35:23.886 05/05/1995]',-0.115,0.002,-0.097,98.272,-0.170,-0.317
'[11:35:23.888 05/05/1995]',-0.126,0.002,-0.097,98.798,-0.231,-0.317
'[11:35:23.890 05/05/1995]',-0.137,-0.034,-0.097,98.798,-0.231,-0.317
'[11:35:23.892 05/05/1995]',-0.137,-0.034,-0.097,98.798,-0.231,-0.317
'[11:35:23.894 05/05/1995]',-0.138,-0.034,-0.064,98.798,-0.231,-0.317
'[11:35:23.896 05/05/1995]',-0.125,0.002,-0.030,99.399,-0.289,-0.316
'[11:35:23.898 05/05/1995]',-0.111,0.002,0.003,99.399,-0.289,-0.316
'[11:35:23.900 05/05/1995]',-0.084,0.055,0.035,99.399,-0.289,-0.316
'[11:35:23.902 05/05/1995]',-0.057,0.090,0.068,99.399,-0.289,-0.316
'[11:35:23.904 05/05/1995]',-0.016,0.108,0.102,100.000,-0.344,-0.315
'[11:35:23.906 05/05/1995]',0.026,0.108,0.135,100.000,-0.344,-0.315
'[11:35:23.908 05/05/1995]',0.077,0.126,0.169,100.000,-0.344,-0.315
'[11:35:23.910 05/05/1995]',0.128,0.126,0.202,100.000,-0.344,-0.315
'[11:35:23.912 05/05/1995]',0.178,0.162,0.236,100.676,-0.395,-0.314
'[11:35:23.914 05/05/1995]',0.228,0.198,0.269,100.676,-0.395,-0.314
'[11:35:23.916 05/05/1995]',0.268,0.216,0.302,100.676,-0.395,-0.314
'[11:35:23.918 05/05/1995]',0.307,0.216,0.302,100.676,-0.395,-0.314
'[11:35:23.920 05/05/1995]',0.330,0.180,0.302,101.202,-0.436,-0.311
'[11:35:23.922 05/05/1995]',0.353,0.126,0.269,101.202,-0.436,-0.311
'[11:35:23.924 05/05/1995]',0.354,0.072,0.269,101.202,-0.436,-0.311
'[11:35:23.926 05/05/1995]',0.354,0.055,0.202,101.202,-0.436,-0.311
'[11:35:23.928 05/05/1995]',0.334,0.055,0.169,101.728,-0.472,-0.309
'[11:35:23.930 05/05/1995]',0.313,0.055,0.068,101.728,-0.472,-0.309
'[11:35:23.932 05/05/1995]',0.279,-0.034,-0.064,101.728,-0.472,-0.309
'[11:35:23.934 05/05/1995]',0.245,-0.231,-0.264,101.728,-0.472,-0.309
'[11:35:23.936 05/05/1995]',0.207,-0.481,-0.497,102.104,-0.502,-0.306
'[11:35:23.938 05/05/1995]',0.169,-0.642,-0.664,102.104,-0.502,-0.306
'[11:35:23.940 05/05/1995]',0.134,-0.678,-0.731,102.104,-0.502,-0.306
'[11:35:23.942 05/05/1995]',0.098,-0.678,-0.731,102.104,-0.502,-0.306
'[11:35:23.944 05/05/1995]',0.073,-0.660,-0.664,102.479,-0.524,-0.303
'[11:35:23.946 05/05/1995]',0.047,-0.588,-0.597,102.479,-0.524,-0.303
'[11:35:23.948 05/05/1995]',0.031,-0.516,-0.497,102.479,-0.524,-0.303
'[11:35:23.950 05/05/1995]',0.014,-0.428,-0.465,102.479,-0.524,-0.303
'[11:35:23.952 05/05/1995]',0.004,-0.374,-0.398,102.705,-0.537,-0.299
'[11:35:23.954 05/05/1995]',-0.007,-0.320,-0.365,102.705,-0.537,-0.299
'[11:35:23.956 05/05/1995]',-0.016,-0.266,-0.298,102.705,-0.537,-0.299
'[11:35:23.958 05/05/1995]',-0.026,-0.231,-0.231,102.705,-0.537,-0.299
'[11:35:23.960 05/05/1995]',-0.036,-0.178,-0.198,102.780,-0.544,-0.296
'[11:35:23.962 05/05/1995]',-0.047,-0.124,-0.164,102.780,-0.544,-0.296
'[11:35:23.964 05/05/1995]',-0.057,-0.124,-0.131,102.780,-0.544,-0.296
'[11:35:23.966 05/05/1995]',-0.067,-0.088,-0.097,102.780,-0.544,-0.296
'[11:35:23.968 05/05/1995]',-0.074,-0.070,-0.097,102.630,-0.543,-0.293
'[11:35:23.970 05/05/1995]',-0.081,-0.070,-0.097,102.630,-0.543,-0.293
'[11:35:23.972 05/05/1995]',-0.085,-0.070,-0.064,102.630,-0.543,-0.293
'[11:35:23.974 05/05/1995]',-0.090,-0.070,-0.064,102.630,-0.543,-0.293
'[11:35:23.976 05/05/1995]',-0.090,-0.052,-0.064,102.179,-0.539,-0.290
'[11:35:23.978 05/05/1995]',-0.091,-0.052,-0.064,102.179,-0.539,-0.290
'[11:35:23.980 05/05/1995]',-0.093,-0.034,-0.064,102.179,-0.539,-0.290
'[11:35:23.982 05/05/1995]',-0.094,-0.016,-0.030,102.179,-0.539,-0.290
'[11:35:23.984 05/05/1995]',-0.093,-0.016,-0.030,101.653,-0.528,-0.288
'[11:35:23.986 05/05/1995]',-0.093,-0.016,-0.030,101.653,-0.528,-0.288
'[11:35:23.988 05/05/1995]',-0.091,-0.034,-0.030,101.653,-0.528,-0.288
'[11:35:23.990 05/05/1995]',-0.090,-0.016,-0.030,101.653,-0.528,-0.288
'[11:35:23.992 05/05/1995]',-0.090,-0.016,-0.030,100.977,-0.512,-0.285
'[11:35:23.994 05/05/1995]',-0.090,-0.016,-0.030,100.977,-0.512,-0.285
'[11:35:23.996 05/05/1995]',-0.093,0.002,-0.030,100.977,-0.512,-0.285
'[11:35:23.998 05/05/1995]',-0.095,0.002,-0.030,100.977,-0.512,-0.285
'[11:35:24.000 05/05/1995]',-0.098,0.002,-0.030,100.451,-0.495,-0.283
'[11:35:24.002 05/05/1995]',-0.100,0.002,-0.030,100.451,-0.495,-0.283
'[11:35:24.004 05/05/1995]',-0.100,0.002,-0.030,100.451,-0.495,-0.283
'[11:35:24.006 05/05/1995]',-0.100,0.002,-0.030,100.451,-0.495,-0.283
'[11:35:24.008 05/05/1995]',-0.099,0.002,-0.030,99.850,-0.475,-0.281
'[11:35:24.010 05/05/1995]',-0.098,0.002,0.003,99.850,-0.475,-0.281
'[11:35:24.012 05/05/1995]',-0.095,0.002,0.003,99.850,-0.475,-0.281
'[11:35:24.014 05/05/1995]',-0.091,0.019,0.003,99.850,-0.475,-0.281
'[11:35:24.016 05/05/1995]',-0.084,0.037,0.003,99.174,-0.458,-0.279
'[11:35:24.018 05/05/1995]',-0.077,0.037,0.003,99.174,-0.458,-0.279
'[11:35:24.020 05/05/1995]',-0.068,0.037,0.003,99.174,-0.458,-0.279
'[11:35:24.022 05/05/1995]',-0.058,0.019,0.003,99.174,-0.458,-0.279
'[11:35:24.024 05/05/1995]',-0.052,0.019,0.003,98.573,-0.440,-0.277
'[11:35:24.026 05/05/1995]',-0.046,0.037,0.003,98.573,-0.440,-0.277
'[11:35:24.028 05/05/1995]',-0.040,0.055,0.003,98.573,-0.440,-0.277
'[11:35:24.030 05/05/1995]',-0.034,0.055,0.003,98.573,-0.440,-0.277
'[11:35:24.032 05/05/1995]',-0.029,0.072,0.035,97.971,-0.424,-0.276
'[11:35:24.034 05/05/1995]',-0.024,0.072,0.035,97.971,-0.424,-0.276
'[11:35:24.036 05/05/1995]',-0.019,0.072,0.035,97.971,-0.424,-0.276
'[11:35:24.038 05/05/1995]',-0.014,0.072,0.035,97.971,-0.424,-0.276
'[11:35:24.040 05/05/1995]',-0.011,0.072,0.003,97.370,-0.410,-0.277
'[11:35:24.042 05/05/1995]',-0.009,0.072,0.035,97.370,-0.410,-0.277
'[11:35:24.044 05/05/1995]',-0.006,0.090,0.035,97.370,-0.410,-0.277
'[11:35:24.046 05/05/1995]',-0.004,0.090,0.035,97.370,-0.410,-0.277
'[11:35:24.048 05/05/1995]',-0.001,0.126,0.068,96.844,-0.398,-0.278
'[11:35:24.050 05/05/1995]',0.001,0.126,0.068,96.844,-0.398,-0.278
'[11:35:24.052 05/05/1995]',0.005,0.126,0.068,96.844,-0.398,-0.278
'[11:35:24.054 05/05/1995]',0.009,0.126,0.068,96.844,-0.398,-0.278
'[11:35:24.056 05/05/1995]',0.011,0.126,0.068,96.619,-0.389,-0.279
'[11:35:24.058 05/05/1995]',0.013,0.144,0.102,96.619,-0.389,-0.279
'[11:35:24.060 05/05/1995]',0.014,0.162,0.102,96.619,-0.389,-0.279
'[11:35:24.062 05/05/1995]',0.016,0.180,0.135,96.619,-0.389,-0.279
'[11:35:24.064 05/05/1995]',0.019,0.198,0.169,97.145,-0.383,-0.281
'[11:35:24.066 05/05/1995]',0.023,0.216,0.169,97.145,-0.383,-0.281
'[11:35:24.068 05/05/1995]',0.028,0.216,0.169,97.145,-0.383,-0.281
'[11:35:24.070 05/05/1995]',0.034,0.234,0.169,97.145,-0.383,-0.281
'[11:35:24.072 05/05/1995]',0.043,0.234,0.169,99.249,-0.381,-0.281
'[11:35:24.074 05/05/1995]',0.051,0.252,0.202,99.249,-0.381,-0.281
'[11:35:24.076 05/05/1995]',0.060,0.269,0.202,99.249,-0.381,-0.281
'[11:35:24.078 05/05/1995]',0.070,0.287,0.236,99.249,-0.381,-0.281
'[11:35:24.080 05/05/1995]',0.079,0.305,0.236,103.982,-0.380,-0.282
'[11:35:24.082 05/05/1995]',0.088,0.322,0.269,103.982,-0.380,-0.282
'[11:35:24.084 05/05/1995]',0.098,0.340,0.302,103.982,-0.380,-0.282
'[11:35:24.086 05/05/1995]',0.108,0.358,0.302,103.982,-0.380,-0.282
'[11:35:24.088 05/05/1995]',0.119,0.358,0.302,112.171,-0.344,-0.284
'[11:35:24.090 05/05/1995]',0.130,0.376,0.336,112.171,-0.344,-0.284
'[11:35:24.092 05/05/1995]',0.140,0.376,0.336,112.171,-0.344,-0.284
'[11:35:24.094 05/05/1995]',0.151,0.394,0.369,112.171,-0.344,-0.284
'[11:35:24.096 05/05/1995]',0.160,0.394,0.369,122.990,-0.348,-0.287
'[11:35:24.098 05/05/1995]',0.169,0.412,0.369,122.990,-0.348,-0.287
'[11:35:24.100 05/05/1995]',0.177,0.412,0.403,122.990,-0.348,-0.287
'[11:35:24.102 05/05/1995]',0.184,0.412,0.369,122.990,-0.348,-0.287
'[11:35:24.104 05/05/1995]',0.187,0.394,0.369,134.786,-0.348,-0.291
'[11:35:24.106 05/05/1995]',0.191,0.394,0.369,134.786,-0.348,-0.291
'[11:35:24.108 05/05/1995]',0.189,0.394,0.369,134.786,-0.348,-0.291
'[11:35:24.110 05/05/1995]',0.186,0.394,0.336,134.786,-0.348,-0.291
'[11:35:24.112 05/05/1995]',0.180,0.394,0.336,145.530,-0.347,-0.297
'[11:35:24.114 05/05/1995]',0.174,0.394,0.336,145.530,-0.347,-0.297
'[11:35:24.116 05/05/1995]',0.166,0.376,0.336,145.530,-0.347,-0.297
'[11:35:24.118 05/05/1995]',0.158,0.376,0.336,145.530,-0.347,-0.297
'[11:35:24.120 05/05/1995]',0.151,0.358,0.302,153.569,-0.341,-0.302
'[11:35:24.122 05/05/1995]',0.144,0.322,0.269,153.569,-0.341,-0.302
'[11:35:24.124 05/05/1995]',0.140,0.305,0.236,153.569,-0.341,-0.302
'[11:35:24.126 05/05/1995]',0.137,0.287,0.236,153.569,-0.341,-0.302
'[11:35:24.128 05/05/1995]',0.133,0.287,0.236,158.603,-0.325,-0.308
'[11:35:24.130 05/05/1995]',0.130,0.269,0.236,158.603,-0.325,-0.308
'[11:35:24.132 05/05/1995]',0.127,0.269,0.202,158.603,-0.325,-0.308
'[11:35:24.134 05/05/1995]',0.124,0.252,0.202,158.603,-0.325,-0.308
'[11:35:24.136 05/05/1995]',0.120,0.234,0.169,161.157,-0.298,-0.312
'[11:35:24.138 05/05/1995]',0.115,0.216,0.135,161.157,-0.298,-0.312
'[11:35:24.140 05/05/1995]',0.107,0.180,0.135,161.157,-0.298,-0.312
'[11:35:24.142 05/05/1995]',0.100,0.180,0.102,161.157,-0.298,-0.312
'[11:35:24.144 05/05/1995]',0.090,0.162,0.102,161.983,-0.257,-0.317
'[11:35:24.146 05/05/1995]',0.080,0.162,0.102,161.983,-0.257,-0.317
'[11:35:24.148 05/05/1995]',0.071,0.162,0.102,161.983,-0.257,-0.317
'[11:35:24.150 05/05/1995]',0.063,0.162,0.102,161.983,-0.257,-0.317
'[11:35:24.152 05/05/1995]',0.056,0.144,0.068,161.382,-0.203,-0.320
'[11:35:24.154 05/05/1995]',0.050,0.126,0.068,161.382,-0.203,-0.320
'[11:35:24.156 05/05/1995]',0.044,0.108,0.035,161.382,-0.203,-0.320
'[11:35:24.158 05/05/1995]',0.038,0.108,0.035,161.382,-0.203,-0.320
'[11:35:24.160 05/05/1995]',0.034,0.108,0.035,159.504,-0.136,-0.323
'[11:35:24.162 05/05/1995]',0.030,0.108,0.035,159.504,-0.136,-0.323
'[11:35:24.164 05/05/1995]',0.028,0.108,0.035,159.504,-0.136,-0.323
'[11:35:24.166 05/05/1995]',0.026,0.108,0.035,159.504,-0.136,-0.323
'[11:35:24.168 05/05/1995]',0.026,0.090,0.035,156.499,-0.060,-0.325
'[11:35:24.170 05/05/1995]',0.026,0.090,0.035,156.499,-0.060,-0.325
'[11:35:24.172 05/05/1995]',0.029,0.072,0.003,156.499,-0.060,-0.325
'[11:35:24.174 05/05/1995]',0.033,0.072,0.003,156.499,-0.060,-0.325
'[11:35:24.176 05/05/1995]',0.038,0.072,0.003,152.517,0.022,-0.326
'[11:35:24.178 05/05/1995]',0.043,0.072,0.035,152.517,0.022,-0.326
'[11:35:24.180 05/05/1995]',0.048,0.090,0.035,152.517,0.022,-0.326
'[11:35:24.182 05/05/1995]',0.053,0.090,0.035,152.517,0.022,-0.326
'[11:35:24.184 05/05/1995]',0.055,0.108,0.003,147.934,0.104,-0.326
'[11:35:24.186 05/05/1995]',0.057,0.090,0.003,147.934,0.104,-0.326
'[11:35:24.188 05/05/1995]',0.056,0.090,0.003,147.934,0.104,-0.326
'[11:35:24.190 05/05/1995]',0.054,0.090,0.003,147.934,0.104,-0.326
'[11:35:24.192 05/05/1995]',0.051,0.090,0.003,143.050,0.183,-0.324
'[11:35:24.194 05/05/1995]',0.047,0.090,0.003,143.050,0.183,-0.324
'[11:35:24.196 05/05/1995]',0.044,0.108,0.003,143.050,0.183,-0.324
'[11:35:24.198 05/05/1995]',0.041,0.108,0.003,143.050,0.183,-0.324
'[11:35:24.200 05/05/1995]',0.041,0.108,0.035,137.866,0.254,-0.321
'[11:35:24.202 05/05/1995]',0.041,0.108,0.003,137.866,0.254,-0.321
'[11:35:24.204 05/05/1995]',0.043,0.090,0.003,137.866,0.254,-0.321
'[11:35:24.206 05/05/1995]',0.046,0.072,0.003,137.866,0.254,-0.321
'[11:35:24.208 05/05/1995]',0.047,0.072,0.003,132.607,0.310,-0.316
'[11:35:24.210 05/05/1995]',0.048,0.072,0.003,132.607,0.310,-0.316
'[11:35:24.212 05/05/1995]',0.049,0.090,0.003,132.607,0.310,-0.316
'[11:35:24.214 05/05/1995]',0.050,0.090,0.035,132.607,0.310,-0.316
'[11:35:24.216 05/05/1995]',0.048,0.090,0.035,127.198,0.354,-0.311
'[11:35:24.218 05/05/1995]',0.046,0.090,0.035,127.198,0.354,-0.311
'[11:35:24.220 05/05/1995]',0.043,0.072,0.003,127.198,0.354,-0.311
'[11:35:24.222 05/05/1995]',0.040,0.072,0.003,127.198,0.354,-0.311
'[11:35:24.224 05/05/1995]',0.038,0.055,0.003,121.863,0.383,-0.306
'[11:35:24.226 05/05/1995]',0.036,0.055,0.003,121.863,0.383,-0.306
'[11:35:24.228 05/05/1995]',0.033,0.055,0.003,121.863,0.383,-0.306
'[11:35:24.230 05/05/1995]',0.031,0.055,0.003,121.863,0.383,-0.306
'[11:35:24.232 05/05/1995]',0.031,0.037,0.003,116.604,0.395,-0.301
'[11:35:24.234 05/05/1995]',0.031,0.037,0.003,116.604,0.395,-0.301
'[11:35:24.236 05/05/1995]',0.034,0.019,-0.030,116.604,0.395,-0.301
'[11:35:24.238 05/05/1995]',0.037,0.002,-0.030,116.604,0.395,-0.301
'[11:35:24.240 05/05/1995]',0.040,0.002,-0.030,111.495,0.395,-0.296
'[11:35:24.242 05/05/1995]',0.043,0.002,-0.030,111.495,0.395,-0.296
'[11:35:24.244 05/05/1995]',0.045,0.002,-0.030,111.495,0.395,-0.296
'[11:35:24.246 05/05/1995]',0.047,0.002,-0.030,111.495,0.395,-0.296
'[11:35:24.248 05/05/1995]',0.049,0.002,-0.030,106.912,0.380,-0.291
'[11:35:24.250 05/05/1995]',0.051,0.002,-0.030,106.912,0.380,-0.291
'[11:35:24.252 05/05/1995]',0.051,0.002,-0.030,106.912,0.380,-0.291
'[11:35:24.254 05/05/1995]',0.050,-0.016,-0.030,106.912,0.380,-0.291
'[11:35:24.256 05/05/1995]',0.046,-0.016,-0.030,103.005,0.353,-0.287
'[11:35:24.258 05/05/1995]',0.043,-0.034,-0.030,103.005,0.353,-0.287
'[11:35:24.260 05/05/1995]',0.036,-0.016,-0.030,103.005,0.353,-0.287
'[11:35:24.262 05/05/1995]',0.028,-0.016,-0.030,103.005,0.353,-0.287
'[11:35:24.264 05/05/1995]',0.019,0.002,-0.030,99.925,0.319,-0.284
'[11:35:24.266 05/05/1995]',0.010,0.002,-0.030,99.925,0.319,-0.284
'[11:35:24.268 05/05/1995]',0.001,0.002,-0.030,99.925,0.319,-0.284
'[11:35:24.270 05/05/1995]',-0.009,0.002,-0.064,99.925,0.319,-0.284
'[11:35:24.272 05/05/1995]',-0.017,-0.016,-0.064,97.746,0.274,-0.281
'[11:35:24.274 05/05/1995]',-0.026,-0.016,-0.064,97.746,0.274,-0.281
'[11:35:24.276 05/05/1995]',-0.033,-0.016,-0.064,97.746,0.274,-0.281
'[11:35:24.278 05/05/1995]',-0.040,-0.016,-0.064,97.746,0.274,-0.281
'[11:35:24.280 05/05/1995]',-0.044,-0.016,-0.064,96.394,0.223,-0.278
'[11:35:24.282 05/05/1995]',-0.048,-0.016,-0.030,96.394,0.223,-0.278
'[11:35:24.284 05/05/1995]',-0.052,-0.016,-0.064,96.394,0.223,-0.278
'[11:35:24.286 05/05/1995]',-0.056,-0.034,-0.064,96.394,0.223,-0.278
'[11:35:24.288 05/05/1995]',-0.059,-0.034,-0.064,95.642,0.166,-0.277
'[11:35:24.290 05/05/1995]',-0.063,-0.052,-0.064,95.642,0.166,-0.277
'[11:35:24.292 05/05/1995]',-0.066,-0.052,-0.064,95.642,0.166,-0.277
'[11:35:24.294 05/05/1995]',-0.070,-0.052,-0.064,95.642,0.166,-0.277
'[11:35:24.296 05/05/1995]',-0.072,-0.052,-0.064,95.492,0.103,-0.276
'[11:35:24.298 05/05/1995]',-0.074,-0.052,-0.064,95.492,0.103,-0.276
'[11:35:24.300 05/05/1995]',-0.078,-0.052,-0.064,95.492,0.103,-0.276
'[11:35:24.302 05/05/1995]',-0.081,-0.052,-0.064,95.492,0.103,-0.276
'[11:35:24.304 05/05/1995]',-0.085,-0.052,-0.064,95.718,0.041,-0.276
'[11:35:24.306 05/05/1995]',-0.090,-0.052,-0.064,95.718,0.041,-0.276
'[11:35:24.308 05/05/1995]',-0.093,-0.052,-0.064,95.718,0.041,-0.276
'[11:35:24.310 05/05/1995]',-0.095,-0.052,-0.064,95.718,0.041,-0.276
'[11:35:24.312 05/05/1995]',-0.098,-0.052,-0.064,96.168,-0.027,-0.276
'[11:35:24.314 05/05/1995]',-0.100,-0.034,-0.064,96.168,-0.027,-0.276
'[11:35:24.316 05/05/1995]',-0.100,-0.016,-0.030,96.168,-0.027,-0.276
'[11:35:24.318 05/05/1995]',-0.101,-0.016,-0.030,96.168,-0.027,-0.276
'[11:35:24.320 05/05/1995]',-0.104,0.002,-0.064,96.694,-0.092,-0.276
'[11:35:24.322 05/05/1995]',-0.107,0.002,-0.064,96.694,-0.092,-0.276
'[11:35:24.324 05/05/1995]',-0.113,0.002,-0.097,96.694,-0.092,-0.276
'[11:35:24.326 05/05/1995]',-0.120,0.002,-0.097,96.694,-0.092,-0.276
'[11:35:24.328 05/05/1995]',-0.129,0.002,-0.097,97.370,-0.159,-0.276
'[11:35:24.330 05/05/1995]',-0.138,0.002,-0.097,97.370,-0.159,-0.276
'[11:35:24.332 05/05/1995]',-0.143,-0.016,-0.097,97.370,-0.159,-0.276
'[11:35:24.334 05/05/1995]',-0.148,-0.016,-0.097,97.370,-0.159,-0.276
'[11:35:24.336 05/05/1995]',-0.140,-0.016,-0.064,98.047,-0.221,-0.276
'[11:35:24.338 05/05/1995]',-0.132,0.002,-0.030,98.047,-0.221,-0.276
'[11:35:24.340 05/05/1995]',-0.105,0.002,0.003,98.047,-0.221,-0.276
'[11:35:24.342 05/05/1995]',-0.078,0.037,0.035,98.047,-0.221,-0.276
'[11:35:24.344 05/05/1995]',-0.034,0.090,0.068,98.723,-0.279,-0.276
'[11:35:24.346 05/05/1995]',0.010,0.108,0.135,98.723,-0.279,-0.276
'[11:35:24.348 05/05/1995]',0.061,0.126,0.169,98.723,-0.279,-0.276
'[11:35:24.350 05/05/1995]',0.112,0.144,0.202,98.723,-0.279,-0.276
'[11:35:24.352 05/05/1995]',0.163,0.162,0.236,99.324,-0.331,-0.275
'[11:35:24.354 05/05/1995]',0.214,0.198,0.236,99.324,-0.331,-0.275
'[11:35:24.356 05/05/1995]',0.254,0.198,0.302,99.324,-0.331,-0.275
'[11:35:24.358 05/05/1995]',0.295,0.216,0.302,99.324,-0.331,-0.275
'[11:35:24.360 05/05/1995]',0.318,0.198,0.302,99.699,-0.378,-0.275
'[11:35:24.362 05/05/1995]',0.342,0.162,0.302,99.699,-0.378,-0.275
'[11:35:24.364 05/05/1995]',0.344,0.126,0.302,99.699,-0.378,-0.275
'[11:35:24.366 05/05/1995]',0.346,0.090,0.269,99.699,-0.378,-0.275
'[11:35:24.368 05/05/1995]',0.330,0.072,0.202,100.075,-0.415,-0.274
'[11:35:24.370 05/05/1995]',0.315,0.072,0.102,100.075,-0.415,-0.274
'[11:35:24.372 05/05/1995]',0.286,0.002,0.003,100.075,-0.415,-0.274
'[11:35:24.374 05/05/1995]',0.258,-0.178,-0.198,100.075,-0.415,-0.274
'[11:35:24.376 05/05/1995]',0.222,-0.392,-0.432,100.301,-0.446,-0.273
'[11:35:24.378 05/05/1995]',0.186,-0.588,-0.631,100.301,-0.446,-0.273
'[11:35:24.380 05/05/1995]',0.152,-0.660,-0.698,100.301,-0.446,-0.273
'[11:35:24.382 05/05/1995]',0.117,-0.660,-0.698,100.301,-0.446,-0.273
'[11:35:24.384 05/05/1995]',0.089,-0.642,-0.664,100.451,-0.469,-0.272
'[11:35:24.386 05/05/1995]',0.061,-0.606,-0.597,100.451,-0.469,-0.272
'[11:35:24.388 05/05/1995]',0.041,-0.534,-0.564,100.451,-0.469,-0.272
'[11:35:24.390 05/05/1995]',0.020,-0.481,-0.465,100.451,-0.469,-0.272
'[11:35:24.392 05/05/1995]',0.004,-0.392,-0.398,100.601,-0.482,-0.272
'[11:35:24.394 05/05/1995]',-0.011,-0.338,-0.331,100.601,-0.482,-0.272
'[11:35:24.396 05/05/1995]',-0.025,-0.266,-0.298,100.601,-0.482,-0.272
'[11:35:24.398 05/05/1995]',-0.038,-0.231,-0.231,100.601,-0.482,-0.272
'[11:35:24.400 05/05/1995]',-0.050,-0.178,-0.198,100.526,-0.490,-0.272
'[11:35:24.402 05/05/1995]',-0.061,-0.142,-0.164,100.526,-0.490,-0.272
'[11:35:24.404 05/05/1995]',-0.073,-0.124,-0.131,100.526,-0.490,-0.272
'[11:35:24.406 05/05/1995]',-0.084,-0.124,-0.131,100.526,-0.490,-0.272
'[11:35:24.408 05/05/1995]',-0.093,-0.106,-0.097,100.376,-0.491,-0.272
'[11:35:24.410 05/05/1995]',-0.101,-0.070,-0.097,100.376,-0.491,-0.272
'[11:35:24.412 05/05/1995]',-0.107,-0.052,-0.064,100.376,-0.491,-0.272
'[11:35:24.414 05/05/1995]',-0.114,-0.034,-0.064,100.376,-0.491,-0.272
'[11:35:24.416 05/05/1995]',-0.119,-0.034,-0.030,100.075,-0.485,-0.272
'[11:35:24.418 05/05/1995]',-0.124,-0.016,-0.030,100.075,-0.485,-0.272
'[11:35:24.420 05/05/1995]',-0.127,-0.034,-0.030,100.075,-0.485,-0.272
'[11:35:24.422 05/05/1995]',-0.130,-0.034,-0.030,100.075,-0.485,-0.272
'[11:35:24.424 05/05/1995]',-0.132,-0.034,-0.030,99.699,-0.473,-0.271
'[11:35:24.426 05/05/1995]',-0.134,-0.034,-0.030,99.699,-0.473,-0.271
'[11:35:24.428 05/05/1995]',-0.134,-0.034,-0.030,99.699,-0.473,-0.271
'[11:35:24.430 05/05/1995]',-0.134,-0.016,-0.030,99.699,-0.473,-0.271
'[11:35:24.432 05/05/1995]',-0.133,0.002,0.003,99.174,-0.459,-0.271
'[11:35:24.434 05/05/1995]',-0.132,0.002,0.003,99.174,-0.459,-0.271
'[11:35:24.436 05/05/1995]',-0.130,0.002,-0.030,99.174,-0.459,-0.271
'[11:35:24.438 05/05/1995]',-0.128,0.002,-0.030,99.174,-0.459,-0.271
'[11:35:24.440 05/05/1995]',-0.123,-0.016,-0.030,98.648,-0.442,-0.270
'[11:35:24.442 05/05/1995]',-0.118,0.002,-0.030,98.648,-0.442,-0.270
'[11:35:24.444 05/05/1995]',-0.112,0.002,0.003,98.648,-0.442,-0.270
'[11:35:24.446 05/05/1995]',-0.107,0.002,0.003,98.648,-0.442,-0.270
'[11:35:24.448 05/05/1995]',-0.102,0.002,0.003,98.047,-0.423,-0.269
'[11:35:24.450 05/05/1995]',-0.097,0.002,0.003,98.047,-0.423,-0.269
'[11:35:24.452 05/05/1995]',-0.092,0.002,0.003,98.047,-0.423,-0.269
'[11:35:24.454 05/05/1995]',-0.087,0.002,0.003,98.047,-0.423,-0.269
'[11:35:24.456 05/05/1995]',-0.081,0.002,0.003,97.521,-0.403,-0.269
'[11:35:24.458 05/05/1995]',-0.075,0.002,0.003,97.521,-0.403,-0.269
'[11:35:24.460 05/05/1995]',-0.071,0.019,0.003,97.521,-0.403,-0.269
'[11:35:24.462 05/05/1995]',-0.067,0.019,0.003,97.521,-0.403,-0.269
'[11:35:24.464 05/05/1995]',-0.063,0.037,0.003,96.844,-0.386,-0.270
'[11:35:24.466 05/05/1995]',-0.058,0.055,0.003,96.844,-0.386,-0.270
'[11:35:24.468 05/05/1995]',-0.053,0.055,0.035,96.844,-0.386,-0.270
'[11:35:24.470 05/05/1995]',-0.047,0.055,0.003,96.844,-0.386,-0.270
'[11:35:24.472 05/05/1995]',-0.040,0.055,0.003,96.243,-0.369,-0.270
'[11:35:24.474 05/05/1995]',-0.033,0.055,0.003,96.243,-0.369,-0.270
'[11:35:24.476 05/05/1995]',-0.026,0.055,0.003,96.243,-0.369,-0.270
'[11:35:24.478 05/05/1995]',-0.020,0.072,0.035,96.243,-0.369,-0.270
'[11:35:24.480 05/05/1995]',-0.017,0.072,0.035,95.642,-0.354,-0.271
'[11:35:24.482 05/05/1995]',-0.014,0.090,0.068,95.642,-0.354,-0.271
'[11:35:24.484 05/05/1995]',-0.012,0.090,0.035,95.642,-0.354,-0.271
'[11:35:24.486 05/05/1995]',-0.010,0.108,0.035,95.642,-0.354,-0.271
'[11:35:24.488 05/05/1995]',-0.007,0.090,0.035,95.116,-0.343,-0.272
'[11:35:24.490 05/05/1995]',-0.004,0.090,0.035,95.116,-0.343,-0.272
'[11:35:24.492 05/05/1995]',-0.001,0.108,0.068,95.116,-0.343,-0.272
'[11:35:24.494 05/05/1995]',0.001,0.126,0.068,95.116,-0.343,-0.272
'[11:35:24.496 05/05/1995]',0.006,0.126,0.102,94.891,-0.336,-0.273
'[11:35:24.498 05/05/1995]',0.010,0.144,0.102,94.891,-0.336,-0.273
'[11:35:24.500 05/05/1995]',0.014,0.162,0.102,94.891,-0.336,-0.273
'[11:35:24.502 05/05/1995]',0.019,0.162,0.102,94.891,-0.336,-0.273
'[11:35:24.504 05/05/1995]',0.023,0.180,0.135,95.267,-0.330,-0.274
'[11:35:24.506 05/05/1995]',0.028,0.180,0.135,95.267,-0.330,-0.274
'[11:35:24.508 05/05/1995]',0.033,0.180,0.135,95.267,-0.330,-0.274
'[11:35:24.510 05/05/1995]',0.037,0.216,0.169,95.267,-0.330,-0.274
'[11:35:24.512 05/05/1995]',0.040,0.234,0.202,96.995,-0.329,-0.276
'[11:35:24.514 05/05/1995]',0.043,0.269,0.202,96.995,-0.329,-0.276
'[11:35:24.516 05/05/1995]',0.046,0.269,0.236,96.995,-0.329,-0.276
'[11:35:24.518 05/05/1995]',0.050,0.287,0.236,96.995,-0.329,-0.276
'[11:35:24.520 05/05/1995]',0.057,0.287,0.236,101.127,-0.329,-0.279
'[11:35:24.522 05/05/1995]',0.064,0.305,0.269,101.127,-0.329,-0.279
'[11:35:24.524 05/05/1995]',0.074,0.305,0.269,101.127,-0.329,-0.279
'[11:35:24.526 05/05/1995]',0.084,0.322,0.302,101.127,-0.329,-0.279
'[11:35:24.528 05/05/1995]',0.096,0.340,0.302,108.415,-0.333,-0.282
'[11:35:24.530 05/05/1995]',0.108,0.358,0.336,108.415,-0.333,-0.282
'[11:35:24.532 05/05/1995]',0.122,0.376,0.369,108.415,-0.333,-0.282
'[11:35:24.534 05/05/1995]',0.135,0.394,0.369,108.415,-0.333,-0.282
'[11:35:24.536 05/05/1995]',0.148,0.394,0.369,118.708,-0.337,-0.285
'[11:35:24.538 05/05/1995]',0.161,0.394,0.369,118.708,-0.337,-0.285
'[11:35:24.540 05/05/1995]',0.170,0.394,0.369,118.708,-0.337,-0.285
'[11:35:24.542 05/05/1995]',0.179,0.394,0.369,118.708,-0.337,-0.285
'[11:35:24.544 05/05/1995]',0.184,0.394,0.369,130.353,-0.340,-0.289
'[11:35:24.546 05/05/1995]',0.189,0.394,0.369,130.353,-0.340,-0.289
'[11:35:24.548 05/05/1995]',0.189,0.394,0.369,130.353,-0.340,-0.289
'[11:35:24.550 05/05/1995]',0.189,0.394,0.369,130.353,-0.340,-0.289
'[11:35:24.552 05/05/1995]',0.185,0.394,0.336,141.397,-0.341,-0.294
'[11:35:24.554 05/05/1995]',0.181,0.376,0.336,141.397,-0.341,-0.294
'[11:35:24.556 05/05/1995]',0.174,0.358,0.302,141.397,-0.341,-0.294
'[11:35:24.558 05/05/1995]',0.168,0.340,0.302,141.397,-0.341,-0.294
'[11:35:24.560 05/05/1995]',0.160,0.340,0.302,150.113,-0.338,-0.298
'[11:35:24.562 05/05/1995]',0.152,0.322,0.302,150.113,-0.338,-0.298
'[11:35:24.564 05/05/1995]',0.145,0.322,0.269,150.113,-0.338,-0.298
'[11:35:24.566 05/05/1995]',0.138,0.305,0.269,150.113,-0.338,-0.298
'[11:35:24.568 05/05/1995]',0.132,0.287,0.236,155.748,-0.323,-0.302
'[11:35:24.570 05/05/1995]',0.125,0.269,0.236,155.748,-0.323,-0.302
'[11:35:24.572 05/05/1995]',0.118,0.252,0.202,155.748,-0.323,-0.302
'[11:35:24.574 05/05/1995]',0.111,0.216,0.202,155.748,-0.323,-0.302
'[11:35:24.576 05/05/1995]',0.102,0.216,0.169,158.603,-0.300,-0.306
'[11:35:24.578 05/05/1995]',0.094,0.198,0.169,158.603,-0.300,-0.306
'[11:35:24.580 05/05/1995]',0.084,0.198,0.169,158.603,-0.300,-0.306
'[11:35:24.582 05/05/1995]',0.074,0.180,0.135,158.603,-0.300,-0.306
'[11:35:24.584 05/05/1995]',0.063,0.180,0.135,159.354,-0.264,-0.309
'[11:35:24.586 05/05/1995]',0.051,0.162,0.102,159.354,-0.264,-0.309
'[11:35:24.588 05/05/1995]',0.043,0.126,0.102,159.354,-0.264,-0.309
'[11:35:24.590 05/05/1995]',0.034,0.126,0.068,159.354,-0.264,-0.309
'[11:35:24.592 05/05/1995]',0.029,0.126,0.068,158.678,-0.212,-0.311
'[11:35:24.594 05/05/1995]',0.024,0.108,0.068,158.678,-0.212,-0.311
'[11:35:24.596 05/05/1995]',0.022,0.108,0.068,158.678,-0.212,-0.311
'[11:35:24.598 05/05/1995]',0.020,0.108,0.068,158.678,-0.212,-0.311
'[11:35:24.600 05/05/1995]',0.021,0.108,0.035,157.100,-0.121,-0.313
'[11:35:24.602 05/05/1995]',0.021,0.090,0.035,157.100,-0.121,-0.313
'[11:35:24.604 05/05/1995]',0.023,0.090,0.003,157.100,-0.121,-0.313
'[11:35:24.606 05/05/1995]',0.026,0.072,0.003,157.100,-0.121,-0.313
'[11:35:24.608 05/05/1995]',0.028,0.055,0.003,154.621,-0.043,-0.314
'[11:35:24.610 05/05/1995]',0.031,0.055,0.003,154.621,-0.043,-0.314
'[11:35:24.612 05/05/1995]',0.031,0.072,0.003,154.621,-0.043,-0.314
'[11:35:24.614 05/05/1995]',0.031,0.072,0.003,154.621,-0.043,-0.314
'[11:35:24.616 05/05/1995]',0.031,0.072,0.035,151.240,0.044,-0.314
'[11:35:24.618 05/05/1995]',0.031,0.072,0.003,151.240,0.044,-0.314
'[11:35:24.620 05/05/1995]',0.031,0.055,0.003,151.240,0.044,-0.314
'[11:35:24.622 05/05/1995]',0.030,0.055,0.003,151.240,0.044,-0.314
'[11:35:24.624 05/05/1995]',0.028,0.055,0.003,147.107,0.132,-0.313
'[11:35:24.626 05/05/1995]',0.027,0.055,0.003,147.107,0.132,-0.313
'[11:35:24.628 05/05/1995]',0.025,0.055,0.003,147.107,0.132,-0.313
'[11:35:24.630 05/05/1995]',0.023,0.072,0.003,147.107,0.132,-0.313
'[11:35:24.632 05/05/1995]',0.022,0.072,0.003,142.374,0.217,-0.311
'[11:35:24.634 05/05/1995]',0.021,0.072,0.003,142.374,0.217,-0.311
'[11:35:24.636 05/05/1995]',0.021,0.072,0.003,142.374,0.217,-0.311
'[11:35:24.638 05/05/1995]',0.021,0.055,0.003,142.374,0.217,-0.311
'[11:35:24.640 05/05/1995]',0.023,0.055,0.003,137.340,0.296,-0.307
'[11:35:24.642 05/05/1995]',0.026,0.055,0.003,137.340,0.296,-0.307
'[11:35:24.644 05/05/1995]',0.029,0.072,0.003,137.340,0.296,-0.307
'[11:35:24.646 05/05/1995]',0.033,0.072,0.003,137.340,0.296,-0.307
'[11:35:24.648 05/05/1995]',0.035,0.072,0.003,132.156,0.361,-0.302
'[11:35:24.650 05/05/1995]',0.037,0.072,0.003,132.156,0.361,-0.302
'[11:35:24.652 05/05/1995]',0.039,0.072,0.003,132.156,0.361,-0.302
'[11:35:24.654 05/05/1995]',0.041,0.072,0.003,132.156,0.361,-0.302
'[11:35:24.656 05/05/1995]',0.041,0.055,0.003,126.822,0.413,-0.296
'[11:35:24.658 05/05/1995]',0.041,0.037,0.003,126.822,0.413,-0.296
'[11:35:24.660 05/05/1995]',0.041,0.037,0.003,126.822,0.413,-0.296
'[11:35:24.662 05/05/1995]',0.041,0.055,0.003,126.822,0.413,-0.296
'[11:35:24.664 05/05/1995]',0.041,0.037,0.003,121.563,0.448,-0.289
'[11:35:24.666 05/05/1995]',0.041,0.037,0.003,121.563,0.448,-0.289
'[11:35:24.668 05/05/1995]',0.041,0.037,0.003,121.563,0.448,-0.289
'[11:35:24.670 05/05/1995]',0.041,0.037,0.003,121.563,0.448,-0.289
'[11:35:24.672 05/05/1995]',0.041,0.019,0.003,116.304,0.465,-0.282
'[11:35:24.674 05/05/1995]',0.041,0.002,-0.030,116.304,0.465,-0.282
'[11:35:24.676 05/05/1995]',0.041,0.002,-0.030,116.304,0.465,-0.282
'[11:35:24.678 05/05/1995]',0.041,0.002,-0.030,116.304,0.465,-0.282
'[11:35:24.680 05/05/1995]',0.041,0.002,-0.030,111.270,0.467,-0.275
'[11:35:24.682 05/05/1995]',0.040,0.002,-0.030,111.270,0.467,-0.275
'[11:35:24.684 05/05/1995]',0.037,0.002,-0.030,111.270,0.467,-0.275
'[11:35:24.686 05/05/1995]',0.034,-0.016,-0.030,111.270,0.467,-0.275
'[11:35:24.688 05/05/1995]',0.030,-0.034,-0.064,106.612,0.454,-0.268
'[11:35:24.690 05/05/1995]',0.026,-0.034,-0.030,106.612,0.454,-0.268
'[11:35:24.692 05/05/1995]',0.022,-0.034,-0.030,106.612,0.454,-0.268
'[11:35:24.694 05/05/1995]',0.019,-0.034,-0.030,106.612,0.454,-0.268
'[11:35:24.696 05/05/1995]',0.016,-0.034,-0.030,102.630,0.429,-0.261
'[11:35:24.698 05/05/1995]',0.013,-0.034,0.003,102.630,0.429,-0.261
'[11:35:24.700 05/05/1995]',0.009,-0.016,0.003,102.630,0.429,-0.261
'[11:35:24.702 05/05/1995]',0.004,-0.034,-0.030,102.630,0.429,-0.261
'[11:35:24.704 05/05/1995]',0.000,-0.052,-0.030,99.399,0.393,-0.255
'[11:35:24.706 05/05/1995]',-0.004,-0.052,-0.030,99.399,0.393,-0.255
'[11:35:24.708 05/05/1995]',-0.009,-0.052,-0.030,99.399,0.393,-0.255
'[11:35:24.710 05/05/1995]',-0.013,-0.034,-0.030,99.399,0.393,-0.255
'[11:35:24.712 05/05/1995]',-0.019,-0.034,-0.030,96.995,0.346,-0.249
'[11:35:24.714 05/05/1995]',-0.026,-0.034,-0.030,96.995,0.346,-0.249
'[11:35:24.716 05/05/1995]',-0.033,-0.034,-0.064,96.995,0.346,-0.249
'[11:35:24.718 05/05/1995]',-0.041,-0.034,-0.064,96.995,0.346,-0.249
'[11:35:24.720 05/05/1995]',-0.051,-0.052,-0.064,95.492,0.295,-0.244
'[11:35:24.722 05/05/1995]',-0.060,-0.070,-0.097,95.492,0.295,-0.244
'[11:35:24.724 05/05/1995]',-0.068,-0.070,-0.097,95.492,0.295,-0.244
'[11:35:24.726 05/05/1995]',-0.075,-0.088,-0.097,95.492,0.295,-0.244
'[11:35:24.728 05/05/1995]',-0.080,-0.070,-0.064,94.741,0.235,-0.239
'[11:35:24.730 05/05/1995]',-0.085,-0.070,-0.064,94.741,0.235,-0.239
'[11:35:24.732 05/05/1995]',-0.088,-0.070,-0.064,94.741,0.235,-0.239
'[11:35:24.734 05/05/1995]',-0.090,-0.070,-0.064,94.741,0.235,-0.239
'[11:35:24.736 05/05/1995]',-0.090,-0.070,-0.064,94.591,0.170,-0.237
'[11:35:24.738 05/05/1995]',-0.090,-0.088,-0.097,94.591,0.170,-0.237
'[11:35:24.740 05/05/1995]',-0.090,-0.106,-0.097,94.591,0.170,-0.237
'[11:35:24.742 05/05/1995]',-0.090,-0.088,-0.097,94.591,0.170,-0.237
'[11:35:24.744 05/05/1995]',-0.089,-0.088,-0.064,94.816,0.103,-0.236
'[11:35:24.746 05/05/1995]',-0.088,-0.088,-0.064,94.816,0.103,-0.236
'[11:35:24.748 05/05/1995]',-0.087,-0.070,-0.064,94.816,0.103,-0.236
'[11:35:24.750 05/05/1995]',-0.085,-0.070,-0.064,94.816,0.103,-0.236
'[11:35:24.752 05/05/1995]',-0.085,-0.070,-0.064,95.417,0.033,-0.237
'[11:35:24.754 05/05/1995]',-0.085,-0.088,-0.097,95.417,0.033,-0.237
'[11:35:24.756 05/05/1995]',-0.088,-0.088,-0.097,95.417,0.033,-0.237
'[11:35:24.758 05/05/1995]',-0.091,-0.070,-0.064,95.417,0.033,-0.237
'[11:35:24.760 05/05/1995]',-0.098,-0.052,-0.064,96.168,-0.038,-0.238
'[11:35:24.762 05/05/1995]',-0.105,-0.016,-0.064,96.168,-0.038,-0.238
'[11:35:24.764 05/05/1995]',-0.117,0.002,-0.064,96.168,-0.038,-0.238
'[11:35:24.766 05/05/1995]',-0.130,0.002,-0.064,96.168,-0.038,-0.238
'[11:35:24.768 05/05/1995]',-0.142,0.002,-0.064,96.694,-0.107,-0.239
'[11:35:24.770 05/05/1995]',-0.154,-0.016,-0.097,96.694,-0.107,-0.239
'[11:35:24.772 05/05/1995]',-0.159,-0.052,-0.097,96.694,-0.107,-0.239
'[11:35:24.774 05/05/1995]',-0.165,-0.052,-0.097,96.694,-0.107,-0.239
'[11:35:24.776 05/05/1995]',-0.157,-0.052,-0.064,97.295,-0.174,-0.240
'[11:35:24.778 05/05/1995]',-0.149,-0.034,-0.030,97.295,-0.174,-0.240
'[11:35:24.780 05/05/1995]',-0.125,0.002,0.003,97.295,-0.174,-0.240
'[11:35:24.782 05/05/1995]',-0.101,0.019,0.035,97.295,-0.174,-0.240
'[11:35:24.784 05/05/1995]',-0.061,0.072,0.068,97.821,-0.236,-0.240
'[11:35:24.786 05/05/1995]',-0.021,0.072,0.102,97.821,-0.236,-0.240
'[11:35:24.788 05/05/1995]',0.028,0.108,0.169,97.821,-0.236,-0.240
'[11:35:24.790 05/05/1995]',0.078,0.108,0.202,97.821,-0.236,-0.240
'[11:35:24.792 05/05/1995]',0.130,0.108,0.202,98.347,-0.293,-0.241
'[11:35:24.794 05/05/1995]',0.181,0.144,0.236,98.347,-0.293,-0.241
'[11:35:24.796 05/05/1995]',0.225,0.162,0.269,98.347,-0.293,-0.241
'[11:35:24.798 05/05/1995]',0.269,0.180,0.302,98.347,-0.293,-0.241
'[11:35:24.800 05/05/1995]',0.297,0.180,0.302,98.873,-0.344,-0.242
'[11:35:24.802 05/05/1995]',0.325,0.144,0.302,98.873,-0.344,-0.242
'[11:35:24.804 05/05/1995]',0.330,0.090,0.269,98.873,-0.344,-0.242
'[11:35:24.806 05/05/1995]',0.336,0.037,0.236,98.873,-0.344,-0.242
'[11:35:24.808 05/05/1995]',0.322,0.002,0.202,99.399,-0.385,-0.242
'[11:35:24.810 05/05/1995]',0.309,0.019,0.135,99.399,-0.385,-0.242
'[11:35:24.812 05/05/1995]',0.281,0.002,0.035,99.399,-0.385,-0.242
'[11:35:24.814 05/05/1995]',0.253,-0.124,-0.097,99.399,-0.385,-0.242
'[11:35:24.816 05/05/1995]',0.219,-0.320,-0.331,99.775,-0.420,-0.243
'[11:35:24.818 05/05/1995]',0.184,-0.534,-0.564,99.775,-0.420,-0.243
'[11:35:24.820 05/05/1995]',0.149,-0.660,-0.698,99.775,-0.420,-0.243
'[11:35:24.822 05/05/1995]',0.115,-0.695,-0.731,99.775,-0.420,-0.243
'[11:35:24.824 05/05/1995]',0.085,-0.695,-0.698,100.000,-0.445,-0.243
'[11:35:24.826 05/05/1995]',0.056,-0.660,-0.664,100.000,-0.445,-0.243
'[11:35:24.828 05/05/1995]',0.033,-0.588,-0.564,100.000,-0.445,-0.243
'[11:35:24.830 05/05/1995]',0.011,-0.516,-0.497,100.000,-0.445,-0.243
'[11:35:24.832 05/05/1995]',-0.004,-0.445,-0.432,100.075,-0.461,-0.243
'[11:35:24.834 05/05/1995]',-0.020,-0.392,-0.365,100.075,-0.461,-0.243
'[11:35:24.836 05/05/1995]',-0.033,-0.320,-0.331,100.075,-0.461,-0.243
'[11:35:24.838 05/05/1995]',-0.047,-0.284,-0.264,100.075,-0.461,-0.243
'[11:35:24.840 05/05/1995]',-0.060,-0.249,-0.231,100.075,-0.470,-0.243
'[11:35:24.842 05/05/1995]',-0.073,-0.213,-0.198,100.075,-0.470,-0.243
'[11:35:24.844 05/05/1995]',-0.083,-0.160,-0.164,100.075,-0.470,-0.243
'[11:35:24.846 05/05/1995]',-0.094,-0.124,-0.131,100.075,-0.470,-0.243
'[11:35:24.848 05/05/1995]',-0.102,-0.106,-0.097,99.925,-0.469,-0.242
'[11:35:24.850 05/05/1995]',-0.111,-0.106,-0.097,99.925,-0.469,-0.242
'[11:35:24.852 05/05/1995]',-0.115,-0.088,-0.064,99.925,-0.469,-0.242
'[11:35:24.854 05/05/1995]',-0.118,-0.088,-0.064,99.925,-0.469,-0.242
'[11:35:24.856 05/05/1995]',-0.119,-0.088,-0.064,99.624,-0.462,-0.241
'[11:35:24.858 05/05/1995]',-0.120,-0.088,-0.064,99.624,-0.462,-0.241
'[11:35:24.860 05/05/1995]',-0.120,-0.070,-0.064,99.624,-0.462,-0.241
'[11:35:24.862 05/05/1995]',-0.120,-0.052,-0.030,99.624,-0.462,-0.241
'[11:35:24.864 05/05/1995]',-0.116,-0.052,-0.030,99.174,-0.452,-0.241
'[11:35:24.866 05/05/1995]',-0.112,-0.034,-0.030,99.174,-0.452,-0.241
'[11:35:24.868 05/05/1995]',-0.109,-0.034,-0.030,99.174,-0.452,-0.241
'[11:35:24.870 05/05/1995]',-0.105,-0.052,-0.030,99.174,-0.452,-0.241
'[11:35:24.872 05/05/1995]',-0.105,-0.052,-0.030,98.723,-0.434,-0.240
'[11:35:24.874 05/05/1995]',-0.104,-0.052,-0.030,98.723,-0.434,-0.240
'[11:35:24.876 05/05/1995]',-0.105,-0.052,-0.030,98.723,-0.434,-0.240
'[11:35:24.878 05/05/1995]',-0.105,-0.034,-0.030,98.723,-0.434,-0.240
'[11:35:24.880 05/05/1995]',-0.107,-0.016,-0.030,98.197,-0.414,-0.240
'[11:35:24.882 05/05/1995]',-0.110,-0.016,-0.030,98.197,-0.414,-0.240
'[11:35:24.884 05/05/1995]',-0.112,-0.016,-0.030,98.197,-0.414,-0.240
'[11:35:24.886 05/05/1995]',-0.115,-0.016,-0.030,98.197,-0.414,-0.240
'[11:35:24.888 05/05/1995]',-0.115,-0.016,-0.030,97.596,-0.393,-0.239
'[11:35:24.890 05/05/1995]',-0.114,-0.016,-0.030,97.596,-0.393,-0.239
'[11:35:24.892 05/05/1995]',-0.111,-0.016,0.003,97.596,-0.393,-0.239
'[11:35:24.894 05/05/1995]',-0.108,0.002,0.003,97.596,-0.393,-0.239
'[11:35:24.896 05/05/1995]',-0.102,0.002,0.003,96.995,-0.373,-0.239
'[11:35:24.898 05/05/1995]',-0.097,0.002,0.003,96.995,-0.373,-0.239
'[11:35:24.900 05/05/1995]',-0.093,0.002,0.003,96.995,-0.373,-0.239
'[11:35:24.902 05/05/1995]',-0.088,0.002,0.003,96.995,-0.373,-0.239
'[11:35:24.904 05/05/1995]',-0.084,0.002,0.003,96.469,-0.351,-0.240
'[11:35:24.906 05/05/1995]',-0.080,0.002,0.003,96.469,-0.351,-0.240
'[11:35:24.908 05/05/1995]',-0.076,0.002,0.003,96.469,-0.351,-0.240
'[11:35:24.910 05/05/1995]',-0.073,0.002,0.003,96.469,-0.351,-0.240
'[11:35:24.912 05/05/1995]',-0.068,0.019,0.003,95.868,-0.333,-0.241
'[11:35:24.914 05/05/1995]',-0.063,0.019,0.003,95.868,-0.333,-0.241
'[11:35:24.916 05/05/1995]',-0.057,0.037,0.035,95.868,-0.333,-0.241
'[11:35:24.918 05/05/1995]',-0.051,0.055,0.035,95.868,-0.333,-0.241
'[11:35:24.920 05/05/1995]',-0.046,0.037,0.035,95.267,-0.317,-0.242
'[11:35:24.922 05/05/1995]',-0.040,0.037,0.035,95.267,-0.317,-0.242
'[11:35:24.924 05/05/1995]',-0.034,0.037,0.035,95.267,-0.317,-0.242
'[11:35:24.926 05/05/1995]',-0.028,0.055,0.035,95.267,-0.317,-0.242
'[11:35:24.928 05/05/1995]',-0.023,0.072,0.035,94.816,-0.303,-0.244
'[11:35:24.930 05/05/1995]',-0.019,0.072,0.068,94.816,-0.303,-0.244
'[11:35:24.932 05/05/1995]',-0.014,0.090,0.068,94.816,-0.303,-0.244
'[11:35:24.934 05/05/1995]',-0.009,0.108,0.068,94.816,-0.303,-0.244
'[11:35:24.936 05/05/1995]',-0.004,0.108,0.068,94.591,-0.293,-0.247
'[11:35:24.938 05/05/1995]',0.001,0.108,0.068,94.591,-0.293,-0.247
'[11:35:24.940 05/05/1995]',0.007,0.108,0.068,94.591,-0.293,-0.247
'[11:35:24.942 05/05/1995]',0.013,0.126,0.102,94.591,-0.293,-0.247
'[11:35:24.944 05/05/1995]',0.018,0.126,0.102,95.041,-0.288,-0.250
'[11:35:24.946 05/05/1995]',0.023,0.126,0.135,95.041,-0.288,-0.250
'[11:35:24.948 05/05/1995]',0.028,0.162,0.169,95.041,-0.288,-0.250
'[11:35:24.950 05/05/1995]',0.033,0.180,0.169,95.041,-0.288,-0.250
'[11:35:24.952 05/05/1995]',0.039,0.198,0.169,96.619,-0.284,-0.254
'[11:35:24.954 05/05/1995]',0.046,0.198,0.169,96.619,-0.284,-0.254
'[11:35:24.956 05/05/1995]',0.053,0.216,0.202,96.619,-0.284,-0.254
'[11:35:24.958 05/05/1995]',0.061,0.216,0.202,96.619,-0.284,-0.254
'[11:35:24.960 05/05/1995]',0.071,0.252,0.236,100.376,-0.283,-0.258
'[11:35:24.962 05/05/1995]',0.081,0.269,0.236,100.376,-0.283,-0.258
'[11:35:24.964 05/05/1995]',0.090,0.287,0.269,100.376,-0.283,-0.258
'[11:35:24.966 05/05/1995]',0.098,0.305,0.302,100.376,-0.283,-0.258
'[11:35:24.968 05/05/1995]',0.105,0.322,0.302,107.137,-0.285,-0.263
'[11:35:24.970 05/05/1995]',0.111,0.340,0.302,107.137,-0.285,-0.263
'[11:35:24.972 05/05/1995]',0.117,0.340,0.302,107.137,-0.285,-0.263
'[11:35:24.974 05/05/1995]',0.122,0.340,0.336,107.137,-0.285,-0.263
'[11:35:24.976 05/05/1995]',0.127,0.340,0.336,116.829,-0.289,-0.267
'[11:35:24.978 05/05/1995]',0.132,0.358,0.369,116.829,-0.289,-0.267
'[11:35:24.980 05/05/1995]',0.137,0.376,0.369,116.829,-0.289,-0.267
'[11:35:24.982 05/05/1995]',0.142,0.376,0.369,116.829,-0.289,-0.267
'[11:35:24.984 05/05/1995]',0.148,0.376,0.369,128.174,-0.293,-0.272
'[11:35:24.986 05/05/1995]',0.154,0.376,0.369,128.174,-0.293,-0.272
'[11:35:24.988 05/05/1995]',0.159,0.358,0.369,128.174,-0.293,-0.272
'[11:35:24.990 05/05/1995]',0.165,0.340,0.336,128.174,-0.293,-0.272
'[11:35:24.992 05/05/1995]',0.166,0.340,0.336,139.144,-0.293,-0.276
'[11:35:24.994 05/05/1995]',0.167,0.322,0.336,139.144,-0.293,-0.276
'[11:35:24.996 05/05/1995]',0.162,0.322,0.302,139.144,-0.293,-0.276
'[11:35:24.998 05/05/1995]',0.158,0.322,0.302,139.144,-0.293,-0.276
'[11:35:25.000 05/05/1995]',0.149,0.305,0.302,148.084,-0.291,-0.280
'[11:35:25.002 05/05/1995]',0.141,0.287,0.269,148.084,-0.291,-0.280
'[11:35:25.004 05/05/1995]',0.132,0.269,0.236,148.084,-0.291,-0.280
'[11:35:25.006 05/05/1995]',0.122,0.252,0.202,148.084,-0.291,-0.280
'[11:35:25.008 05/05/1995]',0.114,0.234,0.202,154.020,-0.279,-0.284
'[11:35:25.010 05/05/1995]',0.105,0.216,0.202,154.020,-0.279,-0.284
'[11:35:25.012 05/05/1995]',0.099,0.216,0.202,154.020,-0.279,-0.284
'[11:35:25.014 05/05/1995]',0.093,0.198,0.202,154.020,-0.279,-0.284
'[11:35:25.016 05/05/1995]',0.089,0.198,0.169,157.250,-0.257,-0.287
'[11:35:25.018 05/05/1995]',0.085,0.180,0.169,157.250,-0.257,-0.287
'[11:35:25.020 05/05/1995]',0.083,0.162,0.135,157.250,-0.257,-0.287
'[11:35:25.022 05/05/1995]',0.080,0.144,0.135,157.250,-0.257,-0.287
'[11:35:25.024 05/05/1995]',0.075,0.126,0.102,158.377,-0.220,-0.291
'[11:35:25.026 05/05/1995]',0.071,0.126,0.102,158.377,-0.220,-0.291
'[11:35:25.028 05/05/1995]',0.065,0.108,0.102,158.377,-0.220,-0.291
'[11:35:25.030 05/05/1995]',0.058,0.108,0.102,158.377,-0.220,-0.291
'[11:35:25.032 05/05/1995]',0.051,0.108,0.068,158.077,-0.172,-0.294
'[11:35:25.034 05/05/1995]',0.044,0.108,0.068,158.077,-0.172,-0.294
'[11:35:25.036 05/05/1995]',0.039,0.090,0.035,158.077,-0.172,-0.294
'[11:35:25.038 05/05/1995]',0.034,0.072,0.035,158.077,-0.172,-0.294
'[11:35:25.040 05/05/1995]',0.032,0.055,0.035,156.574,-0.107,-0.296
'[11:35:25.042 05/05/1995]',0.030,0.037,0.035,156.574,-0.107,-0.296
'[11:35:25.044 05/05/1995]',0.030,0.037,0.003,156.574,-0.107,-0.296
'[11:35:25.046 05/05/1995]',0.030,0.037,0.003,156.574,-0.107,-0.296
'[11:35:25.048 05/05/1995]',0.028,0.037,0.003,154.095,-0.032,-0.298
'[11:35:25.050 05/05/1995]',0.027,0.037,0.003,154.095,-0.032,-0.298
'[11:35:25.052 05/05/1995]',0.025,0.037,0.003,154.095,-0.032,-0.298
'[11:35:25.054 05/05/1995]',0.023,0.019,0.003,154.095,-0.032,-0.298
'[11:35:25.056 05/05/1995]',0.021,0.002,0.003,150.639,0.052,-0.299
'[11:35:25.058 05/05/1995]',0.019,0.002,0.003,150.639,0.052,-0.299
'[11:35:25.060 05/05/1995]',0.015,0.002,0.003,150.639,0.052,-0.299
'[11:35:25.062 05/05/1995]',0.011,0.019,0.003,150.639,0.052,-0.299
'[11:35:25.064 05/05/1995]',0.009,0.019,0.003,146.431,0.141,-0.299
'[11:35:25.066 05/05/1995]',0.007,0.037,0.003,146.431,0.141,-0.299
'[11:35:25.068 05/05/1995]',0.007,0.037,0.003,146.431,0.141,-0.299
'[11:35:25.070 05/05/1995]',0.007,0.037,0.003,146.431,0.141,-0.299
'[11:35:25.072 05/05/1995]',0.009,0.037,0.003,141.773,0.229,-0.298
'[11:35:25.074 05/05/1995]',0.010,0.019,0.003,141.773,0.229,-0.298
'[11:35:25.076 05/05/1995]',0.014,0.019,0.003,141.773,0.229,-0.298
'[11:35:25.078 05/05/1995]',0.017,0.019,0.003,141.773,0.229,-0.298
'[11:35:25.080 05/05/1995]',0.022,0.037,0.003,136.739,0.306,-0.296
'[11:35:25.082 05/05/1995]',0.027,0.037,0.003,136.739,0.306,-0.296
'[11:35:25.084 05/05/1995]',0.032,0.037,0.003,136.739,0.306,-0.296
'[11:35:25.086 05/05/1995]',0.037,0.019,0.003,136.739,0.306,-0.296
'[11:35:25.088 05/05/1995]',0.039,0.002,0.003,131.630,0.376,-0.293
'[11:35:25.090 05/05/1995]',0.041,0.002,0.003,131.630,0.376,-0.293
'[11:35:25.092 05/05/1995]',0.041,0.002,0.003,131.630,0.376,-0.293
'[11:35:25.094 05/05/1995]',0.041,0.002,0.003,131.630,0.376,-0.293
'[11:35:25.096 05/05/1995]',0.041,0.019,0.003,126.371,0.429,-0.290
'[11:35:25.098 05/05/1995]',0.040,0.037,0.003,126.371,0.429,-0.290
'[11:35:25.100 05/05/1995]',0.038,0.019,0.003,126.371,0.429,-0.290
'[11:35:25.102 05/05/1995]',0.037,0.019,0.003,126.371,0.429,-0.290
'[11:35:25.104 05/05/1995]',0.037,0.019,0.003,121.187,0.467,-0.287
'[11:35:25.106 05/05/1995]',0.037,0.002,0.003,121.187,0.467,-0.287
'[11:35:25.108 05/05/1995]',0.038,0.002,0.003,121.187,0.467,-0.287
'[11:35:25.110 05/05/1995]',0.040,0.002,0.003,121.187,0.467,-0.287
'[11:35:25.112 05/05/1995]',0.041,0.002,0.003,116.078,0.557,-0.284
'[11:35:25.114 05/05/1995]',0.041,0.002,0.003,116.078,0.557,-0.284
'[11:35:25.116 05/05/1995]',0.041,0.002,-0.030,116.078,0.557,-0.284
'[11:35:25.118 05/05/1995]',0.040,0.002,-0.030,116.078,0.557,-0.284
'[11:35:25.120 05/05/1995]',0.038,-0.016,-0.030,111.195,0.562,-0.281
'[11:35:25.122 05/05/1995]',0.036,-0.034,-0.064,111.195,0.562,-0.281
'[11:35:25.124 05/05/1995]',0.032,-0.052,-0.064,111.195,0.562,-0.281
'[11:35:25.126 05/05/1995]',0.028,-0.052,-0.064,111.195,0.562,-0.281
'[11:35:25.128 05/05/1995]',0.024,-0.052,-0.030,106.612,0.551,-0.277
'[11:35:25.130 05/05/1995]',0.020,-0.052,-0.030,106.612,0.551,-0.277
'[11:35:25.132 05/05/1995]',0.017,-0.052,-0.030,106.612,0.551,-0.277
'[11:35:25.134 05/05/1995]',0.014,-0.052,-0.030,106.612,0.551,-0.277
'[11:35:25.136 05/05/1995]',0.011,-0.070,-0.030,102.705,0.525,-0.273
'[11:35:25.138 05/05/1995]',0.009,-0.070,-0.064,102.705,0.525,-0.273
'[11:35:25.140 05/05/1995]',0.005,-0.088,-0.064,102.705,0.525,-0.273
'[11:35:25.142 05/05/1995]',0.001,-0.088,-0.064,102.705,0.525,-0.273
'[11:35:25.144 05/05/1995]',-0.002,-0.088,-0.030,99.549,0.488,-0.270
'[11:35:25.146 05/05/1995]',-0.006,-0.070,-0.030,99.549,0.488,-0.270
'[11:35:25.148 05/05/1995]',-0.011,-0.070,-0.030,99.549,0.488,-0.270
'[11:35:25.150 05/05/1995]',-0.016,-0.070,-0.064,99.549,0.488,-0.270
'[11:35:25.152 05/05/1995]',-0.021,-0.070,-0.064,97.295,0.441,-0.266
'[11:35:25.154 05/05/1995]',-0.027,-0.070,-0.064,97.295,0.441,-0.266
'[11:35:25.156 05/05/1995]',-0.035,-0.088,-0.064,97.295,0.441,-0.266
'[11:35:25.158 05/05/1995]',-0.043,-0.088,-0.064,97.295,0.441,-0.266
'[11:35:25.160 05/05/1995]',-0.051,-0.088,-0.064,95.943,0.386,-0.263
'[11:35:25.162 05/05/1995]',-0.060,-0.088,-0.064,95.943,0.386,-0.263
'[11:35:25.164 05/05/1995]',-0.068,-0.088,-0.064,95.943,0.386,-0.263
'[11:35:25.166 05/05/1995]',-0.075,-0.088,-0.064,95.943,0.386,-0.263
'[11:35:25.168 05/05/1995]',-0.081,-0.088,-0.064,95.342,0.323,-0.259
'[11:35:25.170 05/05/1995]',-0.087,-0.106,-0.097,95.342,0.323,-0.259
'[11:35:25.172 05/05/1995]',-0.091,-0.106,-0.097,95.342,0.323,-0.259
'[11:35:25.174 05/05/1995]',-0.095,-0.124,-0.097,95.342,0.323,-0.259
'[11:35:25.176 05/05/1995]',-0.099,-0.124,-0.097,95.116,0.254,-0.256
'[11:35:25.178 05/05/1995]',-0.102,-0.124,-0.097,95.116,0.254,-0.256
'[11:35:25.180 05/05/1995]',-0.107,-0.106,-0.097,95.116,0.254,-0.256
'[11:35:25.182 05/05/1995]',-0.111,-0.106,-0.097,95.116,0.254,-0.256
'[11:35:25.184 05/05/1995]',-0.113,-0.106,-0.097,95.342,0.181,-0.254
'[11:35:25.186 05/05/1995]',-0.115,-0.106,-0.097,95.342,0.181,-0.254
'[11:35:25.188 05/05/1995]',-0.114,-0.124,-0.097,95.342,0.181,-0.254
'[11:35:25.190 05/05/1995]',-0.112,-0.124,-0.097,95.342,0.181,-0.254
'[11:35:25.192 05/05/1995]',-0.107,-0.124,-0.097,95.567,0.106,-0.252
'[11:35:25.194 05/05/1995]',-0.102,-0.124,-0.097,95.567,0.106,-0.252
'[11:35:25.196 05/05/1995]',-0.099,-0.124,-0.097,95.567,0.106,-0.252
'[11:35:25.198 05/05/1995]',-0.095,-0.106,-0.097,95.567,0.106,-0.252
'[11:35:25.200 05/05/1995]',-0.095,-0.088,-0.097,95.943,0.034,-0.251
'[11:35:25.202 05/05/1995]',-0.094,-0.070,-0.097,95.943,0.034,-0.251
'[11:35:25.204 05/05/1995]',-0.100,-0.070,-0.097,95.943,0.034,-0.251
'[11:35:25.206 05/05/1995]',-0.105,-0.070,-0.097,95.943,0.034,-0.251
'[11:35:25.208 05/05/1995]',-0.116,-0.052,-0.131,96.394,-0.041,-0.251
'[11:35:25.210 05/05/1995]',-0.127,-0.052,-0.097,96.394,-0.041,-0.251
'[11:35:25.212 05/05/1995]',-0.134,-0.070,-0.097,96.394,-0.041,-0.251
'[11:35:25.214 05/05/1995]',-0.141,-0.070,-0.097,96.394,-0.041,-0.251
'[11:35:25.216 05/05/1995]',-0.137,-0.070,-0.097,96.995,-0.112,-0.250
'[11:35:25.218 05/05/1995]',-0.132,-0.070,-0.064,96.995,-0.112,-0.250
'[11:35:25.220 05/05/1995]',-0.114,-0.052,-0.030,96.995,-0.112,-0.250
'[11:35:25.222 05/05/1995]',-0.095,-0.016,0.003,96.995,-0.112,-0.250
'[11:35:25.224 05/05/1995]',-0.061,0.002,0.035,97.596,-0.180,-0.249
'[11:35:25.226 05/05/1995]',-0.027,0.019,0.068,97.596,-0.180,-0.249
'[11:35:25.228 05/05/1995]',0.019,0.037,0.102,97.596,-0.180,-0.249
'[11:35:25.230 05/05/1995]',0.065,0.072,0.169,97.596,-0.180,-0.249
'[11:35:25.232 05/05/1995]',0.115,0.090,0.202,98.272,-0.240,-0.249
'[11:35:25.234 05/05/1995]',0.164,0.108,0.236,98.272,-0.240,-0.249
'[11:35:25.236 05/05/1995]',0.208,0.126,0.236,98.272,-0.240,-0.249
'[11:35:25.238 05/05/1995]',0.252,0.144,0.269,98.272,-0.240,-0.249
'[11:35:25.240 05/05/1995]',0.283,0.144,0.302,98.873,-0.292,-0.248
'[11:35:25.242 05/05/1995]',0.315,0.126,0.302,98.873,-0.292,-0.248
'[11:35:25.244 05/05/1995]',0.327,0.108,0.269,98.873,-0.292,-0.248
'[11:35:25.246 05/05/1995]',0.339,0.037,0.269,98.873,-0.292,-0.248
'[11:35:25.248 05/05/1995]',0.329,0.019,0.236,99.399,-0.339,-0.247
'[11:35:25.250 05/05/1995]',0.319,0.002,0.169,99.399,-0.339,-0.247
'[11:35:25.252 05/05/1995]',0.291,0.002,0.068,99.399,-0.339,-0.247
'[11:35:25.254 05/05/1995]',0.263,-0.070,-0.030,99.399,-0.339,-0.247
'[11:35:25.256 05/05/1995]',0.228,-0.266,-0.264,99.850,-0.375,-0.246
'[11:35:25.258 05/05/1995]',0.194,-0.481,-0.497,99.850,-0.375,-0.246
'[11:35:25.260 05/05/1995]',0.156,-0.660,-0.664,99.850,-0.375,-0.246
'[11:35:25.262 05/05/1995]',0.118,-0.713,-0.731,99.850,-0.375,-0.246
'[11:35:25.264 05/05/1995]',0.085,-0.713,-0.698,100.075,-0.402,-0.245
'[11:35:25.266 05/05/1995]',0.053,-0.678,-0.664,100.075,-0.402,-0.245
'[11:35:25.268 05/05/1995]',0.028,-0.660,-0.597,100.075,-0.402,-0.245
'[11:35:25.270 05/05/1995]',0.004,-0.588,-0.564,100.075,-0.402,-0.245
'[11:35:25.272 05/05/1995]',-0.011,-0.534,-0.497,100.225,-0.418,-0.243
'[11:35:25.274 05/05/1995]',-0.027,-0.463,-0.432,100.225,-0.418,-0.243
'[11:35:25.276 05/05/1995]',-0.038,-0.392,-0.365,100.225,-0.418,-0.243
'[11:35:25.278 05/05/1995]',-0.050,-0.338,-0.298,100.225,-0.418,-0.243
'[11:35:25.280 05/05/1995]',-0.061,-0.284,-0.231,100.150,-0.428,-0.241
'[11:35:25.282 05/05/1995]',-0.073,-0.249,-0.198,100.150,-0.428,-0.241
'[11:35:25.284 05/05/1995]',-0.083,-0.195,-0.164,100.150,-0.428,-0.241
'[11:35:25.286 05/05/1995]',-0.094,-0.160,-0.131,100.150,-0.428,-0.241
'[11:35:25.288 05/05/1995]',-0.103,-0.142,-0.131,99.925,-0.430,-0.238
'[11:35:25.290 05/05/1995]',-0.112,-0.142,-0.097,99.925,-0.430,-0.238
'[11:35:25.292 05/05/1995]',-0.117,-0.124,-0.097,99.925,-0.430,-0.238
'[11:35:25.294 05/05/1995]',-0.122,-0.124,-0.097,99.925,-0.430,-0.238
'[11:35:25.296 05/05/1995]',-0.125,-0.124,-0.064,99.699,-0.422,-0.234
'[11:35:25.298 05/05/1995]',-0.127,-0.106,-0.064,99.699,-0.422,-0.234
'[11:35:25.300 05/05/1995]',-0.126,-0.088,-0.064,99.699,-0.422,-0.234
'[11:35:25.302 05/05/1995]',-0.125,-0.088,-0.064,99.699,-0.422,-0.234
'[11:35:25.304 05/05/1995]',-0.122,-0.088,-0.064,99.249,-0.411,-0.231
'[11:35:25.306 05/05/1995]',-0.118,-0.088,-0.064,99.249,-0.411,-0.231
'[11:35:25.308 05/05/1995]',-0.113,-0.088,-0.064,99.249,-0.411,-0.231
'[11:35:25.310 05/05/1995]',-0.108,-0.088,-0.064,99.249,-0.411,-0.231
'[11:35:25.312 05/05/1995]',-0.105,-0.088,-0.030,98.798,-0.394,-0.229
'[11:35:25.314 05/05/1995]',-0.101,-0.070,-0.030,98.798,-0.394,-0.229
'[11:35:25.316 05/05/1995]',-0.098,-0.070,-0.030,98.798,-0.394,-0.229
'[11:35:25.318 05/05/1995]',-0.094,-0.052,-0.030,98.798,-0.394,-0.229
'[11:35:25.320 05/05/1995]',-0.092,-0.070,-0.030,98.272,-0.374,-0.228
'[11:35:25.322 05/05/1995]',-0.090,-0.070,-0.030,98.272,-0.374,-0.228
'[11:35:25.324 05/05/1995]',-0.088,-0.070,-0.030,98.272,-0.374,-0.228
'[11:35:25.326 05/05/1995]',-0.087,-0.070,-0.030,98.272,-0.374,-0.228
'[11:35:25.328 05/05/1995]',-0.086,-0.052,-0.030,97.746,-0.354,-0.227
'[11:35:25.330 05/05/1995]',-0.085,-0.034,-0.030,97.746,-0.354,-0.227
'[11:35:25.332 05/05/1995]',-0.084,-0.016,0.003,97.746,-0.354,-0.227
'[11:35:25.334 05/05/1995]',-0.083,-0.034,0.003,97.746,-0.354,-0.227
'[11:35:25.336 05/05/1995]',-0.080,-0.034,-0.030,97.145,-0.331,-0.227
'[11:35:25.338 05/05/1995]',-0.077,-0.034,-0.030,97.145,-0.331,-0.227
'[11:35:25.340 05/05/1995]',-0.075,-0.034,-0.030,97.145,-0.331,-0.227
'[11:35:25.342 05/05/1995]',-0.074,-0.034,-0.030,97.145,-0.331,-0.227
'[11:35:25.344 05/05/1995]',-0.073,-0.016,0.003,96.544,-0.310,-0.229
'[11:35:25.346 05/05/1995]',-0.071,0.002,0.003,96.544,-0.310,-0.229
'[11:35:25.348 05/05/1995]',-0.070,0.002,0.003,96.544,-0.310,-0.229
'[11:35:25.350 05/05/1995]',-0.068,0.002,0.003,96.544,-0.310,-0.229
'[11:35:25.352 05/05/1995]',-0.068,0.002,0.003,96.018,-0.291,-0.231
'[11:35:25.354 05/05/1995]',-0.068,0.002,0.003,96.018,-0.291,-0.231
'[11:35:25.356 05/05/1995]',-0.067,0.002,0.003,96.018,-0.291,-0.231
'[11:35:25.358 05/05/1995]',-0.065,0.002,0.003,96.018,-0.291,-0.231
'[11:35:25.360 05/05/1995]',-0.060,0.002,0.003,95.642,-0.274,-0.233
'[11:35:25.362 05/05/1995]',-0.056,0.002,0.003,95.642,-0.274,-0.233
'[11:35:25.364 05/05/1995]',-0.050,0.019,0.035,95.642,-0.274,-0.233
'[11:35:25.366 05/05/1995]',-0.044,0.019,0.035,95.642,-0.274,-0.233
'[11:35:25.368 05/05/1995]',-0.036,0.037,0.035,95.192,-0.260,-0.236
'[11:35:25.370 05/05/1995]',-0.028,0.037,0.035,95.192,-0.260,-0.236
'[11:35:25.372 05/05/1995]',-0.021,0.037,0.035,95.192,-0.260,-0.236
'[11:35:25.374 05/05/1995]',-0.013,0.037,0.035,95.192,-0.260,-0.236
'[11:35:25.376 05/05/1995]',-0.006,0.055,0.068,94.816,-0.251,-0.240
'[11:35:25.378 05/05/1995]',0.001,0.055,0.068,94.816,-0.251,-0.240
'[11:35:25.380 05/05/1995]',0.007,0.072,0.068,94.816,-0.251,-0.240
'[11:35:25.382 05/05/1995]',0.013,0.090,0.102,94.816,-0.251,-0.240
'[11:35:25.384 05/05/1995]',0.018,0.108,0.102,94.891,-0.243,-0.243
'[11:35:25.386 05/05/1995]',0.023,0.108,0.102,94.891,-0.243,-0.243
'[11:35:25.388 05/05/1995]',0.028,0.126,0.102,94.891,-0.243,-0.243
'[11:35:25.390 05/05/1995]',0.033,0.126,0.135,94.891,-0.243,-0.243
'[11:35:25.392 05/05/1995]',0.040,0.126,0.135,96.018,-0.241,-0.247
'[11:35:25.394 05/05/1995]',0.047,0.144,0.169,96.018,-0.241,-0.247
'[11:35:25.396 05/05/1995]',0.055,0.180,0.169,96.018,-0.241,-0.247
'[11:35:25.398 05/05/1995]',0.063,0.198,0.202,96.018,-0.241,-0.247
'[11:35:25.400 05/05/1995]',0.070,0.216,0.236,99.399,-0.241,-0.251
'[11:35:25.402 05/05/1995]',0.077,0.234,0.236,99.399,-0.241,-0.251
'[11:35:25.404 05/05/1995]',0.085,0.252,0.236,99.399,-0.241,-0.251
'[11:35:25.406 05/05/1995]',0.093,0.252,0.236,99.399,-0.241,-0.251
'[11:35:25.408 05/05/1995]',0.102,0.269,0.269,106.086,-0.245,-0.254
'[11:35:25.410 05/05/1995]',0.112,0.287,0.302,106.086,-0.245,-0.254
'[11:35:25.412 05/05/1995]',0.122,0.305,0.336,106.086,-0.245,-0.254
'[11:35:25.414 05/05/1995]',0.132,0.322,0.336,106.086,-0.245,-0.254
'[11:35:25.416 05/05/1995]',0.142,0.340,0.336,115.778,-0.250,-0.257
'[11:35:25.418 05/05/1995]',0.151,0.340,0.336,115.778,-0.250,-0.257
'[11:35:25.420 05/05/1995]',0.159,0.340,0.336,115.778,-0.250,-0.257
'[11:35:25.422 05/05/1995]',0.167,0.322,0.336,115.778,-0.250,-0.257
'[11:35:25.424 05/05/1995]',0.170,0.322,0.336,127.198,-0.256,-0.259
'[11:35:25.426 05/05/1995]',0.174,0.322,0.336,127.198,-0.256,-0.259
'[11:35:25.428 05/05/1995]',0.175,0.322,0.336,127.198,-0.256,-0.259
'[11:35:25.430 05/05/1995]',0.177,0.322,0.336,127.198,-0.256,-0.259
'[11:35:25.432 05/05/1995]',0.175,0.322,0.336,138.317,-0.257,-0.262
'[11:35:25.434 05/05/1995]',0.174,0.322,0.336,138.317,-0.257,-0.262
'[11:35:25.436 05/05/1995]',0.169,0.305,0.302,138.317,-0.257,-0.262
'[11:35:25.438 05/05/1995]',0.165,0.287,0.302,138.317,-0.257,-0.262
'[11:35:25.440 05/05/1995]',0.159,0.269,0.269,147.408,-0.256,-0.264
'[11:35:25.442 05/05/1995]',0.152,0.252,0.236,147.408,-0.256,-0.264
'[11:35:25.444 05/05/1995]',0.145,0.252,0.236,147.408,-0.256,-0.264
'[11:35:25.446 05/05/1995]',0.138,0.234,0.236,147.408,-0.256,-0.264
'[11:35:25.448 05/05/1995]',0.131,0.234,0.236,153.644,-0.243,-0.267
'[11:35:25.450 05/05/1995]',0.124,0.216,0.202,153.644,-0.243,-0.267
'[11:35:25.452 05/05/1995]',0.115,0.180,0.202,153.644,-0.243,-0.267
'[11:35:25.454 05/05/1995]',0.107,0.162,0.169,153.644,-0.243,-0.267
'[11:35:25.456 05/05/1995]',0.098,0.144,0.169,157.175,-0.223,-0.270
'[11:35:25.458 05/05/1995]',0.090,0.126,0.135,157.175,-0.223,-0.270
'[11:35:25.460 05/05/1995]',0.083,0.126,0.135,157.175,-0.223,-0.270
'[11:35:25.462 05/05/1995]',0.075,0.126,0.135,157.175,-0.223,-0.270
'[11:35:25.464 05/05/1995]',0.070,0.126,0.102,158.527,-0.184,-0.273
'[11:35:25.466 05/05/1995]',0.064,0.108,0.102,158.527,-0.184,-0.273
'[11:35:25.468 05/05/1995]',0.060,0.108,0.068,158.527,-0.184,-0.273
'[11:35:25.470 05/05/1995]',0.056,0.072,0.068,158.527,-0.184,-0.273
'[11:35:25.472 05/05/1995]',0.053,0.055,0.068,158.452,-0.131,-0.275
'[11:35:25.474 05/05/1995]',0.050,0.055,0.035,158.452,-0.131,-0.275
'[11:35:25.476 05/05/1995]',0.048,0.037,0.035,158.452,-0.131,-0.275
'[11:35:25.478 05/05/1995]',0.046,0.037,0.035,158.452,-0.131,-0.275
'[11:35:25.480 05/05/1995]',0.043,0.037,0.035,157.250,-0.064,-0.277
'[11:35:25.482 05/05/1995]',0.040,0.019,0.035,157.250,-0.064,-0.277
'[11:35:25.484 05/05/1995]',0.038,0.019,0.035,157.250,-0.064,-0.277
'[11:35:25.486 05/05/1995]',0.037,0.019,0.003,157.250,-0.064,-0.277
'[11:35:25.488 05/05/1995]',0.036,0.002,0.003,154.921,0.018,-0.279
'[11:35:25.490 05/05/1995]',0.036,0.002,0.003,154.921,0.018,-0.279
'[11:35:25.492 05/05/1995]',0.036,0.002,0.003,154.921,0.018,-0.279
'[11:35:25.494 05/05/1995]',0.036,0.002,0.003,154.921,0.018,-0.279
'[11:35:25.496 05/05/1995]',0.036,0.002,0.003,151.540,0.108,-0.280
'[11:35:25.498 05/05/1995]',0.037,0.002,0.003,151.540,0.108,-0.280
'[11:35:25.500 05/05/1995]',0.038,0.002,0.003,151.540,0.108,-0.280
'[11:35:25.502 05/05/1995]',0.038,0.002,0.003,151.540,0.108,-0.280
'[11:35:25.504 05/05/1995]',0.037,0.002,0.003,147.408,0.203,-0.280
'[11:35:25.506 05/05/1995]',0.036,0.002,-0.030,147.408,0.203,-0.280
'[11:35:25.508 05/05/1995]',0.033,0.002,-0.030,147.408,0.203,-0.280
'[11:35:25.510 05/05/1995]',0.030,0.002,-0.030,147.408,0.203,-0.280
'[11:35:25.512 05/05/1995]',0.027,0.002,0.003,142.675,0.297,-0.279
'[11:35:25.514 05/05/1995]',0.024,0.002,0.003,142.675,0.297,-0.279
'[11:35:25.516 05/05/1995]',0.023,0.002,0.003,142.675,0.297,-0.279
'[11:35:25.518 05/05/1995]',0.021,0.002,-0.030,142.675,0.297,-0.279
'[11:35:25.520 05/05/1995]',0.023,0.002,-0.030,137.791,0.384,-0.277
'[11:35:25.522 05/05/1995]',0.026,0.002,-0.030,137.791,0.384,-0.277
'[11:35:25.524 05/05/1995]',0.030,0.002,-0.030,137.791,0.384,-0.277
'[11:35:25.526 05/05/1995]',0.034,0.002,-0.030,137.791,0.384,-0.277
'[11:35:25.528 05/05/1995]',0.038,0.002,0.003,132.682,0.459,-0.275
'[11:35:25.530 05/05/1995]',0.043,0.002,0.003,132.682,0.459,-0.275
'[11:35:25.532 05/05/1995]',0.048,0.002,0.003,132.682,0.459,-0.275
'[11:35:25.534 05/05/1995]',0.053,0.002,0.003,132.682,0.459,-0.275
'[11:35:25.536 05/05/1995]',0.056,0.002,0.003,127.573,0.515,-0.272
'[11:35:25.538 05/05/1995]',0.058,0.002,0.003,127.573,0.515,-0.272
'[11:35:25.540 05/05/1995]',0.059,0.002,0.003,127.573,0.515,-0.272
'[11:35:25.542 05/05/1995]',0.060,0.002,0.003,127.573,0.515,-0.272
'[11:35:25.544 05/05/1995]',0.058,0.002,0.003,122.464,0.559,-0.270
'[11:35:25.546 05/05/1995]',0.056,-0.016,0.003,122.464,0.559,-0.270
'[11:35:25.548 05/05/1995]',0.050,0.002,0.003,122.464,0.559,-0.270
'[11:35:25.550 05/05/1995]',0.044,0.002,0.003,122.464,0.559,-0.270
'[11:35:25.552 05/05/1995]',0.040,-0.016,-0.030,117.506,0.583,-0.268
'[11:35:25.554 05/05/1995]',0.036,-0.034,-0.030,117.506,0.583,-0.268
'[11:35:25.556 05/05/1995]',0.033,-0.034,-0.030,117.506,0.583,-0.268
'[11:35:25.558 05/05/1995]',0.031,-0.052,-0.030,117.506,0.583,-0.268
'[11:35:25.560 05/05/1995]',0.031,-0.052,-0.064,112.697,0.588,-0.266
'[11:35:25.562 05/05/1995]',0.030,-0.070,-0.064,112.697,0.588,-0.266
'[11:35:25.564 05/05/1995]',0.031,-0.070,-0.064,112.697,0.588,-0.266
'[11:35:25.566 05/05/1995]',0.031,-0.070,-0.064,112.697,0.588,-0.266
'[11:35:25.568 05/05/1995]',0.031,-0.070,-0.064,108.039,0.578,-0.263
'[11:35:25.570 05/05/1995]',0.030,-0.088,-0.064,108.039,0.578,-0.263
'[11:35:25.572 05/05/1995]',0.028,-0.106,-0.064,108.039,0.578,-0.263
'[11:35:25.574 05/05/1995]',0.026,-0.124,-0.064,108.039,0.578,-0.263
'[11:35:25.576 05/05/1995]',0.022,-0.106,-0.064,103.907,0.554,-0.261
'[11:35:25.578 05/05/1995]',0.019,-0.106,-0.064,103.907,0.554,-0.261
'[11:35:25.580 05/05/1995]',0.016,-0.106,-0.064,103.907,0.554,-0.261
'[11:35:25.582 05/05/1995]',0.014,-0.088,-0.030,103.907,0.554,-0.261
'[11:35:25.584 05/05/1995]',0.010,-0.088,-0.064,100.451,0.519,-0.259
'[11:35:25.586 05/05/1995]',0.006,-0.106,-0.064,100.451,0.519,-0.259
'[11:35:25.588 05/05/1995]',-0.001,-0.106,-0.064,100.451,0.519,-0.259
'[11:35:25.590 05/05/1995]',-0.007,-0.124,-0.064,100.451,0.519,-0.259
'[11:35:25.592 05/05/1995]',-0.014,-0.106,-0.064,97.971,0.472,-0.257
'[11:35:25.594 05/05/1995]',-0.020,-0.124,-0.064,97.971,0.472,-0.257
'[11:35:25.596 05/05/1995]',-0.026,-0.106,-0.064,97.971,0.472,-0.257
'[11:35:25.598 05/05/1995]',-0.033,-0.106,-0.064,97.971,0.472,-0.257
'[11:35:25.600 05/05/1995]',-0.040,-0.106,-0.097,96.319,0.417,-0.256
'[11:35:25.602 05/05/1995]',-0.047,-0.106,-0.097,96.319,0.417,-0.256
'[11:35:25.604 05/05/1995]',-0.055,-0.124,-0.097,96.319,0.417,-0.256
'[11:35:25.606 05/05/1995]',-0.063,-0.124,-0.097,96.319,0.417,-0.256
'[11:35:25.608 05/05/1995]',-0.071,-0.124,-0.097,95.417,0.354,-0.255
'[11:35:25.610 05/05/1995]',-0.080,-0.124,-0.097,95.417,0.354,-0.255
'[11:35:25.612 05/05/1995]',-0.086,-0.124,-0.097,95.417,0.354,-0.255
'[11:35:25.614 05/05/1995]',-0.093,-0.124,-0.097,95.417,0.354,-0.255
'[11:35:25.616 05/05/1995]',-0.095,-0.124,-0.097,95.116,0.285,-0.256
'[11:35:25.618 05/05/1995]',-0.098,-0.124,-0.097,95.116,0.285,-0.256
'[11:35:25.620 05/05/1995]',-0.098,-0.124,-0.097,95.116,0.285,-0.256
'[11:35:25.622 05/05/1995]',-0.098,-0.142,-0.131,95.116,0.285,-0.256
'[11:35:25.624 05/05/1995]',-0.096,-0.142,-0.097,95.192,0.190,-0.256
'[11:35:25.626 05/05/1995]',-0.094,-0.142,-0.097,95.192,0.190,-0.256
'[11:35:25.628 05/05/1995]',-0.091,-0.142,-0.097,95.192,0.190,-0.256
'[11:35:25.630 05/05/1995]',-0.088,-0.124,-0.097,95.192,0.190,-0.256
'[11:35:25.632 05/05/1995]',-0.085,-0.124,-0.097,95.567,0.112,-0.257
'[11:35:25.634 05/05/1995]',-0.083,-0.124,-0.097,95.567,0.112,-0.257
'[11:35:25.636 05/05/1995]',-0.080,-0.142,-0.097,95.567,0.112,-0.257
'[11:35:25.638 05/05/1995]',-0.078,-0.142,-0.131,95.567,0.112,-0.257
'[11:35:25.640 05/05/1995]',-0.080,-0.142,-0.131,96.018,0.034,-0.257
'[11:35:25.642 05/05/1995]',-0.083,-0.124,-0.097,96.018,0.034,-0.257
'[11:35:25.644 05/05/1995]',-0.092,-0.106,-0.097,96.018,0.034,-0.257
'[11:35:25.646 05/05/1995]',-0.101,-0.088,-0.097,96.018,0.034,-0.257
'[11:35:25.648 05/05/1995]',-0.116,-0.070,-0.097,96.619,-0.043,-0.258
'[11:35:25.650 05/05/1995]',-0.131,-0.070,-0.131,96.619,-0.043,-0.258
'[11:35:25.652 05/05/1995]',-0.144,-0.088,-0.131,96.619,-0.043,-0.258
'[11:35:25.654 05/05/1995]',-0.158,-0.124,-0.131,96.619,-0.043,-0.258
'[11:35:25.656 05/05/1995]',-0.161,-0.124,-0.131,97.220,-0.118,-0.258
'[11:35:25.658 05/05/1995]',-0.164,-0.124,-0.131,97.220,-0.118,-0.258
'[11:35:25.660 05/05/1995]',-0.149,-0.124,-0.097,97.220,-0.118,-0.258
'[11:35:25.662 05/05/1995]',-0.135,-0.088,-0.030,97.220,-0.118,-0.258
'[11:35:25.664 05/05/1995]',-0.102,-0.034,0.003,97.896,-0.189,-0.258
'[11:35:25.666 05/05/1995]',-0.068,0.002,0.035,97.896,-0.189,-0.258
'[11:35:25.668 05/05/1995]',-0.019,0.002,0.068,97.896,-0.189,-0.258
'[11:35:25.670 05/05/1995]',0.031,0.019,0.102,97.896,-0.189,-0.258
'[11:35:25.672 05/05/1995]',0.090,0.037,0.135,98.573,-0.254,-0.259
'[11:35:25.674 05/05/1995]',0.149,0.037,0.169,98.573,-0.254,-0.259
'[11:35:25.676 05/05/1995]',0.204,0.072,0.202,98.573,-0.254,-0.259
'[11:35:25.678 05/05/1995]',0.259,0.108,0.236,98.573,-0.254,-0.259
'[11:35:25.680 05/05/1995]',0.299,0.126,0.302,99.098,-0.311,-0.259
'[11:35:25.682 05/05/1995]',0.339,0.126,0.302,99.098,-0.311,-0.259
'[11:35:25.684 05/05/1995]',0.357,0.126,0.302,99.098,-0.311,-0.259
'[11:35:25.686 05/05/1995]',0.376,0.072,0.269,99.098,-0.311,-0.259
'[11:35:25.688 05/05/1995]',0.369,0.002,0.236,99.699,-0.359,-0.259
'[11:35:25.690 05/05/1995]',0.363,0.002,0.202,99.699,-0.359,-0.259
'[11:35:25.692 05/05/1995]',0.337,0.002,0.135,99.699,-0.359,-0.259
'[11:35:25.694 05/05/1995]',0.310,-0.016,0.035,99.699,-0.359,-0.259
'[11:35:25.696 05/05/1995]',0.273,-0.142,-0.097,100.075,-0.399,-0.258
'[11:35:25.698 05/05/1995]',0.235,-0.356,-0.331,100.075,-0.399,-0.258
'[11:35:25.700 05/05/1995]',0.195,-0.570,-0.564,100.075,-0.399,-0.258
'[11:35:25.702 05/05/1995]',0.155,-0.713,-0.698,100.075,-0.399,-0.258
'[11:35:25.704 05/05/1995]',0.121,-0.766,-0.731,100.376,-0.428,-0.256
'[11:35:25.706 05/05/1995]',0.087,-0.766,-0.731,100.376,-0.428,-0.256
'[11:35:25.708 05/05/1995]',0.062,-0.731,-0.664,100.376,-0.428,-0.256
'[11:35:25.710 05/05/1995]',0.037,-0.660,-0.597,100.376,-0.428,-0.256
'[11:35:25.712 05/05/1995]',0.022,-0.588,-0.497,100.451,-0.449,-0.253
'[11:35:25.714 05/05/1995]',0.007,-0.516,-0.465,100.451,-0.449,-0.253
'[11:35:25.716 05/05/1995]',-0.004,-0.445,-0.365,100.451,-0.449,-0.253
'[11:35:25.718 05/05/1995]',-0.016,-0.392,-0.331,100.451,-0.449,-0.253
'[11:35:25.720 05/05/1995]',-0.026,-0.356,-0.298,100.451,-0.459,-0.250
'[11:35:25.722 05/05/1995]',-0.037,-0.302,-0.264,100.451,-0.459,-0.250
'[11:35:25.724 05/05/1995]',-0.046,-0.266,-0.231,100.451,-0.459,-0.250
'[11:35:25.726 05/05/1995]',-0.056,-0.231,-0.198,100.451,-0.459,-0.250
'[11:35:25.728 05/05/1995]',-0.064,-0.195,-0.164,100.376,-0.461,-0.245
'[11:35:25.730 05/05/1995]',-0.073,-0.178,-0.131,100.376,-0.461,-0.245
'[11:35:25.732 05/05/1995]',-0.080,-0.142,-0.097,100.376,-0.461,-0.245
'[11:35:25.734 05/05/1995]',-0.087,-0.124,-0.097,100.376,-0.461,-0.245
'[11:35:25.736 05/05/1995]',-0.091,-0.124,-0.097,100.075,-0.456,-0.240
'[11:35:25.738 05/05/1995]',-0.095,-0.124,-0.097,100.075,-0.456,-0.240
'[11:35:25.740 05/05/1995]',-0.098,-0.142,-0.097,100.075,-0.456,-0.240
'[11:35:25.742 05/05/1995]',-0.101,-0.142,-0.097,100.075,-0.456,-0.240
'[11:35:25.744 05/05/1995]',-0.102,-0.124,-0.097,99.699,-0.444,-0.235
'[11:35:25.746 05/05/1995]',-0.102,-0.124,-0.064,99.699,-0.444,-0.235
'[11:35:25.748 05/05/1995]',-0.101,-0.124,-0.064,99.699,-0.444,-0.235
'[11:35:25.750 05/05/1995]',-0.100,-0.106,-0.064,99.699,-0.444,-0.235
'[11:35:25.752 05/05/1995]',-0.096,-0.124,-0.064,99.174,-0.428,-0.229
'[11:35:25.754 05/05/1995]',-0.093,-0.124,-0.064,99.174,-0.428,-0.229
'[11:35:25.756 05/05/1995]',-0.090,-0.124,-0.064,99.174,-0.428,-0.229
'[11:35:25.758 05/05/1995]',-0.087,-0.124,-0.064,99.174,-0.428,-0.229
'[11:35:25.760 05/05/1995]',-0.083,-0.124,-0.064,98.723,-0.407,-0.224
'[11:35:25.762 05/05/1995]',-0.078,-0.106,-0.064,98.723,-0.407,-0.224
'[11:35:25.764 05/05/1995]',-0.074,-0.106,-0.064,98.723,-0.407,-0.224
'[11:35:25.766 05/05/1995]',-0.070,-0.088,-0.064,98.723,-0.407,-0.224
'[11:35:25.768 05/05/1995]',-0.066,-0.088,-0.064,98.122,-0.388,-0.218
'[11:35:25.770 05/05/1995]',-0.063,-0.088,-0.064,98.122,-0.388,-0.218
'[11:35:25.772 05/05/1995]',-0.060,-0.106,-0.064,98.122,-0.388,-0.218
'[11:35:25.774 05/05/1995]',-0.057,-0.106,-0.064,98.122,-0.388,-0.218
'[11:35:25.776 05/05/1995]',-0.056,-0.088,-0.064,97.596,-0.363,-0.213
'[11:35:25.778 05/05/1995]',-0.056,-0.070,-0.030,97.596,-0.363,-0.213
'[11:35:25.780 05/05/1995]',-0.053,-0.070,-0.030,97.596,-0.363,-0.213
'[11:35:25.782 05/05/1995]',-0.051,-0.052,-0.030,97.596,-0.363,-0.213
'[11:35:25.784 05/05/1995]',-0.048,-0.052,-0.030,96.995,-0.343,-0.207
'[11:35:25.786 05/05/1995]',-0.046,-0.052,-0.030,96.995,-0.343,-0.207
'[11:35:25.788 05/05/1995]',-0.041,-0.052,-0.030,96.995,-0.343,-0.207
'[11:35:25.790 05/05/1995]',-0.037,-0.052,-0.030,96.995,-0.343,-0.207
'[11:35:25.792 05/05/1995]',-0.033,-0.052,-0.030,96.469,-0.324,-0.202
'[11:35:25.794 05/05/1995]',-0.030,-0.034,0.003,96.469,-0.324,-0.202
'[11:35:25.796 05/05/1995]',-0.028,-0.016,0.003,96.469,-0.324,-0.202
'[11:35:25.798 05/05/1995]',-0.026,-0.016,0.003,96.469,-0.324,-0.202
'[11:35:25.800 05/05/1995]',-0.022,-0.016,0.003,95.868,-0.306,-0.197
'[11:35:25.802 05/05/1995]',-0.019,0.002,0.003,95.868,-0.306,-0.197
'[11:35:25.804 05/05/1995]',-0.014,-0.016,0.003,95.868,-0.306,-0.197
'[11:35:25.806 05/05/1995]',-0.009,0.002,0.003,95.868,-0.306,-0.197
'[11:35:25.808 05/05/1995]',-0.004,0.002,0.003,95.342,-0.293,-0.192
'[11:35:25.810 05/05/1995]',0.000,0.002,0.003,95.342,-0.293,-0.192
'[11:35:25.812 05/05/1995]',0.004,0.002,0.003,95.342,-0.293,-0.192
'[11:35:25.814 05/05/1995]',0.007,0.019,0.035,95.342,-0.293,-0.192
'[11:35:25.816 05/05/1995]',0.012,0.019,0.035,95.041,-0.281,-0.186
'[11:35:25.818 05/05/1995]',0.017,0.037,0.035,95.041,-0.281,-0.186
'[11:35:25.820 05/05/1995]',0.023,0.037,0.035,95.041,-0.281,-0.186
'[11:35:25.822 05/05/1995]',0.028,0.037,0.035,95.041,-0.281,-0.186
'[11:35:25.824 05/05/1995]',0.036,0.037,0.035,95.116,-0.274,-0.180
'[11:35:25.826 05/05/1995]',0.044,0.055,0.068,95.116,-0.274,-0.180
'[11:35:25.828 05/05/1995]',0.053,0.090,0.102,95.116,-0.274,-0.180
'[11:35:25.830 05/05/1995]',0.063,0.108,0.102,95.116,-0.274,-0.180
'[11:35:25.832 05/05/1995]',0.073,0.126,0.102,96.168,-0.272,-0.173
'[11:35:25.834 05/05/1995]',0.083,0.126,0.135,96.168,-0.272,-0.173
'[11:35:25.836 05/05/1995]',0.094,0.126,0.135,96.168,-0.272,-0.173
'[11:35:25.838 05/05/1995]',0.105,0.144,0.135,96.168,-0.272,-0.173
'[11:35:25.840 05/05/1995]',0.117,0.162,0.169,99.324,-0.270,-0.167
'[11:35:25.842 05/05/1995]',0.130,0.162,0.169,99.324,-0.270,-0.167
'[11:35:25.844 05/05/1995]',0.142,0.198,0.202,99.324,-0.270,-0.167
'[11:35:25.846 05/05/1995]',0.155,0.234,0.236,99.324,-0.270,-0.167
'[11:35:25.848 05/05/1995]',0.166,0.252,0.236,105.485,-0.273,-0.161
'[11:35:25.850 05/05/1995]',0.177,0.269,0.236,105.485,-0.273,-0.161
'[11:35:25.852 05/05/1995]',0.185,0.269,0.269,105.485,-0.273,-0.161
'[11:35:25.854 05/05/1995]',0.194,0.269,0.269,105.485,-0.273,-0.161
'[11:35:25.856 05/05/1995]',0.200,0.287,0.302,114.726,-0.278,-0.157
'[11:35:25.858 05/05/1995]',0.206,0.305,0.302,114.726,-0.278,-0.157
'[11:35:25.860 05/05/1995]',0.211,0.322,0.336,114.726,-0.278,-0.157
'[11:35:25.862 05/05/1995]',0.216,0.322,0.336,114.726,-0.278,-0.157
'[11:35:25.864 05/05/1995]',0.219,0.340,0.336,125.995,-0.281,-0.154
'[11:35:25.866 05/05/1995]',0.222,0.340,0.336,125.995,-0.281,-0.154
'[11:35:25.868 05/05/1995]',0.223,0.340,0.336,125.995,-0.281,-0.154
'[11:35:25.870 05/05/1995]',0.223,0.322,0.336,125.995,-0.281,-0.154
'[11:35:25.872 05/05/1995]',0.221,0.287,0.302,137.265,-0.281,-0.154
'[11:35:25.874 05/05/1995]',0.218,0.287,0.302,137.265,-0.281,-0.154
'[11:35:25.876 05/05/1995]',0.214,0.269,0.302,137.265,-0.281,-0.154
'[11:35:25.878 05/05/1995]',0.211,0.287,0.302,137.265,-0.281,-0.154
'[11:35:25.880 05/05/1995]',0.206,0.269,0.302,146.657,-0.277,-0.158
'[11:35:25.882 05/05/1995]',0.201,0.269,0.269,146.657,-0.277,-0.158
'[11:35:25.884 05/05/1995]',0.196,0.252,0.236,146.657,-0.277,-0.158
'[11:35:25.886 05/05/1995]',0.191,0.234,0.236,146.657,-0.277,-0.158
'[11:35:25.888 05/05/1995]',0.185,0.216,0.202,153.043,-0.265,-0.168
'[11:35:25.890 05/05/1995]',0.179,0.180,0.202,153.043,-0.265,-0.168
'[11:35:25.892 05/05/1995]',0.175,0.162,0.169,153.043,-0.265,-0.168
'[11:35:25.894 05/05/1995]',0.171,0.162,0.169,153.043,-0.265,-0.168
'[11:35:25.896 05/05/1995]',0.167,0.144,0.169,156.574,-0.238,-0.185
'[11:35:25.898 05/05/1995]',0.162,0.144,0.169,156.574,-0.238,-0.185
'[11:35:25.900 05/05/1995]',0.157,0.126,0.135,156.574,-0.238,-0.185
'[11:35:25.902 05/05/1995]',0.152,0.108,0.102,156.574,-0.238,-0.185
'[11:35:25.904 05/05/1995]',0.144,0.090,0.068,157.701,-0.198,-0.206
'[11:35:25.906 05/05/1995]',0.137,0.072,0.035,157.701,-0.198,-0.206
'[11:35:25.908 05/05/1995]',0.128,0.055,0.035,157.701,-0.198,-0.206
'[11:35:25.910 05/05/1995]',0.120,0.055,0.035,157.701,-0.198,-0.206
'[11:35:25.912 05/05/1995]',0.110,0.037,0.035,157.325,-0.141,-0.234
'[11:35:25.914 05/05/1995]',0.101,0.037,0.035,157.325,-0.141,-0.234
'[11:35:25.916 05/05/1995]',0.093,0.037,0.035,157.325,-0.141,-0.234
'[11:35:25.918 05/05/1995]',0.085,0.019,0.003,157.325,-0.141,-0.234
'[11:35:25.920 05/05/1995]',0.080,0.002,0.003,155.748,-0.069,-0.269
'[11:35:25.922 05/05/1995]',0.075,0.002,0.003,155.748,-0.069,-0.269
'[11:35:25.924 05/05/1995]',0.074,-0.016,-0.030,155.748,-0.069,-0.269
'[11:35:25.926 05/05/1995]',0.073,-0.016,-0.030,155.748,-0.069,-0.269
'[11:35:25.928 05/05/1995]',0.071,-0.016,-0.030,153.118,0.015,-0.308
'[11:35:25.930 05/05/1995]',0.070,-0.016,-0.030,153.118,0.015,-0.308
'[11:35:25.932 05/05/1995]',0.068,0.002,-0.030,153.118,0.015,-0.308
'[11:35:25.934 05/05/1995]',0.067,-0.016,-0.030,153.118,0.015,-0.308
'[11:35:25.936 05/05/1995]',0.064,-0.034,-0.030,149.737,0.110,-0.353
'[11:35:25.938 05/05/1995]',0.061,-0.034,-0.030,149.737,0.110,-0.353
'[11:35:25.940 05/05/1995]',0.058,-0.034,-0.030,149.737,0.110,-0.353
'[11:35:25.942 05/05/1995]',0.054,-0.034,-0.030,149.737,0.110,-0.353
'[11:35:25.944 05/05/1995]',0.051,-0.034,-0.030,145.530,0.207,-0.401
'[11:35:25.946 05/05/1995]',0.047,-0.016,-0.030,145.530,0.207,-0.401
'[11:35:25.948 05/05/1995]',0.046,-0.016,0.003,145.530,0.207,-0.401
'[11:35:25.950 05/05/1995]',0.044,0.002,-0.030,145.530,0.207,-0.401
'[11:35:25.952 05/05/1995]',0.043,-0.016,-0.030,140.721,0.304,-0.451
'[11:35:25.954 05/05/1995]',0.043,-0.016,-0.030,140.721,0.304,-0.451
'[11:35:25.956 05/05/1995]',0.045,-0.016,-0.030,140.721,0.304,-0.451
'[11:35:25.958 05/05/1995]',0.047,-0.034,-0.030,140.721,0.304,-0.451
'[11:35:25.960 05/05/1995]',0.050,-0.034,-0.030,135.612,0.391,-0.501
'[11:35:25.962 05/05/1995]',0.053,-0.016,-0.030,135.612,0.391,-0.501
'[11:35:25.964 05/05/1995]',0.056,-0.016,-0.030,135.612,0.391,-0.501
'[11:35:25.966 05/05/1995]',0.058,-0.016,-0.030,135.612,0.391,-0.501
'[11:35:25.968 05/05/1995]',0.060,-0.016,-0.030,130.203,0.467,-
'[11:35:25.970 05/05/1995]',0.063,-0.034,-0.030,130.203,0.467,-
'[11:35:25.972 05/05/1995]',0.065,-0.034,-0.030,130.203,0.467,-
'[11:35:25.974 05/05/1995]',0.068,-0.034,-0.064,130.203,0.467,-
'[11:35:25.976 05/05/1995]',0.072,-0.034,-0.030,124.643,0.526,-
'[11:35:25.978 05/05/1995]',0.075,-0.016,-0.030,124.643,0.526,-
'[11:35:25.980 05/05/1995]',0.080,-0.016,0.003,124.643,0.526,-
'[11:35:25.982 05/05/1995]',0.084,-0.016,0.003,124.643,0.526,-
'[11:35:25.984 05/05/1995]',0.086,-0.016,-0.030,118.708,0.567,-
'[11:35:25.986 05/05/1995]',0.088,-0.016,-0.030,118.708,0.567,-
'[11:35:25.988 05/05/1995]',0.088,-0.034,-0.030,118.708,0.567,-
'[11:35:25.990 05/05/1995]',0.087,-0.052,-0.030,118.708,0.567,-
'[11:35:25.992 05/05/1995]',0.085,-0.052,-0.064,112.772,0.588,-
'[11:35:25.994 05/05/1995]',0.083,-0.070,-0.030,112.772,0.588,-
'[11:35:25.996 05/05/1995]',0.080,-0.052,-0.030,112.772,0.588,-
'[11:35:25.998 05/05/1995]',0.077,-0.052,-0.030,112.772,0.588,-
'[11:35:26.000 05/05/1995]',0.074,-0.052,-0.064,106.912,0.591,-
'[11:35:26.002 05/05/1995]',0.071,-0.070,-0.064,106.912,0.591,-
'[11:35:26.004 05/05/1995]',0.070,-0.088,-0.064,106.912,0.591,-
'[11:35:26.006 05/05/1995]',0.068,-0.106,-0.097,106.912,0.591,-
'[11:35:26.008 05/05/1995]',0.070,-0.124,-0.097,101.503,0.580,-
'[11:35:26.010 05/05/1995]',0.071,-0.124,-0.064,101.503,0.580,-
'[11:35:26.012 05/05/1995]',0.072,-0.106,-0.064,101.503,0.580,-
'[11:35:26.014 05/05/1995]',0.073,-0.124,-0.064,101.503,0.580,-
'[11:35:26.016 05/05/1995]',0.070,-0.124,-0.064,96.694,0.552,-
'[11:35:26.018 05/05/1995]',0.067,-0.124,-0.064,96.694,0.552,-
'[11:35:26.020 05/05/1995]',0.063,-0.124,-0.097,96.694,0.552,-
'[11:35:26.022 05/05/1995]',0.058,-0.124,-0.097,96.694,0.552,-
'[11:35:26.024 05/05/1995]',0.052,-0.124,-0.097,92.712,0.513,-
'[11:35:26.026 05/05/1995]',0.046,-0.124,-0.097,92.712,0.513,-
'[11:35:26.028 05/05/1995]',0.039,-0.124,-0.064,92.712,0.513,-
'[11:35:26.030 05/05/1995]',0.033,-0.124,-0.064,92.712,0.513,-
'[11:35:26.032 05/05/1995]',0.028,-0.124,-0.064,89.632,0.460,-
'[11:35:26.034 05/05/1995]',0.023,-0.124,-0.097,89.632,0.460,-
'[11:35:26.036 05/05/1995]',0.019,-0.124,-0.097,89.632,0.460,-
'[11:35:26.038 05/05/1995]',0.014,-0.124,-0.097,89.632,0.460,-
'[11:35:26.040 05/05/1995]',0.011,-0.142,-0.131,87.603,0.400,-
'[11:35:26.042 05/05/1995]',0.007,-0.142,-0.131,87.603,0.400,-
'[11:35:26.044 05/05/1995]',0.002,-0.142,-0.097,87.603,0.400,-
'[11:35:26.046 05/05/1995]',-0.003,-0.124,-0.097,87.603,0.400,-
'[11:35:26.048 05/05/1995]',-0.007,-0.124,-0.097,86.326,0.331,-
'[11:35:26.050 05/05/1995]',-0.011,-0.142,-0.097,86.326,0.331,-
'[11:35:26.052 05/05/1995]',-0.015,-0.142,-0.131,86.326,0.331,-
'[11:35:26.054 05/05/1995]',-0.019,-0.160,-0.131,86.326,0.331,-
'[11:35:26.056 05/05/1995]',-0.020,-0.160,-0.131,85.725,0.252,-
'[11:35:26.058 05/05/1995]',-0.021,-0.160,-0.131,85.725,0.252,-
'[11:35:26.060 05/05/1995]',-0.022,-0.160,-0.131,85.725,0.252,-
'[11:35:26.062 05/05/1995]',-0.023,-0.160,-0.131,85.725,0.252,-
'[11:35:26.064 05/05/1995]',-0.024,-0.160,-0.131,85.575,0.172,-
'[11:35:26.066 05/05/1995]',-0.026,-0.160,-0.131,85.575,0.172,-
'[11:35:26.068 05/05/1995]',-0.026,-0.160,-0.131,85.575,0.172,-
'[11:35:26.070 05/05/1995]',-0.027,-0.160,-0.131,85.575,0.172,-
'[11:35:26.072 05/05/1995]',-0.026,-0.178,-0.131,85.650,0.083,-
'[11:35:26.074 05/05/1995]',-0.024,-0.178,-0.131,85.650,0.083,-
'[11:35:26.076 05/05/1995]',-0.021,-0.178,-0.131,85.650,0.083,-
'[11:35:26.078 05/05/1995]',-0.017,-0.160,-0.097,85.650,0.083,-
'[11:35:26.080 05/05/1995]',-0.014,-0.142,-0.097,85.950,-0.006,-
'[11:35:26.082 05/05/1995]',-0.010,-0.142,-0.131,85.950,-0.006,-
'[11:35:26.084 05/05/1995]',-0.011,-0.124,-0.131,85.950,-0.006,-
'[11:35:26.086 05/05/1995]',-0.013,-0.124,-0.131,85.950,-0.006,-
'[11:35:26.088 05/05/1995]',-0.019,-0.124,-0.164,86.251,-0.097,-
'[11:35:26.090 05/05/1995]',-0.026,-0.124,-0.164,86.251,-0.097,-
'[11:35:26.092 05/05/1995]',-0.034,-0.124,-0.164,86.251,-0.097,-
'[11:35:26.094 05/05/1995]',-0.043,-0.142,-0.164,86.251,-0.097,-
'[11:35:26.096 05/05/1995]',-0.047,-0.160,-0.164,86.702,-0.189,-
'[11:35:26.098 05/05/1995]',-0.051,-0.160,-0.164,86.702,-0.189,-
'[11:35:26.100 05/05/1995]',-0.044,-0.160,-0.131,86.702,-0.189,-
'[11:35:26.102 05/05/1995]',-0.037,-0.142,-0.097,86.702,-0.189,-
'[11:35:26.104 05/05/1995]',-0.011,-0.124,-0.030,87.153,-0.277,-
'[11:35:26.106 05/05/1995]',0.016,-0.088,0.003,87.153,-0.277,-
'[11:35:26.108 05/05/1995]',0.061,-0.034,0.035,87.153,-0.277,-
'[11:35:26.110 05/05/1995]',0.107,0.002,0.102,87.153,-0.277,-
'[11:35:26.112 05/05/1995]',0.167,0.037,0.202,87.603,-0.362,-
'[11:35:26.114 05/05/1995]',0.228,0.108,0.236,87.603,-0.362,-
'[11:35:26.116 05/05/1995]',0.290,0.162,0.302,87.603,-0.362,-
'[11:35:26.118 05/05/1995]',0.352,0.198,0.336,87.603,-0.362,-
'[11:35:26.120 05/05/1995]',0.403,0.216,0.369,88.129,-0.441,-
'[11:35:26.122 05/05/1995]',0.454,0.234,0.369,88.129,-0.441,-
'[11:35:26.124 05/05/1995]',0.485,0.216,0.403,88.129,-0.441,-
'[11:35:26.126 05/05/1995]',0.517,0.198,0.436,88.129,-0.441,-
'[11:35:26.128 05/05/1995]',0.524,0.180,0.436,88.430,-0.511,-
'[11:35:26.130 05/05/1995]',0.531,0.144,0.403,88.430,-0.511,-
'[11:35:26.132 05/05/1995]',0.516,0.126,0.336,88.430,-0.511,-
'[11:35:26.134 05/05/1995]',0.501,0.108,0.236,88.430,-0.511,-
'[11:35:26.136 05/05/1995]',0.471,0.019,0.068,88.730,-0.598,-
'[11:35:26.138 05/05/1995]',0.441,-0.142,-0.164,88.730,-0.598,-
'[11:35:26.140 05/05/1995]',0.401,-0.374,-0.398,88.730,-0.598,-
'[11:35:26.142 05/05/1995]',0.362,-0.606,-0.631,88.730,-0.598,-
'[11:35:26.144 05/05/1995]',0.317,-0.731,-0.731,88.956,-0.650,-
'[11:35:26.146 05/05/1995]',0.273,-0.784,-0.764,88.956,-0.650,-
'[11:35:26.148 05/05/1995]',0.233,-0.766,-0.764,88.956,-0.650,-
'[11:35:26.150 05/05/1995]',0.194,-0.731,-0.698,88.956,-0.650,-
'[11:35:26.152 05/05/1995]',0.162,-0.660,-0.631,88.956,-0.696,-
'[11:35:26.154 05/05/1995]',0.131,-0.606,-0.564,88.956,-0.696,-
'[11:35:26.156 05/05/1995]',0.107,-0.552,-0.497,88.956,-0.696,-
'[11:35:26.158 05/05/1995]',0.084,-0.499,-0.432,88.956,-0.696,-
'[11:35:26.160 05/05/1995]',0.065,-0.428,-0.365,88.881,-0.730,-
'[11:35:26.162 05/05/1995]',0.047,-0.356,-0.331,88.881,-0.730,-
'[11:35:26.164 05/05/1995]',0.031,-0.302,-0.264,88.881,-0.730,-
'[11:35:26.166 05/05/1995]',0.014,-0.266,-0.231,88.881,-0.730,-
'[11:35:26.168 05/05/1995]',-0.001,-0.249,-0.198,88.580,-0.754,-
'[11:35:26.170 05/05/1995]',-0.016,-0.231,-0.198,88.580,-0.754,-
'[11:35:26.172 05/05/1995]',-0.026,-0.195,-0.164,88.580,-0.754,-
'[11:35:26.174 05/05/1995]',-0.037,-0.195,-0.164,88.580,-0.754,-
'[11:35:26.176 05/05/1995]',-0.042,-0.195,-0.164,87.979,-0.769,-
'[11:35:26.178 05/05/1995]',-0.047,-0.178,-0.131,87.979,-0.769,-
'[11:35:26.180 05/05/1995]',-0.048,-0.178,-0.131,87.979,-0.769,-
'[11:35:26.182 05/05/1995]',-0.050,-0.160,-0.131,87.979,-0.769,-
'[11:35:26.184 05/05/1995]',-0.051,-0.160,-0.131,87.303,-0.774,-
'[11:35:26.186 05/05/1995]',-0.051,-0.160,-0.131,87.303,-0.774,-
'[11:35:26.188 05/05/1995]',-0.053,-0.160,-0.131,87.303,-0.774,-
'[11:35:26.190 05/05/1995]',-0.054,-0.160,-0.131,87.303,-0.774,-
'[11:35:26.192 05/05/1995]',-0.056,-0.160,-0.131,86.401,-0.774,-
'[11:35:26.194 05/05/1995]',-0.057,-0.142,-0.097,86.401,-0.774,-
'[11:35:26.196 05/05/1995]',-0.057,-0.142,-0.097,86.401,-0.774,-
'[11:35:26.198 05/05/1995]',-0.057,-0.142,-0.097,86.401,-0.774,-
'[11:35:26.200 05/05/1995]',-0.053,-0.142,-0.097,85.500,-0.766,-
'[11:35:26.202 05/05/1995]',-0.050,-0.124,-0.097,85.500,-0.766,-
'[11:35:26.204 05/05/1995]',-0.046,-0.124,-0.097,85.500,-0.766,-
'[11:35:26.206 05/05/1995]',-0.041,-0.124,-0.097,85.500,-0.766,-
'[11:35:26.208 05/05/1995]',-0.038,-0.124,-0.097,84.673,-0.755,-
'[11:35:26.210 05/05/1995]',-0.036,-0.124,-0.097,84.673,-0.755,-
'[11:35:26.212 05/05/1995]',-0.033,-0.124,-0.097,84.673,-0.755,-
'[11:35:26.214 05/05/1995]',-0.031,-0.124,-0.064,84.673,-0.755,-
'[11:35:26.216 05/05/1995]',-0.032,-0.106,-0.064,83.922,-0.739,-
'[11:35:26.218 05/05/1995]',-0.033,-0.106,-0.064,83.922,-0.739,-
'[11:35:26.220 05/05/1995]',-0.033,-0.124,-0.097,83.922,-0.739,-
'[11:35:26.222 05/05/1995]',-0.034,-0.124,-0.064,83.922,-0.739,-
'[11:35:26.224 05/05/1995]',-0.034,-0.106,-0.064,83.171,-0.720,-
'[11:35:26.226 05/05/1995]',-0.034,-0.106,-0.064,83.171,-0.720,-
'[11:35:26.228 05/05/1995]',-0.031,-0.088,-0.030,83.171,-0.720,-
'[11:35:26.230 05/05/1995]',-0.027,-0.088,-0.030,83.171,-0.720,-
'[11:35:26.232 05/05/1995]',-0.020,-0.088,-0.030,82.494,-0.702,-
'[11:35:26.234 05/05/1995]',-0.013,-0.070,-0.030,82.494,-0.702,-
'[11:35:26.236 05/05/1995]',-0.005,-0.088,-0.030,82.494,-0.702,-
'[11:35:26.238 05/05/1995]',0.003,-0.088,-0.064,82.494,-0.702,-
'[11:35:26.240 05/05/1995]',0.009,-0.088,-0.030,81.893,-0.685,-
'[11:35:26.242 05/05/1995]',0.016,-0.070,-0.030,81.893,-0.685,-
'[11:35:26.244 05/05/1995]',0.019,-0.052,-0.030,81.893,-0.685,-
'[11:35:26.246 05/05/1995]',0.023,-0.034,0.003,81.893,-0.685,-
'[11:35:26.248 05/05/1995]',0.024,-0.034,0.003,81.367,-0.669,-
'[11:35:26.250 05/05/1995]',0.026,-0.034,0.003,81.367,-0.669,-
'[11:35:26.252 05/05/1995]',0.027,-0.034,0.003,81.367,-0.669,-
'[11:35:26.254 05/05/1995]',0.028,-0.034,0.003,81.367,-0.669,-
'[11:35:26.256 05/05/1995]',0.030,-0.034,0.003,80.917,-0.653,-
'[11:35:26.258 05/05/1995]',0.031,-0.016,0.003,80.917,-0.653,-
'[11:35:26.260 05/05/1995]',0.036,0.002,0.003,80.917,-0.653,-
'[11:35:26.262 05/05/1995]',0.040,0.002,0.035,80.917,-0.653,-
'[11:35:26.264 05/05/1995]',0.047,0.019,0.035,80.841,-0.642,-
'[11:35:26.266 05/05/1995]',0.054,0.019,0.035,80.841,-0.642,-
'[11:35:26.268 05/05/1995]',0.063,0.037,0.035,80.841,-0.642,-
'[11:35:26.270 05/05/1995]',0.071,0.055,0.035,80.841,-0.642,-
'[11:35:26.272 05/05/1995]',0.079,0.055,0.035,81.142,-0.636,-
'[11:35:26.274 05/05/1995]',0.087,0.072,0.068,81.142,-0.636,-
'[11:35:26.276 05/05/1995]',0.095,0.090,0.102,81.142,-0.636,-
'[11:35:26.278 05/05/1995]',0.104,0.126,0.102,81.142,-0.636,-
'[11:35:26.280 05/05/1995]',0.114,0.126,0.135,82.344,-0.629,-
'[11:35:26.282 05/05/1995]',0.124,0.144,0.169,82.344,-0.629,-
'[11:35:26.284 05/05/1995]',0.134,0.162,0.169,82.344,-0.629,-
'[11:35:26.286 05/05/1995]',0.144,0.180,0.169,82.344,-0.629,-
'[11:35:26.288 05/05/1995]',0.156,0.198,0.202,85.274,-0.629,-
'[11:35:26.290 05/05/1995]',0.168,0.198,0.202,85.274,-0.629,-
'[11:35:26.292 05/05/1995]',0.179,0.216,0.236,85.274,-0.629,-
'[11:35:26.294 05/05/1995]',0.189,0.252,0.236,85.274,-0.629,-
'[11:35:26.296 05/05/1995]',0.199,0.269,0.269,90.609,-0.631,-
'[11:35:26.298 05/05/1995]',0.209,0.287,0.302,90.609,-0.631,-
'[11:35:26.300 05/05/1995]',0.218,0.305,0.302,90.609,-0.631,-
'[11:35:26.302 05/05/1995]',0.226,0.305,0.302,90.609,-0.631,-
'[11:35:26.304 05/05/1995]',0.235,0.322,0.302,98.347,-0.637,-
'[11:35:26.306 05/05/1995]',0.243,0.322,0.336,98.347,-0.637,-
'[11:35:26.308 05/05/1995]',0.251,0.322,0.336,98.347,-0.637,-
'[11:35:26.310 05/05/1995]',0.258,0.322,0.336,98.347,-0.637,-
'[11:35:26.312 05/05/1995]',0.261,0.322,0.336,107.438,-0.641,-
'[11:35:26.314 05/05/1995]',0.265,0.340,0.336,107.438,-0.641,-
'[11:35:26.316 05/05/1995]',0.265,0.322,0.302,107.438,-0.641,-
'[11:35:26.318 05/05/1995]',0.265,0.305,0.302,107.438,-0.641,-
'[11:35:26.320 05/05/1995]',0.260,0.287,0.302,116.529,-0.646,-
'[11:35:26.322 05/05/1995]',0.256,0.269,0.236,116.529,-0.646,-
'[11:35:26.324 05/05/1995]',0.249,0.252,0.236,116.529,-0.646,-
'[11:35:26.326 05/05/1995]',0.242,0.252,0.236,116.529,-0.646,-
'[11:35:26.328 05/05/1995]',0.232,0.216,0.236,124.343,-0.647,-
'[11:35:26.330 05/05/1995]',0.222,0.216,0.202,124.343,-0.647,-
'[11:35:26.332 05/05/1995]',0.211,0.198,0.202,124.343,-0.647,-
'[11:35:26.334 05/05/1995]',0.199,0.180,0.202,124.343,-0.647,-
'[11:35:26.336 05/05/1995]',0.187,0.162,0.169,130.503,-0.642,-
'[11:35:26.338 05/05/1995]',0.175,0.126,0.135,130.503,-0.642,-
'[11:35:26.340 05/05/1995]',0.165,0.108,0.102,130.503,-0.642,-
'[11:35:26.342 05/05/1995]',0.155,0.090,0.068,130.503,-0.642,-
'[11:35:26.344 05/05/1995]',0.147,0.072,0.068,134.560,-0.625,-
'[11:35:26.346 05/05/1995]',0.140,0.072,0.068,134.560,-0.625,-
'[11:35:26.348 05/05/1995]',0.135,0.055,0.068,134.560,-0.625,-
'[11:35:26.350 05/05/1995]',0.130,0.055,0.035,134.560,-0.625,-
'[11:35:26.352 05/05/1995]',0.125,0.037,0.003,136.890,-0.598,-
'[11:35:26.354 05/05/1995]',0.121,0.002,0.003,136.890,-0.598,-
'[11:35:26.356 05/05/1995]',0.117,0.002,0.003,136.890,-0.598,-
'[11:35:26.358 05/05/1995]',0.112,0.002,0.003,136.890,-0.598,-
'[11:35:26.360 05/05/1995]',0.107,0.002,0.003,137.491,-0.554,-
'[11:35:26.362 05/05/1995]',0.101,0.002,0.003,137.491,-0.554,-
'[11:35:26.364 05/05/1995]',0.095,0.002,0.003,137.491,-0.554,-
'[11:35:26.366 05/05/1995]',0.090,0.002,0.003,137.491,-0.554,-
'[11:35:26.368 05/05/1995]',0.085,-0.016,-0.030,136.814,-0.495,-
'[11:35:26.370 05/05/1995]',0.080,-0.016,-0.030,136.814,-0.495,-
'[11:35:26.372 05/05/1995]',0.078,-0.016,-0.030,136.814,-0.495,-
'[11:35:26.374 05/05/1995]',0.075,-0.052,-0.030,136.814,-0.495,-
'[11:35:26.376 05/05/1995]',0.078,-0.052,-0.030,135.086,-0.418,-
'[11:35:26.378 05/05/1995]',0.080,-0.052,-0.030,135.086,-0.418,-
'[11:35:26.380 05/05/1995]',0.081,-0.052,-0.030,135.086,-0.418,-
'[11:35:26.382 05/05/1995]',0.083,-0.052,-0.030,135.086,-0.418,-
'[11:35:26.384 05/05/1995]',0.083,-0.052,-0.030,132.682,-0.328,-
'[11:35:26.386 05/05/1995]',0.083,-0.052,-0.064,132.682,-0.328,-
'[11:35:26.388 05/05/1995]',0.079,-0.070,-0.064,132.682,-0.328,-
'[11:35:26.390 05/05/1995]',0.075,-0.070,-0.064,132.682,-0.328,-
'[11:35:26.392 05/05/1995]',0.071,-0.052,-0.064,129.602,-0.227,-
'[11:35:26.394 05/05/1995]',0.067,-0.052,-0.030,129.602,-0.227,-
'[11:35:26.396 05/05/1995]',0.065,-0.034,-0.030,129.602,-0.227,-
'[11:35:26.398 05/05/1995]',0.063,-0.016,-0.030,129.602,-0.227,-
'[11:35:26.400 05/05/1995]',0.066,-0.016,-0.030,126.146,-0.121,-
'[11:35:26.402 05/05/1995]',0.070,-0.016,-0.030,126.146,-0.121,-
'[11:35:26.404 05/05/1995]',0.077,-0.034,-0.064,126.146,-0.121,-
'[11:35:26.406 05/05/1995]',0.084,-0.052,-0.064,126.146,-0.121,-
'[11:35:26.408 05/05/1995]',0.090,-0.052,-0.064,122.239,-0.019,-
'[11:35:26.410 05/05/1995]',0.095,-0.052,-0.064,122.239,-0.019,-
'[11:35:26.412 05/05/1995]',0.100,-0.052,-0.064,122.239,-0.019,-
'[11:35:26.414 05/05/1995]',0.104,-0.034,-0.030,122.239,-0.019,-
'[11:35:26.416 05/05/1995]',0.105,-0.034,-0.030,117.881,0.080,-
'[11:35:26.418 05/05/1995]',0.105,-0.034,-0.030,117.881,0.080,-
'[11:35:26.420 05/05/1995]',0.104,-0.052,-0.030,117.881,0.080,-
'[11:35:26.422 05/05/1995]',0.102,-0.052,-0.030,117.881,0.080,-
'[11:35:26.424 05/05/1995]',0.100,-0.052,-0.030,113.298,0.164,-
'[11:35:26.426 05/05/1995]',0.098,-0.052,-0.030,113.298,0.164,-
'[11:35:26.428 05/05/1995]',0.098,-0.034,-0.030,113.298,0.164,-
'[11:35:26.430 05/05/1995]',0.098,-0.034,-0.030,113.298,0.164,-
'[11:35:26.432 05/05/1995]',0.100,-0.016,0.003,108.415,0.234,-
'[11:35:26.434 05/05/1995]',0.101,-0.034,-0.030,108.415,0.234,-
'[11:35:26.436 05/05/1995]',0.104,-0.070,-0.064,108.415,0.234,-
'[11:35:26.438 05/05/1995]',0.107,-0.070,-0.064,108.415,0.234,-
'[11:35:26.440 05/05/1995]',0.108,-0.088,-0.064,103.456,0.287,-
'[11:35:26.442 05/05/1995]',0.110,-0.088,-0.064,103.456,0.287,-
'[11:35:26.444 05/05/1995]',0.109,-0.088,-0.064,103.456,0.287,-
'[11:35:26.446 05/05/1995]',0.108,-0.088,-0.064,103.456,0.287,-
'[11:35:26.448 05/05/1995]',0.105,-0.088,-0.064,98.347,0.319,-
'[11:35:26.450 05/05/1995]',0.101,-0.106,-0.064,98.347,0.319,-
'[11:35:26.452 05/05/1995]',0.097,-0.106,-0.064,98.347,0.319,-
'[11:35:26.454 05/05/1995]',0.093,-0.106,-0.097,98.347,0.319,-
'[11:35:26.456 05/05/1995]',0.089,-0.124,-0.097,93.614,0.332,-
'[11:35:26.458 05/05/1995]',0.085,-0.124,-0.097,93.614,0.332,-
'[11:35:26.460 05/05/1995]',0.080,-0.124,-0.097,93.614,0.332,-
'[11:35:26.462 05/05/1995]',0.075,-0.124,-0.097,93.614,0.332,-
'[11:35:26.464 05/05/1995]',0.070,-0.124,-0.064,89.331,0.327,-
'[11:35:26.466 05/05/1995]',0.064,-0.124,-0.097,89.331,0.327,-
'[11:35:26.468 05/05/1995]',0.056,-0.124,-0.097,89.331,0.327,-
'[11:35:26.470 05/05/1995]',0.048,-0.142,-0.097,89.331,0.327,-
'[11:35:26.472 05/05/1995]',0.041,-0.142,-0.131,85.875,0.307,-
'[11:35:26.474 05/05/1995]',0.033,-0.142,-0.131,85.875,0.307,-
'[11:35:26.476 05/05/1995]',0.025,-0.142,-0.131,85.875,0.307,-
'[11:35:26.478 05/05/1995]',0.017,-0.142,-0.131,85.875,0.307,-
'[11:35:26.480 05/05/1995]',0.009,-0.124,-0.097,83.396,0.272,-
'[11:35:26.482 05/05/1995]',0.000,-0.124,-0.097,83.396,0.272,-
'[11:35:26.484 05/05/1995]',-0.009,-0.142,-0.097,83.396,0.272,-
'[11:35:26.486 05/05/1995]',-0.017,-0.160,-0.131,83.396,0.272,-
'[11:35:26.488 05/05/1995]',-0.023,-0.160,-0.131,81.818,0.224,-
'[11:35:26.490 05/05/1995]',-0.028,-0.160,-0.131,81.818,0.224,-
'[11:35:26.492 05/05/1995]',-0.030,-0.178,-0.131,81.818,0.224,-
'[11:35:26.494 05/05/1995]',-0.031,-0.178,-0.131,81.818,0.224,-
'[11:35:26.496 05/05/1995]',-0.029,-0.160,-0.131,81.067,0.165,-
'[11:35:26.498 05/05/1995]',-0.027,-0.178,-0.131,81.067,0.165,-
'[11:35:26.500 05/05/1995]',-0.026,-0.160,-0.131,81.067,0.165,-
'[11:35:26.502 05/05/1995]',-0.026,-0.160,-0.164,81.067,0.165,-
'[11:35:26.504 05/05/1995]',-0.028,-0.178,-0.164,80.766,0.101,-
'[11:35:26.506 05/05/1995]',-0.030,-0.178,-0.164,80.766,0.101,-
'[11:35:26.508 05/05/1995]',-0.033,-0.178,-0.164,80.766,0.101,-
'[11:35:26.510 05/05/1995]',-0.037,-0.195,-0.164,80.766,0.101,-
'[11:35:26.512 05/05/1995]',-0.040,-0.178,-0.131,80.691,0.025,-
'[11:35:26.514 05/05/1995]',-0.043,-0.178,-0.131,80.691,0.025,-
'[11:35:26.516 05/05/1995]',-0.043,-0.178,-0.131,80.691,0.025,-
'[11:35:26.518 05/05/1995]',-0.043,-0.160,-0.131,80.691,0.025,-
'[11:35:26.520 05/05/1995]',-0.044,-0.178,-0.164,80.841,-0.056,-
'[11:35:26.522 05/05/1995]',-0.046,-0.195,-0.164,80.841,-0.056,-
'[11:35:26.524 05/05/1995]',-0.051,-0.178,-0.164,80.841,-0.056,-
'[11:35:26.526 05/05/1995]',-0.056,-0.160,-0.131,80.841,-0.056,-
'[11:35:26.528 05/05/1995]',-0.063,-0.124,-0.131,80.992,-0.141,-
'[11:35:26.530 05/05/1995]',-0.071,-0.124,-0.131,80.992,-0.141,-
'[11:35:26.532 05/05/1995]',-0.080,-0.106,-0.097,80.992,-0.141,-
