'Time and date','II','V','ABP','PAP','PLETH','RESP'
'hh:mm:ss.mmm dd/mm/yyyy','mV','mV','mmHg','mmHg','mV','mV'
'[08:34:07.000 16/05/1995]',-0.061,0.001,133.753,47.339,0.304,-0.438
'[08:34:07.002 16/05/1995]',-0.061,0.001,133.753,47.339,0.304,-0.438
'[08:34:07.004 16/05/1995]',-0.040,0.001,133.753,47.339,0.304,-0.438
'[08:34:07.006 16/05/1995]',-0.040,0.001,133.753,47.339,0.304,-0.438
'[08:34:07.008 16/05/1995]',-0.061,0.001,128.539,46.814,0.304,-0.436
'[08:34:07.010 16/05/1995]',-0.061,0.001,128.539,46.814,0.304,-0.436
'[08:34:07.012 16/05/1995]',-0.061,0.001,128.539,46.814,0.304,-0.436
'[08:34:07.014 16/05/1995]',-0.061,0.001,128.539,46.814,0.304,-0.436
'[08:34:07.016 16/05/1995]',-0.061,0.001,122.947,46.113,0.292,-0.435
'[08:34:07.018 16/05/1995]',-0.061,0.001,122.947,46.113,0.292,-0.435
'[08:34:07.020 16/05/1995]',-0.061,0.001,122.947,46.113,0.292,-0.435
'[08:34:07.022 16/05/1995]',-0.061,0.001,122.947,46.113,0.292,-0.435
'[08:34:07.024 16/05/1995]',-0.061,0.001,117.507,45.163,0.292,-0.434
'[08:34:07.026 16/05/1995]',-0.061,0.011,117.507,45.163,0.292,-0.434
'[08:34:07.028 16/05/1995]',-0.061,0.011,117.507,45.163,0.292,-0.434
'[08:34:07.030 16/05/1995]',-0.061,0.011,117.507,45.163,0.292,-0.434
'[08:34:07.032 16/05/1995]',-0.061,0.011,112.444,43.987,0.256,-0.433
'[08:34:07.034 16/05/1995]',-0.061,0.011,112.444,43.987,0.256,-0.433
'[08:34:07.036 16/05/1995]',-0.061,0.011,112.444,43.987,0.256,-0.433
'[08:34:07.038 16/05/1995]',-0.061,0.021,112.444,43.987,0.256,-0.433
'[08:34:07.040 16/05/1995]',-0.061,0.021,108.061,42.711,0.243,-0.432
'[08:34:07.042 16/05/1995]',-0.061,0.021,108.061,42.711,0.243,-0.432
'[08:34:07.044 16/05/1995]',-0.061,0.021,108.061,42.711,0.243,-0.432
'[08:34:07.046 16/05/1995]',-0.061,0.021,108.061,42.711,0.243,-0.432
'[08:34:07.048 16/05/1995]',-0.082,0.011,104.509,41.284,0.232,-0.431
'[08:34:07.050 16/05/1995]',-0.061,0.011,104.509,41.284,0.232,-0.431
'[08:34:07.052 16/05/1995]',-0.061,0.011,104.509,41.284,0.232,-0.431
'[08:34:07.054 16/05/1995]',-0.061,0.011,104.509,41.284,0.232,-0.431
'[08:34:07.056 16/05/1995]',-0.061,0.011,101.789,39.883,0.219,-0.431
'[08:34:07.058 16/05/1995]',-0.061,0.021,101.789,39.883,0.219,-0.431
'[08:34:07.060 16/05/1995]',-0.061,0.021,101.789,39.883,0.219,-0.431
'[08:34:07.062 16/05/1995]',-0.061,0.021,101.789,39.883,0.219,-0.431
'[08:34:07.064 16/05/1995]',-0.061,0.021,99.824,38.532,0.195,-0.431
'[08:34:07.066 16/05/1995]',-0.061,0.032,99.824,38.532,0.195,-0.431
'[08:34:07.068 16/05/1995]',-0.061,0.032,99.824,38.532,0.195,-0.431
'[08:34:07.070 16/05/1995]',-0.061,0.032,99.824,38.532,0.195,-0.431
'[08:34:07.072 16/05/1995]',-0.061,0.042,98.615,37.181,0.195,-0.431
'[08:34:07.074 16/05/1995]',-0.040,0.042,98.615,37.181,0.195,-0.431
'[08:34:07.076 16/05/1995]',-0.061,0.032,98.615,37.181,0.195,-0.431
'[08:34:07.078 16/05/1995]',-0.040,0.042,98.615,37.181,0.195,-0.431
'[08:34:07.080 16/05/1995]',-0.040,0.032,97.859,35.905,0.159,-0.432
'[08:34:07.082 16/05/1995]',-0.040,0.032,97.859,35.905,0.159,-0.432
'[08:34:07.084 16/05/1995]',-0.040,0.021,97.859,35.905,0.159,-0.432
'[08:34:07.086 16/05/1995]',-0.040,0.021,97.859,35.905,0.159,-0.432
'[08:34:07.088 16/05/1995]',-0.040,0.021,97.481,34.679,0.134,-0.434
'[08:34:07.090 16/05/1995]',-0.040,0.021,97.481,34.679,0.134,-0.434
'[08:34:07.092 16/05/1995]',-0.040,0.021,97.481,34.679,0.134,-0.434
'[08:34:07.094 16/05/1995]',-0.040,0.021,97.481,34.679,0.134,-0.434
'[08:34:07.096 16/05/1995]',-0.040,0.021,97.330,33.553,0.121,-0.435
'[08:34:07.098 16/05/1995]',-0.040,0.021,97.330,33.553,0.121,-0.435
'[08:34:07.100 16/05/1995]',-0.040,0.032,97.330,33.553,0.121,-0.435
'[08:34:07.102 16/05/1995]',-0.040,0.021,97.330,33.553,0.121,-0.435
'[08:34:07.104 16/05/1995]',-0.040,0.021,97.330,32.552,0.085,-0.437
'[08:34:07.106 16/05/1995]',-0.040,0.021,97.330,32.552,0.085,-0.437
'[08:34:07.108 16/05/1995]',-0.040,0.021,97.330,32.552,0.085,-0.437
'[08:34:07.110 16/05/1995]',-0.040,0.021,97.330,32.552,0.085,-0.437
'[08:34:07.112 16/05/1995]',-0.040,0.021,97.330,31.852,0.061,-0.439
'[08:34:07.114 16/05/1995]',-0.040,0.021,97.330,31.852,0.061,-0.439
'[08:34:07.116 16/05/1995]',-0.040,0.021,97.330,31.852,0.061,-0.439
'[08:34:07.118 16/05/1995]',-0.040,0.021,97.330,31.852,0.061,-0.439
'[08:34:07.120 16/05/1995]',-0.040,0.032,97.255,31.726,0.036,-0.440
'[08:34:07.122 16/05/1995]',-0.040,0.032,97.255,31.726,0.036,-0.440
'[08:34:07.124 16/05/1995]',-0.040,0.032,97.255,31.726,0.036,-0.440
'[08:34:07.126 16/05/1995]',-0.040,0.032,97.255,31.726,0.036,-0.440
'[08:34:07.128 16/05/1995]',-0.040,0.032,97.028,32.502,0.012,-0.442
'[08:34:07.130 16/05/1995]',-0.040,0.021,97.028,32.502,0.012,-0.442
'[08:34:07.132 16/05/1995]',-0.040,0.021,97.028,32.502,0.012,-0.442
'[08:34:07.134 16/05/1995]',-0.040,0.021,97.028,32.502,0.012,-0.442
'[08:34:07.136 16/05/1995]',-0.040,0.021,96.801,34.203,0.012,-0.444
'[08:34:07.138 16/05/1995]',-0.040,0.021,96.801,34.203,0.012,-0.444
'[08:34:07.140 16/05/1995]',-0.040,0.021,96.801,34.203,0.012,-0.444
'[08:34:07.142 16/05/1995]',-0.040,0.021,96.801,34.203,0.012,-0.444
'[08:34:07.144 16/05/1995]',-0.040,0.011,96.272,36.430,-0.025,-0.446
'[08:34:07.146 16/05/1995]',-0.040,0.011,96.272,36.430,-0.025,-0.446
'[08:34:07.148 16/05/1995]',-0.040,0.011,96.272,36.430,-0.025,-0.446
'[08:34:07.150 16/05/1995]',-0.040,0.011,96.272,36.430,-0.025,-0.446
'[08:34:07.152 16/05/1995]',-0.040,0.011,95.668,38.482,-0.036,-0.448
'[08:34:07.154 16/05/1995]',-0.040,0.011,95.668,38.482,-0.036,-0.448
'[08:34:07.156 16/05/1995]',-0.040,0.011,95.668,38.482,-0.036,-0.448
'[08:34:07.158 16/05/1995]',-0.040,0.011,95.668,38.482,-0.036,-0.448
'[08:34:07.160 16/05/1995]',-0.040,0.021,94.912,39.958,-0.061,-0.450
'[08:34:07.162 16/05/1995]',-0.061,0.011,94.912,39.958,-0.061,-0.450
'[08:34:07.164 16/05/1995]',-0.040,0.011,94.912,39.958,-0.061,-0.450
'[08:34:07.166 16/05/1995]',-0.061,0.011,94.912,39.958,-0.061,-0.450
'[08:34:07.168 16/05/1995]',-0.061,0.011,94.005,40.834,-0.061,-0.451
'[08:34:07.170 16/05/1995]',-0.061,0.011,94.005,40.834,-0.061,-0.451
'[08:34:07.172 16/05/1995]',-0.061,0.011,94.005,40.834,-0.061,-0.451
'[08:34:07.174 16/05/1995]',-0.061,0.011,94.005,40.834,-0.061,-0.451
'[08:34:07.176 16/05/1995]',-0.061,0.011,93.098,41.059,-0.073,-0.453
'[08:34:07.178 16/05/1995]',-0.061,0.011,93.098,41.059,-0.073,-0.453
'[08:34:07.180 16/05/1995]',-0.061,0.011,93.098,41.059,-0.073,-0.453
'[08:34:07.182 16/05/1995]',-0.061,0.011,93.098,41.059,-0.073,-0.453
'[08:34:07.184 16/05/1995]',-0.061,0.011,92.192,40.759,-0.098,-0.454
'[08:34:07.186 16/05/1995]',-0.061,0.011,92.192,40.759,-0.098,-0.454
'[08:34:07.188 16/05/1995]',-0.040,0.021,92.192,40.759,-0.098,-0.454
'[08:34:07.190 16/05/1995]',-0.061,0.021,92.192,40.759,-0.098,-0.454
'[08:34:07.192 16/05/1995]',-0.061,0.011,91.134,39.883,-0.098,-0.455
'[08:34:07.194 16/05/1995]',-0.061,0.021,91.134,39.883,-0.098,-0.455
'[08:34:07.196 16/05/1995]',-0.061,0.011,91.134,39.883,-0.098,-0.455
'[08:34:07.198 16/05/1995]',-0.061,0.011,91.134,39.883,-0.098,-0.455
'[08:34:07.200 16/05/1995]',-0.061,0.011,89.925,38.707,-0.110,-0.457
'[08:34:07.202 16/05/1995]',-0.061,0.011,89.925,38.707,-0.110,-0.457
'[08:34:07.204 16/05/1995]',-0.061,0.011,89.925,38.707,-0.110,-0.457
'[08:34:07.206 16/05/1995]',-0.061,0.011,89.925,38.707,-0.110,-0.457
'[08:34:07.208 16/05/1995]',-0.061,0.011,88.640,37.356,-0.122,-0.459
'[08:34:07.210 16/05/1995]',-0.040,0.011,88.640,37.356,-0.122,-0.459
'[08:34:07.212 16/05/1995]',-0.040,0.011,88.640,37.356,-0.122,-0.459
'[08:34:07.214 16/05/1995]',-0.061,0.011,88.640,37.356,-0.122,-0.459
'[08:34:07.216 16/05/1995]',-0.040,0.011,87.507,35.905,-0.122,-0.461
'[08:34:07.218 16/05/1995]',-0.061,0.001,87.507,35.905,-0.122,-0.461
'[08:34:07.220 16/05/1995]',-0.040,0.001,87.507,35.905,-0.122,-0.461
'[08:34:07.222 16/05/1995]',-0.061,0.001,87.507,35.905,-0.122,-0.461
'[08:34:07.224 16/05/1995]',-0.061,0.011,86.297,34.379,-0.143,-0.463
'[08:34:07.226 16/05/1995]',-0.061,0.011,86.297,34.379,-0.143,-0.463
'[08:34:07.228 16/05/1995]',-0.061,0.011,86.297,34.379,-0.143,-0.463
'[08:34:07.230 16/05/1995]',-0.061,0.011,86.297,34.379,-0.143,-0.463
'[08:34:07.232 16/05/1995]',-0.061,0.011,85.315,32.977,-0.167,-0.465
'[08:34:07.234 16/05/1995]',-0.061,0.021,85.315,32.977,-0.167,-0.465
'[08:34:07.236 16/05/1995]',-0.061,0.021,85.315,32.977,-0.167,-0.465
'[08:34:07.238 16/05/1995]',-0.061,0.021,85.315,32.977,-0.167,-0.465
'[08:34:07.240 16/05/1995]',-0.061,0.021,84.408,31.676,-0.155,-0.466
'[08:34:07.242 16/05/1995]',-0.061,0.021,84.408,31.676,-0.155,-0.466
'[08:34:07.244 16/05/1995]',-0.061,0.021,84.408,31.676,-0.155,-0.466
'[08:34:07.246 16/05/1995]',-0.061,0.011,84.408,31.676,-0.155,-0.466
'[08:34:07.248 16/05/1995]',-0.061,0.011,83.577,30.575,-0.179,-0.467
'[08:34:07.250 16/05/1995]',-0.061,0.001,83.577,30.575,-0.179,-0.467
'[08:34:07.252 16/05/1995]',-0.061,0.011,83.577,30.575,-0.179,-0.467
'[08:34:07.254 16/05/1995]',-0.061,0.001,83.577,30.575,-0.179,-0.467
'[08:34:07.256 16/05/1995]',-0.040,0.011,82.821,29.575,-0.179,-0.467
'[08:34:07.258 16/05/1995]',-0.040,0.001,82.821,29.575,-0.179,-0.467
'[08:34:07.260 16/05/1995]',-0.040,0.011,82.821,29.575,-0.179,-0.467
'[08:34:07.262 16/05/1995]',-0.061,0.001,82.821,29.575,-0.179,-0.467
'[08:34:07.264 16/05/1995]',-0.061,0.001,82.141,28.749,-0.191,-0.468
'[08:34:07.266 16/05/1995]',-0.061,0.011,82.141,28.749,-0.191,-0.468
'[08:34:07.268 16/05/1995]',-0.061,0.001,82.141,28.749,-0.191,-0.468
'[08:34:07.270 16/05/1995]',-0.061,0.001,82.141,28.749,-0.191,-0.468
'[08:34:07.272 16/05/1995]',-0.061,0.001,81.537,28.098,-0.203,-0.469
'[08:34:07.274 16/05/1995]',-0.061,0.001,81.537,28.098,-0.203,-0.469
'[08:34:07.276 16/05/1995]',-0.061,0.001,81.537,28.098,-0.203,-0.469
'[08:34:07.278 16/05/1995]',-0.061,0.001,81.537,28.098,-0.203,-0.469
'[08:34:07.280 16/05/1995]',-0.061,0.011,80.857,27.623,-0.203,-0.470
'[08:34:07.282 16/05/1995]',-0.040,0.011,80.857,27.623,-0.203,-0.470
'[08:34:07.284 16/05/1995]',-0.040,0.011,80.857,27.623,-0.203,-0.470
'[08:34:07.286 16/05/1995]',-0.040,0.011,80.857,27.623,-0.203,-0.470
'[08:34:07.288 16/05/1995]',-0.040,0.011,80.328,27.348,-0.215,-0.471
'[08:34:07.290 16/05/1995]',-0.040,0.011,80.328,27.348,-0.215,-0.471
'[08:34:07.292 16/05/1995]',-0.061,0.011,80.328,27.348,-0.215,-0.471
'[08:34:07.294 16/05/1995]',-0.040,0.021,80.328,27.348,-0.215,-0.471
'[08:34:07.296 16/05/1995]',-0.061,0.011,79.799,27.173,-0.227,-0.472
'[08:34:07.298 16/05/1995]',-0.061,0.011,79.799,27.173,-0.227,-0.472
'[08:34:07.300 16/05/1995]',-0.061,0.011,79.799,27.173,-0.227,-0.472
'[08:34:07.302 16/05/1995]',-0.061,0.011,79.799,27.173,-0.227,-0.472
'[08:34:07.304 16/05/1995]',-0.040,0.011,79.270,27.098,-0.227,-0.473
'[08:34:07.306 16/05/1995]',-0.061,0.011,79.270,27.098,-0.227,-0.473
'[08:34:07.308 16/05/1995]',-0.061,0.001,79.270,27.098,-0.227,-0.473
'[08:34:07.310 16/05/1995]',-0.040,0.001,79.270,27.098,-0.227,-0.473
'[08:34:07.312 16/05/1995]',-0.061,0.011,78.816,27.048,-0.238,-0.474
'[08:34:07.314 16/05/1995]',-0.061,0.001,78.816,27.048,-0.238,-0.474
'[08:34:07.316 16/05/1995]',-0.061,0.001,78.816,27.048,-0.238,-0.474
'[08:34:07.318 16/05/1995]',-0.040,0.011,78.816,27.048,-0.238,-0.474
'[08:34:07.320 16/05/1995]',-0.040,0.011,78.363,26.997,-0.238,-0.475
'[08:34:07.322 16/05/1995]',-0.040,0.011,78.363,26.997,-0.238,-0.475
'[08:34:07.324 16/05/1995]',-0.040,0.011,78.363,26.997,-0.238,-0.475
'[08:34:07.326 16/05/1995]',-0.040,0.011,78.363,26.997,-0.238,-0.475
'[08:34:07.328 16/05/1995]',-0.040,0.001,77.910,26.997,-0.227,-0.476
'[08:34:07.330 16/05/1995]',-0.040,0.011,77.910,26.997,-0.227,-0.476
'[08:34:07.332 16/05/1995]',-0.040,0.011,77.910,26.997,-0.227,-0.476
'[08:34:07.334 16/05/1995]',-0.040,0.011,77.910,26.997,-0.227,-0.476
'[08:34:07.336 16/05/1995]',-0.040,0.001,77.456,26.997,-0.238,-0.478
'[08:34:07.338 16/05/1995]',-0.040,0.001,77.456,26.997,-0.238,-0.478
'[08:34:07.340 16/05/1995]',-0.040,0.001,77.456,26.997,-0.238,-0.478
'[08:34:07.342 16/05/1995]',-0.040,0.001,77.456,26.997,-0.238,-0.478
'[08:34:07.344 16/05/1995]',-0.040,0.001,77.003,27.048,-0.238,-0.480
'[08:34:07.346 16/05/1995]',-0.040,0.001,77.003,27.048,-0.238,-0.480
'[08:34:07.348 16/05/1995]',-0.061,0.001,77.003,27.048,-0.238,-0.480
'[08:34:07.350 16/05/1995]',-0.040,0.001,77.003,27.048,-0.238,-0.480
'[08:34:07.352 16/05/1995]',-0.040,0.011,76.549,27.048,-0.238,-0.482
'[08:34:07.354 16/05/1995]',-0.040,0.001,76.549,27.048,-0.238,-0.482
'[08:34:07.356 16/05/1995]',-0.040,0.001,76.549,27.048,-0.238,-0.482
'[08:34:07.358 16/05/1995]',-0.040,0.001,76.549,27.048,-0.238,-0.482
'[08:34:07.360 16/05/1995]',-0.040,0.001,76.096,27.048,-0.251,-0.484
'[08:34:07.362 16/05/1995]',-0.040,0.011,76.096,27.048,-0.251,-0.484
'[08:34:07.364 16/05/1995]',-0.040,0.011,76.096,27.048,-0.251,-0.484
'[08:34:07.366 16/05/1995]',-0.040,0.011,76.096,27.048,-0.251,-0.484
'[08:34:07.368 16/05/1995]',-0.040,0.011,75.718,26.922,-0.251,-0.485
'[08:34:07.370 16/05/1995]',-0.040,0.011,75.718,26.922,-0.251,-0.485
'[08:34:07.372 16/05/1995]',-0.040,0.011,75.718,26.922,-0.251,-0.485
'[08:34:07.374 16/05/1995]',-0.040,0.001,75.718,26.922,-0.251,-0.485
'[08:34:07.376 16/05/1995]',-0.040,0.001,75.416,26.872,-0.238,-0.485
'[08:34:07.378 16/05/1995]',-0.040,0.001,75.416,26.872,-0.238,-0.485
'[08:34:07.380 16/05/1995]',-0.040,0.001,75.416,26.872,-0.238,-0.485
'[08:34:07.382 16/05/1995]',-0.040,0.011,75.416,26.872,-0.238,-0.485
'[08:34:07.384 16/05/1995]',-0.040,0.011,75.038,26.747,-0.251,-0.486
'[08:34:07.386 16/05/1995]',-0.040,0.011,75.038,26.747,-0.251,-0.486
'[08:34:07.388 16/05/1995]',-0.040,0.011,75.038,26.747,-0.251,-0.486
'[08:34:07.390 16/05/1995]',-0.040,0.011,75.038,26.747,-0.251,-0.486
'[08:34:07.392 16/05/1995]',-0.040,0.011,74.660,26.572,-0.263,-0.487
'[08:34:07.394 16/05/1995]',-0.040,0.011,74.660,26.572,-0.263,-0.487
'[08:34:07.396 16/05/1995]',-0.040,0.011,74.660,26.572,-0.263,-0.487
'[08:34:07.398 16/05/1995]',-0.040,0.001,74.660,26.572,-0.263,-0.487
'[08:34:07.400 16/05/1995]',-0.040,0.001,74.131,26.397,-0.251,-0.488
'[08:34:07.402 16/05/1995]',-0.040,0.011,74.131,26.397,-0.251,-0.488
'[08:34:07.404 16/05/1995]',-0.040,0.011,74.131,26.397,-0.251,-0.488
'[08:34:07.406 16/05/1995]',-0.040,0.001,74.131,26.397,-0.251,-0.488
'[08:34:07.408 16/05/1995]',-0.040,0.011,73.602,26.172,-0.263,-0.489
'[08:34:07.410 16/05/1995]',-0.040,0.001,73.602,26.172,-0.263,-0.489
'[08:34:07.412 16/05/1995]',-0.040,0.001,73.602,26.172,-0.263,-0.489
'[08:34:07.414 16/05/1995]',-0.040,0.001,73.602,26.172,-0.263,-0.489
'[08:34:07.416 16/05/1995]',-0.040,0.001,73.149,25.872,-0.275,-0.490
'[08:34:07.418 16/05/1995]',-0.040,0.001,73.149,25.872,-0.275,-0.490
'[08:34:07.420 16/05/1995]',-0.040,0.001,73.149,25.872,-0.275,-0.490
'[08:34:07.422 16/05/1995]',-0.019,0.001,73.149,25.872,-0.275,-0.490
'[08:34:07.424 16/05/1995]',-0.019,0.001,72.771,25.646,-0.263,-0.491
'[08:34:07.426 16/05/1995]',-0.019,0.001,72.771,25.646,-0.263,-0.491
'[08:34:07.428 16/05/1995]',-0.040,0.001,72.771,25.646,-0.263,-0.491
'[08:34:07.430 16/05/1995]',-0.040,0.001,72.771,25.646,-0.263,-0.491
'[08:34:07.432 16/05/1995]',-0.040,0.001,72.318,25.396,-0.275,-0.493
'[08:34:07.434 16/05/1995]',-0.040,0.001,72.318,25.396,-0.275,-0.493
'[08:34:07.436 16/05/1995]',-0.040,0.001,72.318,25.396,-0.275,-0.493
'[08:34:07.438 16/05/1995]',-0.040,0.001,72.318,25.396,-0.275,-0.493
'[08:34:07.440 16/05/1995]',-0.019,0.011,71.940,25.121,-0.286,-0.494
'[08:34:07.442 16/05/1995]',-0.019,0.011,71.940,25.121,-0.286,-0.494
'[08:34:07.444 16/05/1995]',-0.019,0.011,71.940,25.121,-0.286,-0.494
'[08:34:07.446 16/05/1995]',-0.019,0.011,71.940,25.121,-0.286,-0.494
'[08:34:07.448 16/05/1995]',-0.040,0.011,71.637,24.871,-0.275,-0.496
'[08:34:07.450 16/05/1995]',-0.040,0.001,71.637,24.871,-0.275,-0.496
'[08:34:07.452 16/05/1995]',-0.040,0.001,71.637,24.871,-0.275,-0.496
'[08:34:07.454 16/05/1995]',-0.019,0.001,71.637,24.871,-0.275,-0.496
'[08:34:07.456 16/05/1995]',-0.019,0.001,71.260,24.696,-0.275,-0.497
'[08:34:07.458 16/05/1995]',-0.019,0.011,71.260,24.696,-0.275,-0.497
'[08:34:07.460 16/05/1995]',-0.019,0.001,71.260,24.696,-0.275,-0.497
'[08:34:07.462 16/05/1995]',-0.019,0.001,71.260,24.696,-0.275,-0.497
'[08:34:07.464 16/05/1995]',-0.040,0.001,70.957,24.520,-0.286,-0.498
'[08:34:07.466 16/05/1995]',-0.040,0.001,70.957,24.520,-0.286,-0.498
'[08:34:07.468 16/05/1995]',-0.040,0.001,70.957,24.520,-0.286,-0.498
'[08:34:07.470 16/05/1995]',-0.019,0.001,70.957,24.520,-0.286,-0.498
'[08:34:07.472 16/05/1995]',-0.019,0.001,70.655,24.395,-0.275,-0.499
'[08:34:07.474 16/05/1995]',-0.019,0.001,70.655,24.395,-0.275,-0.499
'[08:34:07.476 16/05/1995]',-0.019,0.011,70.655,24.395,-0.275,-0.499
'[08:34:07.478 16/05/1995]',-0.019,0.001,70.655,24.395,-0.275,-0.499
'[08:34:07.480 16/05/1995]',-0.019,0.001,70.353,24.295,-0.286,-0.500
'[08:34:07.482 16/05/1995]',-0.019,0.001,70.353,24.295,-0.286,-0.500
'[08:34:07.484 16/05/1995]',-0.019,0.001,70.353,24.295,-0.286,-0.500
'[08:34:07.486 16/05/1995]',-0.019,0.001,70.353,24.295,-0.286,-0.500
'[08:34:07.488 16/05/1995]',-0.019,0.001,70.051,24.170,-0.298,-0.501
'[08:34:07.490 16/05/1995]',-0.019,0.001,70.051,24.170,-0.298,-0.501
'[08:34:07.492 16/05/1995]',-0.019,0.001,70.051,24.170,-0.298,-0.501
'[08:34:07.494 16/05/1995]',-0.019,0.001,70.051,24.170,-0.298,-0.501
'[08:34:07.496 16/05/1995]',-0.019,0.001,69.673,24.045,-0.286,-0.502
'[08:34:07.498 16/05/1995]',-0.019,0.001,69.673,24.045,-0.286,-0.502
'[08:34:07.500 16/05/1995]',-0.019,0.001,69.673,24.045,-0.286,-0.502
'[08:34:07.502 16/05/1995]',-0.019,0.001,69.673,24.045,-0.286,-0.502
'[08:34:07.504 16/05/1995]',0.002,0.001,69.295,23.995,-0.286,-0.502
'[08:34:07.506 16/05/1995]',0.002,0.001,69.295,23.995,-0.286,-0.502
'[08:34:07.508 16/05/1995]',0.002,0.001,69.295,23.995,-0.286,-0.502
'[08:34:07.510 16/05/1995]',0.002,0.001,69.295,23.995,-0.286,-0.502
'[08:34:07.512 16/05/1995]',0.002,0.001,68.993,23.870,-0.298,-0.503
'[08:34:07.514 16/05/1995]',0.002,0.001,68.993,23.870,-0.298,-0.503
'[08:34:07.516 16/05/1995]',0.002,0.001,68.993,23.870,-0.298,-0.503
'[08:34:07.518 16/05/1995]',0.002,0.001,68.993,23.870,-0.298,-0.503
'[08:34:07.520 16/05/1995]',0.002,0.001,68.690,23.820,-0.298,-0.503
'[08:34:07.522 16/05/1995]',0.002,0.001,68.690,23.820,-0.298,-0.503
'[08:34:07.524 16/05/1995]',0.002,0.001,68.690,23.820,-0.298,-0.503
'[08:34:07.526 16/05/1995]',0.002,0.001,68.690,23.820,-0.298,-0.503
'[08:34:07.528 16/05/1995]',0.002,0.001,68.464,23.770,-0.298,-0.504
'[08:34:07.530 16/05/1995]',0.002,0.001,68.464,23.770,-0.298,-0.504
'[08:34:07.532 16/05/1995]',0.002,0.001,68.464,23.770,-0.298,-0.504
'[08:34:07.534 16/05/1995]',0.022,0.011,68.464,23.770,-0.298,-0.504
'[08:34:07.536 16/05/1995]',0.022,0.011,68.161,23.770,-0.275,-0.504
'[08:34:07.538 16/05/1995]',0.043,0.021,68.161,23.770,-0.275,-0.504
'[08:34:07.540 16/05/1995]',0.043,0.021,68.161,23.770,-0.275,-0.504
'[08:34:07.542 16/05/1995]',0.043,0.021,68.161,23.770,-0.275,-0.504
'[08:34:07.544 16/05/1995]',0.043,0.011,67.859,23.695,-0.275,-0.505
'[08:34:07.546 16/05/1995]',0.043,0.011,67.859,23.695,-0.275,-0.505
'[08:34:07.548 16/05/1995]',0.043,0.011,67.859,23.695,-0.275,-0.505
'[08:34:07.550 16/05/1995]',0.043,0.011,67.859,23.695,-0.275,-0.505
'[08:34:07.552 16/05/1995]',0.043,0.011,67.557,23.595,-0.275,-0.505
'[08:34:07.554 16/05/1995]',0.043,0.011,67.557,23.595,-0.275,-0.505
'[08:34:07.556 16/05/1995]',0.064,0.011,67.557,23.595,-0.275,-0.505
'[08:34:07.558 16/05/1995]',0.064,0.021,67.557,23.595,-0.275,-0.505
'[08:34:07.560 16/05/1995]',0.064,0.021,67.179,23.520,-0.286,-0.506
'[08:34:07.562 16/05/1995]',0.064,0.021,67.179,23.520,-0.286,-0.506
'[08:34:07.564 16/05/1995]',0.043,0.021,67.179,23.520,-0.286,-0.506
'[08:34:07.566 16/05/1995]',0.043,0.032,67.179,23.520,-0.286,-0.506
'[08:34:07.568 16/05/1995]',0.043,0.021,66.877,23.419,-0.286,-0.506
'[08:34:07.570 16/05/1995]',0.043,0.021,66.877,23.419,-0.286,-0.506
'[08:34:07.572 16/05/1995]',0.043,0.021,66.877,23.419,-0.286,-0.506
'[08:34:07.574 16/05/1995]',0.043,0.021,66.877,23.419,-0.286,-0.506
'[08:34:07.576 16/05/1995]',0.043,0.021,66.574,23.294,-0.275,-0.506
'[08:34:07.578 16/05/1995]',0.043,0.021,66.574,23.294,-0.275,-0.506
'[08:34:07.580 16/05/1995]',0.022,0.021,66.574,23.294,-0.275,-0.506
'[08:34:07.582 16/05/1995]',0.022,0.021,66.574,23.294,-0.275,-0.506
'[08:34:07.584 16/05/1995]',0.002,0.021,66.348,23.169,-0.286,-0.506
'[08:34:07.586 16/05/1995]',0.002,0.011,66.348,23.169,-0.286,-0.506
'[08:34:07.588 16/05/1995]',0.002,0.001,66.348,23.169,-0.286,-0.506
'[08:34:07.590 16/05/1995]',0.002,0.001,66.348,23.169,-0.286,-0.506
'[08:34:07.592 16/05/1995]',0.002,0.001,66.121,23.069,-0.286,-0.507
'[08:34:07.594 16/05/1995]',0.002,0.001,66.121,23.069,-0.286,-0.507
'[08:34:07.596 16/05/1995]',0.002,0.001,66.121,23.069,-0.286,-0.507
'[08:34:07.598 16/05/1995]',-0.019,0.001,66.121,23.069,-0.286,-0.507
'[08:34:07.600 16/05/1995]',-0.019,0.001,65.970,22.944,-0.275,-0.507
'[08:34:07.602 16/05/1995]',-0.019,0.001,65.970,22.944,-0.275,-0.507
'[08:34:07.604 16/05/1995]',-0.019,0.001,65.970,22.944,-0.275,-0.507
'[08:34:07.606 16/05/1995]',-0.019,0.001,65.970,22.944,-0.275,-0.507
'[08:34:07.608 16/05/1995]',-0.019,0.001,65.819,22.894,-0.286,-0.507
'[08:34:07.610 16/05/1995]',-0.019,0.001,65.819,22.894,-0.286,-0.507
'[08:34:07.612 16/05/1995]',-0.040,0.001,65.819,22.894,-0.286,-0.507
'[08:34:07.614 16/05/1995]',-0.040,0.001,65.819,22.894,-0.286,-0.507
'[08:34:07.616 16/05/1995]',-0.040,0.001,65.592,22.819,-0.286,-0.507
'[08:34:07.618 16/05/1995]',-0.040,0.001,65.592,22.819,-0.286,-0.507
'[08:34:07.620 16/05/1995]',-0.040,0.001,65.592,22.819,-0.286,-0.507
'[08:34:07.622 16/05/1995]',-0.019,0.001,65.592,22.819,-0.286,-0.507
'[08:34:07.624 16/05/1995]',-0.019,0.001,65.290,22.819,-0.275,-0.506
'[08:34:07.626 16/05/1995]',-0.019,0.001,65.290,22.819,-0.275,-0.506
'[08:34:07.628 16/05/1995]',-0.019,0.001,65.290,22.819,-0.275,-0.506
'[08:34:07.630 16/05/1995]',-0.040,0.001,65.290,22.819,-0.275,-0.506
'[08:34:07.632 16/05/1995]',-0.019,0.001,64.912,22.894,-0.275,-0.506
'[08:34:07.634 16/05/1995]',-0.019,0.001,64.912,22.894,-0.275,-0.506
'[08:34:07.636 16/05/1995]',-0.019,0.001,64.912,22.894,-0.275,-0.506
'[08:34:07.638 16/05/1995]',-0.019,0.001,64.912,22.894,-0.275,-0.506
'[08:34:07.640 16/05/1995]',-0.019,0.001,64.685,22.944,-0.275,-0.505
'[08:34:07.642 16/05/1995]',-0.019,0.001,64.685,22.944,-0.275,-0.505
'[08:34:07.644 16/05/1995]',-0.019,0.001,64.685,22.944,-0.275,-0.505
'[08:34:07.646 16/05/1995]',-0.019,0.001,64.685,22.944,-0.275,-0.505
'[08:34:07.648 16/05/1995]',-0.019,0.001,64.383,23.069,-0.286,-0.503
'[08:34:07.650 16/05/1995]',-0.019,0.001,64.383,23.069,-0.286,-0.503
'[08:34:07.652 16/05/1995]',-0.019,-0.009,64.383,23.069,-0.286,-0.503
'[08:34:07.654 16/05/1995]',-0.040,-0.009,64.383,23.069,-0.286,-0.503
'[08:34:07.656 16/05/1995]',-0.061,-0.030,64.156,23.119,-0.286,-0.501
'[08:34:07.658 16/05/1995]',-0.061,-0.030,64.156,23.119,-0.286,-0.501
'[08:34:07.660 16/05/1995]',-0.082,-0.041,64.156,23.119,-0.286,-0.501
'[08:34:07.662 16/05/1995]',-0.082,-0.041,64.156,23.119,-0.286,-0.501
'[08:34:07.664 16/05/1995]',-0.082,-0.041,64.005,23.244,-0.275,-0.499
'[08:34:07.666 16/05/1995]',-0.040,-0.051,64.005,23.244,-0.275,-0.499
'[08:34:07.668 16/05/1995]',0.002,-0.062,64.005,23.244,-0.275,-0.499
'[08:34:07.670 16/05/1995]',0.043,-0.062,64.005,23.244,-0.275,-0.499
'[08:34:07.672 16/05/1995]',0.106,-0.051,63.854,23.294,-0.275,-0.496
'[08:34:07.674 16/05/1995]',0.190,-0.041,63.854,23.294,-0.275,-0.496
'[08:34:07.676 16/05/1995]',0.274,0.001,63.854,23.294,-0.275,-0.496
'[08:34:07.678 16/05/1995]',0.336,0.032,63.854,23.294,-0.275,-0.496
'[08:34:07.680 16/05/1995]',0.441,0.084,63.627,23.294,-0.275,-0.494
'[08:34:07.682 16/05/1995]',0.504,0.126,63.627,23.294,-0.275,-0.494
'[08:34:07.684 16/05/1995]',0.588,0.177,63.627,23.294,-0.275,-0.494
'[08:34:07.686 16/05/1995]',0.671,0.240,63.627,23.294,-0.275,-0.494
'[08:34:07.688 16/05/1995]',0.692,0.292,63.476,23.169,-0.275,-0.492
'[08:34:07.690 16/05/1995]',0.629,0.333,63.476,23.169,-0.275,-0.492
'[08:34:07.692 16/05/1995]',0.567,0.354,63.476,23.169,-0.275,-0.492
'[08:34:07.694 16/05/1995]',0.483,0.354,63.476,23.169,-0.275,-0.492
'[08:34:07.696 16/05/1995]',0.399,0.313,63.325,22.944,-0.263,-0.490
'[08:34:07.698 16/05/1995]',0.274,0.219,63.325,22.944,-0.263,-0.490
'[08:34:07.700 16/05/1995]',0.106,0.084,63.325,22.944,-0.263,-0.490
'[08:34:07.702 16/05/1995]',-0.040,-0.030,63.325,22.944,-0.263,-0.490
'[08:34:07.704 16/05/1995]',-0.166,-0.103,63.098,22.644,-0.263,-0.488
'[08:34:07.706 16/05/1995]',-0.229,-0.155,63.098,22.644,-0.263,-0.488
'[08:34:07.708 16/05/1995]',-0.292,-0.176,63.098,22.644,-0.263,-0.488
'[08:34:07.710 16/05/1995]',-0.354,-0.197,63.098,22.644,-0.263,-0.488
'[08:34:07.712 16/05/1995]',-0.375,-0.218,63.023,22.344,-0.275,-0.487
'[08:34:07.714 16/05/1995]',-0.396,-0.218,63.023,22.344,-0.275,-0.487
'[08:34:07.716 16/05/1995]',-0.396,-0.228,63.023,22.344,-0.275,-0.487
'[08:34:07.718 16/05/1995]',-0.417,-0.228,63.023,22.344,-0.275,-0.487
'[08:34:07.720 16/05/1995]',-0.438,-0.239,62.947,22.068,-0.275,-0.485
'[08:34:07.722 16/05/1995]',-0.438,-0.249,62.947,22.068,-0.275,-0.485
'[08:34:07.724 16/05/1995]',-0.480,-0.249,62.947,22.068,-0.275,-0.485
'[08:34:07.726 16/05/1995]',-0.501,-0.259,62.947,22.068,-0.275,-0.485
'[08:34:07.728 16/05/1995]',-0.543,-0.270,62.796,21.818,-0.251,-0.483
'[08:34:07.730 16/05/1995]',-0.564,-0.270,62.796,21.818,-0.251,-0.483
'[08:34:07.732 16/05/1995]',-0.606,-0.270,62.796,21.818,-0.251,-0.483
'[08:34:07.734 16/05/1995]',-0.627,-0.270,62.796,21.818,-0.251,-0.483
'[08:34:07.736 16/05/1995]',-0.627,-0.270,62.796,21.593,-0.251,-0.482
'[08:34:07.738 16/05/1995]',-0.669,-0.270,62.796,21.593,-0.251,-0.482
'[08:34:07.740 16/05/1995]',-0.669,-0.280,62.796,21.593,-0.251,-0.482
'[08:34:07.742 16/05/1995]',-0.711,-0.291,62.796,21.593,-0.251,-0.482
'[08:34:07.744 16/05/1995]',-0.732,-0.291,62.645,21.418,-0.251,-0.480
'[08:34:07.746 16/05/1995]',-0.753,-0.280,62.645,21.418,-0.251,-0.480
'[08:34:07.748 16/05/1995]',-0.753,-0.280,62.645,21.418,-0.251,-0.480
'[08:34:07.750 16/05/1995]',-0.753,-0.280,62.645,21.418,-0.251,-0.480
'[08:34:07.752 16/05/1995]',-0.753,-0.270,62.494,21.293,-0.251,-0.478
'[08:34:07.754 16/05/1995]',-0.774,-0.270,62.494,21.293,-0.251,-0.478
'[08:34:07.756 16/05/1995]',-0.753,-0.270,62.494,21.293,-0.251,-0.478
'[08:34:07.758 16/05/1995]',-0.711,-0.249,62.494,21.293,-0.251,-0.478
'[08:34:07.760 16/05/1995]',-0.648,-0.218,62.418,21.368,-0.238,-0.476
'[08:34:07.762 16/05/1995]',-0.585,-0.197,62.418,21.368,-0.238,-0.476
'[08:34:07.764 16/05/1995]',-0.501,-0.176,62.418,21.368,-0.238,-0.476
'[08:34:07.766 16/05/1995]',-0.438,-0.155,62.418,21.368,-0.238,-0.476
'[08:34:07.768 16/05/1995]',-0.354,-0.135,62.267,21.468,-0.238,-0.474
'[08:34:07.770 16/05/1995]',-0.292,-0.103,62.267,21.468,-0.238,-0.474
'[08:34:07.772 16/05/1995]',-0.229,-0.083,62.267,21.468,-0.238,-0.474
'[08:34:07.774 16/05/1995]',-0.166,-0.062,62.267,21.468,-0.238,-0.474
'[08:34:07.776 16/05/1995]',-0.103,-0.041,62.192,21.593,-0.238,-0.472
'[08:34:07.778 16/05/1995]',-0.040,-0.020,62.192,21.593,-0.238,-0.472
'[08:34:07.780 16/05/1995]',-0.019,-0.009,62.192,21.593,-0.238,-0.472
'[08:34:07.782 16/05/1995]',0.002,0.001,62.192,21.593,-0.238,-0.472
'[08:34:07.784 16/05/1995]',0.002,0.001,62.116,21.768,-0.238,-0.470
'[08:34:07.786 16/05/1995]',0.022,0.011,62.116,21.768,-0.238,-0.470
'[08:34:07.788 16/05/1995]',0.043,0.011,62.116,21.768,-0.238,-0.470
'[08:34:07.790 16/05/1995]',0.043,0.021,62.116,21.768,-0.238,-0.470
'[08:34:07.792 16/05/1995]',0.043,0.021,62.040,21.943,-0.227,-0.468
'[08:34:07.794 16/05/1995]',0.043,0.021,62.040,21.943,-0.227,-0.468
'[08:34:07.796 16/05/1995]',0.043,0.021,62.040,21.943,-0.227,-0.468
'[08:34:07.798 16/05/1995]',0.043,0.021,62.040,21.943,-0.227,-0.468
'[08:34:07.800 16/05/1995]',0.064,0.021,61.965,22.168,-0.227,-0.465
'[08:34:07.802 16/05/1995]',0.064,0.011,61.965,22.168,-0.227,-0.465
'[08:34:07.804 16/05/1995]',0.064,0.021,61.965,22.168,-0.227,-0.465
'[08:34:07.806 16/05/1995]',0.064,0.021,61.965,22.168,-0.227,-0.465
'[08:34:07.808 16/05/1995]',0.064,0.021,61.738,22.594,-0.227,-0.463
'[08:34:07.810 16/05/1995]',0.064,0.021,61.738,22.594,-0.227,-0.463
'[08:34:07.812 16/05/1995]',0.064,0.021,61.738,22.594,-0.227,-0.463
'[08:34:07.814 16/05/1995]',0.064,0.021,61.738,22.594,-0.227,-0.463
'[08:34:07.816 16/05/1995]',0.064,0.021,61.436,23.119,-0.238,-0.462
'[08:34:07.818 16/05/1995]',0.064,0.021,61.436,23.119,-0.238,-0.462
'[08:34:07.820 16/05/1995]',0.064,0.011,61.436,23.119,-0.238,-0.462
'[08:34:07.822 16/05/1995]',0.085,0.021,61.436,23.119,-0.238,-0.462
'[08:34:07.824 16/05/1995]',0.085,0.032,61.134,23.770,-0.227,-0.461
'[08:34:07.826 16/05/1995]',0.085,0.021,61.134,23.770,-0.227,-0.461
'[08:34:07.828 16/05/1995]',0.085,0.032,61.134,23.770,-0.227,-0.461
'[08:34:07.830 16/05/1995]',0.085,0.021,61.134,23.770,-0.227,-0.461
'[08:34:07.832 16/05/1995]',0.064,0.032,60.831,24.345,-0.238,-0.461
'[08:34:07.834 16/05/1995]',0.064,0.021,60.831,24.345,-0.238,-0.461
'[08:34:07.836 16/05/1995]',0.064,0.021,60.831,24.345,-0.238,-0.461
'[08:34:07.838 16/05/1995]',0.064,0.021,60.831,24.345,-0.238,-0.461
'[08:34:07.840 16/05/1995]',0.064,0.032,60.605,24.821,-0.238,-0.460
'[08:34:07.842 16/05/1995]',0.064,0.032,60.605,24.821,-0.238,-0.460
'[08:34:07.844 16/05/1995]',0.064,0.032,60.605,24.821,-0.238,-0.460
'[08:34:07.846 16/05/1995]',0.064,0.032,60.605,24.821,-0.238,-0.460
'[08:34:07.848 16/05/1995]',0.064,0.032,60.454,25.121,-0.227,-0.460
'[08:34:07.850 16/05/1995]',0.043,0.021,60.454,25.121,-0.227,-0.460
'[08:34:07.852 16/05/1995]',0.064,0.021,60.454,25.121,-0.227,-0.460
'[08:34:07.854 16/05/1995]',0.064,0.021,60.454,25.121,-0.227,-0.460
'[08:34:07.856 16/05/1995]',0.064,0.021,60.529,25.171,-0.238,-0.459
'[08:34:07.858 16/05/1995]',0.064,0.021,60.529,25.171,-0.238,-0.459
'[08:34:07.860 16/05/1995]',0.064,0.021,60.529,25.171,-0.238,-0.459
'[08:34:07.862 16/05/1995]',0.064,0.021,60.529,25.171,-0.238,-0.459
'[08:34:07.864 16/05/1995]',0.064,0.021,61.058,25.121,-0.238,-0.459
'[08:34:07.866 16/05/1995]',0.064,0.021,61.058,25.121,-0.238,-0.459
'[08:34:07.868 16/05/1995]',0.085,0.032,61.058,25.121,-0.238,-0.459
'[08:34:07.870 16/05/1995]',0.085,0.032,61.058,25.121,-0.238,-0.459
'[08:34:07.872 16/05/1995]',0.085,0.042,62.418,25.171,-0.251,-0.460
'[08:34:07.874 16/05/1995]',0.085,0.042,62.418,25.171,-0.251,-0.460
'[08:34:07.876 16/05/1995]',0.085,0.032,62.418,25.171,-0.251,-0.460
'[08:34:07.878 16/05/1995]',0.085,0.032,62.418,25.171,-0.251,-0.460
'[08:34:07.880 16/05/1995]',0.085,0.021,64.912,25.646,-0.227,-0.461
'[08:34:07.882 16/05/1995]',0.085,0.021,64.912,25.646,-0.227,-0.461
'[08:34:07.884 16/05/1995]',0.085,0.021,64.912,25.646,-0.227,-0.461
'[08:34:07.886 16/05/1995]',0.085,0.021,64.912,25.646,-0.227,-0.461
'[08:34:07.888 16/05/1995]',0.085,0.032,68.766,26.572,-0.238,-0.462
'[08:34:07.890 16/05/1995]',0.085,0.032,68.766,26.572,-0.238,-0.462
'[08:34:07.892 16/05/1995]',0.064,0.032,68.766,26.572,-0.238,-0.462
'[08:34:07.894 16/05/1995]',0.085,0.032,68.766,26.572,-0.238,-0.462
'[08:34:07.896 16/05/1995]',0.064,0.021,74.207,27.698,-0.238,-0.463
'[08:34:07.898 16/05/1995]',0.085,0.032,74.207,27.698,-0.238,-0.463
'[08:34:07.900 16/05/1995]',0.085,0.021,74.207,27.698,-0.238,-0.463
'[08:34:07.902 16/05/1995]',0.085,0.021,74.207,27.698,-0.238,-0.463
'[08:34:07.904 16/05/1995]',0.085,0.021,81.083,28.799,-0.238,-0.464
'[08:34:07.906 16/05/1995]',0.085,0.032,81.083,28.799,-0.238,-0.464
'[08:34:07.908 16/05/1995]',0.085,0.021,81.083,28.799,-0.238,-0.464
'[08:34:07.910 16/05/1995]',0.085,0.021,81.083,28.799,-0.238,-0.464
'[08:34:07.912 16/05/1995]',0.085,0.011,89.093,29.850,-0.227,-0.464
'[08:34:07.914 16/05/1995]',0.085,0.011,89.093,29.850,-0.227,-0.464
'[08:34:07.916 16/05/1995]',0.085,0.011,89.093,29.850,-0.227,-0.464
'[08:34:07.918 16/05/1995]',0.085,0.021,89.093,29.850,-0.227,-0.464
'[08:34:07.920 16/05/1995]',0.085,0.021,98.010,30.801,-0.227,-0.463
'[08:34:07.922 16/05/1995]',0.085,0.011,98.010,30.801,-0.227,-0.463
'[08:34:07.924 16/05/1995]',0.085,0.021,98.010,30.801,-0.227,-0.463
'[08:34:07.926 16/05/1995]',0.106,0.021,98.010,30.801,-0.227,-0.463
'[08:34:07.928 16/05/1995]',0.085,0.011,107.154,31.801,-0.215,-0.462
'[08:34:07.930 16/05/1995]',0.085,0.011,107.154,31.801,-0.215,-0.462
'[08:34:07.932 16/05/1995]',0.085,0.011,107.154,31.801,-0.215,-0.462
'[08:34:07.934 16/05/1995]',0.085,0.021,107.154,31.801,-0.215,-0.462
'[08:34:07.936 16/05/1995]',0.106,0.021,116.222,33.153,-0.215,-0.461
'[08:34:07.938 16/05/1995]',0.106,0.021,116.222,33.153,-0.215,-0.461
'[08:34:07.940 16/05/1995]',0.106,0.021,116.222,33.153,-0.215,-0.461
'[08:34:07.942 16/05/1995]',0.106,0.021,116.222,33.153,-0.215,-0.461
'[08:34:07.944 16/05/1995]',0.106,0.021,124.459,34.854,-0.203,-0.460
'[08:34:07.946 16/05/1995]',0.106,0.021,124.459,34.854,-0.203,-0.460
'[08:34:07.948 16/05/1995]',0.106,0.021,124.459,34.854,-0.203,-0.460
'[08:34:07.950 16/05/1995]',0.106,0.011,124.459,34.854,-0.203,-0.460
'[08:34:07.952 16/05/1995]',0.106,0.021,131.713,36.781,-0.191,-0.458
'[08:34:07.954 16/05/1995]',0.106,0.021,131.713,36.781,-0.191,-0.458
'[08:34:07.956 16/05/1995]',0.106,0.021,131.713,36.781,-0.191,-0.458
'[08:34:07.958 16/05/1995]',0.106,0.021,131.713,36.781,-0.191,-0.458
'[08:34:07.960 16/05/1995]',0.106,0.032,137.683,38.782,-0.167,-0.456
'[08:34:07.962 16/05/1995]',0.106,0.032,137.683,38.782,-0.167,-0.456
'[08:34:07.964 16/05/1995]',0.106,0.032,137.683,38.782,-0.167,-0.456
'[08:34:07.966 16/05/1995]',0.127,0.032,137.683,38.782,-0.167,-0.456
'[08:34:07.968 16/05/1995]',0.127,0.032,142.444,40.759,-0.143,-0.454
'[08:34:07.970 16/05/1995]',0.127,0.021,142.444,40.759,-0.143,-0.454
'[08:34:07.972 16/05/1995]',0.127,0.021,142.444,40.759,-0.143,-0.454
'[08:34:07.974 16/05/1995]',0.127,0.011,142.444,40.759,-0.143,-0.454
'[08:34:07.976 16/05/1995]',0.127,0.011,146.146,42.585,-0.119,-0.451
'[08:34:07.978 16/05/1995]',0.127,0.011,146.146,42.585,-0.119,-0.451
'[08:34:07.980 16/05/1995]',0.127,0.021,146.146,42.585,-0.119,-0.451
'[08:34:07.982 16/05/1995]',0.148,0.021,146.146,42.585,-0.119,-0.451
'[08:34:07.984 16/05/1995]',0.148,0.032,148.867,44.162,-0.096,-0.449
'[08:34:07.986 16/05/1995]',0.148,0.021,148.867,44.162,-0.096,-0.449
'[08:34:07.988 16/05/1995]',0.148,0.021,148.867,44.162,-0.096,-0.449
'[08:34:07.990 16/05/1995]',0.169,0.021,148.867,44.162,-0.096,-0.449
'[08:34:07.992 16/05/1995]',0.169,0.011,150.832,45.413,-0.059,-0.446
'[08:34:07.994 16/05/1995]',0.148,0.011,150.832,45.413,-0.059,-0.446
'[08:34:07.996 16/05/1995]',0.148,0.001,150.832,45.413,-0.059,-0.446
'[08:34:07.998 16/05/1995]',0.169,0.001,150.832,45.413,-0.059,-0.446
'[08:34:08.000 16/05/1995]',0.169,0.011,152.267,46.339,-0.035,-0.444
'[08:34:08.002 16/05/1995]',0.169,0.011,152.267,46.339,-0.035,-0.444
'[08:34:08.004 16/05/1995]',0.169,0.011,152.267,46.339,-0.035,-0.444
'[08:34:08.006 16/05/1995]',0.169,0.011,152.267,46.339,-0.035,-0.444
'[08:34:08.008 16/05/1995]',0.190,0.011,153.401,46.864,0.012,-0.442
'[08:34:08.010 16/05/1995]',0.190,0.011,153.401,46.864,0.012,-0.442
'[08:34:08.012 16/05/1995]',0.190,0.011,153.401,46.864,0.012,-0.442
'[08:34:08.014 16/05/1995]',0.169,0.001,153.401,46.864,0.012,-0.442
'[08:34:08.016 16/05/1995]',0.190,0.001,154.232,47.164,0.036,-0.440
'[08:34:08.018 16/05/1995]',0.190,0.001,154.232,47.164,0.036,-0.440
'[08:34:08.020 16/05/1995]',0.211,0.001,154.232,47.164,0.036,-0.440
'[08:34:08.022 16/05/1995]',0.190,0.001,154.232,47.164,0.036,-0.440
'[08:34:08.024 16/05/1995]',0.211,0.001,154.988,47.339,0.084,-0.439
'[08:34:08.026 16/05/1995]',0.211,0.001,154.988,47.339,0.084,-0.439
'[08:34:08.028 16/05/1995]',0.211,0.001,154.988,47.339,0.084,-0.439
'[08:34:08.030 16/05/1995]',0.211,0.001,154.988,47.339,0.084,-0.439
'[08:34:08.032 16/05/1995]',0.211,0.001,155.592,47.389,0.119,-0.436
'[08:34:08.034 16/05/1995]',0.211,0.001,155.592,47.389,0.119,-0.436
'[08:34:08.036 16/05/1995]',0.232,0.001,155.592,47.389,0.119,-0.436
'[08:34:08.038 16/05/1995]',0.232,0.001,155.592,47.389,0.119,-0.436
'[08:34:08.040 16/05/1995]',0.232,0.001,156.197,47.465,0.132,-0.433
'[08:34:08.042 16/05/1995]',0.232,0.001,156.197,47.465,0.132,-0.433
'[08:34:08.044 16/05/1995]',0.253,-0.009,156.197,47.465,0.132,-0.433
'[08:34:08.046 16/05/1995]',0.253,-0.020,156.197,47.465,0.132,-0.433
'[08:34:08.048 16/05/1995]',0.253,-0.020,156.726,47.515,0.155,-0.430
'[08:34:08.050 16/05/1995]',0.253,-0.020,156.726,47.515,0.155,-0.430
'[08:34:08.052 16/05/1995]',0.253,-0.020,156.726,47.515,0.155,-0.430
'[08:34:08.054 16/05/1995]',0.253,-0.009,156.726,47.515,0.155,-0.430
'[08:34:08.056 16/05/1995]',0.274,-0.009,157.255,47.640,0.179,-0.427
'[08:34:08.058 16/05/1995]',0.274,-0.009,157.255,47.640,0.179,-0.427
'[08:34:08.060 16/05/1995]',0.274,-0.009,157.255,47.640,0.179,-0.427
'[08:34:08.062 16/05/1995]',0.274,0.001,157.255,47.640,0.179,-0.427
'[08:34:08.064 16/05/1995]',0.274,0.001,157.708,47.815,0.191,-0.423
'[08:34:08.066 16/05/1995]',0.274,-0.009,157.708,47.815,0.191,-0.423
'[08:34:08.068 16/05/1995]',0.274,-0.009,157.708,47.815,0.191,-0.423
'[08:34:08.070 16/05/1995]',0.274,-0.009,157.708,47.815,0.191,-0.423
'[08:34:08.072 16/05/1995]',0.274,-0.009,158.010,47.990,0.227,-0.420
'[08:34:08.074 16/05/1995]',0.274,-0.009,158.010,47.990,0.227,-0.420
'[08:34:08.076 16/05/1995]',0.274,-0.009,158.010,47.990,0.227,-0.420
'[08:34:08.078 16/05/1995]',0.274,-0.009,158.010,47.990,0.227,-0.420
'[08:34:08.080 16/05/1995]',0.274,-0.009,158.086,48.090,0.227,-0.416
'[08:34:08.082 16/05/1995]',0.274,-0.009,158.086,48.090,0.227,-0.416
'[08:34:08.084 16/05/1995]',0.274,-0.009,158.086,48.090,0.227,-0.416
'[08:34:08.086 16/05/1995]',0.274,-0.020,158.086,48.090,0.227,-0.416
'[08:34:08.088 16/05/1995]',0.274,-0.009,158.010,48.165,0.239,-0.413
'[08:34:08.090 16/05/1995]',0.253,-0.009,158.010,48.165,0.239,-0.413
'[08:34:08.092 16/05/1995]',0.253,-0.020,158.010,48.165,0.239,-0.413
'[08:34:08.094 16/05/1995]',0.253,-0.009,158.010,48.165,0.239,-0.413
'[08:34:08.096 16/05/1995]',0.232,-0.020,157.633,48.165,0.239,-0.409
'[08:34:08.098 16/05/1995]',0.232,-0.020,157.633,48.165,0.239,-0.409
'[08:34:08.100 16/05/1995]',0.232,-0.020,157.633,48.165,0.239,-0.409
'[08:34:08.102 16/05/1995]',0.211,-0.020,157.633,48.165,0.239,-0.409
'[08:34:08.104 16/05/1995]',0.211,-0.020,156.953,48.090,0.251,-0.406
'[08:34:08.106 16/05/1995]',0.211,-0.020,156.953,48.090,0.251,-0.406
'[08:34:08.108 16/05/1995]',0.211,-0.020,156.953,48.090,0.251,-0.406
'[08:34:08.110 16/05/1995]',0.190,-0.020,156.953,48.090,0.251,-0.406
'[08:34:08.112 16/05/1995]',0.190,-0.020,156.046,48.040,0.263,-0.403
'[08:34:08.114 16/05/1995]',0.190,-0.009,156.046,48.040,0.263,-0.403
'[08:34:08.116 16/05/1995]',0.169,-0.009,156.046,48.040,0.263,-0.403
'[08:34:08.118 16/05/1995]',0.169,-0.009,156.046,48.040,0.263,-0.403
'[08:34:08.120 16/05/1995]',0.169,-0.009,154.686,47.990,0.275,-0.399
'[08:34:08.122 16/05/1995]',0.169,0.001,154.686,47.990,0.275,-0.399
'[08:34:08.124 16/05/1995]',0.148,0.001,154.686,47.990,0.275,-0.399
'[08:34:08.126 16/05/1995]',0.127,0.001,154.686,47.990,0.275,-0.399
'[08:34:08.128 16/05/1995]',0.127,0.001,153.023,47.990,0.275,-0.396
'[08:34:08.130 16/05/1995]',0.106,0.001,153.023,47.990,0.275,-0.396
'[08:34:08.132 16/05/1995]',0.106,0.001,153.023,47.990,0.275,-0.396
'[08:34:08.134 16/05/1995]',0.106,0.001,153.023,47.990,0.275,-0.396
'[08:34:08.136 16/05/1995]',0.085,-0.009,150.907,47.990,0.275,-0.393
'[08:34:08.138 16/05/1995]',0.085,0.001,150.907,47.990,0.275,-0.393
'[08:34:08.140 16/05/1995]',0.064,-0.009,150.907,47.990,0.275,-0.393
'[08:34:08.142 16/05/1995]',0.064,-0.009,150.907,47.990,0.275,-0.393
'[08:34:08.144 16/05/1995]',0.043,0.001,148.338,47.915,0.286,-0.390
'[08:34:08.146 16/05/1995]',0.043,0.001,148.338,47.915,0.286,-0.390
'[08:34:08.148 16/05/1995]',0.043,0.001,148.338,47.915,0.286,-0.390
'[08:34:08.150 16/05/1995]',0.043,0.001,148.338,47.915,0.286,-0.390
'[08:34:08.152 16/05/1995]',0.022,0.001,145.240,47.815,0.275,-0.388
'[08:34:08.154 16/05/1995]',0.022,0.001,145.240,47.815,0.275,-0.388
'[08:34:08.156 16/05/1995]',0.002,0.001,145.240,47.815,0.275,-0.388
'[08:34:08.158 16/05/1995]',0.002,0.001,145.240,47.815,0.275,-0.388
'[08:34:08.160 16/05/1995]',0.002,0.001,141.688,47.640,0.286,-0.385
'[08:34:08.162 16/05/1995]',0.002,0.001,141.688,47.640,0.286,-0.385
'[08:34:08.164 16/05/1995]',0.002,0.001,141.688,47.640,0.286,-0.385
'[08:34:08.166 16/05/1995]',0.002,0.001,141.688,47.640,0.286,-0.385
'[08:34:08.168 16/05/1995]',0.002,0.001,137.532,47.389,0.275,-0.383
'[08:34:08.170 16/05/1995]',0.002,0.011,137.532,47.389,0.275,-0.383
'[08:34:08.172 16/05/1995]',-0.019,0.011,137.532,47.389,0.275,-0.383
'[08:34:08.174 16/05/1995]',-0.019,0.011,137.532,47.389,0.275,-0.383
'[08:34:08.176 16/05/1995]',-0.019,0.011,132.847,47.114,0.275,-0.380
'[08:34:08.178 16/05/1995]',-0.040,0.001,132.847,47.114,0.275,-0.380
'[08:34:08.180 16/05/1995]',-0.040,0.011,132.847,47.114,0.275,-0.380
'[08:34:08.182 16/05/1995]',-0.040,0.001,132.847,47.114,0.275,-0.380
'[08:34:08.184 16/05/1995]',-0.040,0.001,127.633,46.639,0.251,-0.378
'[08:34:08.186 16/05/1995]',-0.040,0.001,127.633,46.639,0.251,-0.378
'[08:34:08.188 16/05/1995]',-0.040,0.001,127.633,46.639,0.251,-0.378
'[08:34:08.190 16/05/1995]',-0.040,0.001,127.633,46.639,0.251,-0.378
'[08:34:08.192 16/05/1995]',-0.040,0.001,122.116,45.938,0.251,-0.376
'[08:34:08.194 16/05/1995]',-0.040,0.001,122.116,45.938,0.251,-0.376
'[08:34:08.196 16/05/1995]',-0.040,0.011,122.116,45.938,0.251,-0.376
'[08:34:08.198 16/05/1995]',-0.040,0.011,122.116,45.938,0.251,-0.376
'[08:34:08.200 16/05/1995]',-0.040,0.011,116.902,44.987,0.239,-0.374
'[08:34:08.202 16/05/1995]',-0.040,0.011,116.902,44.987,0.239,-0.374
'[08:34:08.204 16/05/1995]',-0.040,0.011,116.902,44.987,0.239,-0.374
'[08:34:08.206 16/05/1995]',-0.040,0.021,116.902,44.987,0.239,-0.374
'[08:34:08.208 16/05/1995]',-0.040,0.021,112.141,43.761,0.227,-0.373
'[08:34:08.210 16/05/1995]',-0.040,0.011,112.141,43.761,0.227,-0.373
'[08:34:08.212 16/05/1995]',-0.040,0.021,112.141,43.761,0.227,-0.373
'[08:34:08.214 16/05/1995]',-0.061,0.011,112.141,43.761,0.227,-0.373
'[08:34:08.216 16/05/1995]',-0.040,0.011,107.985,42.410,0.215,-0.372
'[08:34:08.218 16/05/1995]',-0.061,0.001,107.985,42.410,0.215,-0.372
'[08:34:08.220 16/05/1995]',-0.040,0.001,107.985,42.410,0.215,-0.372
'[08:34:08.222 16/05/1995]',-0.040,0.001,107.985,42.410,0.215,-0.372
'[08:34:08.224 16/05/1995]',-0.040,0.021,104.585,41.059,0.203,-0.371
'[08:34:08.226 16/05/1995]',-0.040,0.021,104.585,41.059,0.203,-0.371
'[08:34:08.228 16/05/1995]',-0.040,0.021,104.585,41.059,0.203,-0.371
'[08:34:08.230 16/05/1995]',-0.040,0.021,104.585,41.059,0.203,-0.371
'[08:34:08.232 16/05/1995]',-0.040,0.021,101.789,39.708,0.179,-0.371
'[08:34:08.234 16/05/1995]',-0.040,0.021,101.789,39.708,0.179,-0.371
'[08:34:08.236 16/05/1995]',-0.040,0.021,101.789,39.708,0.179,-0.371
'[08:34:08.238 16/05/1995]',-0.040,0.021,101.789,39.708,0.179,-0.371
'[08:34:08.240 16/05/1995]',-0.040,0.032,99.748,38.357,0.155,-0.371
'[08:34:08.242 16/05/1995]',-0.040,0.021,99.748,38.357,0.155,-0.371
'[08:34:08.244 16/05/1995]',-0.040,0.021,99.748,38.357,0.155,-0.371
'[08:34:08.246 16/05/1995]',-0.040,0.021,99.748,38.357,0.155,-0.371
'[08:34:08.248 16/05/1995]',-0.040,0.032,98.464,37.081,0.143,-0.372
'[08:34:08.250 16/05/1995]',-0.040,0.032,98.464,37.081,0.143,-0.372
'[08:34:08.252 16/05/1995]',-0.040,0.032,98.464,37.081,0.143,-0.372
'[08:34:08.254 16/05/1995]',-0.040,0.032,98.464,37.081,0.143,-0.372
'[08:34:08.256 16/05/1995]',-0.040,0.032,97.632,35.780,0.119,-0.372
'[08:34:08.258 16/05/1995]',-0.040,0.032,97.632,35.780,0.119,-0.372
'[08:34:08.260 16/05/1995]',-0.040,0.032,97.632,35.780,0.119,-0.372
'[08:34:08.262 16/05/1995]',-0.040,0.032,97.632,35.780,0.119,-0.372
'[08:34:08.264 16/05/1995]',-0.040,0.021,97.255,34.604,0.107,-0.373
'[08:34:08.266 16/05/1995]',-0.019,0.021,97.255,34.604,0.107,-0.373
'[08:34:08.268 16/05/1995]',-0.019,0.021,97.255,34.604,0.107,-0.373
'[08:34:08.270 16/05/1995]',-0.019,0.021,97.255,34.604,0.107,-0.373
'[08:34:08.272 16/05/1995]',-0.019,0.032,97.028,33.503,0.071,-0.374
'[08:34:08.274 16/05/1995]',-0.040,0.021,97.028,33.503,0.071,-0.374
'[08:34:08.276 16/05/1995]',-0.019,0.021,97.028,33.503,0.071,-0.374
'[08:34:08.278 16/05/1995]',-0.040,0.021,97.028,33.503,0.071,-0.374
'[08:34:08.280 16/05/1995]',-0.040,0.032,96.952,32.502,0.048,-0.376
'[08:34:08.282 16/05/1995]',-0.040,0.021,96.952,32.502,0.048,-0.376
'[08:34:08.284 16/05/1995]',-0.019,0.021,96.952,32.502,0.048,-0.376
'[08:34:08.286 16/05/1995]',-0.019,0.032,96.952,32.502,0.048,-0.376
'[08:34:08.288 16/05/1995]',-0.019,0.032,96.877,31.902,0.024,-0.379
'[08:34:08.290 16/05/1995]',-0.019,0.032,96.877,31.902,0.024,-0.379
'[08:34:08.292 16/05/1995]',-0.019,0.032,96.877,31.902,0.024,-0.379
'[08:34:08.294 16/05/1995]',-0.019,0.032,96.877,31.902,0.024,-0.379
'[08:34:08.296 16/05/1995]',-0.019,0.021,96.801,32.027,0.000,-0.382
'[08:34:08.298 16/05/1995]',-0.019,0.021,96.801,32.027,0.000,-0.382
'[08:34:08.300 16/05/1995]',-0.040,0.021,96.801,32.027,0.000,-0.382
'[08:34:08.302 16/05/1995]',-0.040,0.011,96.801,32.027,0.000,-0.382
'[08:34:08.304 16/05/1995]',-0.040,0.011,96.650,33.078,-0.024,-0.386
'[08:34:08.306 16/05/1995]',-0.040,0.011,96.650,33.078,-0.024,-0.386
'[08:34:08.308 16/05/1995]',-0.040,0.011,96.650,33.078,-0.024,-0.386
'[08:34:08.310 16/05/1995]',-0.040,0.011,96.650,33.078,-0.024,-0.386
'[08:34:08.312 16/05/1995]',-0.040,0.011,96.348,34.954,-0.035,-0.390
'[08:34:08.314 16/05/1995]',-0.040,0.011,96.348,34.954,-0.035,-0.390
'[08:34:08.316 16/05/1995]',-0.040,0.011,96.348,34.954,-0.035,-0.390
'[08:34:08.318 16/05/1995]',-0.040,0.011,96.348,34.954,-0.035,-0.390
'[08:34:08.320 16/05/1995]',-0.040,0.011,95.819,37.131,-0.059,-0.393
'[08:34:08.322 16/05/1995]',-0.040,0.011,95.819,37.131,-0.059,-0.393
'[08:34:08.324 16/05/1995]',-0.040,0.011,95.819,37.131,-0.059,-0.393
'[08:34:08.326 16/05/1995]',-0.040,0.011,95.819,37.131,-0.059,-0.393
'[08:34:08.328 16/05/1995]',-0.040,0.011,95.139,38.957,-0.071,-0.396
'[08:34:08.330 16/05/1995]',-0.040,0.011,95.139,38.957,-0.071,-0.396
'[08:34:08.332 16/05/1995]',-0.040,0.011,95.139,38.957,-0.071,-0.396
'[08:34:08.334 16/05/1995]',-0.040,0.021,95.139,38.957,-0.071,-0.396
'[08:34:08.336 16/05/1995]',-0.040,0.021,94.308,40.183,-0.096,-0.399
'[08:34:08.338 16/05/1995]',-0.040,0.011,94.308,40.183,-0.096,-0.399
'[08:34:08.340 16/05/1995]',-0.040,0.032,94.308,40.183,-0.096,-0.399
'[08:34:08.342 16/05/1995]',-0.040,0.021,94.308,40.183,-0.096,-0.399
'[08:34:08.344 16/05/1995]',-0.040,0.021,93.401,40.834,-0.119,-0.402
'[08:34:08.346 16/05/1995]',-0.040,0.011,93.401,40.834,-0.119,-0.402
'[08:34:08.348 16/05/1995]',-0.040,0.011,93.401,40.834,-0.119,-0.402
'[08:34:08.350 16/05/1995]',-0.040,0.011,93.401,40.834,-0.119,-0.402
'[08:34:08.352 16/05/1995]',-0.040,0.011,92.418,40.884,-0.119,-0.405
'[08:34:08.354 16/05/1995]',-0.040,0.011,92.418,40.884,-0.119,-0.405
'[08:34:08.356 16/05/1995]',-0.040,0.021,92.418,40.884,-0.119,-0.405
'[08:34:08.358 16/05/1995]',-0.040,0.021,92.418,40.884,-0.119,-0.405
'[08:34:08.360 16/05/1995]',-0.040,0.021,91.285,40.534,-0.131,-0.408
'[08:34:08.362 16/05/1995]',-0.040,0.021,91.285,40.534,-0.131,-0.408
'[08:34:08.364 16/05/1995]',-0.040,0.011,91.285,40.534,-0.131,-0.408
'[08:34:08.366 16/05/1995]',-0.040,0.011,91.285,40.534,-0.131,-0.408
'[08:34:08.368 16/05/1995]',-0.040,0.011,90.151,39.658,-0.131,-0.412
'[08:34:08.370 16/05/1995]',-0.040,0.011,90.151,39.658,-0.131,-0.412
'[08:34:08.372 16/05/1995]',-0.040,0.011,90.151,39.658,-0.131,-0.412
'[08:34:08.374 16/05/1995]',-0.040,0.021,90.151,39.658,-0.131,-0.412
'[08:34:08.376 16/05/1995]',-0.040,0.011,88.942,38.482,-0.143,-0.416
'[08:34:08.378 16/05/1995]',-0.040,0.011,88.942,38.482,-0.143,-0.416
'[08:34:08.380 16/05/1995]',-0.040,0.011,88.942,38.482,-0.143,-0.416
'[08:34:08.382 16/05/1995]',-0.040,0.021,88.942,38.482,-0.143,-0.416
'[08:34:08.384 16/05/1995]',-0.040,0.021,87.960,37.131,-0.167,-0.419
'[08:34:08.386 16/05/1995]',-0.040,0.011,87.960,37.131,-0.167,-0.419
'[08:34:08.388 16/05/1995]',-0.040,0.021,87.960,37.131,-0.167,-0.419
'[08:34:08.390 16/05/1995]',-0.040,0.021,87.960,37.131,-0.167,-0.419
'[08:34:08.392 16/05/1995]',-0.040,0.021,86.978,35.655,-0.167,-0.421
'[08:34:08.394 16/05/1995]',-0.040,0.011,86.978,35.655,-0.167,-0.421
'[08:34:08.396 16/05/1995]',-0.040,0.011,86.978,35.655,-0.167,-0.421
'[08:34:08.398 16/05/1995]',-0.040,0.011,86.978,35.655,-0.167,-0.421
'[08:34:08.400 16/05/1995]',-0.040,0.011,86.146,34.203,-0.179,-0.423
'[08:34:08.402 16/05/1995]',-0.040,0.001,86.146,34.203,-0.179,-0.423
'[08:34:08.404 16/05/1995]',-0.040,0.001,86.146,34.203,-0.179,-0.423
'[08:34:08.406 16/05/1995]',-0.040,0.001,86.146,34.203,-0.179,-0.423
'[08:34:08.408 16/05/1995]',-0.040,0.011,85.240,32.802,-0.191,-0.425
'[08:34:08.410 16/05/1995]',-0.040,0.001,85.240,32.802,-0.191,-0.425
'[08:34:08.412 16/05/1995]',-0.040,0.011,85.240,32.802,-0.191,-0.425
'[08:34:08.414 16/05/1995]',-0.061,0.011,85.240,32.802,-0.191,-0.425
'[08:34:08.416 16/05/1995]',-0.040,0.011,84.333,31.501,-0.191,-0.427
'[08:34:08.418 16/05/1995]',-0.040,0.011,84.333,31.501,-0.191,-0.427
'[08:34:08.420 16/05/1995]',-0.040,0.001,84.333,31.501,-0.191,-0.427
'[08:34:08.422 16/05/1995]',-0.040,0.011,84.333,31.501,-0.191,-0.427
'[08:34:08.424 16/05/1995]',-0.040,0.001,83.501,30.325,-0.203,-0.430
'[08:34:08.426 16/05/1995]',-0.040,0.011,83.501,30.325,-0.203,-0.430
'[08:34:08.428 16/05/1995]',-0.040,0.001,83.501,30.325,-0.203,-0.430
'[08:34:08.430 16/05/1995]',-0.040,0.001,83.501,30.325,-0.203,-0.430
'[08:34:08.432 16/05/1995]',-0.040,0.001,82.670,29.274,-0.215,-0.432
'[08:34:08.434 16/05/1995]',-0.040,0.011,82.670,29.274,-0.215,-0.432
'[08:34:08.436 16/05/1995]',-0.040,0.011,82.670,29.274,-0.215,-0.432
'[08:34:08.438 16/05/1995]',-0.040,0.011,82.670,29.274,-0.215,-0.432
'[08:34:08.440 16/05/1995]',-0.040,0.011,81.915,28.449,-0.227,-0.435
'[08:34:08.442 16/05/1995]',-0.040,0.021,81.915,28.449,-0.227,-0.435
'[08:34:08.444 16/05/1995]',-0.040,0.021,81.915,28.449,-0.227,-0.435
'[08:34:08.446 16/05/1995]',-0.040,0.021,81.915,28.449,-0.227,-0.435
'[08:34:08.448 16/05/1995]',-0.061,0.011,81.159,27.798,-0.215,-0.437
'[08:34:08.450 16/05/1995]',-0.040,0.011,81.159,27.798,-0.215,-0.437
'[08:34:08.452 16/05/1995]',-0.040,0.011,81.159,27.798,-0.215,-0.437
'[08:34:08.454 16/05/1995]',-0.040,0.011,81.159,27.798,-0.215,-0.437
'[08:34:08.456 16/05/1995]',-0.040,0.011,80.554,27.398,-0.227,-0.439
'[08:34:08.458 16/05/1995]',-0.040,0.011,80.554,27.398,-0.227,-0.439
'[08:34:08.460 16/05/1995]',-0.040,0.011,80.554,27.398,-0.227,-0.439
'[08:34:08.462 16/05/1995]',-0.040,0.011,80.554,27.398,-0.227,-0.439
'[08:34:08.464 16/05/1995]',-0.040,0.011,80.025,27.098,-0.238,-0.441
'[08:34:08.466 16/05/1995]',-0.040,0.001,80.025,27.098,-0.238,-0.441
'[08:34:08.468 16/05/1995]',-0.040,0.011,80.025,27.098,-0.238,-0.441
'[08:34:08.470 16/05/1995]',-0.040,0.011,80.025,27.098,-0.238,-0.441
'[08:34:08.472 16/05/1995]',-0.040,0.011,79.496,26.922,-0.227,-0.443
'[08:34:08.474 16/05/1995]',-0.040,0.001,79.496,26.922,-0.227,-0.443
'[08:34:08.476 16/05/1995]',-0.040,0.001,79.496,26.922,-0.227,-0.443
'[08:34:08.478 16/05/1995]',-0.040,0.001,79.496,26.922,-0.227,-0.443
'[08:34:08.480 16/05/1995]',-0.040,0.001,78.967,26.872,-0.238,-0.444
'[08:34:08.482 16/05/1995]',-0.040,0.001,78.967,26.872,-0.238,-0.444
'[08:34:08.484 16/05/1995]',-0.040,0.001,78.967,26.872,-0.238,-0.444
'[08:34:08.486 16/05/1995]',-0.040,0.001,78.967,26.872,-0.238,-0.444
'[08:34:08.488 16/05/1995]',-0.040,0.001,78.438,26.872,-0.251,-0.445
'[08:34:08.490 16/05/1995]',-0.040,0.011,78.438,26.872,-0.251,-0.445
'[08:34:08.492 16/05/1995]',-0.040,0.001,78.438,26.872,-0.251,-0.445
'[08:34:08.494 16/05/1995]',-0.040,0.001,78.438,26.872,-0.251,-0.445
'[08:34:08.496 16/05/1995]',-0.040,0.011,77.985,26.822,-0.238,-0.446
'[08:34:08.498 16/05/1995]',-0.040,0.001,77.985,26.822,-0.238,-0.446
'[08:34:08.500 16/05/1995]',-0.040,0.011,77.985,26.822,-0.238,-0.446
'[08:34:08.502 16/05/1995]',-0.040,0.011,77.985,26.822,-0.238,-0.446
'[08:34:08.504 16/05/1995]',-0.040,0.011,77.607,26.822,-0.251,-0.447
'[08:34:08.506 16/05/1995]',-0.040,0.011,77.607,26.822,-0.251,-0.447
'[08:34:08.508 16/05/1995]',-0.040,0.011,77.607,26.822,-0.251,-0.447
'[08:34:08.510 16/05/1995]',-0.040,0.001,77.607,26.822,-0.251,-0.447
'[08:34:08.512 16/05/1995]',-0.040,0.001,77.078,26.822,-0.263,-0.448
'[08:34:08.514 16/05/1995]',-0.040,0.001,77.078,26.822,-0.263,-0.448
'[08:34:08.516 16/05/1995]',-0.040,0.001,77.078,26.822,-0.263,-0.448
'[08:34:08.518 16/05/1995]',-0.040,0.001,77.078,26.822,-0.263,-0.448
'[08:34:08.520 16/05/1995]',-0.040,0.011,76.625,26.822,-0.263,-0.449
'[08:34:08.522 16/05/1995]',-0.040,0.021,76.625,26.822,-0.263,-0.449
'[08:34:08.524 16/05/1995]',-0.040,0.021,76.625,26.822,-0.263,-0.449
'[08:34:08.526 16/05/1995]',-0.040,0.021,76.625,26.822,-0.263,-0.449
'[08:34:08.528 16/05/1995]',-0.040,0.021,76.247,26.747,-0.263,-0.450
'[08:34:08.530 16/05/1995]',-0.040,0.011,76.247,26.747,-0.263,-0.450
'[08:34:08.532 16/05/1995]',-0.040,0.011,76.247,26.747,-0.263,-0.450
'[08:34:08.534 16/05/1995]',-0.040,0.011,76.247,26.747,-0.263,-0.450
'[08:34:08.536 16/05/1995]',-0.040,0.011,75.794,26.747,-0.275,-0.451
'[08:34:08.538 16/05/1995]',-0.040,0.001,75.794,26.747,-0.275,-0.451
'[08:34:08.540 16/05/1995]',-0.040,0.001,75.794,26.747,-0.275,-0.451
'[08:34:08.542 16/05/1995]',-0.040,0.001,75.794,26.747,-0.275,-0.451
'[08:34:08.544 16/05/1995]',-0.040,0.001,75.340,26.747,-0.263,-0.452
'[08:34:08.546 16/05/1995]',-0.040,0.001,75.340,26.747,-0.263,-0.452
'[08:34:08.548 16/05/1995]',-0.040,0.001,75.340,26.747,-0.263,-0.452
'[08:34:08.550 16/05/1995]',-0.040,0.001,75.340,26.747,-0.263,-0.452
'[08:34:08.552 16/05/1995]',-0.040,0.011,74.887,26.697,-0.275,-0.453
'[08:34:08.554 16/05/1995]',-0.040,0.001,74.887,26.697,-0.275,-0.453
'[08:34:08.556 16/05/1995]',-0.040,0.001,74.887,26.697,-0.275,-0.453
'[08:34:08.558 16/05/1995]',-0.019,0.001,74.887,26.697,-0.275,-0.453
'[08:34:08.560 16/05/1995]',-0.040,0.001,74.433,26.522,-0.275,-0.455
'[08:34:08.562 16/05/1995]',-0.040,0.001,74.433,26.522,-0.275,-0.455
'[08:34:08.564 16/05/1995]',-0.040,0.001,74.433,26.522,-0.275,-0.455
'[08:34:08.566 16/05/1995]',-0.040,0.011,74.433,26.522,-0.275,-0.455
'[08:34:08.568 16/05/1995]',-0.040,0.011,74.056,26.347,-0.275,-0.457
'[08:34:08.570 16/05/1995]',-0.040,0.021,74.056,26.347,-0.275,-0.457
'[08:34:08.572 16/05/1995]',-0.040,0.011,74.056,26.347,-0.275,-0.457
'[08:34:08.574 16/05/1995]',-0.019,0.011,74.056,26.347,-0.275,-0.457
'[08:34:08.576 16/05/1995]',-0.019,0.011,73.678,26.097,-0.275,-0.459
'[08:34:08.578 16/05/1995]',-0.040,0.001,73.678,26.097,-0.275,-0.459
'[08:34:08.580 16/05/1995]',-0.040,0.011,73.678,26.097,-0.275,-0.459
'[08:34:08.582 16/05/1995]',-0.040,0.001,73.678,26.097,-0.275,-0.459
'[08:34:08.584 16/05/1995]',-0.019,0.001,73.300,25.922,-0.286,-0.461
'[08:34:08.586 16/05/1995]',-0.019,0.001,73.300,25.922,-0.286,-0.461
'[08:34:08.588 16/05/1995]',-0.040,0.011,73.300,25.922,-0.286,-0.461
'[08:34:08.590 16/05/1995]',-0.040,0.001,73.300,25.922,-0.286,-0.461
'[08:34:08.592 16/05/1995]',-0.019,0.011,72.847,25.696,-0.286,-0.464
'[08:34:08.594 16/05/1995]',-0.040,0.001,72.847,25.696,-0.286,-0.464
'[08:34:08.596 16/05/1995]',-0.040,0.011,72.847,25.696,-0.286,-0.464
'[08:34:08.598 16/05/1995]',-0.040,0.001,72.847,25.696,-0.286,-0.464
'[08:34:08.600 16/05/1995]',-0.040,0.001,72.469,25.521,-0.275,-0.466
'[08:34:08.602 16/05/1995]',-0.040,0.001,72.469,25.521,-0.275,-0.466
'[08:34:08.604 16/05/1995]',-0.019,0.001,72.469,25.521,-0.275,-0.466
'[08:34:08.606 16/05/1995]',-0.019,0.001,72.469,25.521,-0.275,-0.466
'[08:34:08.608 16/05/1995]',-0.019,0.001,72.091,25.296,-0.286,-0.468
'[08:34:08.610 16/05/1995]',-0.019,0.001,72.091,25.296,-0.286,-0.468
'[08:34:08.612 16/05/1995]',-0.019,0.001,72.091,25.296,-0.286,-0.468
'[08:34:08.614 16/05/1995]',-0.019,0.001,72.091,25.296,-0.286,-0.468
'[08:34:08.616 16/05/1995]',-0.019,0.001,71.864,24.996,-0.298,-0.469
'[08:34:08.618 16/05/1995]',-0.019,0.001,71.864,24.996,-0.298,-0.469
'[08:34:08.620 16/05/1995]',-0.019,0.001,71.864,24.996,-0.298,-0.469
'[08:34:08.622 16/05/1995]',-0.019,0.001,71.864,24.996,-0.298,-0.469
'[08:34:08.624 16/05/1995]',-0.019,0.001,71.637,24.771,-0.275,-0.470
'[08:34:08.626 16/05/1995]',-0.019,0.001,71.637,24.771,-0.275,-0.470
'[08:34:08.628 16/05/1995]',-0.019,0.001,71.637,24.771,-0.275,-0.470
'[08:34:08.630 16/05/1995]',-0.019,0.001,71.637,24.771,-0.275,-0.470
'[08:34:08.632 16/05/1995]',-0.019,0.001,71.411,24.470,-0.286,-0.472
'[08:34:08.634 16/05/1995]',-0.019,0.001,71.411,24.470,-0.286,-0.472
'[08:34:08.636 16/05/1995]',-0.019,0.001,71.411,24.470,-0.286,-0.472
'[08:34:08.638 16/05/1995]',-0.019,0.001,71.411,24.470,-0.286,-0.472
'[08:34:08.640 16/05/1995]',-0.019,0.011,71.033,24.295,-0.286,-0.473
'[08:34:08.642 16/05/1995]',-0.019,0.001,71.033,24.295,-0.286,-0.473
'[08:34:08.644 16/05/1995]',-0.019,0.001,71.033,24.295,-0.286,-0.473
'[08:34:08.646 16/05/1995]',-0.040,0.001,71.033,24.295,-0.286,-0.473
'[08:34:08.648 16/05/1995]',-0.040,0.001,70.580,24.170,-0.298,-0.475
'[08:34:08.650 16/05/1995]',-0.040,0.001,70.580,24.170,-0.298,-0.475
'[08:34:08.652 16/05/1995]',-0.040,0.001,70.580,24.170,-0.298,-0.475
'[08:34:08.654 16/05/1995]',-0.019,0.001,70.580,24.170,-0.298,-0.475
'[08:34:08.656 16/05/1995]',-0.019,0.001,70.126,24.045,-0.275,-0.476
'[08:34:08.658 16/05/1995]',-0.019,0.001,70.126,24.045,-0.275,-0.476
'[08:34:08.660 16/05/1995]',-0.019,0.001,70.126,24.045,-0.275,-0.476
'[08:34:08.662 16/05/1995]',-0.019,0.011,70.126,24.045,-0.275,-0.476
'[08:34:08.664 16/05/1995]',-0.019,0.001,69.748,23.995,-0.286,-0.478
'[08:34:08.666 16/05/1995]',-0.019,0.011,69.748,23.995,-0.286,-0.478
'[08:34:08.668 16/05/1995]',-0.019,0.011,69.748,23.995,-0.286,-0.478
'[08:34:08.670 16/05/1995]',-0.019,0.011,69.748,23.995,-0.286,-0.478
'[08:34:08.672 16/05/1995]',-0.019,0.001,69.295,23.870,-0.286,-0.479
'[08:34:08.674 16/05/1995]',-0.019,0.001,69.295,23.870,-0.286,-0.479
'[08:34:08.676 16/05/1995]',-0.019,0.001,69.295,23.870,-0.286,-0.479
'[08:34:08.678 16/05/1995]',-0.019,0.001,69.295,23.870,-0.286,-0.479
'[08:34:08.680 16/05/1995]',-0.019,0.001,68.993,23.820,-0.286,-0.479
'[08:34:08.682 16/05/1995]',0.002,0.001,68.993,23.820,-0.286,-0.479
'[08:34:08.684 16/05/1995]',0.002,0.001,68.993,23.820,-0.286,-0.479
'[08:34:08.686 16/05/1995]',0.002,0.001,68.993,23.820,-0.286,-0.479
'[08:34:08.688 16/05/1995]',0.002,0.001,68.690,23.695,-0.275,-0.478
'[08:34:08.690 16/05/1995]',0.002,0.001,68.690,23.695,-0.275,-0.478
'[08:34:08.692 16/05/1995]',0.002,0.001,68.690,23.695,-0.275,-0.478
'[08:34:08.694 16/05/1995]',0.002,0.001,68.690,23.695,-0.275,-0.478
'[08:34:08.696 16/05/1995]',0.002,0.001,68.464,23.645,-0.286,-0.478
'[08:34:08.698 16/05/1995]',0.002,0.001,68.464,23.645,-0.286,-0.478
'[08:34:08.700 16/05/1995]',0.002,0.001,68.464,23.645,-0.286,-0.478
'[08:34:08.702 16/05/1995]',0.002,0.001,68.464,23.645,-0.286,-0.478
'[08:34:08.704 16/05/1995]',0.002,0.001,68.161,23.520,-0.286,-0.479
'[08:34:08.706 16/05/1995]',0.002,0.001,68.161,23.520,-0.286,-0.479
'[08:34:08.708 16/05/1995]',0.022,0.011,68.161,23.520,-0.286,-0.479
'[08:34:08.710 16/05/1995]',0.022,0.021,68.161,23.520,-0.286,-0.479
'[08:34:08.712 16/05/1995]',0.043,0.021,67.859,23.419,-0.286,-0.480
'[08:34:08.714 16/05/1995]',0.043,0.021,67.859,23.419,-0.286,-0.480
'[08:34:08.716 16/05/1995]',0.043,0.021,67.859,23.419,-0.286,-0.480
'[08:34:08.718 16/05/1995]',0.043,0.021,67.859,23.419,-0.286,-0.480
'[08:34:08.720 16/05/1995]',0.043,0.021,67.557,23.344,-0.286,-0.481
'[08:34:08.722 16/05/1995]',0.043,0.011,67.557,23.344,-0.286,-0.481
'[08:34:08.724 16/05/1995]',0.043,0.001,67.557,23.344,-0.286,-0.481
'[08:34:08.726 16/05/1995]',0.043,0.011,67.557,23.344,-0.286,-0.481
'[08:34:08.728 16/05/1995]',0.043,0.011,67.255,23.244,-0.263,-0.482
'[08:34:08.730 16/05/1995]',0.043,0.021,67.255,23.244,-0.263,-0.482
'[08:34:08.732 16/05/1995]',0.043,0.021,67.255,23.244,-0.263,-0.482
'[08:34:08.734 16/05/1995]',0.043,0.011,67.255,23.244,-0.263,-0.482
'[08:34:08.736 16/05/1995]',0.043,0.021,66.952,23.119,-0.275,-0.483
'[08:34:08.738 16/05/1995]',0.043,0.021,66.952,23.119,-0.275,-0.483
'[08:34:08.740 16/05/1995]',0.043,0.021,66.952,23.119,-0.275,-0.483
'[08:34:08.742 16/05/1995]',0.043,0.021,66.952,23.119,-0.275,-0.483
'[08:34:08.744 16/05/1995]',0.043,0.021,66.650,23.069,-0.275,-0.484
'[08:34:08.746 16/05/1995]',0.043,0.021,66.650,23.069,-0.275,-0.484
'[08:34:08.748 16/05/1995]',0.022,0.021,66.650,23.069,-0.275,-0.484
'[08:34:08.750 16/05/1995]',0.022,0.021,66.650,23.069,-0.275,-0.484
'[08:34:08.752 16/05/1995]',0.022,0.021,66.348,22.994,-0.275,-0.485
'[08:34:08.754 16/05/1995]',0.022,0.021,66.348,22.994,-0.275,-0.485
'[08:34:08.756 16/05/1995]',0.002,0.011,66.348,22.994,-0.275,-0.485
'[08:34:08.758 16/05/1995]',0.002,0.011,66.348,22.994,-0.275,-0.485
'[08:34:08.760 16/05/1995]',0.002,0.011,66.046,22.944,-0.270,-0.486
'[08:34:08.762 16/05/1995]',0.002,0.011,66.046,22.944,-0.270,-0.486
'[08:34:08.764 16/05/1995]',0.002,0.011,66.046,22.944,-0.270,-0.486
'[08:34:08.766 16/05/1995]',0.002,0.001,66.046,22.944,-0.270,-0.486
'[08:34:08.768 16/05/1995]',0.002,0.001,65.819,22.894,-0.270,-0.487
'[08:34:08.770 16/05/1995]',-0.019,0.001,65.819,22.894,-0.270,-0.487
'[08:34:08.772 16/05/1995]',-0.019,0.011,65.819,22.894,-0.270,-0.487
'[08:34:08.774 16/05/1995]',-0.019,0.011,65.819,22.894,-0.270,-0.487
'[08:34:08.776 16/05/1995]',-0.019,0.001,65.517,22.819,-0.282,-0.487
'[08:34:08.778 16/05/1995]',-0.019,0.001,65.517,22.819,-0.282,-0.487
'[08:34:08.780 16/05/1995]',-0.019,0.001,65.517,22.819,-0.282,-0.487
'[08:34:08.782 16/05/1995]',-0.040,0.001,65.517,22.819,-0.282,-0.487
'[08:34:08.784 16/05/1995]',-0.040,0.001,65.290,22.819,-0.270,-0.488
'[08:34:08.786 16/05/1995]',-0.040,0.001,65.290,22.819,-0.270,-0.488
'[08:34:08.788 16/05/1995]',-0.040,0.001,65.290,22.819,-0.270,-0.488
'[08:34:08.790 16/05/1995]',-0.040,0.001,65.290,22.819,-0.270,-0.488
'[08:34:08.792 16/05/1995]',-0.040,0.001,65.063,22.894,-0.282,-0.488
'[08:34:08.794 16/05/1995]',-0.040,0.001,65.063,22.894,-0.282,-0.488
'[08:34:08.796 16/05/1995]',-0.040,0.001,65.063,22.894,-0.282,-0.488
'[08:34:08.798 16/05/1995]',-0.040,0.001,65.063,22.894,-0.282,-0.488
'[08:34:08.800 16/05/1995]',-0.040,0.001,64.912,22.894,-0.270,-0.487
'[08:34:08.802 16/05/1995]',-0.040,0.001,64.912,22.894,-0.270,-0.487
'[08:34:08.804 16/05/1995]',-0.040,0.001,64.912,22.894,-0.270,-0.487
'[08:34:08.806 16/05/1995]',-0.040,0.001,64.912,22.894,-0.270,-0.487
'[08:34:08.808 16/05/1995]',-0.040,0.001,64.685,22.944,-0.282,-0.485
'[08:34:08.810 16/05/1995]',-0.040,0.001,64.685,22.944,-0.282,-0.485
'[08:34:08.812 16/05/1995]',-0.040,0.001,64.685,22.944,-0.282,-0.485
'[08:34:08.814 16/05/1995]',-0.040,0.001,64.685,22.944,-0.282,-0.485
'[08:34:08.816 16/05/1995]',-0.040,0.001,64.610,22.994,-0.282,-0.482
'[08:34:08.818 16/05/1995]',-0.040,0.001,64.610,22.994,-0.282,-0.482
'[08:34:08.820 16/05/1995]',-0.040,0.001,64.610,22.994,-0.282,-0.482
'[08:34:08.822 16/05/1995]',-0.040,0.001,64.610,22.994,-0.282,-0.482
'[08:34:08.824 16/05/1995]',-0.040,0.001,64.383,23.069,-0.282,-0.480
'[08:34:08.826 16/05/1995]',-0.040,0.001,64.383,23.069,-0.282,-0.480
'[08:34:08.828 16/05/1995]',-0.040,0.001,64.383,23.069,-0.282,-0.480
'[08:34:08.830 16/05/1995]',-0.061,-0.009,64.383,23.069,-0.282,-0.480
'[08:34:08.832 16/05/1995]',-0.082,-0.030,64.156,23.119,-0.282,-0.477
'[08:34:08.834 16/05/1995]',-0.082,-0.041,64.156,23.119,-0.282,-0.477
'[08:34:08.836 16/05/1995]',-0.103,-0.041,64.156,23.119,-0.282,-0.477
'[08:34:08.838 16/05/1995]',-0.082,-0.041,64.156,23.119,-0.282,-0.477
'[08:34:08.840 16/05/1995]',-0.040,-0.041,63.930,23.169,-0.270,-0.475
'[08:34:08.842 16/05/1995]',0.002,-0.041,63.930,23.169,-0.270,-0.475
'[08:34:08.844 16/05/1995]',0.043,-0.051,63.930,23.169,-0.270,-0.475
'[08:34:08.846 16/05/1995]',0.106,-0.041,63.930,23.169,-0.270,-0.475
'[08:34:08.848 16/05/1995]',0.169,-0.030,63.627,23.169,-0.270,-0.474
'[08:34:08.850 16/05/1995]',0.253,0.001,63.627,23.169,-0.270,-0.474
'[08:34:08.852 16/05/1995]',0.336,0.042,63.627,23.169,-0.270,-0.474
'[08:34:08.854 16/05/1995]',0.420,0.084,63.627,23.169,-0.270,-0.474
'[08:34:08.856 16/05/1995]',0.504,0.136,63.401,23.119,-0.282,-0.472
'[08:34:08.858 16/05/1995]',0.588,0.177,63.401,23.119,-0.282,-0.472
'[08:34:08.860 16/05/1995]',0.650,0.230,63.401,23.119,-0.282,-0.472
'[08:34:08.862 16/05/1995]',0.671,0.292,63.401,23.119,-0.282,-0.472
'[08:34:08.864 16/05/1995]',0.608,0.333,63.250,22.944,-0.270,-0.471
'[08:34:08.866 16/05/1995]',0.546,0.354,63.250,22.944,-0.270,-0.471
'[08:34:08.868 16/05/1995]',0.462,0.354,63.250,22.944,-0.270,-0.471
'[08:34:08.870 16/05/1995]',0.378,0.313,63.250,22.944,-0.270,-0.471
'[08:34:08.872 16/05/1995]',0.253,0.209,63.098,22.719,-0.270,-0.469
'[08:34:08.874 16/05/1995]',0.085,0.074,63.098,22.719,-0.270,-0.469
'[08:34:08.876 16/05/1995]',-0.040,-0.030,63.098,22.719,-0.270,-0.469
'[08:34:08.878 16/05/1995]',-0.166,-0.114,63.098,22.719,-0.270,-0.469
'[08:34:08.880 16/05/1995]',-0.229,-0.145,63.023,22.419,-0.282,-0.468
'[08:34:08.882 16/05/1995]',-0.312,-0.176,63.023,22.419,-0.282,-0.468
'[08:34:08.884 16/05/1995]',-0.354,-0.186,63.023,22.419,-0.282,-0.468
'[08:34:08.886 16/05/1995]',-0.396,-0.207,63.023,22.419,-0.282,-0.468
'[08:34:08.888 16/05/1995]',-0.396,-0.218,62.872,22.118,-0.259,-0.467
'[08:34:08.890 16/05/1995]',-0.396,-0.218,62.872,22.118,-0.259,-0.467
'[08:34:08.892 16/05/1995]',-0.396,-0.218,62.872,22.118,-0.259,-0.467
'[08:34:08.894 16/05/1995]',-0.417,-0.218,62.872,22.118,-0.259,-0.467
'[08:34:08.896 16/05/1995]',-0.459,-0.228,62.796,21.893,-0.259,-0.465
'[08:34:08.898 16/05/1995]',-0.501,-0.239,62.796,21.893,-0.259,-0.465
'[08:34:08.900 16/05/1995]',-0.501,-0.249,62.796,21.893,-0.259,-0.465
'[08:34:08.902 16/05/1995]',-0.543,-0.249,62.796,21.893,-0.259,-0.465
'[08:34:08.904 16/05/1995]',-0.564,-0.259,62.645,21.718,-0.259,-0.464
'[08:34:08.906 16/05/1995]',-0.585,-0.259,62.645,21.718,-0.259,-0.464
'[08:34:08.908 16/05/1995]',-0.627,-0.259,62.645,21.718,-0.259,-0.464
'[08:34:08.910 16/05/1995]',-0.648,-0.259,62.645,21.718,-0.259,-0.464
'[08:34:08.912 16/05/1995]',-0.669,-0.270,62.569,21.468,-0.259,-0.463
'[08:34:08.914 16/05/1995]',-0.690,-0.270,62.569,21.468,-0.259,-0.463
'[08:34:08.916 16/05/1995]',-0.711,-0.280,62.569,21.468,-0.259,-0.463
'[08:34:08.918 16/05/1995]',-0.732,-0.280,62.569,21.468,-0.259,-0.463
'[08:34:08.920 16/05/1995]',-0.753,-0.280,62.494,21.368,-0.246,-0.462
'[08:34:08.922 16/05/1995]',-0.753,-0.270,62.494,21.368,-0.246,-0.462
'[08:34:08.924 16/05/1995]',-0.753,-0.270,62.494,21.368,-0.246,-0.462
'[08:34:08.926 16/05/1995]',-0.753,-0.270,62.494,21.368,-0.246,-0.462
'[08:34:08.928 16/05/1995]',-0.774,-0.270,62.343,21.243,-0.246,-0.460
'[08:34:08.930 16/05/1995]',-0.774,-0.270,62.343,21.243,-0.246,-0.460
'[08:34:08.932 16/05/1995]',-0.732,-0.249,62.343,21.243,-0.246,-0.460
'[08:34:08.934 16/05/1995]',-0.648,-0.218,62.343,21.243,-0.246,-0.460
'[08:34:08.936 16/05/1995]',-0.585,-0.197,62.267,21.193,-0.246,-0.457
'[08:34:08.938 16/05/1995]',-0.501,-0.176,62.267,21.193,-0.246,-0.457
'[08:34:08.940 16/05/1995]',-0.438,-0.145,62.267,21.193,-0.246,-0.457
'[08:34:08.942 16/05/1995]',-0.354,-0.124,62.267,21.193,-0.246,-0.457
'[08:34:08.944 16/05/1995]',-0.292,-0.093,62.192,21.243,-0.235,-0.453
'[08:34:08.946 16/05/1995]',-0.229,-0.083,62.192,21.243,-0.235,-0.453
'[08:34:08.948 16/05/1995]',-0.166,-0.051,62.192,21.243,-0.235,-0.453
'[08:34:08.950 16/05/1995]',-0.103,-0.041,62.192,21.243,-0.235,-0.453
'[08:34:08.952 16/05/1995]',-0.061,-0.020,61.965,21.368,-0.246,-0.450
'[08:34:08.954 16/05/1995]',-0.040,-0.009,61.965,21.368,-0.246,-0.450
'[08:34:08.956 16/05/1995]',0.002,0.001,61.965,21.368,-0.246,-0.450
'[08:34:08.958 16/05/1995]',0.002,0.001,61.965,21.368,-0.246,-0.450
'[08:34:08.960 16/05/1995]',0.002,0.001,61.814,21.593,-0.223,-0.447
'[08:34:08.962 16/05/1995]',0.022,0.011,61.814,21.593,-0.223,-0.447
'[08:34:08.964 16/05/1995]',0.022,0.011,61.814,21.593,-0.223,-0.447
'[08:34:08.966 16/05/1995]',0.043,0.011,61.814,21.593,-0.223,-0.447
'[08:34:08.968 16/05/1995]',0.043,0.011,61.663,21.818,-0.223,-0.444
'[08:34:08.970 16/05/1995]',0.043,0.021,61.663,21.818,-0.223,-0.444
'[08:34:08.972 16/05/1995]',0.043,0.021,61.663,21.818,-0.223,-0.444
'[08:34:08.974 16/05/1995]',0.043,0.021,61.663,21.818,-0.223,-0.444
'[08:34:08.976 16/05/1995]',0.064,0.021,61.436,22.168,-0.223,-0.442
'[08:34:08.978 16/05/1995]',0.064,0.021,61.436,22.168,-0.223,-0.442
'[08:34:08.980 16/05/1995]',0.064,0.021,61.436,22.168,-0.223,-0.442
'[08:34:08.982 16/05/1995]',0.064,0.021,61.436,22.168,-0.223,-0.442
'[08:34:08.984 16/05/1995]',0.064,0.021,61.360,22.644,-0.223,-0.440
'[08:34:08.986 16/05/1995]',0.064,0.032,61.360,22.644,-0.223,-0.440
'[08:34:08.988 16/05/1995]',0.064,0.032,61.360,22.644,-0.223,-0.440
'[08:34:08.990 16/05/1995]',0.064,0.042,61.360,22.644,-0.223,-0.440
'[08:34:08.992 16/05/1995]',0.064,0.042,61.134,23.244,-0.223,-0.437
'[08:34:08.994 16/05/1995]',0.064,0.042,61.134,23.244,-0.223,-0.437
'[08:34:08.996 16/05/1995]',0.064,0.042,61.134,23.244,-0.223,-0.437
'[08:34:08.998 16/05/1995]',0.064,0.042,61.134,23.244,-0.223,-0.437
'[08:34:09.000 16/05/1995]',0.064,0.032,61.058,23.870,-0.223,-0.434
'[08:34:09.002 16/05/1995]',0.064,0.032,61.058,23.870,-0.223,-0.434
'[08:34:09.004 16/05/1995]',0.064,0.032,61.058,23.870,-0.223,-0.434
'[08:34:09.006 16/05/1995]',0.064,0.032,61.058,23.870,-0.223,-0.434
'[08:34:09.008 16/05/1995]',0.064,0.032,60.907,24.595,-0.211,-0.430
'[08:34:09.010 16/05/1995]',0.064,0.021,60.907,24.595,-0.211,-0.430
'[08:34:09.012 16/05/1995]',0.064,0.032,60.907,24.595,-0.211,-0.430
'[08:34:09.014 16/05/1995]',0.064,0.032,60.907,24.595,-0.211,-0.430
'[08:34:09.016 16/05/1995]',0.064,0.032,60.831,25.121,-0.211,-0.427
'[08:34:09.018 16/05/1995]',0.064,0.032,60.831,25.121,-0.211,-0.427
'[08:34:09.020 16/05/1995]',0.064,0.032,60.831,25.121,-0.211,-0.427
'[08:34:09.022 16/05/1995]',0.064,0.042,60.831,25.121,-0.211,-0.427
'[08:34:09.024 16/05/1995]',0.064,0.042,60.756,25.521,-0.211,-0.424
'[08:34:09.026 16/05/1995]',0.064,0.042,60.756,25.521,-0.211,-0.424
'[08:34:09.028 16/05/1995]',0.064,0.042,60.756,25.521,-0.211,-0.424
'[08:34:09.030 16/05/1995]',0.043,0.032,60.756,25.521,-0.211,-0.424
'[08:34:09.032 16/05/1995]',0.064,0.032,60.907,25.696,-0.188,-0.421
'[08:34:09.034 16/05/1995]',0.064,0.032,60.907,25.696,-0.188,-0.421
'[08:34:09.036 16/05/1995]',0.064,0.021,60.907,25.696,-0.188,-0.421
'[08:34:09.038 16/05/1995]',0.064,0.021,60.907,25.696,-0.188,-0.421
'[08:34:09.040 16/05/1995]',0.064,0.032,61.587,25.746,-0.200,-0.418
'[08:34:09.042 16/05/1995]',0.064,0.021,61.587,25.746,-0.200,-0.418
'[08:34:09.044 16/05/1995]',0.064,0.032,61.587,25.746,-0.200,-0.418
'[08:34:09.046 16/05/1995]',0.064,0.032,61.587,25.746,-0.200,-0.418
'[08:34:09.048 16/05/1995]',0.064,0.032,63.174,25.696,-0.200,-0.415
'[08:34:09.050 16/05/1995]',0.064,0.042,63.174,25.696,-0.200,-0.415
'[08:34:09.052 16/05/1995]',0.064,0.032,63.174,25.696,-0.200,-0.415
'[08:34:09.054 16/05/1995]',0.064,0.032,63.174,25.696,-0.200,-0.415
'[08:34:09.056 16/05/1995]',0.064,0.032,65.970,25.872,-0.200,-0.412
'[08:34:09.058 16/05/1995]',0.064,0.032,65.970,25.872,-0.200,-0.412
'[08:34:09.060 16/05/1995]',0.064,0.032,65.970,25.872,-0.200,-0.412
'[08:34:09.062 16/05/1995]',0.085,0.032,65.970,25.872,-0.200,-0.412
'[08:34:09.064 16/05/1995]',0.085,0.032,70.353,26.522,-0.200,-0.409
'[08:34:09.066 16/05/1995]',0.064,0.021,70.353,26.522,-0.200,-0.409
'[08:34:09.068 16/05/1995]',0.064,0.021,70.353,26.522,-0.200,-0.409
'[08:34:09.070 16/05/1995]',0.085,0.032,70.353,26.522,-0.200,-0.409
'[08:34:09.072 16/05/1995]',0.064,0.032,76.247,27.623,-0.188,-0.406
'[08:34:09.074 16/05/1995]',0.064,0.021,76.247,27.623,-0.188,-0.406
'[08:34:09.076 16/05/1995]',0.064,0.021,76.247,27.623,-0.188,-0.406
'[08:34:09.078 16/05/1995]',0.085,0.021,76.247,27.623,-0.188,-0.406
'[08:34:09.080 16/05/1995]',0.064,0.021,83.577,29.049,-0.200,-0.404
'[08:34:09.082 16/05/1995]',0.064,0.021,83.577,29.049,-0.200,-0.404
'[08:34:09.084 16/05/1995]',0.085,0.021,83.577,29.049,-0.200,-0.404
'[08:34:09.086 16/05/1995]',0.085,0.011,83.577,29.049,-0.200,-0.404
'[08:34:09.088 16/05/1995]',0.085,0.021,91.965,30.625,-0.200,-0.402
'[08:34:09.090 16/05/1995]',0.085,0.021,91.965,30.625,-0.200,-0.402
'[08:34:09.092 16/05/1995]',0.085,0.021,91.965,30.625,-0.200,-0.402
'[08:34:09.094 16/05/1995]',0.085,0.021,91.965,30.625,-0.200,-0.402
'[08:34:09.096 16/05/1995]',0.085,0.021,101.109,32.452,-0.211,-0.400
'[08:34:09.098 16/05/1995]',0.085,0.011,101.109,32.452,-0.211,-0.400
'[08:34:09.100 16/05/1995]',0.085,0.011,101.109,32.452,-0.211,-0.400
'[08:34:09.102 16/05/1995]',0.085,0.011,101.109,32.452,-0.211,-0.400
'[08:34:09.104 16/05/1995]',0.106,0.021,110.252,34.254,-0.188,-0.398
'[08:34:09.106 16/05/1995]',0.106,0.021,110.252,34.254,-0.188,-0.398
'[08:34:09.108 16/05/1995]',0.106,0.021,110.252,34.254,-0.188,-0.398
'[08:34:09.110 16/05/1995]',0.106,0.021,110.252,34.254,-0.188,-0.398
'[08:34:09.112 16/05/1995]',0.106,0.021,119.169,36.130,-0.188,-0.397
'[08:34:09.114 16/05/1995]',0.106,0.032,119.169,36.130,-0.188,-0.397
'[08:34:09.116 16/05/1995]',0.106,0.032,119.169,36.130,-0.188,-0.397
'[08:34:09.118 16/05/1995]',0.106,0.032,119.169,36.130,-0.188,-0.397
'[08:34:09.120 16/05/1995]',0.106,0.021,127.179,37.907,-0.176,-0.395
'[08:34:09.122 16/05/1995]',0.106,0.011,127.179,37.907,-0.176,-0.395
'[08:34:09.124 16/05/1995]',0.106,0.001,127.179,37.907,-0.176,-0.395
'[08:34:09.126 16/05/1995]',0.106,0.001,127.179,37.907,-0.176,-0.395
'[08:34:09.128 16/05/1995]',0.106,0.011,134.056,39.608,-0.165,-0.392
'[08:34:09.130 16/05/1995]',0.106,0.011,134.056,39.608,-0.165,-0.392
'[08:34:09.132 16/05/1995]',0.106,0.021,134.056,39.608,-0.165,-0.392
'[08:34:09.134 16/05/1995]',0.106,0.021,134.056,39.608,-0.165,-0.392
'[08:34:09.136 16/05/1995]',0.127,0.032,139.648,41.234,-0.165,-0.389
'[08:34:09.138 16/05/1995]',0.127,0.032,139.648,41.234,-0.165,-0.389
'[08:34:09.140 16/05/1995]',0.127,0.032,139.648,41.234,-0.165,-0.389
'[08:34:09.142 16/05/1995]',0.127,0.032,139.648,41.234,-0.165,-0.389
'[08:34:09.144 16/05/1995]',0.127,0.021,144.182,42.811,-0.129,-0.386
'[08:34:09.146 16/05/1995]',0.127,0.011,144.182,42.811,-0.129,-0.386
'[08:34:09.148 16/05/1995]',0.127,0.021,144.182,42.811,-0.129,-0.386
'[08:34:09.150 16/05/1995]',0.127,0.021,144.182,42.811,-0.129,-0.386
'[08:34:09.152 16/05/1995]',0.127,0.021,147.507,44.337,-0.105,-0.383
'[08:34:09.154 16/05/1995]',0.148,0.021,147.507,44.337,-0.105,-0.383
'[08:34:09.156 16/05/1995]',0.148,0.011,147.507,44.337,-0.105,-0.383
'[08:34:09.158 16/05/1995]',0.148,0.001,147.507,44.337,-0.105,-0.383
'[08:34:09.160 16/05/1995]',0.148,0.001,150.000,45.763,-0.082,-0.381
'[08:34:09.162 16/05/1995]',0.148,0.001,150.000,45.763,-0.082,-0.381
'[08:34:09.164 16/05/1995]',0.148,0.001,150.000,45.763,-0.082,-0.381
'[08:34:09.166 16/05/1995]',0.148,0.001,150.000,45.763,-0.082,-0.381
'[08:34:09.168 16/05/1995]',0.148,0.001,151.890,47.114,-0.047,-0.378
'[08:34:09.170 16/05/1995]',0.169,0.001,151.890,47.114,-0.047,-0.378
'[08:34:09.172 16/05/1995]',0.169,0.001,151.890,47.114,-0.047,-0.378
'[08:34:09.174 16/05/1995]',0.169,0.001,151.890,47.114,-0.047,-0.378
'[08:34:09.176 16/05/1995]',0.169,0.001,153.250,48.215,-0.024,-0.376
'[08:34:09.178 16/05/1995]',0.169,0.001,153.250,48.215,-0.024,-0.376
'[08:34:09.180 16/05/1995]',0.169,0.001,153.250,48.215,-0.024,-0.376
'[08:34:09.182 16/05/1995]',0.169,0.001,153.250,48.215,-0.024,-0.376
'[08:34:09.184 16/05/1995]',0.190,0.001,154.383,49.091,0.024,-0.373
'[08:34:09.186 16/05/1995]',0.190,0.001,154.383,49.091,0.024,-0.373
'[08:34:09.188 16/05/1995]',0.190,0.011,154.383,49.091,0.024,-0.373
'[08:34:09.190 16/05/1995]',0.190,0.011,154.383,49.091,0.024,-0.373
'[08:34:09.192 16/05/1995]',0.190,0.011,155.290,49.867,0.047,-0.371
'[08:34:09.194 16/05/1995]',0.211,0.001,155.290,49.867,0.047,-0.371
'[08:34:09.196 16/05/1995]',0.211,0.001,155.290,49.867,0.047,-0.371
'[08:34:09.198 16/05/1995]',0.211,0.001,155.290,49.867,0.047,-0.371
'[08:34:09.200 16/05/1995]',0.211,0.001,156.046,50.492,0.094,-0.369
'[08:34:09.202 16/05/1995]',0.211,0.001,156.046,50.492,0.094,-0.369
'[08:34:09.204 16/05/1995]',0.211,0.001,156.046,50.492,0.094,-0.369
'[08:34:09.206 16/05/1995]',0.232,-0.009,156.046,50.492,0.094,-0.369
'[08:34:09.208 16/05/1995]',0.232,-0.009,156.650,51.218,0.130,-0.367
'[08:34:09.210 16/05/1995]',0.232,-0.009,156.650,51.218,0.130,-0.367
'[08:34:09.212 16/05/1995]',0.232,-0.020,156.650,51.218,0.130,-0.367
'[08:34:09.214 16/05/1995]',0.232,-0.009,156.650,51.218,0.130,-0.367
'[08:34:09.216 16/05/1995]',0.232,-0.009,157.406,51.968,0.141,-0.365
'[08:34:09.218 16/05/1995]',0.253,-0.009,157.406,51.968,0.141,-0.365
'[08:34:09.220 16/05/1995]',0.253,-0.009,157.406,51.968,0.141,-0.365
'[08:34:09.222 16/05/1995]',0.253,-0.009,157.406,51.968,0.141,-0.365
'[08:34:09.224 16/05/1995]',0.253,-0.009,158.162,52.794,0.176,-0.363
'[08:34:09.226 16/05/1995]',0.253,-0.020,158.162,52.794,0.176,-0.363
'[08:34:09.228 16/05/1995]',0.274,-0.020,158.162,52.794,0.176,-0.363
'[08:34:09.230 16/05/1995]',0.274,-0.020,158.162,52.794,0.176,-0.363
'[08:34:09.232 16/05/1995]',0.274,-0.030,158.842,53.444,0.211,-0.360
'[08:34:09.234 16/05/1995]',0.274,-0.030,158.842,53.444,0.211,-0.360
'[08:34:09.236 16/05/1995]',0.274,-0.020,158.842,53.444,0.211,-0.360
'[08:34:09.238 16/05/1995]',0.274,-0.020,158.842,53.444,0.211,-0.360
'[08:34:09.240 16/05/1995]',0.274,-0.030,159.446,53.895,0.235,-0.358
'[08:34:09.242 16/05/1995]',0.274,-0.030,159.446,53.895,0.235,-0.358
'[08:34:09.244 16/05/1995]',0.274,-0.030,159.446,53.895,0.235,-0.358
'[08:34:09.246 16/05/1995]',0.274,-0.041,159.446,53.895,0.235,-0.358
'[08:34:09.248 16/05/1995]',0.274,-0.041,159.673,54.070,0.235,-0.356
'[08:34:09.250 16/05/1995]',0.274,-0.041,159.673,54.070,0.235,-0.356
'[08:34:09.252 16/05/1995]',0.274,-0.041,159.673,54.070,0.235,-0.356
'[08:34:09.254 16/05/1995]',0.274,-0.041,159.673,54.070,0.235,-0.356
'[08:34:09.256 16/05/1995]',0.274,-0.041,159.597,53.795,0.259,-0.354
'[08:34:09.258 16/05/1995]',0.274,-0.041,159.597,53.795,0.259,-0.354
'[08:34:09.260 16/05/1995]',0.274,-0.041,159.597,53.795,0.259,-0.354
'[08:34:09.262 16/05/1995]',0.253,-0.030,159.597,53.795,0.259,-0.354
'[08:34:09.264 16/05/1995]',0.253,-0.030,159.144,52.794,0.271,-0.353
'[08:34:09.266 16/05/1995]',0.253,-0.030,159.144,52.794,0.271,-0.353
'[08:34:09.268 16/05/1995]',0.253,-0.030,159.144,52.794,0.271,-0.353
'[08:34:09.270 16/05/1995]',0.253,-0.041,159.144,52.794,0.271,-0.353
'[08:34:09.272 16/05/1995]',0.253,-0.041,158.615,51.218,0.282,-0.352
'[08:34:09.274 16/05/1995]',0.232,-0.041,158.615,51.218,0.282,-0.352
'[08:34:09.276 16/05/1995]',0.232,-0.041,158.615,51.218,0.282,-0.352
'[08:34:09.278 16/05/1995]',0.211,-0.041,158.615,51.218,0.282,-0.352
'[08:34:09.280 16/05/1995]',0.211,-0.041,157.935,49.341,0.294,-0.351
'[08:34:09.282 16/05/1995]',0.211,-0.041,157.935,49.341,0.294,-0.351
'[08:34:09.284 16/05/1995]',0.211,-0.030,157.935,49.341,0.294,-0.351
'[08:34:09.286 16/05/1995]',0.190,-0.030,157.935,49.341,0.294,-0.351
'[08:34:09.288 16/05/1995]',0.190,-0.030,156.953,47.740,0.305,-0.350
'[08:34:09.290 16/05/1995]',0.190,-0.030,156.953,47.740,0.305,-0.350
'[08:34:09.292 16/05/1995]',0.169,-0.030,156.953,47.740,0.305,-0.350
'[08:34:09.294 16/05/1995]',0.148,-0.020,156.953,47.740,0.305,-0.350
'[08:34:09.296 16/05/1995]',0.148,-0.030,155.592,46.564,0.305,-0.348
'[08:34:09.298 16/05/1995]',0.127,-0.020,155.592,46.564,0.305,-0.348
'[08:34:09.300 16/05/1995]',0.127,-0.020,155.592,46.564,0.305,-0.348
'[08:34:09.302 16/05/1995]',0.106,-0.009,155.592,46.564,0.305,-0.348
'[08:34:09.304 16/05/1995]',0.106,-0.009,153.930,45.863,0.305,-0.347
'[08:34:09.306 16/05/1995]',0.106,-0.009,153.930,45.863,0.305,-0.347
'[08:34:09.308 16/05/1995]',0.085,-0.009,153.930,45.863,0.305,-0.347
'[08:34:09.310 16/05/1995]',0.085,-0.020,153.930,45.863,0.305,-0.347
'[08:34:09.312 16/05/1995]',0.064,-0.020,151.738,45.513,0.318,-0.347
'[08:34:09.314 16/05/1995]',0.043,-0.030,151.738,45.513,0.318,-0.347
'[08:34:09.316 16/05/1995]',0.043,-0.030,151.738,45.513,0.318,-0.347
'[08:34:09.318 16/05/1995]',0.043,-0.030,151.738,45.513,0.318,-0.347
'[08:34:09.320 16/05/1995]',0.022,-0.030,149.094,45.463,0.305,-0.347
'[08:34:09.322 16/05/1995]',0.022,-0.020,149.094,45.463,0.305,-0.347
'[08:34:09.324 16/05/1995]',0.022,-0.020,149.094,45.463,0.305,-0.347
'[08:34:09.326 16/05/1995]',0.002,-0.009,149.094,45.463,0.305,-0.347
'[08:34:09.328 16/05/1995]',0.002,-0.009,145.995,45.588,0.305,-0.347
'[08:34:09.330 16/05/1995]',0.002,-0.009,145.995,45.588,0.305,-0.347
'[08:34:09.332 16/05/1995]',0.002,0.001,145.995,45.588,0.305,-0.347
'[08:34:09.334 16/05/1995]',0.002,0.001,145.995,45.588,0.305,-0.347
'[08:34:09.336 16/05/1995]',0.002,0.001,142.368,45.863,0.294,-0.348
'[08:34:09.338 16/05/1995]',0.002,0.001,142.368,45.863,0.294,-0.348
'[08:34:09.340 16/05/1995]',-0.019,0.001,142.368,45.863,0.294,-0.348
'[08:34:09.342 16/05/1995]',-0.019,0.001,142.368,45.863,0.294,-0.348
'[08:34:09.344 16/05/1995]',-0.040,0.001,138.136,46.163,0.305,-0.348
'[08:34:09.346 16/05/1995]',-0.040,0.001,138.136,46.163,0.305,-0.348
'[08:34:09.348 16/05/1995]',-0.040,0.001,138.136,46.163,0.305,-0.348
'[08:34:09.350 16/05/1995]',-0.040,0.001,138.136,46.163,0.305,-0.348
'[08:34:09.352 16/05/1995]',-0.040,0.001,133.300,46.339,0.282,-0.349
'[08:34:09.354 16/05/1995]',-0.040,0.001,133.300,46.339,0.282,-0.349
'[08:34:09.356 16/05/1995]',-0.040,0.001,133.300,46.339,0.282,-0.349
'[08:34:09.358 16/05/1995]',-0.040,0.001,133.300,46.339,0.282,-0.349
'[08:34:09.360 16/05/1995]',-0.040,0.001,128.010,46.389,0.282,-0.349
'[08:34:09.362 16/05/1995]',-0.061,0.001,128.010,46.389,0.282,-0.349
'[08:34:09.364 16/05/1995]',-0.061,0.011,128.010,46.389,0.282,-0.349
'[08:34:09.366 16/05/1995]',-0.061,0.001,128.010,46.389,0.282,-0.349
'[08:34:09.368 16/05/1995]',-0.061,0.001,122.418,46.289,0.282,-0.350
'[08:34:09.370 16/05/1995]',-0.061,0.001,122.418,46.289,0.282,-0.350
'[08:34:09.372 16/05/1995]',-0.040,0.001,122.418,46.289,0.282,-0.350
'[08:34:09.374 16/05/1995]',-0.040,0.001,122.418,46.289,0.282,-0.350
'[08:34:09.376 16/05/1995]',-0.040,0.001,116.978,46.113,0.247,-0.352
'[08:34:09.378 16/05/1995]',-0.040,0.001,116.978,46.113,0.247,-0.352
'[08:34:09.380 16/05/1995]',-0.061,0.001,116.978,46.113,0.247,-0.352
'[08:34:09.382 16/05/1995]',-0.061,0.001,116.978,46.113,0.247,-0.352
'[08:34:09.384 16/05/1995]',-0.061,0.001,111.915,45.763,0.235,-0.355
'[08:34:09.386 16/05/1995]',-0.061,0.011,111.915,45.763,0.235,-0.355
'[08:34:09.388 16/05/1995]',-0.061,0.011,111.915,45.763,0.235,-0.355
'[08:34:09.390 16/05/1995]',-0.040,0.011,111.915,45.763,0.235,-0.355
'[08:34:09.392 16/05/1995]',-0.040,0.011,107.683,45.238,0.235,-0.359
'[08:34:09.394 16/05/1995]',-0.040,0.011,107.683,45.238,0.235,-0.359
'[08:34:09.396 16/05/1995]',-0.040,0.011,107.683,45.238,0.235,-0.359
'[08:34:09.398 16/05/1995]',-0.061,0.011,107.683,45.238,0.235,-0.359
'[08:34:09.400 16/05/1995]',-0.040,0.011,104.358,44.512,0.211,-0.363
'[08:34:09.402 16/05/1995]',-0.040,0.011,104.358,44.512,0.211,-0.363
'[08:34:09.404 16/05/1995]',-0.040,0.011,104.358,44.512,0.211,-0.363
'[08:34:09.406 16/05/1995]',-0.040,0.011,104.358,44.512,0.211,-0.363
'[08:34:09.408 16/05/1995]',-0.040,0.011,101.864,43.536,0.176,-0.367
'[08:34:09.410 16/05/1995]',-0.040,0.001,101.864,43.536,0.176,-0.367
'[08:34:09.412 16/05/1995]',-0.040,0.001,101.864,43.536,0.176,-0.367
'[08:34:09.414 16/05/1995]',-0.040,0.001,101.864,43.536,0.176,-0.367
'[08:34:09.416 16/05/1995]',-0.040,0.001,100.277,42.360,0.153,-0.371
'[08:34:09.418 16/05/1995]',-0.040,0.011,100.277,42.360,0.153,-0.371
'[08:34:09.420 16/05/1995]',-0.040,0.011,100.277,42.360,0.153,-0.371
'[08:34:09.422 16/05/1995]',-0.040,0.011,100.277,42.360,0.153,-0.371
'[08:34:09.424 16/05/1995]',-0.040,0.011,99.371,41.059,0.141,-0.375
'[08:34:09.426 16/05/1995]',-0.040,0.011,99.371,41.059,0.141,-0.375
'[08:34:09.428 16/05/1995]',-0.040,0.011,99.371,41.059,0.141,-0.375
'[08:34:09.430 16/05/1995]',-0.040,0.011,99.371,41.059,0.141,-0.375
'[08:34:09.432 16/05/1995]',-0.040,0.021,98.842,39.783,0.106,-0.379
'[08:34:09.434 16/05/1995]',-0.040,0.021,98.842,39.783,0.106,-0.379
'[08:34:09.436 16/05/1995]',-0.040,0.021,98.842,39.783,0.106,-0.379
'[08:34:09.438 16/05/1995]',-0.040,0.021,98.842,39.783,0.106,-0.379
'[08:34:09.440 16/05/1995]',-0.040,0.021,98.615,38.607,0.094,-0.383
'[08:34:09.442 16/05/1995]',-0.040,0.021,98.615,38.607,0.094,-0.383
'[08:34:09.444 16/05/1995]',-0.040,0.021,98.615,38.607,0.094,-0.383
'[08:34:09.446 16/05/1995]',-0.040,0.021,98.615,38.607,0.094,-0.383
'[08:34:09.448 16/05/1995]',-0.040,0.021,98.464,37.531,0.059,-0.388
'[08:34:09.450 16/05/1995]',-0.040,0.032,98.464,37.531,0.059,-0.388
'[08:34:09.452 16/05/1995]',-0.040,0.021,98.464,37.531,0.059,-0.388
'[08:34:09.454 16/05/1995]',-0.040,0.021,98.464,37.531,0.059,-0.388
'[08:34:09.456 16/05/1995]',-0.040,0.021,98.388,36.731,0.047,-0.392
'[08:34:09.458 16/05/1995]',-0.040,0.021,98.388,36.731,0.047,-0.392
'[08:34:09.460 16/05/1995]',-0.040,0.011,98.388,36.731,0.047,-0.392
'[08:34:09.462 16/05/1995]',-0.040,0.011,98.388,36.731,0.047,-0.392
'[08:34:09.464 16/05/1995]',-0.040,0.011,98.388,36.080,0.012,-0.396
'[08:34:09.466 16/05/1995]',-0.040,0.011,98.388,36.080,0.012,-0.396
'[08:34:09.468 16/05/1995]',-0.040,0.011,98.388,36.080,0.012,-0.396
'[08:34:09.470 16/05/1995]',-0.040,0.011,98.388,36.080,0.012,-0.396
'[08:34:09.472 16/05/1995]',-0.040,0.011,98.464,35.780,0.000,-0.400
'[08:34:09.474 16/05/1995]',-0.019,0.011,98.464,35.780,0.000,-0.400
'[08:34:09.476 16/05/1995]',-0.040,0.021,98.464,35.780,0.000,-0.400
'[08:34:09.478 16/05/1995]',-0.040,0.021,98.464,35.780,0.000,-0.400
'[08:34:09.480 16/05/1995]',-0.040,0.021,98.388,36.030,-0.024,-0.403
'[08:34:09.482 16/05/1995]',-0.040,0.021,98.388,36.030,-0.024,-0.403
'[08:34:09.484 16/05/1995]',-0.040,0.021,98.388,36.030,-0.024,-0.403
'[08:34:09.486 16/05/1995]',-0.040,0.021,98.388,36.030,-0.024,-0.403
'[08:34:09.488 16/05/1995]',-0.019,0.021,98.086,37.081,-0.035,-0.406
'[08:34:09.490 16/05/1995]',-0.019,0.021,98.086,37.081,-0.035,-0.406
'[08:34:09.492 16/05/1995]',-0.019,0.021,98.086,37.081,-0.035,-0.406
'[08:34:09.494 16/05/1995]',-0.040,0.021,98.086,37.081,-0.035,-0.406
'[08:34:09.496 16/05/1995]',-0.040,0.021,97.632,39.007,-0.059,-0.408
'[08:34:09.498 16/05/1995]',-0.040,0.011,97.632,39.007,-0.059,-0.408
'[08:34:09.500 16/05/1995]',-0.040,0.021,97.632,39.007,-0.059,-0.408
'[08:34:09.502 16/05/1995]',-0.040,0.011,97.632,39.007,-0.059,-0.408
'[08:34:09.504 16/05/1995]',-0.040,0.011,97.028,41.710,-0.070,-0.411
'[08:34:09.506 16/05/1995]',-0.040,0.011,97.028,41.710,-0.070,-0.411
'[08:34:09.508 16/05/1995]',-0.040,0.011,97.028,41.710,-0.070,-0.411
'[08:34:09.510 16/05/1995]',-0.040,0.011,97.028,41.710,-0.070,-0.411
'[08:34:09.512 16/05/1995]',-0.040,0.011,96.197,44.462,-0.094,-0.414
'[08:34:09.514 16/05/1995]',-0.040,0.011,96.197,44.462,-0.094,-0.414
'[08:34:09.516 16/05/1995]',-0.040,0.001,96.197,44.462,-0.094,-0.414
'[08:34:09.518 16/05/1995]',-0.040,0.001,96.197,44.462,-0.094,-0.414
'[08:34:09.520 16/05/1995]',-0.040,0.001,95.290,46.739,-0.105,-0.417
'[08:34:09.522 16/05/1995]',-0.040,0.001,95.290,46.739,-0.105,-0.417
'[08:34:09.524 16/05/1995]',-0.040,0.001,95.290,46.739,-0.105,-0.417
'[08:34:09.526 16/05/1995]',-0.040,0.001,95.290,46.739,-0.105,-0.417
'[08:34:09.528 16/05/1995]',-0.040,0.001,94.308,48.040,-0.105,-0.420
'[08:34:09.530 16/05/1995]',-0.040,0.001,94.308,48.040,-0.105,-0.420
'[08:34:09.532 16/05/1995]',-0.040,0.001,94.308,48.040,-0.105,-0.420
'[08:34:09.534 16/05/1995]',-0.040,0.001,94.308,48.040,-0.105,-0.420
'[08:34:09.536 16/05/1995]',-0.040,0.001,93.250,48.340,-0.117,-0.423
'[08:34:09.538 16/05/1995]',-0.040,0.001,93.250,48.340,-0.117,-0.423
'[08:34:09.540 16/05/1995]',-0.040,0.001,93.250,48.340,-0.117,-0.423
'[08:34:09.542 16/05/1995]',-0.040,0.001,93.250,48.340,-0.117,-0.423
'[08:34:09.544 16/05/1995]',-0.040,0.001,92.116,47.740,-0.141,-0.426
'[08:34:09.546 16/05/1995]',-0.040,0.001,92.116,47.740,-0.141,-0.426
'[08:34:09.548 16/05/1995]',-0.040,0.001,92.116,47.740,-0.141,-0.426
'[08:34:09.550 16/05/1995]',-0.040,0.001,92.116,47.740,-0.141,-0.426
'[08:34:09.552 16/05/1995]',-0.040,0.001,91.058,46.564,-0.129,-0.428
'[08:34:09.554 16/05/1995]',-0.061,0.001,91.058,46.564,-0.129,-0.428
'[08:34:09.556 16/05/1995]',-0.040,0.001,91.058,46.564,-0.129,-0.428
'[08:34:09.558 16/05/1995]',-0.040,0.001,91.058,46.564,-0.129,-0.428
'[08:34:09.560 16/05/1995]',-0.040,0.001,90.000,45.037,-0.141,-0.430
'[08:34:09.562 16/05/1995]',-0.040,0.001,90.000,45.037,-0.141,-0.430
'[08:34:09.564 16/05/1995]',-0.040,0.001,90.000,45.037,-0.141,-0.430
'[08:34:09.566 16/05/1995]',-0.040,0.001,90.000,45.037,-0.141,-0.430
'[08:34:09.568 16/05/1995]',-0.040,0.001,88.942,43.286,-0.165,-0.433
'[08:34:09.570 16/05/1995]',-0.040,0.001,88.942,43.286,-0.165,-0.433
'[08:34:09.572 16/05/1995]',-0.040,0.001,88.942,43.286,-0.165,-0.433
'[08:34:09.574 16/05/1995]',-0.040,0.001,88.942,43.286,-0.165,-0.433
'[08:34:09.576 16/05/1995]',-0.040,0.001,87.960,41.485,-0.176,-0.435
'[08:34:09.578 16/05/1995]',-0.040,0.001,87.960,41.485,-0.176,-0.435
'[08:34:09.580 16/05/1995]',-0.040,0.001,87.960,41.485,-0.176,-0.435
'[08:34:09.582 16/05/1995]',-0.040,0.001,87.960,41.485,-0.176,-0.435
'[08:34:09.584 16/05/1995]',-0.040,0.001,87.053,39.658,-0.165,-0.439
'[08:34:09.586 16/05/1995]',-0.040,0.001,87.053,39.658,-0.165,-0.439
'[08:34:09.588 16/05/1995]',-0.040,0.001,87.053,39.658,-0.165,-0.439
'[08:34:09.590 16/05/1995]',-0.040,0.001,87.053,39.658,-0.165,-0.439
'[08:34:09.592 16/05/1995]',-0.040,0.001,86.222,37.957,-0.176,-0.442
'[08:34:09.594 16/05/1995]',-0.040,0.001,86.222,37.957,-0.176,-0.442
'[08:34:09.596 16/05/1995]',-0.040,0.001,86.222,37.957,-0.176,-0.442
'[08:34:09.598 16/05/1995]',-0.040,0.001,86.222,37.957,-0.176,-0.442
'[08:34:09.600 16/05/1995]',-0.040,0.011,85.466,36.430,-0.188,-0.444
'[08:34:09.602 16/05/1995]',-0.040,0.011,85.466,36.430,-0.188,-0.444
'[08:34:09.604 16/05/1995]',-0.040,0.001,85.466,36.430,-0.188,-0.444
'[08:34:09.606 16/05/1995]',-0.040,0.001,85.466,36.430,-0.188,-0.444
'[08:34:09.608 16/05/1995]',-0.040,0.011,84.786,35.129,-0.188,-0.445
'[08:34:09.610 16/05/1995]',-0.040,0.001,84.786,35.129,-0.188,-0.445
'[08:34:09.612 16/05/1995]',-0.040,0.001,84.786,35.129,-0.188,-0.445
'[08:34:09.614 16/05/1995]',-0.040,0.011,84.786,35.129,-0.188,-0.445
'[08:34:09.616 16/05/1995]',-0.040,0.011,84.106,34.153,-0.200,-0.447
'[08:34:09.618 16/05/1995]',-0.040,0.001,84.106,34.153,-0.200,-0.447
'[08:34:09.620 16/05/1995]',-0.040,0.021,84.106,34.153,-0.200,-0.447
'[08:34:09.622 16/05/1995]',-0.040,0.011,84.106,34.153,-0.200,-0.447
'[08:34:09.624 16/05/1995]',-0.040,0.021,83.501,33.428,-0.211,-0.448
'[08:34:09.626 16/05/1995]',-0.040,0.021,83.501,33.428,-0.211,-0.448
'[08:34:09.628 16/05/1995]',-0.040,0.021,83.501,33.428,-0.211,-0.448
'[08:34:09.630 16/05/1995]',-0.040,0.011,83.501,33.428,-0.211,-0.448
'[08:34:09.632 16/05/1995]',-0.040,0.011,82.973,32.977,-0.211,-0.449
'[08:34:09.634 16/05/1995]',-0.040,0.001,82.973,32.977,-0.211,-0.449
'[08:34:09.636 16/05/1995]',-0.040,0.001,82.973,32.977,-0.211,-0.449
'[08:34:09.638 16/05/1995]',-0.040,0.001,82.973,32.977,-0.211,-0.449
'[08:34:09.640 16/05/1995]',-0.040,0.001,82.519,32.627,-0.211,-0.450
'[08:34:09.642 16/05/1995]',-0.040,0.001,82.519,32.627,-0.211,-0.450
'[08:34:09.644 16/05/1995]',-0.040,0.001,82.519,32.627,-0.211,-0.450
'[08:34:09.646 16/05/1995]',-0.040,0.001,82.519,32.627,-0.211,-0.450
'[08:34:09.648 16/05/1995]',-0.040,0.011,82.141,32.452,-0.223,-0.450
'[08:34:09.650 16/05/1995]',-0.040,0.001,82.141,32.452,-0.223,-0.450
'[08:34:09.652 16/05/1995]',-0.040,0.001,82.141,32.452,-0.223,-0.450
'[08:34:09.654 16/05/1995]',-0.040,0.011,82.141,32.452,-0.223,-0.450
'[08:34:09.656 16/05/1995]',-0.040,0.001,81.688,32.377,-0.235,-0.451
'[08:34:09.658 16/05/1995]',-0.040,0.001,81.688,32.377,-0.235,-0.451
'[08:34:09.660 16/05/1995]',-0.040,0.001,81.688,32.377,-0.235,-0.451
'[08:34:09.662 16/05/1995]',-0.040,0.001,81.688,32.377,-0.235,-0.451
'[08:34:09.664 16/05/1995]',-0.040,0.001,81.234,32.452,-0.223,-0.453
'[08:34:09.666 16/05/1995]',-0.040,0.001,81.234,32.452,-0.223,-0.453
'[08:34:09.668 16/05/1995]',-0.040,0.001,81.234,32.452,-0.223,-0.453
'[08:34:09.670 16/05/1995]',-0.040,0.001,81.234,32.452,-0.223,-0.453
'[08:34:09.672 16/05/1995]',-0.040,0.001,80.630,32.627,-0.235,-0.454
'[08:34:09.674 16/05/1995]',-0.040,0.011,80.630,32.627,-0.235,-0.454
'[08:34:09.676 16/05/1995]',-0.040,0.011,80.630,32.627,-0.235,-0.454
'[08:34:09.678 16/05/1995]',-0.040,0.001,80.630,32.627,-0.235,-0.454
'[08:34:09.680 16/05/1995]',-0.040,0.001,80.101,32.802,-0.235,-0.456
'[08:34:09.682 16/05/1995]',-0.040,0.001,80.101,32.802,-0.235,-0.456
'[08:34:09.684 16/05/1995]',-0.040,0.001,80.101,32.802,-0.235,-0.456
'[08:34:09.686 16/05/1995]',-0.040,0.011,80.101,32.802,-0.235,-0.456
'[08:34:09.688 16/05/1995]',-0.040,0.011,79.496,32.902,-0.246,-0.458
'[08:34:09.690 16/05/1995]',-0.040,0.011,79.496,32.902,-0.246,-0.458
'[08:34:09.692 16/05/1995]',-0.040,0.011,79.496,32.902,-0.246,-0.458
'[08:34:09.694 16/05/1995]',-0.040,0.021,79.496,32.902,-0.246,-0.458
'[08:34:09.696 16/05/1995]',-0.040,0.001,79.043,33.078,-0.259,-0.460
'[08:34:09.698 16/05/1995]',-0.040,0.011,79.043,33.078,-0.259,-0.460
'[08:34:09.700 16/05/1995]',-0.040,0.021,79.043,33.078,-0.259,-0.460
'[08:34:09.702 16/05/1995]',-0.040,0.021,79.043,33.078,-0.259,-0.460
'[08:34:09.704 16/05/1995]',-0.040,0.021,78.665,33.203,-0.259,-0.462
'[08:34:09.706 16/05/1995]',-0.040,0.021,78.665,33.203,-0.259,-0.462
'[08:34:09.708 16/05/1995]',-0.040,0.021,78.665,33.203,-0.259,-0.462
'[08:34:09.710 16/05/1995]',-0.040,0.021,78.665,33.203,-0.259,-0.462
'[08:34:09.712 16/05/1995]',-0.040,0.011,78.287,33.328,-0.246,-0.463
'[08:34:09.714 16/05/1995]',-0.040,0.011,78.287,33.328,-0.246,-0.463
'[08:34:09.716 16/05/1995]',-0.040,0.001,78.287,33.328,-0.246,-0.463
'[08:34:09.718 16/05/1995]',-0.040,0.011,78.287,33.328,-0.246,-0.463
'[08:34:09.720 16/05/1995]',-0.040,0.011,77.910,33.378,-0.259,-0.465
'[08:34:09.722 16/05/1995]',-0.040,0.011,77.910,33.378,-0.259,-0.465
'[08:34:09.724 16/05/1995]',-0.040,0.011,77.910,33.378,-0.259,-0.465
'[08:34:09.726 16/05/1995]',-0.040,0.011,77.910,33.378,-0.259,-0.465
'[08:34:09.728 16/05/1995]',-0.040,0.011,77.456,33.428,-0.270,-0.466
'[08:34:09.730 16/05/1995]',-0.040,0.011,77.456,33.428,-0.270,-0.466
'[08:34:09.732 16/05/1995]',-0.040,0.021,77.456,33.428,-0.270,-0.466
'[08:34:09.734 16/05/1995]',-0.040,0.011,77.456,33.428,-0.270,-0.466
'[08:34:09.736 16/05/1995]',-0.040,0.011,77.078,33.378,-0.270,-0.468
'[08:34:09.738 16/05/1995]',-0.019,0.011,77.078,33.378,-0.270,-0.468
'[08:34:09.740 16/05/1995]',-0.019,0.011,77.078,33.378,-0.270,-0.468
'[08:34:09.742 16/05/1995]',-0.040,0.001,77.078,33.378,-0.270,-0.468
'[08:34:09.744 16/05/1995]',-0.040,0.001,76.776,33.328,-0.270,-0.469
'[08:34:09.746 16/05/1995]',-0.040,0.001,76.776,33.328,-0.270,-0.469
'[08:34:09.748 16/05/1995]',-0.040,0.001,76.776,33.328,-0.270,-0.469
'[08:34:09.750 16/05/1995]',-0.040,0.001,76.776,33.328,-0.270,-0.469
'[08:34:09.752 16/05/1995]',-0.040,0.001,76.398,33.203,-0.270,-0.470
'[08:34:09.754 16/05/1995]',-0.040,0.011,76.398,33.203,-0.270,-0.470
'[08:34:09.756 16/05/1995]',-0.040,0.021,76.398,33.203,-0.270,-0.470
'[08:34:09.758 16/05/1995]',-0.040,0.021,76.398,33.203,-0.270,-0.470
'[08:34:09.760 16/05/1995]',-0.040,0.021,76.020,33.027,-0.270,-0.471
'[08:34:09.762 16/05/1995]',-0.040,0.021,76.020,33.027,-0.270,-0.471
'[08:34:09.764 16/05/1995]',-0.040,0.021,76.020,33.027,-0.270,-0.471
'[08:34:09.766 16/05/1995]',-0.040,0.021,76.020,33.027,-0.270,-0.471
'[08:34:09.768 16/05/1995]',-0.040,0.021,75.718,32.852,-0.270,-0.472
'[08:34:09.770 16/05/1995]',-0.019,0.021,75.718,32.852,-0.270,-0.472
'[08:34:09.772 16/05/1995]',-0.040,0.021,75.718,32.852,-0.270,-0.472
'[08:34:09.774 16/05/1995]',-0.040,0.011,75.718,32.852,-0.270,-0.472
'[08:34:09.776 16/05/1995]',-0.040,0.011,75.416,32.677,-0.282,-0.473
'[08:34:09.778 16/05/1995]',-0.040,0.011,75.416,32.677,-0.282,-0.473
'[08:34:09.780 16/05/1995]',-0.040,0.001,75.416,32.677,-0.282,-0.473
'[08:34:09.782 16/05/1995]',-0.040,0.001,75.416,32.677,-0.282,-0.473
'[08:34:09.784 16/05/1995]',-0.040,0.001,75.114,32.502,-0.278,-0.473
'[08:34:09.786 16/05/1995]',-0.040,0.011,75.114,32.502,-0.278,-0.473
'[08:34:09.788 16/05/1995]',-0.040,0.011,75.114,32.502,-0.278,-0.473
'[08:34:09.790 16/05/1995]',-0.040,0.011,75.114,32.502,-0.278,-0.473
'[08:34:09.792 16/05/1995]',-0.040,0.011,74.811,32.327,-0.266,-0.473
'[08:34:09.794 16/05/1995]',-0.040,0.011,74.811,32.327,-0.266,-0.473
'[08:34:09.796 16/05/1995]',-0.040,0.011,74.811,32.327,-0.266,-0.473
'[08:34:09.798 16/05/1995]',-0.040,0.001,74.811,32.327,-0.266,-0.473
'[08:34:09.800 16/05/1995]',-0.040,0.011,74.509,32.152,-0.278,-0.474
'[08:34:09.802 16/05/1995]',-0.019,0.011,74.509,32.152,-0.278,-0.474
'[08:34:09.804 16/05/1995]',-0.019,0.011,74.509,32.152,-0.278,-0.474
'[08:34:09.806 16/05/1995]',-0.019,0.011,74.509,32.152,-0.278,-0.474
'[08:34:09.808 16/05/1995]',-0.019,0.011,74.131,32.027,-0.278,-0.474
'[08:34:09.810 16/05/1995]',-0.019,0.001,74.131,32.027,-0.278,-0.474
'[08:34:09.812 16/05/1995]',-0.019,0.001,74.131,32.027,-0.278,-0.474
'[08:34:09.814 16/05/1995]',-0.019,0.011,74.131,32.027,-0.278,-0.474
'[08:34:09.816 16/05/1995]',-0.019,0.001,73.829,31.977,-0.289,-0.474
'[08:34:09.818 16/05/1995]',-0.019,0.001,73.829,31.977,-0.289,-0.474
'[08:34:09.820 16/05/1995]',-0.019,0.011,73.829,31.977,-0.289,-0.474
'[08:34:09.822 16/05/1995]',-0.019,0.011,73.829,31.977,-0.289,-0.474
'[08:34:09.824 16/05/1995]',-0.019,0.001,73.527,31.852,-0.278,-0.474
'[08:34:09.826 16/05/1995]',-0.019,0.001,73.527,31.852,-0.278,-0.474
'[08:34:09.828 16/05/1995]',-0.019,0.001,73.527,31.852,-0.278,-0.474
'[08:34:09.830 16/05/1995]',-0.040,0.001,73.527,31.852,-0.278,-0.474
'[08:34:09.832 16/05/1995]',-0.040,0.001,73.300,31.676,-0.289,-0.475
'[08:34:09.834 16/05/1995]',-0.040,0.001,73.300,31.676,-0.289,-0.475
'[08:34:09.836 16/05/1995]',-0.040,0.001,73.300,31.676,-0.289,-0.475
'[08:34:09.838 16/05/1995]',-0.040,0.001,73.300,31.676,-0.289,-0.475
'[08:34:09.840 16/05/1995]',-0.019,0.001,73.073,31.551,-0.289,-0.475
'[08:34:09.842 16/05/1995]',-0.019,0.001,73.073,31.551,-0.289,-0.475
'[08:34:09.844 16/05/1995]',-0.019,0.011,73.073,31.551,-0.289,-0.475
'[08:34:09.846 16/05/1995]',-0.019,0.001,73.073,31.551,-0.289,-0.475
'[08:34:09.848 16/05/1995]',-0.019,0.001,72.847,31.451,-0.289,-0.475
'[08:34:09.850 16/05/1995]',-0.019,0.001,72.847,31.451,-0.289,-0.475
'[08:34:09.852 16/05/1995]',0.002,0.001,72.847,31.451,-0.289,-0.475
'[08:34:09.854 16/05/1995]',0.002,0.011,72.847,31.451,-0.289,-0.475
'[08:34:09.856 16/05/1995]',0.002,0.011,72.544,31.376,-0.289,-0.475
'[08:34:09.858 16/05/1995]',0.002,0.011,72.544,31.376,-0.289,-0.475
'[08:34:09.860 16/05/1995]',0.002,0.011,72.544,31.376,-0.289,-0.475
'[08:34:09.862 16/05/1995]',0.002,0.011,72.544,31.376,-0.289,-0.475
'[08:34:09.864 16/05/1995]',0.002,0.011,72.166,31.326,-0.300,-0.476
'[08:34:09.866 16/05/1995]',0.002,0.021,72.166,31.326,-0.300,-0.476
'[08:34:09.868 16/05/1995]',0.002,0.021,72.166,31.326,-0.300,-0.476
'[08:34:09.870 16/05/1995]',0.002,0.011,72.166,31.326,-0.300,-0.476
'[08:34:09.872 16/05/1995]',0.002,0.011,71.713,31.326,-0.289,-0.476
'[08:34:09.874 16/05/1995]',0.002,0.011,71.713,31.326,-0.289,-0.476
'[08:34:09.876 16/05/1995]',0.002,0.011,71.713,31.326,-0.289,-0.476
'[08:34:09.878 16/05/1995]',0.002,0.001,71.713,31.326,-0.289,-0.476
'[08:34:09.880 16/05/1995]',0.002,0.011,71.335,31.276,-0.289,-0.476
'[08:34:09.882 16/05/1995]',0.002,0.001,71.335,31.276,-0.289,-0.476
'[08:34:09.884 16/05/1995]',0.002,0.001,71.335,31.276,-0.289,-0.476
'[08:34:09.886 16/05/1995]',0.022,0.001,71.335,31.276,-0.289,-0.476
'[08:34:09.888 16/05/1995]',0.022,0.001,71.033,31.276,-0.289,-0.476
'[08:34:09.890 16/05/1995]',0.022,0.001,71.033,31.276,-0.289,-0.476
'[08:34:09.892 16/05/1995]',0.022,0.011,71.033,31.276,-0.289,-0.476
'[08:34:09.894 16/05/1995]',0.022,0.001,71.033,31.276,-0.289,-0.476
'[08:34:09.896 16/05/1995]',0.022,0.001,70.731,31.276,-0.289,-0.477
'[08:34:09.898 16/05/1995]',0.022,0.001,70.731,31.276,-0.289,-0.477
'[08:34:09.900 16/05/1995]',0.022,0.001,70.731,31.276,-0.289,-0.477
'[08:34:09.902 16/05/1995]',0.022,0.001,70.731,31.276,-0.289,-0.477
'[08:34:09.904 16/05/1995]',0.043,0.011,70.504,31.201,-0.289,-0.477
'[08:34:09.906 16/05/1995]',0.043,0.011,70.504,31.201,-0.289,-0.477
'[08:34:09.908 16/05/1995]',0.043,0.021,70.504,31.201,-0.289,-0.477
'[08:34:09.910 16/05/1995]',0.064,0.032,70.504,31.201,-0.289,-0.477
'[08:34:09.912 16/05/1995]',0.043,0.032,70.202,31.151,-0.266,-0.477
'[08:34:09.914 16/05/1995]',0.043,0.042,70.202,31.151,-0.266,-0.477
'[08:34:09.916 16/05/1995]',0.043,0.032,70.202,31.151,-0.266,-0.477
'[08:34:09.918 16/05/1995]',0.043,0.032,70.202,31.151,-0.266,-0.477
'[08:34:09.920 16/05/1995]',0.043,0.032,69.975,31.151,-0.266,-0.477
'[08:34:09.922 16/05/1995]',0.043,0.032,69.975,31.151,-0.266,-0.477
'[08:34:09.924 16/05/1995]',0.043,0.032,69.975,31.151,-0.266,-0.477
'[08:34:09.926 16/05/1995]',0.043,0.042,69.975,31.151,-0.266,-0.477
'[08:34:09.928 16/05/1995]',0.043,0.032,69.673,31.101,-0.266,-0.478
'[08:34:09.930 16/05/1995]',0.022,0.042,69.673,31.101,-0.266,-0.478
'[08:34:09.932 16/05/1995]',0.022,0.032,69.673,31.101,-0.266,-0.478
'[08:34:09.934 16/05/1995]',0.022,0.032,69.673,31.101,-0.266,-0.478
'[08:34:09.936 16/05/1995]',0.002,0.032,69.370,31.026,-0.266,-0.478
'[08:34:09.938 16/05/1995]',0.002,0.021,69.370,31.026,-0.266,-0.478
'[08:34:09.940 16/05/1995]',0.002,0.021,69.370,31.026,-0.266,-0.478
'[08:34:09.942 16/05/1995]',0.002,0.021,69.370,31.026,-0.266,-0.478
'[08:34:09.944 16/05/1995]',0.002,0.011,69.144,31.026,-0.255,-0.478
'[08:34:09.946 16/05/1995]',-0.019,0.001,69.144,31.026,-0.255,-0.478
'[08:34:09.948 16/05/1995]',-0.019,0.001,69.144,31.026,-0.255,-0.478
'[08:34:09.950 16/05/1995]',-0.019,0.001,69.144,31.026,-0.255,-0.478
'[08:34:09.952 16/05/1995]',-0.040,0.001,68.917,30.976,-0.255,-0.477
'[08:34:09.954 16/05/1995]',-0.040,0.001,68.917,30.976,-0.255,-0.477
'[08:34:09.956 16/05/1995]',-0.040,0.001,68.917,30.976,-0.255,-0.477
'[08:34:09.958 16/05/1995]',-0.040,0.001,68.917,30.976,-0.255,-0.477
'[08:34:09.960 16/05/1995]',-0.040,0.001,68.690,31.026,-0.255,-0.476
'[08:34:09.962 16/05/1995]',-0.040,0.001,68.690,31.026,-0.255,-0.476
'[08:34:09.964 16/05/1995]',-0.040,0.001,68.690,31.026,-0.255,-0.476
'[08:34:09.966 16/05/1995]',-0.040,0.001,68.690,31.026,-0.255,-0.476
'[08:34:09.968 16/05/1995]',-0.040,0.001,68.539,31.151,-0.255,-0.474
'[08:34:09.970 16/05/1995]',-0.040,0.001,68.539,31.151,-0.255,-0.474
'[08:34:09.972 16/05/1995]',-0.040,0.001,68.539,31.151,-0.255,-0.474
'[08:34:09.974 16/05/1995]',-0.040,0.011,68.539,31.151,-0.255,-0.474
'[08:34:09.976 16/05/1995]',-0.040,0.001,68.388,31.201,-0.243,-0.472
'[08:34:09.978 16/05/1995]',-0.040,0.011,68.388,31.201,-0.243,-0.472
'[08:34:09.980 16/05/1995]',-0.040,0.001,68.388,31.201,-0.243,-0.472
'[08:34:09.982 16/05/1995]',-0.040,0.001,68.388,31.201,-0.243,-0.472
'[08:34:09.984 16/05/1995]',-0.040,0.001,68.161,31.326,-0.243,-0.470
'[08:34:09.986 16/05/1995]',-0.040,0.001,68.161,31.326,-0.243,-0.470
'[08:34:09.988 16/05/1995]',-0.040,0.001,68.161,31.326,-0.243,-0.470
'[08:34:09.990 16/05/1995]',-0.019,0.001,68.161,31.326,-0.243,-0.470
'[08:34:09.992 16/05/1995]',-0.040,0.011,68.010,31.376,-0.243,-0.469
'[08:34:09.994 16/05/1995]',-0.040,0.011,68.010,31.376,-0.243,-0.469
'[08:34:09.996 16/05/1995]',-0.040,0.011,68.010,31.376,-0.243,-0.469
'[08:34:09.998 16/05/1995]',-0.040,0.011,68.010,31.376,-0.243,-0.469
'[08:34:10.000 16/05/1995]',-0.040,0.011,67.784,31.376,-0.255,-0.469
'[08:34:10.002 16/05/1995]',-0.040,0.001,67.784,31.376,-0.255,-0.469
'[08:34:10.004 16/05/1995]',-0.061,0.001,67.784,31.376,-0.255,-0.469
'[08:34:10.006 16/05/1995]',-0.061,0.001,67.784,31.376,-0.255,-0.469
'[08:34:10.008 16/05/1995]',-0.082,-0.009,67.557,31.376,-0.243,-0.469
'[08:34:10.010 16/05/1995]',-0.103,-0.020,67.557,31.376,-0.243,-0.469
'[08:34:10.012 16/05/1995]',-0.103,-0.020,67.557,31.376,-0.243,-0.469
'[08:34:10.014 16/05/1995]',-0.103,-0.030,67.557,31.376,-0.243,-0.469
'[08:34:10.016 16/05/1995]',-0.061,-0.041,67.330,31.376,-0.243,-0.468
'[08:34:10.018 16/05/1995]',0.002,-0.051,67.330,31.376,-0.243,-0.468
'[08:34:10.020 16/05/1995]',0.043,-0.062,67.330,31.376,-0.243,-0.468
'[08:34:10.022 16/05/1995]',0.106,-0.062,67.330,31.376,-0.243,-0.468
'[08:34:10.024 16/05/1995]',0.169,-0.051,67.255,31.376,-0.255,-0.466
'[08:34:10.026 16/05/1995]',0.253,-0.030,67.255,31.376,-0.255,-0.466
'[08:34:10.028 16/05/1995]',0.336,0.001,67.255,31.376,-0.255,-0.466
'[08:34:10.030 16/05/1995]',0.420,0.053,67.255,31.376,-0.255,-0.466
'[08:34:10.032 16/05/1995]',0.504,0.084,67.255,31.501,-0.255,-0.465
'[08:34:10.034 16/05/1995]',0.567,0.136,67.255,31.501,-0.255,-0.465
'[08:34:10.036 16/05/1995]',0.650,0.188,67.255,31.501,-0.255,-0.465
'[08:34:10.038 16/05/1995]',0.692,0.240,67.255,31.501,-0.255,-0.465
'[08:34:10.040 16/05/1995]',0.650,0.292,67.103,31.551,-0.255,-0.463
'[08:34:10.042 16/05/1995]',0.567,0.313,67.103,31.551,-0.255,-0.463
'[08:34:10.044 16/05/1995]',0.483,0.313,67.103,31.551,-0.255,-0.463
'[08:34:10.046 16/05/1995]',0.378,0.292,67.103,31.551,-0.255,-0.463
'[08:34:10.048 16/05/1995]',0.253,0.209,67.028,31.551,-0.255,-0.462
'[08:34:10.050 16/05/1995]',0.064,0.063,67.028,31.551,-0.255,-0.462
'[08:34:10.052 16/05/1995]',-0.082,-0.041,67.028,31.551,-0.255,-0.462
'[08:34:10.054 16/05/1995]',-0.208,-0.135,67.028,31.551,-0.255,-0.462
'[08:34:10.056 16/05/1995]',-0.271,-0.166,66.801,31.451,-0.255,-0.462
'[08:34:10.058 16/05/1995]',-0.375,-0.197,66.801,31.451,-0.255,-0.462
'[08:34:10.060 16/05/1995]',-0.438,-0.207,66.801,31.451,-0.255,-0.462
'[08:34:10.062 16/05/1995]',-0.459,-0.218,66.801,31.451,-0.255,-0.462
'[08:34:10.064 16/05/1995]',-0.459,-0.218,66.574,31.326,-0.266,-0.461
'[08:34:10.066 16/05/1995]',-0.480,-0.228,66.574,31.326,-0.266,-0.461
'[08:34:10.068 16/05/1995]',-0.480,-0.228,66.574,31.326,-0.266,-0.461
'[08:34:10.070 16/05/1995]',-0.501,-0.239,66.574,31.326,-0.266,-0.461
'[08:34:10.072 16/05/1995]',-0.501,-0.239,66.499,31.151,-0.266,-0.461
'[08:34:10.074 16/05/1995]',-0.543,-0.249,66.499,31.151,-0.266,-0.461
'[08:34:10.076 16/05/1995]',-0.564,-0.249,66.499,31.151,-0.266,-0.461
'[08:34:10.078 16/05/1995]',-0.606,-0.259,66.499,31.151,-0.266,-0.461
'[08:34:10.080 16/05/1995]',-0.648,-0.249,66.348,30.976,-0.255,-0.461
'[08:34:10.082 16/05/1995]',-0.669,-0.249,66.348,30.976,-0.255,-0.461
'[08:34:10.084 16/05/1995]',-0.669,-0.259,66.348,30.976,-0.255,-0.461
'[08:34:10.086 16/05/1995]',-0.690,-0.249,66.348,30.976,-0.255,-0.461
'[08:34:10.088 16/05/1995]',-0.711,-0.249,66.272,30.801,-0.266,-0.461
'[08:34:10.090 16/05/1995]',-0.732,-0.259,66.272,30.801,-0.266,-0.461
'[08:34:10.092 16/05/1995]',-0.774,-0.270,66.272,30.801,-0.266,-0.461
'[08:34:10.094 16/05/1995]',-0.795,-0.280,66.272,30.801,-0.266,-0.461
'[08:34:10.096 16/05/1995]',-0.795,-0.280,66.272,30.625,-0.266,-0.461
'[08:34:10.098 16/05/1995]',-0.795,-0.280,66.272,30.625,-0.266,-0.461
'[08:34:10.100 16/05/1995]',-0.774,-0.270,66.272,30.625,-0.266,-0.461
'[08:34:10.102 16/05/1995]',-0.774,-0.270,66.272,30.625,-0.266,-0.461
'[08:34:10.104 16/05/1995]',-0.774,-0.270,66.197,30.450,-0.266,-0.461
'[08:34:10.106 16/05/1995]',-0.774,-0.259,66.197,30.450,-0.266,-0.461
'[08:34:10.108 16/05/1995]',-0.711,-0.239,66.197,30.450,-0.266,-0.461
'[08:34:10.110 16/05/1995]',-0.648,-0.218,66.197,30.450,-0.266,-0.461
'[08:34:10.112 16/05/1995]',-0.564,-0.186,66.046,30.325,-0.243,-0.462
'[08:34:10.114 16/05/1995]',-0.501,-0.166,66.046,30.325,-0.243,-0.462
'[08:34:10.116 16/05/1995]',-0.417,-0.135,66.046,30.325,-0.243,-0.462
'[08:34:10.118 16/05/1995]',-0.354,-0.114,66.046,30.325,-0.243,-0.462
'[08:34:10.120 16/05/1995]',-0.271,-0.083,65.970,30.325,-0.243,-0.462
'[08:34:10.122 16/05/1995]',-0.208,-0.062,65.970,30.325,-0.243,-0.462
'[08:34:10.124 16/05/1995]',-0.166,-0.041,65.970,30.325,-0.243,-0.462
'[08:34:10.126 16/05/1995]',-0.103,-0.020,65.970,30.325,-0.243,-0.462
'[08:34:10.128 16/05/1995]',-0.040,0.001,65.970,30.400,-0.243,-0.463
'[08:34:10.130 16/05/1995]',-0.019,0.001,65.970,30.400,-0.243,-0.463
'[08:34:10.132 16/05/1995]',0.002,0.001,65.970,30.400,-0.243,-0.463
'[08:34:10.134 16/05/1995]',0.002,0.011,65.970,30.400,-0.243,-0.463
'[08:34:10.136 16/05/1995]',0.022,0.021,65.819,30.500,-0.243,-0.464
'[08:34:10.138 16/05/1995]',0.022,0.021,65.819,30.500,-0.243,-0.464
'[08:34:10.140 16/05/1995]',0.043,0.021,65.819,30.500,-0.243,-0.464
'[08:34:10.142 16/05/1995]',0.043,0.021,65.819,30.500,-0.243,-0.464
'[08:34:10.144 16/05/1995]',0.043,0.021,65.743,30.801,-0.232,-0.465
'[08:34:10.146 16/05/1995]',0.043,0.011,65.743,30.801,-0.232,-0.465
'[08:34:10.148 16/05/1995]',0.043,0.021,65.743,30.801,-0.232,-0.465
'[08:34:10.150 16/05/1995]',0.043,0.021,65.743,30.801,-0.232,-0.465
'[08:34:10.152 16/05/1995]',0.043,0.021,65.592,31.201,-0.232,-0.465
'[08:34:10.154 16/05/1995]',0.043,0.021,65.592,31.201,-0.232,-0.465
'[08:34:10.156 16/05/1995]',0.064,0.032,65.592,31.201,-0.232,-0.465
'[08:34:10.158 16/05/1995]',0.064,0.032,65.592,31.201,-0.232,-0.465
'[08:34:10.160 16/05/1995]',0.064,0.032,65.441,31.676,-0.232,-0.465
'[08:34:10.162 16/05/1995]',0.064,0.032,65.441,31.676,-0.232,-0.465
'[08:34:10.164 16/05/1995]',0.043,0.032,65.441,31.676,-0.232,-0.465
'[08:34:10.166 16/05/1995]',0.043,0.032,65.441,31.676,-0.232,-0.465
'[08:34:10.168 16/05/1995]',0.064,0.032,65.214,32.202,-0.232,-0.465
'[08:34:10.170 16/05/1995]',0.064,0.032,65.214,32.202,-0.232,-0.465
'[08:34:10.172 16/05/1995]',0.064,0.032,65.214,32.202,-0.232,-0.465
'[08:34:10.174 16/05/1995]',0.064,0.042,65.214,32.202,-0.232,-0.465
'[08:34:10.176 16/05/1995]',0.064,0.042,65.063,32.677,-0.220,-0.465
'[08:34:10.178 16/05/1995]',0.064,0.032,65.063,32.677,-0.220,-0.465
'[08:34:10.180 16/05/1995]',0.064,0.042,65.063,32.677,-0.220,-0.465
'[08:34:10.182 16/05/1995]',0.064,0.042,65.063,32.677,-0.220,-0.465
'[08:34:10.184 16/05/1995]',0.064,0.032,64.912,33.027,-0.220,-0.466
'[08:34:10.186 16/05/1995]',0.064,0.032,64.912,33.027,-0.220,-0.466
'[08:34:10.188 16/05/1995]',0.064,0.021,64.912,33.027,-0.220,-0.466
'[08:34:10.190 16/05/1995]',0.064,0.021,64.912,33.027,-0.220,-0.466
'[08:34:10.192 16/05/1995]',0.064,0.021,64.836,33.253,-0.220,-0.468
'[08:34:10.194 16/05/1995]',0.064,0.021,64.836,33.253,-0.220,-0.468
'[08:34:10.196 16/05/1995]',0.064,0.021,64.836,33.253,-0.220,-0.468
'[08:34:10.198 16/05/1995]',0.064,0.021,64.836,33.253,-0.220,-0.468
'[08:34:10.200 16/05/1995]',0.064,0.032,64.912,33.503,-0.208,-0.469
'[08:34:10.202 16/05/1995]',0.064,0.032,64.912,33.503,-0.208,-0.469
'[08:34:10.204 16/05/1995]',0.085,0.032,64.912,33.503,-0.208,-0.469
'[08:34:10.206 16/05/1995]',0.085,0.032,64.912,33.503,-0.208,-0.469
'[08:34:10.208 16/05/1995]',0.085,0.032,65.365,33.853,-0.197,-0.470
'[08:34:10.210 16/05/1995]',0.085,0.021,65.365,33.853,-0.197,-0.470
'[08:34:10.212 16/05/1995]',0.064,0.021,65.365,33.853,-0.197,-0.470
'[08:34:10.214 16/05/1995]',0.085,0.032,65.365,33.853,-0.197,-0.470
'[08:34:10.216 16/05/1995]',0.085,0.021,66.574,34.329,-0.185,-0.472
'[08:34:10.218 16/05/1995]',0.085,0.032,66.574,34.329,-0.185,-0.472
'[08:34:10.220 16/05/1995]',0.085,0.032,66.574,34.329,-0.185,-0.472
'[08:34:10.222 16/05/1995]',0.085,0.032,66.574,34.329,-0.185,-0.472
'[08:34:10.224 16/05/1995]',0.085,0.042,68.993,34.904,-0.185,-0.473
'[08:34:10.226 16/05/1995]',0.085,0.032,68.993,34.904,-0.185,-0.473
'[08:34:10.228 16/05/1995]',0.085,0.032,68.993,34.904,-0.185,-0.473
'[08:34:10.230 16/05/1995]',0.085,0.032,68.993,34.904,-0.185,-0.473
'[08:34:10.232 16/05/1995]',0.085,0.032,72.695,35.555,-0.185,-0.474
'[08:34:10.234 16/05/1995]',0.085,0.042,72.695,35.555,-0.185,-0.474
'[08:34:10.236 16/05/1995]',0.085,0.032,72.695,35.555,-0.185,-0.474
'[08:34:10.238 16/05/1995]',0.085,0.032,72.695,35.555,-0.185,-0.474
'[08:34:10.240 16/05/1995]',0.085,0.032,77.910,36.255,-0.185,-0.474
'[08:34:10.242 16/05/1995]',0.085,0.032,77.910,36.255,-0.185,-0.474
'[08:34:10.244 16/05/1995]',0.085,0.032,77.910,36.255,-0.185,-0.474
'[08:34:10.246 16/05/1995]',0.085,0.042,77.910,36.255,-0.185,-0.474
'[08:34:10.248 16/05/1995]',0.085,0.032,84.635,37.006,-0.173,-0.474
'[08:34:10.250 16/05/1995]',0.085,0.032,84.635,37.006,-0.173,-0.474
'[08:34:10.252 16/05/1995]',0.085,0.042,84.635,37.006,-0.173,-0.474
'[08:34:10.254 16/05/1995]',0.085,0.042,84.635,37.006,-0.173,-0.474
'[08:34:10.256 16/05/1995]',0.106,0.042,92.721,37.831,-0.173,-0.473
'[08:34:10.258 16/05/1995]',0.085,0.021,92.721,37.831,-0.173,-0.473
'[08:34:10.260 16/05/1995]',0.085,0.021,92.721,37.831,-0.173,-0.473
'[08:34:10.262 16/05/1995]',0.085,0.021,92.721,37.831,-0.173,-0.473
'[08:34:10.264 16/05/1995]',0.085,0.011,101.638,38.607,-0.173,-0.472
'[08:34:10.266 16/05/1995]',0.085,0.021,101.638,38.607,-0.173,-0.472
'[08:34:10.268 16/05/1995]',0.085,0.021,101.638,38.607,-0.173,-0.472
'[08:34:10.270 16/05/1995]',0.106,0.021,101.638,38.607,-0.173,-0.472
'[08:34:10.272 16/05/1995]',0.106,0.021,110.781,39.483,-0.162,-0.471
'[08:34:10.274 16/05/1995]',0.106,0.021,110.781,39.483,-0.162,-0.471
'[08:34:10.276 16/05/1995]',0.106,0.021,110.781,39.483,-0.162,-0.471
'[08:34:10.278 16/05/1995]',0.106,0.021,110.781,39.483,-0.162,-0.471
'[08:34:10.280 16/05/1995]',0.106,0.021,119.547,40.309,-0.162,-0.471
'[08:34:10.282 16/05/1995]',0.085,0.021,119.547,40.309,-0.162,-0.471
'[08:34:10.284 16/05/1995]',0.106,0.021,119.547,40.309,-0.162,-0.471
'[08:34:10.286 16/05/1995]',0.106,0.032,119.547,40.309,-0.162,-0.471
'[08:34:10.288 16/05/1995]',0.106,0.032,127.557,41.284,-0.150,-0.470
'[08:34:10.290 16/05/1995]',0.106,0.021,127.557,41.284,-0.150,-0.470
'[08:34:10.292 16/05/1995]',0.106,0.032,127.557,41.284,-0.150,-0.470
'[08:34:10.294 16/05/1995]',0.106,0.021,127.557,41.284,-0.150,-0.470
'[08:34:10.296 16/05/1995]',0.106,0.011,134.585,42.410,-0.127,-0.470
'[08:34:10.298 16/05/1995]',0.106,0.001,134.585,42.410,-0.127,-0.470
'[08:34:10.300 16/05/1995]',0.106,0.001,134.585,42.410,-0.127,-0.470
'[08:34:10.302 16/05/1995]',0.106,0.001,134.585,42.410,-0.127,-0.470
'[08:34:10.304 16/05/1995]',0.106,0.001,140.479,43.636,-0.127,-0.469
'[08:34:10.306 16/05/1995]',0.106,0.011,140.479,43.636,-0.127,-0.469
'[08:34:10.308 16/05/1995]',0.106,0.021,140.479,43.636,-0.127,-0.469
'[08:34:10.310 16/05/1995]',0.106,0.032,140.479,43.636,-0.127,-0.469
'[08:34:10.312 16/05/1995]',0.106,0.021,145.164,45.037,-0.092,-0.469
'[08:34:10.314 16/05/1995]',0.106,0.021,145.164,45.037,-0.092,-0.469
'[08:34:10.316 16/05/1995]',0.106,0.011,145.164,45.037,-0.092,-0.469
'[08:34:10.318 16/05/1995]',0.106,0.011,145.164,45.037,-0.092,-0.469
'[08:34:10.320 16/05/1995]',0.106,0.011,148.867,46.564,-0.081,-0.468
'[08:34:10.322 16/05/1995]',0.127,0.011,148.867,46.564,-0.081,-0.468
'[08:34:10.324 16/05/1995]',0.127,0.011,148.867,46.564,-0.081,-0.468
'[08:34:10.326 16/05/1995]',0.127,0.011,148.867,46.564,-0.081,-0.468
'[08:34:10.328 16/05/1995]',0.127,0.011,151.587,48.215,-0.058,-0.467
'[08:34:10.330 16/05/1995]',0.127,0.021,151.587,48.215,-0.058,-0.467
'[08:34:10.332 16/05/1995]',0.148,0.021,151.587,48.215,-0.058,-0.467
'[08:34:10.334 16/05/1995]',0.148,0.021,151.587,48.215,-0.058,-0.467
'[08:34:10.336 16/05/1995]',0.148,0.021,153.703,49.917,-0.023,-0.466
'[08:34:10.338 16/05/1995]',0.148,0.021,153.703,49.917,-0.023,-0.466
'[08:34:10.340 16/05/1995]',0.169,0.021,153.703,49.917,-0.023,-0.466
'[08:34:10.342 16/05/1995]',0.169,0.011,153.703,49.917,-0.023,-0.466
'[08:34:10.344 16/05/1995]',0.169,0.001,155.366,51.618,0.023,-0.465
'[08:34:10.346 16/05/1995]',0.169,0.001,155.366,51.618,0.023,-0.465
'[08:34:10.348 16/05/1995]',0.169,0.001,155.366,51.618,0.023,-0.465
'[08:34:10.350 16/05/1995]',0.169,0.001,155.366,51.618,0.023,-0.465
'[08:34:10.352 16/05/1995]',0.169,0.001,156.650,53.194,0.046,-0.463
'[08:34:10.354 16/05/1995]',0.169,0.001,156.650,53.194,0.046,-0.463
'[08:34:10.356 16/05/1995]',0.190,0.001,156.650,53.194,0.046,-0.463
'[08:34:10.358 16/05/1995]',0.190,0.001,156.650,53.194,0.046,-0.463
'[08:34:10.360 16/05/1995]',0.190,0.001,157.784,54.545,0.081,-0.462
'[08:34:10.362 16/05/1995]',0.211,0.001,157.784,54.545,0.081,-0.462
'[08:34:10.364 16/05/1995]',0.211,0.001,157.784,54.545,0.081,-0.462
'[08:34:10.366 16/05/1995]',0.211,0.001,157.784,54.545,0.081,-0.462
'[08:34:10.368 16/05/1995]',0.211,0.001,158.691,55.721,0.104,-0.460
'[08:34:10.370 16/05/1995]',0.211,0.001,158.691,55.721,0.104,-0.460
'[08:34:10.372 16/05/1995]',0.232,-0.009,158.691,55.721,0.104,-0.460
'[08:34:10.374 16/05/1995]',0.211,-0.009,158.691,55.721,0.104,-0.460
'[08:34:10.376 16/05/1995]',0.232,-0.020,159.597,56.597,0.139,-0.459
'[08:34:10.378 16/05/1995]',0.232,-0.020,159.597,56.597,0.139,-0.459
'[08:34:10.380 16/05/1995]',0.232,-0.030,159.597,56.597,0.139,-0.459
'[08:34:10.382 16/05/1995]',0.232,-0.030,159.597,56.597,0.139,-0.459
'[08:34:10.384 16/05/1995]',0.253,-0.020,160.277,57.198,0.162,-0.457
'[08:34:10.386 16/05/1995]',0.253,-0.020,160.277,57.198,0.162,-0.457
'[08:34:10.388 16/05/1995]',0.253,-0.020,160.277,57.198,0.162,-0.457
'[08:34:10.390 16/05/1995]',0.274,-0.009,160.277,57.198,0.162,-0.457
'[08:34:10.392 16/05/1995]',0.274,-0.009,160.958,57.473,0.185,-0.456
'[08:34:10.394 16/05/1995]',0.274,0.001,160.958,57.473,0.185,-0.456
'[08:34:10.396 16/05/1995]',0.274,-0.009,160.958,57.473,0.185,-0.456
'[08:34:10.398 16/05/1995]',0.274,-0.009,160.958,57.473,0.185,-0.456
'[08:34:10.400 16/05/1995]',0.274,-0.020,161.411,57.548,0.208,-0.454
'[08:34:10.402 16/05/1995]',0.274,-0.020,161.411,57.548,0.208,-0.454
'[08:34:10.404 16/05/1995]',0.274,-0.020,161.411,57.548,0.208,-0.454
'[08:34:10.406 16/05/1995]',0.295,-0.030,161.411,57.548,0.208,-0.454
'[08:34:10.408 16/05/1995]',0.295,-0.030,161.789,57.423,0.231,-0.452
'[08:34:10.410 16/05/1995]',0.295,-0.030,161.789,57.423,0.231,-0.452
'[08:34:10.412 16/05/1995]',0.295,-0.030,161.789,57.423,0.231,-0.452
'[08:34:10.414 16/05/1995]',0.295,-0.030,161.789,57.423,0.231,-0.452
'[08:34:10.416 16/05/1995]',0.295,-0.030,161.940,57.198,0.243,-0.450
'[08:34:10.418 16/05/1995]',0.295,-0.030,161.940,57.198,0.243,-0.450
'[08:34:10.420 16/05/1995]',0.315,-0.020,161.940,57.198,0.243,-0.450
'[08:34:10.422 16/05/1995]',0.295,-0.030,161.940,57.198,0.243,-0.450
'[08:34:10.424 16/05/1995]',0.295,-0.030,161.940,56.897,0.255,-0.448
'[08:34:10.426 16/05/1995]',0.295,-0.030,161.940,56.897,0.255,-0.448
'[08:34:10.428 16/05/1995]',0.295,-0.041,161.940,56.897,0.255,-0.448
'[08:34:10.430 16/05/1995]',0.295,-0.041,161.940,56.897,0.255,-0.448
'[08:34:10.432 16/05/1995]',0.295,-0.041,161.789,56.422,0.266,-0.446
'[08:34:10.434 16/05/1995]',0.295,-0.041,161.789,56.422,0.266,-0.446
'[08:34:10.436 16/05/1995]',0.295,-0.041,161.789,56.422,0.266,-0.446
'[08:34:10.438 16/05/1995]',0.295,-0.030,161.789,56.422,0.266,-0.446
'[08:34:10.440 16/05/1995]',0.274,-0.030,161.638,55.846,0.266,-0.445
'[08:34:10.442 16/05/1995]',0.274,-0.020,161.638,55.846,0.266,-0.445
'[08:34:10.444 16/05/1995]',0.274,-0.020,161.638,55.846,0.266,-0.445
'[08:34:10.446 16/05/1995]',0.274,-0.030,161.638,55.846,0.266,-0.445
'[08:34:10.448 16/05/1995]',0.253,-0.030,161.260,55.246,0.278,-0.443
'[08:34:10.450 16/05/1995]',0.232,-0.030,161.260,55.246,0.278,-0.443
'[08:34:10.452 16/05/1995]',0.232,-0.030,161.260,55.246,0.278,-0.443
'[08:34:10.454 16/05/1995]',0.232,-0.030,161.260,55.246,0.278,-0.443
'[08:34:10.456 16/05/1995]',0.232,-0.020,160.504,54.721,0.300,-0.442
'[08:34:10.458 16/05/1995]',0.211,-0.020,160.504,54.721,0.300,-0.442
'[08:34:10.460 16/05/1995]',0.211,-0.020,160.504,54.721,0.300,-0.442
'[08:34:10.462 16/05/1995]',0.211,-0.030,160.504,54.721,0.300,-0.442
'[08:34:10.464 16/05/1995]',0.190,-0.030,159.371,54.370,0.300,-0.441
'[08:34:10.466 16/05/1995]',0.169,-0.030,159.371,54.370,0.300,-0.441
'[08:34:10.468 16/05/1995]',0.169,-0.030,159.371,54.370,0.300,-0.441
'[08:34:10.470 16/05/1995]',0.169,-0.030,159.371,54.370,0.300,-0.441
'[08:34:10.472 16/05/1995]',0.169,-0.020,157.557,54.070,0.289,-0.440
'[08:34:10.474 16/05/1995]',0.148,-0.009,157.557,54.070,0.289,-0.440
'[08:34:10.476 16/05/1995]',0.127,-0.009,157.557,54.070,0.289,-0.440
'[08:34:10.478 16/05/1995]',0.127,-0.009,157.557,54.070,0.289,-0.440
'[08:34:10.480 16/05/1995]',0.106,-0.009,155.366,53.670,0.289,-0.440
'[08:34:10.482 16/05/1995]',0.106,-0.020,155.366,53.670,0.289,-0.440
'[08:34:10.484 16/05/1995]',0.085,-0.020,155.366,53.670,0.289,-0.440
