'Time and date','II ','MCL1 ','V ','ABP ','RESP '
'hh:mm:ss.mmm dd/mm/yyyy','mV','mV','mV','mmHg','mV'
'[14:17:55.000 18/05/1995]',0.307,0.157,0.040,55.643,0.356
'[14:17:55.002 18/05/1995]',0.287,0.157,0.030,55.643,0.356
'[14:17:55.004 18/05/1995]',0.307,0.175,0.030,55.643,0.356
'[14:17:55.006 18/05/1995]',0.307,0.175,0.020,55.643,0.356
'[14:17:55.008 18/05/1995]',0.307,0.166,0.020,56.795,0.349
'[14:17:55.010 18/05/1995]',0.307,0.166,0.020,56.795,0.349
'[14:17:55.012 18/05/1995]',0.307,0.166,0.030,56.795,0.349
'[14:17:55.014 18/05/1995]',0.307,0.166,0.040,56.795,0.349
'[14:17:55.016 18/05/1995]',0.287,0.166,0.040,58.598,0.341
'[14:17:55.018 18/05/1995]',0.287,0.166,0.040,58.598,0.341
'[14:17:55.020 18/05/1995]',0.287,0.166,0.030,58.598,0.341
'[14:17:55.022 18/05/1995]',0.287,0.175,0.030,58.598,0.341
'[14:17:55.024 18/05/1995]',0.287,0.166,0.020,61.152,0.332
'[14:17:55.026 18/05/1995]',0.307,0.166,0.020,61.152,0.332
'[14:17:55.028 18/05/1995]',0.287,0.166,0.030,61.152,0.332
'[14:17:55.030 18/05/1995]',0.287,0.166,0.040,61.152,0.332
'[14:17:55.032 18/05/1995]',0.267,0.157,0.040,64.407,0.323
'[14:17:55.034 18/05/1995]',0.267,0.149,0.040,64.407,0.323
'[14:17:55.036 18/05/1995]',0.247,0.149,0.040,64.407,0.323
'[14:17:55.038 18/05/1995]',0.247,0.140,0.030,64.407,0.323
'[14:17:55.040 18/05/1995]',0.267,0.140,0.030,68.214,0.313
'[14:17:55.042 18/05/1995]',0.267,0.149,0.020,68.214,0.313
'[14:17:55.044 18/05/1995]',0.247,0.140,0.030,68.214,0.313
'[14:17:55.046 18/05/1995]',0.247,0.140,0.030,68.214,0.313
'[14:17:55.048 18/05/1995]',0.226,0.131,0.030,72.421,0.303
'[14:17:55.050 18/05/1995]',0.226,0.131,0.040,72.421,0.303
'[14:17:55.052 18/05/1995]',0.206,0.123,0.030,72.421,0.303
'[14:17:55.054 18/05/1995]',0.206,0.123,0.030,72.421,0.303
'[14:17:55.056 18/05/1995]',0.206,0.131,0.020,76.778,0.294
'[14:17:55.058 18/05/1995]',0.206,0.123,0.020,76.778,0.294
'[14:17:55.060 18/05/1995]',0.206,0.123,0.020,76.778,0.294
'[14:17:55.062 18/05/1995]',0.206,0.114,0.020,76.778,0.294
'[14:17:55.064 18/05/1995]',0.185,0.114,0.030,81.135,0.284
'[14:17:55.066 18/05/1995]',0.185,0.105,0.030,81.135,0.284
'[14:17:55.068 18/05/1995]',0.165,0.097,0.030,81.135,0.284
'[14:17:55.070 18/05/1995]',0.165,0.097,0.020,81.135,0.284
'[14:17:55.072 18/05/1995]',0.165,0.097,0.010,85.242,0.273
'[14:17:55.074 18/05/1995]',0.165,0.088,0.010,85.242,0.273
'[14:17:55.076 18/05/1995]',0.165,0.079,0.010,85.242,0.273
'[14:17:55.078 18/05/1995]',0.144,0.070,0.001,85.242,0.273
'[14:17:55.080 18/05/1995]',0.144,0.070,0.010,88.748,0.260
'[14:17:55.082 18/05/1995]',0.124,0.062,0.010,88.748,0.260
'[14:17:55.084 18/05/1995]',0.103,0.062,0.020,88.748,0.260
'[14:17:55.086 18/05/1995]',0.103,0.062,0.020,88.748,0.260
'[14:17:55.088 18/05/1995]',0.103,0.062,0.010,91.653,0.246
'[14:17:55.090 18/05/1995]',0.103,0.053,0.001,91.653,0.246
'[14:17:55.092 18/05/1995]',0.103,0.053,0.001,91.653,0.246
'[14:17:55.094 18/05/1995]',0.103,0.044,0.001,91.653,0.246
'[14:17:55.096 18/05/1995]',0.103,0.035,0.001,93.556,0.233
'[14:17:55.098 18/05/1995]',0.083,0.035,0.001,93.556,0.233
'[14:17:55.100 18/05/1995]',0.062,0.027,0.001,93.556,0.233
'[14:17:55.102 18/05/1995]',0.062,0.018,0.001,93.556,0.233
'[14:17:55.104 18/05/1995]',0.062,0.018,0.001,94.708,0.218
'[14:17:55.106 18/05/1995]',0.083,0.027,0.001,94.708,0.218
'[14:17:55.108 18/05/1995]',0.083,0.027,0.001,94.708,0.218
'[14:17:55.110 18/05/1995]',0.062,0.018,0.001,94.708,0.218
'[14:17:55.112 18/05/1995]',0.062,0.018,0.001,94.808,0.204
'[14:17:55.114 18/05/1995]',0.042,0.009,0.001,94.808,0.204
'[14:17:55.116 18/05/1995]',0.042,0.009,0.001,94.808,0.204
'[14:17:55.118 18/05/1995]',0.021,0.001,0.001,94.808,0.204
'[14:17:55.120 18/05/1995]',0.021,0.009,0.001,94.107,0.190
'[14:17:55.122 18/05/1995]',0.021,0.001,0.001,94.107,0.190
'[14:17:55.124 18/05/1995]',0.021,0.001,0.001,94.107,0.190
'[14:17:55.126 18/05/1995]',0.021,0.009,0.001,94.107,0.190
'[14:17:55.128 18/05/1995]',0.021,0.001,0.001,92.654,0.176
'[14:17:55.130 18/05/1995]',0.021,0.001,0.001,92.654,0.176
'[14:17:55.132 18/05/1995]',0.002,0.001,0.001,92.654,0.176
'[14:17:55.134 18/05/1995]',0.002,0.001,0.010,92.654,0.176
'[14:17:55.136 18/05/1995]',0.002,0.001,0.001,90.451,0.162
'[14:17:55.138 18/05/1995]',0.002,0.001,0.001,90.451,0.162
'[14:17:55.140 18/05/1995]',0.002,0.001,0.001,90.451,0.162
'[14:17:55.142 18/05/1995]',0.021,0.001,0.001,90.451,0.162
'[14:17:55.144 18/05/1995]',0.002,0.001,0.001,87.746,0.148
'[14:17:55.146 18/05/1995]',0.002,0.001,0.001,87.746,0.148
'[14:17:55.148 18/05/1995]',0.002,0.001,0.001,87.746,0.148
'[14:17:55.150 18/05/1995]',0.002,-0.008,0.001,87.746,0.148
'[14:17:55.152 18/05/1995]',0.002,-0.008,0.001,84.641,0.135
'[14:17:55.154 18/05/1995]',0.002,0.001,0.001,84.641,0.135
'[14:17:55.156 18/05/1995]',0.002,0.001,0.001,84.641,0.135
'[14:17:55.158 18/05/1995]',0.002,0.001,0.001,84.641,0.135
'[14:17:55.160 18/05/1995]',0.002,0.001,0.001,81.436,0.121
'[14:17:55.162 18/05/1995]',0.002,0.001,0.001,81.436,0.121
'[14:17:55.164 18/05/1995]',0.002,0.001,0.010,81.436,0.121
'[14:17:55.166 18/05/1995]',0.002,0.001,0.010,81.436,0.121
'[14:17:55.168 18/05/1995]',0.002,0.001,0.010,78.230,0.107
'[14:17:55.170 18/05/1995]',-0.019,0.001,0.010,78.230,0.107
'[14:17:55.172 18/05/1995]',0.002,0.001,0.001,78.230,0.107
'[14:17:55.174 18/05/1995]',0.002,0.001,0.001,78.230,0.107
'[14:17:55.176 18/05/1995]',0.002,0.001,0.001,75.175,0.091
'[14:17:55.178 18/05/1995]',0.002,0.001,0.001,75.175,0.091
'[14:17:55.180 18/05/1995]',0.002,0.001,0.010,75.175,0.091
'[14:17:55.182 18/05/1995]',0.002,0.001,0.001,75.175,0.091
'[14:17:55.184 18/05/1995]',-0.019,0.001,0.001,72.521,0.075
'[14:17:55.186 18/05/1995]',-0.019,0.001,0.001,72.521,0.075
'[14:17:55.188 18/05/1995]',0.002,0.001,0.001,72.521,0.075
'[14:17:55.190 18/05/1995]',0.002,0.001,0.001,72.521,0.075
'[14:17:55.192 18/05/1995]',0.002,0.001,0.001,70.167,0.059
'[14:17:55.194 18/05/1995]',0.002,0.001,0.001,70.167,0.059
'[14:17:55.196 18/05/1995]',0.002,0.001,0.001,70.167,0.059
'[14:17:55.198 18/05/1995]',0.002,0.001,0.010,70.167,0.059
'[14:17:55.200 18/05/1995]',0.002,0.001,0.020,68.113,0.043
'[14:17:55.202 18/05/1995]',-0.019,0.001,0.020,68.113,0.043
'[14:17:55.204 18/05/1995]',-0.019,0.001,0.010,68.113,0.043
'[14:17:55.206 18/05/1995]',-0.019,0.001,0.001,68.113,0.043
'[14:17:55.208 18/05/1995]',-0.019,0.001,0.001,66.461,0.026
'[14:17:55.210 18/05/1995]',-0.019,-0.008,0.001,66.461,0.026
'[14:17:55.212 18/05/1995]',-0.039,-0.008,0.001,66.461,0.026
'[14:17:55.214 18/05/1995]',-0.039,-0.017,0.020,66.461,0.026
'[14:17:55.216 18/05/1995]',-0.039,-0.008,0.020,65.108,0.011
'[14:17:55.218 18/05/1995]',-0.039,-0.017,0.030,65.108,0.011
'[14:17:55.220 18/05/1995]',-0.039,-0.017,0.010,65.108,0.011
'[14:17:55.222 18/05/1995]',-0.060,-0.017,0.010,65.108,0.011
'[14:17:55.224 18/05/1995]',-0.060,-0.025,0.001,64.057,-0.005
'[14:17:55.226 18/05/1995]',-0.080,-0.034,0.001,64.057,-0.005
'[14:17:55.228 18/05/1995]',-0.100,-0.060,0.001,64.057,-0.005
'[14:17:55.230 18/05/1995]',-0.121,-0.078,0.001,64.057,-0.005
'[14:17:55.232 18/05/1995]',-0.162,-0.104,0.001,63.305,-0.020
'[14:17:55.234 18/05/1995]',-0.182,-0.113,-0.009,63.305,-0.020
'[14:17:55.236 18/05/1995]',-0.203,-0.130,-0.019,63.305,-0.020
'[14:17:55.238 18/05/1995]',-0.223,-0.130,-0.028,63.305,-0.020
'[14:17:55.240 18/05/1995]',-0.264,-0.148,-0.028,62.654,-0.035
'[14:17:55.242 18/05/1995]',-0.285,-0.148,-0.019,62.654,-0.035
'[14:17:55.244 18/05/1995]',-0.304,-0.156,-0.019,62.654,-0.035
'[14:17:55.246 18/05/1995]',-0.345,-0.165,-0.009,62.654,-0.035
'[14:17:55.248 18/05/1995]',-0.386,-0.165,0.001,62.204,-0.049
'[14:17:55.250 18/05/1995]',-0.427,-0.191,0.001,62.204,-0.049
'[14:17:55.252 18/05/1995]',-0.468,-0.217,-0.009,62.204,-0.049
'[14:17:55.254 18/05/1995]',-0.488,-0.244,-0.028,62.204,-0.049
'[14:17:55.256 18/05/1995]',-0.509,-0.261,-0.038,61.953,-0.062
'[14:17:55.258 18/05/1995]',-0.529,-0.278,-0.058,61.953,-0.062
'[14:17:55.260 18/05/1995]',-0.550,-0.305,-0.058,61.953,-0.062
'[14:17:55.262 18/05/1995]',-0.550,-0.331,-0.067,61.953,-0.062
'[14:17:55.264 18/05/1995]',-0.550,-0.340,-0.067,61.803,-0.075
'[14:17:55.266 18/05/1995]',-0.570,-0.357,-0.067,61.803,-0.075
'[14:17:55.268 18/05/1995]',-0.570,-0.357,-0.067,61.803,-0.075
'[14:17:55.270 18/05/1995]',-0.590,-0.366,-0.067,61.803,-0.075
'[14:17:55.272 18/05/1995]',-0.610,-0.374,-0.058,61.803,-0.087
'[14:17:55.274 18/05/1995]',-0.610,-0.357,-0.048,61.803,-0.087
'[14:17:55.276 18/05/1995]',-0.610,-0.357,-0.038,61.803,-0.087
'[14:17:55.278 18/05/1995]',-0.651,-0.357,-0.028,61.803,-0.087
'[14:17:55.280 18/05/1995]',-0.651,-0.348,-0.009,61.853,-0.100
'[14:17:55.282 18/05/1995]',-0.672,-0.357,0.001,61.853,-0.100
'[14:17:55.284 18/05/1995]',-0.713,-0.357,0.001,61.853,-0.100
'[14:17:55.286 18/05/1995]',-0.733,-0.340,0.001,61.853,-0.100
'[14:17:55.288 18/05/1995]',-0.733,-0.331,0.001,62.053,-0.112
'[14:17:55.290 18/05/1995]',-0.733,-0.322,0.010,62.053,-0.112
'[14:17:55.292 18/05/1995]',-0.733,-0.322,0.020,62.053,-0.112
'[14:17:55.294 18/05/1995]',-0.733,-0.305,0.040,62.053,-0.112
'[14:17:55.296 18/05/1995]',-0.753,-0.296,0.040,62.204,-0.124
'[14:17:55.298 18/05/1995]',-0.753,-0.287,0.059,62.204,-0.124
'[14:17:55.300 18/05/1995]',-0.753,-0.270,0.069,62.204,-0.124
'[14:17:55.302 18/05/1995]',-0.733,-0.261,0.069,62.204,-0.124
'[14:17:55.304 18/05/1995]',-0.713,-0.261,0.059,62.404,-0.138
'[14:17:55.306 18/05/1995]',-0.672,-0.252,0.049,62.404,-0.138
'[14:17:55.308 18/05/1995]',-0.651,-0.244,0.040,62.404,-0.138
'[14:17:55.310 18/05/1995]',-0.590,-0.226,0.040,62.404,-0.138
'[14:17:55.312 18/05/1995]',-0.550,-0.209,0.040,62.604,-0.151
'[14:17:55.314 18/05/1995]',-0.509,-0.200,0.040,62.604,-0.151
'[14:17:55.316 18/05/1995]',-0.468,-0.183,0.040,62.604,-0.151
'[14:17:55.318 18/05/1995]',-0.427,-0.156,0.040,62.604,-0.151
'[14:17:55.320 18/05/1995]',-0.386,-0.139,0.040,62.805,-0.166
'[14:17:55.322 18/05/1995]',-0.325,-0.113,0.040,62.805,-0.166
'[14:17:55.324 18/05/1995]',-0.285,-0.095,0.030,62.805,-0.166
'[14:17:55.326 18/05/1995]',-0.264,-0.078,0.030,62.805,-0.166
'[14:17:55.328 18/05/1995]',-0.223,-0.060,0.040,63.055,-0.179
'[14:17:55.330 18/05/1995]',-0.203,-0.052,0.040,63.055,-0.179
'[14:17:55.332 18/05/1995]',-0.162,-0.034,0.040,63.055,-0.179
'[14:17:55.334 18/05/1995]',-0.162,-0.034,0.040,63.055,-0.179
'[14:17:55.336 18/05/1995]',-0.141,-0.025,0.030,63.305,-0.194
'[14:17:55.338 18/05/1995]',-0.141,-0.008,0.030,63.305,-0.194
'[14:17:55.340 18/05/1995]',-0.121,0.001,0.030,63.305,-0.194
'[14:17:55.342 18/05/1995]',-0.100,0.001,0.030,63.305,-0.194
'[14:17:55.344 18/05/1995]',-0.060,0.009,0.030,63.456,-0.208
'[14:17:55.346 18/05/1995]',-0.039,0.027,0.040,63.456,-0.208
'[14:17:55.348 18/05/1995]',-0.019,0.035,0.040,63.456,-0.208
'[14:17:55.350 18/05/1995]',0.002,0.044,0.040,63.456,-0.208
'[14:17:55.352 18/05/1995]',0.021,0.062,0.040,63.656,-0.222
'[14:17:55.354 18/05/1995]',0.042,0.070,0.030,63.656,-0.222
'[14:17:55.356 18/05/1995]',0.062,0.079,0.030,63.656,-0.222
'[14:17:55.358 18/05/1995]',0.083,0.097,0.030,63.656,-0.222
'[14:17:55.360 18/05/1995]',0.103,0.105,0.020,63.806,-0.236
'[14:17:55.362 18/05/1995]',0.124,0.114,0.030,63.806,-0.236
'[14:17:55.364 18/05/1995]',0.124,0.123,0.040,63.806,-0.236
'[14:17:55.366 18/05/1995]',0.124,0.123,0.040,63.806,-0.236
'[14:17:55.368 18/05/1995]',0.124,0.123,0.040,63.856,-0.250
'[14:17:55.370 18/05/1995]',0.144,0.131,0.030,63.856,-0.250
'[14:17:55.372 18/05/1995]',0.165,0.131,0.020,63.856,-0.250
'[14:17:55.374 18/05/1995]',0.165,0.131,0.030,63.856,-0.250
'[14:17:55.376 18/05/1995]',0.165,0.131,0.030,63.906,-0.264
'[14:17:55.378 18/05/1995]',0.165,0.140,0.040,63.906,-0.264
'[14:17:55.380 18/05/1995]',0.185,0.140,0.040,63.906,-0.264
'[14:17:55.382 18/05/1995]',0.185,0.131,0.040,63.906,-0.264
'[14:17:55.384 18/05/1995]',0.185,0.131,0.040,64.007,-0.277
'[14:17:55.386 18/05/1995]',0.185,0.131,0.020,64.007,-0.277
'[14:17:55.388 18/05/1995]',0.206,0.131,0.020,64.007,-0.277
'[14:17:55.390 18/05/1995]',0.206,0.131,0.010,64.007,-0.277
'[14:17:55.392 18/05/1995]',0.206,0.131,0.010,64.007,-0.290
'[14:17:55.394 18/05/1995]',0.226,0.131,0.020,64.007,-0.290
'[14:17:55.396 18/05/1995]',0.226,0.131,0.020,64.007,-0.290
'[14:17:55.398 18/05/1995]',0.226,0.131,0.030,64.007,-0.290
'[14:17:55.400 18/05/1995]',0.206,0.131,0.030,64.007,-0.302
'[14:17:55.402 18/05/1995]',0.206,0.140,0.030,64.007,-0.302
'[14:17:55.404 18/05/1995]',0.206,0.140,0.020,64.007,-0.302
'[14:17:55.406 18/05/1995]',0.226,0.149,0.020,64.007,-0.302
'[14:17:55.408 18/05/1995]',0.247,0.157,0.010,63.906,-0.315
'[14:17:55.410 18/05/1995]',0.267,0.149,0.010,63.906,-0.315
'[14:17:55.412 18/05/1995]',0.267,0.157,0.020,63.906,-0.315
'[14:17:55.414 18/05/1995]',0.247,0.149,0.020,63.906,-0.315
'[14:17:55.416 18/05/1995]',0.247,0.149,0.030,63.806,-0.327
'[14:17:55.418 18/05/1995]',0.247,0.149,0.010,63.806,-0.327
'[14:17:55.420 18/05/1995]',0.247,0.157,0.010,63.806,-0.327
'[14:17:55.422 18/05/1995]',0.267,0.149,0.001,63.806,-0.327
'[14:17:55.424 18/05/1995]',0.287,0.157,0.001,63.756,-0.338
'[14:17:55.426 18/05/1995]',0.287,0.149,0.001,63.756,-0.338
'[14:17:55.428 18/05/1995]',0.287,0.140,0.001,63.756,-0.338
'[14:17:55.430 18/05/1995]',0.287,0.140,0.001,63.756,-0.338
'[14:17:55.432 18/05/1995]',0.267,0.131,0.001,63.656,-0.348
'[14:17:55.434 18/05/1995]',0.267,0.140,0.010,63.656,-0.348
'[14:17:55.436 18/05/1995]',0.267,0.140,0.001,63.656,-0.348
'[14:17:55.438 18/05/1995]',0.267,0.149,0.001,63.656,-0.348
'[14:17:55.440 18/05/1995]',0.287,0.149,0.001,63.556,-0.357
'[14:17:55.442 18/05/1995]',0.287,0.149,0.001,63.556,-0.357
'[14:17:55.444 18/05/1995]',0.267,0.149,0.001,63.556,-0.357
'[14:17:55.446 18/05/1995]',0.267,0.149,0.010,63.556,-0.357
'[14:17:55.448 18/05/1995]',0.267,0.140,0.010,63.556,-0.366
'[14:17:55.450 18/05/1995]',0.267,0.131,0.001,63.556,-0.366
'[14:17:55.452 18/05/1995]',0.267,0.131,0.001,63.556,-0.366
'[14:17:55.454 18/05/1995]',0.267,0.140,0.001,63.556,-0.366
'[14:17:55.456 18/05/1995]',0.287,0.149,0.001,63.656,-0.376
'[14:17:55.458 18/05/1995]',0.287,0.149,0.001,63.656,-0.376
'[14:17:55.460 18/05/1995]',0.287,0.131,0.001,63.656,-0.376
'[14:17:55.462 18/05/1995]',0.267,0.131,0.001,63.656,-0.376
'[14:17:55.464 18/05/1995]',0.267,0.131,0.001,63.906,-0.385
'[14:17:55.466 18/05/1995]',0.267,0.131,0.001,63.906,-0.385
'[14:17:55.468 18/05/1995]',0.267,0.131,0.001,63.906,-0.385
'[14:17:55.470 18/05/1995]',0.267,0.131,0.001,63.906,-0.385
'[14:17:55.472 18/05/1995]',0.287,0.131,0.001,64.557,-0.395
'[14:17:55.474 18/05/1995]',0.267,0.131,0.001,64.557,-0.395
'[14:17:55.476 18/05/1995]',0.267,0.131,0.001,64.557,-0.395
'[14:17:55.478 18/05/1995]',0.267,0.131,0.001,64.557,-0.395
'[14:17:55.480 18/05/1995]',0.267,0.131,0.001,65.709,-0.404
'[14:17:55.482 18/05/1995]',0.247,0.131,0.001,65.709,-0.404
'[14:17:55.484 18/05/1995]',0.226,0.114,0.001,65.709,-0.404
'[14:17:55.486 18/05/1995]',0.226,0.114,0.001,65.709,-0.404
'[14:17:55.488 18/05/1995]',0.226,0.114,0.001,67.212,-0.411
'[14:17:55.490 18/05/1995]',0.226,0.114,0.001,67.212,-0.411
'[14:17:55.492 18/05/1995]',0.226,0.114,0.001,67.212,-0.411
'[14:17:55.494 18/05/1995]',0.226,0.105,0.001,67.212,-0.411
'[14:17:55.496 18/05/1995]',0.226,0.105,0.001,69.215,-0.418
'[14:17:55.498 18/05/1995]',0.206,0.097,0.010,69.215,-0.418
'[14:17:55.500 18/05/1995]',0.206,0.097,0.010,69.215,-0.418
'[14:17:55.502 18/05/1995]',0.185,0.088,0.001,69.215,-0.418
'[14:17:55.504 18/05/1995]',0.165,0.097,0.010,71.569,-0.424
'[14:17:55.506 18/05/1995]',0.165,0.097,0.001,71.569,-0.424
'[14:17:55.508 18/05/1995]',0.165,0.088,0.001,71.569,-0.424
'[14:17:55.510 18/05/1995]',0.165,0.088,0.001,71.569,-0.424
'[14:17:55.512 18/05/1995]',0.144,0.079,0.010,74.073,-0.429
'[14:17:55.514 18/05/1995]',0.144,0.079,0.020,74.073,-0.429
'[14:17:55.516 18/05/1995]',0.124,0.070,0.020,74.073,-0.429
'[14:17:55.518 18/05/1995]',0.103,0.062,0.010,74.073,-0.429
'[14:17:55.520 18/05/1995]',0.103,0.070,0.001,76.728,-0.433
'[14:17:55.522 18/05/1995]',0.103,0.062,0.001,76.728,-0.433
'[14:17:55.524 18/05/1995]',0.103,0.070,0.001,76.728,-0.433
'[14:17:55.526 18/05/1995]',0.103,0.062,0.001,76.728,-0.433
'[14:17:55.528 18/05/1995]',0.103,0.070,0.010,79.332,-0.437
'[14:17:55.530 18/05/1995]',0.083,0.062,0.020,79.332,-0.437
'[14:17:55.532 18/05/1995]',0.062,0.062,0.030,79.332,-0.437
'[14:17:55.534 18/05/1995]',0.062,0.062,0.030,79.332,-0.437
'[14:17:55.536 18/05/1995]',0.062,0.062,0.020,81.636,-0.440
'[14:17:55.538 18/05/1995]',0.062,0.062,0.010,81.636,-0.440
'[14:17:55.540 18/05/1995]',0.062,0.062,0.010,81.636,-0.440
'[14:17:55.542 18/05/1995]',0.083,0.062,0.010,81.636,-0.440
'[14:17:55.544 18/05/1995]',0.062,0.053,0.001,83.589,-0.443
'[14:17:55.546 18/05/1995]',0.062,0.044,0.010,83.589,-0.443
'[14:17:55.548 18/05/1995]',0.042,0.053,0.020,83.589,-0.443
'[14:17:55.550 18/05/1995]',0.042,0.044,0.030,83.589,-0.443
'[14:17:55.552 18/05/1995]',0.042,0.044,0.020,85.042,-0.445
'[14:17:55.554 18/05/1995]',0.021,0.035,0.020,85.042,-0.445
'[14:17:55.556 18/05/1995]',0.021,0.035,0.010,85.042,-0.445
'[14:17:55.558 18/05/1995]',0.021,0.035,0.001,85.042,-0.445
'[14:17:55.560 18/05/1995]',0.021,0.035,0.010,85.893,-0.448
'[14:17:55.562 18/05/1995]',0.021,0.035,0.010,85.893,-0.448
'[14:17:55.564 18/05/1995]',0.002,0.027,0.020,85.893,-0.448
'[14:17:55.566 18/05/1995]',0.002,0.018,0.020,85.893,-0.448
'[14:17:55.568 18/05/1995]',0.002,0.027,0.020,86.093,-0.451
'[14:17:55.570 18/05/1995]',0.002,0.027,0.020,86.093,-0.451
'[14:17:55.572 18/05/1995]',0.002,0.027,0.010,86.093,-0.451
'[14:17:55.574 18/05/1995]',0.002,0.027,0.010,86.093,-0.451
'[14:17:55.576 18/05/1995]',0.002,0.035,0.010,85.743,-0.454
'[14:17:55.578 18/05/1995]',0.002,0.027,0.020,85.743,-0.454
'[14:17:55.580 18/05/1995]',0.002,0.027,0.020,85.743,-0.454
'[14:17:55.582 18/05/1995]',-0.019,0.018,0.020,85.743,-0.454
'[14:17:55.584 18/05/1995]',-0.019,0.009,0.020,84.691,-0.457
'[14:17:55.586 18/05/1995]',-0.019,0.009,0.020,84.691,-0.457
'[14:17:55.588 18/05/1995]',-0.019,0.009,0.010,84.691,-0.457
'[14:17:55.590 18/05/1995]',-0.019,0.018,0.010,84.691,-0.457
'[14:17:55.592 18/05/1995]',-0.019,0.018,0.010,83.138,-0.459
'[14:17:55.594 18/05/1995]',0.002,0.018,0.010,83.138,-0.459
'[14:17:55.596 18/05/1995]',-0.019,0.001,0.010,83.138,-0.459
'[14:17:55.598 18/05/1995]',-0.019,0.001,0.010,83.138,-0.459
'[14:17:55.600 18/05/1995]',-0.019,0.001,0.020,81.135,-0.461
'[14:17:55.602 18/05/1995]',-0.019,0.001,0.010,81.135,-0.461
'[14:17:55.604 18/05/1995]',-0.019,0.001,0.010,81.135,-0.461
'[14:17:55.606 18/05/1995]',-0.019,0.001,0.001,81.135,-0.461
'[14:17:55.608 18/05/1995]',0.002,0.001,0.001,78.881,-0.463
'[14:17:55.610 18/05/1995]',0.002,0.009,0.001,78.881,-0.463
'[14:17:55.612 18/05/1995]',0.002,0.009,0.010,78.881,-0.463
'[14:17:55.614 18/05/1995]',-0.019,0.001,0.020,78.881,-0.463
'[14:17:55.616 18/05/1995]',-0.019,0.001,0.020,76.527,-0.466
'[14:17:55.618 18/05/1995]',-0.039,0.001,0.010,76.527,-0.466
'[14:17:55.620 18/05/1995]',-0.039,0.001,0.010,76.527,-0.466
'[14:17:55.622 18/05/1995]',-0.019,0.001,0.001,76.527,-0.466
'[14:17:55.624 18/05/1995]',-0.019,0.001,0.001,74.374,-0.469
'[14:17:55.626 18/05/1995]',0.002,0.001,0.001,74.374,-0.469
'[14:17:55.628 18/05/1995]',0.002,0.001,0.001,74.374,-0.469
'[14:17:55.630 18/05/1995]',0.002,0.001,0.001,74.374,-0.469
'[14:17:55.632 18/05/1995]',-0.019,0.001,0.001,72.320,-0.472
'[14:17:55.634 18/05/1995]',-0.039,0.001,0.010,72.320,-0.472
'[14:17:55.636 18/05/1995]',-0.039,0.001,0.001,72.320,-0.472
'[14:17:55.638 18/05/1995]',-0.039,0.001,0.001,72.320,-0.472
'[14:17:55.640 18/05/1995]',-0.039,0.001,0.001,70.517,-0.475
'[14:17:55.642 18/05/1995]',-0.019,0.001,0.001,70.517,-0.475
'[14:17:55.644 18/05/1995]',-0.019,0.001,0.001,70.517,-0.475
'[14:17:55.646 18/05/1995]',-0.039,-0.008,0.001,70.517,-0.475
'[14:17:55.648 18/05/1995]',-0.039,0.001,0.010,68.965,-0.478
'[14:17:55.650 18/05/1995]',-0.039,0.001,0.010,68.965,-0.478
'[14:17:55.652 18/05/1995]',-0.039,0.001,0.001,68.965,-0.478
'[14:17:55.654 18/05/1995]',-0.039,0.001,0.001,68.965,-0.478
'[14:17:55.656 18/05/1995]',-0.039,0.001,0.001,67.663,-0.479
'[14:17:55.658 18/05/1995]',-0.039,0.001,0.001,67.663,-0.479
'[14:17:55.660 18/05/1995]',-0.019,0.001,0.001,67.663,-0.479
'[14:17:55.662 18/05/1995]',-0.039,0.001,0.001,67.663,-0.479
'[14:17:55.664 18/05/1995]',-0.039,0.001,0.001,66.611,-0.480
'[14:17:55.666 18/05/1995]',-0.039,-0.008,0.001,66.611,-0.480
'[14:17:55.668 18/05/1995]',-0.039,-0.008,0.001,66.611,-0.480
'[14:17:55.670 18/05/1995]',-0.039,-0.008,0.001,66.611,-0.480
'[14:17:55.672 18/05/1995]',-0.019,-0.008,0.001,65.759,-0.481
'[14:17:55.674 18/05/1995]',-0.019,-0.017,-0.009,65.759,-0.481
'[14:17:55.676 18/05/1995]',-0.019,-0.017,-0.009,65.759,-0.481
'[14:17:55.678 18/05/1995]',0.002,-0.017,0.001,65.759,-0.481
'[14:17:55.680 18/05/1995]',-0.019,-0.025,0.001,65.058,-0.481
'[14:17:55.682 18/05/1995]',-0.019,-0.017,0.001,65.058,-0.481
'[14:17:55.684 18/05/1995]',-0.039,-0.017,0.001,65.058,-0.481
'[14:17:55.686 18/05/1995]',-0.019,-0.008,0.001,65.058,-0.481
'[14:17:55.688 18/05/1995]',-0.019,0.001,0.001,64.507,-0.481
'[14:17:55.690 18/05/1995]',-0.019,0.009,0.001,64.507,-0.481
'[14:17:55.692 18/05/1995]',0.002,0.018,0.001,64.507,-0.481
'[14:17:55.694 18/05/1995]',0.002,0.027,0.010,64.507,-0.481
'[14:17:55.696 18/05/1995]',0.002,0.027,0.010,64.107,-0.480
'[14:17:55.698 18/05/1995]',0.021,0.027,0.020,64.107,-0.480
'[14:17:55.700 18/05/1995]',0.002,0.027,0.020,64.107,-0.480
'[14:17:55.702 18/05/1995]',0.021,0.035,0.020,64.107,-0.480
'[14:17:55.704 18/05/1995]',0.021,0.053,0.020,63.806,-0.480
'[14:17:55.706 18/05/1995]',0.021,0.062,0.030,63.806,-0.480
'[14:17:55.708 18/05/1995]',0.042,0.079,0.030,63.806,-0.480
'[14:17:55.710 18/05/1995]',0.042,0.088,0.040,63.806,-0.480
'[14:17:55.712 18/05/1995]',0.042,0.097,0.040,63.656,-0.479
'[14:17:55.714 18/05/1995]',0.042,0.105,0.049,63.656,-0.479
'[14:17:55.716 18/05/1995]',0.042,0.114,0.059,63.656,-0.479
'[14:17:55.718 18/05/1995]',0.042,0.114,0.059,63.656,-0.479
'[14:17:55.720 18/05/1995]',0.042,0.123,0.069,63.556,-0.479
'[14:17:55.722 18/05/1995]',0.062,0.131,0.069,63.556,-0.479
'[14:17:55.724 18/05/1995]',0.062,0.131,0.069,63.556,-0.479
'[14:17:55.726 18/05/1995]',0.062,0.140,0.079,63.556,-0.479
'[14:17:55.728 18/05/1995]',0.042,0.140,0.088,63.556,-0.479
'[14:17:55.730 18/05/1995]',0.021,0.140,0.098,63.556,-0.479
'[14:17:55.732 18/05/1995]',0.002,0.140,0.118,63.556,-0.479
'[14:17:55.734 18/05/1995]',0.002,0.149,0.118,63.556,-0.479
'[14:17:55.736 18/05/1995]',0.002,0.166,0.127,63.556,-0.479
'[14:17:55.738 18/05/1995]',0.002,0.175,0.127,63.556,-0.479
'[14:17:55.740 18/05/1995]',0.002,0.184,0.127,63.556,-0.479
'[14:17:55.742 18/05/1995]',0.002,0.192,0.137,63.556,-0.479
'[14:17:55.744 18/05/1995]',0.002,0.210,0.146,63.706,-0.479
'[14:17:55.746 18/05/1995]',-0.019,0.227,0.166,63.706,-0.479
'[14:17:55.748 18/05/1995]',-0.019,0.245,0.176,63.706,-0.479
'[14:17:55.750 18/05/1995]',-0.019,0.245,0.176,63.706,-0.479
'[14:17:55.752 18/05/1995]',-0.019,0.253,0.176,63.856,-0.479
'[14:17:55.754 18/05/1995]',-0.019,0.253,0.166,63.856,-0.479
'[14:17:55.756 18/05/1995]',0.002,0.253,0.166,63.856,-0.479
'[14:17:55.758 18/05/1995]',0.002,0.253,0.166,63.856,-0.479
'[14:17:55.760 18/05/1995]',0.021,0.262,0.166,64.007,-0.479
'[14:17:55.762 18/05/1995]',0.042,0.262,0.156,64.007,-0.479
'[14:17:55.764 18/05/1995]',0.062,0.262,0.156,64.007,-0.479
'[14:17:55.766 18/05/1995]',0.103,0.262,0.156,64.007,-0.479
'[14:17:55.768 18/05/1995]',0.103,0.271,0.146,64.107,-0.479
'[14:17:55.770 18/05/1995]',0.103,0.271,0.137,64.107,-0.479
'[14:17:55.772 18/05/1995]',0.124,0.280,0.127,64.107,-0.479
'[14:17:55.774 18/05/1995]',0.124,0.280,0.127,64.107,-0.479
'[14:17:55.776 18/05/1995]',0.124,0.280,0.127,64.207,-0.479
'[14:17:55.778 18/05/1995]',0.103,0.288,0.146,64.207,-0.479
'[14:17:55.780 18/05/1995]',0.083,0.288,0.156,64.207,-0.479
'[14:17:55.782 18/05/1995]',0.062,0.288,0.166,64.207,-0.479
'[14:17:55.784 18/05/1995]',0.062,0.280,0.156,64.357,-0.479
'[14:17:55.786 18/05/1995]',0.062,0.271,0.146,64.357,-0.479
'[14:17:55.788 18/05/1995]',0.062,0.262,0.137,64.357,-0.479
'[14:17:55.790 18/05/1995]',0.103,0.262,0.127,64.357,-0.479
'[14:17:55.792 18/05/1995]',0.103,0.262,0.118,64.507,-0.479
'[14:17:55.794 18/05/1995]',0.124,0.245,0.098,64.507,-0.479
'[14:17:55.796 18/05/1995]',0.124,0.236,0.098,64.507,-0.479
'[14:17:55.798 18/05/1995]',0.124,0.219,0.088,64.507,-0.479
'[14:17:55.800 18/05/1995]',0.124,0.210,0.088,64.658,-0.480
'[14:17:55.802 18/05/1995]',0.144,0.201,0.079,64.658,-0.480
'[14:17:55.804 18/05/1995]',0.144,0.192,0.069,64.658,-0.480
'[14:17:55.806 18/05/1995]',0.165,0.192,0.049,64.658,-0.480
'[14:17:55.808 18/05/1995]',0.144,0.201,0.049,64.708,-0.481
'[14:17:55.810 18/05/1995]',0.144,0.184,0.059,64.708,-0.481
'[14:17:55.812 18/05/1995]',0.103,0.175,0.059,64.708,-0.481
'[14:17:55.814 18/05/1995]',0.083,0.166,0.069,64.708,-0.481
'[14:17:55.816 18/05/1995]',0.062,0.157,0.069,64.758,-0.482
'[14:17:55.818 18/05/1995]',0.042,0.149,0.069,64.758,-0.482
'[14:17:55.820 18/05/1995]',0.021,0.149,0.059,64.758,-0.482
'[14:17:55.822 18/05/1995]',0.021,0.140,0.059,64.758,-0.482
'[14:17:55.824 18/05/1995]',0.002,0.131,0.059,64.758,-0.485
'[14:17:55.826 18/05/1995]',0.002,0.131,0.059,64.758,-0.485
'[14:17:55.828 18/05/1995]',-0.019,0.123,0.059,64.758,-0.485
'[14:17:55.830 18/05/1995]',-0.039,0.105,0.059,64.758,-0.485
'[14:17:55.832 18/05/1995]',-0.039,0.088,0.059,64.708,-0.488
'[14:17:55.834 18/05/1995]',-0.080,0.062,0.049,64.708,-0.488
'[14:17:55.836 18/05/1995]',-0.080,0.053,0.040,64.708,-0.488
'[14:17:55.838 18/05/1995]',-0.080,0.044,0.040,64.708,-0.488
'[14:17:55.840 18/05/1995]',-0.080,0.035,0.030,64.658,-0.492
'[14:17:55.842 18/05/1995]',-0.100,0.009,0.010,64.658,-0.492
'[14:17:55.844 18/05/1995]',-0.100,0.001,0.010,64.658,-0.492
'[14:17:55.846 18/05/1995]',-0.121,0.001,0.010,64.658,-0.492
'[14:17:55.848 18/05/1995]',-0.162,-0.025,0.010,64.557,-0.496
'[14:17:55.850 18/05/1995]',-0.162,-0.043,0.001,64.557,-0.496
'[14:17:55.852 18/05/1995]',-0.182,-0.060,0.001,64.557,-0.496
'[14:17:55.854 18/05/1995]',-0.182,-0.087,-0.009,64.557,-0.496
'[14:17:55.856 18/05/1995]',-0.182,-0.104,-0.028,64.507,-0.502
'[14:17:55.858 18/05/1995]',-0.182,-0.130,-0.038,64.507,-0.502
'[14:17:55.860 18/05/1995]',-0.182,-0.148,-0.048,64.507,-0.502
'[14:17:55.862 18/05/1995]',-0.182,-0.165,-0.048,64.507,-0.502
'[14:17:55.864 18/05/1995]',-0.182,-0.174,-0.058,64.407,-0.508
'[14:17:55.866 18/05/1995]',-0.203,-0.191,-0.048,64.407,-0.508
'[14:17:55.868 18/05/1995]',-0.203,-0.191,-0.048,64.407,-0.508
'[14:17:55.870 18/05/1995]',-0.223,-0.209,-0.067,64.407,-0.508
'[14:17:55.872 18/05/1995]',-0.223,-0.217,-0.077,64.307,-0.514
'[14:17:55.874 18/05/1995]',-0.223,-0.226,-0.077,64.307,-0.514
'[14:17:55.876 18/05/1995]',-0.223,-0.235,-0.077,64.307,-0.514
'[14:17:55.878 18/05/1995]',-0.223,-0.235,-0.077,64.307,-0.514
'[14:17:55.880 18/05/1995]',-0.223,-0.235,-0.077,64.307,-0.520
'[14:17:55.882 18/05/1995]',-0.244,-0.244,-0.077,64.307,-0.520
'[14:17:55.884 18/05/1995]',-0.244,-0.244,-0.067,64.307,-0.520
'[14:17:55.886 18/05/1995]',-0.244,-0.244,-0.077,64.307,-0.520
'[14:17:55.888 18/05/1995]',-0.244,-0.235,-0.077,64.457,-0.527
'[14:17:55.890 18/05/1995]',-0.244,-0.244,-0.077,64.457,-0.527
'[14:17:55.892 18/05/1995]',-0.223,-0.252,-0.087,64.457,-0.527
'[14:17:55.894 18/05/1995]',-0.244,-0.252,-0.077,64.457,-0.527
'[14:17:55.896 18/05/1995]',-0.244,-0.261,-0.077,65.008,-0.534
'[14:17:55.898 18/05/1995]',-0.244,-0.261,-0.077,65.008,-0.534
'[14:17:55.900 18/05/1995]',-0.264,-0.261,-0.077,65.008,-0.534
'[14:17:55.902 18/05/1995]',-0.264,-0.261,-0.077,65.008,-0.534
'[14:17:55.904 18/05/1995]',-0.264,-0.261,-0.077,65.910,-0.541
'[14:17:55.906 18/05/1995]',-0.264,-0.261,-0.087,65.910,-0.541
'[14:17:55.908 18/05/1995]',-0.244,-0.261,-0.087,65.910,-0.541
'[14:17:55.910 18/05/1995]',-0.264,-0.270,-0.087,65.910,-0.541
'[14:17:55.912 18/05/1995]',-0.264,-0.270,-0.087,67.412,-0.547
'[14:17:55.914 18/05/1995]',-0.264,-0.261,-0.077,67.412,-0.547
'[14:17:55.916 18/05/1995]',-0.264,-0.261,-0.077,67.412,-0.547
'[14:17:55.918 18/05/1995]',-0.264,-0.270,-0.077,67.412,-0.547
'[14:17:55.920 18/05/1995]',-0.264,-0.270,-0.087,69.365,-0.553
'[14:17:55.922 18/05/1995]',-0.264,-0.270,-0.087,69.365,-0.553
'[14:17:55.924 18/05/1995]',-0.264,-0.261,-0.087,69.365,-0.553
'[14:17:55.926 18/05/1995]',-0.244,-0.261,-0.097,69.365,-0.553
'[14:17:55.928 18/05/1995]',-0.244,-0.261,-0.087,71.820,-0.559
'[14:17:55.930 18/05/1995]',-0.264,-0.261,-0.077,71.820,-0.559
'[14:17:55.932 18/05/1995]',-0.244,-0.270,-0.087,71.820,-0.559
'[14:17:55.934 18/05/1995]',-0.264,-0.270,-0.077,71.820,-0.559
'[14:17:55.936 18/05/1995]',-0.244,-0.270,-0.087,74.624,-0.564
'[14:17:55.938 18/05/1995]',-0.244,-0.270,-0.097,74.624,-0.564
'[14:17:55.940 18/05/1995]',-0.223,-0.270,-0.097,74.624,-0.564
'[14:17:55.942 18/05/1995]',-0.223,-0.270,-0.107,74.624,-0.564
'[14:17:55.944 18/05/1995]',-0.203,-0.270,-0.107,77.629,-0.568
'[14:17:55.946 18/05/1995]',-0.223,-0.270,-0.097,77.629,-0.568
'[14:17:55.948 18/05/1995]',-0.223,-0.278,-0.097,77.629,-0.568
'[14:17:55.950 18/05/1995]',-0.223,-0.270,-0.097,77.629,-0.568
'[14:17:55.952 18/05/1995]',-0.203,-0.270,-0.107,80.634,-0.571
'[14:17:55.954 18/05/1995]',-0.203,-0.270,-0.116,80.634,-0.571
'[14:17:55.956 18/05/1995]',-0.182,-0.261,-0.107,80.634,-0.571
'[14:17:55.958 18/05/1995]',-0.182,-0.261,-0.107,80.634,-0.571
'[14:17:55.960 18/05/1995]',-0.162,-0.261,-0.107,83.539,-0.573
'[14:17:55.962 18/05/1995]',-0.162,-0.261,-0.107,83.539,-0.573
'[14:17:55.964 18/05/1995]',-0.162,-0.252,-0.087,83.539,-0.573
'[14:17:55.966 18/05/1995]',-0.182,-0.252,-0.087,83.539,-0.573
'[14:17:55.968 18/05/1995]',-0.162,-0.244,-0.087,86.043,-0.575
'[14:17:55.970 18/05/1995]',-0.162,-0.244,-0.097,86.043,-0.575
'[14:17:55.972 18/05/1995]',-0.162,-0.244,-0.097,86.043,-0.575
'[14:17:55.974 18/05/1995]',-0.141,-0.235,-0.107,86.043,-0.575
'[14:17:55.976 18/05/1995]',-0.141,-0.235,-0.107,88.097,-0.577
'[14:17:55.978 18/05/1995]',-0.141,-0.226,-0.097,88.097,-0.577
'[14:17:55.980 18/05/1995]',-0.141,-0.235,-0.097,88.097,-0.577
'[14:17:55.982 18/05/1995]',-0.141,-0.235,-0.097,88.097,-0.577
'[14:17:55.984 18/05/1995]',-0.141,-0.226,-0.087,89.449,-0.577
'[14:17:55.986 18/05/1995]',-0.121,-0.226,-0.087,89.449,-0.577
'[14:17:55.988 18/05/1995]',-0.100,-0.217,-0.097,89.449,-0.577
'[14:17:55.990 18/05/1995]',-0.100,-0.209,-0.107,89.449,-0.577
'[14:17:55.992 18/05/1995]',-0.100,-0.209,-0.097,90.100,-0.578
'[14:17:55.994 18/05/1995]',-0.080,-0.200,-0.097,90.100,-0.578
'[14:17:55.996 18/05/1995]',-0.080,-0.191,-0.087,90.100,-0.578
'[14:17:55.998 18/05/1995]',-0.080,-0.191,-0.077,90.100,-0.578
'[14:17:56.000 18/05/1995]',-0.080,-0.183,-0.077,90.000,-0.579
'[14:17:56.002 18/05/1995]',-0.080,-0.191,-0.087,90.000,-0.579
'[14:17:56.004 18/05/1995]',-0.080,-0.183,-0.087,90.000,-0.579
'[14:17:56.006 18/05/1995]',-0.060,-0.174,-0.097,90.000,-0.579
'[14:17:56.008 18/05/1995]',-0.039,-0.165,-0.097,89.148,-0.580
'[14:17:56.010 18/05/1995]',-0.039,-0.156,-0.087,89.148,-0.580
'[14:17:56.012 18/05/1995]',-0.039,-0.156,-0.077,89.148,-0.580
'[14:17:56.014 18/05/1995]',-0.039,-0.156,-0.077,89.148,-0.580
'[14:17:56.016 18/05/1995]',-0.060,-0.156,-0.077,87.646,-0.582
'[14:17:56.018 18/05/1995]',-0.060,-0.148,-0.077,87.646,-0.582
'[14:17:56.020 18/05/1995]',-0.039,-0.139,-0.077,87.646,-0.582
'[14:17:56.022 18/05/1995]',-0.039,-0.130,-0.077,87.646,-0.582
'[14:17:56.024 18/05/1995]',-0.019,-0.130,-0.077,85.593,-0.584
'[14:17:56.026 18/05/1995]',-0.019,-0.130,-0.077,85.593,-0.584
'[14:17:56.028 18/05/1995]',-0.019,-0.139,-0.077,85.593,-0.584
'[14:17:56.030 18/05/1995]',-0.019,-0.130,-0.067,85.593,-0.584
'[14:17:56.032 18/05/1995]',0.002,-0.130,-0.067,82.988,-0.586
'[14:17:56.034 18/05/1995]',-0.019,-0.122,-0.058,82.988,-0.586
'[14:17:56.036 18/05/1995]',-0.019,-0.122,-0.067,82.988,-0.586
'[14:17:56.038 18/05/1995]',0.002,-0.113,-0.058,82.988,-0.586
'[14:17:56.040 18/05/1995]',0.002,-0.104,-0.058,80.133,-0.586
'[14:17:56.042 18/05/1995]',0.002,-0.095,-0.058,80.133,-0.586
'[14:17:56.044 18/05/1995]',0.002,-0.087,-0.058,80.133,-0.586
'[14:17:56.046 18/05/1995]',0.002,-0.087,-0.048,80.133,-0.586
'[14:17:56.048 18/05/1995]',0.002,-0.087,-0.048,77.179,-0.586
'[14:17:56.050 18/05/1995]',-0.019,-0.087,-0.038,77.179,-0.586
'[14:17:56.052 18/05/1995]',0.002,-0.069,-0.038,77.179,-0.586
'[14:17:56.054 18/05/1995]',0.002,-0.069,-0.038,77.179,-0.586
'[14:17:56.056 18/05/1995]',0.002,-0.069,-0.038,74.424,-0.585
'[14:17:56.058 18/05/1995]',0.002,-0.052,-0.038,74.424,-0.585
'[14:17:56.060 18/05/1995]',0.002,-0.052,-0.038,74.424,-0.585
'[14:17:56.062 18/05/1995]',0.002,-0.043,-0.028,74.424,-0.585
'[14:17:56.064 18/05/1995]',0.002,-0.043,-0.028,71.920,-0.583
'[14:17:56.066 18/05/1995]',0.002,-0.043,-0.019,71.920,-0.583
'[14:17:56.068 18/05/1995]',0.002,-0.043,-0.019,71.920,-0.583
'[14:17:56.070 18/05/1995]',0.002,-0.034,-0.019,71.920,-0.583
'[14:17:56.072 18/05/1995]',0.002,-0.025,-0.019,69.816,-0.580
'[14:17:56.074 18/05/1995]',0.021,-0.017,-0.019,69.816,-0.580
'[14:17:56.076 18/05/1995]',0.021,-0.008,-0.019,69.816,-0.580
'[14:17:56.078 18/05/1995]',0.021,-0.008,-0.019,69.816,-0.580
'[14:17:56.080 18/05/1995]',0.021,-0.008,0.001,67.963,-0.575
'[14:17:56.082 18/05/1995]',0.021,-0.008,0.001,67.963,-0.575
'[14:17:56.084 18/05/1995]',0.002,-0.008,0.001,67.963,-0.575
'[14:17:56.086 18/05/1995]',0.021,-0.008,0.001,67.963,-0.575
'[14:17:56.088 18/05/1995]',0.002,0.001,-0.009,66.461,-0.569
'[14:17:56.090 18/05/1995]',0.021,0.001,0.001,66.461,-0.569
'[14:17:56.092 18/05/1995]',0.021,0.001,-0.009,66.461,-0.569
'[14:17:56.094 18/05/1995]',0.021,0.001,0.001,66.461,-0.569
'[14:17:56.096 18/05/1995]',0.021,0.001,0.001,65.209,-0.560
'[14:17:56.098 18/05/1995]',0.002,0.001,0.001,65.209,-0.560
'[14:17:56.100 18/05/1995]',0.002,0.001,0.001,65.209,-0.560
'[14:17:56.102 18/05/1995]',0.002,0.001,0.001,65.209,-0.560
'[14:17:56.104 18/05/1995]',0.021,0.001,0.001,64.307,-0.549
'[14:17:56.106 18/05/1995]',0.021,0.001,0.001,64.307,-0.549
'[14:17:56.108 18/05/1995]',0.021,0.009,0.001,64.307,-0.549
'[14:17:56.110 18/05/1995]',0.021,0.009,0.001,64.307,-0.549
'[14:17:56.112 18/05/1995]',0.021,0.001,0.001,63.506,-0.537
'[14:17:56.114 18/05/1995]',0.021,0.001,0.001,63.506,-0.537
'[14:17:56.116 18/05/1995]',0.002,0.001,0.001,63.506,-0.537
'[14:17:56.118 18/05/1995]',0.002,0.009,0.001,63.506,-0.537
'[14:17:56.120 18/05/1995]',0.002,0.001,0.001,62.955,-0.524
'[14:17:56.122 18/05/1995]',0.021,0.009,0.001,62.955,-0.524
'[14:17:56.124 18/05/1995]',0.021,0.009,0.001,62.955,-0.524
'[14:17:56.126 18/05/1995]',0.021,0.018,0.001,62.955,-0.524
'[14:17:56.128 18/05/1995]',0.021,0.018,0.001,62.454,-0.509
'[14:17:56.130 18/05/1995]',0.021,0.009,0.001,62.454,-0.509
'[14:17:56.132 18/05/1995]',0.021,0.009,0.001,62.454,-0.509
'[14:17:56.134 18/05/1995]',0.021,0.009,0.001,62.454,-0.509
'[14:17:56.136 18/05/1995]',0.021,0.009,0.001,62.053,-0.493
'[14:17:56.138 18/05/1995]',0.021,0.027,0.001,62.053,-0.493
'[14:17:56.140 18/05/1995]',0.021,0.018,0.001,62.053,-0.493
'[14:17:56.142 18/05/1995]',0.042,0.018,0.001,62.053,-0.493
'[14:17:56.144 18/05/1995]',0.042,0.018,0.001,61.603,-0.476
'[14:17:56.146 18/05/1995]',0.042,0.018,0.001,61.603,-0.476
'[14:17:56.148 18/05/1995]',0.021,0.027,0.010,61.603,-0.476
'[14:17:56.150 18/05/1995]',0.021,0.018,0.010,61.603,-0.476
'[14:17:56.152 18/05/1995]',0.021,0.018,0.001,61.252,-0.459
'[14:17:56.154 18/05/1995]',0.042,0.027,0.001,61.252,-0.459
'[14:17:56.156 18/05/1995]',0.042,0.035,0.001,61.252,-0.459
'[14:17:56.158 18/05/1995]',0.042,0.044,0.001,61.252,-0.459
'[14:17:56.160 18/05/1995]',0.042,0.035,0.010,60.901,-0.441
'[14:17:56.162 18/05/1995]',0.021,0.027,0.001,60.901,-0.441
'[14:17:56.164 18/05/1995]',0.021,0.018,0.010,60.901,-0.441
'[14:17:56.166 18/05/1995]',0.021,0.018,0.010,60.901,-0.441
'[14:17:56.168 18/05/1995]',0.021,0.018,0.010,60.601,-0.422
'[14:17:56.170 18/05/1995]',0.042,0.018,0.001,60.601,-0.422
'[14:17:56.172 18/05/1995]',0.042,0.018,0.001,60.601,-0.422
'[14:17:56.174 18/05/1995]',0.062,0.027,0.001,60.601,-0.422
'[14:17:56.176 18/05/1995]',0.042,0.027,0.001,60.300,-0.404
'[14:17:56.178 18/05/1995]',0.042,0.027,0.001,60.300,-0.404
'[14:17:56.180 18/05/1995]',0.042,0.027,0.001,60.300,-0.404
'[14:17:56.182 18/05/1995]',0.042,0.027,0.001,60.300,-0.404
'[14:17:56.184 18/05/1995]',0.042,0.027,0.001,60.050,-0.384
'[14:17:56.186 18/05/1995]',0.042,0.027,0.001,60.050,-0.384
'[14:17:56.188 18/05/1995]',0.042,0.035,0.001,60.050,-0.384
'[14:17:56.190 18/05/1995]',0.042,0.035,0.001,60.050,-0.384
'[14:17:56.192 18/05/1995]',0.042,0.035,0.001,59.800,-0.362
'[14:17:56.194 18/05/1995]',0.062,0.035,0.001,59.800,-0.362
'[14:17:56.196 18/05/1995]',0.042,0.035,0.001,59.800,-0.362
'[14:17:56.198 18/05/1995]',0.042,0.027,0.001,59.800,-0.362
'[14:17:56.200 18/05/1995]',0.042,0.027,0.001,59.649,-0.340
'[14:17:56.202 18/05/1995]',0.042,0.035,0.001,59.649,-0.340
'[14:17:56.204 18/05/1995]',0.042,0.035,0.001,59.649,-0.340
'[14:17:56.206 18/05/1995]',0.062,0.035,0.001,59.649,-0.340
'[14:17:56.208 18/05/1995]',0.083,0.035,0.001,59.449,-0.317
'[14:17:56.210 18/05/1995]',0.083,0.027,0.001,59.449,-0.317
'[14:17:56.212 18/05/1995]',0.083,0.035,0.001,59.449,-0.317
'[14:17:56.214 18/05/1995]',0.083,0.027,0.001,59.449,-0.317
'[14:17:56.216 18/05/1995]',0.062,0.027,0.001,59.299,-0.292
'[14:17:56.218 18/05/1995]',0.062,0.027,0.001,59.299,-0.292
'[14:17:56.220 18/05/1995]',0.083,0.035,0.001,59.299,-0.292
'[14:17:56.222 18/05/1995]',0.083,0.035,0.001,59.299,-0.292
'[14:17:56.224 18/05/1995]',0.083,0.035,0.001,59.098,-0.269
'[14:17:56.226 18/05/1995]',0.103,0.044,0.001,59.098,-0.269
'[14:17:56.228 18/05/1995]',0.103,0.027,0.001,59.098,-0.269
'[14:17:56.230 18/05/1995]',0.103,0.027,0.001,59.098,-0.269
'[14:17:56.232 18/05/1995]',0.083,0.027,0.001,58.948,-0.244
'[14:17:56.234 18/05/1995]',0.083,0.018,0.001,58.948,-0.244
'[14:17:56.236 18/05/1995]',0.062,0.018,0.001,58.948,-0.244
'[14:17:56.238 18/05/1995]',0.062,0.018,0.001,58.948,-0.244
'[14:17:56.240 18/05/1995]',0.083,0.018,0.001,58.848,-0.220
'[14:17:56.242 18/05/1995]',0.083,0.018,0.001,58.848,-0.220
'[14:17:56.244 18/05/1995]',0.083,0.018,0.001,58.848,-0.220
'[14:17:56.246 18/05/1995]',0.083,0.018,0.001,58.848,-0.220
'[14:17:56.248 18/05/1995]',0.083,0.018,0.001,58.698,-0.196
'[14:17:56.250 18/05/1995]',0.083,0.027,0.001,58.698,-0.196
'[14:17:56.252 18/05/1995]',0.083,0.018,0.001,58.698,-0.196
'[14:17:56.254 18/05/1995]',0.083,0.018,0.001,58.698,-0.196
'[14:17:56.256 18/05/1995]',0.103,0.027,0.001,58.648,-0.171
'[14:17:56.258 18/05/1995]',0.103,0.027,0.001,58.648,-0.171
'[14:17:56.260 18/05/1995]',0.103,0.027,0.001,58.648,-0.171
'[14:17:56.262 18/05/1995]',0.103,0.027,0.001,58.648,-0.171
'[14:17:56.264 18/05/1995]',0.103,0.018,0.001,58.447,-0.146
'[14:17:56.266 18/05/1995]',0.083,0.001,0.001,58.447,-0.146
'[14:17:56.268 18/05/1995]',0.083,0.018,0.001,58.447,-0.146
'[14:17:56.270 18/05/1995]',0.083,0.009,0.001,58.447,-0.146
'[14:17:56.272 18/05/1995]',0.083,0.018,0.001,58.347,-0.121
'[14:17:56.274 18/05/1995]',0.083,0.027,-0.009,58.347,-0.121
'[14:17:56.276 18/05/1995]',0.103,0.027,0.001,58.347,-0.121
'[14:17:56.278 18/05/1995]',0.103,0.027,0.001,58.347,-0.121
'[14:17:56.280 18/05/1995]',0.083,0.027,0.001,58.097,-0.097
'[14:17:56.282 18/05/1995]',0.083,0.018,0.001,58.097,-0.097
'[14:17:56.284 18/05/1995]',0.062,0.018,0.001,58.097,-0.097
'[14:17:56.286 18/05/1995]',0.062,0.018,0.001,58.097,-0.097
'[14:17:56.288 18/05/1995]',0.083,0.018,0.001,57.946,-0.073
'[14:17:56.290 18/05/1995]',0.083,0.018,0.001,57.946,-0.073
'[14:17:56.292 18/05/1995]',0.103,0.018,0.001,57.946,-0.073
'[14:17:56.294 18/05/1995]',0.103,0.018,0.001,57.946,-0.073
'[14:17:56.296 18/05/1995]',0.103,0.009,0.001,57.646,-0.051
'[14:17:56.298 18/05/1995]',0.083,0.009,0.001,57.646,-0.051
'[14:17:56.300 18/05/1995]',0.062,0.001,0.001,57.646,-0.051
'[14:17:56.302 18/05/1995]',0.062,0.001,0.001,57.646,-0.051
'[14:17:56.304 18/05/1995]',0.062,0.009,0.001,57.345,-0.028
'[14:17:56.306 18/05/1995]',0.062,0.009,0.001,57.345,-0.028
'[14:17:56.308 18/05/1995]',0.062,0.009,0.001,57.345,-0.028
'[14:17:56.310 18/05/1995]',0.062,0.018,0.001,57.345,-0.028
'[14:17:56.312 18/05/1995]',0.062,0.009,0.001,57.045,-0.006
'[14:17:56.314 18/05/1995]',0.062,0.009,0.001,57.045,-0.006
'[14:17:56.316 18/05/1995]',0.042,0.001,0.001,57.045,-0.006
'[14:17:56.318 18/05/1995]',0.042,0.001,0.001,57.045,-0.006
'[14:17:56.320 18/05/1995]',0.062,0.009,0.001,56.795,0.013
'[14:17:56.322 18/05/1995]',0.062,0.009,0.001,56.795,0.013
'[14:17:56.324 18/05/1995]',0.083,0.009,0.001,56.795,0.013
'[14:17:56.326 18/05/1995]',0.083,0.009,0.001,56.795,0.013
'[14:17:56.328 18/05/1995]',0.062,0.009,0.001,56.394,0.030
'[14:17:56.330 18/05/1995]',0.062,0.001,0.001,56.394,0.030
'[14:17:56.332 18/05/1995]',0.062,0.001,0.001,56.394,0.030
'[14:17:56.334 18/05/1995]',0.062,0.001,0.001,56.394,0.030
'[14:17:56.336 18/05/1995]',0.062,0.001,0.001,56.143,0.046
'[14:17:56.338 18/05/1995]',0.083,0.009,0.001,56.143,0.046
'[14:17:56.340 18/05/1995]',0.083,0.009,-0.009,56.143,0.046
'[14:17:56.342 18/05/1995]',0.083,0.018,0.001,56.143,0.046
'[14:17:56.344 18/05/1995]',0.062,0.009,0.001,55.843,0.060
'[14:17:56.346 18/05/1995]',0.042,0.001,0.001,55.843,0.060
'[14:17:56.348 18/05/1995]',0.042,0.001,0.001,55.843,0.060
'[14:17:56.350 18/05/1995]',0.021,-0.017,-0.009,55.843,0.060
'[14:17:56.352 18/05/1995]',0.002,-0.025,-0.019,55.542,0.074
'[14:17:56.354 18/05/1995]',0.002,-0.052,-0.038,55.542,0.074
'[14:17:56.356 18/05/1995]',0.002,-0.078,-0.058,55.542,0.074
'[14:17:56.358 18/05/1995]',0.002,-0.095,-0.067,55.542,0.074
'[14:17:56.360 18/05/1995]',-0.019,-0.087,-0.067,55.192,0.086
'[14:17:56.362 18/05/1995]',-0.039,-0.104,-0.067,55.192,0.086
'[14:17:56.364 18/05/1995]',-0.080,-0.113,-0.058,55.192,0.086
'[14:17:56.366 18/05/1995]',-0.100,-0.122,-0.048,55.192,0.086
'[14:17:56.368 18/05/1995]',-0.141,-0.130,-0.058,54.891,0.099
'[14:17:56.370 18/05/1995]',-0.203,-0.139,-0.058,54.891,0.099
'[14:17:56.372 18/05/1995]',-0.223,-0.148,-0.067,54.891,0.099
'[14:17:56.374 18/05/1995]',-0.264,-0.165,-0.077,54.891,0.099
'[14:17:56.376 18/05/1995]',-0.285,-0.200,-0.077,54.591,0.110
'[14:17:56.378 18/05/1995]',-0.325,-0.226,-0.087,54.591,0.110
'[14:17:56.380 18/05/1995]',-0.345,-0.261,-0.097,54.591,0.110
'[14:17:56.382 18/05/1995]',-0.366,-0.278,-0.116,54.591,0.110
'[14:17:56.384 18/05/1995]',-0.366,-0.296,-0.126,54.340,0.120
'[14:17:56.386 18/05/1995]',-0.366,-0.313,-0.126,54.340,0.120
'[14:17:56.388 18/05/1995]',-0.366,-0.331,-0.136,54.340,0.120
'[14:17:56.390 18/05/1995]',-0.366,-0.331,-0.136,54.340,0.120
'[14:17:56.392 18/05/1995]',-0.386,-0.348,-0.136,54.090,0.130
'[14:17:56.394 18/05/1995]',-0.407,-0.348,-0.126,54.090,0.130
'[14:17:56.396 18/05/1995]',-0.427,-0.357,-0.107,54.090,0.130
'[14:17:56.398 18/05/1995]',-0.447,-0.348,-0.087,54.090,0.130
'[14:17:56.400 18/05/1995]',-0.468,-0.348,-0.077,53.840,0.139
'[14:17:56.402 18/05/1995]',-0.488,-0.331,-0.067,53.840,0.139
'[14:17:56.404 18/05/1995]',-0.488,-0.322,-0.058,53.840,0.139
'[14:17:56.406 18/05/1995]',-0.509,-0.331,-0.058,53.840,0.139
'[14:17:56.408 18/05/1995]',-0.529,-0.322,-0.048,53.539,0.147
'[14:17:56.410 18/05/1995]',-0.529,-0.313,-0.038,53.539,0.147
'[14:17:56.412 18/05/1995]',-0.550,-0.313,-0.028,53.539,0.147
'[14:17:56.414 18/05/1995]',-0.550,-0.313,-0.019,53.539,0.147
'[14:17:56.416 18/05/1995]',-0.570,-0.305,0.001,53.289,0.155
'[14:17:56.418 18/05/1995]',-0.590,-0.296,0.001,53.289,0.155
'[14:17:56.420 18/05/1995]',-0.590,-0.278,0.001,53.289,0.155
'[14:17:56.422 18/05/1995]',-0.570,-0.261,0.001,53.289,0.155
'[14:17:56.424 18/05/1995]',-0.550,-0.261,0.001,53.088,0.165
'[14:17:56.426 18/05/1995]',-0.550,-0.244,0.001,53.088,0.165
'[14:17:56.428 18/05/1995]',-0.509,-0.235,0.001,53.088,0.165
'[14:17:56.430 18/05/1995]',-0.488,-0.235,0.010,53.088,0.165
'[14:17:56.432 18/05/1995]',-0.447,-0.217,0.020,52.788,0.173
'[14:17:56.434 18/05/1995]',-0.427,-0.200,0.010,52.788,0.173
'[14:17:56.436 18/05/1995]',-0.386,-0.183,0.001,52.788,0.173
'[14:17:56.438 18/05/1995]',-0.345,-0.165,0.001,52.788,0.173
'[14:17:56.440 18/05/1995]',-0.304,-0.148,0.001,52.588,0.181
'[14:17:56.442 18/05/1995]',-0.244,-0.130,0.001,52.588,0.181
'[14:17:56.444 18/05/1995]',-0.203,-0.113,0.001,52.588,0.181
'[14:17:56.446 18/05/1995]',-0.162,-0.095,0.001,52.588,0.181
'[14:17:56.448 18/05/1995]',-0.141,-0.078,0.001,52.387,0.189
'[14:17:56.450 18/05/1995]',-0.100,-0.060,0.001,52.387,0.189
'[14:17:56.452 18/05/1995]',-0.080,-0.043,0.001,52.387,0.189
'[14:17:56.454 18/05/1995]',-0.039,-0.017,0.001,52.387,0.189
'[14:17:56.456 18/05/1995]',-0.019,-0.008,0.001,52.187,0.195
'[14:17:56.458 18/05/1995]',0.002,0.001,0.001,52.187,0.195
'[14:17:56.460 18/05/1995]',0.002,0.001,0.001,52.187,0.195
'[14:17:56.462 18/05/1995]',0.002,0.001,0.010,52.187,0.195
'[14:17:56.464 18/05/1995]',0.002,0.009,0.020,51.936,0.201
'[14:17:56.466 18/05/1995]',0.021,0.027,0.020,51.936,0.201
'[14:17:56.468 18/05/1995]',0.042,0.044,0.020,51.936,0.201
'[14:17:56.470 18/05/1995]',0.083,0.053,0.001,51.936,0.201
'[14:17:56.472 18/05/1995]',0.103,0.070,0.001,51.786,0.204
'[14:17:56.474 18/05/1995]',0.124,0.088,0.001,51.786,0.204
'[14:17:56.476 18/05/1995]',0.144,0.088,0.001,51.786,0.204
'[14:17:56.478 18/05/1995]',0.165,0.105,0.010,51.786,0.204
'[14:17:56.480 18/05/1995]',0.165,0.114,0.020,51.536,0.204
'[14:17:56.482 18/05/1995]',0.185,0.131,0.030,51.536,0.204
'[14:17:56.484 18/05/1995]',0.206,0.140,0.040,51.536,0.204
'[14:17:56.486 18/05/1995]',0.206,0.149,0.030,51.536,0.204
'[14:17:56.488 18/05/1995]',0.226,0.157,0.030,51.386,0.202
'[14:17:56.490 18/05/1995]',0.247,0.166,0.020,51.386,0.202
'[14:17:56.492 18/05/1995]',0.247,0.166,0.020,51.386,0.202
'[14:17:56.494 18/05/1995]',0.247,0.166,0.020,51.386,0.202
'[14:17:56.496 18/05/1995]',0.247,0.166,0.040,51.235,0.198
'[14:17:56.498 18/05/1995]',0.267,0.166,0.040,51.235,0.198
'[14:17:56.500 18/05/1995]',0.247,0.166,0.040,51.235,0.198
'[14:17:56.502 18/05/1995]',0.247,0.166,0.030,51.235,0.198
'[14:17:56.504 18/05/1995]',0.267,0.166,0.030,51.135,0.190
'[14:17:56.506 18/05/1995]',0.267,0.175,0.030,51.135,0.190
'[14:17:56.508 18/05/1995]',0.287,0.175,0.020,51.135,0.190
'[14:17:56.510 18/05/1995]',0.287,0.175,0.020,51.135,0.190
'[14:17:56.512 18/05/1995]',0.287,0.166,0.030,51.035,0.179
'[14:17:56.514 18/05/1995]',0.287,0.166,0.030,51.035,0.179
'[14:17:56.516 18/05/1995]',0.287,0.166,0.040,51.035,0.179
'[14:17:56.518 18/05/1995]',0.267,0.166,0.030,51.035,0.179
'[14:17:56.520 18/05/1995]',0.287,0.175,0.030,51.035,0.166
'[14:17:56.522 18/05/1995]',0.307,0.184,0.020,51.035,0.166
'[14:17:56.524 18/05/1995]',0.307,0.184,0.010,51.035,0.166
'[14:17:56.526 18/05/1995]',0.327,0.184,0.020,51.035,0.166
'[14:17:56.528 18/05/1995]',0.307,0.184,0.020,51.035,0.149
'[14:17:56.530 18/05/1995]',0.307,0.175,0.030,51.035,0.149
'[14:17:56.532 18/05/1995]',0.307,0.184,0.030,51.035,0.149
'[14:17:56.534 18/05/1995]',0.307,0.184,0.030,51.035,0.149
'[14:17:56.536 18/05/1995]',0.307,0.184,0.030,51.135,0.131
'[14:17:56.538 18/05/1995]',0.307,0.192,0.020,51.135,0.131
'[14:17:56.540 18/05/1995]',0.307,0.192,0.020,51.135,0.131
'[14:17:56.542 18/05/1995]',0.327,0.192,0.020,51.135,0.131
'[14:17:56.544 18/05/1995]',0.327,0.192,0.020,51.386,0.112
'[14:17:56.546 18/05/1995]',0.327,0.192,0.030,51.386,0.112
'[14:17:56.548 18/05/1995]',0.327,0.184,0.030,51.386,0.112
'[14:17:56.550 18/05/1995]',0.307,0.175,0.040,51.386,0.112
'[14:17:56.552 18/05/1995]',0.307,0.175,0.030,51.886,0.090
'[14:17:56.554 18/05/1995]',0.327,0.184,0.020,51.886,0.090
'[14:17:56.556 18/05/1995]',0.327,0.184,0.020,51.886,0.090
'[14:17:56.558 18/05/1995]',0.327,0.175,0.020,51.886,0.090
'[14:17:56.560 18/05/1995]',0.327,0.184,0.020,52.938,0.069
'[14:17:56.562 18/05/1995]',0.307,0.184,0.030,52.938,0.069
'[14:17:56.564 18/05/1995]',0.307,0.175,0.040,52.938,0.069
'[14:17:56.566 18/05/1995]',0.287,0.175,0.040,52.938,0.069
'[14:17:56.568 18/05/1995]',0.287,0.175,0.040,54.791,0.047
'[14:17:56.570 18/05/1995]',0.287,0.175,0.030,54.791,0.047
'[14:17:56.572 18/05/1995]',0.307,0.184,0.030,54.791,0.047
'[14:17:56.574 18/05/1995]',0.307,0.175,0.020,54.791,0.047
'[14:17:56.576 18/05/1995]',0.307,0.184,0.020,57.396,0.026
'[14:17:56.578 18/05/1995]',0.307,0.175,0.030,57.396,0.026
'[14:17:56.580 18/05/1995]',0.307,0.175,0.040,57.396,0.026
'[14:17:56.582 18/05/1995]',0.287,0.166,0.040,57.396,0.026
'[14:17:56.584 18/05/1995]',0.287,0.175,0.040,61.002,0.007
'[14:17:56.586 18/05/1995]',0.287,0.166,0.040,61.002,0.007
'[14:17:56.588 18/05/1995]',0.287,0.175,0.030,61.002,0.007
'[14:17:56.590 18/05/1995]',0.287,0.175,0.040,61.002,0.007
'[14:17:56.592 18/05/1995]',0.287,0.175,0.040,65.509,-0.011
'[14:17:56.594 18/05/1995]',0.287,0.175,0.040,65.509,-0.011
'[14:17:56.596 18/05/1995]',0.267,0.184,0.049,65.509,-0.011
'[14:17:56.598 18/05/1995]',0.267,0.175,0.049,65.509,-0.011
'[14:17:56.600 18/05/1995]',0.247,0.166,0.049,70.718,-0.028
'[14:17:56.602 18/05/1995]',0.247,0.166,0.049,70.718,-0.028
'[14:17:56.604 18/05/1995]',0.267,0.166,0.040,70.718,-0.028
'[14:17:56.606 18/05/1995]',0.267,0.166,0.040,70.718,-0.028
'[14:17:56.608 18/05/1995]',0.267,0.166,0.040,76.477,-0.043
'[14:17:56.610 18/05/1995]',0.267,0.175,0.040,76.477,-0.043
'[14:17:56.612 18/05/1995]',0.247,0.175,0.049,76.477,-0.043
'[14:17:56.614 18/05/1995]',0.226,0.175,0.059,76.477,-0.043
'[14:17:56.616 18/05/1995]',0.226,0.175,0.059,82.437,-0.058
'[14:17:56.618 18/05/1995]',0.226,0.157,0.049,82.437,-0.058
'[14:17:56.620 18/05/1995]',0.206,0.157,0.049,82.437,-0.058
'[14:17:56.622 18/05/1995]',0.206,0.166,0.040,82.437,-0.058
'[14:17:56.624 18/05/1995]',0.206,0.166,0.040,88.347,-0.071
'[14:17:56.626 18/05/1995]',0.226,0.157,0.040,88.347,-0.071
'[14:17:56.628 18/05/1995]',0.206,0.149,0.040,88.347,-0.071
'[14:17:56.630 18/05/1995]',0.206,0.140,0.040,88.347,-0.071
'[14:17:56.632 18/05/1995]',0.185,0.131,0.049,93.856,-0.085
'[14:17:56.634 18/05/1995]',0.185,0.131,0.040,93.856,-0.085
'[14:17:56.636 18/05/1995]',0.165,0.131,0.040,93.856,-0.085
'[14:17:56.638 18/05/1995]',0.185,0.140,0.030,93.856,-0.085
'[14:17:56.640 18/05/1995]',0.165,0.131,0.030,98.664,-0.097
'[14:17:56.642 18/05/1995]',0.165,0.131,0.030,98.664,-0.097
'[14:17:56.644 18/05/1995]',0.165,0.131,0.030,98.664,-0.097
'[14:17:56.646 18/05/1995]',0.165,0.123,0.040,98.664,-0.097
'[14:17:56.648 18/05/1995]',0.165,0.123,0.040,102.571,-0.109
'[14:17:56.650 18/05/1995]',0.144,0.114,0.040,102.571,-0.109
'[14:17:56.652 18/05/1995]',0.144,0.105,0.030,102.571,-0.109
'[14:17:56.654 18/05/1995]',0.124,0.105,0.020,102.571,-0.109
'[14:17:56.656 18/05/1995]',0.144,0.105,0.020,105.426,-0.120
'[14:17:56.658 18/05/1995]',0.144,0.097,0.020,105.426,-0.120
'[14:17:56.660 18/05/1995]',0.144,0.097,0.020,105.426,-0.120
'[14:17:56.662 18/05/1995]',0.144,0.097,0.020,105.426,-0.120
'[14:17:56.664 18/05/1995]',0.124,0.088,0.030,107.178,-0.132
'[14:17:56.666 18/05/1995]',0.103,0.079,0.030,107.178,-0.132
'[14:17:56.668 18/05/1995]',0.103,0.079,0.030,107.178,-0.132
'[14:17:56.670 18/05/1995]',0.103,0.088,0.030,107.178,-0.132
'[14:17:56.672 18/05/1995]',0.103,0.079,0.020,108.030,-0.143
'[14:17:56.674 18/05/1995]',0.103,0.070,0.010,108.030,-0.143
'[14:17:56.676 18/05/1995]',0.103,0.062,0.010,108.030,-0.143
'[14:17:56.678 18/05/1995]',0.083,0.053,0.010,108.030,-0.143
'[14:17:56.680 18/05/1995]',0.083,0.062,0.020,107.830,-0.154
'[14:17:56.682 18/05/1995]',0.062,0.053,0.020,107.830,-0.154
'[14:17:56.684 18/05/1995]',0.062,0.044,0.020,107.830,-0.154
'[14:17:56.686 18/05/1995]',0.042,0.044,0.010,107.830,-0.154
'[14:17:56.688 18/05/1995]',0.042,0.053,0.020,106.778,-0.165
'[14:17:56.690 18/05/1995]',0.042,0.044,0.010,106.778,-0.165
'[14:17:56.692 18/05/1995]',0.042,0.044,0.010,106.778,-0.165
'[14:17:56.694 18/05/1995]',0.042,0.044,0.010,106.778,-0.165
'[14:17:56.696 18/05/1995]',0.021,0.044,0.030,104.875,-0.176
'[14:17:56.698 18/05/1995]',0.002,0.044,0.030,104.875,-0.176
'[14:17:56.700 18/05/1995]',0.002,0.035,0.030,104.875,-0.176
'[14:17:56.702 18/05/1995]',0.002,0.027,0.020,104.875,-0.176
'[14:17:56.704 18/05/1995]',0.002,0.035,0.020,102.320,-0.188
'[14:17:56.706 18/05/1995]',0.002,0.027,0.010,102.320,-0.188
'[14:17:56.708 18/05/1995]',0.002,0.027,0.001,102.320,-0.188
'[14:17:56.710 18/05/1995]',0.002,0.018,0.001,102.320,-0.188
'[14:17:56.712 18/05/1995]',0.002,0.018,0.010,99.215,-0.200
'[14:17:56.714 18/05/1995]',0.002,0.009,0.020,99.215,-0.200
'[14:17:56.716 18/05/1995]',0.002,0.018,0.020,99.215,-0.200
'[14:17:56.718 18/05/1995]',0.002,0.018,0.020,99.215,-0.200
'[14:17:56.720 18/05/1995]',0.002,0.018,0.010,95.659,-0.211
'[14:17:56.722 18/05/1995]',0.002,0.027,0.010,95.659,-0.211
'[14:17:56.724 18/05/1995]',0.002,0.018,0.001,95.659,-0.211
'[14:17:56.726 18/05/1995]',0.002,0.018,0.020,95.659,-0.211
'[14:17:56.728 18/05/1995]',0.002,0.018,0.010,91.903,-0.223
'[14:17:56.730 18/05/1995]',0.002,0.018,0.020,91.903,-0.223
'[14:17:56.732 18/05/1995]',0.002,0.018,0.020,91.903,-0.223
'[14:17:56.734 18/05/1995]',0.002,0.018,0.020,91.903,-0.223
'[14:17:56.736 18/05/1995]',0.002,0.009,0.010,88.097,-0.234
'[14:17:56.738 18/05/1995]',0.002,0.009,0.001,88.097,-0.234
'[14:17:56.740 18/05/1995]',0.002,0.009,0.001,88.097,-0.234
'[14:17:56.742 18/05/1995]',0.002,0.001,0.001,88.097,-0.234
'[14:17:56.744 18/05/1995]',0.002,0.009,0.010,84.340,-0.246
'[14:17:56.746 18/05/1995]',0.002,0.018,0.020,84.340,-0.246
'[14:17:56.748 18/05/1995]',0.002,0.001,0.010,84.340,-0.246
'[14:17:56.750 18/05/1995]',0.002,0.001,0.010,84.340,-0.246
'[14:17:56.752 18/05/1995]',0.002,0.001,0.010,80.835,-0.258
'[14:17:56.754 18/05/1995]',0.002,0.001,0.001,80.835,-0.258
'[14:17:56.756 18/05/1995]',0.002,0.009,0.001,80.835,-0.258
'[14:17:56.758 18/05/1995]',0.002,0.009,0.001,80.835,-0.258
'[14:17:56.760 18/05/1995]',0.002,0.009,0.001,77.729,-0.269
'[14:17:56.762 18/05/1995]',0.002,0.009,0.010,77.729,-0.269
'[14:17:56.764 18/05/1995]',0.002,0.009,0.010,77.729,-0.269
'[14:17:56.766 18/05/1995]',0.002,0.001,0.010,77.729,-0.269
'[14:17:56.768 18/05/1995]',0.002,0.009,0.020,74.975,-0.281
'[14:17:56.770 18/05/1995]',0.002,0.009,0.001,74.975,-0.281
'[14:17:56.772 18/05/1995]',0.002,0.009,0.001,74.975,-0.281
'[14:17:56.774 18/05/1995]',0.002,0.009,0.001,74.975,-0.281
'[14:17:56.776 18/05/1995]',0.002,0.009,0.001,72.671,-0.292
'[14:17:56.778 18/05/1995]',0.002,0.001,0.001,72.671,-0.292
'[14:17:56.780 18/05/1995]',-0.019,0.001,0.001,72.671,-0.292
'[14:17:56.782 18/05/1995]',-0.019,0.001,0.010,72.671,-0.292
'[14:17:56.784 18/05/1995]',-0.019,0.001,0.010,70.818,-0.303
'[14:17:56.786 18/05/1995]',-0.039,-0.008,0.001,70.818,-0.303
'[14:17:56.788 18/05/1995]',-0.039,0.001,0.001,70.818,-0.303
'[14:17:56.790 18/05/1995]',-0.019,0.001,0.001,70.818,-0.303
'[14:17:56.792 18/05/1995]',-0.039,0.001,0.001,69.265,-0.315
'[14:17:56.794 18/05/1995]',-0.039,0.001,0.010,69.265,-0.315
'[14:17:56.796 18/05/1995]',-0.039,-0.008,0.010,69.265,-0.315
'[14:17:56.798 18/05/1995]',-0.060,-0.017,0.010,69.265,-0.315
'[14:17:56.800 18/05/1995]',-0.100,-0.017,0.020,68.113,-0.326
'[14:17:56.802 18/05/1995]',-0.100,-0.025,0.010,68.113,-0.326
'[14:17:56.804 18/05/1995]',-0.121,-0.043,0.001,68.113,-0.326
'[14:17:56.806 18/05/1995]',-0.121,-0.052,0.001,68.113,-0.326
'[14:17:56.808 18/05/1995]',-0.141,-0.069,-0.009,67.212,-0.337
'[14:17:56.810 18/05/1995]',-0.162,-0.087,0.001,67.212,-0.337
'[14:17:56.812 18/05/1995]',-0.203,-0.104,-0.019,67.212,-0.337
'[14:17:56.814 18/05/1995]',-0.223,-0.130,-0.019,67.212,-0.337
'[14:17:56.816 18/05/1995]',-0.244,-0.130,-0.019,66.561,-0.347
'[14:17:56.818 18/05/1995]',-0.264,-0.130,-0.019,66.561,-0.347
'[14:17:56.820 18/05/1995]',-0.304,-0.130,-0.009,66.561,-0.347
'[14:17:56.822 18/05/1995]',-0.325,-0.139,-0.019,66.561,-0.347
'[14:17:56.824 18/05/1995]',-0.366,-0.148,-0.019,66.160,-0.357
'[14:17:56.826 18/05/1995]',-0.407,-0.156,-0.009,66.160,-0.357
'[14:17:56.828 18/05/1995]',-0.447,-0.183,0.001,66.160,-0.357
'[14:17:56.830 18/05/1995]',-0.488,-0.209,-0.009,66.160,-0.357
'[14:17:56.832 18/05/1995]',-0.529,-0.252,-0.028,65.860,-0.367
'[14:17:56.834 18/05/1995]',-0.550,-0.278,-0.038,65.860,-0.367
'[14:17:56.836 18/05/1995]',-0.570,-0.313,-0.058,65.860,-0.367
'[14:17:56.838 18/05/1995]',-0.570,-0.331,-0.077,65.860,-0.367
'[14:17:56.840 18/05/1995]',-0.570,-0.348,-0.077,65.759,-0.377
'[14:17:56.842 18/05/1995]',-0.570,-0.357,-0.087,65.759,-0.377
'[14:17:56.844 18/05/1995]',-0.590,-0.374,-0.077,65.759,-0.377
'[14:17:56.846 18/05/1995]',-0.610,-0.383,-0.077,65.759,-0.377
'[14:17:56.848 18/05/1995]',-0.631,-0.383,-0.058,65.759,-0.386
'[14:17:56.850 18/05/1995]',-0.651,-0.392,-0.048,65.759,-0.386
'[14:17:56.852 18/05/1995]',-0.651,-0.374,-0.038,65.759,-0.386
'[14:17:56.854 18/05/1995]',-0.651,-0.366,-0.038,65.759,-0.386
'[14:17:56.856 18/05/1995]',-0.672,-0.374,-0.038,65.810,-0.395
'[14:17:56.858 18/05/1995]',-0.672,-0.366,-0.038,65.810,-0.395
'[14:17:56.860 18/05/1995]',-0.692,-0.366,-0.019,65.810,-0.395
'[14:17:56.862 18/05/1995]',-0.713,-0.374,-0.009,65.810,-0.395
'[14:17:56.864 18/05/1995]',-0.733,-0.366,0.001,65.910,-0.404
'[14:17:56.866 18/05/1995]',-0.733,-0.357,0.001,65.910,-0.404
'[14:17:56.868 18/05/1995]',-0.753,-0.348,0.001,65.910,-0.404
'[14:17:56.870 18/05/1995]',-0.753,-0.331,0.010,65.910,-0.404
'[14:17:56.872 18/05/1995]',-0.733,-0.313,0.010,66.110,-0.412
'[14:17:56.874 18/05/1995]',-0.733,-0.313,0.020,66.110,-0.412
'[14:17:56.876 18/05/1995]',-0.733,-0.305,0.030,66.110,-0.412
'[14:17:56.878 18/05/1995]',-0.713,-0.296,0.030,66.110,-0.412
'[14:17:56.880 18/05/1995]',-0.713,-0.287,0.040,66.210,-0.422
'[14:17:56.882 18/05/1995]',-0.692,-0.278,0.040,66.210,-0.422
'[14:17:56.884 18/05/1995]',-0.672,-0.270,0.040,66.210,-0.422
'[14:17:56.886 18/05/1995]',-0.631,-0.261,0.030,66.210,-0.422
'[14:17:56.888 18/05/1995]',-0.590,-0.235,0.030,66.411,-0.431
'[14:17:56.890 18/05/1995]',-0.550,-0.217,0.020,66.411,-0.431
'[14:17:56.892 18/05/1995]',-0.488,-0.200,0.020,66.411,-0.431
'[14:17:56.894 18/05/1995]',-0.447,-0.174,0.020,66.411,-0.431
'[14:17:56.896 18/05/1995]',-0.407,-0.156,0.020,66.511,-0.440
'[14:17:56.898 18/05/1995]',-0.366,-0.139,0.020,66.511,-0.440
'[14:17:56.900 18/05/1995]',-0.325,-0.122,0.030,66.511,-0.440
'[14:17:56.902 18/05/1995]',-0.285,-0.104,0.010,66.511,-0.440
'[14:17:56.904 18/05/1995]',-0.244,-0.087,0.010,66.611,-0.448
'[14:17:56.906 18/05/1995]',-0.203,-0.060,0.010,66.611,-0.448
'[14:17:56.908 18/05/1995]',-0.182,-0.043,0.010,66.611,-0.448
'[14:17:56.910 18/05/1995]',-0.162,-0.043,0.010,66.611,-0.448
'[14:17:56.912 18/05/1995]',-0.141,-0.034,0.020,66.711,-0.456
'[14:17:56.914 18/05/1995]',-0.141,-0.025,0.020,66.711,-0.456
'[14:17:56.916 18/05/1995]',-0.141,-0.017,0.020,66.711,-0.456
'[14:17:56.918 18/05/1995]',-0.121,-0.017,0.030,66.711,-0.456
'[14:17:56.920 18/05/1995]',-0.100,0.001,0.030,66.711,-0.464
'[14:17:56.922 18/05/1995]',-0.060,0.009,0.020,66.711,-0.464
'[14:17:56.924 18/05/1995]',-0.039,0.027,0.010,66.711,-0.464
'[14:17:56.926 18/05/1995]',0.002,0.035,0.010,66.711,-0.464
'[14:17:56.928 18/05/1995]',0.002,0.044,0.010,66.711,-0.472
'[14:17:56.930 18/05/1995]',0.021,0.053,0.020,66.711,-0.472
'[14:17:56.932 18/05/1995]',0.042,0.070,0.020,66.711,-0.472
'[14:17:56.934 18/05/1995]',0.042,0.088,0.030,66.711,-0.472
'[14:17:56.936 18/05/1995]',0.062,0.097,0.020,66.611,-0.480
'[14:17:56.938 18/05/1995]',0.103,0.114,0.020,66.611,-0.480
'[14:17:56.940 18/05/1995]',0.103,0.123,0.020,66.611,-0.480
'[14:17:56.942 18/05/1995]',0.144,0.131,0.020,66.611,-0.480
'[14:17:56.944 18/05/1995]',0.144,0.131,0.020,66.511,-0.488
'[14:17:56.946 18/05/1995]',0.144,0.131,0.030,66.511,-0.488
'[14:17:56.948 18/05/1995]',0.144,0.131,0.040,66.511,-0.488
'[14:17:56.950 18/05/1995]',0.144,0.131,0.040,66.511,-0.488
'[14:17:56.952 18/05/1995]',0.165,0.140,0.040,66.411,-0.495
'[14:17:56.954 18/05/1995]',0.165,0.131,0.030,66.411,-0.495
'[14:17:56.956 18/05/1995]',0.165,0.140,0.030,66.411,-0.495
'[14:17:56.958 18/05/1995]',0.185,0.140,0.020,66.411,-0.495
'[14:17:56.960 18/05/1995]',0.185,0.149,0.030,66.260,-0.503
'[14:17:56.962 18/05/1995]',0.185,0.149,0.030,66.260,-0.503
'[14:17:56.964 18/05/1995]',0.165,0.140,0.030,66.260,-0.503
'[14:17:56.966 18/05/1995]',0.165,0.140,0.030,66.260,-0.503
'[14:17:56.968 18/05/1995]',0.165,0.140,0.030,66.110,-0.510
'[14:17:56.970 18/05/1995]',0.185,0.149,0.020,66.110,-0.510
'[14:17:56.972 18/05/1995]',0.185,0.140,0.010,66.110,-0.510
'[14:17:56.974 18/05/1995]',0.206,0.140,0.010,66.110,-0.510
'[14:17:56.976 18/05/1995]',0.206,0.140,0.010,65.960,-0.518
'[14:17:56.978 18/05/1995]',0.206,0.140,0.020,65.960,-0.518
'[14:17:56.980 18/05/1995]',0.206,0.140,0.030,65.960,-0.518
'[14:17:56.982 18/05/1995]',0.206,0.140,0.030,65.960,-0.518
'[14:17:56.984 18/05/1995]',0.206,0.140,0.030,65.810,-0.525
'[14:17:56.986 18/05/1995]',0.206,0.149,0.020,65.810,-0.525
'[14:17:56.988 18/05/1995]',0.226,0.149,0.010,65.810,-0.525
'[14:17:56.990 18/05/1995]',0.226,0.157,0.010,65.810,-0.525
'[14:17:56.992 18/05/1995]',0.247,0.149,0.010,65.609,-0.533
'[14:17:56.994 18/05/1995]',0.247,0.149,0.001,65.609,-0.533
'[14:17:56.996 18/05/1995]',0.247,0.140,0.010,65.609,-0.533
'[14:17:56.998 18/05/1995]',0.247,0.140,0.010,65.609,-0.533
'[14:17:57.000 18/05/1995]',0.247,0.140,0.010,65.409,-0.540
'[14:17:57.002 18/05/1995]',0.267,0.140,0.010,65.409,-0.540
'[14:17:57.004 18/05/1995]',0.267,0.140,0.010,65.409,-0.540
'[14:17:57.006 18/05/1995]',0.267,0.149,0.010,65.409,-0.540
'[14:17:57.008 18/05/1995]',0.267,0.149,0.001,65.158,-0.547
'[14:17:57.010 18/05/1995]',0.267,0.140,0.001,65.158,-0.547
'[14:17:57.012 18/05/1995]',0.267,0.149,0.010,65.158,-0.547
'[14:17:57.014 18/05/1995]',0.267,0.140,0.010,65.158,-0.547
'[14:17:57.016 18/05/1995]',0.267,0.140,0.010,64.908,-0.554
'[14:17:57.018 18/05/1995]',0.267,0.140,0.010,64.908,-0.554
'[14:17:57.020 18/05/1995]',0.267,0.131,0.001,64.908,-0.554
'[14:17:57.022 18/05/1995]',0.267,0.140,0.001,64.908,-0.554
'[14:17:57.024 18/05/1995]',0.287,0.140,0.001,64.658,-0.560
'[14:17:57.026 18/05/1995]',0.287,0.140,0.001,64.658,-0.560
'[14:17:57.028 18/05/1995]',0.267,0.140,0.001,64.658,-0.560
'[14:17:57.030 18/05/1995]',0.267,0.131,0.010,64.658,-0.560
'[14:17:57.032 18/05/1995]',0.247,0.131,0.010,64.407,-0.567
'[14:17:57.034 18/05/1995]',0.247,0.131,0.010,64.407,-0.567
'[14:17:57.036 18/05/1995]',0.247,0.131,0.001,64.407,-0.567
'[14:17:57.038 18/05/1995]',0.247,0.131,0.001,64.407,-0.567
'[14:17:57.040 18/05/1995]',0.267,0.131,0.001,64.057,-0.573
'[14:17:57.042 18/05/1995]',0.267,0.131,0.001,64.057,-0.573
'[14:17:57.044 18/05/1995]',0.267,0.131,0.001,64.057,-0.573
'[14:17:57.046 18/05/1995]',0.267,0.131,0.010,64.057,-0.573
'[14:17:57.048 18/05/1995]',0.247,0.131,0.010,63.706,-0.579
'[14:17:57.050 18/05/1995]',0.247,0.131,0.010,63.706,-0.579
'[14:17:57.052 18/05/1995]',0.247,0.131,0.001,63.706,-0.579
'[14:17:57.054 18/05/1995]',0.226,0.131,0.001,63.706,-0.579
'[14:17:57.056 18/05/1995]',0.247,0.131,0.001,63.355,-0.585
'[14:17:57.058 18/05/1995]',0.247,0.131,0.001,63.355,-0.585
'[14:17:57.060 18/05/1995]',0.247,0.123,0.001,63.355,-0.585
'[14:17:57.062 18/05/1995]',0.226,0.123,0.001,63.355,-0.585
'[14:17:57.064 18/05/1995]',0.226,0.123,0.010,63.055,-0.590
'[14:17:57.066 18/05/1995]',0.206,0.114,0.010,63.055,-0.590
'[14:17:57.068 18/05/1995]',0.206,0.114,0.010,63.055,-0.590
'[14:17:57.070 18/05/1995]',0.185,0.114,0.001,63.055,-0.590
'[14:17:57.072 18/05/1995]',0.206,0.114,0.001,62.955,-0.596
'[14:17:57.074 18/05/1995]',0.206,0.105,0.001,62.955,-0.596
'[14:17:57.076 18/05/1995]',0.206,0.114,0.001,62.955,-0.596
'[14:17:57.078 18/05/1995]',0.185,0.105,0.001,62.955,-0.596
'[14:17:57.080 18/05/1995]',0.185,0.097,0.010,63.055,-0.601
'[14:17:57.082 18/05/1995]',0.185,0.097,0.010,63.055,-0.601
'[14:17:57.084 18/05/1995]',0.185,0.088,0.001,63.055,-0.601
'[14:17:57.086 18/05/1995]',0.165,0.079,0.001,63.055,-0.601
'[14:17:57.088 18/05/1995]',0.165,0.079,0.001,63.355,-0.605
'[14:17:57.090 18/05/1995]',0.165,0.070,0.001,63.355,-0.605
'[14:17:57.092 18/05/1995]',0.165,0.079,0.001,63.355,-0.605
'[14:17:57.094 18/05/1995]',0.144,0.070,0.001,63.355,-0.605
'[14:17:57.096 18/05/1995]',0.124,0.079,0.010,63.806,-0.608
'[14:17:57.098 18/05/1995]',0.124,0.062,0.010,63.806,-0.608
'[14:17:57.100 18/05/1995]',0.103,0.053,0.010,63.806,-0.608
'[14:17:57.102 18/05/1995]',0.083,0.053,0.010,63.806,-0.608
'[14:17:57.104 18/05/1995]',0.083,0.035,0.001,64.507,-0.612
'[14:17:57.106 18/05/1995]',0.083,0.044,0.001,64.507,-0.612
'[14:17:57.108 18/05/1995]',0.083,0.044,0.001,64.507,-0.612
'[14:17:57.110 18/05/1995]',0.083,0.044,0.001,64.507,-0.612
'[14:17:57.112 18/05/1995]',0.083,0.044,0.001,65.359,-0.614
'[14:17:57.114 18/05/1995]',0.062,0.044,0.010,65.359,-0.614
'[14:17:57.116 18/05/1995]',0.042,0.044,0.020,65.359,-0.614
'[14:17:57.118 18/05/1995]',0.042,0.044,0.020,65.359,-0.614
'[14:17:57.120 18/05/1995]',0.042,0.044,0.010,66.160,-0.616
'[14:17:57.122 18/05/1995]',0.042,0.044,0.001,66.160,-0.616
'[14:17:57.124 18/05/1995]',0.042,0.044,0.010,66.160,-0.616
'[14:17:57.126 18/05/1995]',0.042,0.044,0.010,66.160,-0.616
'[14:17:57.128 18/05/1995]',0.042,0.044,0.020,66.961,-0.617
'[14:17:57.130 18/05/1995]',0.042,0.035,0.020,66.961,-0.617
'[14:17:57.132 18/05/1995]',0.021,0.035,0.020,66.961,-0.617
'[14:17:57.134 18/05/1995]',0.021,0.035,0.020,66.961,-0.617
'[14:17:57.136 18/05/1995]',0.021,0.035,0.020,67.613,-0.618
'[14:17:57.138 18/05/1995]',0.021,0.035,0.010,67.613,-0.618
'[14:17:57.140 18/05/1995]',0.021,0.035,0.010,67.613,-0.618
'[14:17:57.142 18/05/1995]',0.002,0.035,0.010,67.613,-0.618
'[14:17:57.144 18/05/1995]',0.002,0.027,0.010,68.113,-0.618
'[14:17:57.146 18/05/1995]',0.002,0.018,0.020,68.113,-0.618
'[14:17:57.148 18/05/1995]',0.002,0.027,0.020,68.113,-0.618
'[14:17:57.150 18/05/1995]',0.002,0.027,0.020,68.113,-0.618
'[14:17:57.152 18/05/1995]',0.002,0.018,0.020,68.314,-0.619
'[14:17:57.154 18/05/1995]',0.002,0.027,0.010,68.314,-0.619
'[14:17:57.156 18/05/1995]',0.002,0.027,0.010,68.314,-0.619
'[14:17:57.158 18/05/1995]',0.002,0.018,0.001,68.314,-0.619
'[14:17:57.160 18/05/1995]',0.002,0.018,0.010,68.214,-0.621
'[14:17:57.162 18/05/1995]',0.002,0.018,0.020,68.214,-0.621
'[14:17:57.164 18/05/1995]',0.002,0.009,0.020,68.214,-0.621
'[14:17:57.166 18/05/1995]',-0.019,0.009,0.020,68.214,-0.621
'[14:17:57.168 18/05/1995]',-0.019,0.009,0.020,67.813,-0.622
'[14:17:57.170 18/05/1995]',-0.039,0.009,0.020,67.813,-0.622
'[14:17:57.172 18/05/1995]',-0.039,0.018,0.020,67.813,-0.622
'[14:17:57.174 18/05/1995]',-0.039,0.018,0.010,67.813,-0.622
'[14:17:57.176 18/05/1995]',-0.019,0.018,0.020,67.112,-0.624
'[14:17:57.178 18/05/1995]',-0.039,0.009,0.020,67.112,-0.624
'[14:17:57.180 18/05/1995]',-0.039,0.009,0.020,67.112,-0.624
'[14:17:57.182 18/05/1995]',-0.039,0.009,0.030,67.112,-0.624
'[14:17:57.184 18/05/1995]',-0.039,0.001,0.030,66.160,-0.626
'[14:17:57.186 18/05/1995]',-0.039,0.009,0.020,66.160,-0.626
'[14:17:57.188 18/05/1995]',-0.039,0.009,0.010,66.160,-0.626
'[14:17:57.190 18/05/1995]',-0.039,0.009,0.010,66.160,-0.626
'[14:17:57.192 18/05/1995]',-0.019,0.009,0.010,65.158,-0.628
'[14:17:57.194 18/05/1995]',-0.019,0.009,0.020,65.158,-0.628
'[14:17:57.196 18/05/1995]',-0.039,0.009,0.020,65.158,-0.628
'[14:17:57.198 18/05/1995]',-0.039,0.009,0.020,65.158,-0.628
'[14:17:57.200 18/05/1995]',-0.039,0.001,0.020,64.157,-0.631
'[14:17:57.202 18/05/1995]',-0.039,0.001,0.020,64.157,-0.631
'[14:17:57.204 18/05/1995]',-0.039,0.001,0.010,64.157,-0.631
'[14:17:57.206 18/05/1995]',-0.039,0.001,0.001,64.157,-0.631
'[14:17:57.208 18/05/1995]',-0.039,0.001,0.001,63.155,-0.633
'[14:17:57.210 18/05/1995]',-0.039,0.001,0.001,63.155,-0.633
'[14:17:57.212 18/05/1995]',-0.039,0.001,0.010,63.155,-0.633
'[14:17:57.214 18/05/1995]',-0.039,0.001,0.010,63.155,-0.633
'[14:17:57.216 18/05/1995]',-0.039,0.001,0.010,62.304,-0.636
'[14:17:57.218 18/05/1995]',-0.039,0.001,0.010,62.304,-0.636
'[14:17:57.220 18/05/1995]',-0.039,0.001,0.010,62.304,-0.636
'[14:17:57.222 18/05/1995]',-0.039,0.001,0.001,62.304,-0.636
'[14:17:57.224 18/05/1995]',-0.039,0.001,0.001,61.502,-0.638
'[14:17:57.226 18/05/1995]',-0.039,0.001,0.001,61.502,-0.638
'[14:17:57.228 18/05/1995]',-0.039,0.001,0.010,61.502,-0.638
'[14:17:57.230 18/05/1995]',-0.039,0.001,0.010,61.502,-0.638
'[14:17:57.232 18/05/1995]',-0.039,0.001,0.020,60.801,-0.640
'[14:17:57.234 18/05/1995]',-0.060,0.001,0.020,60.801,-0.640
'[14:17:57.236 18/05/1995]',-0.060,0.001,0.010,60.801,-0.640
'[14:17:57.238 18/05/1995]',-0.039,0.001,0.010,60.801,-0.640
'[14:17:57.240 18/05/1995]',-0.039,0.001,0.001,60.150,-0.642
'[14:17:57.242 18/05/1995]',-0.039,0.001,0.001,60.150,-0.642
'[14:17:57.244 18/05/1995]',-0.060,0.001,0.010,60.150,-0.642
'[14:17:57.246 18/05/1995]',-0.060,0.001,0.010,60.150,-0.642
'[14:17:57.248 18/05/1995]',-0.060,0.001,0.020,59.599,-0.644
'[14:17:57.250 18/05/1995]',-0.080,0.001,0.020,59.599,-0.644
'[14:17:57.252 18/05/1995]',-0.060,0.001,0.010,59.599,-0.644
'[14:17:57.254 18/05/1995]',-0.060,0.001,0.001,59.599,-0.644
'[14:17:57.256 18/05/1995]',-0.039,0.001,0.001,59.098,-0.646
'[14:17:57.258 18/05/1995]',-0.039,0.001,0.001,59.098,-0.646
'[14:17:57.260 18/05/1995]',-0.039,0.001,0.001,59.098,-0.646
'[14:17:57.262 18/05/1995]',-0.039,0.001,0.001,59.098,-0.646
'[14:17:57.264 18/05/1995]',-0.039,0.001,0.010,58.648,-0.647
'[14:17:57.266 18/05/1995]',-0.039,0.001,0.010,58.648,-0.647
'[14:17:57.268 18/05/1995]',-0.060,0.001,0.001,58.648,-0.647
'[14:17:57.270 18/05/1995]',-0.039,0.001,0.001,58.648,-0.647
'[14:17:57.272 18/05/1995]',-0.039,-0.008,0.001,58.297,-0.648
'[14:17:57.274 18/05/1995]',-0.019,0.001,0.001,58.297,-0.648
'[14:17:57.276 18/05/1995]',-0.019,0.001,0.001,58.297,-0.648
'[14:17:57.278 18/05/1995]',-0.019,-0.008,0.001,58.297,-0.648
'[14:17:57.280 18/05/1995]',-0.019,0.001,0.001,57.997,-0.649
'[14:17:57.282 18/05/1995]',-0.019,0.001,0.001,57.997,-0.649
'[14:17:57.284 18/05/1995]',-0.019,-0.008,0.001,57.997,-0.649
'[14:17:57.286 18/05/1995]',-0.019,0.001,0.001,57.997,-0.649
'[14:17:57.288 18/05/1995]',-0.019,0.001,0.001,57.746,-0.649
'[14:17:57.290 18/05/1995]',-0.019,0.001,0.001,57.746,-0.649
'[14:17:57.292 18/05/1995]',-0.019,0.001,0.001,57.746,-0.649
'[14:17:57.294 18/05/1995]',-0.019,0.001,0.001,57.746,-0.649
'[14:17:57.296 18/05/1995]',-0.039,-0.008,0.001,57.596,-0.650
'[14:17:57.298 18/05/1995]',-0.039,-0.008,0.001,57.596,-0.650
'[14:17:57.300 18/05/1995]',-0.039,-0.008,0.001,57.596,-0.650
'[14:17:57.302 18/05/1995]',-0.039,0.001,0.001,57.596,-0.650
'[14:17:57.304 18/05/1995]',-0.039,-0.008,0.001,57.396,-0.651
'[14:17:57.306 18/05/1995]',-0.039,-0.008,0.001,57.396,-0.651
'[14:17:57.308 18/05/1995]',-0.019,0.001,0.001,57.396,-0.651
'[14:17:57.310 18/05/1995]',-0.019,-0.008,0.001,57.396,-0.651
'[14:17:57.312 18/05/1995]',-0.039,-0.008,0.001,57.295,-0.652
'[14:17:57.314 18/05/1995]',-0.039,-0.008,0.001,57.295,-0.652
'[14:17:57.316 18/05/1995]',-0.039,-0.008,0.001,57.295,-0.652
'[14:17:57.318 18/05/1995]',-0.039,0.001,0.001,57.295,-0.652
'[14:17:57.320 18/05/1995]',-0.019,0.001,0.001,57.245,-0.655
'[14:17:57.322 18/05/1995]',-0.019,0.001,0.001,57.245,-0.655
'[14:17:57.324 18/05/1995]',-0.019,0.001,0.001,57.245,-0.655
'[14:17:57.326 18/05/1995]',-0.019,0.001,0.001,57.245,-0.655
'[14:17:57.328 18/05/1995]',-0.019,0.001,0.001,57.145,-0.658
'[14:17:57.330 18/05/1995]',-0.039,0.001,0.001,57.145,-0.658
'[14:17:57.332 18/05/1995]',-0.039,0.001,0.001,57.145,-0.658
'[14:17:57.334 18/05/1995]',-0.039,-0.008,0.001,57.145,-0.658
'[14:17:57.336 18/05/1995]',-0.039,0.001,0.001,57.045,-0.661
'[14:17:57.338 18/05/1995]',-0.039,0.001,0.001,57.045,-0.661
'[14:17:57.340 18/05/1995]',-0.039,0.001,0.001,57.045,-0.661
'[14:17:57.342 18/05/1995]',-0.019,-0.008,0.001,57.045,-0.661
'[14:17:57.344 18/05/1995]',-0.039,-0.008,0.001,56.995,-0.663
'[14:17:57.346 18/05/1995]',-0.019,-0.008,0.001,56.995,-0.663
'[14:17:57.348 18/05/1995]',-0.039,-0.017,0.001,56.995,-0.663
'[14:17:57.350 18/05/1995]',-0.039,-0.008,0.001,56.995,-0.663
'[14:17:57.352 18/05/1995]',-0.039,-0.017,0.001,56.945,-0.665
'[14:17:57.354 18/05/1995]',-0.039,-0.017,0.001,56.945,-0.665
'[14:17:57.356 18/05/1995]',-0.039,-0.008,0.001,56.945,-0.665
'[14:17:57.358 18/05/1995]',-0.019,-0.008,0.001,56.945,-0.665
'[14:17:57.360 18/05/1995]',-0.019,-0.017,0.001,56.945,-0.666
'[14:17:57.362 18/05/1995]',-0.039,-0.017,0.001,56.945,-0.666
'[14:17:57.364 18/05/1995]',-0.039,-0.017,0.001,56.945,-0.666
'[14:17:57.366 18/05/1995]',-0.039,-0.017,0.001,56.945,-0.666
'[14:17:57.368 18/05/1995]',-0.060,-0.017,0.001,56.945,-0.667
'[14:17:57.370 18/05/1995]',-0.060,-0.017,0.001,56.945,-0.667
'[14:17:57.372 18/05/1995]',-0.039,-0.017,0.001,56.945,-0.667
'[14:17:57.374 18/05/1995]',-0.039,-0.008,0.001,56.945,-0.667
'[14:17:57.376 18/05/1995]',-0.060,-0.017,0.001,56.945,-0.668
'[14:17:57.378 18/05/1995]',-0.039,-0.017,0.001,56.945,-0.668
'[14:17:57.380 18/05/1995]',-0.039,-0.008,0.010,56.945,-0.668
'[14:17:57.382 18/05/1995]',-0.039,-0.008,0.010,56.945,-0.668
'[14:17:57.384 18/05/1995]',-0.039,-0.008,0.001,56.945,-0.669
'[14:17:57.386 18/05/1995]',-0.039,-0.008,0.001,56.945,-0.669
'[14:17:57.388 18/05/1995]',-0.039,-0.008,0.001,56.945,-0.669
'[14:17:57.390 18/05/1995]',-0.039,0.001,0.001,56.945,-0.669
'[14:17:57.392 18/05/1995]',-0.019,0.001,0.001,56.945,-0.670
'[14:17:57.394 18/05/1995]',-0.019,0.001,0.001,56.945,-0.670
'[14:17:57.396 18/05/1995]',-0.019,0.001,0.001,56.945,-0.670
'[14:17:57.398 18/05/1995]',-0.019,0.001,0.001,56.945,-0.670
'[14:17:57.400 18/05/1995]',-0.019,0.001,0.001,56.945,-0.671
'[14:17:57.402 18/05/1995]',-0.019,0.001,0.001,56.945,-0.671
'[14:17:57.404 18/05/1995]',-0.019,-0.008,0.001,56.945,-0.671
'[14:17:57.406 18/05/1995]',0.002,-0.017,-0.009,56.945,-0.671
'[14:17:57.408 18/05/1995]',-0.019,-0.017,0.001,56.895,-0.671
'[14:17:57.410 18/05/1995]',-0.019,-0.017,0.001,56.895,-0.671
'[14:17:57.412 18/05/1995]',-0.019,-0.017,0.001,56.895,-0.671
'[14:17:57.414 18/05/1995]',-0.039,-0.017,0.001,56.895,-0.671
'[14:17:57.416 18/05/1995]',-0.039,-0.017,0.001,56.895,-0.672
'[14:17:57.418 18/05/1995]',-0.039,-0.025,0.001,56.895,-0.672
'[14:17:57.420 18/05/1995]',-0.039,-0.017,0.001,56.895,-0.672
'[14:17:57.422 18/05/1995]',-0.039,-0.017,-0.009,56.895,-0.672
'[14:17:57.424 18/05/1995]',-0.039,-0.017,-0.009,56.795,-0.672
'[14:17:57.426 18/05/1995]',-0.060,-0.034,0.001,56.795,-0.672
'[14:17:57.428 18/05/1995]',-0.080,-0.043,0.001,56.795,-0.672
'[14:17:57.430 18/05/1995]',-0.100,-0.060,0.001,56.795,-0.672
'[14:17:57.432 18/05/1995]',-0.141,-0.078,0.001,56.694,-0.673
'[14:17:57.434 18/05/1995]',-0.162,-0.095,-0.009,56.694,-0.673
'[14:17:57.436 18/05/1995]',-0.182,-0.122,-0.028,56.694,-0.673
'[14:17:57.438 18/05/1995]',-0.203,-0.130,-0.038,56.694,-0.673
'[14:17:57.440 18/05/1995]',-0.203,-0.130,-0.038,56.594,-0.673
'[14:17:57.442 18/05/1995]',-0.223,-0.148,-0.038,56.594,-0.673
'[14:17:57.444 18/05/1995]',-0.264,-0.156,-0.038,56.594,-0.673
'[14:17:57.446 18/05/1995]',-0.304,-0.148,-0.028,56.594,-0.673
'[14:17:57.448 18/05/1995]',-0.325,-0.165,-0.028,56.394,-0.674
'[14:17:57.450 18/05/1995]',-0.366,-0.183,-0.019,56.394,-0.674
'[14:17:57.452 18/05/1995]',-0.427,-0.191,-0.019,56.394,-0.674
'[14:17:57.454 18/05/1995]',-0.447,-0.217,-0.028,56.394,-0.674
'[14:17:57.456 18/05/1995]',-0.488,-0.235,-0.038,56.294,-0.676
'[14:17:57.458 18/05/1995]',-0.509,-0.261,-0.058,56.294,-0.676
'[14:17:57.460 18/05/1995]',-0.550,-0.287,-0.058,56.294,-0.676
'[14:17:57.462 18/05/1995]',-0.570,-0.313,-0.077,56.294,-0.676
'[14:17:57.464 18/05/1995]',-0.570,-0.340,-0.077,56.143,-0.677
'[14:17:57.466 18/05/1995]',-0.570,-0.366,-0.087,56.143,-0.677
'[14:17:57.468 18/05/1995]',-0.570,-0.374,-0.097,56.143,-0.677
'[14:17:57.470 18/05/1995]',-0.590,-0.383,-0.097,56.143,-0.677
'[14:17:57.472 18/05/1995]',-0.590,-0.392,-0.097,55.993,-0.679
'[14:17:57.474 18/05/1995]',-0.610,-0.392,-0.097,55.993,-0.679
'[14:17:57.476 18/05/1995]',-0.631,-0.400,-0.087,55.993,-0.679
'[14:17:57.478 18/05/1995]',-0.631,-0.392,-0.077,55.993,-0.679
'[14:17:57.480 18/05/1995]',-0.651,-0.383,-0.058,55.893,-0.680
'[14:17:57.482 18/05/1995]',-0.651,-0.383,-0.038,55.893,-0.680
'[14:17:57.484 18/05/1995]',-0.672,-0.392,-0.038,55.893,-0.680
'[14:17:57.486 18/05/1995]',-0.692,-0.383,-0.038,55.893,-0.680
'[14:17:57.488 18/05/1995]',-0.692,-0.374,-0.038,55.793,-0.681
'[14:17:57.490 18/05/1995]',-0.713,-0.357,-0.028,55.793,-0.681
'[14:17:57.492 18/05/1995]',-0.713,-0.357,-0.019,55.793,-0.681
'[14:17:57.494 18/05/1995]',-0.713,-0.366,-0.009,55.793,-0.681
'[14:17:57.496 18/05/1995]',-0.713,-0.357,0.001,55.693,-0.682
'[14:17:57.498 18/05/1995]',-0.733,-0.357,0.001,55.693,-0.682
'[14:17:57.500 18/05/1995]',-0.753,-0.348,0.020,55.693,-0.682
'[14:17:57.502 18/05/1995]',-0.753,-0.331,0.020,55.693,-0.682
'[14:17:57.504 18/05/1995]',-0.753,-0.313,0.020,55.593,-0.683
'[14:17:57.506 18/05/1995]',-0.713,-0.305,0.010,55.593,-0.683
'[14:17:57.508 18/05/1995]',-0.672,-0.287,0.010,55.593,-0.683
'[14:17:57.510 18/05/1995]',-0.651,-0.270,0.020,55.593,-0.683
'[14:17:57.512 18/05/1995]',-0.610,-0.261,0.020,55.492,-0.684
'[14:17:57.514 18/05/1995]',-0.570,-0.261,0.020,55.492,-0.684
'[14:17:57.516 18/05/1995]',-0.529,-0.252,0.010,55.492,-0.684
'[14:17:57.518 18/05/1995]',-0.488,-0.226,0.010,55.492,-0.684
'[14:17:57.520 18/05/1995]',-0.427,-0.209,0.001,55.342,-0.684
'[14:17:57.522 18/05/1995]',-0.366,-0.174,0.001,55.342,-0.684
'[14:17:57.524 18/05/1995]',-0.325,-0.148,0.001,55.342,-0.684
'[14:17:57.526 18/05/1995]',-0.285,-0.130,0.001,55.342,-0.684
'[14:17:57.528 18/05/1995]',-0.264,-0.113,0.001,55.242,-0.685
'[14:17:57.530 18/05/1995]',-0.223,-0.095,0.001,55.242,-0.685
'[14:17:57.532 18/05/1995]',-0.203,-0.087,0.001,55.242,-0.685
'[14:17:57.534 18/05/1995]',-0.162,-0.078,0.001,55.242,-0.685
'[14:17:57.536 18/05/1995]',-0.141,-0.060,0.001,55.142,-0.685
'[14:17:57.538 18/05/1995]',-0.100,-0.043,0.001,55.142,-0.685
'[14:17:57.540 18/05/1995]',-0.100,-0.034,-0.009,55.142,-0.685
'[14:17:57.542 18/05/1995]',-0.060,-0.017,-0.009,55.142,-0.685
'[14:17:57.544 18/05/1995]',-0.060,-0.017,0.001,54.992,-0.685
'[14:17:57.546 18/05/1995]',-0.039,0.001,0.001,54.992,-0.685
'[14:17:57.548 18/05/1995]',0.002,0.001,0.001,54.992,-0.685
'[14:17:57.550 18/05/1995]',0.002,0.018,0.001,54.992,-0.685
'[14:17:57.552 18/05/1995]',0.042,0.035,0.001,54.891,-0.685
'[14:17:57.554 18/05/1995]',0.062,0.053,0.001,54.891,-0.685
'[14:17:57.556 18/05/1995]',0.083,0.070,0.001,54.891,-0.685
'[14:17:57.558 18/05/1995]',0.103,0.079,0.001,54.891,-0.685
'[14:17:57.560 18/05/1995]',0.124,0.097,0.001,54.791,-0.685
'[14:17:57.562 18/05/1995]',0.144,0.105,0.001,54.791,-0.685
'[14:17:57.564 18/05/1995]',0.165,0.123,0.020,54.791,-0.685
'[14:17:57.566 18/05/1995]',0.165,0.131,0.020,54.791,-0.685
'[14:17:57.568 18/05/1995]',0.165,0.131,0.020,54.641,-0.686
'[14:17:57.570 18/05/1995]',0.185,0.149,0.010,54.641,-0.686
'[14:17:57.572 18/05/1995]',0.185,0.140,0.010,54.641,-0.686
'[14:17:57.574 18/05/1995]',0.206,0.149,0.010,54.641,-0.686
'[14:17:57.576 18/05/1995]',0.206,0.140,0.001,54.541,-0.688
'[14:17:57.578 18/05/1995]',0.206,0.149,0.020,54.541,-0.688
'[14:17:57.580 18/05/1995]',0.206,0.149,0.020,54.541,-0.688
'[14:17:57.582 18/05/1995]',0.206,0.149,0.020,54.541,-0.688
'[14:17:57.584 18/05/1995]',0.206,0.149,0.020,54.491,-0.691
'[14:17:57.586 18/05/1995]',0.206,0.149,0.010,54.491,-0.691
'[14:17:57.588 18/05/1995]',0.226,0.157,0.010,54.491,-0.691
'[14:17:57.590 18/05/1995]',0.247,0.157,0.001,54.491,-0.691
'[14:17:57.592 18/05/1995]',0.247,0.166,0.001,54.491,-0.694
'[14:17:57.594 18/05/1995]',0.267,0.166,0.001,54.491,-0.694
'[14:17:57.596 18/05/1995]',0.247,0.157,0.001,54.491,-0.694
'[14:17:57.598 18/05/1995]',0.267,0.149,0.001,54.491,-0.694
'[14:17:57.600 18/05/1995]',0.247,0.149,0.010,54.541,-0.698
'[14:17:57.602 18/05/1995]',0.247,0.157,0.010,54.541,-0.698
'[14:17:57.604 18/05/1995]',0.247,0.157,0.001,54.541,-0.698
'[14:17:57.606 18/05/1995]',0.267,0.166,0.001,54.541,-0.698
'[14:17:57.608 18/05/1995]',0.287,0.166,0.001,54.691,-0.703
'[14:17:57.610 18/05/1995]',0.287,0.166,0.001,54.691,-0.703
'[14:17:57.612 18/05/1995]',0.287,0.166,0.010,54.691,-0.703
'[14:17:57.614 18/05/1995]',0.267,0.157,0.010,54.691,-0.703
'[14:17:57.616 18/05/1995]',0.267,0.157,0.010,55.092,-0.708
'[14:17:57.618 18/05/1995]',0.267,0.149,0.001,55.092,-0.708
'[14:17:57.620 18/05/1995]',0.267,0.149,0.001,55.092,-0.708
'[14:17:57.622 18/05/1995]',0.287,0.157,0.001,55.092,-0.708
'[14:17:57.624 18/05/1995]',0.287,0.157,0.001,55.693,-0.714
'[14:17:57.626 18/05/1995]',0.287,0.157,0.001,55.693,-0.714
'[14:17:57.628 18/05/1995]',0.267,0.157,0.001,55.693,-0.714
'[14:17:57.630 18/05/1995]',0.267,0.157,0.010,55.693,-0.714
'[14:17:57.632 18/05/1995]',0.267,0.149,0.010,56.895,-0.720
'[14:17:57.634 18/05/1995]',0.267,0.149,0.010,56.895,-0.720
'[14:17:57.636 18/05/1995]',0.267,0.149,0.001,56.895,-0.720
'[14:17:57.638 18/05/1995]',0.267,0.157,0.001,56.895,-0.720
'[14:17:57.640 18/05/1995]',0.287,0.157,0.001,58.748,-0.726
'[14:17:57.642 18/05/1995]',0.287,0.157,0.001,58.748,-0.726
'[14:17:57.644 18/05/1995]',0.287,0.157,0.001,58.748,-0.726
'[14:17:57.646 18/05/1995]',0.287,0.157,0.001,58.748,-0.726
'[14:17:57.648 18/05/1995]',0.287,0.166,0.010,61.603,-0.732
'[14:17:57.650 18/05/1995]',0.267,0.166,0.010,61.603,-0.732
'[14:17:57.652 18/05/1995]',0.287,0.175,0.010,61.603,-0.732
'[14:17:57.654 18/05/1995]',0.287,0.175,0.001,61.603,-0.732
'[14:17:57.656 18/05/1995]',0.307,0.166,0.001,65.259,-0.737
'[14:17:57.658 18/05/1995]',0.307,0.175,0.001,65.259,-0.737
'[14:17:57.660 18/05/1995]',0.327,0.175,0.001,65.259,-0.737
'[14:17:57.662 18/05/1995]',0.327,0.175,0.010,65.259,-0.737
'[14:17:57.664 18/05/1995]',0.307,0.175,0.010,69.716,-0.740
'[14:17:57.666 18/05/1995]',0.307,0.175,0.020,69.716,-0.740
'[14:17:57.668 18/05/1995]',0.307,0.175,0.010,69.716,-0.740
'[14:17:57.670 18/05/1995]',0.307,0.175,0.010,69.716,-0.740
'[14:17:57.672 18/05/1995]',0.307,0.175,0.010,74.774,-0.741
'[14:17:57.674 18/05/1995]',0.307,0.166,0.001,74.774,-0.741
'[14:17:57.676 18/05/1995]',0.307,0.166,0.001,74.774,-0.741
'[14:17:57.678 18/05/1995]',0.307,0.157,0.001,74.774,-0.741
'[14:17:57.680 18/05/1995]',0.287,0.157,0.010,80.234,-0.741
'[14:17:57.682 18/05/1995]',0.287,0.149,0.010,80.234,-0.741
'[14:17:57.684 18/05/1995]',0.267,0.149,0.010,80.234,-0.741
'[14:17:57.686 18/05/1995]',0.267,0.157,0.001,80.234,-0.741
'[14:17:57.688 18/05/1995]',0.267,0.166,0.001,85.943,-0.740
'[14:17:57.690 18/05/1995]',0.287,0.166,0.001,85.943,-0.740
'[14:17:57.692 18/05/1995]',0.287,0.157,0.001,85.943,-0.740
'[14:17:57.694 18/05/1995]',0.267,0.149,0.001,85.943,-0.740
'[14:17:57.696 18/05/1995]',0.267,0.149,0.010,91.502,-0.737
'[14:17:57.698 18/05/1995]',0.247,0.131,0.010,91.502,-0.737
'[14:17:57.700 18/05/1995]',0.247,0.131,0.010,91.502,-0.737
'[14:17:57.702 18/05/1995]',0.247,0.131,0.010,91.502,-0.737
'[14:17:57.704 18/05/1995]',0.247,0.131,0.001,96.811,-0.732
'[14:17:57.706 18/05/1995]',0.247,0.131,0.001,96.811,-0.732
'[14:17:57.708 18/05/1995]',0.247,0.131,0.001,96.811,-0.732
'[14:17:57.710 18/05/1995]',0.247,0.131,0.001,96.811,-0.732
'[14:17:57.712 18/05/1995]',0.226,0.131,0.001,101.469,-0.727
'[14:17:57.714 18/05/1995]',0.226,0.123,0.001,101.469,-0.727
'[14:17:57.716 18/05/1995]',0.226,0.123,0.010,101.469,-0.727
'[14:17:57.718 18/05/1995]',0.206,0.123,0.010,101.469,-0.727
'[14:17:57.720 18/05/1995]',0.206,0.114,0.001,105.426,-0.720
'[14:17:57.722 18/05/1995]',0.206,0.114,0.001,105.426,-0.720
'[14:17:57.724 18/05/1995]',0.206,0.114,0.001,105.426,-0.720
'[14:17:57.726 18/05/1995]',0.206,0.105,0.001,105.426,-0.720
'[14:17:57.728 18/05/1995]',0.206,0.105,0.001,108.481,-0.713
'[14:17:57.730 18/05/1995]',0.206,0.097,0.001,108.481,-0.713
'[14:17:57.732 18/05/1995]',0.185,0.088,0.001,108.481,-0.713
'[14:17:57.734 18/05/1995]',0.185,0.088,0.001,108.481,-0.713
'[14:17:57.736 18/05/1995]',0.165,0.088,0.001,110.534,-0.705
'[14:17:57.738 18/05/1995]',0.165,0.088,0.001,110.534,-0.705
'[14:17:57.740 18/05/1995]',0.165,0.079,0.001,110.534,-0.705
'[14:17:57.742 18/05/1995]',0.165,0.088,0.001,110.534,-0.705
'[14:17:57.744 18/05/1995]',0.165,0.097,0.001,111.536,-0.696
'[14:17:57.746 18/05/1995]',0.144,0.079,0.001,111.536,-0.696
'[14:17:57.748 18/05/1995]',0.144,0.062,0.001,111.536,-0.696
'[14:17:57.750 18/05/1995]',0.124,0.053,0.001,111.536,-0.696
'[14:17:57.752 18/05/1995]',0.124,0.062,0.001,111.586,-0.687
'[14:17:57.754 18/05/1995]',0.124,0.053,0.001,111.586,-0.687
'[14:17:57.756 18/05/1995]',0.124,0.053,0.001,111.586,-0.687
'[14:17:57.758 18/05/1995]',0.124,0.053,0.001,111.586,-0.687
'[14:17:57.760 18/05/1995]',0.124,0.044,0.001,110.684,-0.679
'[14:17:57.762 18/05/1995]',0.103,0.044,0.001,110.684,-0.679
'[14:17:57.764 18/05/1995]',0.103,0.035,0.001,110.684,-0.679
'[14:17:57.766 18/05/1995]',0.103,0.035,0.001,110.684,-0.679
'[14:17:57.768 18/05/1995]',0.083,0.035,0.001,108.931,-0.672
'[14:17:57.770 18/05/1995]',0.083,0.027,0.001,108.931,-0.672
'[14:17:57.772 18/05/1995]',0.083,0.027,0.001,108.931,-0.672
'[14:17:57.774 18/05/1995]',0.083,0.035,-0.009,108.931,-0.672
'[14:17:57.776 18/05/1995]',0.083,0.027,-0.009,106.527,-0.665
'[14:17:57.778 18/05/1995]',0.083,0.018,0.001,106.527,-0.665
'[14:17:57.780 18/05/1995]',0.062,0.027,0.001,106.527,-0.665
'[14:17:57.782 18/05/1995]',0.062,0.018,0.001,106.527,-0.665
'[14:17:57.784 18/05/1995]',0.062,0.009,0.001,103.422,-0.660
'[14:17:57.786 18/05/1995]',0.062,0.018,0.001,103.422,-0.660
'[14:17:57.788 18/05/1995]',0.062,0.027,0.001,103.422,-0.660
'[14:17:57.790 18/05/1995]',0.083,0.018,0.001,103.422,-0.660
'[14:17:57.792 18/05/1995]',0.083,0.018,0.001,99.866,-0.655
'[14:17:57.794 18/05/1995]',0.083,0.018,0.001,99.866,-0.655
'[14:17:57.796 18/05/1995]',0.062,0.018,0.001,99.866,-0.655
'[14:17:57.798 18/05/1995]',0.042,0.009,0.001,99.866,-0.655
'[14:17:57.800 18/05/1995]',0.042,0.001,0.001,95.860,-0.651
'[14:17:57.802 18/05/1995]',0.042,0.001,0.001,95.860,-0.651
'[14:17:57.804 18/05/1995]',0.062,0.009,-0.009,95.860,-0.651
'[14:17:57.806 18/05/1995]',0.062,0.009,-0.019,95.860,-0.651
'[14:17:57.808 18/05/1995]',0.062,0.009,-0.009,91.753,-0.648
'[14:17:57.810 18/05/1995]',0.062,0.009,-0.009,91.753,-0.648
'[14:17:57.812 18/05/1995]',0.062,0.009,0.001,91.753,-0.648
'[14:17:57.814 18/05/1995]',0.062,0.009,0.001,91.753,-0.648
'[14:17:57.816 18/05/1995]',0.042,0.001,0.001,87.696,-0.645
'[14:17:57.818 18/05/1995]',0.042,0.001,0.001,87.696,-0.645
'[14:17:57.820 18/05/1995]',0.042,0.009,0.001,87.696,-0.645
'[14:17:57.822 18/05/1995]',0.042,0.009,0.001,87.696,-0.645
'[14:17:57.824 18/05/1995]',0.042,0.009,-0.009,83.840,-0.641
'[14:17:57.826 18/05/1995]',0.062,0.009,0.001,83.840,-0.641
'[14:17:57.828 18/05/1995]',0.042,0.009,0.001,83.840,-0.641
'[14:17:57.830 18/05/1995]',0.042,0.009,0.001,83.840,-0.641
'[14:17:57.832 18/05/1995]',0.042,0.009,0.001,80.284,-0.637
'[14:17:57.834 18/05/1995]',0.042,0.009,0.001,80.284,-0.637
'[14:17:57.836 18/05/1995]',0.042,0.001,-0.009,80.284,-0.637
'[14:17:57.838 18/05/1995]',0.042,0.001,-0.009,80.284,-0.637
'[14:17:57.840 18/05/1995]',0.042,0.009,-0.009,77.229,-0.631
'[14:17:57.842 18/05/1995]',0.062,0.009,-0.009,77.229,-0.631
'[14:17:57.844 18/05/1995]',0.062,0.001,-0.009,77.229,-0.631
'[14:17:57.846 18/05/1995]',0.062,0.009,0.001,77.229,-0.631
'[14:17:57.848 18/05/1995]',0.042,0.001,0.001,74.624,-0.625
'[14:17:57.850 18/05/1995]',0.042,0.001,0.001,74.624,-0.625
'[14:17:57.852 18/05/1995]',0.042,0.001,-0.009,74.624,-0.625
'[14:17:57.854 18/05/1995]',0.042,0.001,-0.009,74.624,-0.625
'[14:17:57.856 18/05/1995]',0.042,0.009,-0.009,72.421,-0.619
'[14:17:57.858 18/05/1995]',0.062,0.018,-0.009,72.421,-0.619
'[14:17:57.860 18/05/1995]',0.062,0.018,-0.009,72.421,-0.619
'[14:17:57.862 18/05/1995]',0.042,0.009,0.001,72.421,-0.619
'[14:17:57.864 18/05/1995]',0.042,0.009,0.001,70.567,-0.612
'[14:17:57.866 18/05/1995]',0.042,0.009,0.001,70.567,-0.612
'[14:17:57.868 18/05/1995]',0.042,0.001,0.001,70.567,-0.612
'[14:17:57.870 18/05/1995]',0.042,0.001,-0.009,70.567,-0.612
'[14:17:57.872 18/05/1995]',0.042,0.009,-0.009,69.115,-0.605
'[14:17:57.874 18/05/1995]',0.042,0.009,-0.009,69.115,-0.605
'[14:17:57.876 18/05/1995]',0.042,0.009,-0.009,69.115,-0.605
'[14:17:57.878 18/05/1995]',0.042,0.001,-0.009,69.115,-0.605
'[14:17:57.880 18/05/1995]',0.042,0.001,-0.009,67.863,-0.596
'[14:17:57.882 18/05/1995]',0.042,0.001,0.001,67.863,-0.596
'[14:17:57.884 18/05/1995]',0.042,0.001,-0.009,67.863,-0.596
'[14:17:57.886 18/05/1995]',0.042,0.001,-0.009,67.863,-0.596
'[14:17:57.888 18/05/1995]',0.042,0.001,-0.019,66.961,-0.584
'[14:17:57.890 18/05/1995]',0.042,0.001,-0.019,66.961,-0.584
'[14:17:57.892 18/05/1995]',0.042,0.001,-0.009,66.961,-0.584
'[14:17:57.894 18/05/1995]',0.042,0.001,-0.009,66.961,-0.584
'[14:17:57.896 18/05/1995]',0.021,-0.008,0.001,66.260,-0.569
'[14:17:57.898 18/05/1995]',0.021,-0.008,0.001,66.260,-0.569
'[14:17:57.900 18/05/1995]',0.021,-0.008,0.001,66.260,-0.569
'[14:17:57.902 18/05/1995]',0.021,0.001,0.001,66.260,-0.569
'[14:17:57.904 18/05/1995]',0.021,-0.008,-0.009,65.759,-0.552
'[14:17:57.906 18/05/1995]',0.042,0.001,-0.019,65.759,-0.552
'[14:17:57.908 18/05/1995]',0.042,0.001,-0.019,65.759,-0.552
'[14:17:57.910 18/05/1995]',0.042,0.001,-0.009,65.759,-0.552
'[14:17:57.912 18/05/1995]',0.042,0.001,0.001,65.359,-0.534
'[14:17:57.914 18/05/1995]',0.021,0.001,0.001,65.359,-0.534
'[14:17:57.916 18/05/1995]',0.021,0.001,0.001,65.359,-0.534
'[14:17:57.918 18/05/1995]',0.021,-0.008,-0.009,65.359,-0.534
'[14:17:57.920 18/05/1995]',0.021,-0.008,-0.009,65.108,-0.514
'[14:17:57.922 18/05/1995]',0.021,-0.008,-0.019,65.108,-0.514
'[14:17:57.924 18/05/1995]',0.021,0.001,-0.009,65.108,-0.514
'[14:17:57.926 18/05/1995]',0.042,0.001,-0.009,65.108,-0.514
'[14:17:57.928 18/05/1995]',0.042,0.001,0.001,65.008,-0.492
'[14:17:57.930 18/05/1995]',0.042,0.001,0.001,65.008,-0.492
'[14:17:57.932 18/05/1995]',0.042,-0.008,0.001,65.008,-0.492
'[14:17:57.934 18/05/1995]',0.021,-0.008,0.001,65.008,-0.492
'[14:17:57.936 18/05/1995]',0.021,-0.008,0.001,65.008,-0.469
'[14:17:57.938 18/05/1995]',0.002,-0.017,-0.019,65.008,-0.469
'[14:17:57.940 18/05/1995]',0.002,-0.025,-0.028,65.008,-0.469
'[14:17:57.942 18/05/1995]',0.002,-0.060,-0.038,65.008,-0.469
'[14:17:57.944 18/05/1995]',-0.019,-0.078,-0.038,65.008,-0.446
'[14:17:57.946 18/05/1995]',-0.060,-0.104,-0.048,65.008,-0.446
'[14:17:57.948 18/05/1995]',-0.080,-0.130,-0.058,65.008,-0.446
'[14:17:57.950 18/05/1995]',-0.100,-0.139,-0.058,65.008,-0.446
'[14:17:57.952 18/05/1995]',-0.121,-0.139,-0.067,65.058,-0.421
'[14:17:57.954 18/05/1995]',-0.162,-0.148,-0.067,65.058,-0.421
'[14:17:57.956 18/05/1995]',-0.182,-0.148,-0.067,65.058,-0.421
'[14:17:57.958 18/05/1995]',-0.203,-0.156,-0.067,65.058,-0.421
'[14:17:57.960 18/05/1995]',-0.244,-0.174,-0.067,65.108,-0.396
'[14:17:57.962 18/05/1995]',-0.285,-0.191,-0.058,65.108,-0.396
'[14:17:57.964 18/05/1995]',-0.325,-0.217,-0.058,65.108,-0.396
'[14:17:57.966 18/05/1995]',-0.366,-0.252,-0.067,65.108,-0.396
'[14:17:57.968 18/05/1995]',-0.407,-0.270,-0.077,65.158,-0.369
'[14:17:57.970 18/05/1995]',-0.427,-0.313,-0.107,65.158,-0.369
'[14:17:57.972 18/05/1995]',-0.427,-0.331,-0.126,65.158,-0.369
'[14:17:57.974 18/05/1995]',-0.427,-0.357,-0.145,65.158,-0.369
'[14:17:57.976 18/05/1995]',-0.427,-0.366,-0.145,65.158,-0.344
'[14:17:57.978 18/05/1995]',-0.407,-0.383,-0.145,65.158,-0.344
'[14:17:57.980 18/05/1995]',-0.427,-0.400,-0.145,65.158,-0.344
'[14:17:57.982 18/05/1995]',-0.447,-0.400,-0.136,65.158,-0.344
'[14:17:57.984 18/05/1995]',-0.488,-0.409,-0.126,65.158,-0.318
'[14:17:57.986 18/05/1995]',-0.488,-0.409,-0.126,65.158,-0.318
'[14:17:57.988 18/05/1995]',-0.509,-0.409,-0.126,65.158,-0.318
'[14:17:57.990 18/05/1995]',-0.529,-0.400,-0.107,65.158,-0.318
'[14:17:57.992 18/05/1995]',-0.529,-0.392,-0.087,65.158,-0.293
'[14:17:57.994 18/05/1995]',-0.550,-0.392,-0.077,65.158,-0.293
'[14:17:57.996 18/05/1995]',-0.570,-0.392,-0.067,65.158,-0.293
'[14:17:57.998 18/05/1995]',-0.590,-0.392,-0.048,65.158,-0.293
'[14:17:58.000 18/05/1995]',-0.590,-0.392,-0.038,65.108,-0.269
'[14:17:58.002 18/05/1995]',-0.590,-0.374,-0.038,65.108,-0.269
'[14:17:58.004 18/05/1995]',-0.590,-0.374,-0.038,65.108,-0.269
'[14:17:58.006 18/05/1995]',-0.590,-0.366,-0.038,65.108,-0.269
'[14:17:58.008 18/05/1995]',-0.590,-0.348,-0.038,65.008,-0.244
'[14:17:58.010 18/05/1995]',-0.590,-0.331,-0.009,65.008,-0.244
'[14:17:58.012 18/05/1995]',-0.590,-0.322,0.001,65.008,-0.244
'[14:17:58.014 18/05/1995]',-0.590,-0.322,0.001,65.008,-0.244
'[14:17:58.016 18/05/1995]',-0.590,-0.313,0.001,64.858,-0.219
'[14:17:58.018 18/05/1995]',-0.570,-0.305,0.001,64.858,-0.219
'[14:17:58.020 18/05/1995]',-0.529,-0.287,0.001,64.858,-0.219
'[14:17:58.022 18/05/1995]',-0.488,-0.278,-0.009,64.858,-0.219
'[14:17:58.024 18/05/1995]',-0.427,-0.261,-0.019,64.758,-0.194
'[14:17:58.026 18/05/1995]',-0.386,-0.252,-0.019,64.758,-0.194
'[14:17:58.028 18/05/1995]',-0.366,-0.235,-0.019,64.758,-0.194
'[14:17:58.030 18/05/1995]',-0.304,-0.217,-0.009,64.758,-0.194
'[14:17:58.032 18/05/1995]',-0.264,-0.191,-0.009,64.557,-0.168
'[14:17:58.034 18/05/1995]',-0.244,-0.156,-0.009,64.557,-0.168
'[14:17:58.036 18/05/1995]',-0.182,-0.130,-0.009,64.557,-0.168
'[14:17:58.038 18/05/1995]',-0.141,-0.113,-0.019,64.557,-0.168
'[14:17:58.040 18/05/1995]',-0.100,-0.095,-0.019,64.407,-0.141
'[14:17:58.042 18/05/1995]',-0.060,-0.078,-0.019,64.407,-0.141
'[14:17:58.044 18/05/1995]',-0.039,-0.060,-0.009,64.407,-0.141
'[14:17:58.046 18/05/1995]',0.002,-0.052,-0.009,64.407,-0.141
'[14:17:58.048 18/05/1995]',0.002,-0.034,0.001,64.107,-0.115
'[14:17:58.050 18/05/1995]',0.002,-0.034,0.001,64.107,-0.115
'[14:17:58.052 18/05/1995]',0.002,-0.034,-0.009,64.107,-0.115
'[14:17:58.054 18/05/1995]',0.021,-0.017,-0.019,64.107,-0.115
'[14:17:58.056 18/05/1995]',0.042,0.001,-0.009,63.806,-0.088
'[14:17:58.058 18/05/1995]',0.083,0.009,-0.019,63.806,-0.088
'[14:17:58.060 18/05/1995]',0.103,0.018,-0.009,63.806,-0.088
'[14:17:58.062 18/05/1995]',0.124,0.035,0.001,63.806,-0.088
'[14:17:58.064 18/05/1995]',0.144,0.053,0.001,63.456,-0.061
'[14:17:58.066 18/05/1995]',0.165,0.062,0.001,63.456,-0.061
'[14:17:58.068 18/05/1995]',0.185,0.079,0.001,63.456,-0.061
'[14:17:58.070 18/05/1995]',0.206,0.088,0.001,63.456,-0.061
'[14:17:58.072 18/05/1995]',0.247,0.097,-0.009,63.055,-0.035
'[14:17:58.074 18/05/1995]',0.267,0.123,0.001,63.055,-0.035
'[14:17:58.076 18/05/1995]',0.287,0.131,0.001,63.055,-0.035
'[14:17:58.078 18/05/1995]',0.307,0.131,0.001,63.055,-0.035
'[14:17:58.080 18/05/1995]',0.307,0.131,0.001,62.604,-0.009
'[14:17:58.082 18/05/1995]',0.287,0.140,0.001,62.604,-0.009
'[14:17:58.084 18/05/1995]',0.287,0.140,0.001,62.604,-0.009
'[14:17:58.086 18/05/1995]',0.307,0.149,0.010,62.604,-0.009
'[14:17:58.088 18/05/1995]',0.307,0.149,0.001,62.053,0.017
'[14:17:58.090 18/05/1995]',0.307,0.149,0.001,62.053,0.017
'[14:17:58.092 18/05/1995]',0.307,0.157,0.001,62.053,0.017
'[14:17:58.094 18/05/1995]',0.307,0.157,0.001,62.053,0.017
'[14:17:58.096 18/05/1995]',0.307,0.149,0.001,61.603,0.041
'[14:17:58.098 18/05/1995]',0.307,0.149,0.001,61.603,0.041
'[14:17:58.100 18/05/1995]',0.307,0.149,0.001,61.603,0.041
'[14:17:58.102 18/05/1995]',0.307,0.149,0.001,61.603,0.041
'[14:17:58.104 18/05/1995]',0.327,0.166,0.001,61.052,0.065
'[14:17:58.106 18/05/1995]',0.327,0.157,0.001,61.052,0.065
'[14:17:58.108 18/05/1995]',0.327,0.157,0.001,61.052,0.065
'[14:17:58.110 18/05/1995]',0.348,0.157,0.001,61.052,0.065
'[14:17:58.112 18/05/1995]',0.348,0.157,0.001,60.551,0.088
'[14:17:58.114 18/05/1995]',0.348,0.157,0.001,60.551,0.088
'[14:17:58.116 18/05/1995]',0.327,0.157,0.010,60.551,0.088
'[14:17:58.118 18/05/1995]',0.327,0.157,0.001,60.551,0.088
'[14:17:58.120 18/05/1995]',0.348,0.157,0.001,60.050,0.112
'[14:17:58.122 18/05/1995]',0.368,0.166,0.001,60.050,0.112
'[14:17:58.124 18/05/1995]',0.368,0.175,0.001,60.050,0.112
'[14:17:58.126 18/05/1995]',0.389,0.166,0.001,60.050,0.112
'[14:17:58.128 18/05/1995]',0.368,0.166,0.001,59.599,0.134
'[14:17:58.130 18/05/1995]',0.368,0.166,0.001,59.599,0.134
'[14:17:58.132 18/05/1995]',0.368,0.166,0.010,59.599,0.134
'[14:17:58.134 18/05/1995]',0.368,0.166,0.010,59.599,0.134
'[14:17:58.136 18/05/1995]',0.368,0.175,0.001,59.098,0.155
'[14:17:58.138 18/05/1995]',0.368,0.175,0.001,59.098,0.155
'[14:17:58.140 18/05/1995]',0.368,0.166,0.001,59.098,0.155
'[14:17:58.142 18/05/1995]',0.368,0.166,0.001,59.098,0.155
'[14:17:58.144 18/05/1995]',0.368,0.157,0.001,58.748,0.176
'[14:17:58.146 18/05/1995]',0.368,0.157,0.001,58.748,0.176
'[14:17:58.148 18/05/1995]',0.368,0.149,0.001,58.748,0.176
'[14:17:58.150 18/05/1995]',0.368,0.149,0.001,58.748,0.176
'[14:17:58.152 18/05/1995]',0.348,0.149,0.001,58.447,0.196
'[14:17:58.154 18/05/1995]',0.368,0.149,0.001,58.447,0.196
'[14:17:58.156 18/05/1995]',0.368,0.149,0.001,58.447,0.196
'[14:17:58.158 18/05/1995]',0.368,0.166,0.001,58.447,0.196
'[14:17:58.160 18/05/1995]',0.368,0.157,0.001,58.247,0.214
'[14:17:58.162 18/05/1995]',0.368,0.140,0.001,58.247,0.214
'[14:17:58.164 18/05/1995]',0.348,0.140,0.001,58.247,0.214
'[14:17:58.166 18/05/1995]',0.327,0.140,0.010,58.247,0.214
'[14:17:58.168 18/05/1995]',0.327,0.140,0.001,57.997,0.232
'[14:17:58.170 18/05/1995]',0.327,0.149,0.010,57.997,0.232
'[14:17:58.172 18/05/1995]',0.327,0.149,0.010,57.997,0.232
'[14:17:58.174 18/05/1995]',0.348,0.157,0.010,57.997,0.232
'[14:17:58.176 18/05/1995]',0.327,0.149,0.010,57.997,0.248
'[14:17:58.178 18/05/1995]',0.327,0.157,0.020,57.997,0.248
'[14:17:58.180 18/05/1995]',0.327,0.157,0.020,57.997,0.248
'[14:17:58.182 18/05/1995]',0.327,0.157,0.030,57.997,0.248
'[14:17:58.184 18/05/1995]',0.327,0.157,0.020,58.247,0.264
'[14:17:58.186 18/05/1995]',0.327,0.149,0.020,58.247,0.264
'[14:17:58.188 18/05/1995]',0.327,0.157,0.010,58.247,0.264
'[14:17:58.190 18/05/1995]',0.327,0.157,0.001,58.247,0.264
'[14:17:58.192 18/05/1995]',0.327,0.157,0.010,58.848,0.279
'[14:17:58.194 18/05/1995]',0.327,0.149,0.010,58.848,0.279
'[14:17:58.196 18/05/1995]',0.307,0.149,0.020,58.848,0.279
'[14:17:58.198 18/05/1995]',0.287,0.149,0.020,58.848,0.279
'[14:17:58.200 18/05/1995]',0.287,0.140,0.020,59.950,0.294
'[14:17:58.202 18/05/1995]',0.287,0.140,0.020,59.950,0.294
'[14:17:58.204 18/05/1995]',0.287,0.140,0.020,59.950,0.294
'[14:17:58.206 18/05/1995]',0.287,0.149,0.020,59.950,0.294
'[14:17:58.208 18/05/1995]',0.287,0.140,0.010,61.603,0.309
'[14:17:58.210 18/05/1995]',0.287,0.140,0.010,61.603,0.309
'[14:17:58.212 18/05/1995]',0.267,0.149,0.020,61.603,0.309
'[14:17:58.214 18/05/1995]',0.267,0.131,0.020,61.603,0.309
'[14:17:58.216 18/05/1995]',0.267,0.131,0.020,63.656,0.326
'[14:17:58.218 18/05/1995]',0.247,0.131,0.010,63.656,0.326
'[14:17:58.220 18/05/1995]',0.247,0.123,0.001,63.656,0.326
'[14:17:58.222 18/05/1995]',0.267,0.123,0.001,63.656,0.326
'[14:17:58.224 18/05/1995]',0.267,0.123,0.001,66.110,0.342
'[14:17:58.226 18/05/1995]',0.267,0.114,0.001,66.110,0.342
'[14:17:58.228 18/05/1995]',0.247,0.114,0.001,66.110,0.342
'[14:17:58.230 18/05/1995]',0.226,0.114,0.010,66.110,0.342
'[14:17:58.232 18/05/1995]',0.226,0.105,0.010,68.815,0.357
'[14:17:58.234 18/05/1995]',0.206,0.105,0.010,68.815,0.357
'[14:17:58.236 18/05/1995]',0.206,0.097,0.001,68.815,0.357
'[14:17:58.238 18/05/1995]',0.206,0.097,0.001,68.815,0.357
'[14:17:58.240 18/05/1995]',0.206,0.097,0.001,71.569,0.370
'[14:17:58.242 18/05/1995]',0.206,0.097,0.001,71.569,0.370
'[14:17:58.244 18/05/1995]',0.185,0.088,0.001,71.569,0.370
'[14:17:58.246 18/05/1995]',0.165,0.088,0.010,71.569,0.370
'[14:17:58.248 18/05/1995]',0.165,0.079,0.010,74.224,0.382
'[14:17:58.250 18/05/1995]',0.165,0.070,0.010,74.224,0.382
'[14:17:58.252 18/05/1995]',0.165,0.070,0.001,74.224,0.382
'[14:17:58.254 18/05/1995]',0.165,0.070,0.001,74.224,0.382
'[14:17:58.256 18/05/1995]',0.165,0.062,0.001,76.628,0.393
'[14:17:58.258 18/05/1995]',0.165,0.053,-0.009,76.628,0.393
'[14:17:58.260 18/05/1995]',0.165,0.044,0.001,76.628,0.393
'[14:17:58.262 18/05/1995]',0.144,0.044,0.001,76.628,0.393
'[14:17:58.264 18/05/1995]',0.144,0.044,0.001,78.531,0.401
'[14:17:58.266 18/05/1995]',0.124,0.035,0.001,78.531,0.401
'[14:17:58.268 18/05/1995]',0.124,0.027,0.001,78.531,0.401
'[14:17:58.270 18/05/1995]',0.124,0.027,-0.009,78.531,0.401
'[14:17:58.272 18/05/1995]',0.144,0.027,-0.019,79.883,0.408
'[14:17:58.274 18/05/1995]',0.144,0.027,-0.028,79.883,0.408
'[14:17:58.276 18/05/1995]',0.144,0.018,-0.019,79.883,0.408
'[14:17:58.278 18/05/1995]',0.144,0.027,-0.009,79.883,0.408
'[14:17:58.280 18/05/1995]',0.124,0.018,0.001,80.634,0.413
'[14:17:58.282 18/05/1995]',0.124,0.018,0.001,80.634,0.413
'[14:17:58.284 18/05/1995]',0.103,0.018,0.001,80.634,0.413
'[14:17:58.286 18/05/1995]',0.103,0.009,0.001,80.634,0.413
'[14:17:58.288 18/05/1995]',0.103,0.009,-0.009,80.634,0.417
'[14:17:58.290 18/05/1995]',0.103,0.009,-0.009,80.634,0.417
'[14:17:58.292 18/05/1995]',0.083,0.018,-0.009,80.634,0.417
'[14:17:58.294 18/05/1995]',0.083,0.018,0.001,80.634,0.417
'[14:17:58.296 18/05/1995]',0.083,0.009,0.001,80.033,0.419
'[14:17:58.298 18/05/1995]',0.062,0.001,0.001,80.033,0.419
'[14:17:58.300 18/05/1995]',0.062,0.001,0.001,80.033,0.419
'[14:17:58.302 18/05/1995]',0.062,0.009,0.001,80.033,0.419
'[14:17:58.304 18/05/1995]',0.062,0.009,0.001,78.681,0.421
'[14:17:58.306 18/05/1995]',0.062,0.009,0.001,78.681,0.421
'[14:17:58.308 18/05/1995]',0.062,0.009,-0.009,78.681,0.421
'[14:17:58.310 18/05/1995]',0.062,0.009,0.001,78.681,0.421
'[14:17:58.312 18/05/1995]',0.062,0.009,0.001,76.728,0.421
'[14:17:58.314 18/05/1995]',0.042,0.009,0.001,76.728,0.421
'[14:17:58.316 18/05/1995]',0.042,0.009,0.001,76.728,0.421
'[14:17:58.318 18/05/1995]',0.042,0.001,0.001,76.728,0.421
'[14:17:58.320 18/05/1995]',0.042,0.009,0.001,74.424,0.421
'[14:17:58.322 18/05/1995]',0.042,0.009,0.001,74.424,0.421
'[14:17:58.324 18/05/1995]',0.062,0.009,-0.009,74.424,0.421
'[14:17:58.326 18/05/1995]',0.062,0.001,-0.009,74.424,0.421
'[14:17:58.328 18/05/1995]',0.062,0.009,0.001,71.920,0.420
'[14:17:58.330 18/05/1995]',0.062,0.001,0.001,71.920,0.420
'[14:17:58.332 18/05/1995]',0.062,0.001,0.001,71.920,0.420
'[14:17:58.334 18/05/1995]',0.042,0.001,0.001,71.920,0.420
'[14:17:58.336 18/05/1995]',0.062,0.001,-0.009,69.466,0.419
'[14:17:58.338 18/05/1995]',0.062,0.001,-0.009,69.466,0.419
'[14:17:58.340 18/05/1995]',0.083,0.001,-0.019,69.466,0.419
'[14:17:58.342 18/05/1995]',0.083,0.001,-0.019,69.466,0.419
'[14:17:58.344 18/05/1995]',0.083,0.001,0.001,67.112,0.418
'[14:17:58.346 18/05/1995]',0.083,0.001,0.001,67.112,0.418
'[14:17:58.348 18/05/1995]',0.062,0.009,0.001,67.112,0.418
'[14:17:58.350 18/05/1995]',0.042,0.009,0.001,67.112,0.418
'[14:17:58.352 18/05/1995]',0.042,0.009,0.001,65.008,0.417
'[14:17:58.354 18/05/1995]',0.042,0.001,0.001,65.008,0.417
'[14:17:58.356 18/05/1995]',0.042,0.001,0.001,65.008,0.417
'[14:17:58.358 18/05/1995]',0.042,0.001,0.001,65.008,0.417
'[14:17:58.360 18/05/1995]',0.042,0.001,0.001,63.105,0.416
'[14:17:58.362 18/05/1995]',0.042,0.001,0.001,63.105,0.416
'[14:17:58.364 18/05/1995]',0.042,0.001,0.001,63.105,0.416
'[14:17:58.366 18/05/1995]',0.021,0.001,0.001,63.105,0.416
'[14:17:58.368 18/05/1995]',0.021,0.001,0.001,61.502,0.414
'[14:17:58.370 18/05/1995]',0.021,0.001,0.001,61.502,0.414
'[14:17:58.372 18/05/1995]',0.042,0.001,0.001,61.502,0.414
'[14:17:58.374 18/05/1995]',0.042,0.001,0.001,61.502,0.414
'[14:17:58.376 18/05/1995]',0.042,0.001,0.001,60.250,0.411
'[14:17:58.378 18/05/1995]',0.042,0.001,0.001,60.250,0.411
'[14:17:58.380 18/05/1995]',0.042,0.001,0.001,60.250,0.411
'[14:17:58.382 18/05/1995]',0.021,0.001,0.001,60.250,0.411
'[14:17:58.384 18/05/1995]',0.021,0.001,0.001,59.199,0.408
'[14:17:58.386 18/05/1995]',0.021,0.001,0.001,59.199,0.408
'[14:17:58.388 18/05/1995]',0.021,0.001,0.001,59.199,0.408
'[14:17:58.390 18/05/1995]',0.042,0.001,0.001,59.199,0.408
'[14:17:58.392 18/05/1995]',0.042,0.001,0.001,58.347,0.405
'[14:17:58.394 18/05/1995]',0.042,0.001,0.001,58.347,0.405
'[14:17:58.396 18/05/1995]',0.021,0.001,0.001,58.347,0.405
'[14:17:58.398 18/05/1995]',0.021,0.001,0.001,58.347,0.405
'[14:17:58.400 18/05/1995]',0.021,0.001,0.001,57.846,0.399
'[14:17:58.402 18/05/1995]',0.002,0.001,0.001,57.846,0.399
'[14:17:58.404 18/05/1995]',0.021,0.001,0.001,57.846,0.399
'[14:17:58.406 18/05/1995]',0.021,-0.008,-0.009,57.846,0.399
'[14:17:58.408 18/05/1995]',0.042,-0.008,-0.009,57.396,0.391
'[14:17:58.410 18/05/1995]',0.021,-0.017,-0.009,57.396,0.391
'[14:17:58.412 18/05/1995]',0.021,-0.025,0.001,57.396,0.391
'[14:17:58.414 18/05/1995]',0.021,-0.034,0.001,57.396,0.391
'[14:17:58.416 18/05/1995]',0.002,-0.034,0.001,57.195,0.381
'[14:17:58.418 18/05/1995]',0.002,-0.034,0.001,57.195,0.381
'[14:17:58.420 18/05/1995]',0.002,-0.025,0.001,57.195,0.381
'[14:17:58.422 18/05/1995]',0.002,-0.017,-0.009,57.195,0.381
'[14:17:58.424 18/05/1995]',0.002,-0.017,-0.009,57.045,0.370
'[14:17:58.426 18/05/1995]',0.002,-0.017,0.001,57.045,0.370
'[14:17:58.428 18/05/1995]',0.002,-0.025,0.001,57.045,0.370
'[14:17:58.430 18/05/1995]',-0.019,-0.043,0.001,57.045,0.370
'[14:17:58.432 18/05/1995]',-0.039,-0.060,0.001,56.995,0.359
'[14:17:58.434 18/05/1995]',-0.060,-0.069,-0.009,56.995,0.359
'[14:17:58.436 18/05/1995]',-0.080,-0.087,-0.019,56.995,0.359
'[14:17:58.438 18/05/1995]',-0.100,-0.113,-0.038,56.995,0.359
'[14:17:58.440 18/05/1995]',-0.100,-0.122,-0.048,57.045,0.348
'[14:17:58.442 18/05/1995]',-0.100,-0.130,-0.058,57.045,0.348
'[14:17:58.444 18/05/1995]',-0.121,-0.130,-0.048,57.045,0.348
'[14:17:58.446 18/05/1995]',-0.162,-0.139,-0.038,57.045,0.348
'[14:17:58.448 18/05/1995]',-0.203,-0.139,-0.038,57.195,0.336
'[14:17:58.450 18/05/1995]',-0.223,-0.139,-0.038,57.195,0.336
'[14:17:58.452 18/05/1995]',-0.264,-0.148,-0.038,57.195,0.336
'[14:17:58.454 18/05/1995]',-0.304,-0.156,-0.038,57.195,0.336
'[14:17:58.456 18/05/1995]',-0.325,-0.174,-0.038,57.295,0.323
'[14:17:58.458 18/05/1995]',-0.366,-0.200,-0.048,57.295,0.323
'[14:17:58.460 18/05/1995]',-0.386,-0.226,-0.058,57.295,0.323
'[14:17:58.462 18/05/1995]',-0.427,-0.261,-0.077,57.295,0.323
'[14:17:58.464 18/05/1995]',-0.447,-0.287,-0.077,57.496,0.309
'[14:17:58.466 18/05/1995]',-0.468,-0.322,-0.087,57.496,0.309
'[14:17:58.468 18/05/1995]',-0.468,-0.322,-0.097,57.496,0.309
'[14:17:58.470 18/05/1995]',-0.468,-0.340,-0.107,57.496,0.309
'[14:17:58.472 18/05/1995]',-0.468,-0.348,-0.107,57.696,0.295
'[14:17:58.474 18/05/1995]',-0.488,-0.357,-0.116,57.696,0.295
'[14:17:58.476 18/05/1995]',-0.488,-0.366,-0.097,57.696,0.295
'[14:17:58.478 18/05/1995]',-0.509,-0.366,-0.087,57.696,0.295
'[14:17:58.480 18/05/1995]',-0.529,-0.374,-0.077,57.946,0.281
'[14:17:58.482 18/05/1995]',-0.550,-0.374,-0.058,57.946,0.281
'[14:17:58.484 18/05/1995]',-0.570,-0.366,-0.048,57.946,0.281
'[14:17:58.486 18/05/1995]',-0.570,-0.366,-0.038,57.946,0.281
'[14:17:58.488 18/05/1995]',-0.590,-0.357,-0.038,58.197,0.267
'[14:17:58.490 18/05/1995]',-0.610,-0.357,-0.038,58.197,0.267
'[14:17:58.492 18/05/1995]',-0.610,-0.348,-0.028,58.197,0.267
'[14:17:58.494 18/05/1995]',-0.631,-0.340,-0.009,58.197,0.267
'[14:17:58.496 18/05/1995]',-0.631,-0.331,0.001,58.347,0.252
'[14:17:58.498 18/05/1995]',-0.651,-0.322,0.001,58.347,0.252
'[14:17:58.500 18/05/1995]',-0.672,-0.313,0.010,58.347,0.252
'[14:17:58.502 18/05/1995]',-0.672,-0.305,0.020,58.347,0.252
'[14:17:58.504 18/05/1995]',-0.672,-0.287,0.020,58.547,0.236
'[14:17:58.506 18/05/1995]',-0.651,-0.278,0.020,58.547,0.236
'[14:17:58.508 18/05/1995]',-0.631,-0.261,0.020,58.547,0.236
'[14:17:58.510 18/05/1995]',-0.610,-0.261,0.030,58.547,0.236
'[14:17:58.512 18/05/1995]',-0.590,-0.261,0.030,58.698,0.222
'[14:17:58.514 18/05/1995]',-0.570,-0.261,0.030,58.698,0.222
'[14:17:58.516 18/05/1995]',-0.529,-0.235,0.030,58.698,0.222
'[14:17:58.518 18/05/1995]',-0.488,-0.226,0.020,58.698,0.222
'[14:17:58.520 18/05/1995]',-0.427,-0.209,0.001,58.848,0.206
'[14:17:58.522 18/05/1995]',-0.366,-0.183,0.001,58.848,0.206
'[14:17:58.524 18/05/1995]',-0.325,-0.165,0.001,58.848,0.206
'[14:17:58.526 18/05/1995]',-0.264,-0.139,0.001,58.848,0.206
'[14:17:58.528 18/05/1995]',-0.244,-0.130,0.010,58.948,0.192
'[14:17:58.530 18/05/1995]',-0.203,-0.104,0.010,58.948,0.192
'[14:17:58.532 18/05/1995]',-0.182,-0.087,0.010,58.948,0.192
'[14:17:58.534 18/05/1995]',-0.162,-0.078,0.010,58.948,0.192
'[14:17:58.536 18/05/1995]',-0.141,-0.060,0.001,58.948,0.176
'[14:17:58.538 18/05/1995]',-0.121,-0.043,0.010,58.948,0.176
'[14:17:58.540 18/05/1995]',-0.100,-0.034,0.001,58.948,0.176
'[14:17:58.542 18/05/1995]',-0.080,-0.025,0.001,58.948,0.176
'[14:17:58.544 18/05/1995]',-0.060,-0.017,0.010,58.948,0.162
'[14:17:58.546 18/05/1995]',-0.060,-0.008,0.020,58.948,0.162
'[14:17:58.548 18/05/1995]',-0.039,0.001,0.020,58.948,0.162
'[14:17:58.550 18/05/1995]',-0.019,0.001,0.020,58.948,0.162
'[14:17:58.552 18/05/1995]',0.002,0.018,0.010,58.948,0.146
'[14:17:58.554 18/05/1995]',0.021,0.035,0.010,58.948,0.146
'[14:17:58.556 18/05/1995]',0.042,0.053,0.010,58.948,0.146
'[14:17:58.558 18/05/1995]',0.062,0.062,0.010,58.948,0.146
'[14:17:58.560 18/05/1995]',0.062,0.070,0.020,58.848,0.131
'[14:17:58.562 18/05/1995]',0.083,0.088,0.030,58.848,0.131
'[14:17:58.564 18/05/1995]',0.103,0.097,0.030,58.848,0.131
'[14:17:58.566 18/05/1995]',0.103,0.114,0.040,58.848,0.131
'[14:17:58.568 18/05/1995]',0.144,0.114,0.040,58.698,0.115
'[14:17:58.570 18/05/1995]',0.144,0.123,0.030,58.698,0.115
'[14:17:58.572 18/05/1995]',0.165,0.131,0.020,58.698,0.115
'[14:17:58.574 18/05/1995]',0.165,0.131,0.020,58.698,0.115
'[14:17:58.576 18/05/1995]',0.165,0.131,0.030,58.598,0.099
'[14:17:58.578 18/05/1995]',0.165,0.131,0.030,58.598,0.099
'[14:17:58.580 18/05/1995]',0.185,0.131,0.040,58.598,0.099
'[14:17:58.582 18/05/1995]',0.185,0.131,0.040,58.598,0.099
'[14:17:58.584 18/05/1995]',0.185,0.140,0.040,58.397,0.083
'[14:17:58.586 18/05/1995]',0.185,0.140,0.030,58.397,0.083
'[14:17:58.588 18/05/1995]',0.206,0.140,0.030,58.397,0.083
'[14:17:58.590 18/05/1995]',0.206,0.149,0.020,58.397,0.083
'[14:17:58.592 18/05/1995]',0.206,0.140,0.020,58.247,0.067
'[14:17:58.594 18/05/1995]',0.206,0.140,0.030,58.247,0.067
'[14:17:58.596 18/05/1995]',0.206,0.140,0.030,58.247,0.067
'[14:17:58.598 18/05/1995]',0.206,0.140,0.040,58.247,0.067
'[14:17:58.600 18/05/1995]',0.206,0.140,0.040,58.097,0.051
'[14:17:58.602 18/05/1995]',0.206,0.140,0.030,58.097,0.051
'[14:17:58.604 18/05/1995]',0.226,0.140,0.020,58.097,0.051
'[14:17:58.606 18/05/1995]',0.247,0.140,0.020,58.097,0.051
'[14:17:58.608 18/05/1995]',0.247,0.157,0.010,57.946,0.034
'[14:17:58.610 18/05/1995]',0.247,0.149,0.020,57.946,0.034
'[14:17:58.612 18/05/1995]',0.247,0.140,0.030,57.946,0.034
'[14:17:58.614 18/05/1995]',0.226,0.157,0.040,57.946,0.034
'[14:17:58.616 18/05/1995]',0.247,0.149,0.040,57.846,0.018
'[14:17:58.618 18/05/1995]',0.247,0.149,0.030,57.846,0.018
'[14:17:58.620 18/05/1995]',0.247,0.149,0.020,57.846,0.018
'[14:17:58.622 18/05/1995]',0.267,0.157,0.020,57.846,0.018
'[14:17:58.624 18/05/1995]',0.267,0.157,0.020,57.646,0.001
'[14:17:58.626 18/05/1995]',0.267,0.157,0.020,57.646,0.001
'[14:17:58.628 18/05/1995]',0.267,0.149,0.030,57.646,0.001
'[14:17:58.630 18/05/1995]',0.267,0.149,0.030,57.646,0.001
'[14:17:58.632 18/05/1995]',0.247,0.140,0.040,57.546,-0.016
'[14:17:58.634 18/05/1995]',0.247,0.140,0.020,57.546,-0.016
'[14:17:58.636 18/05/1995]',0.267,0.140,0.020,57.546,-0.016
'[14:17:58.638 18/05/1995]',0.267,0.149,0.020,57.546,-0.016
'[14:17:58.640 18/05/1995]',0.267,0.157,0.020,57.496,-0.033
'[14:17:58.642 18/05/1995]',0.287,0.157,0.020,57.496,-0.033
'[14:17:58.644 18/05/1995]',0.287,0.149,0.010,57.496,-0.033
'[14:17:58.646 18/05/1995]',0.267,0.149,0.020,57.496,-0.033
'[14:17:58.648 18/05/1995]',0.267,0.157,0.030,57.596,-0.050
'[14:17:58.650 18/05/1995]',0.267,0.157,0.030,57.596,-0.050
'[14:17:58.652 18/05/1995]',0.267,0.149,0.030,57.596,-0.050
'[14:17:58.654 18/05/1995]',0.267,0.149,0.020,57.596,-0.050
'[14:17:58.656 18/05/1995]',0.267,0.157,0.020,58.047,-0.066
'[14:17:58.658 18/05/1995]',0.287,0.157,0.010,58.047,-0.066
'[14:17:58.660 18/05/1995]',0.287,0.157,0.020,58.047,-0.066
'[14:17:58.662 18/05/1995]',0.267,0.140,0.020,58.047,-0.066
'[14:17:58.664 18/05/1995]',0.267,0.140,0.030,58.998,-0.081
'[14:17:58.666 18/05/1995]',0.267,0.140,0.030,58.998,-0.081
'[14:17:58.668 18/05/1995]',0.247,0.140,0.020,58.998,-0.081
'[14:17:58.670 18/05/1995]',0.267,0.140,0.020,58.998,-0.081
'[14:17:58.672 18/05/1995]',0.267,0.140,0.010,60.601,-0.097
'[14:17:58.674 18/05/1995]',0.267,0.131,0.010,60.601,-0.097
'[14:17:58.676 18/05/1995]',0.267,0.131,0.010,60.601,-0.097
'[14:17:58.678 18/05/1995]',0.267,0.131,0.020,60.601,-0.097
'[14:17:58.680 18/05/1995]',0.267,0.131,0.030,62.805,-0.111
'[14:17:58.682 18/05/1995]',0.247,0.123,0.030,62.805,-0.111
'[14:17:58.684 18/05/1995]',0.226,0.131,0.020,62.805,-0.111
'[14:17:58.686 18/05/1995]',0.247,0.131,0.020,62.805,-0.111
'[14:17:58.688 18/05/1995]',0.247,0.131,0.020,65.709,-0.124
'[14:17:58.690 18/05/1995]',0.247,0.123,0.020,65.709,-0.124
'[14:17:58.692 18/05/1995]',0.247,0.123,0.020,65.709,-0.124
'[14:17:58.694 18/05/1995]',0.247,0.131,0.030,65.709,-0.124
'[14:17:58.696 18/05/1995]',0.206,0.123,0.030,69.165,-0.137
'[14:17:58.698 18/05/1995]',0.206,0.114,0.030,69.165,-0.137
'[14:17:58.700 18/05/1995]',0.185,0.105,0.030,69.165,-0.137
'[14:17:58.702 18/05/1995]',0.185,0.105,0.030,69.165,-0.137
'[14:17:58.704 18/05/1995]',0.185,0.105,0.020,73.022,-0.148
'[14:17:58.706 18/05/1995]',0.185,0.105,0.020,73.022,-0.148
'[14:17:58.708 18/05/1995]',0.206,0.114,0.020,73.022,-0.148
'[14:17:58.710 18/05/1995]',0.185,0.114,0.020,73.022,-0.148
'[14:17:58.712 18/05/1995]',0.185,0.114,0.020,77.128,-0.159
'[14:17:58.714 18/05/1995]',0.165,0.123,0.030,77.128,-0.159
'[14:17:58.716 18/05/1995]',0.165,0.105,0.030,77.128,-0.159
'[14:17:58.718 18/05/1995]',0.144,0.105,0.030,77.128,-0.159
'[14:17:58.720 18/05/1995]',0.144,0.114,0.030,81.235,-0.168
'[14:17:58.722 18/05/1995]',0.165,0.114,0.020,81.235,-0.168
'[14:17:58.724 18/05/1995]',0.165,0.105,0.020,81.235,-0.168
'[14:17:58.726 18/05/1995]',0.144,0.097,0.020,81.235,-0.168
'[14:17:58.728 18/05/1995]',0.144,0.097,0.020,85.192,-0.177
'[14:17:58.730 18/05/1995]',0.144,0.088,0.030,85.192,-0.177
'[14:17:58.732 18/05/1995]',0.124,0.088,0.030,85.192,-0.177
'[14:17:58.734 18/05/1995]',0.103,0.079,0.030,85.192,-0.177
'[14:17:58.736 18/05/1995]',0.103,0.079,0.020,88.648,-0.185
'[14:17:58.738 18/05/1995]',0.103,0.079,0.020,88.648,-0.185
'[14:17:58.740 18/05/1995]',0.124,0.088,0.010,88.648,-0.185
'[14:17:58.742 18/05/1995]',0.124,0.079,0.010,88.648,-0.185
'[14:17:58.744 18/05/1995]',0.103,0.079,0.020,91.402,-0.194
'[14:17:58.746 18/05/1995]',0.103,0.070,0.030,91.402,-0.194
'[14:17:58.748 18/05/1995]',0.083,0.062,0.030,91.402,-0.194
'[14:17:58.750 18/05/1995]',0.062,0.062,0.030,91.402,-0.194
'[14:17:58.752 18/05/1995]',0.062,0.053,0.020,93.456,-0.203
'[14:17:58.754 18/05/1995]',0.062,0.053,0.010,93.456,-0.203
'[14:17:58.756 18/05/1995]',0.062,0.053,0.001,93.456,-0.203
'[14:17:58.758 18/05/1995]',0.062,0.044,0.010,93.456,-0.203
'[14:17:58.760 18/05/1995]',0.062,0.044,0.010,94.608,-0.211
'[14:17:58.762 18/05/1995]',0.042,0.035,0.020,94.608,-0.211
'[14:17:58.764 18/05/1995]',0.042,0.027,0.020,94.608,-0.211
'[14:17:58.766 18/05/1995]',0.021,0.027,0.020,94.608,-0.211
'[14:17:58.768 18/05/1995]',0.021,0.027,0.020,94.958,-0.221
'[14:17:58.770 18/05/1995]',0.021,0.027,0.010,94.958,-0.221
'[14:17:58.772 18/05/1995]',0.042,0.027,0.001,94.958,-0.221
'[14:17:58.774 18/05/1995]',0.042,0.027,0.001,94.958,-0.221
'[14:17:58.776 18/05/1995]',0.042,0.027,0.001,94.507,-0.230
'[14:17:58.778 18/05/1995]',0.021,0.018,0.001,94.507,-0.230
'[14:17:58.780 18/05/1995]',0.021,0.009,0.001,94.507,-0.230
'[14:17:58.782 18/05/1995]',0.002,0.001,0.010,94.507,-0.230
'[14:17:58.784 18/05/1995]',0.002,0.001,0.001,93.255,-0.238
'[14:17:58.786 18/05/1995]',0.002,0.009,0.001,93.255,-0.238
'[14:17:58.788 18/05/1995]',0.002,0.009,0.001,93.255,-0.238
'[14:17:58.790 18/05/1995]',0.002,0.009,0.001,93.255,-0.238
'[14:17:58.792 18/05/1995]',0.002,0.009,0.001,91.352,-0.247
'[14:17:58.794 18/05/1995]',0.002,0.001,0.001,91.352,-0.247
'[14:17:58.796 18/05/1995]',0.002,0.001,0.010,91.352,-0.247
'[14:17:58.798 18/05/1995]',0.002,0.001,0.010,91.352,-0.247
'[14:17:58.800 18/05/1995]',0.002,0.001,0.010,88.748,-0.257
'[14:17:58.802 18/05/1995]',0.002,0.001,0.001,88.748,-0.257
'[14:17:58.804 18/05/1995]',0.002,0.001,0.001,88.748,-0.257
'[14:17:58.806 18/05/1995]',0.002,0.001,0.001,88.748,-0.257
'[14:17:58.808 18/05/1995]',0.002,0.001,0.001,85.843,-0.266
'[14:17:58.810 18/05/1995]',0.002,0.001,0.001,85.843,-0.266
'[14:17:58.812 18/05/1995]',0.002,0.001,0.001,85.843,-0.266
'[14:17:58.814 18/05/1995]',0.002,0.001,0.001,85.843,-0.266
'[14:17:58.816 18/05/1995]',0.002,0.001,0.010,82.688,-0.275
'[14:17:58.818 18/05/1995]',-0.019,0.001,0.001,82.688,-0.275
'[14:17:58.820 18/05/1995]',0.002,0.001,0.001,82.688,-0.275
'[14:17:58.822 18/05/1995]',0.002,0.001,0.001,82.688,-0.275
'[14:17:58.824 18/05/1995]',0.002,0.001,0.001,79.583,-0.283
'[14:17:58.826 18/05/1995]',0.002,0.001,0.001,79.583,-0.283
'[14:17:58.828 18/05/1995]',0.002,0.001,0.001,79.583,-0.283
'[14:17:58.830 18/05/1995]',0.002,0.001,0.001,79.583,-0.283
'[14:17:58.832 18/05/1995]',0.002,0.001,0.001,76.728,-0.292
'[14:17:58.834 18/05/1995]',0.002,0.001,0.001,76.728,-0.292
'[14:17:58.836 18/05/1995]',0.002,0.001,0.001,76.728,-0.292
'[14:17:58.838 18/05/1995]',0.002,0.001,0.001,76.728,-0.292
'[14:17:58.840 18/05/1995]',0.002,0.001,0.001,74.123,-0.301
'[14:17:58.842 18/05/1995]',0.002,0.001,0.001,74.123,-0.301
'[14:17:58.844 18/05/1995]',0.002,0.001,0.001,74.123,-0.301
'[14:17:58.846 18/05/1995]',0.002,0.001,0.001,74.123,-0.301
'[14:17:58.848 18/05/1995]',0.002,0.001,0.001,71.920,-0.309
'[14:17:58.850 18/05/1995]',0.002,0.001,0.001,71.920,-0.309
'[14:17:58.852 18/05/1995]',0.002,0.001,0.001,71.920,-0.309
'[14:17:58.854 18/05/1995]',0.002,0.001,0.001,71.920,-0.309
'[14:17:58.856 18/05/1995]',0.002,0.001,0.001,70.017,-0.318
'[14:17:58.858 18/05/1995]',0.002,-0.008,0.001,70.017,-0.318
'[14:17:58.860 18/05/1995]',0.002,-0.008,0.001,70.017,-0.318
'[14:17:58.862 18/05/1995]',0.002,-0.017,0.001,70.017,-0.318
'[14:17:58.864 18/05/1995]',0.002,-0.017,0.001,68.464,-0.326
'[14:17:58.866 18/05/1995]',-0.019,-0.025,0.001,68.464,-0.326
'[14:17:58.868 18/05/1995]',-0.019,-0.025,0.001,68.464,-0.326
'[14:17:58.870 18/05/1995]',-0.019,-0.017,0.001,68.464,-0.326
'[14:17:58.872 18/05/1995]',0.002,-0.017,0.001,67.162,-0.333
'[14:17:58.874 18/05/1995]',-0.019,-0.025,0.001,67.162,-0.333
'[14:17:58.876 18/05/1995]',-0.039,-0.034,0.001,67.162,-0.333
'[14:17:58.878 18/05/1995]',-0.060,-0.043,0.001,67.162,-0.333
'[14:17:58.880 18/05/1995]',-0.100,-0.060,0.001,66.060,-0.340
'[14:17:58.882 18/05/1995]',-0.121,-0.078,0.001,66.060,-0.340
'[14:17:58.884 18/05/1995]',-0.162,-0.104,-0.009,66.060,-0.340
'[14:17:58.886 18/05/1995]',-0.162,-0.122,-0.019,66.060,-0.340
'[14:17:58.888 18/05/1995]',-0.182,-0.130,-0.028,65.209,-0.345
'[14:17:58.890 18/05/1995]',-0.203,-0.130,-0.028,65.209,-0.345
'[14:17:58.892 18/05/1995]',-0.244,-0.130,-0.028,65.209,-0.345
'[14:17:58.894 18/05/1995]',-0.264,-0.130,-0.019,65.209,-0.345
'[14:17:58.896 18/05/1995]',-0.304,-0.139,-0.009,64.557,-0.351
'[14:17:58.898 18/05/1995]',-0.345,-0.156,0.001,64.557,-0.351
'[14:17:58.900 18/05/1995]',-0.386,-0.156,0.001,64.557,-0.351
'[14:17:58.902 18/05/1995]',-0.427,-0.183,-0.009,64.557,-0.351
'[14:17:58.904 18/05/1995]',-0.447,-0.200,-0.028,64.107,-0.357
'[14:17:58.906 18/05/1995]',-0.488,-0.235,-0.038,64.107,-0.357
'[14:17:58.908 18/05/1995]',-0.509,-0.270,-0.058,64.107,-0.357
'[14:17:58.910 18/05/1995]',-0.509,-0.296,-0.067,64.107,-0.357
'[14:17:58.912 18/05/1995]',-0.529,-0.313,-0.077,63.756,-0.362
'[14:17:58.914 18/05/1995]',-0.550,-0.340,-0.077,63.756,-0.362
'[14:17:58.916 18/05/1995]',-0.570,-0.348,-0.077,63.756,-0.362
'[14:17:58.918 18/05/1995]',-0.570,-0.357,-0.077,63.756,-0.362
'[14:17:58.920 18/05/1995]',-0.590,-0.357,-0.077,63.556,-0.367
'[14:17:58.922 18/05/1995]',-0.590,-0.357,-0.058,63.556,-0.367
'[14:17:58.924 18/05/1995]',-0.610,-0.357,-0.058,63.556,-0.367
'[14:17:58.926 18/05/1995]',-0.631,-0.366,-0.038,63.556,-0.367
'[14:17:58.928 18/05/1995]',-0.651,-0.357,-0.028,63.456,-0.372
'[14:17:58.930 18/05/1995]',-0.672,-0.357,-0.009,63.456,-0.372
'[14:17:58.932 18/05/1995]',-0.672,-0.357,0.001,63.456,-0.372
'[14:17:58.934 18/05/1995]',-0.692,-0.366,0.001,63.456,-0.372
'[14:17:58.936 18/05/1995]',-0.713,-0.366,0.001,63.456,-0.377
'[14:17:58.938 18/05/1995]',-0.713,-0.366,0.001,63.456,-0.377
'[14:17:58.940 18/05/1995]',-0.713,-0.357,0.001,63.456,-0.377
'[14:17:58.942 18/05/1995]',-0.713,-0.331,0.001,63.456,-0.377
'[14:17:58.944 18/05/1995]',-0.733,-0.331,0.020,63.506,-0.382
'[14:17:58.946 18/05/1995]',-0.753,-0.322,0.040,63.506,-0.382
'[14:17:58.948 18/05/1995]',-0.753,-0.313,0.040,63.506,-0.382
'[14:17:58.950 18/05/1995]',-0.753,-0.313,0.040,63.506,-0.382
'[14:17:58.952 18/05/1995]',-0.733,-0.296,0.040,63.656,-0.387
