'Time and date','I','MCL1','V','ABP','PAP','RESP'
'hh:mm:ss.mmm dd/mm/yyyy','mV','mV','mV','mmHg','mmHg','mV'
'[12:45:33.000 22/05/1995]',0.002,-0.017,0.002,118.330,31.028,0.120
'[12:45:33.002 22/05/1995]',0.002,-0.017,0.002,118.330,31.028,0.120
'[12:45:33.004 22/05/1995]',0.002,-0.017,0.002,118.330,31.028,0.120
'[12:45:33.006 22/05/1995]',0.002,-0.017,0.002,118.330,31.028,0.120
'[12:45:33.008 22/05/1995]',0.002,-0.017,0.002,118.077,30.551,0.131
'[12:45:33.010 22/05/1995]',0.002,-0.017,0.002,118.077,30.551,0.131
'[12:45:33.012 22/05/1995]',0.019,-0.017,0.002,118.077,30.551,0.131
'[12:45:33.014 22/05/1995]',0.002,-0.017,0.002,118.077,30.551,0.131
'[12:45:33.016 22/05/1995]',0.002,-0.017,0.002,117.369,30.125,0.141
'[12:45:33.018 22/05/1995]',0.019,-0.017,0.002,117.369,30.125,0.141
'[12:45:33.020 22/05/1995]',0.019,-0.017,0.002,117.369,30.125,0.141
'[12:45:33.022 22/05/1995]',0.002,-0.017,0.002,117.369,30.125,0.141
'[12:45:33.024 22/05/1995]',0.002,-0.017,0.002,116.256,29.599,0.152
'[12:45:33.026 22/05/1995]',0.002,-0.017,0.002,116.256,29.599,0.152
'[12:45:33.028 22/05/1995]',0.002,-0.017,0.002,116.256,29.599,0.152
'[12:45:33.030 22/05/1995]',0.002,-0.017,0.002,116.256,29.599,0.152
'[12:45:33.032 22/05/1995]',0.002,-0.017,0.002,114.637,28.797,0.163
'[12:45:33.034 22/05/1995]',0.002,-0.017,0.002,114.637,28.797,0.163
'[12:45:33.036 22/05/1995]',0.019,-0.017,0.002,114.637,28.797,0.163
'[12:45:33.038 22/05/1995]',0.002,-0.017,0.002,114.637,28.797,0.163
'[12:45:33.040 22/05/1995]',0.002,-0.017,0.002,112.664,27.794,0.173
'[12:45:33.042 22/05/1995]',0.002,0.002,0.002,112.664,27.794,0.173
'[12:45:33.044 22/05/1995]',0.002,0.002,0.002,112.664,27.794,0.173
'[12:45:33.046 22/05/1995]',0.002,-0.017,0.002,112.664,27.794,0.173
'[12:45:33.048 22/05/1995]',0.002,0.002,0.002,110.236,26.667,0.183
'[12:45:33.050 22/05/1995]',0.002,0.002,0.002,110.236,26.667,0.183
'[12:45:33.052 22/05/1995]',0.002,0.002,0.002,110.236,26.667,0.183
'[12:45:33.054 22/05/1995]',0.019,-0.017,0.002,110.236,26.667,0.183
'[12:45:33.056 22/05/1995]',0.002,-0.017,0.002,107.403,25.739,0.194
'[12:45:33.058 22/05/1995]',0.002,0.002,0.002,107.403,25.739,0.194
'[12:45:33.060 22/05/1995]',0.002,0.002,0.002,107.403,25.739,0.194
'[12:45:33.062 22/05/1995]',0.002,0.002,0.002,107.403,25.739,0.194
'[12:45:33.064 22/05/1995]',0.002,0.002,0.002,104.519,25.138,0.204
'[12:45:33.066 22/05/1995]',0.002,0.002,0.002,104.519,25.138,0.204
'[12:45:33.068 22/05/1995]',0.002,0.002,0.002,104.519,25.138,0.204
'[12:45:33.070 22/05/1995]',0.002,0.002,0.002,104.519,25.138,0.204
'[12:45:33.072 22/05/1995]',0.002,0.002,0.002,101.534,24.737,0.213
'[12:45:33.074 22/05/1995]',0.002,0.002,0.002,101.534,24.737,0.213
'[12:45:33.076 22/05/1995]',0.002,0.002,0.002,101.534,24.737,0.213
'[12:45:33.078 22/05/1995]',0.002,0.002,0.002,101.534,24.737,0.213
'[12:45:33.080 22/05/1995]',0.002,0.002,0.002,98.701,24.135,0.222
'[12:45:33.082 22/05/1995]',0.002,0.002,0.002,98.701,24.135,0.222
'[12:45:33.084 22/05/1995]',0.002,0.002,0.002,98.701,24.135,0.222
'[12:45:33.086 22/05/1995]',0.002,0.002,0.002,98.701,24.135,0.222
'[12:45:33.088 22/05/1995]',0.002,0.002,0.002,96.121,23.434,0.229
'[12:45:33.090 22/05/1995]',0.002,0.002,0.002,96.121,23.434,0.229
'[12:45:33.092 22/05/1995]',0.002,0.002,0.002,96.121,23.434,0.229
'[12:45:33.094 22/05/1995]',0.002,0.002,0.002,96.121,23.434,0.229
'[12:45:33.096 22/05/1995]',0.002,0.002,0.002,93.693,23.083,0.236
'[12:45:33.098 22/05/1995]',0.002,0.002,0.002,93.693,23.083,0.236
'[12:45:33.100 22/05/1995]',0.002,0.002,0.002,93.693,23.083,0.236
'[12:45:33.102 22/05/1995]',0.002,0.002,0.002,93.693,23.083,0.236
'[12:45:33.104 22/05/1995]',0.002,0.002,0.002,91.518,23.383,0.243
'[12:45:33.106 22/05/1995]',0.002,0.002,0.002,91.518,23.383,0.243
'[12:45:33.108 22/05/1995]',0.002,0.002,0.002,91.518,23.383,0.243
'[12:45:33.110 22/05/1995]',0.002,0.002,0.002,91.518,23.383,0.243
'[12:45:33.112 22/05/1995]',0.002,0.002,0.002,89.747,23.860,0.250
'[12:45:33.114 22/05/1995]',0.002,0.002,0.002,89.747,23.860,0.250
'[12:45:33.116 22/05/1995]',0.002,0.002,0.002,89.747,23.860,0.250
'[12:45:33.118 22/05/1995]',0.002,0.002,0.002,89.747,23.860,0.250
'[12:45:33.120 22/05/1995]',0.002,0.002,0.002,88.229,24.035,0.257
'[12:45:33.122 22/05/1995]',0.002,0.002,0.002,88.229,24.035,0.257
'[12:45:33.124 22/05/1995]',0.002,0.002,0.002,88.229,24.035,0.257
'[12:45:33.126 22/05/1995]',0.002,0.002,0.002,88.229,24.035,0.257
'[12:45:33.128 22/05/1995]',0.002,0.002,0.002,86.914,23.860,0.264
'[12:45:33.130 22/05/1995]',0.002,0.002,0.002,86.914,23.860,0.264
'[12:45:33.132 22/05/1995]',0.002,0.002,0.002,86.914,23.860,0.264
'[12:45:33.134 22/05/1995]',0.002,0.002,0.002,86.914,23.860,0.264
'[12:45:33.136 22/05/1995]',0.002,0.002,0.002,86.155,23.559,0.271
'[12:45:33.138 22/05/1995]',0.002,0.002,0.002,86.155,23.559,0.271
'[12:45:33.140 22/05/1995]',0.002,0.002,0.002,86.155,23.559,0.271
'[12:45:33.142 22/05/1995]',0.002,0.002,0.002,86.155,23.559,0.271
'[12:45:33.144 22/05/1995]',0.002,0.002,0.002,85.851,23.158,0.277
'[12:45:33.146 22/05/1995]',0.002,0.002,0.002,85.851,23.158,0.277
'[12:45:33.148 22/05/1995]',0.002,0.002,0.002,85.851,23.158,0.277
'[12:45:33.150 22/05/1995]',0.002,0.002,0.002,85.851,23.158,0.277
'[12:45:33.152 22/05/1995]',0.002,0.002,0.002,86.104,22.957,0.282
'[12:45:33.154 22/05/1995]',0.002,0.002,0.002,86.104,22.957,0.282
'[12:45:33.156 22/05/1995]',0.002,0.002,0.002,86.104,22.957,0.282
'[12:45:33.158 22/05/1995]',0.019,-0.017,0.002,86.104,22.957,0.282
'[12:45:33.160 22/05/1995]',0.002,-0.017,0.002,86.813,23.083,0.288
'[12:45:33.162 22/05/1995]',0.002,-0.017,0.002,86.813,23.083,0.288
'[12:45:33.164 22/05/1995]',0.019,-0.017,0.002,86.813,23.083,0.288
'[12:45:33.166 22/05/1995]',0.019,-0.017,0.002,86.813,23.083,0.288
'[12:45:33.168 22/05/1995]',0.019,-0.017,0.002,87.976,23.509,0.293
'[12:45:33.170 22/05/1995]',0.019,0.002,0.002,87.976,23.509,0.293
'[12:45:33.172 22/05/1995]',0.002,0.002,0.002,87.976,23.509,0.293
'[12:45:33.174 22/05/1995]',0.002,0.002,0.002,87.976,23.509,0.293
'[12:45:33.176 22/05/1995]',0.002,0.002,0.002,89.646,23.910,0.298
'[12:45:33.178 22/05/1995]',0.002,0.002,0.002,89.646,23.910,0.298
'[12:45:33.180 22/05/1995]',0.002,0.002,0.002,89.646,23.910,0.298
'[12:45:33.182 22/05/1995]',0.002,0.002,0.002,89.646,23.910,0.298
'[12:45:33.184 22/05/1995]',0.002,0.002,0.002,91.872,24.211,0.302
'[12:45:33.186 22/05/1995]',0.002,0.002,0.002,91.872,24.211,0.302
'[12:45:33.188 22/05/1995]',0.019,0.002,0.002,91.872,24.211,0.302
'[12:45:33.190 22/05/1995]',0.019,0.002,0.002,91.872,24.211,0.302
'[12:45:33.192 22/05/1995]',0.019,0.002,0.002,94.755,24.135,0.307
'[12:45:33.194 22/05/1995]',0.019,0.002,0.002,94.755,24.135,0.307
'[12:45:33.196 22/05/1995]',0.019,0.002,0.002,94.755,24.135,0.307
'[12:45:33.198 22/05/1995]',0.019,0.002,0.002,94.755,24.135,0.307
'[12:45:33.200 22/05/1995]',0.019,0.002,0.002,98.145,23.609,0.311
'[12:45:33.202 22/05/1995]',0.019,0.002,0.002,98.145,23.609,0.311
'[12:45:33.204 22/05/1995]',0.036,0.002,0.002,98.145,23.609,0.311
'[12:45:33.206 22/05/1995]',0.054,-0.017,0.002,98.145,23.609,0.311
'[12:45:33.208 22/05/1995]',0.054,-0.017,0.002,101.990,22.907,0.317
'[12:45:33.210 22/05/1995]',0.072,-0.036,-0.016,101.990,22.907,0.317
'[12:45:33.212 22/05/1995]',0.072,-0.036,-0.016,101.990,22.907,0.317
'[12:45:33.214 22/05/1995]',0.072,-0.055,-0.034,101.990,22.907,0.317
'[12:45:33.216 22/05/1995]',0.072,-0.055,-0.016,106.189,22.331,0.322
'[12:45:33.218 22/05/1995]',0.072,-0.073,-0.034,106.189,22.331,0.322
'[12:45:33.220 22/05/1995]',0.090,-0.073,-0.034,106.189,22.331,0.322
'[12:45:33.222 22/05/1995]',0.090,-0.073,-0.034,106.189,22.331,0.322
'[12:45:33.224 22/05/1995]',0.090,-0.092,-0.034,110.489,22.080,0.327
'[12:45:33.226 22/05/1995]',0.090,-0.092,-0.034,110.489,22.080,0.327
'[12:45:33.228 22/05/1995]',0.090,-0.092,-0.034,110.489,22.080,0.327
'[12:45:33.230 22/05/1995]',0.072,-0.092,-0.034,110.489,22.080,0.327
'[12:45:33.232 22/05/1995]',0.072,-0.073,-0.034,114.941,22.381,0.333
'[12:45:33.234 22/05/1995]',0.072,-0.073,-0.034,114.941,22.381,0.333
'[12:45:33.236 22/05/1995]',0.072,-0.055,-0.034,114.941,22.381,0.333
'[12:45:33.238 22/05/1995]',0.054,-0.055,-0.016,114.941,22.381,0.333
'[12:45:33.240 22/05/1995]',0.054,-0.055,-0.034,119.544,22.907,0.339
'[12:45:33.242 22/05/1995]',0.054,-0.073,-0.034,119.544,22.907,0.339
'[12:45:33.244 22/05/1995]',0.054,-0.055,-0.016,119.544,22.907,0.339
'[12:45:33.246 22/05/1995]',0.036,-0.055,-0.016,119.544,22.907,0.339
'[12:45:33.248 22/05/1995]',0.019,-0.036,-0.016,124.098,23.383,0.345
'[12:45:33.250 22/05/1995]',0.019,-0.036,0.002,124.098,23.383,0.345
'[12:45:33.252 22/05/1995]',0.019,-0.036,0.002,124.098,23.383,0.345
'[12:45:33.254 22/05/1995]',0.019,-0.036,0.002,124.098,23.383,0.345
'[12:45:33.256 22/05/1995]',0.019,-0.017,0.002,128.499,23.258,0.352
'[12:45:33.258 22/05/1995]',0.002,-0.017,0.002,128.499,23.258,0.352
'[12:45:33.260 22/05/1995]',0.002,-0.017,0.002,128.499,23.258,0.352
'[12:45:33.262 22/05/1995]',0.002,-0.017,0.002,128.499,23.258,0.352
'[12:45:33.264 22/05/1995]',0.002,-0.017,0.002,132.496,22.682,0.358
'[12:45:33.266 22/05/1995]',0.002,-0.017,0.002,132.496,22.682,0.358
'[12:45:33.268 22/05/1995]',0.002,-0.036,-0.016,132.496,22.682,0.358
'[12:45:33.270 22/05/1995]',0.019,-0.017,0.002,132.496,22.682,0.358
'[12:45:33.272 22/05/1995]',0.019,-0.017,0.002,136.087,21.805,0.365
'[12:45:33.274 22/05/1995]',0.002,-0.036,0.002,136.087,21.805,0.365
'[12:45:33.276 22/05/1995]',0.002,-0.036,-0.016,136.087,21.805,0.365
'[12:45:33.278 22/05/1995]',0.002,-0.017,0.002,136.087,21.805,0.365
'[12:45:33.280 22/05/1995]',0.002,-0.017,-0.016,139.072,20.902,0.371
'[12:45:33.282 22/05/1995]',0.002,-0.017,0.002,139.072,20.902,0.371
'[12:45:33.284 22/05/1995]',0.002,-0.017,0.002,139.072,20.902,0.371
'[12:45:33.286 22/05/1995]',0.002,-0.017,0.002,139.072,20.902,0.371
'[12:45:33.288 22/05/1995]',0.002,-0.017,0.002,141.551,20.326,0.378
'[12:45:33.290 22/05/1995]',0.002,-0.017,0.002,141.551,20.326,0.378
'[12:45:33.292 22/05/1995]',0.002,-0.017,0.002,141.551,20.326,0.378
'[12:45:33.294 22/05/1995]',0.002,-0.017,0.002,141.551,20.326,0.378
'[12:45:33.296 22/05/1995]',0.002,-0.017,0.002,143.474,20.150,0.384
'[12:45:33.298 22/05/1995]',0.002,-0.036,0.002,143.474,20.150,0.384
'[12:45:33.300 22/05/1995]',0.002,-0.017,0.002,143.474,20.150,0.384
'[12:45:33.302 22/05/1995]',0.002,-0.017,0.002,143.474,20.150,0.384
'[12:45:33.304 22/05/1995]',0.002,-0.017,0.002,144.789,20.326,0.390
'[12:45:33.306 22/05/1995]',0.002,-0.017,0.002,144.789,20.326,0.390
'[12:45:33.308 22/05/1995]',0.002,-0.017,0.002,144.789,20.326,0.390
'[12:45:33.310 22/05/1995]',0.002,0.002,0.002,144.789,20.326,0.390
'[12:45:33.312 22/05/1995]',-0.016,0.002,0.002,145.345,20.677,0.395
'[12:45:33.314 22/05/1995]',-0.034,0.038,0.018,145.345,20.677,0.395
'[12:45:33.316 22/05/1995]',-0.070,0.076,0.036,145.345,20.677,0.395
'[12:45:33.318 22/05/1995]',-0.123,0.132,0.071,145.345,20.677,0.395
'[12:45:33.320 22/05/1995]',-0.141,0.151,0.071,145.447,21.203,0.401
'[12:45:33.322 22/05/1995]',-0.141,0.151,0.071,145.447,21.203,0.401
'[12:45:33.324 22/05/1995]',-0.141,0.132,0.071,145.447,21.203,0.401
'[12:45:33.326 22/05/1995]',-0.105,0.095,0.054,145.447,21.203,0.401
'[12:45:33.328 22/05/1995]',-0.070,0.038,0.018,144.738,21.805,0.406
'[12:45:33.330 22/05/1995]',-0.034,0.002,0.002,144.738,21.805,0.406
'[12:45:33.332 22/05/1995]',0.019,-0.073,-0.016,144.738,21.805,0.406
'[12:45:33.334 22/05/1995]',0.108,-0.167,-0.086,144.738,21.805,0.406
'[12:45:33.336 22/05/1995]',0.233,-0.316,-0.139,143.271,21.855,0.412
'[12:45:33.338 22/05/1995]',0.375,-0.466,-0.210,143.271,21.855,0.412
'[12:45:33.340 22/05/1995]',0.517,-0.634,-0.262,143.271,21.855,0.412
'[12:45:33.342 22/05/1995]',0.677,-0.802,-0.332,143.271,21.855,0.412
'[12:45:33.344 22/05/1995]',0.873,-1.046,-0.420,140.944,21.153,0.419
'[12:45:33.346 22/05/1995]',1.086,-1.308,-0.542,140.944,21.153,0.419
'[12:45:33.348 22/05/1995]',1.229,-1.494,-0.630,140.944,21.153,0.419
'[12:45:33.350 22/05/1995]',1.247,-1.513,-0.648,140.944,21.153,0.419
'[12:45:33.352 22/05/1995]',1.139,-1.419,-0.630,137.605,19.749,0.425
'[12:45:33.354 22/05/1995]',0.980,-1.270,-0.578,137.605,19.749,0.425
'[12:45:33.356 22/05/1995]',0.731,-0.990,-0.507,137.605,19.749,0.425
'[12:45:33.358 22/05/1995]',0.517,-0.747,-0.455,137.605,19.749,0.425
'[12:45:33.360 22/05/1995]',0.357,-0.540,-0.385,133.254,18.396,0.431
'[12:45:33.362 22/05/1995]',0.268,-0.410,-0.350,133.254,18.396,0.431
'[12:45:33.364 22/05/1995]',0.197,-0.354,-0.314,133.254,18.396,0.431
'[12:45:33.366 22/05/1995]',0.161,-0.335,-0.279,133.254,18.396,0.431
'[12:45:33.368 22/05/1995]',0.144,-0.298,-0.262,128.044,18.095,0.438
'[12:45:33.370 22/05/1995]',0.126,-0.279,-0.227,128.044,18.095,0.438
'[12:45:33.372 22/05/1995]',0.108,-0.261,-0.192,128.044,18.095,0.438
'[12:45:33.374 22/05/1995]',0.072,-0.205,-0.157,128.044,18.095,0.438
'[12:45:33.376 22/05/1995]',0.036,-0.148,-0.104,122.023,19.273,0.443
'[12:45:33.378 22/05/1995]',0.019,-0.111,-0.086,122.023,19.273,0.443
'[12:45:33.380 22/05/1995]',0.002,-0.073,-0.051,122.023,19.273,0.443
'[12:45:33.382 22/05/1995]',0.002,-0.036,-0.016,122.023,19.273,0.443
'[12:45:33.384 22/05/1995]',-0.016,0.002,0.002,115.497,21.328,0.449
'[12:45:33.386 22/05/1995]',-0.034,0.020,0.002,115.497,21.328,0.449
'[12:45:33.388 22/05/1995]',-0.052,0.038,0.018,115.497,21.328,0.449
'[12:45:33.390 22/05/1995]',-0.052,0.057,0.018,115.497,21.328,0.449
'[12:45:33.392 22/05/1995]',-0.070,0.076,0.036,108.718,22.682,0.454
'[12:45:33.394 22/05/1995]',-0.088,0.076,0.036,108.718,22.682,0.454
'[12:45:33.396 22/05/1995]',-0.088,0.095,0.054,108.718,22.682,0.454
'[12:45:33.398 22/05/1995]',-0.088,0.095,0.054,108.718,22.682,0.454
'[12:45:33.400 22/05/1995]',-0.105,0.113,0.054,101.990,22.155,0.459
'[12:45:33.402 22/05/1995]',-0.105,0.113,0.054,101.990,22.155,0.459
'[12:45:33.404 22/05/1995]',-0.105,0.113,0.054,101.990,22.155,0.459
'[12:45:33.406 22/05/1995]',-0.105,0.113,0.054,101.990,22.155,0.459
'[12:45:33.408 22/05/1995]',-0.105,0.132,0.071,95.261,20.376,0.464
'[12:45:33.410 22/05/1995]',-0.105,0.132,0.071,95.261,20.376,0.464
'[12:45:33.412 22/05/1995]',-0.105,0.132,0.071,95.261,20.376,0.464
'[12:45:33.414 22/05/1995]',-0.105,0.132,0.071,95.261,20.376,0.464
'[12:45:33.416 22/05/1995]',-0.123,0.132,0.071,88.937,18.972,0.469
'[12:45:33.418 22/05/1995]',-0.105,0.132,0.071,88.937,18.972,0.469
'[12:45:33.420 22/05/1995]',-0.105,0.132,0.071,88.937,18.972,0.469
'[12:45:33.422 22/05/1995]',-0.105,0.132,0.071,88.937,18.972,0.469
'[12:45:33.424 22/05/1995]',-0.105,0.132,0.071,82.968,18.622,0.472
'[12:45:33.426 22/05/1995]',-0.105,0.132,0.071,82.968,18.622,0.472
'[12:45:33.428 22/05/1995]',-0.105,0.132,0.071,82.968,18.622,0.472
'[12:45:33.430 22/05/1995]',-0.105,0.132,0.071,82.968,18.622,0.472
'[12:45:33.432 22/05/1995]',-0.105,0.132,0.071,77.453,19.273,0.476
'[12:45:33.434 22/05/1995]',-0.105,0.132,0.071,77.453,19.273,0.476
'[12:45:33.436 22/05/1995]',-0.105,0.132,0.071,77.453,19.273,0.476
'[12:45:33.438 22/05/1995]',-0.105,0.132,0.071,77.453,19.273,0.476
'[12:45:33.440 22/05/1995]',-0.105,0.132,0.071,72.344,20.852,0.479
'[12:45:33.442 22/05/1995]',-0.105,0.132,0.071,72.344,20.852,0.479
'[12:45:33.444 22/05/1995]',-0.105,0.132,0.071,72.344,20.852,0.479
'[12:45:33.446 22/05/1995]',-0.105,0.132,0.071,72.344,20.852,0.479
'[12:45:33.448 22/05/1995]',-0.105,0.132,0.071,67.690,22.782,0.481
'[12:45:33.450 22/05/1995]',-0.105,0.132,0.071,67.690,22.782,0.481
'[12:45:33.452 22/05/1995]',-0.105,0.132,0.071,67.690,22.782,0.481
'[12:45:33.454 22/05/1995]',-0.088,0.132,0.071,67.690,22.782,0.481
'[12:45:33.456 22/05/1995]',-0.105,0.132,0.071,63.541,23.960,0.483
'[12:45:33.458 22/05/1995]',-0.105,0.132,0.071,63.541,23.960,0.483
'[12:45:33.460 22/05/1995]',-0.105,0.132,0.089,63.541,23.960,0.483
'[12:45:33.462 22/05/1995]',-0.105,0.132,0.071,63.541,23.960,0.483
'[12:45:33.464 22/05/1995]',-0.105,0.132,0.071,59.798,23.383,0.484
'[12:45:33.466 22/05/1995]',-0.105,0.132,0.071,59.798,23.383,0.484
'[12:45:33.468 22/05/1995]',-0.105,0.132,0.071,59.798,23.383,0.484
'[12:45:33.470 22/05/1995]',-0.105,0.132,0.071,59.798,23.383,0.484
'[12:45:33.472 22/05/1995]',-0.105,0.132,0.071,56.610,22.030,0.485
'[12:45:33.474 22/05/1995]',-0.088,0.132,0.071,56.610,22.030,0.485
'[12:45:33.476 22/05/1995]',-0.105,0.132,0.071,56.610,22.030,0.485
'[12:45:33.478 22/05/1995]',-0.088,0.132,0.071,56.610,22.030,0.485
'[12:45:33.480 22/05/1995]',-0.105,0.132,0.071,54.182,22.030,0.485
'[12:45:33.482 22/05/1995]',-0.105,0.132,0.071,54.182,22.030,0.485
'[12:45:33.484 22/05/1995]',-0.105,0.132,0.071,54.182,22.030,0.485
'[12:45:33.486 22/05/1995]',-0.105,0.132,0.071,54.182,22.030,0.485
'[12:45:33.488 22/05/1995]',-0.105,0.132,0.071,52.614,24.311,0.484
'[12:45:33.490 22/05/1995]',-0.105,0.132,0.071,52.614,24.311,0.484
'[12:45:33.492 22/05/1995]',-0.105,0.132,0.071,52.614,24.311,0.484
'[12:45:33.494 22/05/1995]',-0.105,0.132,0.071,52.614,24.311,0.484
'[12:45:33.496 22/05/1995]',-0.105,0.132,0.071,51.956,27.444,0.484
'[12:45:33.498 22/05/1995]',-0.105,0.132,0.071,51.956,27.444,0.484
'[12:45:33.500 22/05/1995]',-0.105,0.132,0.071,51.956,27.444,0.484
'[12:45:33.502 22/05/1995]',-0.105,0.132,0.071,51.956,27.444,0.484
'[12:45:33.504 22/05/1995]',-0.105,0.132,0.071,52.462,29.774,0.483
'[12:45:33.506 22/05/1995]',-0.105,0.132,0.071,52.462,29.774,0.483
'[12:45:33.508 22/05/1995]',-0.105,0.132,0.071,52.462,29.774,0.483
'[12:45:33.510 22/05/1995]',-0.105,0.132,0.071,52.462,29.774,0.483
'[12:45:33.512 22/05/1995]',-0.105,0.132,0.071,54.435,31.128,0.482
'[12:45:33.514 22/05/1995]',-0.105,0.132,0.071,54.435,31.128,0.482
'[12:45:33.516 22/05/1995]',-0.105,0.132,0.089,54.435,31.128,0.482
'[12:45:33.518 22/05/1995]',-0.105,0.151,0.089,54.435,31.128,0.482
'[12:45:33.520 22/05/1995]',-0.105,0.132,0.089,57.369,31.729,0.481
'[12:45:33.522 22/05/1995]',-0.105,0.132,0.089,57.369,31.729,0.481
'[12:45:33.524 22/05/1995]',-0.105,0.132,0.089,57.369,31.729,0.481
'[12:45:33.526 22/05/1995]',-0.123,0.151,0.089,57.369,31.729,0.481
'[12:45:33.528 22/05/1995]',-0.123,0.151,0.089,60.759,31.955,0.480
'[12:45:33.530 22/05/1995]',-0.123,0.151,0.089,60.759,31.955,0.480
'[12:45:33.532 22/05/1995]',-0.123,0.151,0.089,60.759,31.955,0.480
'[12:45:33.534 22/05/1995]',-0.123,0.151,0.089,60.759,31.955,0.480
'[12:45:33.536 22/05/1995]',-0.123,0.151,0.089,64.452,32.356,0.479
'[12:45:33.538 22/05/1995]',-0.123,0.151,0.089,64.452,32.356,0.479
'[12:45:33.540 22/05/1995]',-0.123,0.151,0.089,64.452,32.356,0.479
'[12:45:33.542 22/05/1995]',-0.123,0.151,0.089,64.452,32.356,0.479
'[12:45:33.544 22/05/1995]',-0.123,0.151,0.089,68.499,33.008,0.478
'[12:45:33.546 22/05/1995]',-0.123,0.170,0.089,68.499,33.008,0.478
'[12:45:33.548 22/05/1995]',-0.123,0.170,0.089,68.499,33.008,0.478
'[12:45:33.550 22/05/1995]',-0.141,0.170,0.089,68.499,33.008,0.478
'[12:45:33.552 22/05/1995]',-0.141,0.170,0.106,72.698,33.308,0.477
'[12:45:33.554 22/05/1995]',-0.141,0.170,0.089,72.698,33.308,0.477
'[12:45:33.556 22/05/1995]',-0.141,0.170,0.106,72.698,33.308,0.477
'[12:45:33.558 22/05/1995]',-0.141,0.170,0.106,72.698,33.308,0.477
'[12:45:33.560 22/05/1995]',-0.141,0.170,0.106,76.998,33.008,0.476
'[12:45:33.562 22/05/1995]',-0.141,0.170,0.106,76.998,33.008,0.476
'[12:45:33.564 22/05/1995]',-0.141,0.170,0.106,76.998,33.008,0.476
'[12:45:33.566 22/05/1995]',-0.159,0.170,0.089,76.998,33.008,0.476
'[12:45:33.568 22/05/1995]',-0.141,0.170,0.106,81.349,32.481,0.475
'[12:45:33.570 22/05/1995]',-0.141,0.170,0.089,81.349,32.481,0.475
'[12:45:33.572 22/05/1995]',-0.141,0.170,0.106,81.349,32.481,0.475
'[12:45:33.574 22/05/1995]',-0.141,0.151,0.089,81.349,32.481,0.475
'[12:45:33.576 22/05/1995]',-0.141,0.151,0.089,85.599,32.356,0.474
'[12:45:33.578 22/05/1995]',-0.141,0.151,0.089,85.599,32.356,0.474
'[12:45:33.580 22/05/1995]',-0.141,0.151,0.089,85.599,32.356,0.474
'[12:45:33.582 22/05/1995]',-0.141,0.151,0.089,85.599,32.356,0.474
'[12:45:33.584 22/05/1995]',-0.123,0.132,0.071,89.747,32.782,0.473
'[12:45:33.586 22/05/1995]',-0.123,0.132,0.089,89.747,32.782,0.473
'[12:45:33.588 22/05/1995]',-0.123,0.132,0.071,89.747,32.782,0.473
'[12:45:33.590 22/05/1995]',-0.123,0.132,0.071,89.747,32.782,0.473
'[12:45:33.592 22/05/1995]',-0.123,0.113,0.071,93.693,33.609,0.472
'[12:45:33.594 22/05/1995]',-0.123,0.113,0.071,93.693,33.609,0.472
'[12:45:33.596 22/05/1995]',-0.123,0.113,0.054,93.693,33.609,0.472
'[12:45:33.598 22/05/1995]',-0.105,0.095,0.054,93.693,33.609,0.472
'[12:45:33.600 22/05/1995]',-0.105,0.095,0.054,97.386,34.361,0.471
'[12:45:33.602 22/05/1995]',-0.105,0.076,0.054,97.386,34.361,0.471
'[12:45:33.604 22/05/1995]',-0.088,0.076,0.054,97.386,34.361,0.471
'[12:45:33.606 22/05/1995]',-0.088,0.057,0.054,97.386,34.361,0.471
'[12:45:33.608 22/05/1995]',-0.088,0.057,0.036,100.826,34.612,0.470
'[12:45:33.610 22/05/1995]',-0.070,0.038,0.036,100.826,34.612,0.470
'[12:45:33.612 22/05/1995]',-0.070,0.038,0.036,100.826,34.612,0.470
'[12:45:33.614 22/05/1995]',-0.052,0.020,0.018,100.826,34.612,0.470
'[12:45:33.616 22/05/1995]',-0.052,0.020,0.018,103.862,34.436,0.470
'[12:45:33.618 22/05/1995]',-0.052,0.002,0.018,103.862,34.436,0.470
'[12:45:33.620 22/05/1995]',-0.034,0.002,0.018,103.862,34.436,0.470
'[12:45:33.622 22/05/1995]',-0.034,0.002,0.018,103.862,34.436,0.470
'[12:45:33.624 22/05/1995]',-0.034,0.002,0.018,106.442,34.185,0.471
'[12:45:33.626 22/05/1995]',-0.016,0.002,0.002,106.442,34.185,0.471
'[12:45:33.628 22/05/1995]',-0.016,0.002,0.002,106.442,34.185,0.471
'[12:45:33.630 22/05/1995]',-0.016,0.002,0.002,106.442,34.185,0.471
'[12:45:33.632 22/05/1995]',-0.016,0.002,0.002,108.566,34.060,0.473
'[12:45:33.634 22/05/1995]',-0.016,0.002,0.002,108.566,34.060,0.473
'[12:45:33.636 22/05/1995]',0.002,0.002,0.002,108.566,34.060,0.473
'[12:45:33.638 22/05/1995]',0.002,0.002,0.002,108.566,34.060,0.473
'[12:45:33.640 22/05/1995]',0.002,0.002,0.002,110.084,33.709,0.475
'[12:45:33.642 22/05/1995]',0.002,-0.017,0.002,110.084,33.709,0.475
'[12:45:33.644 22/05/1995]',0.002,-0.017,0.002,110.084,33.709,0.475
'[12:45:33.646 22/05/1995]',0.002,-0.017,0.002,110.084,33.709,0.475
'[12:45:33.648 22/05/1995]',0.002,-0.017,0.002,111.096,33.183,0.478
'[12:45:33.650 22/05/1995]',0.002,-0.017,0.002,111.096,33.183,0.478
'[12:45:33.652 22/05/1995]',0.002,-0.017,0.002,111.096,33.183,0.478
'[12:45:33.654 22/05/1995]',0.002,-0.017,0.002,111.096,33.183,0.478
'[12:45:33.656 22/05/1995]',0.002,-0.017,0.002,111.501,32.732,0.481
'[12:45:33.658 22/05/1995]',0.002,-0.017,0.002,111.501,32.732,0.481
'[12:45:33.660 22/05/1995]',0.002,-0.017,0.002,111.501,32.732,0.481
'[12:45:33.662 22/05/1995]',0.002,-0.017,0.002,111.501,32.732,0.481
'[12:45:33.664 22/05/1995]',0.002,-0.017,0.002,111.450,32.431,0.485
'[12:45:33.666 22/05/1995]',0.002,-0.017,0.002,111.450,32.431,0.485
'[12:45:33.668 22/05/1995]',0.002,-0.017,0.002,111.450,32.431,0.485
'[12:45:33.670 22/05/1995]',0.002,-0.017,0.002,111.450,32.431,0.485
'[12:45:33.672 22/05/1995]',0.002,-0.017,0.002,110.944,32.256,0.489
'[12:45:33.674 22/05/1995]',0.002,-0.017,0.002,110.944,32.256,0.489
'[12:45:33.676 22/05/1995]',0.002,-0.017,0.002,110.944,32.256,0.489
'[12:45:33.678 22/05/1995]',0.002,-0.017,0.002,110.944,32.256,0.489
'[12:45:33.680 22/05/1995]',0.002,-0.017,0.002,109.932,31.955,0.493
'[12:45:33.682 22/05/1995]',0.002,-0.017,0.002,109.932,31.955,0.493
'[12:45:33.684 22/05/1995]',0.002,-0.017,0.002,109.932,31.955,0.493
'[12:45:33.686 22/05/1995]',0.002,-0.017,0.002,109.932,31.955,0.493
'[12:45:33.688 22/05/1995]',0.002,-0.017,0.002,108.415,31.554,0.496
'[12:45:33.690 22/05/1995]',0.002,0.002,0.002,108.415,31.554,0.496
'[12:45:33.692 22/05/1995]',0.002,-0.017,0.002,108.415,31.554,0.496
'[12:45:33.694 22/05/1995]',0.002,-0.017,0.002,108.415,31.554,0.496
'[12:45:33.696 22/05/1995]',0.002,-0.017,0.002,106.593,30.952,0.498
'[12:45:33.698 22/05/1995]',0.002,-0.017,0.002,106.593,30.952,0.498
'[12:45:33.700 22/05/1995]',0.002,-0.017,0.002,106.593,30.952,0.498
'[12:45:33.702 22/05/1995]',0.002,-0.017,0.002,106.593,30.952,0.498
'[12:45:33.704 22/05/1995]',0.002,0.002,0.002,104.367,30.201,0.501
'[12:45:33.706 22/05/1995]',0.002,0.002,0.002,104.367,30.201,0.501
'[12:45:33.708 22/05/1995]',0.002,0.002,0.002,104.367,30.201,0.501
'[12:45:33.710 22/05/1995]',0.002,-0.017,0.002,104.367,30.201,0.501
'[12:45:33.712 22/05/1995]',0.002,-0.017,0.002,101.787,29.323,0.502
'[12:45:33.714 22/05/1995]',0.002,0.002,0.002,101.787,29.323,0.502
'[12:45:33.716 22/05/1995]',0.002,0.002,0.002,101.787,29.323,0.502
'[12:45:33.718 22/05/1995]',0.002,0.002,0.002,101.787,29.323,0.502
'[12:45:33.720 22/05/1995]',0.002,-0.017,0.002,99.055,28.596,0.503
'[12:45:33.722 22/05/1995]',0.002,0.002,0.002,99.055,28.596,0.503
'[12:45:33.724 22/05/1995]',0.002,0.002,0.002,99.055,28.596,0.503
'[12:45:33.726 22/05/1995]',0.002,-0.017,0.002,99.055,28.596,0.503
'[12:45:33.728 22/05/1995]',0.002,-0.017,0.002,96.273,28.145,0.504
'[12:45:33.730 22/05/1995]',0.002,-0.017,0.002,96.273,28.145,0.504
'[12:45:33.732 22/05/1995]',0.002,0.002,0.002,96.273,28.145,0.504
'[12:45:33.734 22/05/1995]',0.002,-0.017,0.002,96.273,28.145,0.504
'[12:45:33.736 22/05/1995]',0.002,-0.017,0.002,93.592,27.669,0.505
'[12:45:33.738 22/05/1995]',0.002,0.002,0.002,93.592,27.669,0.505
'[12:45:33.740 22/05/1995]',0.002,0.002,0.002,93.592,27.669,0.505
'[12:45:33.742 22/05/1995]',0.002,0.002,0.002,93.592,27.669,0.505
'[12:45:33.744 22/05/1995]',0.002,-0.017,0.002,91.163,27.143,0.505
'[12:45:33.746 22/05/1995]',0.002,0.002,0.002,91.163,27.143,0.505
'[12:45:33.748 22/05/1995]',0.002,-0.017,0.002,91.163,27.143,0.505
'[12:45:33.750 22/05/1995]',0.002,-0.017,0.002,91.163,27.143,0.505
'[12:45:33.752 22/05/1995]',0.002,-0.017,0.002,88.988,26.491,0.505
'[12:45:33.754 22/05/1995]',0.002,-0.017,0.002,88.988,26.491,0.505
'[12:45:33.756 22/05/1995]',0.002,-0.017,0.002,88.988,26.491,0.505
'[12:45:33.758 22/05/1995]',0.002,-0.017,0.002,88.988,26.491,0.505
'[12:45:33.760 22/05/1995]',0.002,-0.017,0.002,87.116,25.564,0.504
'[12:45:33.762 22/05/1995]',0.002,-0.017,0.002,87.116,25.564,0.504
'[12:45:33.764 22/05/1995]',0.002,-0.017,0.002,87.116,25.564,0.504
'[12:45:33.766 22/05/1995]',0.002,-0.017,0.002,87.116,25.564,0.504
'[12:45:33.768 22/05/1995]',0.002,-0.017,0.002,85.548,24.662,0.504
'[12:45:33.770 22/05/1995]',0.002,-0.017,0.002,85.548,24.662,0.504
'[12:45:33.772 22/05/1995]',0.002,0.002,0.002,85.548,24.662,0.504
'[12:45:33.774 22/05/1995]',0.002,-0.017,0.002,85.548,24.662,0.504
'[12:45:33.776 22/05/1995]',0.019,-0.017,0.002,84.233,24.561,0.503
'[12:45:33.778 22/05/1995]',0.002,-0.017,-0.016,84.233,24.561,0.503
'[12:45:33.780 22/05/1995]',0.002,-0.017,0.002,84.233,24.561,0.503
'[12:45:33.782 22/05/1995]',0.002,-0.017,0.002,84.233,24.561,0.503
'[12:45:33.784 22/05/1995]',0.019,-0.017,0.002,83.170,25.213,0.501
'[12:45:33.786 22/05/1995]',0.019,-0.017,0.002,83.170,25.213,0.501
'[12:45:33.788 22/05/1995]',0.002,-0.017,-0.016,83.170,25.213,0.501
'[12:45:33.790 22/05/1995]',0.002,-0.017,0.002,83.170,25.213,0.501
'[12:45:33.792 22/05/1995]',0.002,-0.017,0.002,82.411,25.915,0.499
'[12:45:33.794 22/05/1995]',0.002,-0.017,0.002,82.411,25.915,0.499
'[12:45:33.796 22/05/1995]',0.019,-0.017,0.002,82.411,25.915,0.499
'[12:45:33.798 22/05/1995]',0.019,-0.017,0.002,82.411,25.915,0.499
'[12:45:33.800 22/05/1995]',0.019,-0.017,0.002,82.158,25.739,0.497
'[12:45:33.802 22/05/1995]',0.019,-0.017,-0.016,82.158,25.739,0.497
'[12:45:33.804 22/05/1995]',0.019,-0.017,-0.016,82.158,25.739,0.497
'[12:45:33.806 22/05/1995]',0.019,-0.017,-0.016,82.158,25.739,0.497
'[12:45:33.808 22/05/1995]',0.019,-0.017,-0.016,82.361,24.737,0.495
'[12:45:33.810 22/05/1995]',0.019,-0.017,-0.016,82.361,24.737,0.495
'[12:45:33.812 22/05/1995]',0.019,-0.017,-0.016,82.361,24.737,0.495
'[12:45:33.814 22/05/1995]',0.019,-0.017,-0.016,82.361,24.737,0.495
'[12:45:33.816 22/05/1995]',0.019,-0.017,-0.016,82.968,23.860,0.493
'[12:45:33.818 22/05/1995]',0.019,-0.017,0.002,82.968,23.860,0.493
'[12:45:33.820 22/05/1995]',0.019,-0.017,0.002,82.968,23.860,0.493
'[12:45:33.822 22/05/1995]',0.019,-0.017,0.002,82.968,23.860,0.493
'[12:45:33.824 22/05/1995]',0.019,-0.017,0.002,84.030,23.910,0.491
'[12:45:33.826 22/05/1995]',0.002,-0.017,0.002,84.030,23.910,0.491
'[12:45:33.828 22/05/1995]',0.019,-0.017,0.002,84.030,23.910,0.491
'[12:45:33.830 22/05/1995]',0.019,-0.017,-0.016,84.030,23.910,0.491
'[12:45:33.832 22/05/1995]',0.019,-0.017,0.002,85.599,24.912,0.489
'[12:45:33.834 22/05/1995]',0.019,-0.017,0.002,85.599,24.912,0.489
'[12:45:33.836 22/05/1995]',0.019,-0.017,0.002,85.599,24.912,0.489
'[12:45:33.838 22/05/1995]',0.019,-0.017,0.002,85.599,24.912,0.489
'[12:45:33.840 22/05/1995]',0.019,-0.017,0.002,87.673,26.140,0.487
'[12:45:33.842 22/05/1995]',0.019,0.002,0.002,87.673,26.140,0.487
'[12:45:33.844 22/05/1995]',0.019,0.002,0.002,87.673,26.140,0.487
'[12:45:33.846 22/05/1995]',0.002,0.002,0.002,87.673,26.140,0.487
'[12:45:33.848 22/05/1995]',0.002,0.002,0.002,90.354,26.842,0.485
'[12:45:33.850 22/05/1995]',0.002,0.002,0.002,90.354,26.842,0.485
'[12:45:33.852 22/05/1995]',0.002,0.002,0.002,90.354,26.842,0.485
'[12:45:33.854 22/05/1995]',0.019,0.002,0.002,90.354,26.842,0.485
'[12:45:33.856 22/05/1995]',0.002,0.002,0.002,93.491,26.617,0.483
'[12:45:33.858 22/05/1995]',0.019,0.002,0.002,93.491,26.617,0.483
'[12:45:33.860 22/05/1995]',0.019,0.002,0.002,93.491,26.617,0.483
'[12:45:33.862 22/05/1995]',0.019,0.002,0.002,93.491,26.617,0.483
'[12:45:33.864 22/05/1995]',0.019,0.002,0.002,97.133,25.739,0.482
'[12:45:33.866 22/05/1995]',0.019,0.002,0.002,97.133,25.739,0.482
'[12:45:33.868 22/05/1995]',0.036,0.002,0.002,97.133,25.739,0.482
'[12:45:33.870 22/05/1995]',0.036,-0.017,0.002,97.133,25.739,0.482
'[12:45:33.872 22/05/1995]',0.036,-0.017,-0.016,100.978,24.837,0.481
'[12:45:33.874 22/05/1995]',0.054,-0.017,-0.016,100.978,24.837,0.481
'[12:45:33.876 22/05/1995]',0.054,-0.036,-0.016,100.978,24.837,0.481
'[12:45:33.878 22/05/1995]',0.072,-0.036,-0.034,100.978,24.837,0.481
'[12:45:33.880 22/05/1995]',0.072,-0.055,-0.034,105.076,24.486,0.480
'[12:45:33.882 22/05/1995]',0.072,-0.055,-0.034,105.076,24.486,0.480
'[12:45:33.884 22/05/1995]',0.072,-0.073,-0.034,105.076,24.486,0.480
'[12:45:33.886 22/05/1995]',0.072,-0.073,-0.034,105.076,24.486,0.480
'[12:45:33.888 22/05/1995]',0.090,-0.073,-0.034,109.275,24.737,0.479
'[12:45:33.890 22/05/1995]',0.090,-0.073,-0.034,109.275,24.737,0.479
'[12:45:33.892 22/05/1995]',0.072,-0.073,-0.034,109.275,24.737,0.479
'[12:45:33.894 22/05/1995]',0.072,-0.073,-0.034,109.275,24.737,0.479
'[12:45:33.896 22/05/1995]',0.072,-0.073,-0.034,113.727,25.313,0.479
'[12:45:33.898 22/05/1995]',0.072,-0.073,-0.034,113.727,25.313,0.479
'[12:45:33.900 22/05/1995]',0.072,-0.073,-0.034,113.727,25.313,0.479
'[12:45:33.902 22/05/1995]',0.072,-0.055,-0.034,113.727,25.313,0.479
'[12:45:33.904 22/05/1995]',0.054,-0.055,-0.016,118.229,25.739,0.478
'[12:45:33.906 22/05/1995]',0.054,-0.055,-0.016,118.229,25.739,0.478
'[12:45:33.908 22/05/1995]',0.054,-0.055,-0.034,118.229,25.739,0.478
'[12:45:33.910 22/05/1995]',0.036,-0.055,-0.016,118.229,25.739,0.478
'[12:45:33.912 22/05/1995]',0.036,-0.036,-0.016,122.681,25.664,0.477
'[12:45:33.914 22/05/1995]',0.019,-0.036,-0.016,122.681,25.664,0.477
'[12:45:33.916 22/05/1995]',0.019,-0.036,-0.016,122.681,25.664,0.477
'[12:45:33.918 22/05/1995]',0.019,-0.036,-0.016,122.681,25.664,0.477
'[12:45:33.920 22/05/1995]',0.019,-0.036,-0.016,126.829,25.038,0.476
'[12:45:33.922 22/05/1995]',0.019,-0.017,0.002,126.829,25.038,0.476
'[12:45:33.924 22/05/1995]',0.019,-0.017,0.002,126.829,25.038,0.476
'[12:45:33.926 22/05/1995]',0.002,-0.017,0.002,126.829,25.038,0.476
'[12:45:33.928 22/05/1995]',0.002,-0.017,0.002,130.624,24.085,0.475
'[12:45:33.930 22/05/1995]',0.002,-0.017,0.002,130.624,24.085,0.475
'[12:45:33.932 22/05/1995]',0.002,-0.017,0.002,130.624,24.085,0.475
'[12:45:33.934 22/05/1995]',0.019,-0.017,0.002,130.624,24.085,0.475
'[12:45:33.936 22/05/1995]',0.019,-0.017,0.002,133.861,23.208,0.475
'[12:45:33.938 22/05/1995]',0.002,-0.017,0.002,133.861,23.208,0.475
'[12:45:33.940 22/05/1995]',0.002,-0.017,0.002,133.861,23.208,0.475
'[12:45:33.942 22/05/1995]',0.002,-0.017,0.002,133.861,23.208,0.475
'[12:45:33.944 22/05/1995]',0.002,-0.017,0.002,136.644,22.857,0.475
'[12:45:33.946 22/05/1995]',0.002,-0.017,0.002,136.644,22.857,0.475
'[12:45:33.948 22/05/1995]',0.019,-0.017,0.002,136.644,22.857,0.475
'[12:45:33.950 22/05/1995]',0.002,-0.036,-0.016,136.644,22.857,0.475
'[12:45:33.952 22/05/1995]',0.019,-0.017,0.002,138.921,22.957,0.475
'[12:45:33.954 22/05/1995]',0.019,-0.036,0.002,138.921,22.957,0.475
'[12:45:33.956 22/05/1995]',0.002,-0.036,-0.016,138.921,22.957,0.475
'[12:45:33.958 22/05/1995]',0.002,-0.036,-0.016,138.921,22.957,0.475
'[12:45:33.960 22/05/1995]',0.002,-0.017,-0.016,140.590,23.208,0.475
'[12:45:33.962 22/05/1995]',0.002,-0.017,0.002,140.590,23.208,0.475
'[12:45:33.964 22/05/1995]',0.002,-0.017,0.002,140.590,23.208,0.475
'[12:45:33.966 22/05/1995]',0.002,-0.017,0.002,140.590,23.208,0.475
'[12:45:33.968 22/05/1995]',0.002,-0.017,0.002,141.551,23.083,0.475
'[12:45:33.970 22/05/1995]',0.002,-0.017,0.002,141.551,23.083,0.475
'[12:45:33.972 22/05/1995]',0.002,-0.017,0.002,141.551,23.083,0.475
'[12:45:33.974 22/05/1995]',0.002,-0.017,0.002,141.551,23.083,0.475
'[12:45:33.976 22/05/1995]',0.002,0.002,0.002,142.007,22.607,0.475
'[12:45:33.978 22/05/1995]',-0.016,0.020,0.002,142.007,22.607,0.475
'[12:45:33.980 22/05/1995]',-0.052,0.057,0.018,142.007,22.607,0.475
'[12:45:33.982 22/05/1995]',-0.105,0.113,0.036,142.007,22.607,0.475
'[12:45:33.984 22/05/1995]',-0.123,0.132,0.071,141.956,22.331,0.475
'[12:45:33.986 22/05/1995]',-0.141,0.151,0.071,141.956,22.331,0.475
'[12:45:33.988 22/05/1995]',-0.123,0.132,0.071,141.956,22.331,0.475
'[12:45:33.990 22/05/1995]',-0.123,0.113,0.054,141.956,22.331,0.475
'[12:45:33.992 22/05/1995]',-0.088,0.057,0.018,141.298,22.607,0.475
'[12:45:33.994 22/05/1995]',-0.034,0.020,0.002,141.298,22.607,0.475
'[12:45:33.996 22/05/1995]',0.002,-0.036,-0.016,141.298,22.607,0.475
'[12:45:33.998 22/05/1995]',0.072,-0.130,-0.069,141.298,22.607,0.475
'[12:45:34.000 22/05/1995]',0.179,-0.261,-0.122,139.983,23.333,0.475
'[12:45:34.002 22/05/1995]',0.303,-0.391,-0.174,139.983,23.333,0.475
'[12:45:34.004 22/05/1995]',0.428,-0.523,-0.245,139.983,23.333,0.475
'[12:45:34.006 22/05/1995]',0.570,-0.691,-0.297,139.983,23.333,0.475
'[12:45:34.008 22/05/1995]',0.766,-0.896,-0.385,137.909,23.910,0.475
'[12:45:34.010 22/05/1995]',0.962,-1.158,-0.507,137.909,23.910,0.475
'[12:45:34.012 22/05/1995]',1.157,-1.382,-0.613,137.909,23.910,0.475
'[12:45:34.014 22/05/1995]',1.193,-1.476,-0.666,137.909,23.910,0.475
'[12:45:34.016 22/05/1995]',1.139,-1.438,-0.648,135.076,24.261,0.474
'[12:45:34.018 22/05/1995]',1.032,-1.327,-0.630,135.076,24.261,0.474
'[12:45:34.020 22/05/1995]',0.819,-1.101,-0.560,135.076,24.261,0.474
'[12:45:34.022 22/05/1995]',0.606,-0.840,-0.507,135.076,24.261,0.474
'[12:45:34.024 22/05/1995]',0.446,-0.634,-0.455,131.332,24.436,0.473
'[12:45:34.026 22/05/1995]',0.321,-0.485,-0.402,131.332,24.436,0.473
'[12:45:34.028 22/05/1995]',0.251,-0.410,-0.367,131.332,24.436,0.473
'[12:45:34.030 22/05/1995]',0.197,-0.373,-0.314,131.332,24.436,0.473
'[12:45:34.032 22/05/1995]',0.161,-0.335,-0.279,126.779,24.486,0.471
'[12:45:34.034 22/05/1995]',0.126,-0.298,-0.262,126.779,24.486,0.471
'[12:45:34.036 22/05/1995]',0.126,-0.279,-0.210,126.779,24.486,0.471
'[12:45:34.038 22/05/1995]',0.090,-0.223,-0.174,126.779,24.486,0.471
'[12:45:34.040 22/05/1995]',0.054,-0.167,-0.122,121.366,24.035,0.469
'[12:45:34.042 22/05/1995]',0.019,-0.130,-0.086,121.366,24.035,0.469
'[12:45:34.044 22/05/1995]',0.002,-0.092,-0.051,121.366,24.035,0.469
'[12:45:34.046 22/05/1995]',0.002,-0.036,-0.034,121.366,24.035,0.469
'[12:45:34.048 22/05/1995]',-0.016,-0.017,0.002,115.295,22.957,0.465
'[12:45:34.050 22/05/1995]',-0.034,0.002,0.002,115.295,22.957,0.465
'[12:45:34.052 22/05/1995]',-0.052,0.038,0.002,115.295,22.957,0.465
'[12:45:34.054 22/05/1995]',-0.052,0.057,0.018,115.295,22.957,0.465
'[12:45:34.056 22/05/1995]',-0.070,0.076,0.018,108.870,21.805,0.461
'[12:45:34.058 22/05/1995]',-0.070,0.095,0.036,108.870,21.805,0.461
'[12:45:34.060 22/05/1995]',-0.088,0.095,0.036,108.870,21.805,0.461
'[12:45:34.062 22/05/1995]',-0.088,0.113,0.036,108.870,21.805,0.461
'[12:45:34.064 22/05/1995]',-0.088,0.113,0.054,102.344,21.153,0.457
'[12:45:34.066 22/05/1995]',-0.088,0.132,0.054,102.344,21.153,0.457
'[12:45:34.068 22/05/1995]',-0.088,0.132,0.054,102.344,21.153,0.457
'[12:45:34.070 22/05/1995]',-0.105,0.132,0.054,102.344,21.153,0.457
'[12:45:34.072 22/05/1995]',-0.088,0.132,0.054,95.919,21.504,0.452
'[12:45:34.074 22/05/1995]',-0.088,0.132,0.054,95.919,21.504,0.452
'[12:45:34.076 22/05/1995]',-0.105,0.132,0.071,95.919,21.504,0.452
'[12:45:34.078 22/05/1995]',-0.105,0.132,0.071,95.919,21.504,0.452
'[12:45:34.080 22/05/1995]',-0.105,0.132,0.071,89.696,22.682,0.446
'[12:45:34.082 22/05/1995]',-0.105,0.132,0.071,89.696,22.682,0.446
'[12:45:34.084 22/05/1995]',-0.105,0.132,0.071,89.696,22.682,0.446
'[12:45:34.086 22/05/1995]',-0.105,0.132,0.071,89.696,22.682,0.446
'[12:45:34.088 22/05/1995]',-0.105,0.132,0.071,83.828,23.960,0.441
'[12:45:34.090 22/05/1995]',-0.105,0.151,0.071,83.828,23.960,0.441
'[12:45:34.092 22/05/1995]',-0.105,0.151,0.071,83.828,23.960,0.441
'[12:45:34.094 22/05/1995]',-0.105,0.132,0.071,83.828,23.960,0.441
'[12:45:34.096 22/05/1995]',-0.088,0.132,0.071,78.314,24.962,0.434
'[12:45:34.098 22/05/1995]',-0.105,0.132,0.071,78.314,24.962,0.434
'[12:45:34.100 22/05/1995]',-0.105,0.132,0.071,78.314,24.962,0.434
'[12:45:34.102 22/05/1995]',-0.105,0.151,0.071,78.314,24.962,0.434
'[12:45:34.104 22/05/1995]',-0.105,0.132,0.071,73.255,26.015,0.428
'[12:45:34.106 22/05/1995]',-0.105,0.151,0.071,73.255,26.015,0.428
'[12:45:34.108 22/05/1995]',-0.105,0.132,0.071,73.255,26.015,0.428
'[12:45:34.110 22/05/1995]',-0.105,0.151,0.071,73.255,26.015,0.428
'[12:45:34.112 22/05/1995]',-0.105,0.132,0.071,68.701,27.018,0.421
'[12:45:34.114 22/05/1995]',-0.105,0.132,0.071,68.701,27.018,0.421
'[12:45:34.116 22/05/1995]',-0.105,0.151,0.071,68.701,27.018,0.421
'[12:45:34.118 22/05/1995]',-0.105,0.132,0.071,68.701,27.018,0.421
'[12:45:34.120 22/05/1995]',-0.105,0.132,0.071,64.705,26.967,0.412
'[12:45:34.122 22/05/1995]',-0.105,0.132,0.071,64.705,26.967,0.412
'[12:45:34.124 22/05/1995]',-0.088,0.132,0.071,64.705,26.967,0.412
'[12:45:34.126 22/05/1995]',-0.105,0.132,0.071,64.705,26.967,0.412
'[12:45:34.128 22/05/1995]',-0.105,0.132,0.071,61.012,25.138,0.402
'[12:45:34.130 22/05/1995]',-0.105,0.151,0.071,61.012,25.138,0.402
'[12:45:34.132 22/05/1995]',-0.105,0.132,0.071,61.012,25.138,0.402
'[12:45:34.134 22/05/1995]',-0.105,0.132,0.071,61.012,25.138,0.402
'[12:45:34.136 22/05/1995]',-0.105,0.132,0.071,57.825,23.083,0.390
'[12:45:34.138 22/05/1995]',-0.105,0.132,0.071,57.825,23.083,0.390
'[12:45:34.140 22/05/1995]',-0.105,0.132,0.071,57.825,23.083,0.390
'[12:45:34.142 22/05/1995]',-0.105,0.132,0.071,57.825,23.083,0.390
'[12:45:34.144 22/05/1995]',-0.105,0.132,0.071,55.194,23.258,0.377
'[12:45:34.146 22/05/1995]',-0.105,0.132,0.071,55.194,23.258,0.377
'[12:45:34.148 22/05/1995]',-0.105,0.132,0.071,55.194,23.258,0.377
'[12:45:34.150 22/05/1995]',-0.105,0.151,0.071,55.194,23.258,0.377
'[12:45:34.152 22/05/1995]',-0.105,0.151,0.071,53.474,26.441,0.362
'[12:45:34.154 22/05/1995]',-0.105,0.132,0.071,53.474,26.441,0.362
'[12:45:34.156 22/05/1995]',-0.105,0.151,0.071,53.474,26.441,0.362
'[12:45:34.158 22/05/1995]',-0.105,0.151,0.071,53.474,26.441,0.362
'[12:45:34.160 22/05/1995]',-0.105,0.151,0.071,52.816,30.476,0.348
'[12:45:34.162 22/05/1995]',-0.105,0.151,0.089,52.816,30.476,0.348
'[12:45:34.164 22/05/1995]',-0.105,0.151,0.089,52.816,30.476,0.348
'[12:45:34.166 22/05/1995]',-0.105,0.151,0.089,52.816,30.476,0.348
'[12:45:34.168 22/05/1995]',-0.105,0.151,0.089,53.221,32.957,0.335
'[12:45:34.170 22/05/1995]',-0.105,0.151,0.089,53.221,32.957,0.335
'[12:45:34.172 22/05/1995]',-0.105,0.151,0.089,53.221,32.957,0.335
'[12:45:34.174 22/05/1995]',-0.123,0.151,0.089,53.221,32.957,0.335
'[12:45:34.176 22/05/1995]',-0.123,0.151,0.089,54.789,33.434,0.322
'[12:45:34.178 22/05/1995]',-0.105,0.151,0.089,54.789,33.434,0.322
'[12:45:34.180 22/05/1995]',-0.123,0.151,0.089,54.789,33.434,0.322
'[12:45:34.182 22/05/1995]',-0.123,0.151,0.089,54.789,33.434,0.322
'[12:45:34.184 22/05/1995]',-0.123,0.151,0.089,57.572,33.308,0.308
'[12:45:34.186 22/05/1995]',-0.123,0.151,0.089,57.572,33.308,0.308
'[12:45:34.188 22/05/1995]',-0.123,0.170,0.089,57.572,33.308,0.308
'[12:45:34.190 22/05/1995]',-0.123,0.170,0.089,57.572,33.308,0.308
'[12:45:34.192 22/05/1995]',-0.123,0.170,0.089,61.113,33.358,0.296
'[12:45:34.194 22/05/1995]',-0.141,0.170,0.089,61.113,33.358,0.296
'[12:45:34.196 22/05/1995]',-0.123,0.170,0.089,61.113,33.358,0.296
'[12:45:34.198 22/05/1995]',-0.123,0.170,0.089,61.113,33.358,0.296
'[12:45:34.200 22/05/1995]',-0.123,0.188,0.106,64.958,33.784,0.284
'[12:45:34.202 22/05/1995]',-0.141,0.188,0.106,64.958,33.784,0.284
'[12:45:34.204 22/05/1995]',-0.141,0.188,0.106,64.958,33.784,0.284
'[12:45:34.206 22/05/1995]',-0.141,0.188,0.106,64.958,33.784,0.284
'[12:45:34.208 22/05/1995]',-0.141,0.188,0.106,69.056,34.612,0.272
'[12:45:34.210 22/05/1995]',-0.159,0.188,0.106,69.056,34.612,0.272
'[12:45:34.212 22/05/1995]',-0.159,0.188,0.106,69.056,34.612,0.272
'[12:45:34.214 22/05/1995]',-0.159,0.207,0.106,69.056,34.612,0.272
'[12:45:34.216 22/05/1995]',-0.159,0.207,0.106,73.356,35.714,0.260
'[12:45:34.218 22/05/1995]',-0.159,0.188,0.106,73.356,35.714,0.260
'[12:45:34.220 22/05/1995]',-0.159,0.207,0.106,73.356,35.714,0.260
'[12:45:34.222 22/05/1995]',-0.159,0.207,0.106,73.356,35.714,0.260
'[12:45:34.224 22/05/1995]',-0.159,0.207,0.106,77.706,36.366,0.248
'[12:45:34.226 22/05/1995]',-0.159,0.188,0.106,77.706,36.366,0.248
'[12:45:34.228 22/05/1995]',-0.159,0.207,0.106,77.706,36.366,0.248
'[12:45:34.230 22/05/1995]',-0.177,0.207,0.106,77.706,36.366,0.248
'[12:45:34.232 22/05/1995]',-0.159,0.188,0.106,82.007,36.366,0.236
'[12:45:34.234 22/05/1995]',-0.159,0.188,0.106,82.007,36.366,0.236
'[12:45:34.236 22/05/1995]',-0.177,0.188,0.106,82.007,36.366,0.236
'[12:45:34.238 22/05/1995]',-0.159,0.188,0.106,82.007,36.366,0.236
'[12:45:34.240 22/05/1995]',-0.159,0.188,0.106,86.256,36.065,0.224
'[12:45:34.242 22/05/1995]',-0.159,0.188,0.106,86.256,36.065,0.224
'[12:45:34.244 22/05/1995]',-0.159,0.170,0.089,86.256,36.065,0.224
'[12:45:34.246 22/05/1995]',-0.159,0.170,0.106,86.256,36.065,0.224
'[12:45:34.248 22/05/1995]',-0.159,0.170,0.089,90.455,36.065,0.211
'[12:45:34.250 22/05/1995]',-0.141,0.151,0.089,90.455,36.065,0.211
'[12:45:34.252 22/05/1995]',-0.141,0.151,0.089,90.455,36.065,0.211
'[12:45:34.254 22/05/1995]',-0.141,0.151,0.089,90.455,36.065,0.211
'[12:45:34.256 22/05/1995]',-0.141,0.132,0.071,94.452,36.541,0.199
'[12:45:34.258 22/05/1995]',-0.123,0.132,0.071,94.452,36.541,0.199
'[12:45:34.260 22/05/1995]',-0.123,0.132,0.071,94.452,36.541,0.199
'[12:45:34.262 22/05/1995]',-0.123,0.132,0.071,94.452,36.541,0.199
'[12:45:34.264 22/05/1995]',-0.123,0.113,0.054,98.246,37.193,0.185
'[12:45:34.266 22/05/1995]',-0.123,0.113,0.054,98.246,37.193,0.185
'[12:45:34.268 22/05/1995]',-0.123,0.095,0.054,98.246,37.193,0.185
'[12:45:34.270 22/05/1995]',-0.105,0.076,0.054,98.246,37.193,0.185
'[12:45:34.272 22/05/1995]',-0.088,0.076,0.054,101.737,37.719,0.172
'[12:45:34.274 22/05/1995]',-0.088,0.057,0.036,101.737,37.719,0.172
'[12:45:34.276 22/05/1995]',-0.088,0.057,0.036,101.737,37.719,0.172
'[12:45:34.278 22/05/1995]',-0.070,0.057,0.036,101.737,37.719,0.172
'[12:45:34.280 22/05/1995]',-0.070,0.038,0.018,104.873,37.820,0.160
'[12:45:34.282 22/05/1995]',-0.052,0.038,0.018,104.873,37.820,0.160
'[12:45:34.284 22/05/1995]',-0.052,0.020,0.018,104.873,37.820,0.160
'[12:45:34.286 22/05/1995]',-0.052,0.020,0.018,104.873,37.820,0.160
'[12:45:34.288 22/05/1995]',-0.034,0.020,0.018,107.555,37.469,0.148
'[12:45:34.290 22/05/1995]',-0.034,0.002,0.002,107.555,37.469,0.148
'[12:45:34.292 22/05/1995]',-0.034,0.002,0.002,107.555,37.469,0.148
'[12:45:34.294 22/05/1995]',-0.034,0.002,0.002,107.555,37.469,0.148
'[12:45:34.296 22/05/1995]',-0.034,0.002,0.002,109.781,36.767,0.137
'[12:45:34.298 22/05/1995]',-0.016,0.002,0.002,109.781,36.767,0.137
'[12:45:34.300 22/05/1995]',-0.016,0.002,0.002,109.781,36.767,0.137
'[12:45:34.302 22/05/1995]',0.002,0.002,0.002,109.781,36.767,0.137
'[12:45:34.304 22/05/1995]',0.002,0.002,0.002,111.602,36.015,0.126
'[12:45:34.306 22/05/1995]',0.002,0.002,0.002,111.602,36.015,0.126
'[12:45:34.308 22/05/1995]',0.002,0.002,0.002,111.602,36.015,0.126
'[12:45:34.310 22/05/1995]',0.002,-0.017,0.002,111.602,36.015,0.126
'[12:45:34.312 22/05/1995]',0.002,0.002,0.002,112.917,35.589,0.115
'[12:45:34.314 22/05/1995]',0.002,0.002,0.002,112.917,35.589,0.115
'[12:45:34.316 22/05/1995]',0.002,0.002,0.002,112.917,35.589,0.115
'[12:45:34.318 22/05/1995]',0.002,0.002,0.002,112.917,35.589,0.115
'[12:45:34.320 22/05/1995]',0.002,0.002,0.002,113.777,35.539,0.105
'[12:45:34.322 22/05/1995]',0.002,0.002,0.002,113.777,35.539,0.105
'[12:45:34.324 22/05/1995]',0.002,0.002,0.002,113.777,35.539,0.105
'[12:45:34.326 22/05/1995]',0.002,0.002,0.002,113.777,35.539,0.105
'[12:45:34.328 22/05/1995]',0.002,0.002,0.002,114.081,35.664,0.096
'[12:45:34.330 22/05/1995]',0.002,0.002,0.002,114.081,35.664,0.096
'[12:45:34.332 22/05/1995]',0.002,0.002,0.002,114.081,35.664,0.096
'[12:45:34.334 22/05/1995]',0.002,0.002,0.002,114.081,35.664,0.096
'[12:45:34.336 22/05/1995]',0.002,0.002,0.002,113.828,35.840,0.086
'[12:45:34.338 22/05/1995]',0.002,0.002,0.002,113.828,35.840,0.086
'[12:45:34.340 22/05/1995]',0.002,0.002,0.002,113.828,35.840,0.086
'[12:45:34.342 22/05/1995]',0.002,0.002,0.002,113.828,35.840,0.086
'[12:45:34.344 22/05/1995]',0.002,0.002,0.002,113.120,35.714,0.077
'[12:45:34.346 22/05/1995]',0.002,0.002,0.002,113.120,35.714,0.077
'[12:45:34.348 22/05/1995]',0.002,0.002,0.002,113.120,35.714,0.077
'[12:45:34.350 22/05/1995]',0.002,0.002,0.002,113.120,35.714,0.077
'[12:45:34.352 22/05/1995]',0.002,0.002,0.002,111.956,35.238,0.068
'[12:45:34.354 22/05/1995]',0.002,0.002,0.002,111.956,35.238,0.068
'[12:45:34.356 22/05/1995]',0.002,0.002,0.002,111.956,35.238,0.068
'[12:45:34.358 22/05/1995]',0.002,0.002,0.002,111.956,35.238,0.068
'[12:45:34.360 22/05/1995]',0.002,0.002,0.002,110.286,34.486,0.058
'[12:45:34.362 22/05/1995]',0.002,0.002,0.002,110.286,34.486,0.058
'[12:45:34.364 22/05/1995]',0.002,0.002,0.002,110.286,34.486,0.058
'[12:45:34.366 22/05/1995]',0.002,0.002,0.002,110.286,34.486,0.058
'[12:45:34.368 22/05/1995]',0.002,0.002,0.002,108.263,33.534,0.048
'[12:45:34.370 22/05/1995]',0.002,0.002,0.002,108.263,33.534,0.048
'[12:45:34.372 22/05/1995]',0.002,0.002,0.002,108.263,33.534,0.048
'[12:45:34.374 22/05/1995]',0.002,0.002,0.002,108.263,33.534,0.048
'[12:45:34.376 22/05/1995]',0.002,0.002,0.002,105.835,32.556,0.038
'[12:45:34.378 22/05/1995]',0.002,0.002,0.002,105.835,32.556,0.038
'[12:45:34.380 22/05/1995]',0.002,0.002,0.002,105.835,32.556,0.038
'[12:45:34.382 22/05/1995]',0.002,0.002,0.002,105.835,32.556,0.038
'[12:45:34.384 22/05/1995]',0.002,0.002,0.002,103.103,31.779,0.028
'[12:45:34.386 22/05/1995]',0.002,0.002,0.002,103.103,31.779,0.028
'[12:45:34.388 22/05/1995]',0.002,0.002,0.002,103.103,31.779,0.028
'[12:45:34.390 22/05/1995]',0.002,0.002,0.002,103.103,31.779,0.028
'[12:45:34.392 22/05/1995]',0.002,0.002,0.002,100.320,31.378,0.018
'[12:45:34.394 22/05/1995]',0.002,0.002,0.002,100.320,31.378,0.018
'[12:45:34.396 22/05/1995]',0.002,0.002,0.002,100.320,31.378,0.018
'[12:45:34.398 22/05/1995]',0.002,0.002,0.002,100.320,31.378,0.018
'[12:45:34.400 22/05/1995]',0.002,0.002,0.002,97.588,31.203,0.009
'[12:45:34.402 22/05/1995]',0.002,0.002,0.002,97.588,31.203,0.009
'[12:45:34.404 22/05/1995]',0.002,0.002,0.002,97.588,31.203,0.009
'[12:45:34.406 22/05/1995]',0.002,0.002,0.002,97.588,31.203,0.009
'[12:45:34.408 22/05/1995]',0.002,0.002,0.002,94.907,30.902,-0.001
'[12:45:34.410 22/05/1995]',0.002,0.002,0.002,94.907,30.902,-0.001
'[12:45:34.412 22/05/1995]',0.002,0.002,0.002,94.907,30.902,-0.001
'[12:45:34.414 22/05/1995]',0.002,0.002,0.002,94.907,30.902,-0.001
'[12:45:34.416 22/05/1995]',0.002,0.002,0.002,92.529,30.125,-0.010
'[12:45:34.418 22/05/1995]',0.002,0.002,0.002,92.529,30.125,-0.010
'[12:45:34.420 22/05/1995]',0.002,0.002,0.002,92.529,30.125,-0.010
'[12:45:34.422 22/05/1995]',0.002,0.002,0.002,92.529,30.125,-0.010
'[12:45:34.424 22/05/1995]',0.002,0.002,0.002,90.354,28.797,-0.019
'[12:45:34.426 22/05/1995]',0.002,0.002,0.002,90.354,28.797,-0.019
'[12:45:34.428 22/05/1995]',0.002,0.002,0.002,90.354,28.797,-0.019
'[12:45:34.430 22/05/1995]',0.002,0.002,0.002,90.354,28.797,-0.019
'[12:45:34.432 22/05/1995]',0.002,0.002,0.002,88.533,27.544,-0.029
'[12:45:34.434 22/05/1995]',0.002,0.002,0.002,88.533,27.544,-0.029
'[12:45:34.436 22/05/1995]',0.002,0.002,0.002,88.533,27.544,-0.029
'[12:45:34.438 22/05/1995]',0.002,0.002,0.002,88.533,27.544,-0.029
'[12:45:34.440 22/05/1995]',0.002,0.002,0.002,86.914,27.444,-0.038
'[12:45:34.442 22/05/1995]',0.002,0.002,0.002,86.914,27.444,-0.038
'[12:45:34.444 22/05/1995]',0.002,0.002,0.002,86.914,27.444,-0.038
'[12:45:34.446 22/05/1995]',0.002,0.002,0.002,86.914,27.444,-0.038
'[12:45:34.448 22/05/1995]',0.002,0.002,0.002,85.750,28.371,-0.049
'[12:45:34.450 22/05/1995]',0.002,0.002,0.002,85.750,28.371,-0.049
'[12:45:34.452 22/05/1995]',0.002,0.002,0.002,85.750,28.371,-0.049
'[12:45:34.454 22/05/1995]',0.002,0.002,0.002,85.750,28.371,-0.049
'[12:45:34.456 22/05/1995]',0.002,0.002,0.002,84.840,29.248,-0.060
'[12:45:34.458 22/05/1995]',0.002,0.002,0.002,84.840,29.248,-0.060
'[12:45:34.460 22/05/1995]',0.002,0.002,0.002,84.840,29.248,-0.060
'[12:45:34.462 22/05/1995]',0.002,0.002,0.002,84.840,29.248,-0.060
'[12:45:34.464 22/05/1995]',0.002,0.002,0.002,84.435,29.023,-0.071
'[12:45:34.466 22/05/1995]',0.002,0.002,0.002,84.435,29.023,-0.071
'[12:45:34.468 22/05/1995]',0.002,0.002,0.002,84.435,29.023,-0.071
'[12:45:34.470 22/05/1995]',0.002,0.002,0.002,84.435,29.023,-0.071
'[12:45:34.472 22/05/1995]',0.002,0.002,0.002,84.435,27.845,-0.083
'[12:45:34.474 22/05/1995]',0.002,0.002,0.002,84.435,27.845,-0.083
'[12:45:34.476 22/05/1995]',0.002,0.002,0.002,84.435,27.845,-0.083
'[12:45:34.478 22/05/1995]',0.002,0.002,0.002,84.435,27.845,-0.083
'[12:45:34.480 22/05/1995]',0.002,0.002,0.002,84.890,26.717,-0.094
'[12:45:34.482 22/05/1995]',0.002,0.002,0.002,84.890,26.717,-0.094
'[12:45:34.484 22/05/1995]',0.002,0.002,0.002,84.890,26.717,-0.094
'[12:45:34.486 22/05/1995]',0.002,0.002,0.002,84.890,26.717,-0.094
'[12:45:34.488 22/05/1995]',0.002,0.002,0.002,85.902,26.491,-0.105
'[12:45:34.490 22/05/1995]',0.002,0.002,0.002,85.902,26.491,-0.105
'[12:45:34.492 22/05/1995]',0.002,0.002,0.002,85.902,26.491,-0.105
'[12:45:34.494 22/05/1995]',0.002,0.002,0.002,85.902,26.491,-0.105
'[12:45:34.496 22/05/1995]',0.002,0.002,0.002,87.369,27.318,-0.116
'[12:45:34.498 22/05/1995]',0.002,0.002,0.002,87.369,27.318,-0.116
'[12:45:34.500 22/05/1995]',0.002,0.002,0.002,87.369,27.318,-0.116
'[12:45:34.502 22/05/1995]',0.002,0.002,0.002,87.369,27.318,-0.116
'[12:45:34.504 22/05/1995]',0.002,0.002,0.002,89.545,28.546,-0.126
'[12:45:34.506 22/05/1995]',0.019,0.002,0.002,89.545,28.546,-0.126
'[12:45:34.508 22/05/1995]',0.019,0.002,0.002,89.545,28.546,-0.126
'[12:45:34.510 22/05/1995]',0.019,0.002,0.002,89.545,28.546,-0.126
'[12:45:34.512 22/05/1995]',0.002,0.002,0.002,92.125,29.373,-0.137
'[12:45:34.514 22/05/1995]',0.002,0.002,0.002,92.125,29.373,-0.137
'[12:45:34.516 22/05/1995]',0.019,0.002,0.002,92.125,29.373,-0.137
'[12:45:34.518 22/05/1995]',0.019,0.002,0.002,92.125,29.373,-0.137
'[12:45:34.520 22/05/1995]',0.002,0.002,0.002,95.312,29.549,-0.147
'[12:45:34.522 22/05/1995]',0.002,0.002,0.002,95.312,29.549,-0.147
'[12:45:34.524 22/05/1995]',0.002,0.002,0.002,95.312,29.549,-0.147
'[12:45:34.526 22/05/1995]',0.002,0.002,0.002,95.312,29.549,-0.147
'[12:45:34.528 22/05/1995]',0.019,0.002,0.002,98.954,28.972,-0.158
'[12:45:34.530 22/05/1995]',0.019,0.002,0.002,98.954,28.972,-0.158
'[12:45:34.532 22/05/1995]',0.019,0.002,0.002,98.954,28.972,-0.158
'[12:45:34.534 22/05/1995]',0.019,0.002,0.002,98.954,28.972,-0.158
'[12:45:34.536 22/05/1995]',0.019,0.002,0.002,102.850,27.895,-0.168
'[12:45:34.538 22/05/1995]',0.019,0.002,0.002,102.850,27.895,-0.168
'[12:45:34.540 22/05/1995]',0.019,0.002,0.002,102.850,27.895,-0.168
'[12:45:34.542 22/05/1995]',0.036,0.002,0.002,102.850,27.895,-0.168
'[12:45:34.544 22/05/1995]',0.054,0.002,0.002,106.998,26.967,-0.178
'[12:45:34.546 22/05/1995]',0.054,-0.017,-0.016,106.998,26.967,-0.178
'[12:45:34.548 22/05/1995]',0.054,-0.017,-0.016,106.998,26.967,-0.178
'[12:45:34.550 22/05/1995]',0.072,-0.036,-0.016,106.998,26.967,-0.178
'[12:45:34.552 22/05/1995]',0.072,-0.055,-0.034,111.349,26.541,-0.188
'[12:45:34.554 22/05/1995]',0.072,-0.055,-0.034,111.349,26.541,-0.188
'[12:45:34.556 22/05/1995]',0.072,-0.055,-0.034,111.349,26.541,-0.188
'[12:45:34.558 22/05/1995]',0.072,-0.055,-0.034,111.349,26.541,-0.188
'[12:45:34.560 22/05/1995]',0.090,-0.073,-0.034,115.801,26.917,-0.197
'[12:45:34.562 22/05/1995]',0.090,-0.073,-0.034,115.801,26.917,-0.197
'[12:45:34.564 22/05/1995]',0.090,-0.073,-0.034,115.801,26.917,-0.197
'[12:45:34.566 22/05/1995]',0.090,-0.073,-0.034,115.801,26.917,-0.197
'[12:45:34.568 22/05/1995]',0.072,-0.073,-0.034,120.354,27.444,-0.205
'[12:45:34.570 22/05/1995]',0.072,-0.073,-0.034,120.354,27.444,-0.205
'[12:45:34.572 22/05/1995]',0.072,-0.055,-0.034,120.354,27.444,-0.205
'[12:45:34.574 22/05/1995]',0.054,-0.055,-0.034,120.354,27.444,-0.205
'[12:45:34.576 22/05/1995]',0.054,-0.055,-0.016,124.806,27.619,-0.215
'[12:45:34.578 22/05/1995]',0.054,-0.055,-0.016,124.806,27.619,-0.215
'[12:45:34.580 22/05/1995]',0.054,-0.055,-0.016,124.806,27.619,-0.215
'[12:45:34.582 22/05/1995]',0.036,-0.055,-0.016,124.806,27.619,-0.215
'[12:45:34.584 22/05/1995]',0.036,-0.036,-0.016,129.005,27.318,-0.225
'[12:45:34.586 22/05/1995]',0.036,-0.036,-0.016,129.005,27.318,-0.225
'[12:45:34.588 22/05/1995]',0.019,-0.017,-0.016,129.005,27.318,-0.225
'[12:45:34.590 22/05/1995]',0.019,-0.017,0.002,129.005,27.318,-0.225
'[12:45:34.592 22/05/1995]',0.019,-0.017,0.002,132.749,26.617,-0.234
'[12:45:34.594 22/05/1995]',0.019,-0.017,0.002,132.749,26.617,-0.234
'[12:45:34.596 22/05/1995]',0.019,-0.017,0.002,132.749,26.617,-0.234
'[12:45:34.598 22/05/1995]',0.019,0.002,0.002,132.749,26.617,-0.234
'[12:45:34.600 22/05/1995]',0.019,-0.017,0.002,135.986,25.965,-0.243
'[12:45:34.602 22/05/1995]',0.019,-0.017,0.002,135.986,25.965,-0.243
'[12:45:34.604 22/05/1995]',0.002,-0.017,0.002,135.986,25.965,-0.243
'[12:45:34.606 22/05/1995]',0.002,-0.017,0.002,135.986,25.965,-0.243
'[12:45:34.608 22/05/1995]',0.002,-0.017,0.002,138.718,25.388,-0.252
'[12:45:34.610 22/05/1995]',0.002,-0.017,0.002,138.718,25.388,-0.252
'[12:45:34.612 22/05/1995]',0.002,-0.017,0.002,138.718,25.388,-0.252
'[12:45:34.614 22/05/1995]',0.002,-0.017,0.002,138.718,25.388,-0.252
'[12:45:34.616 22/05/1995]',0.002,-0.017,0.002,140.843,24.962,-0.260
'[12:45:34.618 22/05/1995]',0.002,-0.017,0.002,140.843,24.962,-0.260
'[12:45:34.620 22/05/1995]',0.019,-0.017,0.002,140.843,24.962,-0.260
'[12:45:34.622 22/05/1995]',0.019,-0.017,0.002,140.843,24.962,-0.260
'[12:45:34.624 22/05/1995]',0.002,-0.017,0.002,142.411,24.737,-0.268
'[12:45:34.626 22/05/1995]',0.002,-0.017,0.002,142.411,24.737,-0.268
'[12:45:34.628 22/05/1995]',0.002,-0.017,0.002,142.411,24.737,-0.268
'[12:45:34.630 22/05/1995]',0.002,-0.017,0.002,142.411,24.737,-0.268
'[12:45:34.632 22/05/1995]',0.002,-0.017,0.002,143.271,24.561,-0.275
'[12:45:34.634 22/05/1995]',0.002,-0.017,0.002,143.271,24.561,-0.275
'[12:45:34.636 22/05/1995]',0.002,-0.017,0.002,143.271,24.561,-0.275
'[12:45:34.638 22/05/1995]',0.002,-0.017,0.002,143.271,24.561,-0.275
'[12:45:34.640 22/05/1995]',0.002,0.002,0.002,143.676,24.386,-0.281
'[12:45:34.642 22/05/1995]',0.002,-0.017,0.002,143.676,24.386,-0.281
'[12:45:34.644 22/05/1995]',0.002,0.002,0.002,143.676,24.386,-0.281
'[12:45:34.646 22/05/1995]',0.002,0.002,0.002,143.676,24.386,-0.281
'[12:45:34.648 22/05/1995]',0.002,0.002,0.002,143.423,24.261,-0.287
'[12:45:34.650 22/05/1995]',-0.034,0.038,0.018,143.423,24.261,-0.287
'[12:45:34.652 22/05/1995]',-0.070,0.095,0.036,143.423,24.261,-0.287
'[12:45:34.654 22/05/1995]',-0.105,0.132,0.071,143.423,24.261,-0.287
'[12:45:34.656 22/05/1995]',-0.141,0.170,0.089,142.563,24.486,-0.293
'[12:45:34.658 22/05/1995]',-0.141,0.188,0.089,142.563,24.486,-0.293
'[12:45:34.660 22/05/1995]',-0.141,0.170,0.071,142.563,24.486,-0.293
'[12:45:34.662 22/05/1995]',-0.123,0.132,0.054,142.563,24.486,-0.293
'[12:45:34.664 22/05/1995]',-0.088,0.076,0.036,141.096,25.138,-0.299
'[12:45:34.666 22/05/1995]',-0.034,0.020,0.002,141.096,25.138,-0.299
'[12:45:34.668 22/05/1995]',0.002,-0.017,0.002,141.096,25.138,-0.299
'[12:45:34.670 22/05/1995]',0.090,-0.130,-0.051,141.096,25.138,-0.299
'[12:45:34.672 22/05/1995]',0.197,-0.261,-0.122,138.870,25.614,-0.305
'[12:45:34.674 22/05/1995]',0.321,-0.391,-0.174,138.870,25.614,-0.305
'[12:45:34.676 22/05/1995]',0.464,-0.540,-0.227,138.870,25.614,-0.305
'[12:45:34.678 22/05/1995]',0.642,-0.728,-0.297,138.870,25.614,-0.305
'[12:45:34.680 22/05/1995]',0.837,-0.971,-0.420,135.784,25.489,-0.312
'[12:45:34.682 22/05/1995]',1.068,-1.251,-0.542,135.784,25.489,-0.312
'[12:45:34.684 22/05/1995]',1.247,-1.494,-0.666,135.784,25.489,-0.312
'[12:45:34.686 22/05/1995]',1.299,-1.569,-0.701,135.784,25.489,-0.312
'[12:45:34.688 22/05/1995]',1.229,-1.532,-0.701,131.838,24.962,-0.320
'[12:45:34.690 22/05/1995]',1.122,-1.438,-0.701,131.838,24.962,-0.320
'[12:45:34.692 22/05/1995]',0.908,-1.214,-0.630,131.838,24.962,-0.320
'[12:45:34.694 22/05/1995]',0.695,-0.952,-0.560,131.838,24.962,-0.320
'[12:45:34.696 22/05/1995]',0.534,-0.728,-0.507,127.032,24.612,-0.328
'[12:45:34.698 22/05/1995]',0.393,-0.578,-0.455,127.032,24.612,-0.328
'[12:45:34.700 22/05/1995]',0.285,-0.485,-0.385,127.032,24.612,-0.328
'[12:45:34.702 22/05/1995]',0.233,-0.410,-0.332,127.032,24.612,-0.328
'[12:45:34.704 22/05/1995]',0.197,-0.354,-0.279,121.416,25.088,-0.335
'[12:45:34.706 22/05/1995]',0.144,-0.316,-0.245,121.416,25.088,-0.335
'[12:45:34.708 22/05/1995]',0.126,-0.261,-0.210,121.416,25.088,-0.335
'[12:45:34.710 22/05/1995]',0.090,-0.205,-0.157,121.416,25.088,-0.335
'[12:45:34.712 22/05/1995]',0.054,-0.148,-0.104,115.143,26.266,-0.342
'[12:45:34.714 22/05/1995]',0.019,-0.092,-0.069,115.143,26.266,-0.342
'[12:45:34.716 22/05/1995]',0.002,-0.036,-0.034,115.143,26.266,-0.342
'[12:45:34.718 22/05/1995]',-0.016,0.002,0.002,115.143,26.266,-0.342
'[12:45:34.720 22/05/1995]',-0.034,0.020,0.002,108.566,26.717,-0.349
'[12:45:34.722 22/05/1995]',-0.052,0.057,0.002,108.566,26.717,-0.349
'[12:45:34.724 22/05/1995]',-0.052,0.076,0.018,108.566,26.717,-0.349
'[12:45:34.726 22/05/1995]',-0.070,0.095,0.036,108.566,26.717,-0.349
'[12:45:34.728 22/05/1995]',-0.088,0.113,0.054,102.040,25.439,-0.356
'[12:45:34.730 22/05/1995]',-0.088,0.132,0.054,102.040,25.439,-0.356
'[12:45:34.732 22/05/1995]',-0.105,0.132,0.071,102.040,25.439,-0.356
'[12:45:34.734 22/05/1995]',-0.105,0.132,0.071,102.040,25.439,-0.356
'[12:45:34.736 22/05/1995]',-0.105,0.151,0.071,95.565,23.333,-0.364
'[12:45:34.738 22/05/1995]',-0.105,0.151,0.071,95.565,23.333,-0.364
'[12:45:34.740 22/05/1995]',-0.105,0.151,0.071,95.565,23.333,-0.364
'[12:45:34.742 22/05/1995]',-0.105,0.151,0.089,95.565,23.333,-0.364
'[12:45:34.744 22/05/1995]',-0.123,0.151,0.089,89.292,22.682,-0.373
'[12:45:34.746 22/05/1995]',-0.105,0.170,0.089,89.292,22.682,-0.373
'[12:45:34.748 22/05/1995]',-0.105,0.151,0.089,89.292,22.682,-0.373
'[12:45:34.750 22/05/1995]',-0.105,0.151,0.089,89.292,22.682,-0.373
'[12:45:34.752 22/05/1995]',-0.105,0.170,0.089,83.423,24.211,-0.382
'[12:45:34.754 22/05/1995]',-0.105,0.170,0.089,83.423,24.211,-0.382
'[12:45:34.756 22/05/1995]',-0.105,0.170,0.089,83.423,24.211,-0.382
'[12:45:34.758 22/05/1995]',-0.105,0.170,0.089,83.423,24.211,-0.382
'[12:45:34.760 22/05/1995]',-0.105,0.170,0.089,77.959,26.441,-0.392
'[12:45:34.762 22/05/1995]',-0.105,0.170,0.089,77.959,26.441,-0.392
'[12:45:34.764 22/05/1995]',-0.105,0.170,0.071,77.959,26.441,-0.392
'[12:45:34.766 22/05/1995]',-0.123,0.170,0.089,77.959,26.441,-0.392
'[12:45:34.768 22/05/1995]',-0.105,0.170,0.089,72.900,27.444,-0.402
'[12:45:34.770 22/05/1995]',-0.105,0.170,0.089,72.900,27.444,-0.402
'[12:45:34.772 22/05/1995]',-0.105,0.170,0.089,72.900,27.444,-0.402
'[12:45:34.774 22/05/1995]',-0.105,0.170,0.089,72.900,27.444,-0.402
'[12:45:34.776 22/05/1995]',-0.105,0.170,0.089,68.347,26.967,-0.412
'[12:45:34.778 22/05/1995]',-0.105,0.170,0.089,68.347,26.967,-0.412
'[12:45:34.780 22/05/1995]',-0.105,0.170,0.089,68.347,26.967,-0.412
'[12:45:34.782 22/05/1995]',-0.105,0.170,0.089,68.347,26.967,-0.412
'[12:45:34.784 22/05/1995]',-0.105,0.170,0.089,64.351,26.541,-0.424
'[12:45:34.786 22/05/1995]',-0.105,0.170,0.089,64.351,26.541,-0.424
'[12:45:34.788 22/05/1995]',-0.105,0.170,0.089,64.351,26.541,-0.424
'[12:45:34.790 22/05/1995]',-0.105,0.170,0.089,64.351,26.541,-0.424
'[12:45:34.792 22/05/1995]',-0.105,0.170,0.089,60.708,27.268,-0.436
'[12:45:34.794 22/05/1995]',-0.105,0.170,0.089,60.708,27.268,-0.436
'[12:45:34.796 22/05/1995]',-0.105,0.151,0.089,60.708,27.268,-0.436
'[12:45:34.798 22/05/1995]',-0.105,0.151,0.089,60.708,27.268,-0.436
'[12:45:34.800 22/05/1995]',-0.105,0.170,0.089,57.470,27.895,-0.449
'[12:45:34.802 22/05/1995]',-0.105,0.151,0.089,57.470,27.895,-0.449
'[12:45:34.804 22/05/1995]',-0.105,0.170,0.089,57.470,27.895,-0.449
'[12:45:34.806 22/05/1995]',-0.105,0.170,0.089,57.470,27.895,-0.449
'[12:45:34.808 22/05/1995]',-0.105,0.170,0.089,54.789,27.193,-0.462
'[12:45:34.810 22/05/1995]',-0.105,0.170,0.089,54.789,27.193,-0.462
'[12:45:34.812 22/05/1995]',-0.123,0.170,0.089,54.789,27.193,-0.462
'[12:45:34.814 22/05/1995]',-0.123,0.170,0.089,54.789,27.193,-0.462
'[12:45:34.816 22/05/1995]',-0.123,0.170,0.089,53.018,26.015,-0.476
'[12:45:34.818 22/05/1995]',-0.123,0.170,0.089,53.018,26.015,-0.476
'[12:45:34.820 22/05/1995]',-0.123,0.170,0.089,53.018,26.015,-0.476
'[12:45:34.822 22/05/1995]',-0.105,0.170,0.089,53.018,26.015,-0.476
'[12:45:34.824 22/05/1995]',-0.105,0.170,0.089,52.108,26.140,-0.490
'[12:45:34.826 22/05/1995]',-0.123,0.170,0.089,52.108,26.140,-0.490
'[12:45:34.828 22/05/1995]',-0.105,0.170,0.089,52.108,26.140,-0.490
'[12:45:34.830 22/05/1995]',-0.123,0.170,0.089,52.108,26.140,-0.490
'[12:45:34.832 22/05/1995]',-0.105,0.170,0.089,52.158,27.895,-0.503
'[12:45:34.834 22/05/1995]',-0.123,0.170,0.089,52.158,27.895,-0.503
'[12:45:34.836 22/05/1995]',-0.123,0.170,0.106,52.158,27.895,-0.503
'[12:45:34.838 22/05/1995]',-0.123,0.170,0.106,52.158,27.895,-0.503
'[12:45:34.840 22/05/1995]',-0.123,0.170,0.106,53.474,30.301,-0.516
'[12:45:34.842 22/05/1995]',-0.123,0.170,0.106,53.474,30.301,-0.516
'[12:45:34.844 22/05/1995]',-0.123,0.170,0.106,53.474,30.301,-0.516
'[12:45:34.846 22/05/1995]',-0.123,0.188,0.106,53.474,30.301,-0.516
'[12:45:34.848 22/05/1995]',-0.123,0.188,0.106,56.104,32.356,-0.529
'[12:45:34.850 22/05/1995]',-0.123,0.188,0.106,56.104,32.356,-0.529
'[12:45:34.852 22/05/1995]',-0.123,0.188,0.106,56.104,32.356,-0.529
'[12:45:34.854 22/05/1995]',-0.123,0.188,0.106,56.104,32.356,-0.529
'[12:45:34.856 22/05/1995]',-0.123,0.188,0.106,59.595,33.358,-0.541
'[12:45:34.858 22/05/1995]',-0.141,0.188,0.106,59.595,33.358,-0.541
'[12:45:34.860 22/05/1995]',-0.141,0.207,0.106,59.595,33.358,-0.541
'[12:45:34.862 22/05/1995]',-0.141,0.188,0.106,59.595,33.358,-0.541
'[12:45:34.864 22/05/1995]',-0.141,0.207,0.106,63.541,33.784,-0.552
'[12:45:34.866 22/05/1995]',-0.141,0.207,0.106,63.541,33.784,-0.552
'[12:45:34.868 22/05/1995]',-0.141,0.207,0.106,63.541,33.784,-0.552
'[12:45:34.870 22/05/1995]',-0.123,0.207,0.124,63.541,33.784,-0.552
'[12:45:34.872 22/05/1995]',-0.141,0.207,0.124,67.791,34.712,-0.562
'[12:45:34.874 22/05/1995]',-0.159,0.207,0.124,67.791,34.712,-0.562
'[12:45:34.876 22/05/1995]',-0.159,0.207,0.106,67.791,34.712,-0.562
'[12:45:34.878 22/05/1995]',-0.159,0.226,0.124,67.791,34.712,-0.562
'[12:45:34.880 22/05/1995]',-0.159,0.226,0.124,72.293,36.115,-0.572
'[12:45:34.882 22/05/1995]',-0.159,0.226,0.124,72.293,36.115,-0.572
'[12:45:34.884 22/05/1995]',-0.159,0.226,0.124,72.293,36.115,-0.572
'[12:45:34.886 22/05/1995]',-0.159,0.226,0.124,72.293,36.115,-0.572
'[12:45:34.888 22/05/1995]',-0.177,0.226,0.124,76.897,37.018,-0.581
'[12:45:34.890 22/05/1995]',-0.177,0.226,0.124,76.897,37.018,-0.581
'[12:45:34.892 22/05/1995]',-0.177,0.226,0.124,76.897,37.018,-0.581
'[12:45:34.894 22/05/1995]',-0.177,0.226,0.124,76.897,37.018,-0.581
'[12:45:34.896 22/05/1995]',-0.177,0.226,0.124,81.501,36.892,-0.590
'[12:45:34.898 22/05/1995]',-0.177,0.226,0.124,81.501,36.892,-0.590
'[12:45:34.900 22/05/1995]',-0.177,0.226,0.124,81.501,36.892,-0.590
'[12:45:34.902 22/05/1995]',-0.177,0.226,0.124,81.501,36.892,-0.590
'[12:45:34.904 22/05/1995]',-0.177,0.226,0.124,86.104,36.065,-0.599
'[12:45:34.906 22/05/1995]',-0.177,0.207,0.124,86.104,36.065,-0.599
'[12:45:34.908 22/05/1995]',-0.177,0.207,0.124,86.104,36.065,-0.599
'[12:45:34.910 22/05/1995]',-0.177,0.207,0.124,86.104,36.065,-0.599
'[12:45:34.912 22/05/1995]',-0.159,0.207,0.124,90.607,35.489,-0.608
'[12:45:34.914 22/05/1995]',-0.177,0.188,0.106,90.607,35.489,-0.608
'[12:45:34.916 22/05/1995]',-0.159,0.207,0.106,90.607,35.489,-0.608
'[12:45:34.918 22/05/1995]',-0.159,0.188,0.106,90.607,35.489,-0.608
'[12:45:34.920 22/05/1995]',-0.159,0.188,0.106,95.059,35.664,-0.618
'[12:45:34.922 22/05/1995]',-0.159,0.170,0.106,95.059,35.664,-0.618
'[12:45:34.924 22/05/1995]',-0.159,0.170,0.106,95.059,35.664,-0.618
'[12:45:34.926 22/05/1995]',-0.141,0.170,0.089,95.059,35.664,-0.618
'[12:45:34.928 22/05/1995]',-0.141,0.151,0.089,99.258,36.667,-0.627
'[12:45:34.930 22/05/1995]',-0.141,0.151,0.089,99.258,36.667,-0.627
'[12:45:34.932 22/05/1995]',-0.141,0.132,0.089,99.258,36.667,-0.627
'[12:45:34.934 22/05/1995]',-0.123,0.132,0.089,99.258,36.667,-0.627
'[12:45:34.936 22/05/1995]',-0.123,0.132,0.071,103.204,37.719,-0.636
'[12:45:34.938 22/05/1995]',-0.105,0.113,0.054,103.204,37.719,-0.636
'[12:45:34.940 22/05/1995]',-0.105,0.113,0.054,103.204,37.719,-0.636
'[12:45:34.942 22/05/1995]',-0.105,0.095,0.054,103.204,37.719,-0.636
'[12:45:34.944 22/05/1995]',-0.088,0.095,0.054,106.846,38.070,-0.646
'[12:45:34.946 22/05/1995]',-0.088,0.076,0.036,106.846,38.070,-0.646
'[12:45:34.948 22/05/1995]',-0.070,0.076,0.036,106.846,38.070,-0.646
'[12:45:34.950 22/05/1995]',-0.070,0.057,0.036,106.846,38.070,-0.646
'[12:45:34.952 22/05/1995]',-0.052,0.057,0.036,110.034,37.419,-0.656
'[12:45:34.954 22/05/1995]',-0.052,0.038,0.018,110.034,37.419,-0.656
'[12:45:34.956 22/05/1995]',-0.052,0.020,0.018,110.034,37.419,-0.656
'[12:45:34.958 22/05/1995]',-0.034,0.020,0.018,110.034,37.419,-0.656
'[12:45:34.960 22/05/1995]',-0.034,0.020,0.018,112.765,36.416,-0.664
'[12:45:34.962 22/05/1995]',-0.034,0.002,0.002,112.765,36.416,-0.664
'[12:45:34.964 22/05/1995]',-0.016,0.002,0.002,112.765,36.416,-0.664
'[12:45:34.966 22/05/1995]',-0.016,0.002,0.002,112.765,36.416,-0.664
'[12:45:34.968 22/05/1995]',0.002,0.002,0.002,114.991,35.940,-0.672
'[12:45:34.970 22/05/1995]',0.002,0.002,0.002,114.991,35.940,-0.672
'[12:45:34.972 22/05/1995]',0.002,0.002,0.002,114.991,35.940,-0.672
'[12:45:34.974 22/05/1995]',0.002,0.002,0.002,114.991,35.940,-0.672
'[12:45:34.976 22/05/1995]',0.002,0.002,0.002,116.813,36.065,-0.679
'[12:45:34.978 22/05/1995]',0.002,0.002,0.002,116.813,36.065,-0.679
'[12:45:34.980 22/05/1995]',0.002,0.002,0.002,116.813,36.065,-0.679
'[12:45:34.982 22/05/1995]',0.002,0.002,0.002,116.813,36.065,-0.679
'[12:45:34.984 22/05/1995]',0.002,-0.017,0.002,118.077,36.316,-0.686
'[12:45:34.986 22/05/1995]',0.002,-0.017,0.002,118.077,36.316,-0.686
'[12:45:34.988 22/05/1995]',0.002,-0.017,0.002,118.077,36.316,-0.686
'[12:45:34.990 22/05/1995]',0.002,-0.017,0.002,118.077,36.316,-0.686
'[12:45:34.992 22/05/1995]',0.002,-0.017,0.002,118.786,36.316,-0.692
'[12:45:34.994 22/05/1995]',0.002,-0.017,0.002,118.786,36.316,-0.692
'[12:45:34.996 22/05/1995]',0.002,-0.017,0.002,118.786,36.316,-0.692
'[12:45:34.998 22/05/1995]',0.002,-0.017,0.002,118.786,36.316,-0.692
'[12:45:35.000 22/05/1995]',0.002,-0.017,0.002,118.988,36.115,-0.697
'[12:45:35.002 22/05/1995]',0.019,-0.017,0.002,118.988,36.115,-0.697
'[12:45:35.004 22/05/1995]',0.002,-0.017,0.002,118.988,36.115,-0.697
'[12:45:35.006 22/05/1995]',0.019,-0.017,0.002,118.988,36.115,-0.697
'[12:45:35.008 22/05/1995]',0.019,-0.017,0.002,118.684,35.940,-0.701
'[12:45:35.010 22/05/1995]',0.019,-0.017,0.002,118.684,35.940,-0.701
'[12:45:35.012 22/05/1995]',0.019,-0.017,0.002,118.684,35.940,-0.701
'[12:45:35.014 22/05/1995]',0.002,-0.017,0.002,118.684,35.940,-0.701
'[12:45:35.016 22/05/1995]',0.019,-0.017,0.002,117.926,35.840,-0.705
'[12:45:35.018 22/05/1995]',0.019,-0.017,0.002,117.926,35.840,-0.705
'[12:45:35.020 22/05/1995]',0.019,-0.017,0.002,117.926,35.840,-0.705
'[12:45:35.022 22/05/1995]',0.019,-0.017,0.002,117.926,35.840,-0.705
'[12:45:35.024 22/05/1995]',0.019,-0.017,0.002,116.711,35.539,-0.709
'[12:45:35.026 22/05/1995]',0.019,-0.017,0.002,116.711,35.539,-0.709
'[12:45:35.028 22/05/1995]',0.019,-0.017,0.002,116.711,35.539,-0.709
'[12:45:35.030 22/05/1995]',0.019,-0.017,0.002,116.711,35.539,-0.709
'[12:45:35.032 22/05/1995]',0.019,0.002,0.002,114.991,34.837,-0.713
'[12:45:35.034 22/05/1995]',0.019,0.002,0.002,114.991,34.837,-0.713
'[12:45:35.036 22/05/1995]',0.019,-0.017,0.002,114.991,34.837,-0.713
'[12:45:35.038 22/05/1995]',0.019,-0.017,0.002,114.991,34.837,-0.713
'[12:45:35.040 22/05/1995]',0.019,0.002,0.002,112.867,33.709,-0.717
'[12:45:35.042 22/05/1995]',0.019,-0.017,0.002,112.867,33.709,-0.717
'[12:45:35.044 22/05/1995]',0.019,0.002,0.002,112.867,33.709,-0.717
'[12:45:35.046 22/05/1995]',0.019,0.002,0.002,112.867,33.709,-0.717
'[12:45:35.048 22/05/1995]',0.019,0.002,0.002,110.388,32.481,-0.721
'[12:45:35.050 22/05/1995]',0.019,0.002,0.002,110.388,32.481,-0.721
'[12:45:35.052 22/05/1995]',0.019,0.002,0.002,110.388,32.481,-0.721
'[12:45:35.054 22/05/1995]',0.019,0.002,0.002,110.388,32.481,-0.721
'[12:45:35.056 22/05/1995]',0.019,0.002,0.002,107.605,31.429,-0.725
'[12:45:35.058 22/05/1995]',0.019,0.002,0.002,107.605,31.429,-0.725
'[12:45:35.060 22/05/1995]',0.019,0.002,0.002,107.605,31.429,-0.725
'[12:45:35.062 22/05/1995]',0.019,0.002,0.002,107.605,31.429,-0.725
'[12:45:35.064 22/05/1995]',0.002,0.002,0.002,104.570,30.727,-0.728
'[12:45:35.066 22/05/1995]',0.002,0.002,0.002,104.570,30.727,-0.728
'[12:45:35.068 22/05/1995]',0.002,0.002,0.002,104.570,30.727,-0.728
'[12:45:35.070 22/05/1995]',0.019,0.002,0.002,104.570,30.727,-0.728
'[12:45:35.072 22/05/1995]',0.002,0.002,0.002,101.534,30.301,-0.730
'[12:45:35.074 22/05/1995]',0.002,0.002,0.002,101.534,30.301,-0.730
'[12:45:35.076 22/05/1995]',0.019,0.002,0.002,101.534,30.301,-0.730
'[12:45:35.078 22/05/1995]',0.002,0.002,0.002,101.534,30.301,-0.730
'[12:45:35.080 22/05/1995]',0.002,0.002,0.002,98.651,29.674,-0.733
'[12:45:35.082 22/05/1995]',0.002,0.002,0.002,98.651,29.674,-0.733
'[12:45:35.084 22/05/1995]',0.002,0.002,0.002,98.651,29.674,-0.733
'[12:45:35.086 22/05/1995]',0.002,0.002,0.002,98.651,29.674,-0.733
'[12:45:35.088 22/05/1995]',0.002,0.002,0.002,95.919,28.371,-0.735
'[12:45:35.090 22/05/1995]',0.002,0.002,0.002,95.919,28.371,-0.735
'[12:45:35.092 22/05/1995]',0.002,0.002,0.002,95.919,28.371,-0.735
'[12:45:35.094 22/05/1995]',0.002,0.002,0.002,95.919,28.371,-0.735
'[12:45:35.096 22/05/1995]',0.002,0.002,0.002,93.491,27.093,-0.736
'[12:45:35.098 22/05/1995]',0.002,0.002,0.002,93.491,27.093,-0.736
'[12:45:35.100 22/05/1995]',0.002,0.002,0.002,93.491,27.093,-0.736
'[12:45:35.102 22/05/1995]',0.002,0.002,0.002,93.491,27.093,-0.736
'[12:45:35.104 22/05/1995]',0.002,0.002,0.002,91.315,27.193,-0.738
'[12:45:35.106 22/05/1995]',0.002,0.002,0.002,91.315,27.193,-0.738
'[12:45:35.108 22/05/1995]',0.002,0.002,0.002,91.315,27.193,-0.738
'[12:45:35.110 22/05/1995]',0.002,0.002,0.002,91.315,27.193,-0.738
'[12:45:35.112 22/05/1995]',0.002,0.002,0.002,89.545,29.023,-0.739
'[12:45:35.114 22/05/1995]',0.002,0.002,0.002,89.545,29.023,-0.739
'[12:45:35.116 22/05/1995]',0.002,0.002,0.002,89.545,29.023,-0.739
'[12:45:35.118 22/05/1995]',0.002,0.002,0.002,89.545,29.023,-0.739
'[12:45:35.120 22/05/1995]',0.002,0.002,0.002,87.976,30.852,-0.741
'[12:45:35.122 22/05/1995]',0.002,0.002,0.002,87.976,30.852,-0.741
'[12:45:35.124 22/05/1995]',0.002,0.002,0.002,87.976,30.852,-0.741
'[12:45:35.126 22/05/1995]',0.002,0.002,0.002,87.976,30.852,-0.741
'[12:45:35.128 22/05/1995]',0.002,0.002,0.002,86.813,30.952,-0.744
'[12:45:35.130 22/05/1995]',0.002,0.002,0.002,86.813,30.952,-0.744
'[12:45:35.132 22/05/1995]',0.002,0.002,0.002,86.813,30.952,-0.744
'[12:45:35.134 22/05/1995]',0.002,0.002,0.002,86.813,30.952,-0.744
'[12:45:35.136 22/05/1995]',0.002,0.002,0.002,86.003,29.549,-0.747
'[12:45:35.138 22/05/1995]',0.002,0.002,0.002,86.003,29.549,-0.747
'[12:45:35.140 22/05/1995]',0.002,0.002,0.002,86.003,29.549,-0.747
'[12:45:35.142 22/05/1995]',0.002,0.002,0.002,86.003,29.549,-0.747
'[12:45:35.144 22/05/1995]',0.019,0.002,0.002,85.750,27.669,-0.750
'[12:45:35.146 22/05/1995]',0.019,0.002,0.002,85.750,27.669,-0.750
'[12:45:35.148 22/05/1995]',0.019,0.002,0.002,85.750,27.669,-0.750
'[12:45:35.150 22/05/1995]',0.019,0.002,0.002,85.750,27.669,-0.750
'[12:45:35.152 22/05/1995]',0.019,0.002,0.002,85.902,26.617,-0.752
'[12:45:35.154 22/05/1995]',0.019,0.002,0.002,85.902,26.617,-0.752
'[12:45:35.156 22/05/1995]',0.019,0.002,0.002,85.902,26.617,-0.752
'[12:45:35.158 22/05/1995]',0.002,0.002,0.002,85.902,26.617,-0.752
'[12:45:35.160 22/05/1995]',0.019,0.002,0.002,86.610,26.842,-0.755
'[12:45:35.162 22/05/1995]',0.019,0.002,0.002,86.610,26.842,-0.755
'[12:45:35.164 22/05/1995]',0.019,0.002,0.002,86.610,26.842,-0.755
'[12:45:35.166 22/05/1995]',0.019,0.002,0.002,86.610,26.842,-0.755
'[12:45:35.168 22/05/1995]',0.019,0.002,0.002,87.875,27.845,-0.758
'[12:45:35.170 22/05/1995]',0.019,0.002,0.002,87.875,27.845,-0.758
'[12:45:35.172 22/05/1995]',0.019,0.002,0.002,87.875,27.845,-0.758
'[12:45:35.174 22/05/1995]',0.019,0.002,0.002,87.875,27.845,-0.758
'[12:45:35.176 22/05/1995]',0.019,0.002,0.002,89.696,28.972,-0.761
'[12:45:35.178 22/05/1995]',0.019,0.002,0.002,89.696,28.972,-0.761
'[12:45:35.180 22/05/1995]',0.019,0.002,0.002,89.696,28.972,-0.761
'[12:45:35.182 22/05/1995]',0.019,0.002,0.002,89.696,28.972,-0.761
'[12:45:35.184 22/05/1995]',0.019,0.002,0.002,92.125,29.674,-0.764
'[12:45:35.186 22/05/1995]',0.019,0.002,0.002,92.125,29.674,-0.764
'[12:45:35.188 22/05/1995]',0.019,0.002,0.002,92.125,29.674,-0.764
'[12:45:35.190 22/05/1995]',0.019,0.002,0.002,92.125,29.674,-0.764
'[12:45:35.192 22/05/1995]',0.019,0.002,0.002,95.109,29.674,-0.767
'[12:45:35.194 22/05/1995]',0.019,0.002,0.002,95.109,29.674,-0.767
'[12:45:35.196 22/05/1995]',0.019,0.002,0.002,95.109,29.674,-0.767
'[12:45:35.198 22/05/1995]',0.019,0.002,0.002,95.109,29.674,-0.767
'[12:45:35.200 22/05/1995]',0.019,0.002,0.002,98.550,29.323,-0.771
'[12:45:35.202 22/05/1995]',0.019,0.002,0.002,98.550,29.323,-0.771
'[12:45:35.204 22/05/1995]',0.019,0.002,0.002,98.550,29.323,-0.771
'[12:45:35.206 22/05/1995]',0.019,0.002,0.002,98.550,29.323,-0.771
'[12:45:35.208 22/05/1995]',0.036,0.002,0.002,102.445,28.722,-0.774
'[12:45:35.210 22/05/1995]',0.036,0.002,0.002,102.445,28.722,-0.774
'[12:45:35.212 22/05/1995]',0.054,0.002,0.002,102.445,28.722,-0.774
'[12:45:35.214 22/05/1995]',0.054,-0.017,0.002,102.445,28.722,-0.774
'[12:45:35.216 22/05/1995]',0.072,-0.017,0.002,106.543,28.145,-0.777
'[12:45:35.218 22/05/1995]',0.090,-0.036,0.002,106.543,28.145,-0.777
'[12:45:35.220 22/05/1995]',0.090,-0.036,-0.016,106.543,28.145,-0.777
'[12:45:35.222 22/05/1995]',0.090,-0.055,-0.034,106.543,28.145,-0.777
'[12:45:35.224 22/05/1995]',0.090,-0.055,-0.034,110.792,27.669,-0.779
'[12:45:35.226 22/05/1995]',0.090,-0.073,-0.034,110.792,27.669,-0.779
'[12:45:35.228 22/05/1995]',0.108,-0.073,-0.034,110.792,27.669,-0.779
'[12:45:35.230 22/05/1995]',0.108,-0.073,-0.034,110.792,27.669,-0.779
'[12:45:35.232 22/05/1995]',0.108,-0.073,-0.034,115.244,27.444,-0.780
'[12:45:35.234 22/05/1995]',0.090,-0.073,-0.034,115.244,27.444,-0.780
'[12:45:35.236 22/05/1995]',0.108,-0.073,-0.034,115.244,27.444,-0.780
'[12:45:35.238 22/05/1995]',0.090,-0.073,-0.016,115.244,27.444,-0.780
'[12:45:35.240 22/05/1995]',0.090,-0.055,-0.016,119.747,27.544,-0.781
'[12:45:35.242 22/05/1995]',0.072,-0.055,-0.034,119.747,27.544,-0.781
'[12:45:35.244 22/05/1995]',0.072,-0.055,-0.016,119.747,27.544,-0.781
'[12:45:35.246 22/05/1995]',0.072,-0.055,-0.016,119.747,27.544,-0.781
'[12:45:35.248 22/05/1995]',0.072,-0.055,-0.016,124.300,27.544,-0.781
'[12:45:35.250 22/05/1995]',0.054,-0.055,-0.016,124.300,27.544,-0.781
'[12:45:35.252 22/05/1995]',0.054,-0.055,-0.016,124.300,27.544,-0.781
'[12:45:35.254 22/05/1995]',0.054,-0.036,-0.016,124.300,27.544,-0.781
'[12:45:35.256 22/05/1995]',0.036,-0.036,0.002,128.651,27.318,-0.781
'[12:45:35.258 22/05/1995]',0.036,-0.017,0.002,128.651,27.318,-0.781
'[12:45:35.260 22/05/1995]',0.019,-0.017,0.002,128.651,27.318,-0.781
'[12:45:35.262 22/05/1995]',0.019,-0.017,0.002,128.651,27.318,-0.781
'[12:45:35.264 22/05/1995]',0.019,-0.017,0.002,132.647,26.917,-0.780
'[12:45:35.266 22/05/1995]',0.019,-0.017,0.002,132.647,26.917,-0.780
'[12:45:35.268 22/05/1995]',0.019,0.002,0.002,132.647,26.917,-0.780
'[12:45:35.270 22/05/1995]',0.002,-0.017,0.002,132.647,26.917,-0.780
'[12:45:35.272 22/05/1995]',0.019,0.002,0.002,136.138,26.366,-0.779
'[12:45:35.274 22/05/1995]',0.019,-0.017,0.002,136.138,26.366,-0.779
'[12:45:35.276 22/05/1995]',0.019,-0.017,0.002,136.138,26.366,-0.779
'[12:45:35.278 22/05/1995]',0.019,-0.017,0.002,136.138,26.366,-0.779
'[12:45:35.280 22/05/1995]',0.019,-0.017,0.002,139.123,25.915,-0.778
'[12:45:35.282 22/05/1995]',0.019,-0.017,0.002,139.123,25.915,-0.778
'[12:45:35.284 22/05/1995]',0.019,-0.017,0.002,139.123,25.915,-0.778
'[12:45:35.286 22/05/1995]',0.019,-0.017,0.002,139.123,25.915,-0.778
'[12:45:35.288 22/05/1995]',0.019,-0.017,0.002,141.501,25.489,-0.777
'[12:45:35.290 22/05/1995]',0.019,-0.017,0.002,141.501,25.489,-0.777
'[12:45:35.292 22/05/1995]',0.019,-0.017,0.002,141.501,25.489,-0.777
'[12:45:35.294 22/05/1995]',0.019,-0.017,0.002,141.501,25.489,-0.777
'[12:45:35.296 22/05/1995]',0.019,-0.017,0.002,143.372,25.213,-0.776
'[12:45:35.298 22/05/1995]',0.002,-0.017,0.002,143.372,25.213,-0.776
'[12:45:35.300 22/05/1995]',0.002,-0.017,0.002,143.372,25.213,-0.776
'[12:45:35.302 22/05/1995]',0.019,-0.017,0.002,143.372,25.213,-0.776
'[12:45:35.304 22/05/1995]',0.019,-0.017,0.002,144.536,24.912,-0.775
'[12:45:35.306 22/05/1995]',0.002,-0.017,0.002,144.536,24.912,-0.775
'[12:45:35.308 22/05/1995]',0.019,-0.017,0.002,144.536,24.912,-0.775
'[12:45:35.310 22/05/1995]',0.019,-0.017,0.002,144.536,24.912,-0.775
'[12:45:35.312 22/05/1995]',0.019,0.002,0.002,145.093,24.561,-0.773
'[12:45:35.314 22/05/1995]',0.002,0.002,0.002,145.093,24.561,-0.773
'[12:45:35.316 22/05/1995]',0.002,0.002,0.002,145.093,24.561,-0.773
'[12:45:35.318 22/05/1995]',0.002,0.020,0.018,145.093,24.561,-0.773
'[12:45:35.320 22/05/1995]',-0.034,0.057,0.018,144.991,24.386,-0.772
'[12:45:35.322 22/05/1995]',-0.070,0.113,0.054,144.991,24.386,-0.772
'[12:45:35.324 22/05/1995]',-0.123,0.151,0.071,144.991,24.386,-0.772
'[12:45:35.326 22/05/1995]',-0.159,0.188,0.089,144.991,24.386,-0.772
'[12:45:35.328 22/05/1995]',-0.159,0.188,0.089,144.384,24.612,-0.770
'[12:45:35.330 22/05/1995]',-0.141,0.170,0.089,144.384,24.612,-0.770
'[12:45:35.332 22/05/1995]',-0.123,0.132,0.054,144.384,24.612,-0.770
'[12:45:35.334 22/05/1995]',-0.070,0.076,0.036,144.384,24.612,-0.770
'[12:45:35.336 22/05/1995]',-0.016,0.020,0.002,143.018,25.263,-0.767
'[12:45:35.338 22/05/1995]',0.019,-0.036,-0.016,143.018,25.263,-0.767
'[12:45:35.340 22/05/1995]',0.108,-0.148,-0.069,143.018,25.263,-0.767
'[12:45:35.342 22/05/1995]',0.233,-0.279,-0.122,143.018,25.263,-0.767
'[12:45:35.344 22/05/1995]',0.357,-0.429,-0.192,140.742,25.840,-0.765
'[12:45:35.346 22/05/1995]',0.517,-0.597,-0.245,140.742,25.840,-0.765
'[12:45:35.348 22/05/1995]',0.677,-0.784,-0.332,140.742,25.840,-0.765
'[12:45:35.350 22/05/1995]',0.908,-1.064,-0.438,140.742,25.840,-0.765
'[12:45:35.352 22/05/1995]',1.157,-1.363,-0.578,137.656,25.915,-0.762
'[12:45:35.354 22/05/1995]',1.317,-1.588,-0.683,137.656,25.915,-0.762
'[12:45:35.356 22/05/1995]',1.335,-1.644,-0.718,137.656,25.915,-0.762
'[12:45:35.358 22/05/1995]',1.281,-1.606,-0.718,137.656,25.915,-0.762
'[12:45:35.360 22/05/1995]',1.139,-1.494,-0.701,133.710,25.614,-0.758
'[12:45:35.362 22/05/1995]',0.908,-1.233,-0.630,133.710,25.614,-0.758
'[12:45:35.364 22/05/1995]',0.695,-0.971,-0.560,133.710,25.614,-0.758
'[12:45:35.366 22/05/1995]',0.534,-0.747,-0.507,133.710,25.614,-0.758
'[12:45:35.368 22/05/1995]',0.393,-0.578,-0.438,128.853,25.263,-0.755
'[12:45:35.370 22/05/1995]',0.303,-0.485,-0.367,128.853,25.263,-0.755
'[12:45:35.372 22/05/1995]',0.233,-0.410,-0.332,128.853,25.263,-0.755
'[12:45:35.374 22/05/1995]',0.179,-0.354,-0.279,128.853,25.263,-0.755
'[12:45:35.376 22/05/1995]',0.161,-0.298,-0.227,123.086,25.038,-0.752
'[12:45:35.378 22/05/1995]',0.126,-0.261,-0.174,123.086,25.038,-0.752
'[12:45:35.380 22/05/1995]',0.090,-0.186,-0.139,123.086,25.038,-0.752
'[12:45:35.382 22/05/1995]',0.036,-0.130,-0.104,123.086,25.038,-0.752
'[12:45:35.384 22/05/1995]',0.019,-0.073,-0.051,116.661,24.612,-0.750
'[12:45:35.386 22/05/1995]',0.002,-0.017,-0.016,116.661,24.612,-0.750
'[12:45:35.388 22/05/1995]',-0.016,0.002,0.002,116.661,24.612,-0.750
'[12:45:35.390 22/05/1995]',-0.034,0.038,0.002,116.661,24.612,-0.750
'[12:45:35.392 22/05/1995]',-0.052,0.057,0.018,110.034,23.910,-0.748
'[12:45:35.394 22/05/1995]',-0.070,0.095,0.036,110.034,23.910,-0.748
'[12:45:35.396 22/05/1995]',-0.088,0.113,0.054,110.034,23.910,-0.748
'[12:45:35.398 22/05/1995]',-0.088,0.132,0.054,110.034,23.910,-0.748
'[12:45:35.400 22/05/1995]',-0.105,0.132,0.071,103.406,23.258,-0.746
'[12:45:35.402 22/05/1995]',-0.105,0.151,0.071,103.406,23.258,-0.746
'[12:45:35.404 22/05/1995]',-0.105,0.151,0.071,103.406,23.258,-0.746
'[12:45:35.406 22/05/1995]',-0.105,0.151,0.071,103.406,23.258,-0.746
'[12:45:35.408 22/05/1995]',-0.105,0.151,0.089,96.880,23.509,-0.743
'[12:45:35.410 22/05/1995]',-0.123,0.170,0.089,96.880,23.509,-0.743
'[12:45:35.412 22/05/1995]',-0.123,0.170,0.089,96.880,23.509,-0.743
'[12:45:35.414 22/05/1995]',-0.123,0.170,0.071,96.880,23.509,-0.743
'[12:45:35.416 22/05/1995]',-0.123,0.170,0.089,90.658,24.837,-0.741
'[12:45:35.418 22/05/1995]',-0.105,0.170,0.089,90.658,24.837,-0.741
'[12:45:35.420 22/05/1995]',-0.105,0.170,0.089,90.658,24.837,-0.741
'[12:45:35.422 22/05/1995]',-0.105,0.170,0.089,90.658,24.837,-0.741
'[12:45:35.424 22/05/1995]',-0.105,0.170,0.089,84.738,26.491,-0.738
'[12:45:35.426 22/05/1995]',-0.123,0.170,0.089,84.738,26.491,-0.738
'[12:45:35.428 22/05/1995]',-0.123,0.170,0.089,84.738,26.491,-0.738
'[12:45:35.430 22/05/1995]',-0.123,0.170,0.089,84.738,26.491,-0.738
'[12:45:35.432 22/05/1995]',-0.123,0.170,0.089,79.275,27.193,-0.736
'[12:45:35.434 22/05/1995]',-0.105,0.170,0.089,79.275,27.193,-0.736
'[12:45:35.436 22/05/1995]',-0.123,0.170,0.089,79.275,27.193,-0.736
'[12:45:35.438 22/05/1995]',-0.123,0.151,0.089,79.275,27.193,-0.736
'[12:45:35.440 22/05/1995]',-0.123,0.170,0.089,74.165,26.617,-0.734
'[12:45:35.442 22/05/1995]',-0.105,0.170,0.089,74.165,26.617,-0.734
'[12:45:35.444 22/05/1995]',-0.105,0.170,0.089,74.165,26.617,-0.734
'[12:45:35.446 22/05/1995]',-0.105,0.170,0.089,74.165,26.617,-0.734
'[12:45:35.448 22/05/1995]',-0.105,0.170,0.089,69.612,25.739,-0.733
'[12:45:35.450 22/05/1995]',-0.123,0.170,0.089,69.612,25.739,-0.733
'[12:45:35.452 22/05/1995]',-0.105,0.170,0.089,69.612,25.739,-0.733
'[12:45:35.454 22/05/1995]',-0.105,0.170,0.089,69.612,25.739,-0.733
'[12:45:35.456 22/05/1995]',-0.105,0.170,0.089,65.514,25.965,-0.733
'[12:45:35.458 22/05/1995]',-0.123,0.170,0.089,65.514,25.965,-0.733
'[12:45:35.460 22/05/1995]',-0.105,0.170,0.089,65.514,25.965,-0.733
'[12:45:35.462 22/05/1995]',-0.105,0.170,0.089,65.514,25.965,-0.733
'[12:45:35.464 22/05/1995]',-0.105,0.170,0.089,61.872,27.719,-0.732
'[12:45:35.466 22/05/1995]',-0.105,0.170,0.089,61.872,27.719,-0.732
'[12:45:35.468 22/05/1995]',-0.105,0.170,0.089,61.872,27.719,-0.732
'[12:45:35.470 22/05/1995]',-0.105,0.170,0.089,61.872,27.719,-0.732
'[12:45:35.472 22/05/1995]',-0.105,0.170,0.106,58.634,29.198,-0.733
'[12:45:35.474 22/05/1995]',-0.105,0.170,0.106,58.634,29.198,-0.733
'[12:45:35.476 22/05/1995]',-0.123,0.170,0.089,58.634,29.198,-0.733
'[12:45:35.478 22/05/1995]',-0.123,0.170,0.089,58.634,29.198,-0.733
'[12:45:35.480 22/05/1995]',-0.105,0.170,0.089,55.953,28.321,-0.734
'[12:45:35.482 22/05/1995]',-0.105,0.170,0.106,55.953,28.321,-0.734
'[12:45:35.484 22/05/1995]',-0.123,0.170,0.089,55.953,28.321,-0.734
'[12:45:35.486 22/05/1995]',-0.105,0.170,0.089,55.953,28.321,-0.734
'[12:45:35.488 22/05/1995]',-0.105,0.170,0.089,54.233,25.739,-0.735
'[12:45:35.490 22/05/1995]',-0.123,0.170,0.089,54.233,25.739,-0.735
'[12:45:35.492 22/05/1995]',-0.123,0.188,0.089,54.233,25.739,-0.735
'[12:45:35.494 22/05/1995]',-0.123,0.170,0.089,54.233,25.739,-0.735
'[12:45:35.496 22/05/1995]',-0.123,0.188,0.106,53.373,24.211,-0.736
'[12:45:35.498 22/05/1995]',-0.123,0.170,0.106,53.373,24.211,-0.736
'[12:45:35.500 22/05/1995]',-0.123,0.188,0.106,53.373,24.211,-0.736
'[12:45:35.502 22/05/1995]',-0.123,0.188,0.106,53.373,24.211,-0.736
'[12:45:35.504 22/05/1995]',-0.123,0.188,0.106,53.322,25.489,-0.736
'[12:45:35.506 22/05/1995]',-0.123,0.188,0.106,53.322,25.489,-0.736
'[12:45:35.508 22/05/1995]',-0.123,0.188,0.106,53.322,25.489,-0.736
'[12:45:35.510 22/05/1995]',-0.123,0.188,0.106,53.322,25.489,-0.736
'[12:45:35.512 22/05/1995]',-0.123,0.188,0.106,54.536,28.847,-0.736
'[12:45:35.514 22/05/1995]',-0.123,0.188,0.106,54.536,28.847,-0.736
'[12:45:35.516 22/05/1995]',-0.123,0.188,0.106,54.536,28.847,-0.736
'[12:45:35.518 22/05/1995]',-0.123,0.188,0.106,54.536,28.847,-0.736
'[12:45:35.520 22/05/1995]',-0.123,0.207,0.106,57.167,32.080,-0.736
'[12:45:35.522 22/05/1995]',-0.123,0.188,0.106,57.167,32.080,-0.736
'[12:45:35.524 22/05/1995]',-0.141,0.207,0.106,57.167,32.080,-0.736
'[12:45:35.526 22/05/1995]',-0.123,0.207,0.106,57.167,32.080,-0.736
'[12:45:35.528 22/05/1995]',-0.141,0.207,0.106,60.658,33.484,-0.734
'[12:45:35.530 22/05/1995]',-0.141,0.207,0.106,60.658,33.484,-0.734
'[12:45:35.532 22/05/1995]',-0.141,0.207,0.106,60.658,33.484,-0.734
'[12:45:35.534 22/05/1995]',-0.141,0.207,0.124,60.658,33.484,-0.734
'[12:45:35.536 22/05/1995]',-0.141,0.207,0.106,64.553,33.434,-0.732
'[12:45:35.538 22/05/1995]',-0.141,0.207,0.124,64.553,33.434,-0.732
'[12:45:35.540 22/05/1995]',-0.141,0.207,0.124,64.553,33.434,-0.732
'[12:45:35.542 22/05/1995]',-0.159,0.226,0.124,64.553,33.434,-0.732
'[12:45:35.544 22/05/1995]',-0.159,0.226,0.124,68.701,33.183,-0.728
'[12:45:35.546 22/05/1995]',-0.159,0.226,0.124,68.701,33.183,-0.728
'[12:45:35.548 22/05/1995]',-0.159,0.226,0.124,68.701,33.183,-0.728
'[12:45:35.550 22/05/1995]',-0.159,0.226,0.124,68.701,33.183,-0.728
'[12:45:35.552 22/05/1995]',-0.177,0.226,0.124,73.153,33.609,-0.724
'[12:45:35.554 22/05/1995]',-0.177,0.226,0.124,73.153,33.609,-0.724
'[12:45:35.556 22/05/1995]',-0.177,0.245,0.124,73.153,33.609,-0.724
'[12:45:35.558 22/05/1995]',-0.177,0.245,0.124,73.153,33.609,-0.724
'[12:45:35.560 22/05/1995]',-0.177,0.245,0.124,77.656,34.185,-0.719
'[12:45:35.562 22/05/1995]',-0.177,0.245,0.124,77.656,34.185,-0.719
'[12:45:35.564 22/05/1995]',-0.177,0.245,0.124,77.656,34.185,-0.719
'[12:45:35.566 22/05/1995]',-0.177,0.226,0.124,77.656,34.185,-0.719
'[12:45:35.568 22/05/1995]',-0.177,0.226,0.106,82.108,34.486,-0.713
'[12:45:35.570 22/05/1995]',-0.195,0.226,0.124,82.108,34.486,-0.713
'[12:45:35.572 22/05/1995]',-0.177,0.245,0.124,82.108,34.486,-0.713
'[12:45:35.574 22/05/1995]',-0.195,0.226,0.124,82.108,34.486,-0.713
'[12:45:35.576 22/05/1995]',-0.195,0.226,0.124,86.610,34.436,-0.707
'[12:45:35.578 22/05/1995]',-0.195,0.226,0.106,86.610,34.436,-0.707
'[12:45:35.580 22/05/1995]',-0.177,0.226,0.124,86.610,34.436,-0.707
'[12:45:35.582 22/05/1995]',-0.177,0.226,0.106,86.610,34.436,-0.707
'[12:45:35.584 22/05/1995]',-0.177,0.226,0.106,91.062,34.185,-0.701
'[12:45:35.586 22/05/1995]',-0.177,0.207,0.106,91.062,34.185,-0.701
'[12:45:35.588 22/05/1995]',-0.177,0.207,0.106,91.062,34.185,-0.701
'[12:45:35.590 22/05/1995]',-0.177,0.188,0.106,91.062,34.185,-0.701
'[12:45:35.592 22/05/1995]',-0.159,0.188,0.089,95.413,34.060,-0.694
'[12:45:35.594 22/05/1995]',-0.159,0.188,0.106,95.413,34.060,-0.694
'[12:45:35.596 22/05/1995]',-0.159,0.170,0.106,95.413,34.060,-0.694
'[12:45:35.598 22/05/1995]',-0.159,0.170,0.089,95.413,34.060,-0.694
'[12:45:35.600 22/05/1995]',-0.141,0.170,0.089,99.460,34.236,-0.686
'[12:45:35.602 22/05/1995]',-0.141,0.151,0.089,99.460,34.236,-0.686
'[12:45:35.604 22/05/1995]',-0.141,0.151,0.089,99.460,34.236,-0.686
'[12:45:35.606 22/05/1995]',-0.123,0.132,0.071,99.460,34.236,-0.686
'[12:45:35.608 22/05/1995]',-0.123,0.132,0.071,103.356,34.662,-0.677
'[12:45:35.610 22/05/1995]',-0.123,0.132,0.071,103.356,34.662,-0.677
'[12:45:35.612 22/05/1995]',-0.105,0.113,0.054,103.356,34.662,-0.677
'[12:45:35.614 22/05/1995]',-0.105,0.095,0.054,103.356,34.662,-0.677
'[12:45:35.616 22/05/1995]',-0.088,0.095,0.054,106.846,34.787,-0.667
'[12:45:35.618 22/05/1995]',-0.088,0.076,0.036,106.846,34.787,-0.667
'[12:45:35.620 22/05/1995]',-0.070,0.076,0.036,106.846,34.787,-0.667
'[12:45:35.622 22/05/1995]',-0.070,0.057,0.036,106.846,34.787,-0.667
'[12:45:35.624 22/05/1995]',-0.070,0.038,0.036,109.882,34.486,-0.655
'[12:45:35.626 22/05/1995]',-0.052,0.038,0.018,109.882,34.486,-0.655
'[12:45:35.628 22/05/1995]',-0.052,0.038,0.018,109.882,34.486,-0.655
'[12:45:35.630 22/05/1995]',-0.052,0.020,0.018,109.882,34.486,-0.655
'[12:45:35.632 22/05/1995]',-0.034,0.020,0.002,112.411,34.010,-0.642
'[12:45:35.634 22/05/1995]',-0.034,0.020,0.018,112.411,34.010,-0.642
'[12:45:35.636 22/05/1995]',-0.034,0.002,0.002,112.411,34.010,-0.642
'[12:45:35.638 22/05/1995]',-0.016,0.002,0.002,112.411,34.010,-0.642
'[12:45:35.640 22/05/1995]',-0.016,0.002,0.002,114.435,33.484,-0.626
'[12:45:35.642 22/05/1995]',-0.016,0.002,0.002,114.435,33.484,-0.626
'[12:45:35.644 22/05/1995]',-0.016,0.002,0.002,114.435,33.484,-0.626
'[12:45:35.646 22/05/1995]',0.002,0.002,0.002,114.435,33.484,-0.626
'[12:45:35.648 22/05/1995]',0.002,0.002,0.002,115.953,32.957,-0.609
'[12:45:35.650 22/05/1995]',0.002,0.002,0.002,115.953,32.957,-0.609
'[12:45:35.652 22/05/1995]',0.002,0.002,0.002,115.953,32.957,-0.609
'[12:45:35.654 22/05/1995]',0.002,0.002,0.002,115.953,32.957,-0.609
'[12:45:35.656 22/05/1995]',0.002,0.002,0.002,116.964,32.431,-0.590
'[12:45:35.658 22/05/1995]',0.002,0.002,0.002,116.964,32.431,-0.590
'[12:45:35.660 22/05/1995]',0.002,0.002,0.002,116.964,32.431,-0.590
'[12:45:35.662 22/05/1995]',0.002,0.002,0.002,116.964,32.431,-0.590
'[12:45:35.664 22/05/1995]',0.002,0.002,0.002,117.521,32.130,-0.569
'[12:45:35.666 22/05/1995]',0.002,0.002,0.002,117.521,32.130,-0.569
'[12:45:35.668 22/05/1995]',0.002,0.002,0.002,117.521,32.130,-0.569
'[12:45:35.670 22/05/1995]',0.002,0.002,0.002,117.521,32.130,-0.569
'[12:45:35.672 22/05/1995]',0.002,0.002,0.002,117.571,32.130,-0.547
'[12:45:35.674 22/05/1995]',0.002,0.002,0.002,117.571,32.130,-0.547
'[12:45:35.676 22/05/1995]',0.002,0.002,0.002,117.571,32.130,-0.547
'[12:45:35.678 22/05/1995]',0.002,0.002,0.002,117.571,32.130,-0.547
'[12:45:35.680 22/05/1995]',0.002,0.002,0.002,117.116,32.080,-0.524
'[12:45:35.682 22/05/1995]',0.002,0.002,0.002,117.116,32.080,-0.524
'[12:45:35.684 22/05/1995]',0.002,0.002,0.002,117.116,32.080,-0.524
'[12:45:35.686 22/05/1995]',0.002,0.002,0.002,117.116,32.080,-0.524
'[12:45:35.688 22/05/1995]',0.002,0.002,0.002,116.206,31.604,-0.501
'[12:45:35.690 22/05/1995]',0.002,0.002,0.002,116.206,31.604,-0.501
'[12:45:35.692 22/05/1995]',0.002,0.002,0.002,116.206,31.604,-0.501
'[12:45:35.694 22/05/1995]',0.002,0.002,0.002,116.206,31.604,-0.501
'[12:45:35.696 22/05/1995]',0.002,0.002,0.002,114.789,30.852,-0.476
'[12:45:35.698 22/05/1995]',0.002,0.002,0.002,114.789,30.852,-0.476
'[12:45:35.700 22/05/1995]',0.002,0.002,0.002,114.789,30.852,-0.476
'[12:45:35.702 22/05/1995]',0.019,0.002,0.002,114.789,30.852,-0.476
'[12:45:35.704 22/05/1995]',0.019,0.002,0.002,112.917,29.950,-0.452
'[12:45:35.706 22/05/1995]',0.019,0.002,0.002,112.917,29.950,-0.452
'[12:45:35.708 22/05/1995]',0.002,0.002,0.002,112.917,29.950,-0.452
'[12:45:35.710 22/05/1995]',0.002,0.002,0.002,112.917,29.950,-0.452
'[12:45:35.712 22/05/1995]',0.002,0.002,0.002,110.691,28.797,-0.425
'[12:45:35.714 22/05/1995]',0.002,0.002,0.002,110.691,28.797,-0.425
'[12:45:35.716 22/05/1995]',0.002,0.002,0.002,110.691,28.797,-0.425
'[12:45:35.718 22/05/1995]',0.002,0.002,0.002,110.691,28.797,-0.425
'[12:45:35.720 22/05/1995]',0.002,0.002,0.002,108.061,27.494,-0.400
'[12:45:35.722 22/05/1995]',0.002,0.002,0.002,108.061,27.494,-0.400
'[12:45:35.724 22/05/1995]',0.002,0.002,0.002,108.061,27.494,-0.400
'[12:45:35.726 22/05/1995]',0.002,0.002,0.002,108.061,27.494,-0.400
'[12:45:35.728 22/05/1995]',0.002,0.002,0.002,105.177,26.266,-0.374
'[12:45:35.730 22/05/1995]',0.002,0.002,0.002,105.177,26.266,-0.374
'[12:45:35.732 22/05/1995]',0.002,0.002,0.002,105.177,26.266,-0.374
'[12:45:35.734 22/05/1995]',0.002,0.002,0.002,105.177,26.266,-0.374
'[12:45:35.736 22/05/1995]',0.002,0.002,0.002,102.141,25.439,-0.349
'[12:45:35.738 22/05/1995]',0.002,0.002,0.002,102.141,25.439,-0.349
'[12:45:35.740 22/05/1995]',0.002,0.002,0.002,102.141,25.439,-0.349
'[12:45:35.742 22/05/1995]',0.002,0.002,0.002,102.141,25.439,-0.349
'[12:45:35.744 22/05/1995]',0.002,0.002,0.002,99.106,24.912,-0.325
'[12:45:35.746 22/05/1995]',0.002,0.002,0.002,99.106,24.912,-0.325
'[12:45:35.748 22/05/1995]',0.002,0.002,0.002,99.106,24.912,-0.325
'[12:45:35.750 22/05/1995]',0.002,0.002,0.002,99.106,24.912,-0.325
'[12:45:35.752 22/05/1995]',0.002,0.002,0.002,96.324,24.436,-0.301
'[12:45:35.754 22/05/1995]',0.002,0.002,0.002,96.324,24.436,-0.301
'[12:45:35.756 22/05/1995]',0.002,0.002,0.002,96.324,24.436,-0.301
'[12:45:35.758 22/05/1995]',0.002,0.002,0.002,96.324,24.436,-0.301
'[12:45:35.760 22/05/1995]',0.002,0.002,0.002,93.744,24.135,-0.277
'[12:45:35.762 22/05/1995]',0.002,0.002,0.002,93.744,24.135,-0.277
'[12:45:35.764 22/05/1995]',0.002,0.002,0.002,93.744,24.135,-0.277
'[12:45:35.766 22/05/1995]',0.002,0.002,0.002,93.744,24.135,-0.277
'[12:45:35.768 22/05/1995]',0.002,0.002,0.002,91.416,24.486,-0.253
'[12:45:35.770 22/05/1995]',0.002,0.002,0.002,91.416,24.486,-0.253
'[12:45:35.772 22/05/1995]',0.002,0.002,0.002,91.416,24.486,-0.253
'[12:45:35.774 22/05/1995]',0.002,0.002,0.002,91.416,24.486,-0.253
'[12:45:35.776 22/05/1995]',0.002,0.002,0.002,89.443,25.213,-0.229
'[12:45:35.778 22/05/1995]',0.002,0.002,0.002,89.443,25.213,-0.229
'[12:45:35.780 22/05/1995]',0.002,0.002,0.002,89.443,25.213,-0.229
'[12:45:35.782 22/05/1995]',0.002,0.002,0.002,89.443,25.213,-0.229
'[12:45:35.784 22/05/1995]',0.002,0.002,0.002,87.824,25.263,-0.205
'[12:45:35.786 22/05/1995]',0.002,0.002,0.002,87.824,25.263,-0.205
'[12:45:35.788 22/05/1995]',0.002,0.002,0.002,87.824,25.263,-0.205
'[12:45:35.790 22/05/1995]',0.002,0.002,0.002,87.824,25.263,-0.205
'[12:45:35.792 22/05/1995]',0.002,0.002,0.002,86.459,24.612,-0.182
'[12:45:35.794 22/05/1995]',0.002,0.002,0.002,86.459,24.612,-0.182
'[12:45:35.796 22/05/1995]',0.002,0.002,0.002,86.459,24.612,-0.182
'[12:45:35.798 22/05/1995]',0.002,0.002,0.002,86.459,24.612,-0.182
'[12:45:35.800 22/05/1995]',0.002,0.002,0.002,85.497,23.910,-0.160
'[12:45:35.802 22/05/1995]',0.002,0.002,0.002,85.497,23.910,-0.160
'[12:45:35.804 22/05/1995]',0.002,0.002,0.002,85.497,23.910,-0.160
'[12:45:35.806 22/05/1995]',0.002,0.002,0.002,85.497,23.910,-0.160
'[12:45:35.808 22/05/1995]',0.002,0.002,0.002,85.042,23.383,-0.138
'[12:45:35.810 22/05/1995]',0.002,0.002,0.002,85.042,23.383,-0.138
'[12:45:35.812 22/05/1995]',0.002,0.002,0.002,85.042,23.383,-0.138
'[12:45:35.814 22/05/1995]',0.002,0.002,0.002,85.042,23.383,-0.138
'[12:45:35.816 22/05/1995]',0.002,0.002,0.002,85.093,23.158,-0.116
'[12:45:35.818 22/05/1995]',0.019,0.002,0.002,85.093,23.158,-0.116
'[12:45:35.820 22/05/1995]',0.002,0.002,0.002,85.093,23.158,-0.116
'[12:45:35.822 22/05/1995]',0.002,0.002,0.002,85.093,23.158,-0.116
'[12:45:35.824 22/05/1995]',0.002,0.002,0.002,85.599,23.208,-0.096
'[12:45:35.826 22/05/1995]',0.019,0.002,0.002,85.599,23.208,-0.096
'[12:45:35.828 22/05/1995]',0.019,0.002,0.002,85.599,23.208,-0.096
'[12:45:35.830 22/05/1995]',0.002,0.002,0.002,85.599,23.208,-0.096
'[12:45:35.832 22/05/1995]',0.019,0.002,0.002,86.661,23.684,-0.076
'[12:45:35.834 22/05/1995]',0.019,0.002,0.002,86.661,23.684,-0.076
'[12:45:35.836 22/05/1995]',0.019,0.002,0.002,86.661,23.684,-0.076
'[12:45:35.838 22/05/1995]',0.019,0.002,0.002,86.661,23.684,-0.076
'[12:45:35.840 22/05/1995]',0.019,0.002,0.002,88.280,24.386,-0.058
'[12:45:35.842 22/05/1995]',0.002,0.002,0.002,88.280,24.386,-0.058
'[12:45:35.844 22/05/1995]',0.019,0.002,0.002,88.280,24.386,-0.058
'[12:45:35.846 22/05/1995]',0.019,0.002,0.002,88.280,24.386,-0.058
'[12:45:35.848 22/05/1995]',0.019,0.002,0.002,90.455,24.962,-0.040
'[12:45:35.850 22/05/1995]',0.002,0.002,0.002,90.455,24.962,-0.040
'[12:45:35.852 22/05/1995]',0.019,0.002,0.002,90.455,24.962,-0.040
'[12:45:35.854 22/05/1995]',0.019,0.002,0.002,90.455,24.962,-0.040
'[12:45:35.856 22/05/1995]',0.019,0.002,0.002,93.238,24.962,-0.021
'[12:45:35.858 22/05/1995]',0.019,0.002,0.002,93.238,24.962,-0.021
'[12:45:35.860 22/05/1995]',0.019,0.002,0.002,93.238,24.962,-0.021
'[12:45:35.862 22/05/1995]',0.019,0.002,0.002,93.238,24.962,-0.021
'[12:45:35.864 22/05/1995]',0.019,0.002,0.002,96.526,24.311,-0.004
'[12:45:35.866 22/05/1995]',0.019,0.002,0.002,96.526,24.311,-0.004
'[12:45:35.868 22/05/1995]',0.019,0.002,0.002,96.526,24.311,-0.004
'[12:45:35.870 22/05/1995]',0.019,0.002,0.002,96.526,24.311,-0.004
'[12:45:35.872 22/05/1995]',0.019,0.002,0.002,100.320,23.559,0.013
'[12:45:35.874 22/05/1995]',0.019,0.002,0.002,100.320,23.559,0.013
'[12:45:35.876 22/05/1995]',0.019,0.002,0.002,100.320,23.559,0.013
'[12:45:35.878 22/05/1995]',0.036,0.002,0.002,100.320,23.559,0.013
'[12:45:35.880 22/05/1995]',0.054,0.002,0.002,104.469,23.158,0.029
'[12:45:35.882 22/05/1995]',0.054,-0.017,0.002,104.469,23.158,0.029
'[12:45:35.884 22/05/1995]',0.072,-0.017,0.002,104.469,23.158,0.029
'[12:45:35.886 22/05/1995]',0.072,-0.036,-0.016,104.469,23.158,0.029
'[12:45:35.888 22/05/1995]',0.090,-0.055,-0.016,108.718,23.158,0.044
'[12:45:35.890 22/05/1995]',0.090,-0.055,-0.016,108.718,23.158,0.044
'[12:45:35.892 22/05/1995]',0.072,-0.055,-0.034,108.718,23.158,0.044
'[12:45:35.894 22/05/1995]',0.090,-0.073,-0.034,108.718,23.158,0.044
'[12:45:35.896 22/05/1995]',0.090,-0.073,-0.034,113.170,23.559,0.059
'[12:45:35.898 22/05/1995]',0.090,-0.073,-0.034,113.170,23.559,0.059
'[12:45:35.900 22/05/1995]',0.108,-0.073,-0.034,113.170,23.559,0.059
'[12:45:35.902 22/05/1995]',0.090,-0.092,-0.034,113.170,23.559,0.059
'[12:45:35.904 22/05/1995]',0.090,-0.073,-0.034,117.723,24.085,0.071
'[12:45:35.906 22/05/1995]',0.090,-0.073,-0.034,117.723,24.085,0.071
'[12:45:35.908 22/05/1995]',0.072,-0.073,-0.016,117.723,24.085,0.071
'[12:45:35.910 22/05/1995]',0.072,-0.055,-0.016,117.723,24.085,0.071
'[12:45:35.912 22/05/1995]',0.072,-0.055,-0.016,122.428,24.311,0.084
'[12:45:35.914 22/05/1995]',0.054,-0.055,-0.016,122.428,24.311,0.084
'[12:45:35.916 22/05/1995]',0.054,-0.055,-0.016,122.428,24.311,0.084
'[12:45:35.918 22/05/1995]',0.054,-0.055,-0.016,122.428,24.311,0.084
'[12:45:35.920 22/05/1995]',0.054,-0.055,-0.016,126.931,23.860,0.097
'[12:45:35.922 22/05/1995]',0.036,-0.036,0.002,126.931,23.860,0.097
'[12:45:35.924 22/05/1995]',0.036,-0.036,0.002,126.931,23.860,0.097
'[12:45:35.926 22/05/1995]',0.019,-0.017,0.002,126.931,23.860,0.097
'[12:45:35.928 22/05/1995]',0.019,-0.017,0.002,131.079,22.857,0.108
'[12:45:35.930 22/05/1995]',0.019,-0.017,0.002,131.079,22.857,0.108
'[12:45:35.932 22/05/1995]',0.002,-0.017,0.002,131.079,22.857,0.108
'[12:45:35.934 22/05/1995]',0.002,-0.017,0.002,131.079,22.857,0.108
'[12:45:35.936 22/05/1995]',0.002,-0.017,0.002,134.873,21.855,0.120
'[12:45:35.938 22/05/1995]',0.002,-0.017,0.002,134.873,21.855,0.120
'[12:45:35.940 22/05/1995]',0.019,-0.017,0.002,134.873,21.855,0.120
'[12:45:35.942 22/05/1995]',0.019,-0.017,0.002,134.873,21.855,0.120
'[12:45:35.944 22/05/1995]',0.002,-0.017,0.002,138.060,21.278,0.132
'[12:45:35.946 22/05/1995]',0.002,-0.017,0.002,138.060,21.278,0.132
'[12:45:35.948 22/05/1995]',0.019,-0.017,0.002,138.060,21.278,0.132
'[12:45:35.950 22/05/1995]',0.019,-0.017,0.002,138.060,21.278,0.132
'[12:45:35.952 22/05/1995]',0.002,-0.017,0.002,140.742,21.278,0.143
'[12:45:35.954 22/05/1995]',0.002,-0.017,0.002,140.742,21.278,0.143
'[12:45:35.956 22/05/1995]',0.019,-0.017,0.002,140.742,21.278,0.143
'[12:45:35.958 22/05/1995]',0.002,-0.017,0.002,140.742,21.278,0.143
'[12:45:35.960 22/05/1995]',0.002,-0.017,0.002,142.867,21.504,0.154
'[12:45:35.962 22/05/1995]',0.002,-0.017,0.002,142.867,21.504,0.154
'[12:45:35.964 22/05/1995]',0.002,-0.017,0.002,142.867,21.504,0.154
'[12:45:35.966 22/05/1995]',0.002,-0.017,0.002,142.867,21.504,0.154
'[12:45:35.968 22/05/1995]',0.002,-0.017,0.002,144.384,21.504,0.165
'[12:45:35.970 22/05/1995]',0.002,-0.017,0.002,144.384,21.504,0.165
'[12:45:35.972 22/05/1995]',0.002,-0.017,0.002,144.384,21.504,0.165
'[12:45:35.974 22/05/1995]',0.002,-0.017,0.002,144.384,21.504,0.165
'[12:45:35.976 22/05/1995]',0.002,-0.017,0.002,145.194,21.078,0.175
'[12:45:35.978 22/05/1995]',0.002,-0.017,0.002,145.194,21.078,0.175
'[12:45:35.980 22/05/1995]',0.002,-0.017,0.002,145.194,21.078,0.175
'[12:45:35.982 22/05/1995]',0.002,-0.017,0.002,145.194,21.078,0.175
'[12:45:35.984 22/05/1995]',0.002,0.002,0.002,145.497,20.451,0.185
'[12:45:35.986 22/05/1995]',0.002,0.002,0.002,145.497,20.451,0.185
'[12:45:35.988 22/05/1995]',-0.034,0.038,0.018,145.497,20.451,0.185
'[12:45:35.990 22/05/1995]',-0.070,0.095,0.036,145.497,20.451,0.185
'[12:45:35.992 22/05/1995]',-0.123,0.132,0.071,145.143,20.451,0.196
'[12:45:35.994 22/05/1995]',-0.141,0.170,0.089,145.143,20.451,0.196
'[12:45:35.996 22/05/1995]',-0.159,0.170,0.089,145.143,20.451,0.196
'[12:45:35.998 22/05/1995]',-0.141,0.151,0.071,145.143,20.451,0.196
'[12:45:36.000 22/05/1995]',-0.123,0.132,0.054,144.131,21.378,0.205
'[12:45:36.002 22/05/1995]',-0.088,0.057,0.036,144.131,21.378,0.205
'[12:45:36.004 22/05/1995]',-0.034,0.002,0.002,144.131,21.378,0.205
'[12:45:36.006 22/05/1995]',0.002,-0.055,-0.016,144.131,21.378,0.205
'[12:45:36.008 22/05/1995]',0.108,-0.148,-0.069,142.361,22.556,0.215
'[12:45:36.010 22/05/1995]',0.215,-0.298,-0.139,142.361,22.556,0.215
'[12:45:36.012 22/05/1995]',0.357,-0.448,-0.210,142.361,22.556,0.215
'[12:45:36.014 22/05/1995]',0.517,-0.616,-0.262,142.361,22.556,0.215
'[12:45:36.016 22/05/1995]',0.659,-0.784,-0.332,139.679,22.732,0.226
'[12:45:36.018 22/05/1995]',0.873,-1.027,-0.420,139.679,22.732,0.226
'[12:45:36.020 22/05/1995]',1.086,-1.308,-0.542,139.679,22.732,0.226
'[12:45:36.022 22/05/1995]',1.281,-1.532,-0.648,139.679,22.732,0.226
'[12:45:36.024 22/05/1995]',1.317,-1.588,-0.666,136.087,21.203,0.235
'[12:45:36.026 22/05/1995]',1.229,-1.532,-0.648,136.087,21.203,0.235
'[12:45:36.028 22/05/1995]',1.068,-1.382,-0.613,136.087,21.203,0.235
'[12:45:36.030 22/05/1995]',0.819,-1.120,-0.542,136.087,21.203,0.235
'[12:45:36.032 22/05/1995]',0.606,-0.840,-0.473,131.484,18.747,0.245
'[12:45:36.034 22/05/1995]',0.428,-0.616,-0.420,131.484,18.747,0.245
'[12:45:36.036 22/05/1995]',0.303,-0.466,-0.367,131.484,18.747,0.245
'[12:45:36.038 22/05/1995]',0.233,-0.391,-0.332,131.484,18.747,0.245
'[12:45:36.040 22/05/1995]',0.179,-0.354,-0.297,126.020,16.967,0.255
'[12:45:36.042 22/05/1995]',0.144,-0.316,-0.262,126.020,16.967,0.255
'[12:45:36.044 22/05/1995]',0.126,-0.279,-0.227,126.020,16.967,0.255
'[12:45:36.046 22/05/1995]',0.108,-0.261,-0.192,126.020,16.967,0.255
'[12:45:36.048 22/05/1995]',0.072,-0.223,-0.157,119.797,17.268,0.263
'[12:45:36.050 22/05/1995]',0.036,-0.167,-0.104,119.797,17.268,0.263
'[12:45:36.052 22/05/1995]',0.019,-0.111,-0.069,119.797,17.268,0.263
'[12:45:36.054 22/05/1995]',0.002,-0.073,-0.034,119.797,17.268,0.263
'[12:45:36.056 22/05/1995]',-0.016,-0.036,0.002,113.170,19.398,0.271
'[12:45:36.058 22/05/1995]',-0.034,0.002,0.002,113.170,19.398,0.271
'[12:45:36.060 22/05/1995]',-0.052,0.002,0.018,113.170,19.398,0.271
'[12:45:36.062 22/05/1995]',-0.070,0.038,0.018,113.170,19.398,0.271
'[12:45:36.064 22/05/1995]',-0.070,0.076,0.036,106.340,21.855,0.277
'[12:45:36.066 22/05/1995]',-0.088,0.076,0.036,106.340,21.855,0.277
'[12:45:36.068 22/05/1995]',-0.088,0.095,0.054,106.340,21.855,0.277
'[12:45:36.070 22/05/1995]',-0.088,0.113,0.054,106.340,21.855,0.277
'[12:45:36.072 22/05/1995]',-0.105,0.113,0.071,99.663,23.208,0.282
'[12:45:36.074 22/05/1995]',-0.105,0.132,0.071,99.663,23.208,0.282
'[12:45:36.076 22/05/1995]',-0.105,0.132,0.071,99.663,23.208,0.282
'[12:45:36.078 22/05/1995]',-0.105,0.132,0.071,99.663,23.208,0.282
'[12:45:36.080 22/05/1995]',-0.105,0.132,0.071,93.086,22.907,0.287
'[12:45:36.082 22/05/1995]',-0.105,0.132,0.089,93.086,22.907,0.287
'[12:45:36.084 22/05/1995]',-0.123,0.132,0.089,93.086,22.907,0.287
'[12:45:36.086 22/05/1995]',-0.105,0.132,0.089,93.086,22.907,0.287
'[12:45:36.088 22/05/1995]',-0.123,0.132,0.089,86.863,21.805,0.292
'[12:45:36.090 22/05/1995]',-0.105,0.132,0.089,86.863,21.805,0.292
'[12:45:36.092 22/05/1995]',-0.123,0.132,0.089,86.863,21.805,0.292
'[12:45:36.094 22/05/1995]',-0.123,0.132,0.089,86.863,21.805,0.292
'[12:45:36.096 22/05/1995]',-0.105,0.151,0.089,80.995,20.802,0.296
'[12:45:36.098 22/05/1995]',-0.105,0.132,0.089,80.995,20.802,0.296
'[12:45:36.100 22/05/1995]',-0.105,0.151,0.089,80.995,20.802,0.296
'[12:45:36.102 22/05/1995]',-0.105,0.132,0.089,80.995,20.802,0.296
'[12:45:36.104 22/05/1995]',-0.105,0.151,0.089,75.582,20.201,0.299
'[12:45:36.106 22/05/1995]',-0.105,0.151,0.089,75.582,20.201,0.299
'[12:45:36.108 22/05/1995]',-0.123,0.151,0.089,75.582,20.201,0.299
'[12:45:36.110 22/05/1995]',-0.123,0.151,0.089,75.582,20.201,0.299
'[12:45:36.112 22/05/1995]',-0.123,0.151,0.089,70.624,19.975,0.302
'[12:45:36.114 22/05/1995]',-0.123,0.151,0.089,70.624,19.975,0.302
'[12:45:36.116 22/05/1995]',-0.105,0.151,0.089,70.624,19.975,0.302
'[12:45:36.118 22/05/1995]',-0.105,0.151,0.089,70.624,19.975,0.302
'[12:45:36.120 22/05/1995]',-0.105,0.151,0.089,66.121,20.627,0.305
'[12:45:36.122 22/05/1995]',-0.105,0.132,0.089,66.121,20.627,0.305
'[12:45:36.124 22/05/1995]',-0.105,0.151,0.089,66.121,20.627,0.305
'[12:45:36.126 22/05/1995]',-0.105,0.132,0.089,66.121,20.627,0.305
'[12:45:36.128 22/05/1995]',-0.105,0.151,0.089,62.074,22.331,0.307
'[12:45:36.130 22/05/1995]',-0.123,0.151,0.089,62.074,22.331,0.307
'[12:45:36.132 22/05/1995]',-0.105,0.151,0.089,62.074,22.331,0.307
'[12:45:36.134 22/05/1995]',-0.105,0.151,0.089,62.074,22.331,0.307
'[12:45:36.136 22/05/1995]',-0.105,0.151,0.089,58.482,24.135,0.309
'[12:45:36.138 22/05/1995]',-0.105,0.151,0.089,58.482,24.135,0.309
'[12:45:36.140 22/05/1995]',-0.123,0.151,0.089,58.482,24.135,0.309
'[12:45:36.142 22/05/1995]',-0.123,0.151,0.106,58.482,24.135,0.309
'[12:45:36.144 22/05/1995]',-0.123,0.151,0.089,55.295,24.662,0.310
'[12:45:36.146 22/05/1995]',-0.123,0.151,0.089,55.295,24.662,0.310
'[12:45:36.148 22/05/1995]',-0.105,0.151,0.089,55.295,24.662,0.310
'[12:45:36.150 22/05/1995]',-0.123,0.151,0.089,55.295,24.662,0.310
'[12:45:36.152 22/05/1995]',-0.105,0.151,0.089,52.968,23.910,0.311
'[12:45:36.154 22/05/1995]',-0.105,0.151,0.089,52.968,23.910,0.311
'[12:45:36.156 22/05/1995]',-0.105,0.151,0.089,52.968,23.910,0.311
'[12:45:36.158 22/05/1995]',-0.123,0.151,0.089,52.968,23.910,0.311
'[12:45:36.160 22/05/1995]',-0.123,0.151,0.089,51.450,23.158,0.311
'[12:45:36.162 22/05/1995]',-0.123,0.151,0.089,51.450,23.158,0.311
'[12:45:36.164 22/05/1995]',-0.105,0.151,0.089,51.450,23.158,0.311
'[12:45:36.166 22/05/1995]',-0.123,0.151,0.089,51.450,23.158,0.311
'[12:45:36.168 22/05/1995]',-0.123,0.151,0.089,50.792,23.684,0.311
'[12:45:36.170 22/05/1995]',-0.105,0.151,0.106,50.792,23.684,0.311
'[12:45:36.172 22/05/1995]',-0.105,0.151,0.089,50.792,23.684,0.311
'[12:45:36.174 22/05/1995]',-0.105,0.151,0.089,50.792,23.684,0.311
'[12:45:36.176 22/05/1995]',-0.105,0.151,0.089,51.298,25.840,0.311
'[12:45:36.178 22/05/1995]',-0.123,0.151,0.089,51.298,25.840,0.311
'[12:45:36.180 22/05/1995]',-0.105,0.151,0.089,51.298,25.840,0.311
'[12:45:36.182 22/05/1995]',-0.123,0.151,0.089,51.298,25.840,0.311
'[12:45:36.184 22/05/1995]',-0.123,0.151,0.089,53.221,28.722,0.312
'[12:45:36.186 22/05/1995]',-0.123,0.151,0.089,53.221,28.722,0.312
'[12:45:36.188 22/05/1995]',-0.123,0.151,0.071,53.221,28.722,0.312
'[12:45:36.190 22/05/1995]',-0.123,0.151,0.089,53.221,28.722,0.312
'[12:45:36.192 22/05/1995]',-0.123,0.151,0.089,56.256,31.128,0.314
'[12:45:36.194 22/05/1995]',-0.123,0.151,0.089,56.256,31.128,0.314
'[12:45:36.196 22/05/1995]',-0.123,0.151,0.089,56.256,31.128,0.314
'[12:45:36.198 22/05/1995]',-0.123,0.170,0.089,56.256,31.128,0.314
'[12:45:36.200 22/05/1995]',-0.123,0.170,0.089,59.747,32.431,0.316
'[12:45:36.202 22/05/1995]',-0.123,0.170,0.089,59.747,32.431,0.316
'[12:45:36.204 22/05/1995]',-0.123,0.170,0.089,59.747,32.431,0.316
'[12:45:36.206 22/05/1995]',-0.141,0.170,0.089,59.747,32.431,0.316
'[12:45:36.208 22/05/1995]',-0.123,0.170,0.089,63.693,32.732,0.317
'[12:45:36.210 22/05/1995]',-0.123,0.170,0.089,63.693,32.732,0.317
'[12:45:36.212 22/05/1995]',-0.141,0.170,0.089,63.693,32.732,0.317
'[12:45:36.214 22/05/1995]',-0.141,0.170,0.089,63.693,32.732,0.317
'[12:45:36.216 22/05/1995]',-0.141,0.170,0.089,67.841,32.556,0.319
'[12:45:36.218 22/05/1995]',-0.141,0.170,0.089,67.841,32.556,0.319
'[12:45:36.220 22/05/1995]',-0.141,0.170,0.089,67.841,32.556,0.319
'[12:45:36.222 22/05/1995]',-0.141,0.170,0.089,67.841,32.556,0.319
'[12:45:36.224 22/05/1995]',-0.159,0.188,0.106,72.293,32.180,0.320
'[12:45:36.226 22/05/1995]',-0.159,0.188,0.106,72.293,32.180,0.320
'[12:45:36.228 22/05/1995]',-0.159,0.188,0.106,72.293,32.180,0.320
'[12:45:36.230 22/05/1995]',-0.159,0.188,0.106,72.293,32.180,0.320
'[12:45:36.232 22/05/1995]',-0.159,0.207,0.106,76.695,31.905,0.321
'[12:45:36.234 22/05/1995]',-0.159,0.188,0.106,76.695,31.905,0.321
'[12:45:36.236 22/05/1995]',-0.159,0.188,0.106,76.695,31.905,0.321
'[12:45:36.238 22/05/1995]',-0.159,0.188,0.106,76.695,31.905,0.321
'[12:45:36.240 22/05/1995]',-0.159,0.188,0.106,81.147,31.604,0.322
'[12:45:36.242 22/05/1995]',-0.159,0.188,0.106,81.147,31.604,0.322
'[12:45:36.244 22/05/1995]',-0.159,0.188,0.106,81.147,31.604,0.322
'[12:45:36.246 22/05/1995]',-0.159,0.188,0.106,81.147,31.604,0.322
'[12:45:36.248 22/05/1995]',-0.159,0.170,0.089,85.599,31.654,0.323
'[12:45:36.250 22/05/1995]',-0.159,0.170,0.106,85.599,31.654,0.323
'[12:45:36.252 22/05/1995]',-0.159,0.170,0.089,85.599,31.654,0.323
'[12:45:36.254 22/05/1995]',-0.159,0.170,0.089,85.599,31.654,0.323
'[12:45:36.256 22/05/1995]',-0.141,0.151,0.089,89.949,32.256,0.324
'[12:45:36.258 22/05/1995]',-0.159,0.151,0.089,89.949,32.256,0.324
'[12:45:36.260 22/05/1995]',-0.141,0.151,0.089,89.949,32.256,0.324
'[12:45:36.262 22/05/1995]',-0.141,0.132,0.089,89.949,32.256,0.324
'[12:45:36.264 22/05/1995]',-0.141,0.132,0.089,94.098,33.133,0.325
'[12:45:36.266 22/05/1995]',-0.123,0.132,0.071,94.098,33.133,0.325
'[12:45:36.268 22/05/1995]',-0.123,0.132,0.089,94.098,33.133,0.325
'[12:45:36.270 22/05/1995]',-0.123,0.113,0.071,94.098,33.133,0.325
'[12:45:36.272 22/05/1995]',-0.123,0.113,0.071,97.993,33.885,0.326
'[12:45:36.274 22/05/1995]',-0.105,0.095,0.054,97.993,33.885,0.326
'[12:45:36.276 22/05/1995]',-0.105,0.095,0.054,97.993,33.885,0.326
'[12:45:36.278 22/05/1995]',-0.105,0.076,0.054,97.993,33.885,0.326
'[12:45:36.280 22/05/1995]',-0.105,0.076,0.036,101.534,34.010,0.327
'[12:45:36.282 22/05/1995]',-0.088,0.057,0.036,101.534,34.010,0.327
'[12:45:36.284 22/05/1995]',-0.088,0.057,0.036,101.534,34.010,0.327
'[12:45:36.286 22/05/1995]',-0.070,0.038,0.036,101.534,34.010,0.327
'[12:45:36.288 22/05/1995]',-0.070,0.038,0.036,104.823,33.659,0.328
'[12:45:36.290 22/05/1995]',-0.052,0.020,0.018,104.823,33.659,0.328
'[12:45:36.292 22/05/1995]',-0.052,0.020,0.018,104.823,33.659,0.328
'[12:45:36.294 22/05/1995]',-0.052,0.020,0.018,104.823,33.659,0.328
'[12:45:36.296 22/05/1995]',-0.034,0.002,0.018,107.555,33.358,0.330
'[12:45:36.298 22/05/1995]',-0.034,0.002,0.018,107.555,33.358,0.330
'[12:45:36.300 22/05/1995]',-0.034,0.002,0.018,107.555,33.358,0.330
'[12:45:36.302 22/05/1995]',-0.034,0.002,0.002,107.555,33.358,0.330
'[12:45:36.304 22/05/1995]',-0.016,0.002,0.002,109.882,33.484,0.332
'[12:45:36.306 22/05/1995]',-0.016,0.002,0.002,109.882,33.484,0.332
'[12:45:36.308 22/05/1995]',-0.016,0.002,0.002,109.882,33.484,0.332
'[12:45:36.310 22/05/1995]',-0.016,0.002,0.002,109.882,33.484,0.332
'[12:45:36.312 22/05/1995]',0.002,0.002,0.002,111.652,33.534,0.334
'[12:45:36.314 22/05/1995]',0.002,0.002,0.002,111.652,33.534,0.334
'[12:45:36.316 22/05/1995]',0.002,0.002,0.002,111.652,33.534,0.334
'[12:45:36.318 22/05/1995]',0.002,-0.017,0.002,111.652,33.534,0.334
'[12:45:36.320 22/05/1995]',0.002,-0.017,0.002,112.867,33.258,0.338
'[12:45:36.322 22/05/1995]',0.002,-0.017,0.002,112.867,33.258,0.338
'[12:45:36.324 22/05/1995]',0.002,-0.017,0.002,112.867,33.258,0.338
'[12:45:36.326 22/05/1995]',0.002,-0.017,0.002,112.867,33.258,0.338
'[12:45:36.328 22/05/1995]',0.002,-0.017,0.002,113.524,32.607,0.341
'[12:45:36.330 22/05/1995]',0.002,0.002,0.002,113.524,32.607,0.341
'[12:45:36.332 22/05/1995]',0.002,-0.017,0.002,113.524,32.607,0.341
'[12:45:36.334 22/05/1995]',0.002,0.002,0.002,113.524,32.607,0.341
'[12:45:36.336 22/05/1995]',0.002,0.002,0.002,113.676,31.955,0.345
'[12:45:36.338 22/05/1995]',0.002,-0.017,0.002,113.676,31.955,0.345
'[12:45:36.340 22/05/1995]',0.002,-0.017,0.002,113.676,31.955,0.345
'[12:45:36.342 22/05/1995]',0.002,-0.017,0.002,113.676,31.955,0.345
'[12:45:36.344 22/05/1995]',0.002,0.002,0.002,113.322,31.479,0.349
'[12:45:36.346 22/05/1995]',0.002,-0.017,0.002,113.322,31.479,0.349
'[12:45:36.348 22/05/1995]',0.002,-0.017,0.002,113.322,31.479,0.349
'[12:45:36.350 22/05/1995]',0.002,-0.017,0.002,113.322,31.479,0.349
'[12:45:36.352 22/05/1995]',0.002,-0.017,0.002,112.411,31.128,0.353
'[12:45:36.354 22/05/1995]',0.002,-0.017,0.002,112.411,31.128,0.353
'[12:45:36.356 22/05/1995]',0.002,-0.017,0.002,112.411,31.128,0.353
'[12:45:36.358 22/05/1995]',0.002,-0.017,0.002,112.411,31.128,0.353
'[12:45:36.360 22/05/1995]',0.002,-0.017,0.002,111.045,30.777,0.358
'[12:45:36.362 22/05/1995]',0.002,-0.017,0.002,111.045,30.777,0.358
'[12:45:36.364 22/05/1995]',0.002,-0.017,0.002,111.045,30.777,0.358
'[12:45:36.366 22/05/1995]',0.002,-0.017,0.002,111.045,30.777,0.358
'[12:45:36.368 22/05/1995]',0.002,0.002,0.002,109.275,30.251,0.362
'[12:45:36.370 22/05/1995]',0.002,0.002,0.002,109.275,30.251,0.362
'[12:45:36.372 22/05/1995]',0.002,0.002,0.002,109.275,30.251,0.362
'[12:45:36.374 22/05/1995]',0.002,0.002,0.002,109.275,30.251,0.362
'[12:45:36.376 22/05/1995]',0.002,0.002,0.002,107.049,29.549,0.366
'[12:45:36.378 22/05/1995]',0.002,0.002,0.002,107.049,29.549,0.366
'[12:45:36.380 22/05/1995]',0.002,0.002,0.002,107.049,29.549,0.366
'[12:45:36.382 22/05/1995]',0.002,0.002,0.002,107.049,29.549,0.366
'[12:45:36.384 22/05/1995]',0.002,0.002,0.002,104.519,28.596,0.369
'[12:45:36.386 22/05/1995]',0.002,0.002,0.002,104.519,28.596,0.369
'[12:45:36.388 22/05/1995]',0.002,0.002,0.002,104.519,28.596,0.369
'[12:45:36.390 22/05/1995]',0.002,0.002,0.002,104.519,28.596,0.369
'[12:45:36.392 22/05/1995]',0.002,0.002,0.002,101.737,27.794,0.373
'[12:45:36.394 22/05/1995]',0.002,0.002,0.002,101.737,27.794,0.373
'[12:45:36.396 22/05/1995]',0.002,0.002,0.002,101.737,27.794,0.373
'[12:45:36.398 22/05/1995]',0.002,0.002,0.002,101.737,27.794,0.373
'[12:45:36.400 22/05/1995]',0.002,0.002,0.002,98.853,27.268,0.378
'[12:45:36.402 22/05/1995]',0.002,0.002,0.002,98.853,27.268,0.378
'[12:45:36.404 22/05/1995]',0.002,0.002,0.002,98.853,27.268,0.378
'[12:45:36.406 22/05/1995]',0.002,0.002,0.002,98.853,27.268,0.378
'[12:45:36.408 22/05/1995]',0.002,0.002,0.002,95.969,26.842,0.382
'[12:45:36.410 22/05/1995]',0.002,0.002,0.002,95.969,26.842,0.382
'[12:45:36.412 22/05/1995]',0.002,0.002,0.002,95.969,26.842,0.382
'[12:45:36.414 22/05/1995]',0.002,0.002,0.002,95.969,26.842,0.382
'[12:45:36.416 22/05/1995]',0.002,0.002,0.002,93.339,26.366,0.387
'[12:45:36.418 22/05/1995]',0.002,0.002,0.002,93.339,26.366,0.387
'[12:45:36.420 22/05/1995]',0.002,0.002,0.002,93.339,26.366,0.387
'[12:45:36.422 22/05/1995]',0.002,0.002,0.002,93.339,26.366,0.387
'[12:45:36.424 22/05/1995]',0.002,0.002,0.002,90.809,25.664,0.391
'[12:45:36.426 22/05/1995]',0.002,0.002,0.002,90.809,25.664,0.391
'[12:45:36.428 22/05/1995]',0.002,0.002,0.002,90.809,25.664,0.391
'[12:45:36.430 22/05/1995]',0.002,0.002,0.002,90.809,25.664,0.391
'[12:45:36.432 22/05/1995]',0.002,0.002,0.002,88.685,24.962,0.395
'[12:45:36.434 22/05/1995]',0.002,0.002,0.002,88.685,24.962,0.395
'[12:45:36.436 22/05/1995]',0.002,0.002,0.002,88.685,24.962,0.395
'[12:45:36.438 22/05/1995]',0.002,0.002,0.002,88.685,24.962,0.395
'[12:45:36.440 22/05/1995]',0.002,0.002,0.002,86.863,24.311,0.398
'[12:45:36.442 22/05/1995]',0.002,0.002,0.002,86.863,24.311,0.398
'[12:45:36.444 22/05/1995]',0.002,0.002,0.002,86.863,24.311,0.398
'[12:45:36.446 22/05/1995]',0.002,0.002,0.002,86.863,24.311,0.398
'[12:45:36.448 22/05/1995]',0.002,0.002,0.002,85.396,23.960,0.400
'[12:45:36.450 22/05/1995]',0.002,0.002,0.002,85.396,23.960,0.400
'[12:45:36.452 22/05/1995]',0.002,0.002,0.002,85.396,23.960,0.400
'[12:45:36.454 22/05/1995]',0.002,-0.017,0.002,85.396,23.960,0.400
'[12:45:36.456 22/05/1995]',0.002,0.002,0.002,84.182,23.784,0.402
'[12:45:36.458 22/05/1995]',0.002,0.002,0.002,84.182,23.784,0.402
'[12:45:36.460 22/05/1995]',0.002,0.002,0.002,84.182,23.784,0.402
'[12:45:36.462 22/05/1995]',0.002,0.002,0.002,84.182,23.784,0.402
'[12:45:36.464 22/05/1995]',0.002,0.002,0.002,83.322,23.609,0.404
'[12:45:36.466 22/05/1995]',0.002,0.002,0.002,83.322,23.609,0.404
'[12:45:36.468 22/05/1995]',0.002,0.002,0.002,83.322,23.609,0.404
'[12:45:36.470 22/05/1995]',0.002,-0.017,0.002,83.322,23.609,0.404
'[12:45:36.472 22/05/1995]',0.002,-0.017,0.002,82.816,23.383,0.406
'[12:45:36.474 22/05/1995]',0.002,-0.017,0.002,82.816,23.383,0.406
'[12:45:36.476 22/05/1995]',0.002,-0.017,0.002,82.816,23.383,0.406
'[12:45:36.478 22/05/1995]',0.002,-0.017,0.002,82.816,23.383,0.406
'[12:45:36.480 22/05/1995]',0.002,-0.017,0.002,82.867,23.208,0.409
'[12:45:36.482 22/05/1995]',0.002,-0.017,0.002,82.867,23.208,0.409
'[12:45:36.484 22/05/1995]',0.002,-0.017,0.002,82.867,23.208,0.409
'[12:45:36.486 22/05/1995]',0.019,-0.017,0.002,82.867,23.208,0.409
'[12:45:36.488 22/05/1995]',0.019,-0.017,0.002,83.423,23.208,0.412
'[12:45:36.490 22/05/1995]',0.002,-0.017,0.002,83.423,23.208,0.412
'[12:45:36.492 22/05/1995]',0.002,-0.017,0.002,83.423,23.208,0.412
'[12:45:36.494 22/05/1995]',0.002,-0.017,0.002,83.423,23.208,0.412
'[12:45:36.496 22/05/1995]',0.002,-0.017,0.002,84.435,23.559,0.415
'[12:45:36.498 22/05/1995]',0.002,-0.017,0.002,84.435,23.559,0.415
'[12:45:36.500 22/05/1995]',0.019,-0.017,0.002,84.435,23.559,0.415
'[12:45:36.502 22/05/1995]',0.019,-0.017,0.002,84.435,23.559,0.415
'[12:45:36.504 22/05/1995]',0.019,-0.017,0.002,85.902,24.261,0.417
'[12:45:36.506 22/05/1995]',0.002,-0.017,0.002,85.902,24.261,0.417
'[12:45:36.508 22/05/1995]',0.019,-0.017,0.002,85.902,24.261,0.417
'[12:45:36.510 22/05/1995]',0.019,-0.017,0.002,85.902,24.261,0.417
'[12:45:36.512 22/05/1995]',0.019,-0.017,0.002,87.926,24.837,0.420
'[12:45:36.514 22/05/1995]',0.002,-0.017,0.002,87.926,24.837,0.420
'[12:45:36.516 22/05/1995]',0.002,-0.017,0.002,87.926,24.837,0.420
'[12:45:36.518 22/05/1995]',0.019,0.002,0.002,87.926,24.837,0.420
'[12:45:36.520 22/05/1995]',0.002,0.002,0.002,90.607,24.612,0.422
'[12:45:36.522 22/05/1995]',0.002,0.002,0.002,90.607,24.612,0.422
'[12:45:36.524 22/05/1995]',0.002,0.002,0.002,90.607,24.612,0.422
'[12:45:36.526 22/05/1995]',0.002,0.002,0.002,90.607,24.612,0.422
'[12:45:36.528 22/05/1995]',0.002,0.002,0.002,93.794,23.734,0.425
'[12:45:36.530 22/05/1995]',0.002,0.002,0.002,93.794,23.734,0.425
'[12:45:36.532 22/05/1995]',0.002,0.002,0.002,93.794,23.734,0.425
'[12:45:36.534 22/05/1995]',0.002,0.002,0.002,93.794,23.734,0.425
'[12:45:36.536 22/05/1995]',0.002,0.002,0.002,97.386,22.957,0.427
