'Time and date','V','II','ABP','PAP','ART','PLETH','RESP'
'hh:mm:ss.mmm dd/mm/yyyy','mV','mV','mmHg','mmHg','mmHg','mV','mV'
'[13:02:53.000 23/06/1995]',0.100,-0.109,88.300,46.675,93.450,0.000,-0.503
'[13:02:53.002 23/06/1995]',0.100,-0.120,88.300,46.675,93.450,0.000,-0.503
'[13:02:53.004 23/06/1995]',0.100,-0.120,88.300,46.675,93.450,0.000,-0.503
'[13:02:53.006 23/06/1995]',0.100,-0.120,88.300,46.675,93.450,0.000,-0.503
'[13:02:53.008 23/06/1995]',0.100,-0.120,89.750,46.050,92.650,0.000,-0.504
'[13:02:53.010 23/06/1995]',0.100,-0.131,89.750,46.050,92.650,0.000,-0.504
'[13:02:53.012 23/06/1995]',0.100,-0.142,89.750,46.050,92.650,0.000,-0.504
'[13:02:53.014 23/06/1995]',0.100,-0.153,89.750,46.050,92.650,0.000,-0.504
'[13:02:53.016 23/06/1995]',0.100,-0.164,90.800,45.225,91.800,0.000,-0.505
'[13:02:53.018 23/06/1995]',0.088,-0.153,90.800,45.225,91.800,0.000,-0.505
'[13:02:53.020 23/06/1995]',0.088,-0.153,90.800,45.225,91.800,0.000,-0.505
'[13:02:53.022 23/06/1995]',0.088,-0.153,90.800,45.225,91.800,0.000,-0.505
'[13:02:53.024 23/06/1995]',0.100,-0.153,91.450,44.100,90.750,0.000,-0.506
'[13:02:53.026 23/06/1995]',0.088,-0.164,91.450,44.100,90.750,0.000,-0.506
'[13:02:53.028 23/06/1995]',0.088,-0.174,91.450,44.100,90.750,0.000,-0.506
'[13:02:53.030 23/06/1995]',0.088,-0.174,91.450,44.100,90.750,0.000,-0.506
'[13:02:53.032 23/06/1995]',0.077,-0.185,91.550,42.475,89.550,0.000,-0.507
'[13:02:53.034 23/06/1995]',0.077,-0.185,91.550,42.475,89.550,0.000,-0.507
'[13:02:53.036 23/06/1995]',0.077,-0.185,91.550,42.475,89.550,0.000,-0.507
'[13:02:53.038 23/06/1995]',0.077,-0.174,91.550,42.475,89.550,0.000,-0.507
'[13:02:53.040 23/06/1995]',0.088,-0.174,91.250,40.600,88.300,0.000,-0.508
'[13:02:53.042 23/06/1995]',0.077,-0.174,91.250,40.600,88.300,0.000,-0.508
'[13:02:53.044 23/06/1995]',0.077,-0.174,91.250,40.600,88.300,0.000,-0.508
'[13:02:53.046 23/06/1995]',0.088,-0.185,91.250,40.600,88.300,0.000,-0.508
'[13:02:53.048 23/06/1995]',0.077,-0.185,90.500,38.950,86.850,0.000,-0.508
'[13:02:53.050 23/06/1995]',0.077,-0.197,90.500,38.950,86.850,0.000,-0.508
'[13:02:53.052 23/06/1995]',0.088,-0.197,90.500,38.950,86.850,0.000,-0.508
'[13:02:53.054 23/06/1995]',0.077,-0.197,90.500,38.950,86.850,0.000,-0.508
'[13:02:53.056 23/06/1995]',0.088,-0.185,89.450,38.125,85.450,0.000,-0.509
'[13:02:53.058 23/06/1995]',0.077,-0.185,89.450,38.125,85.450,0.000,-0.509
'[13:02:53.060 23/06/1995]',0.077,-0.185,89.450,38.125,85.450,0.000,-0.509
'[13:02:53.062 23/06/1995]',0.088,-0.197,89.450,38.125,85.450,0.000,-0.509
'[13:02:53.064 23/06/1995]',0.088,-0.197,88.050,38.125,84.100,0.000,-0.509
'[13:02:53.066 23/06/1995]',0.088,-0.185,88.050,38.125,84.100,0.000,-0.509
'[13:02:53.068 23/06/1995]',0.088,-0.174,88.050,38.125,84.100,0.000,-0.509
'[13:02:53.070 23/06/1995]',0.100,-0.174,88.050,38.125,84.100,0.000,-0.509
'[13:02:53.072 23/06/1995]',0.088,-0.174,86.450,38.725,82.950,0.000,-0.509
'[13:02:53.074 23/06/1995]',0.088,-0.164,86.450,38.725,82.950,0.000,-0.509
'[13:02:53.076 23/06/1995]',0.088,-0.174,86.450,38.725,82.950,0.000,-0.509
'[13:02:53.078 23/06/1995]',0.077,-0.185,86.450,38.725,82.950,0.000,-0.509
'[13:02:53.080 23/06/1995]',0.077,-0.185,84.750,39.425,81.900,0.000,-0.509
'[13:02:53.082 23/06/1995]',0.077,-0.174,84.750,39.425,81.900,0.000,-0.509
'[13:02:53.084 23/06/1995]',0.077,-0.164,84.750,39.425,81.900,0.000,-0.509
'[13:02:53.086 23/06/1995]',0.077,-0.164,84.750,39.425,81.900,0.000,-0.509
'[13:02:53.088 23/06/1995]',0.077,-0.153,83.250,40.000,81.000,0.000,-0.509
'[13:02:53.090 23/06/1995]',0.088,-0.153,83.250,40.000,81.000,0.000,-0.509
'[13:02:53.092 23/06/1995]',0.077,-0.153,83.250,40.000,81.000,0.000,-0.509
'[13:02:53.094 23/06/1995]',0.077,-0.164,83.250,40.000,81.000,0.000,-0.509
'[13:02:53.096 23/06/1995]',0.067,-0.164,81.850,40.525,80.400,0.000,-0.508
'[13:02:53.098 23/06/1995]',0.056,-0.164,81.850,40.525,80.400,0.000,-0.508
'[13:02:53.100 23/06/1995]',0.056,-0.142,81.850,40.525,80.400,0.000,-0.508
'[13:02:53.102 23/06/1995]',0.067,-0.131,81.850,40.525,80.400,0.000,-0.508
'[13:02:53.104 23/06/1995]',0.067,-0.120,80.550,40.825,80.050,0.000,-0.508
'[13:02:53.106 23/06/1995]',0.067,-0.120,80.550,40.825,80.050,0.000,-0.508
'[13:02:53.108 23/06/1995]',0.056,-0.109,80.550,40.825,80.050,0.000,-0.508
'[13:02:53.110 23/06/1995]',0.056,-0.109,80.550,40.825,80.050,0.000,-0.508
'[13:02:53.112 23/06/1995]',0.056,-0.109,79.350,40.950,79.950,0.000,-0.508
'[13:02:53.114 23/06/1995]',0.056,-0.109,79.350,40.950,79.950,0.000,-0.508
'[13:02:53.116 23/06/1995]',0.056,-0.098,79.350,40.950,79.950,0.000,-0.508
'[13:02:53.118 23/06/1995]',0.056,-0.098,79.350,40.950,79.950,0.000,-0.508
'[13:02:53.120 23/06/1995]',0.056,-0.087,78.350,40.875,80.150,0.000,-0.508
'[13:02:53.122 23/06/1995]',0.056,-0.076,78.350,40.875,80.150,0.000,-0.508
'[13:02:53.124 23/06/1995]',0.044,-0.076,78.350,40.875,80.150,0.000,-0.508
'[13:02:53.126 23/06/1995]',0.044,-0.076,78.350,40.875,80.150,0.000,-0.508
'[13:02:53.128 23/06/1995]',0.044,-0.065,77.750,40.525,80.700,0.000,-0.508
'[13:02:53.130 23/06/1995]',0.034,-0.065,77.750,40.525,80.700,0.000,-0.508
'[13:02:53.132 23/06/1995]',0.044,-0.065,77.750,40.525,80.700,0.000,-0.508
'[13:02:53.134 23/06/1995]',0.034,-0.043,77.750,40.525,80.700,0.000,-0.508
'[13:02:53.136 23/06/1995]',0.034,-0.043,77.500,40.075,81.650,0.000,-0.508
'[13:02:53.138 23/06/1995]',0.034,-0.043,77.500,40.075,81.650,0.000,-0.508
'[13:02:53.140 23/06/1995]',0.022,-0.032,77.500,40.075,81.650,0.000,-0.508
'[13:02:53.142 23/06/1995]',0.022,-0.032,77.500,40.075,81.650,0.000,-0.508
'[13:02:53.144 23/06/1995]',0.022,-0.021,77.750,39.475,83.050,0.000,-0.508
'[13:02:53.146 23/06/1995]',0.011,-0.032,77.750,39.475,83.050,0.000,-0.508
'[13:02:53.148 23/06/1995]',0.011,-0.032,77.750,39.475,83.050,0.000,-0.508
'[13:02:53.150 23/06/1995]',0.011,-0.032,77.750,39.475,83.050,0.000,-0.508
'[13:02:53.152 23/06/1995]',0.011,-0.010,78.450,38.950,84.900,0.000,-0.509
'[13:02:53.154 23/06/1995]',0.011,0.001,78.450,38.950,84.900,0.000,-0.509
'[13:02:53.156 23/06/1995]',0.001,0.001,78.450,38.950,84.900,0.000,-0.509
'[13:02:53.158 23/06/1995]',0.001,0.001,78.450,38.950,84.900,0.000,-0.509
'[13:02:53.160 23/06/1995]',0.001,0.001,79.500,38.425,87.100,0.000,-0.509
'[13:02:53.162 23/06/1995]',0.001,0.001,79.500,38.425,87.100,0.000,-0.509
'[13:02:53.164 23/06/1995]',0.001,0.001,79.500,38.425,87.100,0.000,-0.509
'[13:02:53.166 23/06/1995]',0.001,0.001,79.500,38.425,87.100,0.000,-0.509
'[13:02:53.168 23/06/1995]',0.001,0.001,80.950,38.025,89.750,0.000,-0.510
'[13:02:53.170 23/06/1995]',0.001,0.011,80.950,38.025,89.750,0.000,-0.510
'[13:02:53.172 23/06/1995]',0.001,0.011,80.950,38.025,89.750,0.000,-0.510
'[13:02:53.174 23/06/1995]',0.001,0.022,80.950,38.025,89.750,0.000,-0.510
'[13:02:53.176 23/06/1995]',0.001,0.022,82.750,37.725,92.750,0.000,-0.510
'[13:02:53.178 23/06/1995]',-0.010,0.022,82.750,37.725,92.750,0.000,-0.510
'[13:02:53.180 23/06/1995]',-0.021,0.022,82.750,37.725,92.750,0.000,-0.510
'[13:02:53.182 23/06/1995]',-0.021,0.034,82.750,37.725,92.750,0.000,-0.510
'[13:02:53.184 23/06/1995]',-0.010,0.034,84.750,37.500,96.050,0.000,-0.511
'[13:02:53.186 23/06/1995]',-0.010,0.034,84.750,37.500,96.050,0.000,-0.511
'[13:02:53.188 23/06/1995]',-0.010,0.034,84.750,37.500,96.050,0.000,-0.511
'[13:02:53.190 23/06/1995]',0.001,0.044,84.750,37.500,96.050,0.000,-0.511
'[13:02:53.192 23/06/1995]',-0.021,0.044,86.700,37.375,99.600,0.000,-0.511
'[13:02:53.194 23/06/1995]',-0.021,0.044,86.700,37.375,99.600,0.000,-0.511
'[13:02:53.196 23/06/1995]',-0.021,0.044,86.700,37.375,99.600,0.000,-0.511
'[13:02:53.198 23/06/1995]',-0.021,0.056,86.700,37.375,99.600,0.000,-0.511
'[13:02:53.200 23/06/1995]',-0.032,0.044,88.650,37.300,103.150,0.000,-0.512
'[13:02:53.202 23/06/1995]',-0.032,0.056,88.650,37.300,103.150,0.000,-0.512
'[13:02:53.204 23/06/1995]',-0.021,0.056,88.650,37.300,103.150,0.000,-0.512
'[13:02:53.206 23/06/1995]',-0.021,0.056,88.650,37.300,103.150,0.000,-0.512
'[13:02:53.208 23/06/1995]',-0.021,0.056,90.400,37.250,106.650,0.000,-0.514
'[13:02:53.210 23/06/1995]',-0.021,0.044,90.400,37.250,106.650,0.000,-0.514
'[13:02:53.212 23/06/1995]',-0.021,0.044,90.400,37.250,106.650,0.000,-0.514
'[13:02:53.214 23/06/1995]',-0.021,0.044,90.400,37.250,106.650,0.000,-0.514
'[13:02:53.216 23/06/1995]',-0.021,0.056,91.900,37.075,110.000,0.000,-0.515
'[13:02:53.218 23/06/1995]',-0.032,0.056,91.900,37.075,110.000,0.000,-0.515
'[13:02:53.220 23/06/1995]',-0.021,0.067,91.900,37.075,110.000,0.000,-0.515
'[13:02:53.222 23/06/1995]',-0.021,0.067,91.900,37.075,110.000,0.000,-0.515
'[13:02:53.224 23/06/1995]',-0.021,0.067,93.250,36.850,113.050,0.000,-0.517
'[13:02:53.226 23/06/1995]',-0.021,0.067,93.250,36.850,113.050,0.000,-0.517
'[13:02:53.228 23/06/1995]',-0.021,0.056,93.250,36.850,113.050,0.000,-0.517
'[13:02:53.230 23/06/1995]',-0.032,0.044,93.250,36.850,113.050,0.000,-0.517
'[13:02:53.232 23/06/1995]',-0.032,0.044,94.550,36.675,115.650,0.000,-0.518
'[13:02:53.234 23/06/1995]',-0.032,0.056,94.550,36.675,115.650,0.000,-0.518
'[13:02:53.236 23/06/1995]',-0.032,0.056,94.550,36.675,115.650,0.000,-0.518
'[13:02:53.238 23/06/1995]',-0.032,0.067,94.550,36.675,115.650,0.000,-0.518
'[13:02:53.240 23/06/1995]',-0.032,0.067,95.800,36.500,117.650,0.000,-0.520
'[13:02:53.242 23/06/1995]',-0.032,0.067,95.800,36.500,117.650,0.000,-0.520
'[13:02:53.244 23/06/1995]',-0.043,0.056,95.800,36.500,117.650,0.000,-0.520
'[13:02:53.246 23/06/1995]',-0.032,0.056,95.800,36.500,117.650,0.000,-0.520
'[13:02:53.248 23/06/1995]',-0.032,0.056,97.100,36.325,119.000,0.000,-0.521
'[13:02:53.250 23/06/1995]',-0.032,0.056,97.100,36.325,119.000,0.000,-0.521
'[13:02:53.252 23/06/1995]',-0.032,0.056,97.100,36.325,119.000,0.000,-0.521
'[13:02:53.254 23/06/1995]',-0.021,0.067,97.100,36.325,119.000,0.000,-0.521
'[13:02:53.256 23/06/1995]',-0.021,0.067,98.350,36.150,119.700,0.000,-0.522
'[13:02:53.258 23/06/1995]',-0.032,0.067,98.350,36.150,119.700,0.000,-0.522
'[13:02:53.260 23/06/1995]',-0.032,0.067,98.350,36.150,119.700,0.000,-0.522
'[13:02:53.262 23/06/1995]',-0.043,0.056,98.350,36.150,119.700,0.000,-0.522
'[13:02:53.264 23/06/1995]',-0.043,0.056,99.450,35.975,119.700,0.000,-0.523
'[13:02:53.266 23/06/1995]',-0.032,0.056,99.450,35.975,119.700,0.000,-0.523
'[13:02:53.268 23/06/1995]',-0.032,0.056,99.450,35.975,119.700,0.000,-0.523
'[13:02:53.270 23/06/1995]',-0.032,0.067,99.450,35.975,119.700,0.000,-0.523
'[13:02:53.272 23/06/1995]',-0.021,0.067,100.400,35.800,119.050,0.000,-0.523
'[13:02:53.274 23/06/1995]',-0.021,0.067,100.400,35.800,119.050,0.000,-0.523
'[13:02:53.276 23/06/1995]',-0.032,0.056,100.400,35.800,119.050,0.000,-0.523
'[13:02:53.278 23/06/1995]',-0.032,0.056,100.400,35.800,119.050,0.000,-0.523
'[13:02:53.280 23/06/1995]',-0.032,0.044,101.100,35.625,117.750,0.000,-0.524
'[13:02:53.282 23/06/1995]',-0.032,0.044,101.100,35.625,117.750,0.000,-0.524
'[13:02:53.284 23/06/1995]',-0.021,0.044,101.100,35.625,117.750,0.000,-0.524
'[13:02:53.286 23/06/1995]',-0.021,0.056,101.100,35.625,117.750,0.000,-0.524
'[13:02:53.288 23/06/1995]',-0.032,0.056,101.500,35.500,115.850,0.000,-0.524
'[13:02:53.290 23/06/1995]',-0.032,0.056,101.500,35.500,115.850,0.000,-0.524
'[13:02:53.292 23/06/1995]',-0.032,0.067,101.500,35.500,115.850,0.000,-0.524
'[13:02:53.294 23/06/1995]',-0.032,0.056,101.500,35.500,115.850,0.000,-0.524
'[13:02:53.296 23/06/1995]',-0.032,0.056,101.650,35.425,113.400,0.000,-0.525
'[13:02:53.298 23/06/1995]',-0.032,0.056,101.650,35.425,113.400,0.000,-0.525
'[13:02:53.300 23/06/1995]',-0.032,0.044,101.650,35.425,113.400,0.000,-0.525
'[13:02:53.302 23/06/1995]',-0.021,0.056,101.650,35.425,113.400,0.000,-0.525
'[13:02:53.304 23/06/1995]',-0.021,0.056,101.400,35.250,110.550,0.000,-0.525
'[13:02:53.306 23/06/1995]',-0.021,0.044,101.400,35.250,110.550,0.000,-0.525
'[13:02:53.308 23/06/1995]',-0.021,0.044,101.400,35.250,110.550,0.000,-0.525
'[13:02:53.310 23/06/1995]',-0.032,0.056,101.400,35.250,110.550,0.000,-0.525
'[13:02:53.312 23/06/1995]',-0.032,0.044,101.100,35.075,107.300,0.000,-0.525
'[13:02:53.314 23/06/1995]',-0.032,0.034,101.100,35.075,107.300,0.000,-0.525
'[13:02:53.316 23/06/1995]',-0.032,0.044,101.100,35.075,107.300,0.000,-0.525
'[13:02:53.318 23/06/1995]',-0.032,0.044,101.100,35.075,107.300,0.000,-0.525
'[13:02:53.320 23/06/1995]',-0.032,0.056,100.750,34.850,104.000,0.000,-0.525
'[13:02:53.322 23/06/1995]',-0.032,0.067,100.750,34.850,104.000,0.000,-0.525
'[13:02:53.324 23/06/1995]',-0.032,0.067,100.750,34.850,104.000,0.000,-0.525
'[13:02:53.326 23/06/1995]',-0.021,0.056,100.750,34.850,104.000,0.000,-0.525
'[13:02:53.328 23/06/1995]',-0.021,0.044,100.300,34.675,100.650,0.000,-0.525
'[13:02:53.330 23/06/1995]',-0.021,0.034,100.300,34.675,100.650,0.000,-0.525
'[13:02:53.332 23/06/1995]',-0.021,0.034,100.300,34.675,100.650,0.000,-0.525
'[13:02:53.334 23/06/1995]',-0.021,0.034,100.300,34.675,100.650,0.000,-0.525
'[13:02:53.336 23/06/1995]',-0.021,0.044,99.700,34.450,97.300,0.000,-0.524
'[13:02:53.338 23/06/1995]',-0.021,0.044,99.700,34.450,97.300,0.000,-0.524
'[13:02:53.340 23/06/1995]',-0.021,0.056,99.700,34.450,97.300,0.000,-0.524
'[13:02:53.342 23/06/1995]',-0.021,0.044,99.700,34.450,97.300,0.000,-0.524
'[13:02:53.344 23/06/1995]',-0.032,0.044,99.050,34.275,94.150,0.000,-0.524
'[13:02:53.346 23/06/1995]',-0.032,0.034,99.050,34.275,94.150,0.000,-0.524
'[13:02:53.348 23/06/1995]',-0.032,0.034,99.050,34.275,94.150,0.000,-0.524
'[13:02:53.350 23/06/1995]',-0.032,0.034,99.050,34.275,94.150,0.000,-0.524
'[13:02:53.352 23/06/1995]',-0.032,0.044,98.300,34.100,91.250,0.000,-0.523
'[13:02:53.354 23/06/1995]',-0.032,0.044,98.300,34.100,91.250,0.000,-0.523
'[13:02:53.356 23/06/1995]',-0.032,0.056,98.300,34.100,91.250,0.000,-0.523
'[13:02:53.358 23/06/1995]',-0.032,0.067,98.300,34.100,91.250,0.000,-0.523
'[13:02:53.360 23/06/1995]',-0.032,0.067,97.500,33.925,88.650,0.000,-0.523
'[13:02:53.362 23/06/1995]',-0.032,0.044,97.500,33.925,88.650,0.000,-0.523
'[13:02:53.364 23/06/1995]',-0.032,0.044,97.500,33.925,88.650,0.000,-0.523
'[13:02:53.366 23/06/1995]',-0.032,0.034,97.500,33.925,88.650,0.000,-0.523
'[13:02:53.368 23/06/1995]',-0.021,0.034,96.600,33.750,86.350,0.000,-0.523
'[13:02:53.370 23/06/1995]',-0.021,0.034,96.600,33.750,86.350,0.000,-0.523
'[13:02:53.372 23/06/1995]',-0.021,0.034,96.600,33.750,86.350,0.000,-0.523
'[13:02:53.374 23/06/1995]',-0.021,0.044,96.600,33.750,86.350,0.000,-0.523
'[13:02:53.376 23/06/1995]',-0.021,0.034,95.700,33.625,84.350,0.000,-0.523
'[13:02:53.378 23/06/1995]',-0.021,0.034,95.700,33.625,84.350,0.000,-0.523
'[13:02:53.380 23/06/1995]',-0.021,0.034,95.700,33.625,84.350,0.000,-0.523
'[13:02:53.382 23/06/1995]',-0.032,0.022,95.700,33.625,84.350,0.000,-0.523
'[13:02:53.384 23/06/1995]',-0.021,0.034,94.850,33.450,82.750,0.000,-0.523
'[13:02:53.386 23/06/1995]',-0.021,0.034,94.850,33.450,82.750,0.000,-0.523
'[13:02:53.388 23/06/1995]',-0.021,0.034,94.850,33.450,82.750,0.000,-0.523
'[13:02:53.390 23/06/1995]',-0.021,0.034,94.850,33.450,82.750,0.000,-0.523
'[13:02:53.392 23/06/1995]',-0.021,0.034,93.850,33.325,81.600,0.000,-0.522
'[13:02:53.394 23/06/1995]',-0.021,0.034,93.850,33.325,81.600,0.000,-0.522
'[13:02:53.396 23/06/1995]',-0.021,0.034,93.850,33.325,81.600,0.000,-0.522
'[13:02:53.398 23/06/1995]',-0.032,0.034,93.850,33.325,81.600,0.000,-0.522
'[13:02:53.400 23/06/1995]',-0.032,0.034,92.800,33.150,80.800,0.000,-0.521
'[13:02:53.402 23/06/1995]',-0.021,0.044,92.800,33.150,80.800,0.000,-0.521
'[13:02:53.404 23/06/1995]',-0.021,0.044,92.800,33.150,80.800,0.000,-0.521
'[13:02:53.406 23/06/1995]',-0.021,0.044,92.800,33.150,80.800,0.000,-0.521
'[13:02:53.408 23/06/1995]',-0.021,0.044,91.550,33.025,80.250,0.000,-0.520
'[13:02:53.410 23/06/1995]',-0.021,0.034,91.550,33.025,80.250,0.000,-0.520
'[13:02:53.412 23/06/1995]',-0.021,0.034,91.550,33.025,80.250,0.000,-0.520
'[13:02:53.414 23/06/1995]',-0.021,0.034,91.550,33.025,80.250,0.000,-0.520
'[13:02:53.416 23/06/1995]',-0.021,0.034,90.200,32.850,80.050,0.000,-0.518
'[13:02:53.418 23/06/1995]',-0.021,0.034,90.200,32.850,80.050,0.000,-0.518
'[13:02:53.420 23/06/1995]',-0.021,0.034,90.200,32.850,80.050,0.000,-0.518
'[13:02:53.422 23/06/1995]',-0.021,0.034,90.200,32.850,80.050,0.000,-0.518
'[13:02:53.424 23/06/1995]',-0.021,0.034,88.700,32.750,80.150,0.000,-0.517
'[13:02:53.426 23/06/1995]',-0.032,0.034,88.700,32.750,80.150,0.000,-0.517
'[13:02:53.428 23/06/1995]',-0.032,0.034,88.700,32.750,80.150,0.000,-0.517
'[13:02:53.430 23/06/1995]',-0.032,0.022,88.700,32.750,80.150,0.000,-0.517
'[13:02:53.432 23/06/1995]',-0.032,0.022,87.150,32.625,80.350,0.000,-0.516
'[13:02:53.434 23/06/1995]',-0.021,0.034,87.150,32.625,80.350,0.000,-0.516
'[13:02:53.436 23/06/1995]',-0.032,0.034,87.150,32.625,80.350,0.000,-0.516
'[13:02:53.438 23/06/1995]',-0.032,0.034,87.150,32.625,80.350,0.000,-0.516
'[13:02:53.440 23/06/1995]',-0.032,0.034,85.750,32.450,80.800,0.000,-0.515
'[13:02:53.442 23/06/1995]',-0.021,0.034,85.750,32.450,80.800,0.000,-0.515
'[13:02:53.444 23/06/1995]',-0.032,0.034,85.750,32.450,80.800,0.000,-0.515
'[13:02:53.446 23/06/1995]',-0.032,0.022,85.750,32.450,80.800,0.000,-0.515
'[13:02:53.448 23/06/1995]',-0.032,0.022,84.450,32.325,81.300,0.000,-0.515
'[13:02:53.450 23/06/1995]',-0.021,0.022,84.450,32.325,81.300,0.000,-0.515
'[13:02:53.452 23/06/1995]',-0.021,0.022,84.450,32.325,81.300,0.000,-0.515
'[13:02:53.454 23/06/1995]',-0.021,0.034,84.450,32.325,81.300,0.000,-0.515
'[13:02:53.456 23/06/1995]',-0.021,0.034,83.400,32.150,81.950,0.000,-0.514
'[13:02:53.458 23/06/1995]',-0.021,0.034,83.400,32.150,81.950,0.000,-0.514
'[13:02:53.460 23/06/1995]',-0.021,0.034,83.400,32.150,81.950,0.000,-0.514
'[13:02:53.462 23/06/1995]',-0.021,0.034,83.400,32.150,81.950,0.000,-0.514
'[13:02:53.464 23/06/1995]',-0.021,0.034,82.550,32.050,82.650,0.000,-0.514
'[13:02:53.466 23/06/1995]',-0.032,0.044,82.550,32.050,82.650,0.000,-0.514
'[13:02:53.468 23/06/1995]',-0.021,0.056,82.550,32.050,82.650,0.000,-0.514
'[13:02:53.470 23/06/1995]',-0.021,0.067,82.550,32.050,82.650,0.000,-0.514
'[13:02:53.472 23/06/1995]',-0.032,0.067,81.950,31.875,83.350,0.000,-0.513
'[13:02:53.474 23/06/1995]',-0.021,0.067,81.950,31.875,83.350,0.000,-0.513
'[13:02:53.476 23/06/1995]',-0.021,0.056,81.950,31.875,83.350,0.000,-0.513
'[13:02:53.478 23/06/1995]',-0.021,0.056,81.950,31.875,83.350,0.000,-0.513
'[13:02:53.480 23/06/1995]',-0.021,0.044,81.550,31.625,84.000,0.000,-0.513
'[13:02:53.482 23/06/1995]',-0.021,0.044,81.550,31.625,84.000,0.000,-0.513
'[13:02:53.484 23/06/1995]',-0.021,0.044,81.550,31.625,84.000,0.000,-0.513
'[13:02:53.486 23/06/1995]',-0.032,0.067,81.550,31.625,84.000,0.000,-0.513
'[13:02:53.488 23/06/1995]',-0.043,0.077,81.350,31.450,84.600,0.000,-0.512
'[13:02:53.490 23/06/1995]',-0.054,0.077,81.350,31.450,84.600,0.000,-0.512
'[13:02:53.492 23/06/1995]',-0.065,0.088,81.350,31.450,84.600,0.000,-0.512
'[13:02:53.494 23/06/1995]',-0.076,0.088,81.350,31.450,84.600,0.000,-0.512
'[13:02:53.496 23/06/1995]',-0.076,0.088,81.250,31.225,85.100,0.000,-0.512
'[13:02:53.498 23/06/1995]',-0.076,0.088,81.250,31.225,85.100,0.000,-0.512
'[13:02:53.500 23/06/1995]',-0.076,0.088,81.250,31.225,85.100,0.000,-0.512
'[13:02:53.502 23/06/1995]',-0.076,0.088,81.250,31.225,85.100,0.000,-0.512
'[13:02:53.504 23/06/1995]',-0.076,0.088,81.250,31.100,85.450,0.000,-0.512
'[13:02:53.506 23/06/1995]',-0.076,0.088,81.250,31.100,85.450,0.000,-0.512
'[13:02:53.508 23/06/1995]',-0.065,0.077,81.250,31.100,85.450,0.000,-0.512
'[13:02:53.510 23/06/1995]',-0.065,0.067,81.250,31.100,85.450,0.000,-0.512
'[13:02:53.512 23/06/1995]',-0.076,0.056,81.350,31.050,85.650,0.000,-0.512
'[13:02:53.514 23/06/1995]',-0.076,0.056,81.350,31.050,85.650,0.000,-0.512
'[13:02:53.516 23/06/1995]',-0.054,0.056,81.350,31.050,85.650,0.000,-0.512
'[13:02:53.518 23/06/1995]',-0.054,0.067,81.350,31.050,85.650,0.000,-0.512
'[13:02:53.520 23/06/1995]',-0.065,0.077,81.400,31.050,85.700,0.000,-0.511
'[13:02:53.522 23/06/1995]',-0.054,0.077,81.400,31.050,85.700,0.000,-0.511
'[13:02:53.524 23/06/1995]',-0.054,0.067,81.400,31.050,85.700,0.000,-0.511
'[13:02:53.526 23/06/1995]',-0.054,0.067,81.400,31.050,85.700,0.000,-0.511
'[13:02:53.528 23/06/1995]',-0.043,0.056,81.400,31.050,85.700,0.000,-0.511
'[13:02:53.530 23/06/1995]',-0.043,0.044,81.400,31.050,85.700,0.000,-0.511
'[13:02:53.532 23/06/1995]',-0.032,0.034,81.400,31.050,85.700,0.000,-0.511
'[13:02:53.534 23/06/1995]',-0.021,0.034,81.400,31.050,85.700,0.000,-0.511
'[13:02:53.536 23/06/1995]',-0.021,0.034,81.400,31.050,85.500,0.000,-0.510
'[13:02:53.538 23/06/1995]',-0.021,0.034,81.400,31.050,85.500,0.000,-0.510
'[13:02:53.540 23/06/1995]',-0.021,0.034,81.400,31.050,85.500,0.000,-0.510
'[13:02:53.542 23/06/1995]',-0.021,0.011,81.400,31.050,85.500,0.000,-0.510
'[13:02:53.544 23/06/1995]',-0.010,0.011,81.400,31.100,85.300,0.000,-0.509
'[13:02:53.546 23/06/1995]',-0.021,0.011,81.400,31.100,85.300,0.000,-0.509
'[13:02:53.548 23/06/1995]',-0.021,0.001,81.400,31.100,85.300,0.000,-0.509
'[13:02:53.550 23/06/1995]',-0.010,0.011,81.400,31.100,85.300,0.000,-0.509
'[13:02:53.552 23/06/1995]',-0.010,0.022,81.350,31.100,85.000,0.000,-0.508
'[13:02:53.554 23/06/1995]',0.001,0.022,81.350,31.100,85.000,0.000,-0.508
'[13:02:53.556 23/06/1995]',0.001,0.022,81.350,31.100,85.000,0.000,-0.508
'[13:02:53.558 23/06/1995]',0.001,0.011,81.350,31.100,85.000,0.000,-0.508
'[13:02:53.560 23/06/1995]',0.001,0.011,81.250,31.050,84.600,0.000,-0.507
'[13:02:53.562 23/06/1995]',-0.010,0.001,81.250,31.050,84.600,0.000,-0.507
'[13:02:53.564 23/06/1995]',0.001,0.001,81.250,31.050,84.600,0.000,-0.507
'[13:02:53.566 23/06/1995]',-0.010,0.001,81.250,31.050,84.600,0.000,-0.507
'[13:02:53.568 23/06/1995]',-0.010,0.001,81.000,30.750,84.100,0.000,-0.505
'[13:02:53.570 23/06/1995]',-0.010,0.001,81.000,30.750,84.100,0.000,-0.505
'[13:02:53.572 23/06/1995]',-0.010,0.001,81.000,30.750,84.100,0.000,-0.505
'[13:02:53.574 23/06/1995]',0.001,0.001,81.000,30.750,84.100,0.000,-0.505
'[13:02:53.576 23/06/1995]',0.001,0.001,80.700,30.350,83.600,0.000,-0.504
'[13:02:53.578 23/06/1995]',-0.010,0.001,80.700,30.350,83.600,0.000,-0.504
'[13:02:53.580 23/06/1995]',-0.010,0.001,80.700,30.350,83.600,0.000,-0.504
'[13:02:53.582 23/06/1995]',-0.010,0.001,80.700,30.350,83.600,0.000,-0.504
'[13:02:53.584 23/06/1995]',-0.010,0.001,80.350,29.875,83.050,0.000,-0.502
'[13:02:53.586 23/06/1995]',0.001,0.001,80.350,29.875,83.050,0.000,-0.502
'[13:02:53.588 23/06/1995]',0.001,0.011,80.350,29.875,83.050,0.000,-0.502
'[13:02:53.590 23/06/1995]',0.001,0.011,80.350,29.875,83.050,0.000,-0.502
'[13:02:53.592 23/06/1995]',0.001,0.011,80.000,29.575,82.550,0.000,-0.501
'[13:02:53.594 23/06/1995]',0.001,0.011,80.000,29.575,82.550,0.000,-0.501
'[13:02:53.596 23/06/1995]',0.001,0.001,80.000,29.575,82.550,0.000,-0.501
'[13:02:53.598 23/06/1995]',-0.010,0.001,80.000,29.575,82.550,0.000,-0.501
'[13:02:53.600 23/06/1995]',-0.010,0.001,79.600,29.525,81.950,0.000,-0.499
'[13:02:53.602 23/06/1995]',-0.010,0.011,79.600,29.525,81.950,0.000,-0.499
'[13:02:53.604 23/06/1995]',0.001,0.022,79.600,29.525,81.950,0.000,-0.499
'[13:02:53.606 23/06/1995]',0.001,0.011,79.600,29.525,81.950,0.000,-0.499
'[13:02:53.608 23/06/1995]',0.001,0.001,79.150,29.400,81.400,0.000,-0.498
'[13:02:53.610 23/06/1995]',0.001,0.001,79.150,29.400,81.400,0.000,-0.498
'[13:02:53.612 23/06/1995]',0.001,0.001,79.150,29.400,81.400,0.000,-0.498
'[13:02:53.614 23/06/1995]',-0.010,0.001,79.150,29.400,81.400,0.000,-0.498
'[13:02:53.616 23/06/1995]',-0.010,0.001,78.750,29.175,80.850,0.000,-0.496
'[13:02:53.618 23/06/1995]',-0.010,0.001,78.750,29.175,80.850,0.000,-0.496
'[13:02:53.620 23/06/1995]',0.001,0.011,78.750,29.175,80.850,0.000,-0.496
'[13:02:53.622 23/06/1995]',0.001,0.011,78.750,29.175,80.850,0.000,-0.496
'[13:02:53.624 23/06/1995]',-0.010,0.001,78.250,29.000,80.350,0.000,-0.495
'[13:02:53.626 23/06/1995]',-0.010,0.001,78.250,29.000,80.350,0.000,-0.495
'[13:02:53.628 23/06/1995]',-0.010,0.001,78.250,29.000,80.350,0.000,-0.495
'[13:02:53.630 23/06/1995]',0.001,0.001,78.250,29.000,80.350,0.000,-0.495
'[13:02:53.632 23/06/1995]',0.001,0.001,77.800,28.925,79.900,0.000,-0.493
'[13:02:53.634 23/06/1995]',0.001,0.001,77.800,28.925,79.900,0.000,-0.493
'[13:02:53.636 23/06/1995]',0.001,0.011,77.800,28.925,79.900,0.000,-0.493
'[13:02:53.638 23/06/1995]',0.001,0.011,77.800,28.925,79.900,0.000,-0.493
'[13:02:53.640 23/06/1995]',0.001,0.001,77.400,28.925,79.450,0.000,-0.492
'[13:02:53.642 23/06/1995]',0.001,0.001,77.400,28.925,79.450,0.000,-0.492
'[13:02:53.644 23/06/1995]',0.001,0.001,77.400,28.925,79.450,0.000,-0.492
'[13:02:53.646 23/06/1995]',-0.010,0.001,77.400,28.925,79.450,0.000,-0.492
'[13:02:53.648 23/06/1995]',-0.021,0.022,76.950,29.000,79.000,0.000,-0.490
'[13:02:53.650 23/06/1995]',-0.043,0.044,76.950,29.000,79.000,0.000,-0.490
'[13:02:53.652 23/06/1995]',-0.065,0.056,76.950,29.000,79.000,0.000,-0.490
'[13:02:53.654 23/06/1995]',-0.087,0.088,76.950,29.000,79.000,0.000,-0.490
'[13:02:53.656 23/06/1995]',-0.131,0.121,76.600,28.875,78.650,0.000,-0.489
'[13:02:53.658 23/06/1995]',-0.185,0.165,76.600,28.875,78.650,0.000,-0.489
'[13:02:53.660 23/06/1995]',-0.240,0.209,76.600,28.875,78.650,0.000,-0.489
'[13:02:53.662 23/06/1995]',-0.295,0.275,76.600,28.875,78.650,0.000,-0.489
'[13:02:53.664 23/06/1995]',-0.350,0.330,76.300,28.750,78.300,0.000,-0.488
'[13:02:53.666 23/06/1995]',-0.405,0.385,76.300,28.750,78.300,0.000,-0.488
'[13:02:53.668 23/06/1995]',-0.460,0.451,76.300,28.750,78.300,0.000,-0.488
'[13:02:53.670 23/06/1995]',-0.503,0.505,76.300,28.750,78.300,0.000,-0.488
'[13:02:53.672 23/06/1995]',-0.558,0.560,76.050,28.575,77.950,0.000,-0.487
'[13:02:53.674 23/06/1995]',-0.581,0.604,76.050,28.575,77.950,0.000,-0.487
'[13:02:53.676 23/06/1995]',-0.614,0.647,76.050,28.575,77.950,0.000,-0.487
'[13:02:53.678 23/06/1995]',-0.614,0.647,76.050,28.575,77.950,0.000,-0.487
'[13:02:53.680 23/06/1995]',-0.581,0.593,75.800,28.475,77.650,0.000,-0.487
'[13:02:53.682 23/06/1995]',-0.547,0.516,75.800,28.475,77.650,0.000,-0.487
'[13:02:53.684 23/06/1995]',-0.481,0.440,75.800,28.475,77.650,0.000,-0.487
'[13:02:53.686 23/06/1995]',-0.416,0.341,75.800,28.475,77.650,0.000,-0.487
'[13:02:53.688 23/06/1995]',-0.328,0.231,75.550,28.350,77.450,0.000,-0.487
'[13:02:53.690 23/06/1995]',-0.252,0.143,75.550,28.350,77.450,0.000,-0.487
'[13:02:53.692 23/06/1995]',-0.185,0.067,75.550,28.350,77.450,0.000,-0.487
'[13:02:53.694 23/06/1995]',-0.131,0.001,75.550,28.350,77.450,0.000,-0.487
'[13:02:53.696 23/06/1995]',-0.076,-0.032,75.350,28.400,77.250,0.000,-0.487
'[13:02:53.698 23/06/1995]',-0.043,-0.054,75.350,28.400,77.250,0.000,-0.487
'[13:02:53.700 23/06/1995]',-0.010,-0.054,75.350,28.400,77.250,0.000,-0.487
'[13:02:53.702 23/06/1995]',0.001,-0.054,75.350,28.400,77.250,0.000,-0.487
'[13:02:53.704 23/06/1995]',0.034,-0.054,75.100,28.650,77.050,0.000,-0.487
'[13:02:53.706 23/06/1995]',0.044,-0.054,75.100,28.650,77.050,0.000,-0.487
'[13:02:53.708 23/06/1995]',0.067,-0.054,75.100,28.650,77.050,0.000,-0.487
'[13:02:53.710 23/06/1995]',0.056,-0.054,75.100,28.650,77.050,0.000,-0.487
'[13:02:53.712 23/06/1995]',0.077,-0.054,74.850,29.000,76.800,0.000,-0.488
'[13:02:53.714 23/06/1995]',0.077,-0.054,74.850,29.000,76.800,0.000,-0.488
'[13:02:53.716 23/06/1995]',0.077,-0.054,74.850,29.000,76.800,0.000,-0.488
'[13:02:53.718 23/06/1995]',0.077,-0.043,74.850,29.000,76.800,0.000,-0.488
'[13:02:53.720 23/06/1995]',0.077,-0.021,74.600,29.450,76.600,0.000,-0.488
'[13:02:53.722 23/06/1995]',0.077,-0.021,74.600,29.450,76.600,0.000,-0.488
'[13:02:53.724 23/06/1995]',0.067,-0.021,74.600,29.450,76.600,0.000,-0.488
'[13:02:53.726 23/06/1995]',0.056,-0.021,74.600,29.450,76.600,0.000,-0.488
'[13:02:53.728 23/06/1995]',0.067,-0.032,74.400,29.750,76.300,0.000,-0.488
'[13:02:53.730 23/06/1995]',0.056,-0.032,74.400,29.750,76.300,0.000,-0.488
'[13:02:53.732 23/06/1995]',0.067,-0.043,74.400,29.750,76.300,0.000,-0.488
'[13:02:53.734 23/06/1995]',0.077,-0.032,74.400,29.750,76.300,0.000,-0.488
'[13:02:53.736 23/06/1995]',0.077,-0.021,74.100,29.875,76.050,0.000,-0.489
'[13:02:53.738 23/06/1995]',0.077,-0.010,74.100,29.875,76.050,0.000,-0.489
'[13:02:53.740 23/06/1995]',0.067,-0.021,74.100,29.875,76.050,0.000,-0.489
'[13:02:53.742 23/06/1995]',0.056,-0.021,74.100,29.875,76.050,0.000,-0.489
'[13:02:53.744 23/06/1995]',0.056,-0.032,73.800,29.875,75.600,0.000,-0.490
'[13:02:53.746 23/06/1995]',0.056,-0.043,73.800,29.875,75.600,0.000,-0.490
'[13:02:53.748 23/06/1995]',0.056,-0.043,73.800,29.875,75.600,0.000,-0.490
'[13:02:53.750 23/06/1995]',0.056,-0.032,73.800,29.875,75.600,0.000,-0.490
'[13:02:53.752 23/06/1995]',0.056,-0.021,73.550,30.000,75.050,0.000,-0.492
'[13:02:53.754 23/06/1995]',0.067,-0.021,73.550,30.000,75.050,0.000,-0.492
'[13:02:53.756 23/06/1995]',0.067,-0.021,73.550,30.000,75.050,0.000,-0.492
'[13:02:53.758 23/06/1995]',0.067,-0.021,73.550,30.000,75.050,0.000,-0.492
'[13:02:53.760 23/06/1995]',0.067,-0.021,73.300,30.450,74.250,0.000,-0.495
'[13:02:53.762 23/06/1995]',0.056,-0.032,73.300,30.450,74.250,0.000,-0.495
'[13:02:53.764 23/06/1995]',0.056,-0.032,73.300,30.450,74.250,0.000,-0.495
'[13:02:53.766 23/06/1995]',0.067,-0.021,73.300,30.450,74.250,0.000,-0.495
'[13:02:53.768 23/06/1995]',0.067,-0.021,72.800,31.400,73.350,0.000,-0.497
'[13:02:53.770 23/06/1995]',0.067,-0.021,72.800,31.400,73.350,0.000,-0.497
'[13:02:53.772 23/06/1995]',0.056,-0.021,72.800,31.400,73.350,0.000,-0.497
'[13:02:53.774 23/06/1995]',0.056,-0.021,72.800,31.400,73.350,0.000,-0.497
'[13:02:53.776 23/06/1995]',0.056,-0.032,72.000,32.975,72.100,0.000,-0.500
'[13:02:53.778 23/06/1995]',0.067,-0.032,72.000,32.975,72.100,0.000,-0.500
'[13:02:53.780 23/06/1995]',0.067,-0.032,72.000,32.975,72.100,0.000,-0.500
'[13:02:53.782 23/06/1995]',0.067,-0.032,72.000,32.975,72.100,0.000,-0.500
'[13:02:53.784 23/06/1995]',0.067,-0.032,70.750,35.075,70.750,0.000,-0.502
'[13:02:53.786 23/06/1995]',0.067,-0.021,70.750,35.075,70.750,0.000,-0.502
'[13:02:53.788 23/06/1995]',0.067,-0.021,70.750,35.075,70.750,0.000,-0.502
'[13:02:53.790 23/06/1995]',0.077,-0.010,70.750,35.075,70.750,0.000,-0.502
'[13:02:53.792 23/06/1995]',0.077,-0.021,69.150,37.675,69.250,0.000,-0.505
'[13:02:53.794 23/06/1995]',0.067,-0.021,69.150,37.675,69.250,0.000,-0.505
'[13:02:53.796 23/06/1995]',0.067,-0.032,69.150,37.675,69.250,0.000,-0.505
'[13:02:53.798 23/06/1995]',0.067,-0.032,69.150,37.675,69.250,0.000,-0.505
'[13:02:53.800 23/06/1995]',0.067,-0.021,67.400,40.425,67.650,0.000,-0.507
'[13:02:53.802 23/06/1995]',0.067,-0.021,67.400,40.425,67.650,0.000,-0.507
'[13:02:53.804 23/06/1995]',0.056,-0.021,67.400,40.425,67.650,0.000,-0.507
'[13:02:53.806 23/06/1995]',0.056,-0.021,67.400,40.425,67.650,0.000,-0.507
'[13:02:53.808 23/06/1995]',0.056,-0.021,65.500,43.000,66.200,0.000,-0.510
'[13:02:53.810 23/06/1995]',0.067,-0.021,65.500,43.000,66.200,0.000,-0.510
'[13:02:53.812 23/06/1995]',0.056,-0.032,65.500,43.000,66.200,0.000,-0.510
'[13:02:53.814 23/06/1995]',0.056,-0.032,65.500,43.000,66.200,0.000,-0.510
'[13:02:53.816 23/06/1995]',0.056,-0.032,63.650,45.350,64.950,0.000,-0.512
'[13:02:53.818 23/06/1995]',0.056,-0.032,63.650,45.350,64.950,0.000,-0.512
'[13:02:53.820 23/06/1995]',0.056,-0.021,63.650,45.350,64.950,0.000,-0.512
'[13:02:53.822 23/06/1995]',0.056,-0.021,63.650,45.350,64.950,0.000,-0.512
'[13:02:53.824 23/06/1995]',0.056,-0.021,61.950,47.325,64.250,0.000,-0.515
'[13:02:53.826 23/06/1995]',0.056,-0.032,61.950,47.325,64.250,0.000,-0.515
'[13:02:53.828 23/06/1995]',0.056,-0.032,61.950,47.325,64.250,0.000,-0.515
'[13:02:53.830 23/06/1995]',0.056,-0.032,61.950,47.325,64.250,0.000,-0.515
'[13:02:53.832 23/06/1995]',0.067,-0.021,60.450,49.025,64.300,0.000,-0.518
'[13:02:53.834 23/06/1995]',0.067,-0.021,60.450,49.025,64.300,0.000,-0.518
'[13:02:53.836 23/06/1995]',0.067,-0.021,60.450,49.025,64.300,0.000,-0.518
'[13:02:53.838 23/06/1995]',0.067,-0.021,60.450,49.025,64.300,0.000,-0.518
'[13:02:53.840 23/06/1995]',0.067,-0.021,59.350,50.375,65.200,0.000,-0.521
'[13:02:53.842 23/06/1995]',0.067,-0.021,59.350,50.375,65.200,0.000,-0.521
'[13:02:53.844 23/06/1995]',0.067,-0.010,59.350,50.375,65.200,0.000,-0.521
'[13:02:53.846 23/06/1995]',0.056,-0.021,59.350,50.375,65.200,0.000,-0.521
'[13:02:53.848 23/06/1995]',0.056,-0.032,58.850,51.325,66.950,0.000,-0.524
'[13:02:53.850 23/06/1995]',0.067,-0.032,58.850,51.325,66.950,0.000,-0.524
'[13:02:53.852 23/06/1995]',0.067,-0.021,58.850,51.325,66.950,0.000,-0.524
'[13:02:53.854 23/06/1995]',0.067,-0.021,58.850,51.325,66.950,0.000,-0.524
'[13:02:53.856 23/06/1995]',0.056,-0.021,59.100,51.775,69.450,0.000,-0.527
'[13:02:53.858 23/06/1995]',0.056,-0.021,59.100,51.775,69.450,0.000,-0.527
'[13:02:53.860 23/06/1995]',0.056,-0.032,59.100,51.775,69.450,0.000,-0.527
'[13:02:53.862 23/06/1995]',0.056,-0.032,59.100,51.775,69.450,0.000,-0.527
'[13:02:53.864 23/06/1995]',0.056,-0.032,60.150,51.850,72.500,0.000,-0.530
'[13:02:53.866 23/06/1995]',0.056,-0.032,60.150,51.850,72.500,0.000,-0.530
'[13:02:53.868 23/06/1995]',0.056,-0.032,60.150,51.850,72.500,0.000,-0.530
'[13:02:53.870 23/06/1995]',0.056,-0.032,60.150,51.850,72.500,0.000,-0.530
'[13:02:53.872 23/06/1995]',0.056,-0.021,61.750,51.675,75.950,0.000,-0.533
'[13:02:53.874 23/06/1995]',0.056,-0.021,61.750,51.675,75.950,0.000,-0.533
'[13:02:53.876 23/06/1995]',0.056,-0.032,61.750,51.675,75.950,0.000,-0.533
'[13:02:53.878 23/06/1995]',0.056,-0.032,61.750,51.675,75.950,0.000,-0.533
'[13:02:53.880 23/06/1995]',0.056,-0.032,63.600,51.375,79.550,0.000,-0.535
'[13:02:53.882 23/06/1995]',0.056,-0.032,63.600,51.375,79.550,0.000,-0.535
'[13:02:53.884 23/06/1995]',0.067,-0.021,63.600,51.375,79.550,0.000,-0.535
'[13:02:53.886 23/06/1995]',0.077,-0.021,63.600,51.375,79.550,0.000,-0.535
'[13:02:53.888 23/06/1995]',0.067,-0.021,66.000,50.975,83.050,0.000,-0.536
'[13:02:53.890 23/06/1995]',0.067,-0.021,66.000,50.975,83.050,0.000,-0.536
'[13:02:53.892 23/06/1995]',0.067,-0.032,66.000,50.975,83.050,0.000,-0.536
'[13:02:53.894 23/06/1995]',0.067,-0.043,66.000,50.975,83.050,0.000,-0.536
'[13:02:53.896 23/06/1995]',0.067,-0.043,68.950,50.425,86.350,0.000,-0.538
'[13:02:53.898 23/06/1995]',0.067,-0.043,68.950,50.425,86.350,0.000,-0.538
'[13:02:53.900 23/06/1995]',0.077,-0.043,68.950,50.425,86.350,0.000,-0.538
'[13:02:53.902 23/06/1995]',0.067,-0.032,68.950,50.425,86.350,0.000,-0.538
'[13:02:53.904 23/06/1995]',0.067,-0.021,72.200,49.800,89.100,0.000,-0.539
'[13:02:53.906 23/06/1995]',0.067,-0.021,72.200,49.800,89.100,0.000,-0.539
'[13:02:53.908 23/06/1995]',0.056,-0.043,72.200,49.800,89.100,0.000,-0.539
'[13:02:53.910 23/06/1995]',0.056,-0.054,72.200,49.800,89.100,0.000,-0.539
'[13:02:53.912 23/06/1995]',0.056,-0.054,75.150,49.100,91.150,0.000,-0.540
'[13:02:53.914 23/06/1995]',0.056,-0.054,75.150,49.100,91.150,0.000,-0.540
'[13:02:53.916 23/06/1995]',0.067,-0.054,75.150,49.100,91.150,0.000,-0.540
'[13:02:53.918 23/06/1995]',0.077,-0.043,75.150,49.100,91.150,0.000,-0.540
'[13:02:53.920 23/06/1995]',0.077,-0.032,77.400,48.325,92.500,0.000,-0.540
'[13:02:53.922 23/06/1995]',0.067,-0.032,77.400,48.325,92.500,0.000,-0.540
'[13:02:53.924 23/06/1995]',0.077,-0.032,77.400,48.325,92.500,0.000,-0.540
'[13:02:53.926 23/06/1995]',0.077,-0.043,77.400,48.325,92.500,0.000,-0.540
'[13:02:53.928 23/06/1995]',0.077,-0.054,79.100,47.500,93.100,0.000,-0.541
'[13:02:53.930 23/06/1995]',0.077,-0.054,79.100,47.500,93.100,0.000,-0.541
'[13:02:53.932 23/06/1995]',0.077,-0.065,79.100,47.500,93.100,0.000,-0.541
'[13:02:53.934 23/06/1995]',0.077,-0.054,79.100,47.500,93.100,0.000,-0.541
'[13:02:53.936 23/06/1995]',0.077,-0.054,80.600,46.750,92.950,0.000,-0.541
'[13:02:53.938 23/06/1995]',0.088,-0.054,80.600,46.750,92.950,0.000,-0.541
'[13:02:53.940 23/06/1995]',0.077,-0.065,80.600,46.750,92.950,0.000,-0.541
'[13:02:53.942 23/06/1995]',0.077,-0.065,80.600,46.750,92.950,0.000,-0.541
'[13:02:53.944 23/06/1995]',0.077,-0.065,82.000,46.150,92.400,0.000,-0.541
'[13:02:53.946 23/06/1995]',0.077,-0.076,82.000,46.150,92.400,0.000,-0.541
'[13:02:53.948 23/06/1995]',0.077,-0.076,82.000,46.150,92.400,0.000,-0.541
'[13:02:53.950 23/06/1995]',0.077,-0.076,82.000,46.150,92.400,0.000,-0.541
'[13:02:53.952 23/06/1995]',0.077,-0.087,83.250,45.750,91.450,0.000,-0.540
'[13:02:53.954 23/06/1995]',0.088,-0.087,83.250,45.750,91.450,0.000,-0.540
'[13:02:53.956 23/06/1995]',0.088,-0.087,83.250,45.750,91.450,0.000,-0.540
'[13:02:53.958 23/06/1995]',0.077,-0.098,83.250,45.750,91.450,0.000,-0.540
'[13:02:53.960 23/06/1995]',0.088,-0.109,84.400,45.450,90.500,0.000,-0.540
'[13:02:53.962 23/06/1995]',0.077,-0.109,84.400,45.450,90.500,0.000,-0.540
'[13:02:53.964 23/06/1995]',0.077,-0.109,84.400,45.450,90.500,0.000,-0.540
'[13:02:53.966 23/06/1995]',0.077,-0.109,84.400,45.450,90.500,0.000,-0.540
'[13:02:53.968 23/06/1995]',0.077,-0.120,85.600,45.100,89.750,0.000,-0.539
'[13:02:53.970 23/06/1995]',0.088,-0.120,85.600,45.100,89.750,0.000,-0.539
'[13:02:53.972 23/06/1995]',0.088,-0.120,85.600,45.100,89.750,0.000,-0.539
'[13:02:53.974 23/06/1995]',0.088,-0.120,85.600,45.100,89.750,0.000,-0.539
'[13:02:53.976 23/06/1995]',0.088,-0.131,86.750,44.625,89.050,0.000,-0.539
'[13:02:53.978 23/06/1995]',0.077,-0.142,86.750,44.625,89.050,0.000,-0.539
'[13:02:53.980 23/06/1995]',0.088,-0.153,86.750,44.625,89.050,0.000,-0.539
'[13:02:53.982 23/06/1995]',0.088,-0.153,86.750,44.625,89.050,0.000,-0.539
'[13:02:53.984 23/06/1995]',0.088,-0.153,87.900,44.050,88.400,0.000,-0.538
'[13:02:53.986 23/06/1995]',0.088,-0.153,87.900,44.050,88.400,0.000,-0.538
'[13:02:53.988 23/06/1995]',0.100,-0.153,87.900,44.050,88.400,0.000,-0.538
'[13:02:53.990 23/06/1995]',0.100,-0.153,87.900,44.050,88.400,0.000,-0.538
'[13:02:53.992 23/06/1995]',0.088,-0.164,88.750,43.175,87.650,0.000,-0.538
'[13:02:53.994 23/06/1995]',0.077,-0.164,88.750,43.175,87.650,0.000,-0.538
'[13:02:53.996 23/06/1995]',0.077,-0.174,88.750,43.175,87.650,0.000,-0.538
'[13:02:53.998 23/06/1995]',0.077,-0.185,88.750,43.175,87.650,0.000,-0.538
'[13:02:54.000 23/06/1995]',0.077,-0.185,89.200,41.875,86.800,0.000,-0.537
'[13:02:54.002 23/06/1995]',0.088,-0.174,89.200,41.875,86.800,0.000,-0.537
'[13:02:54.004 23/06/1995]',0.077,-0.164,89.200,41.875,86.800,0.000,-0.537
'[13:02:54.006 23/06/1995]',0.088,-0.164,89.200,41.875,86.800,0.000,-0.537
'[13:02:54.008 23/06/1995]',0.077,-0.174,89.250,40.125,85.950,0.000,-0.537
'[13:02:54.010 23/06/1995]',0.077,-0.185,89.250,40.125,85.950,0.000,-0.537
'[13:02:54.012 23/06/1995]',0.077,-0.197,89.250,40.125,85.950,0.000,-0.537
'[13:02:54.014 23/06/1995]',0.077,-0.197,89.250,40.125,85.950,0.000,-0.537
'[13:02:54.016 23/06/1995]',0.077,-0.185,88.850,38.200,84.950,0.000,-0.536
'[13:02:54.018 23/06/1995]',0.077,-0.185,88.850,38.200,84.950,0.000,-0.536
'[13:02:54.020 23/06/1995]',0.077,-0.185,88.850,38.200,84.950,0.000,-0.536
'[13:02:54.022 23/06/1995]',0.077,-0.185,88.850,38.200,84.950,0.000,-0.536
'[13:02:54.024 23/06/1995]',0.077,-0.185,88.050,36.775,84.000,0.000,-0.536
'[13:02:54.026 23/06/1995]',0.077,-0.197,88.050,36.775,84.000,0.000,-0.536
'[13:02:54.028 23/06/1995]',0.077,-0.197,88.050,36.775,84.000,0.000,-0.536
'[13:02:54.030 23/06/1995]',0.077,-0.197,88.050,36.775,84.000,0.000,-0.536
'[13:02:54.032 23/06/1995]',0.077,-0.197,86.950,36.325,83.100,0.000,-0.535
'[13:02:54.034 23/06/1995]',0.088,-0.185,86.950,36.325,83.100,0.000,-0.535
'[13:02:54.036 23/06/1995]',0.088,-0.197,86.950,36.325,83.100,0.000,-0.535
'[13:02:54.038 23/06/1995]',0.088,-0.185,86.950,36.325,83.100,0.000,-0.535
'[13:02:54.040 23/06/1995]',0.077,-0.185,85.500,36.725,82.300,0.000,-0.534
'[13:02:54.042 23/06/1995]',0.077,-0.185,85.500,36.725,82.300,0.000,-0.534
'[13:02:54.044 23/06/1995]',0.077,-0.185,85.500,36.725,82.300,0.000,-0.534
'[13:02:54.046 23/06/1995]',0.077,-0.185,85.500,36.725,82.300,0.000,-0.534
'[13:02:54.048 23/06/1995]',0.077,-0.185,84.050,37.425,81.600,0.000,-0.533
'[13:02:54.050 23/06/1995]',0.077,-0.174,84.050,37.425,81.600,0.000,-0.533
'[13:02:54.052 23/06/1995]',0.077,-0.174,84.050,37.425,81.600,0.000,-0.533
'[13:02:54.054 23/06/1995]',0.077,-0.164,84.050,37.425,81.600,0.000,-0.533
'[13:02:54.056 23/06/1995]',0.077,-0.153,82.650,38.200,81.000,0.000,-0.532
'[13:02:54.058 23/06/1995]',0.077,-0.164,82.650,38.200,81.000,0.000,-0.532
'[13:02:54.060 23/06/1995]',0.088,-0.153,82.650,38.200,81.000,0.000,-0.532
'[13:02:54.062 23/06/1995]',0.077,-0.153,82.650,38.200,81.000,0.000,-0.532
'[13:02:54.064 23/06/1995]',0.077,-0.153,81.250,38.825,80.650,0.000,-0.531
'[13:02:54.066 23/06/1995]',0.077,-0.142,81.250,38.825,80.650,0.000,-0.531
'[13:02:54.068 23/06/1995]',0.077,-0.131,81.250,38.825,80.650,0.000,-0.531
'[13:02:54.070 23/06/1995]',0.077,-0.131,81.250,38.825,80.650,0.000,-0.531
'[13:02:54.072 23/06/1995]',0.077,-0.131,79.950,39.250,80.400,0.000,-0.530
'[13:02:54.074 23/06/1995]',0.067,-0.120,79.950,39.250,80.400,0.000,-0.530
'[13:02:54.076 23/06/1995]',0.056,-0.120,79.950,39.250,80.400,0.000,-0.530
'[13:02:54.078 23/06/1995]',0.056,-0.120,79.950,39.250,80.400,0.000,-0.530
'[13:02:54.080 23/06/1995]',0.056,-0.120,78.750,39.550,80.400,0.000,-0.529
'[13:02:54.082 23/06/1995]',0.044,-0.109,78.750,39.550,80.400,0.000,-0.529
'[13:02:54.084 23/06/1995]',0.056,-0.098,78.750,39.550,80.400,0.000,-0.529
'[13:02:54.086 23/06/1995]',0.056,-0.098,78.750,39.550,80.400,0.000,-0.529
'[13:02:54.088 23/06/1995]',0.056,-0.087,77.650,39.600,80.700,0.000,-0.528
'[13:02:54.090 23/06/1995]',0.044,-0.076,77.650,39.600,80.700,0.000,-0.528
'[13:02:54.092 23/06/1995]',0.034,-0.076,77.650,39.600,80.700,0.000,-0.528
'[13:02:54.094 23/06/1995]',0.022,-0.076,77.650,39.600,80.700,0.000,-0.528
'[13:02:54.096 23/06/1995]',0.022,-0.076,76.900,39.425,81.300,0.000,-0.526
'[13:02:54.098 23/06/1995]',0.022,-0.076,76.900,39.425,81.300,0.000,-0.526
'[13:02:54.100 23/06/1995]',0.022,-0.065,76.900,39.425,81.300,0.000,-0.526
'[13:02:54.102 23/06/1995]',0.034,-0.054,76.900,39.425,81.300,0.000,-0.526
'[13:02:54.104 23/06/1995]',0.034,-0.043,76.600,39.075,82.300,0.000,-0.525
'[13:02:54.106 23/06/1995]',0.022,-0.043,76.600,39.075,82.300,0.000,-0.525
'[13:02:54.108 23/06/1995]',0.022,-0.032,76.600,39.075,82.300,0.000,-0.525
'[13:02:54.110 23/06/1995]',0.022,-0.032,76.600,39.075,82.300,0.000,-0.525
'[13:02:54.112 23/06/1995]',0.011,-0.032,76.750,38.600,83.650,0.000,-0.523
'[13:02:54.114 23/06/1995]',0.011,-0.032,76.750,38.600,83.650,0.000,-0.523
'[13:02:54.116 23/06/1995]',0.011,-0.021,76.750,38.600,83.650,0.000,-0.523
'[13:02:54.118 23/06/1995]',0.011,-0.021,76.750,38.600,83.650,0.000,-0.523
'[13:02:54.120 23/06/1995]',0.011,-0.010,77.400,38.075,85.400,0.000,-0.521
'[13:02:54.122 23/06/1995]',0.011,-0.010,77.400,38.075,85.400,0.000,-0.521
'[13:02:54.124 23/06/1995]',0.001,0.001,77.400,38.075,85.400,0.000,-0.521
'[13:02:54.126 23/06/1995]',0.001,0.001,77.400,38.075,85.400,0.000,-0.521
'[13:02:54.128 23/06/1995]',0.001,0.001,78.500,37.600,87.700,0.000,-0.520
'[13:02:54.130 23/06/1995]',0.001,0.001,78.500,37.600,87.700,0.000,-0.520
'[13:02:54.132 23/06/1995]',0.001,0.001,78.500,37.600,87.700,0.000,-0.520
'[13:02:54.134 23/06/1995]',0.001,0.011,78.500,37.600,87.700,0.000,-0.520
'[13:02:54.136 23/06/1995]',0.001,0.011,80.050,37.200,90.350,0.000,-0.519
'[13:02:54.138 23/06/1995]',0.001,0.011,80.050,37.200,90.350,0.000,-0.519
'[13:02:54.140 23/06/1995]',0.001,0.022,80.050,37.200,90.350,0.000,-0.519
'[13:02:54.142 23/06/1995]',0.001,0.011,80.050,37.200,90.350,0.000,-0.519
'[13:02:54.144 23/06/1995]',0.001,0.011,82.000,36.850,93.300,0.000,-0.519
'[13:02:54.146 23/06/1995]',-0.010,0.011,82.000,36.850,93.300,0.000,-0.519
'[13:02:54.148 23/06/1995]',-0.010,0.011,82.000,36.850,93.300,0.000,-0.519
'[13:02:54.150 23/06/1995]',-0.010,0.011,82.000,36.850,93.300,0.000,-0.519
'[13:02:54.152 23/06/1995]',-0.010,0.022,84.100,36.550,96.600,0.000,-0.520
'[13:02:54.154 23/06/1995]',-0.021,0.034,84.100,36.550,96.600,0.000,-0.520
'[13:02:54.156 23/06/1995]',-0.021,0.034,84.100,36.550,96.600,0.000,-0.520
'[13:02:54.158 23/06/1995]',-0.021,0.034,84.100,36.550,96.600,0.000,-0.520
'[13:02:54.160 23/06/1995]',-0.021,0.044,86.250,36.375,100.050,0.000,-0.520
'[13:02:54.162 23/06/1995]',-0.021,0.044,86.250,36.375,100.050,0.000,-0.520
'[13:02:54.164 23/06/1995]',-0.021,0.034,86.250,36.375,100.050,0.000,-0.520
'[13:02:54.166 23/06/1995]',-0.021,0.034,86.250,36.375,100.050,0.000,-0.520
'[13:02:54.168 23/06/1995]',-0.021,0.034,88.200,36.250,103.650,0.000,-0.521
'[13:02:54.170 23/06/1995]',-0.021,0.044,88.200,36.250,103.650,0.000,-0.521
'[13:02:54.172 23/06/1995]',-0.032,0.056,88.200,36.250,103.650,0.000,-0.521
'[13:02:54.174 23/06/1995]',-0.032,0.056,88.200,36.250,103.650,0.000,-0.521
'[13:02:54.176 23/06/1995]',-0.032,0.044,90.050,36.075,107.150,0.000,-0.522
'[13:02:54.178 23/06/1995]',-0.043,0.034,90.050,36.075,107.150,0.000,-0.522
'[13:02:54.180 23/06/1995]',-0.032,0.034,90.050,36.075,107.150,0.000,-0.522
'[13:02:54.182 23/06/1995]',-0.032,0.044,90.050,36.075,107.150,0.000,-0.522
'[13:02:54.184 23/06/1995]',-0.032,0.056,91.600,35.975,110.500,0.000,-0.523
'[13:02:54.186 23/06/1995]',-0.032,0.056,91.600,35.975,110.500,0.000,-0.523
'[13:02:54.188 23/06/1995]',-0.021,0.067,91.600,35.975,110.500,0.000,-0.523
'[13:02:54.190 23/06/1995]',-0.021,0.067,91.600,35.975,110.500,0.000,-0.523
'[13:02:54.192 23/06/1995]',-0.032,0.056,92.950,35.800,113.450,0.000,-0.524
'[13:02:54.194 23/06/1995]',-0.032,0.056,92.950,35.800,113.450,0.000,-0.524
'[13:02:54.196 23/06/1995]',-0.032,0.044,92.950,35.800,113.450,0.000,-0.524
'[13:02:54.198 23/06/1995]',-0.043,0.056,92.950,35.800,113.450,0.000,-0.524
'[13:02:54.200 23/06/1995]',-0.032,0.056,94.350,35.675,115.950,0.000,-0.525
'[13:02:54.202 23/06/1995]',-0.032,0.056,94.350,35.675,115.950,0.000,-0.525
'[13:02:54.204 23/06/1995]',-0.032,0.067,94.350,35.675,115.950,0.000,-0.525
'[13:02:54.206 23/06/1995]',-0.032,0.056,94.350,35.675,115.950,0.000,-0.525
'[13:02:54.208 23/06/1995]',-0.043,0.044,95.800,35.500,117.850,0.000,-0.526
'[13:02:54.210 23/06/1995]',-0.043,0.044,95.800,35.500,117.850,0.000,-0.526
'[13:02:54.212 23/06/1995]',-0.043,0.034,95.800,35.500,117.850,0.000,-0.526
'[13:02:54.214 23/06/1995]',-0.043,0.044,95.800,35.500,117.850,0.000,-0.526
'[13:02:54.216 23/06/1995]',-0.043,0.044,97.200,35.325,119.100,0.000,-0.528
'[13:02:54.218 23/06/1995]',-0.021,0.056,97.200,35.325,119.100,0.000,-0.528
'[13:02:54.220 23/06/1995]',-0.032,0.067,97.200,35.325,119.100,0.000,-0.528
'[13:02:54.222 23/06/1995]',-0.032,0.067,97.200,35.325,119.100,0.000,-0.528
'[13:02:54.224 23/06/1995]',-0.032,0.067,98.550,35.075,119.600,0.000,-0.529
'[13:02:54.226 23/06/1995]',-0.043,0.056,98.550,35.075,119.600,0.000,-0.529
'[13:02:54.228 23/06/1995]',-0.043,0.044,98.550,35.075,119.600,0.000,-0.529
'[13:02:54.230 23/06/1995]',-0.043,0.044,98.550,35.075,119.600,0.000,-0.529
'[13:02:54.232 23/06/1995]',-0.043,0.056,99.800,34.900,119.450,0.000,-0.531
'[13:02:54.234 23/06/1995]',-0.032,0.056,99.800,34.900,119.450,0.000,-0.531
'[13:02:54.236 23/06/1995]',-0.032,0.056,99.800,34.900,119.450,0.000,-0.531
'[13:02:54.238 23/06/1995]',-0.032,0.067,99.800,34.900,119.450,0.000,-0.531
'[13:02:54.240 23/06/1995]',-0.043,0.067,100.850,34.800,118.550,0.000,-0.533
'[13:02:54.242 23/06/1995]',-0.043,0.056,100.850,34.800,118.550,0.000,-0.533
'[13:02:54.244 23/06/1995]',-0.043,0.044,100.850,34.800,118.550,0.000,-0.533
'[13:02:54.246 23/06/1995]',-0.043,0.044,100.850,34.800,118.550,0.000,-0.533
'[13:02:54.248 23/06/1995]',-0.054,0.044,101.650,34.675,117.050,0.000,-0.535
'[13:02:54.250 23/06/1995]',-0.054,0.044,101.650,34.675,117.050,0.000,-0.535
'[13:02:54.252 23/06/1995]',-0.032,0.044,101.650,34.675,117.050,0.000,-0.535
'[13:02:54.254 23/06/1995]',-0.032,0.056,101.650,34.675,117.050,0.000,-0.535
'[13:02:54.256 23/06/1995]',-0.032,0.056,101.850,34.550,114.950,0.000,-0.536
'[13:02:54.258 23/06/1995]',-0.032,0.044,101.850,34.550,114.950,0.000,-0.536
'[13:02:54.260 23/06/1995]',-0.032,0.034,101.850,34.550,114.950,0.000,-0.536
'[13:02:54.262 23/06/1995]',-0.043,0.034,101.850,34.550,114.950,0.000,-0.536
'[13:02:54.264 23/06/1995]',-0.032,0.034,101.500,34.450,112.300,0.000,-0.536
'[13:02:54.266 23/06/1995]',-0.032,0.044,101.500,34.450,112.300,0.000,-0.536
'[13:02:54.268 23/06/1995]',-0.043,0.056,101.500,34.450,112.300,0.000,-0.536
'[13:02:54.270 23/06/1995]',-0.032,0.056,101.500,34.450,112.300,0.000,-0.536
'[13:02:54.272 23/06/1995]',-0.032,0.056,100.850,34.275,109.200,0.000,-0.536
'[13:02:54.274 23/06/1995]',-0.032,0.044,100.850,34.275,109.200,0.000,-0.536
'[13:02:54.276 23/06/1995]',-0.032,0.044,100.850,34.275,109.200,0.000,-0.536
'[13:02:54.278 23/06/1995]',-0.043,0.044,100.850,34.275,109.200,0.000,-0.536
'[13:02:54.280 23/06/1995]',-0.043,0.034,100.300,34.025,105.900,0.000,-0.535
'[13:02:54.282 23/06/1995]',-0.054,0.034,100.300,34.025,105.900,0.000,-0.535
'[13:02:54.284 23/06/1995]',-0.043,0.034,100.300,34.025,105.900,0.000,-0.535
'[13:02:54.286 23/06/1995]',-0.032,0.044,100.300,34.025,105.900,0.000,-0.535
'[13:02:54.288 23/06/1995]',-0.021,0.056,99.750,33.850,102.500,0.000,-0.535
'[13:02:54.290 23/06/1995]',-0.021,0.056,99.750,33.850,102.500,0.000,-0.535
'[13:02:54.292 23/06/1995]',-0.021,0.044,99.750,33.850,102.500,0.000,-0.535
'[13:02:54.294 23/06/1995]',-0.021,0.044,99.750,33.850,102.500,0.000,-0.535
'[13:02:54.296 23/06/1995]',-0.032,0.034,99.300,33.625,99.100,0.000,-0.536
'[13:02:54.298 23/06/1995]',-0.043,0.022,99.300,33.625,99.100,0.000,-0.536
'[13:02:54.300 23/06/1995]',-0.032,0.034,99.300,33.625,99.100,0.000,-0.536
'[13:02:54.302 23/06/1995]',-0.032,0.044,99.300,33.625,99.100,0.000,-0.536
'[13:02:54.304 23/06/1995]',-0.032,0.044,98.700,33.375,95.850,0.000,-0.537
'[13:02:54.306 23/06/1995]',-0.043,0.044,98.700,33.375,95.850,0.000,-0.537
'[13:02:54.308 23/06/1995]',-0.032,0.044,98.700,33.375,95.850,0.000,-0.537
'[13:02:54.310 23/06/1995]',-0.043,0.034,98.700,33.375,95.850,0.000,-0.537
'[13:02:54.312 23/06/1995]',-0.032,0.034,98.100,33.200,92.750,0.000,-0.538
'[13:02:54.314 23/06/1995]',-0.032,0.022,98.100,33.200,92.750,0.000,-0.538
'[13:02:54.316 23/06/1995]',-0.021,0.034,98.100,33.200,92.750,0.000,-0.538
'[13:02:54.318 23/06/1995]',-0.021,0.034,98.100,33.200,92.750,0.000,-0.538
'[13:02:54.320 23/06/1995]',-0.021,0.044,97.400,33.100,89.850,0.000,-0.538
'[13:02:54.322 23/06/1995]',-0.021,0.044,97.400,33.100,89.850,0.000,-0.538
'[13:02:54.324 23/06/1995]',-0.032,0.044,97.400,33.100,89.850,0.000,-0.538
'[13:02:54.326 23/06/1995]',-0.032,0.044,97.400,33.100,89.850,0.000,-0.538
'[13:02:54.328 23/06/1995]',-0.032,0.044,96.700,32.975,87.300,0.000,-0.537
'[13:02:54.330 23/06/1995]',-0.021,0.034,96.700,32.975,87.300,0.000,-0.537
'[13:02:54.332 23/06/1995]',-0.021,0.034,96.700,32.975,87.300,0.000,-0.537
'[13:02:54.334 23/06/1995]',-0.021,0.034,96.700,32.975,87.300,0.000,-0.537
'[13:02:54.336 23/06/1995]',-0.021,0.034,95.950,32.850,85.100,0.000,-0.536
'[13:02:54.338 23/06/1995]',-0.021,0.044,95.950,32.850,85.100,0.000,-0.536
'[13:02:54.340 23/06/1995]',-0.021,0.044,95.950,32.850,85.100,0.000,-0.536
'[13:02:54.342 23/06/1995]',-0.032,0.044,95.950,32.850,85.100,0.000,-0.536
'[13:02:54.344 23/06/1995]',-0.032,0.034,95.150,32.750,83.300,0.000,-0.535
'[13:02:54.346 23/06/1995]',-0.043,0.022,95.150,32.750,83.300,0.000,-0.535
'[13:02:54.348 23/06/1995]',-0.043,0.022,95.150,32.750,83.300,0.000,-0.535
'[13:02:54.350 23/06/1995]',-0.032,0.034,95.150,32.750,83.300,0.000,-0.535
'[13:02:54.352 23/06/1995]',-0.021,0.034,94.300,32.625,81.850,0.000,-0.534
'[13:02:54.354 23/06/1995]',-0.032,0.044,94.300,32.625,81.850,0.000,-0.534
'[13:02:54.356 23/06/1995]',-0.021,0.044,94.300,32.625,81.850,0.000,-0.534
'[13:02:54.358 23/06/1995]',-0.021,0.034,94.300,32.625,81.850,0.000,-0.534
'[13:02:54.360 23/06/1995]',-0.032,0.034,93.350,32.450,80.700,0.000,-0.533
'[13:02:54.362 23/06/1995]',-0.043,0.022,93.350,32.450,80.700,0.000,-0.533
'[13:02:54.364 23/06/1995]',-0.032,0.022,93.350,32.450,80.700,0.000,-0.533
'[13:02:54.366 23/06/1995]',-0.021,0.034,93.350,32.450,80.700,0.000,-0.533
'[13:02:54.368 23/06/1995]',-0.021,0.034,92.200,32.275,79.950,0.000,-0.532
'[13:02:54.370 23/06/1995]',-0.021,0.044,92.200,32.275,79.950,0.000,-0.532
'[13:02:54.372 23/06/1995]',-0.021,0.044,92.200,32.275,79.950,0.000,-0.532
'[13:02:54.374 23/06/1995]',-0.021,0.034,92.200,32.275,79.950,0.000,-0.532
'[13:02:54.376 23/06/1995]',-0.032,0.022,90.900,32.100,79.500,0.000,-0.531
'[13:02:54.378 23/06/1995]',-0.032,0.022,90.900,32.100,79.500,0.000,-0.531
'[13:02:54.380 23/06/1995]',-0.032,0.022,90.900,32.100,79.500,0.000,-0.531
'[13:02:54.382 23/06/1995]',-0.032,0.034,90.900,32.100,79.500,0.000,-0.531
'[13:02:54.384 23/06/1995]',-0.032,0.034,89.400,31.875,79.350,0.000,-0.530
'[13:02:54.386 23/06/1995]',-0.021,0.034,89.400,31.875,79.350,0.000,-0.530
'[13:02:54.388 23/06/1995]',-0.021,0.034,89.400,31.875,79.350,0.000,-0.530
'[13:02:54.390 23/06/1995]',-0.021,0.034,89.400,31.875,79.350,0.000,-0.530
'[13:02:54.392 23/06/1995]',-0.021,0.034,87.800,31.675,79.500,0.000,-0.529
'[13:02:54.394 23/06/1995]',-0.021,0.034,87.800,31.675,79.500,0.000,-0.529
'[13:02:54.396 23/06/1995]',-0.032,0.034,87.800,31.675,79.500,0.000,-0.529
'[13:02:54.398 23/06/1995]',-0.032,0.022,87.800,31.675,79.500,0.000,-0.529
'[13:02:54.400 23/06/1995]',-0.021,0.022,86.150,31.575,79.850,0.000,-0.528
'[13:02:54.402 23/06/1995]',-0.021,0.022,86.150,31.575,79.850,0.000,-0.528
'[13:02:54.404 23/06/1995]',-0.032,0.022,86.150,31.575,79.850,0.000,-0.528
'[13:02:54.406 23/06/1995]',-0.021,0.034,86.150,31.575,79.850,0.000,-0.528
'[13:02:54.408 23/06/1995]',-0.021,0.034,84.700,31.450,80.350,0.000,-0.527
'[13:02:54.410 23/06/1995]',-0.021,0.034,84.700,31.450,80.350,0.000,-0.527
'[13:02:54.412 23/06/1995]',-0.021,0.022,84.700,31.450,80.350,0.000,-0.527
'[13:02:54.414 23/06/1995]',-0.021,0.022,84.700,31.450,80.350,0.000,-0.527
'[13:02:54.416 23/06/1995]',-0.021,0.022,83.450,31.325,81.050,0.000,-0.526
'[13:02:54.418 23/06/1995]',-0.021,0.034,83.450,31.325,81.050,0.000,-0.526
'[13:02:54.420 23/06/1995]',-0.021,0.044,83.450,31.325,81.050,0.000,-0.526
'[13:02:54.422 23/06/1995]',-0.021,0.044,83.450,31.325,81.050,0.000,-0.526
'[13:02:54.424 23/06/1995]',-0.021,0.034,82.400,31.225,81.700,0.000,-0.525
'[13:02:54.426 23/06/1995]',-0.021,0.034,82.400,31.225,81.700,0.000,-0.525
'[13:02:54.428 23/06/1995]',-0.032,0.034,82.400,31.225,81.700,0.000,-0.525
'[13:02:54.430 23/06/1995]',-0.032,0.034,82.400,31.225,81.700,0.000,-0.525
'[13:02:54.432 23/06/1995]',-0.043,0.034,81.650,31.050,82.400,0.000,-0.524
'[13:02:54.434 23/06/1995]',-0.032,0.044,81.650,31.050,82.400,0.000,-0.524
'[13:02:54.436 23/06/1995]',-0.021,0.056,81.650,31.050,82.400,0.000,-0.524
'[13:02:54.438 23/06/1995]',-0.021,0.056,81.650,31.050,82.400,0.000,-0.524
'[13:02:54.440 23/06/1995]',-0.032,0.056,81.150,30.925,83.000,0.000,-0.523
'[13:02:54.442 23/06/1995]',-0.021,0.056,81.150,30.925,83.000,0.000,-0.523
'[13:02:54.444 23/06/1995]',-0.032,0.044,81.150,30.925,83.000,0.000,-0.523
'[13:02:54.446 23/06/1995]',-0.043,0.044,81.150,30.925,83.000,0.000,-0.523
'[13:02:54.448 23/06/1995]',-0.043,0.044,80.850,30.750,83.600,0.000,-0.523
'[13:02:54.450 23/06/1995]',-0.043,0.056,80.850,30.750,83.600,0.000,-0.523
'[13:02:54.452 23/06/1995]',-0.043,0.056,80.850,30.750,83.600,0.000,-0.523
'[13:02:54.454 23/06/1995]',-0.043,0.067,80.850,30.750,83.600,0.000,-0.523
'[13:02:54.456 23/06/1995]',-0.054,0.077,80.700,30.575,84.050,0.000,-0.522
'[13:02:54.458 23/06/1995]',-0.054,0.077,80.700,30.575,84.050,0.000,-0.522
'[13:02:54.460 23/06/1995]',-0.054,0.088,80.700,30.575,84.050,0.000,-0.522
'[13:02:54.462 23/06/1995]',-0.054,0.088,80.700,30.575,84.050,0.000,-0.522
'[13:02:54.464 23/06/1995]',-0.065,0.088,80.700,30.400,84.450,0.000,-0.522
'[13:02:54.466 23/06/1995]',-0.076,0.088,80.700,30.400,84.450,0.000,-0.522
'[13:02:54.468 23/06/1995]',-0.076,0.088,80.700,30.400,84.450,0.000,-0.522
'[13:02:54.470 23/06/1995]',-0.076,0.088,80.700,30.400,84.450,0.000,-0.522
'[13:02:54.472 23/06/1995]',-0.076,0.077,80.700,30.275,84.750,0.000,-0.521
'[13:02:54.474 23/06/1995]',-0.076,0.077,80.700,30.275,84.750,0.000,-0.521
'[13:02:54.476 23/06/1995]',-0.076,0.067,80.700,30.275,84.750,0.000,-0.521
'[13:02:54.478 23/06/1995]',-0.076,0.056,80.700,30.275,84.750,0.000,-0.521
'[13:02:54.480 23/06/1995]',-0.076,0.056,80.850,30.225,84.950,0.000,-0.521
'[13:02:54.482 23/06/1995]',-0.076,0.056,80.850,30.225,84.950,0.000,-0.521
'[13:02:54.484 23/06/1995]',-0.065,0.056,80.850,30.225,84.950,0.000,-0.521
'[13:02:54.486 23/06/1995]',-0.065,0.067,80.850,30.225,84.950,0.000,-0.521
'[13:02:54.488 23/06/1995]',-0.065,0.067,80.900,30.225,85.000,0.000,-0.520
'[13:02:54.490 23/06/1995]',-0.065,0.067,80.900,30.225,85.000,0.000,-0.520
'[13:02:54.492 23/06/1995]',-0.065,0.067,80.900,30.225,85.000,0.000,-0.520
'[13:02:54.494 23/06/1995]',-0.054,0.056,80.900,30.225,85.000,0.000,-0.520
'[13:02:54.496 23/06/1995]',-0.054,0.044,80.900,30.275,84.900,0.000,-0.519
'[13:02:54.498 23/06/1995]',-0.043,0.034,80.900,30.275,84.900,0.000,-0.519
'[13:02:54.500 23/06/1995]',-0.032,0.044,80.900,30.275,84.900,0.000,-0.519
'[13:02:54.502 23/06/1995]',-0.032,0.034,80.900,30.275,84.900,0.000,-0.519
'[13:02:54.504 23/06/1995]',-0.021,0.044,80.900,30.350,84.700,0.000,-0.517
'[13:02:54.506 23/06/1995]',-0.021,0.034,80.900,30.350,84.700,0.000,-0.517
'[13:02:54.508 23/06/1995]',-0.021,0.022,80.900,30.350,84.700,0.000,-0.517
'[13:02:54.510 23/06/1995]',-0.021,0.011,80.900,30.350,84.700,0.000,-0.517
'[13:02:54.512 23/06/1995]',-0.021,0.011,80.850,30.350,84.450,0.000,-0.516
'[13:02:54.514 23/06/1995]',-0.021,0.001,80.850,30.350,84.450,0.000,-0.516
'[13:02:54.516 23/06/1995]',-0.021,0.001,80.850,30.350,84.450,0.000,-0.516
'[13:02:54.518 23/06/1995]',0.001,0.001,80.850,30.350,84.450,0.000,-0.516
'[13:02:54.520 23/06/1995]',0.001,0.001,80.700,30.400,84.100,0.000,-0.514
'[13:02:54.522 23/06/1995]',-0.010,0.011,80.700,30.400,84.100,0.000,-0.514
'[13:02:54.524 23/06/1995]',-0.010,0.011,80.700,30.400,84.100,0.000,-0.514
'[13:02:54.526 23/06/1995]',-0.010,0.001,80.700,30.400,84.100,0.000,-0.514
'[13:02:54.528 23/06/1995]',0.001,0.001,80.550,30.275,83.700,0.000,-0.512
'[13:02:54.530 23/06/1995]',-0.010,0.001,80.550,30.275,83.700,0.000,-0.512
'[13:02:54.532 23/06/1995]',-0.010,0.001,80.550,30.275,83.700,0.000,-0.512
'[13:02:54.534 23/06/1995]',-0.010,0.001,80.550,30.275,83.700,0.000,-0.512
'[13:02:54.536 23/06/1995]',-0.010,0.011,80.250,29.925,83.250,0.000,-0.510
'[13:02:54.538 23/06/1995]',-0.010,0.011,80.250,29.925,83.250,0.000,-0.510
'[13:02:54.540 23/06/1995]',-0.010,0.011,80.250,29.925,83.250,0.000,-0.510
'[13:02:54.542 23/06/1995]',-0.010,0.001,80.250,29.925,83.250,0.000,-0.510
'[13:02:54.544 23/06/1995]',-0.010,0.001,79.900,29.400,82.700,0.000,-0.508
'[13:02:54.546 23/06/1995]',0.001,0.001,79.900,29.400,82.700,0.000,-0.508
'[13:02:54.548 23/06/1995]',0.001,0.001,79.900,29.400,82.700,0.000,-0.508
'[13:02:54.550 23/06/1995]',0.001,0.001,79.900,29.400,82.700,0.000,-0.508
'[13:02:54.552 23/06/1995]',0.001,0.001,79.550,28.825,82.200,0.000,-0.506
'[13:02:54.554 23/06/1995]',0.001,0.011,79.550,28.825,82.200,0.000,-0.506
'[13:02:54.556 23/06/1995]',-0.010,0.001,79.550,28.825,82.200,0.000,-0.506
'[13:02:54.558 23/06/1995]',-0.021,0.001,79.550,28.825,82.200,0.000,-0.506
'[13:02:54.560 23/06/1995]',0.001,0.001,79.150,28.525,81.600,0.000,-0.504
'[13:02:54.562 23/06/1995]',0.001,0.001,79.150,28.525,81.600,0.000,-0.504
'[13:02:54.564 23/06/1995]',-0.010,0.001,79.150,28.525,81.600,0.000,-0.504
'[13:02:54.566 23/06/1995]',-0.010,0.001,79.150,28.525,81.600,0.000,-0.504
'[13:02:54.568 23/06/1995]',-0.010,0.001,78.750,28.525,81.050,0.000,-0.502
'[13:02:54.570 23/06/1995]',0.001,0.011,78.750,28.525,81.050,0.000,-0.502
'[13:02:54.572 23/06/1995]',0.001,0.011,78.750,28.525,81.050,0.000,-0.502
'[13:02:54.574 23/06/1995]',-0.010,0.011,78.750,28.525,81.050,0.000,-0.502
'[13:02:54.576 23/06/1995]',-0.010,0.011,78.300,28.700,80.600,0.000,-0.500
'[13:02:54.578 23/06/1995]',-0.010,0.001,78.300,28.700,80.600,0.000,-0.500
'[13:02:54.580 23/06/1995]',-0.010,0.001,78.300,28.700,80.600,0.000,-0.500
'[13:02:54.582 23/06/1995]',-0.010,0.001,78.300,28.700,80.600,0.000,-0.500
'[13:02:54.584 23/06/1995]',-0.010,0.001,77.850,28.825,80.150,0.000,-0.498
'[13:02:54.586 23/06/1995]',-0.010,0.001,77.850,28.825,80.150,0.000,-0.498
'[13:02:54.588 23/06/1995]',-0.010,0.001,77.850,28.825,80.150,0.000,-0.498
'[13:02:54.590 23/06/1995]',0.001,0.011,77.850,28.825,80.150,0.000,-0.498
'[13:02:54.592 23/06/1995]',-0.010,0.001,77.400,28.750,79.600,0.000,-0.496
'[13:02:54.594 23/06/1995]',0.001,0.001,77.400,28.750,79.600,0.000,-0.496
'[13:02:54.596 23/06/1995]',-0.010,0.001,77.400,28.750,79.600,0.000,-0.496
'[13:02:54.598 23/06/1995]',0.001,0.001,77.400,28.750,79.600,0.000,-0.496
'[13:02:54.600 23/06/1995]',0.001,0.001,76.950,28.575,79.150,0.000,-0.494
'[13:02:54.602 23/06/1995]',0.001,0.001,76.950,28.575,79.150,0.000,-0.494
'[13:02:54.604 23/06/1995]',0.001,0.011,76.950,28.575,79.150,0.000,-0.494
'[13:02:54.606 23/06/1995]',0.001,0.001,76.950,28.575,79.150,0.000,-0.494
'[13:02:54.608 23/06/1995]',0.001,0.001,76.600,28.475,78.650,0.000,-0.492
'[13:02:54.610 23/06/1995]',0.001,0.001,76.600,28.475,78.650,0.000,-0.492
'[13:02:54.612 23/06/1995]',0.001,0.001,76.600,28.475,78.650,0.000,-0.492
'[13:02:54.614 23/06/1995]',-0.010,0.001,76.600,28.475,78.650,0.000,-0.492
'[13:02:54.616 23/06/1995]',-0.021,0.022,76.250,28.225,78.200,0.000,-0.491
'[13:02:54.618 23/06/1995]',-0.032,0.034,76.250,28.225,78.200,0.000,-0.491
'[13:02:54.620 23/06/1995]',-0.054,0.056,76.250,28.225,78.200,0.000,-0.491
'[13:02:54.622 23/06/1995]',-0.076,0.077,76.250,28.225,78.200,0.000,-0.491
'[13:02:54.624 23/06/1995]',-0.120,0.121,75.900,28.000,77.800,0.000,-0.491
'[13:02:54.626 23/06/1995]',-0.164,0.154,75.900,28.000,77.800,0.000,-0.491
'[13:02:54.628 23/06/1995]',-0.230,0.198,75.900,28.000,77.800,0.000,-0.491
'[13:02:54.630 23/06/1995]',-0.295,0.264,75.900,28.000,77.800,0.000,-0.491
'[13:02:54.632 23/06/1995]',-0.350,0.319,75.550,27.650,77.500,0.000,-0.490
'[13:02:54.634 23/06/1995]',-0.405,0.385,75.550,27.650,77.500,0.000,-0.490
'[13:02:54.636 23/06/1995]',-0.460,0.462,75.550,27.650,77.500,0.000,-0.490
'[13:02:54.638 23/06/1995]',-0.514,0.516,75.550,27.650,77.500,0.000,-0.490
'[13:02:54.640 23/06/1995]',-0.558,0.571,75.250,27.400,77.200,0.000,-0.490
'[13:02:54.642 23/06/1995]',-0.592,0.604,75.250,27.400,77.200,0.000,-0.490
'[13:02:54.644 23/06/1995]',-0.624,0.636,75.250,27.400,77.200,0.000,-0.490
'[13:02:54.646 23/06/1995]',-0.635,0.647,75.250,27.400,77.200,0.000,-0.490
'[13:02:54.648 23/06/1995]',-0.614,0.604,75.000,27.175,76.950,0.000,-0.490
'[13:02:54.650 23/06/1995]',-0.558,0.538,75.000,27.175,76.950,0.000,-0.490
'[13:02:54.652 23/06/1995]',-0.503,0.440,75.000,27.175,76.950,0.000,-0.490
'[13:02:54.654 23/06/1995]',-0.416,0.341,75.000,27.175,76.950,0.000,-0.490
'[13:02:54.656 23/06/1995]',-0.339,0.231,74.750,27.000,76.750,0.000,-0.490
'[13:02:54.658 23/06/1995]',-0.263,0.143,74.750,27.000,76.750,0.000,-0.490
'[13:02:54.660 23/06/1995]',-0.185,0.056,74.750,27.000,76.750,0.000,-0.490
'[13:02:54.662 23/06/1995]',-0.131,0.001,74.750,27.000,76.750,0.000,-0.490
'[13:02:54.664 23/06/1995]',-0.076,-0.032,74.550,27.000,76.500,0.000,-0.490
'[13:02:54.666 23/06/1995]',-0.043,-0.054,74.550,27.000,76.500,0.000,-0.490
'[13:02:54.668 23/06/1995]',0.001,-0.054,74.550,27.000,76.500,0.000,-0.490
'[13:02:54.670 23/06/1995]',0.011,-0.054,74.550,27.000,76.500,0.000,-0.490
'[13:02:54.672 23/06/1995]',0.034,-0.054,74.400,27.300,76.300,0.000,-0.490
'[13:02:54.674 23/06/1995]',0.056,-0.054,74.400,27.300,76.300,0.000,-0.490
'[13:02:54.676 23/06/1995]',0.056,-0.054,74.400,27.300,76.300,0.000,-0.490
'[13:02:54.678 23/06/1995]',0.077,-0.065,74.400,27.300,76.300,0.000,-0.490
'[13:02:54.680 23/06/1995]',0.077,-0.065,74.200,27.825,76.150,0.000,-0.490
'[13:02:54.682 23/06/1995]',0.088,-0.043,74.200,27.825,76.150,0.000,-0.490
'[13:02:54.684 23/06/1995]',0.088,-0.043,74.200,27.825,76.150,0.000,-0.490
'[13:02:54.686 23/06/1995]',0.077,-0.043,74.200,27.825,76.150,0.000,-0.490
'[13:02:54.688 23/06/1995]',0.077,-0.032,74.000,28.400,75.950,0.000,-0.490
'[13:02:54.690 23/06/1995]',0.067,-0.032,74.000,28.400,75.950,0.000,-0.490
'[13:02:54.692 23/06/1995]',0.067,-0.021,74.000,28.400,75.950,0.000,-0.490
'[13:02:54.694 23/06/1995]',0.067,-0.021,74.000,28.400,75.950,0.000,-0.490
'[13:02:54.696 23/06/1995]',0.067,-0.032,73.750,28.875,75.750,0.000,-0.490
'[13:02:54.698 23/06/1995]',0.067,-0.032,73.750,28.875,75.750,0.000,-0.490
'[13:02:54.700 23/06/1995]',0.067,-0.032,73.750,28.875,75.750,0.000,-0.490
'[13:02:54.702 23/06/1995]',0.077,-0.043,73.750,28.875,75.750,0.000,-0.490
'[13:02:54.704 23/06/1995]',0.077,-0.032,73.500,29.100,75.450,0.000,-0.490
'[13:02:54.706 23/06/1995]',0.088,-0.032,73.500,29.100,75.450,0.000,-0.490
'[13:02:54.708 23/06/1995]',0.077,-0.032,73.500,29.100,75.450,0.000,-0.490
'[13:02:54.710 23/06/1995]',0.077,-0.032,73.500,29.100,75.450,0.000,-0.490
'[13:02:54.712 23/06/1995]',0.077,-0.043,73.300,29.225,75.150,0.000,-0.491
'[13:02:54.714 23/06/1995]',0.077,-0.043,73.300,29.225,75.150,0.000,-0.491
'[13:02:54.716 23/06/1995]',0.077,-0.032,73.300,29.225,75.150,0.000,-0.491
'[13:02:54.718 23/06/1995]',0.077,-0.032,73.300,29.225,75.150,0.000,-0.491
'[13:02:54.720 23/06/1995]',0.077,-0.021,73.050,29.450,74.800,0.000,-0.491
'[13:02:54.722 23/06/1995]',0.077,-0.010,73.050,29.450,74.800,0.000,-0.491
'[13:02:54.724 23/06/1995]',0.077,-0.010,73.050,29.450,74.800,0.000,-0.491
'[13:02:54.726 23/06/1995]',0.077,-0.021,73.050,29.450,74.800,0.000,-0.491
'[13:02:54.728 23/06/1995]',0.077,-0.032,72.800,30.000,74.200,0.000,-0.493
'[13:02:54.730 23/06/1995]',0.067,-0.043,72.800,30.000,74.200,0.000,-0.493
'[13:02:54.732 23/06/1995]',0.067,-0.043,72.800,30.000,74.200,0.000,-0.493
'[13:02:54.734 23/06/1995]',0.077,-0.032,72.800,30.000,74.200,0.000,-0.493
'[13:02:54.736 23/06/1995]',0.056,-0.021,72.450,31.100,73.450,0.000,-0.495
'[13:02:54.738 23/06/1995]',0.056,-0.021,72.450,31.100,73.450,0.000,-0.495
'[13:02:54.740 23/06/1995]',0.056,-0.021,72.450,31.100,73.450,0.000,-0.495
'[13:02:54.742 23/06/1995]',0.067,-0.032,72.450,31.100,73.450,0.000,-0.495
'[13:02:54.744 23/06/1995]',0.067,-0.032,71.950,32.750,72.400,0.000,-0.498
'[13:02:54.746 23/06/1995]',0.067,-0.032,71.950,32.750,72.400,0.000,-0.498
'[13:02:54.748 23/06/1995]',0.067,-0.032,71.950,32.750,72.400,0.000,-0.498
'[13:02:54.750 23/06/1995]',0.067,-0.032,71.950,32.750,72.400,0.000,-0.498
'[13:02:54.752 23/06/1995]',0.067,-0.032,71.050,34.900,71.250,0.000,-0.501
'[13:02:54.754 23/06/1995]',0.067,-0.021,71.050,34.900,71.250,0.000,-0.501
'[13:02:54.756 23/06/1995]',0.067,-0.010,71.050,34.900,71.250,0.000,-0.501
'[13:02:54.758 23/06/1995]',0.067,-0.021,71.050,34.900,71.250,0.000,-0.501
'[13:02:54.760 23/06/1995]',0.067,-0.021,69.750,37.425,69.800,0.000,-0.505
'[13:02:54.762 23/06/1995]',0.067,-0.032,69.750,37.425,69.800,0.000,-0.505
'[13:02:54.764 23/06/1995]',0.067,-0.032,69.750,37.425,69.800,0.000,-0.505
'[13:02:54.766 23/06/1995]',0.067,-0.032,69.750,37.425,69.800,0.000,-0.505
'[13:02:54.768 23/06/1995]',0.067,-0.021,68.050,40.075,68.350,0.000,-0.508
'[13:02:54.770 23/06/1995]',0.077,-0.021,68.050,40.075,68.350,0.000,-0.508
'[13:02:54.772 23/06/1995]',0.077,-0.010,68.050,40.075,68.350,0.000,-0.508
'[13:02:54.774 23/06/1995]',0.067,-0.021,68.050,40.075,68.350,0.000,-0.508
'[13:02:54.776 23/06/1995]',0.077,-0.021,66.200,42.650,66.900,0.000,-0.511
'[13:02:54.778 23/06/1995]',0.056,-0.032,66.200,42.650,66.900,0.000,-0.511
'[13:02:54.780 23/06/1995]',0.056,-0.043,66.200,42.650,66.900,0.000,-0.511
'[13:02:54.782 23/06/1995]',0.056,-0.043,66.200,42.650,66.900,0.000,-0.511
'[13:02:54.784 23/06/1995]',0.067,-0.043,64.250,44.925,65.650,0.000,-0.514
'[13:02:54.786 23/06/1995]',0.056,-0.032,64.250,44.925,65.650,0.000,-0.514
'[13:02:54.788 23/06/1995]',0.056,-0.032,64.250,44.925,65.650,0.000,-0.514
'[13:02:54.790 23/06/1995]',0.056,-0.021,64.250,44.925,65.650,0.000,-0.514
'[13:02:54.792 23/06/1995]',0.056,-0.032,62.450,46.875,64.900,0.000,-0.517
'[13:02:54.794 23/06/1995]',0.067,-0.032,62.450,46.875,64.900,0.000,-0.517
'[13:02:54.796 23/06/1995]',0.067,-0.043,62.450,46.875,64.900,0.000,-0.517
'[13:02:54.798 23/06/1995]',0.056,-0.043,62.450,46.875,64.900,0.000,-0.517
'[13:02:54.800 23/06/1995]',0.067,-0.032,60.850,48.550,64.700,0.000,-0.519
'[13:02:54.802 23/06/1995]',0.056,-0.032,60.850,48.550,64.700,0.000,-0.519
'[13:02:54.804 23/06/1995]',0.077,-0.021,60.850,48.550,64.700,0.000,-0.519
'[13:02:54.806 23/06/1995]',0.067,-0.021,60.850,48.550,64.700,0.000,-0.519
'[13:02:54.808 23/06/1995]',0.067,-0.021,59.500,50.025,65.300,0.000,-0.521
'[13:02:54.810 23/06/1995]',0.056,-0.021,59.500,50.025,65.300,0.000,-0.521
'[13:02:54.812 23/06/1995]',0.056,-0.032,59.500,50.025,65.300,0.000,-0.521
'[13:02:54.814 23/06/1995]',0.056,-0.032,59.500,50.025,65.300,0.000,-0.521
'[13:02:54.816 23/06/1995]',0.056,-0.032,58.700,51.075,66.750,0.000,-0.523
'[13:02:54.818 23/06/1995]',0.056,-0.032,58.700,51.075,66.750,0.000,-0.523
'[13:02:54.820 23/06/1995]',0.067,-0.032,58.700,51.075,66.750,0.000,-0.523
'[13:02:54.822 23/06/1995]',0.067,-0.021,58.700,51.075,66.750,0.000,-0.523
'[13:02:54.824 23/06/1995]',0.077,-0.021,58.650,51.550,69.000,0.000,-0.524
'[13:02:54.826 23/06/1995]',0.067,-0.021,58.650,51.550,69.000,0.000,-0.524
'[13:02:54.828 23/06/1995]',0.067,-0.032,58.650,51.550,69.000,0.000,-0.524
'[13:02:54.830 23/06/1995]',0.067,-0.032,58.650,51.550,69.000,0.000,-0.524
'[13:02:54.832 23/06/1995]',0.077,-0.043,59.350,51.425,71.850,0.000,-0.526
'[13:02:54.834 23/06/1995]',0.067,-0.032,59.350,51.425,71.850,0.000,-0.526
'[13:02:54.836 23/06/1995]',0.067,-0.032,59.350,51.425,71.850,0.000,-0.526
'[13:02:54.838 23/06/1995]',0.067,-0.021,59.350,51.425,71.850,0.000,-0.526
'[13:02:54.840 23/06/1995]',0.067,-0.021,60.750,50.975,75.150,0.000,-0.528
'[13:02:54.842 23/06/1995]',0.056,-0.032,60.750,50.975,75.150,0.000,-0.528
'[13:02:54.844 23/06/1995]',0.056,-0.043,60.750,50.975,75.150,0.000,-0.528
'[13:02:54.846 23/06/1995]',0.056,-0.043,60.750,50.975,75.150,0.000,-0.528
'[13:02:54.848 23/06/1995]',0.067,-0.043,62.600,50.425,78.600,0.000,-0.531
'[13:02:54.850 23/06/1995]',0.067,-0.043,62.600,50.425,78.600,0.000,-0.531
'[13:02:54.852 23/06/1995]',0.067,-0.032,62.600,50.425,78.600,0.000,-0.531
'[13:02:54.854 23/06/1995]',0.067,-0.032,62.600,50.425,78.600,0.000,-0.531
'[13:02:54.856 23/06/1995]',0.067,-0.032,64.800,49.900,82.000,0.000,-0.533
'[13:02:54.858 23/06/1995]',0.067,-0.032,64.800,49.900,82.000,0.000,-0.533
'[13:02:54.860 23/06/1995]',0.077,-0.032,64.800,49.900,82.000,0.000,-0.533
'[13:02:54.862 23/06/1995]',0.067,-0.043,64.800,49.900,82.000,0.000,-0.533
'[13:02:54.864 23/06/1995]',0.067,-0.043,67.250,49.450,85.150,0.000,-0.535
'[13:02:54.866 23/06/1995]',0.067,-0.043,67.250,49.450,85.150,0.000,-0.535
'[13:02:54.868 23/06/1995]',0.077,-0.043,67.250,49.450,85.150,0.000,-0.535
'[13:02:54.870 23/06/1995]',0.077,-0.032,67.250,49.450,85.150,0.000,-0.535
'[13:02:54.872 23/06/1995]',0.077,-0.043,70.250,48.925,87.850,0.000,-0.536
'[13:02:54.874 23/06/1995]',0.077,-0.032,70.250,48.925,87.850,0.000,-0.536
'[13:02:54.876 23/06/1995]',0.077,-0.043,70.250,48.925,87.850,0.000,-0.536
'[13:02:54.878 23/06/1995]',0.067,-0.043,70.250,48.925,87.850,0.000,-0.536
'[13:02:54.880 23/06/1995]',0.067,-0.043,73.350,48.325,90.000,0.000,-0.537
'[13:02:54.882 23/06/1995]',0.067,-0.054,73.350,48.325,90.000,0.000,-0.537
'[13:02:54.884 23/06/1995]',0.067,-0.043,73.350,48.325,90.000,0.000,-0.537
'[13:02:54.886 23/06/1995]',0.067,-0.032,73.350,48.325,90.000,0.000,-0.537
'[13:02:54.888 23/06/1995]',0.077,-0.043,76.050,47.675,91.300,0.000,-0.538
'[13:02:54.890 23/06/1995]',0.077,-0.043,76.050,47.675,91.300,0.000,-0.538
'[13:02:54.892 23/06/1995]',0.077,-0.054,76.050,47.675,91.300,0.000,-0.538
'[13:02:54.894 23/06/1995]',0.077,-0.065,76.050,47.675,91.300,0.000,-0.538
'[13:02:54.896 23/06/1995]',0.067,-0.065,77.950,46.975,91.950,0.000,-0.539
'[13:02:54.898 23/06/1995]',0.067,-0.065,77.950,46.975,91.950,0.000,-0.539
'[13:02:54.900 23/06/1995]',0.077,-0.065,77.950,46.975,91.950,0.000,-0.539
'[13:02:54.902 23/06/1995]',0.077,-0.065,77.950,46.975,91.950,0.000,-0.539
'[13:02:54.904 23/06/1995]',0.088,-0.054,79.500,46.325,91.850,0.000,-0.539
'[13:02:54.906 23/06/1995]',0.088,-0.054,79.500,46.325,91.850,0.000,-0.539
'[13:02:54.908 23/06/1995]',0.077,-0.065,79.500,46.325,91.850,0.000,-0.539
'[13:02:54.910 23/06/1995]',0.077,-0.076,79.500,46.325,91.850,0.000,-0.539
'[13:02:54.912 23/06/1995]',0.088,-0.076,80.900,45.700,91.100,0.000,-0.539
'[13:02:54.914 23/06/1995]',0.088,-0.087,80.900,45.700,91.100,0.000,-0.539
'[13:02:54.916 23/06/1995]',0.088,-0.076,80.900,45.700,91.100,0.000,-0.539
'[13:02:54.918 23/06/1995]',0.100,-0.087,80.900,45.700,91.100,0.000,-0.539
'[13:02:54.920 23/06/1995]',0.088,-0.076,82.200,45.175,89.900,0.000,-0.538
'[13:02:54.922 23/06/1995]',0.100,-0.076,82.200,45.175,89.900,0.000,-0.538
'[13:02:54.924 23/06/1995]',0.100,-0.087,82.200,45.175,89.900,0.000,-0.538
'[13:02:54.926 23/06/1995]',0.100,-0.098,82.200,45.175,89.900,0.000,-0.538
'[13:02:54.928 23/06/1995]',0.088,-0.109,83.300,44.700,88.550,0.000,-0.538
'[13:02:54.930 23/06/1995]',0.088,-0.109,83.300,44.700,88.550,0.000,-0.538
'[13:02:54.932 23/06/1995]',0.077,-0.109,83.300,44.700,88.550,0.000,-0.538
'[13:02:54.934 23/06/1995]',0.088,-0.109,83.300,44.700,88.550,0.000,-0.538
'[13:02:54.936 23/06/1995]',0.088,-0.120,84.250,44.275,87.350,0.000,-0.537
'[13:02:54.938 23/06/1995]',0.088,-0.120,84.250,44.275,87.350,0.000,-0.537
'[13:02:54.940 23/06/1995]',0.088,-0.120,84.250,44.275,87.350,0.000,-0.537
'[13:02:54.942 23/06/1995]',0.077,-0.120,84.250,44.275,87.350,0.000,-0.537
'[13:02:54.944 23/06/1995]',0.077,-0.131,85.150,43.825,86.350,0.000,-0.536
'[13:02:54.946 23/06/1995]',0.088,-0.142,85.150,43.825,86.350,0.000,-0.536
'[13:02:54.948 23/06/1995]',0.088,-0.153,85.150,43.825,86.350,0.000,-0.536
'[13:02:54.950 23/06/1995]',0.088,-0.164,85.150,43.825,86.350,0.000,-0.536
'[13:02:54.952 23/06/1995]',0.088,-0.164,86.150,43.300,85.600,0.000,-0.535
'[13:02:54.954 23/06/1995]',0.088,-0.153,86.150,43.300,85.600,0.000,-0.535
'[13:02:54.956 23/06/1995]',0.088,-0.153,86.150,43.300,85.600,0.000,-0.535
'[13:02:54.958 23/06/1995]',0.088,-0.153,86.150,43.300,85.600,0.000,-0.535
'[13:02:54.960 23/06/1995]',0.088,-0.164,87.000,42.525,84.900,0.000,-0.533
'[13:02:54.962 23/06/1995]',0.088,-0.164,87.000,42.525,84.900,0.000,-0.533
'[13:02:54.964 23/06/1995]',0.088,-0.174,87.000,42.525,84.900,0.000,-0.533
'[13:02:54.966 23/06/1995]',0.088,-0.174,87.000,42.525,84.900,0.000,-0.533
'[13:02:54.968 23/06/1995]',0.100,-0.174,87.550,41.425,84.150,0.000,-0.532
'[13:02:54.970 23/06/1995]',0.100,-0.164,87.550,41.425,84.150,0.000,-0.532
'[13:02:54.972 23/06/1995]',0.088,-0.164,87.550,41.425,84.150,0.000,-0.532
'[13:02:54.974 23/06/1995]',0.077,-0.174,87.550,41.425,84.150,0.000,-0.532
'[13:02:54.976 23/06/1995]',0.077,-0.174,87.700,39.775,83.400,0.000,-0.530
'[13:02:54.978 23/06/1995]',0.077,-0.185,87.700,39.775,83.400,0.000,-0.530
'[13:02:54.980 23/06/1995]',0.077,-0.185,87.700,39.775,83.400,0.000,-0.530
'[13:02:54.982 23/06/1995]',0.088,-0.185,87.700,39.775,83.400,0.000,-0.530
'[13:02:54.984 23/06/1995]',0.088,-0.185,87.450,37.725,82.650,0.000,-0.529
'[13:02:54.986 23/06/1995]',0.088,-0.185,87.450,37.725,82.650,0.000,-0.529
'[13:02:54.988 23/06/1995]',0.077,-0.185,87.450,37.725,82.650,0.000,-0.529
'[13:02:54.990 23/06/1995]',0.088,-0.185,87.450,37.725,82.650,0.000,-0.529
'[13:02:54.992 23/06/1995]',0.077,-0.185,86.800,35.850,81.850,0.000,-0.527
'[13:02:54.994 23/06/1995]',0.088,-0.185,86.800,35.850,81.850,0.000,-0.527
'[13:02:54.996 23/06/1995]',0.077,-0.197,86.800,35.850,81.850,0.000,-0.527
'[13:02:54.998 23/06/1995]',0.088,-0.197,86.800,35.850,81.850,0.000,-0.527
'[13:02:55.000 23/06/1995]',0.088,-0.197,85.850,34.900,81.150,0.000,-0.526
'[13:02:55.002 23/06/1995]',0.088,-0.197,85.850,34.900,81.150,0.000,-0.526
'[13:02:55.004 23/06/1995]',0.088,-0.185,85.850,34.900,81.150,0.000,-0.526
'[13:02:55.006 23/06/1995]',0.088,-0.185,85.850,34.900,81.150,0.000,-0.526
'[13:02:55.008 23/06/1995]',0.088,-0.185,84.650,35.150,80.500,0.000,-0.525
'[13:02:55.010 23/06/1995]',0.088,-0.197,84.650,35.150,80.500,0.000,-0.525
'[13:02:55.012 23/06/1995]',0.088,-0.185,84.650,35.150,80.500,0.000,-0.525
'[13:02:55.014 23/06/1995]',0.088,-0.197,84.650,35.150,80.500,0.000,-0.525
'[13:02:55.016 23/06/1995]',0.088,-0.185,83.300,36.075,80.000,0.000,-0.524
'[13:02:55.018 23/06/1995]',0.088,-0.185,83.300,36.075,80.000,0.000,-0.524
'[13:02:55.020 23/06/1995]',0.088,-0.164,83.300,36.075,80.000,0.000,-0.524
'[13:02:55.022 23/06/1995]',0.088,-0.153,83.300,36.075,80.000,0.000,-0.524
'[13:02:55.024 23/06/1995]',0.088,-0.153,81.950,37.200,79.700,0.000,-0.523
'[13:02:55.026 23/06/1995]',0.077,-0.153,81.950,37.200,79.700,0.000,-0.523
'[13:02:55.028 23/06/1995]',0.077,-0.164,81.950,37.200,79.700,0.000,-0.523
'[13:02:55.030 23/06/1995]',0.077,-0.164,81.950,37.200,79.700,0.000,-0.523
'[13:02:55.032 23/06/1995]',0.077,-0.153,80.650,38.200,79.550,0.000,-0.521
'[13:02:55.034 23/06/1995]',0.077,-0.142,80.650,38.200,79.550,0.000,-0.521
'[13:02:55.036 23/06/1995]',0.077,-0.131,80.650,38.200,79.550,0.000,-0.521
'[13:02:55.038 23/06/1995]',0.077,-0.120,80.650,38.200,79.550,0.000,-0.521
'[13:02:55.040 23/06/1995]',0.077,-0.120,79.350,39.000,79.550,0.000,-0.519
'[13:02:55.042 23/06/1995]',0.077,-0.120,79.350,39.000,79.550,0.000,-0.519
'[13:02:55.044 23/06/1995]',0.067,-0.120,79.350,39.000,79.550,0.000,-0.519
'[13:02:55.046 23/06/1995]',0.056,-0.120,79.350,39.000,79.550,0.000,-0.519
'[13:02:55.048 23/06/1995]',0.056,-0.120,78.100,39.600,79.800,0.000,-0.517
'[13:02:55.050 23/06/1995]',0.056,-0.109,78.100,39.600,79.800,0.000,-0.517
'[13:02:55.052 23/06/1995]',0.056,-0.098,78.100,39.600,79.800,0.000,-0.517
'[13:02:55.054 23/06/1995]',0.056,-0.087,78.100,39.600,79.800,0.000,-0.517
'[13:02:55.056 23/06/1995]',0.044,-0.087,76.850,39.900,80.250,0.000,-0.515
'[13:02:55.058 23/06/1995]',0.056,-0.087,76.850,39.900,80.250,0.000,-0.515
'[13:02:55.060 23/06/1995]',0.044,-0.076,76.850,39.900,80.250,0.000,-0.515
'[13:02:55.062 23/06/1995]',0.034,-0.076,76.850,39.900,80.250,0.000,-0.515
'[13:02:55.064 23/06/1995]',0.034,-0.065,75.950,40.000,81.050,0.000,-0.514
'[13:02:55.066 23/06/1995]',0.044,-0.054,75.950,40.000,81.050,0.000,-0.514
'[13:02:55.068 23/06/1995]',0.044,-0.054,75.950,40.000,81.050,0.000,-0.514
'[13:02:55.070 23/06/1995]',0.044,-0.043,75.950,40.000,81.050,0.000,-0.514
'[13:02:55.072 23/06/1995]',0.034,-0.043,75.600,39.825,82.300,0.000,-0.512
'[13:02:55.074 23/06/1995]',0.034,-0.043,75.600,39.825,82.300,0.000,-0.512
'[13:02:55.076 23/06/1995]',0.022,-0.043,75.600,39.825,82.300,0.000,-0.512
'[13:02:55.078 23/06/1995]',0.022,-0.032,75.600,39.825,82.300,0.000,-0.512
'[13:02:55.080 23/06/1995]',0.022,-0.032,75.750,39.550,83.950,0.000,-0.511
'[13:02:55.082 23/06/1995]',0.022,-0.032,75.750,39.550,83.950,0.000,-0.511
'[13:02:55.084 23/06/1995]',0.022,-0.032,75.750,39.550,83.950,0.000,-0.511
'[13:02:55.086 23/06/1995]',0.022,-0.021,75.750,39.550,83.950,0.000,-0.511
'[13:02:55.088 23/06/1995]',0.011,0.001,76.400,39.175,86.000,0.000,-0.509
'[13:02:55.090 23/06/1995]',0.011,0.001,76.400,39.175,86.000,0.000,-0.509
'[13:02:55.092 23/06/1995]',0.001,0.001,76.400,39.175,86.000,0.000,-0.509
'[13:02:55.094 23/06/1995]',0.001,0.001,76.400,39.175,86.000,0.000,-0.509
'[13:02:55.096 23/06/1995]',0.001,0.001,77.550,38.775,88.400,0.000,-0.507
'[13:02:55.098 23/06/1995]',0.001,0.001,77.550,38.775,88.400,0.000,-0.507
'[13:02:55.100 23/06/1995]',0.001,0.001,77.550,38.775,88.400,0.000,-0.507
'[13:02:55.102 23/06/1995]',0.001,0.011,77.550,38.775,88.400,0.000,-0.507
'[13:02:55.104 23/06/1995]',0.001,0.011,79.200,38.425,91.150,0.000,-0.505
'[13:02:55.106 23/06/1995]',0.001,0.011,79.200,38.425,91.150,0.000,-0.505
'[13:02:55.108 23/06/1995]',-0.010,0.022,79.200,38.425,91.150,0.000,-0.505
'[13:02:55.110 23/06/1995]',-0.021,0.011,79.200,38.425,91.150,0.000,-0.505
'[13:02:55.112 23/06/1995]',-0.010,0.011,81.200,38.200,94.200,0.000,-0.503
'[13:02:55.114 23/06/1995]',-0.010,0.011,81.200,38.200,94.200,0.000,-0.503
'[13:02:55.116 23/06/1995]',-0.010,0.022,81.200,38.200,94.200,0.000,-0.503
'[13:02:55.118 23/06/1995]',-0.010,0.022,81.200,38.200,94.200,0.000,-0.503
'[13:02:55.120 23/06/1995]',0.001,0.034,83.300,38.025,97.550,0.000,-0.502
'[13:02:55.122 23/06/1995]',-0.010,0.044,83.300,38.025,97.550,0.000,-0.502
'[13:02:55.124 23/06/1995]',-0.021,0.044,83.300,38.025,97.550,0.000,-0.502
'[13:02:55.126 23/06/1995]',-0.021,0.034,83.300,38.025,97.550,0.000,-0.502
'[13:02:55.128 23/06/1995]',-0.021,0.034,85.450,37.850,100.950,0.000,-0.502
'[13:02:55.130 23/06/1995]',-0.021,0.034,85.450,37.850,100.950,0.000,-0.502
'[13:02:55.132 23/06/1995]',-0.021,0.034,85.450,37.850,100.950,0.000,-0.502
'[13:02:55.134 23/06/1995]',-0.032,0.044,85.450,37.850,100.950,0.000,-0.502
'[13:02:55.136 23/06/1995]',-0.021,0.056,87.550,37.725,104.450,0.000,-0.502
'[13:02:55.138 23/06/1995]',-0.021,0.044,87.550,37.725,104.450,0.000,-0.502
'[13:02:55.140 23/06/1995]',-0.021,0.056,87.550,37.725,104.450,0.000,-0.502
'[13:02:55.142 23/06/1995]',-0.021,0.044,87.550,37.725,104.450,0.000,-0.502
'[13:02:55.144 23/06/1995]',-0.021,0.044,89.550,37.550,107.950,0.000,-0.502
'[13:02:55.146 23/06/1995]',-0.032,0.056,89.550,37.550,107.950,0.000,-0.502
'[13:02:55.148 23/06/1995]',-0.032,0.056,89.550,37.550,107.950,0.000,-0.502
'[13:02:55.150 23/06/1995]',-0.021,0.056,89.550,37.550,107.950,0.000,-0.502
'[13:02:55.152 23/06/1995]',-0.021,0.056,91.400,37.425,111.250,0.000,-0.503
'[13:02:55.154 23/06/1995]',-0.021,0.067,91.400,37.425,111.250,0.000,-0.503
'[13:02:55.156 23/06/1995]',-0.021,0.056,91.400,37.425,111.250,0.000,-0.503
'[13:02:55.158 23/06/1995]',-0.032,0.056,91.400,37.425,111.250,0.000,-0.503
'[13:02:55.160 23/06/1995]',-0.032,0.044,92.950,37.375,114.150,0.000,-0.503
'[13:02:55.162 23/06/1995]',-0.043,0.044,92.950,37.375,114.150,0.000,-0.503
'[13:02:55.164 23/06/1995]',-0.032,0.056,92.950,37.375,114.150,0.000,-0.503
'[13:02:55.166 23/06/1995]',-0.032,0.056,92.950,37.375,114.150,0.000,-0.503
'[13:02:55.168 23/06/1995]',-0.032,0.067,94.350,37.300,116.650,0.000,-0.503
'[13:02:55.170 23/06/1995]',-0.043,0.067,94.350,37.300,116.650,0.000,-0.503
'[13:02:55.172 23/06/1995]',-0.043,0.067,94.350,37.300,116.650,0.000,-0.503
'[13:02:55.174 23/06/1995]',-0.032,0.067,94.350,37.300,116.650,0.000,-0.503
'[13:02:55.176 23/06/1995]',-0.043,0.067,95.850,37.250,118.400,0.000,-0.503
'[13:02:55.178 23/06/1995]',-0.043,0.067,95.850,37.250,118.400,0.000,-0.503
'[13:02:55.180 23/06/1995]',-0.043,0.056,95.850,37.250,118.400,0.000,-0.503
'[13:02:55.182 23/06/1995]',-0.032,0.056,95.850,37.250,118.400,0.000,-0.503
'[13:02:55.184 23/06/1995]',-0.032,0.056,97.350,37.200,119.550,0.000,-0.503
'[13:02:55.186 23/06/1995]',-0.032,0.056,97.350,37.200,119.550,0.000,-0.503
'[13:02:55.188 23/06/1995]',-0.043,0.067,97.350,37.200,119.550,0.000,-0.503
'[13:02:55.190 23/06/1995]',-0.043,0.056,97.350,37.200,119.550,0.000,-0.503
'[13:02:55.192 23/06/1995]',-0.043,0.056,98.800,37.075,120.050,0.000,-0.502
'[13:02:55.194 23/06/1995]',-0.032,0.056,98.800,37.075,120.050,0.000,-0.502
'[13:02:55.196 23/06/1995]',-0.043,0.056,98.800,37.075,120.050,0.000,-0.502
'[13:02:55.198 23/06/1995]',-0.043,0.056,98.800,37.075,120.050,0.000,-0.502
'[13:02:55.200 23/06/1995]',-0.043,0.056,100.100,37.025,119.850,0.000,-0.500
'[13:02:55.202 23/06/1995]',-0.054,0.056,100.100,37.025,119.850,0.000,-0.500
'[13:02:55.204 23/06/1995]',-0.054,0.056,100.100,37.025,119.850,0.000,-0.500
'[13:02:55.206 23/06/1995]',-0.043,0.056,100.100,37.025,119.850,0.000,-0.500
'[13:02:55.208 23/06/1995]',-0.043,0.056,101.150,36.950,119.000,0.000,-0.499
'[13:02:55.210 23/06/1995]',-0.032,0.067,101.150,36.950,119.000,0.000,-0.499
'[13:02:55.212 23/06/1995]',-0.032,0.044,101.150,36.950,119.000,0.000,-0.499
'[13:02:55.214 23/06/1995]',-0.043,0.044,101.150,36.950,119.000,0.000,-0.499
'[13:02:55.216 23/06/1995]',-0.043,0.044,102.050,37.025,117.500,0.000,-0.497
'[13:02:55.218 23/06/1995]',-0.032,0.044,102.050,37.025,117.500,0.000,-0.497
'[13:02:55.220 23/06/1995]',-0.032,0.056,102.050,37.025,117.500,0.000,-0.497
'[13:02:55.222 23/06/1995]',-0.032,0.067,102.050,37.025,117.500,0.000,-0.497
'[13:02:55.224 23/06/1995]',-0.043,0.056,102.450,37.075,115.400,0.000,-0.496
'[13:02:55.226 23/06/1995]',-0.043,0.056,102.450,37.075,115.400,0.000,-0.496
'[13:02:55.228 23/06/1995]',-0.043,0.044,102.450,37.075,115.400,0.000,-0.496
'[13:02:55.230 23/06/1995]',-0.043,0.044,102.450,37.075,115.400,0.000,-0.496
'[13:02:55.232 23/06/1995]',-0.043,0.044,102.400,37.125,112.750,0.000,-0.494
'[13:02:55.234 23/06/1995]',-0.043,0.044,102.400,37.125,112.750,0.000,-0.494
'[13:02:55.236 23/06/1995]',-0.043,0.044,102.400,37.125,112.750,0.000,-0.494
'[13:02:55.238 23/06/1995]',-0.043,0.044,102.400,37.125,112.750,0.000,-0.494
'[13:02:55.240 23/06/1995]',-0.043,0.056,102.100,37.125,109.800,0.000,-0.493
'[13:02:55.242 23/06/1995]',-0.043,0.044,102.100,37.125,109.800,0.000,-0.493
'[13:02:55.244 23/06/1995]',-0.054,0.044,102.100,37.125,109.800,0.000,-0.493
'[13:02:55.246 23/06/1995]',-0.043,0.044,102.100,37.125,109.800,0.000,-0.493
'[13:02:55.248 23/06/1995]',-0.043,0.044,101.650,37.125,106.550,0.000,-0.491
'[13:02:55.250 23/06/1995]',-0.032,0.056,101.650,37.125,106.550,0.000,-0.491
'[13:02:55.252 23/06/1995]',-0.032,0.056,101.650,37.125,106.550,0.000,-0.491
'[13:02:55.254 23/06/1995]',-0.032,0.056,101.650,37.125,106.550,0.000,-0.491
'[13:02:55.256 23/06/1995]',-0.043,0.067,101.100,37.025,103.200,0.000,-0.490
'[13:02:55.258 23/06/1995]',-0.032,0.056,101.100,37.025,103.200,0.000,-0.490
'[13:02:55.260 23/06/1995]',-0.043,0.056,101.100,37.025,103.200,0.000,-0.490
'[13:02:55.262 23/06/1995]',-0.032,0.044,101.100,37.025,103.200,0.000,-0.490
'[13:02:55.264 23/06/1995]',-0.032,0.034,100.450,36.950,99.950,0.000,-0.488
'[13:02:55.266 23/06/1995]',-0.032,0.034,100.450,36.950,99.950,0.000,-0.488
'[13:02:55.268 23/06/1995]',-0.032,0.044,100.450,36.950,99.950,0.000,-0.488
'[13:02:55.270 23/06/1995]',-0.043,0.044,100.450,36.950,99.950,0.000,-0.488
'[13:02:55.272 23/06/1995]',-0.043,0.056,99.750,36.900,96.750,0.000,-0.486
'[13:02:55.274 23/06/1995]',-0.043,0.044,99.750,36.900,96.750,0.000,-0.486
'[13:02:55.276 23/06/1995]',-0.054,0.044,99.750,36.900,96.750,0.000,-0.486
'[13:02:55.278 23/06/1995]',-0.054,0.034,99.750,36.900,96.750,0.000,-0.486
'[13:02:55.280 23/06/1995]',-0.054,0.044,99.050,36.850,93.750,0.000,-0.485
'[13:02:55.282 23/06/1995]',-0.043,0.044,99.050,36.850,93.750,0.000,-0.485
'[13:02:55.284 23/06/1995]',-0.043,0.044,99.050,36.850,93.750,0.000,-0.485
'[13:02:55.286 23/06/1995]',-0.043,0.044,99.050,36.850,93.750,0.000,-0.485
'[13:02:55.288 23/06/1995]',-0.032,0.044,98.250,36.775,90.900,0.000,-0.483
'[13:02:55.290 23/06/1995]',-0.032,0.044,98.250,36.775,90.900,0.000,-0.483
'[13:02:55.292 23/06/1995]',-0.032,0.044,98.250,36.775,90.900,0.000,-0.483
'[13:02:55.294 23/06/1995]',-0.032,0.044,98.250,36.775,90.900,0.000,-0.483
'[13:02:55.296 23/06/1995]',-0.032,0.034,97.400,36.725,88.450,0.000,-0.481
'[13:02:55.298 23/06/1995]',-0.032,0.034,97.400,36.725,88.450,0.000,-0.481
'[13:02:55.300 23/06/1995]',-0.032,0.044,97.400,36.725,88.450,0.000,-0.481
'[13:02:55.302 23/06/1995]',-0.032,0.044,97.400,36.725,88.450,0.000,-0.481
'[13:02:55.304 23/06/1995]',-0.032,0.056,96.600,36.725,86.400,0.000,-0.479
'[13:02:55.306 23/06/1995]',-0.021,0.044,96.600,36.725,86.400,0.000,-0.479
'[13:02:55.308 23/06/1995]',-0.032,0.044,96.600,36.725,86.400,0.000,-0.479
'[13:02:55.310 23/06/1995]',-0.032,0.044,96.600,36.725,86.400,0.000,-0.479
'[13:02:55.312 23/06/1995]',-0.032,0.034,95.800,36.675,84.700,0.000,-0.476
'[13:02:55.314 23/06/1995]',-0.032,0.034,95.800,36.675,84.700,0.000,-0.476
'[13:02:55.316 23/06/1995]',-0.032,0.034,95.800,36.675,84.700,0.000,-0.476
'[13:02:55.318 23/06/1995]',-0.021,0.044,95.800,36.675,84.700,0.000,-0.476
'[13:02:55.320 23/06/1995]',-0.032,0.056,94.950,36.675,83.350,0.000,-0.473
'[13:02:55.322 23/06/1995]',-0.032,0.056,94.950,36.675,83.350,0.000,-0.473
'[13:02:55.324 23/06/1995]',-0.043,0.044,94.950,36.675,83.350,0.000,-0.473
'[13:02:55.326 23/06/1995]',-0.054,0.034,94.950,36.675,83.350,0.000,-0.473
'[13:02:55.328 23/06/1995]',-0.043,0.034,94.100,36.600,82.400,0.000,-0.470
'[13:02:55.330 23/06/1995]',-0.054,0.034,94.100,36.600,82.400,0.000,-0.470
'[13:02:55.332 23/06/1995]',-0.043,0.034,94.100,36.600,82.400,0.000,-0.470
'[13:02:55.334 23/06/1995]',-0.043,0.044,94.100,36.600,82.400,0.000,-0.470
'[13:02:55.336 23/06/1995]',-0.043,0.044,93.100,36.550,81.750,0.000,-0.467
'[13:02:55.338 23/06/1995]',-0.032,0.056,93.100,36.550,81.750,0.000,-0.467
'[13:02:55.340 23/06/1995]',-0.032,0.044,93.100,36.550,81.750,0.000,-0.467
'[13:02:55.342 23/06/1995]',-0.032,0.044,93.100,36.550,81.750,0.000,-0.467
'[13:02:55.344 23/06/1995]',-0.032,0.034,91.900,36.500,81.500,0.000,-0.464
'[13:02:55.346 23/06/1995]',-0.032,0.034,91.900,36.500,81.500,0.000,-0.464
'[13:02:55.348 23/06/1995]',-0.032,0.022,91.900,36.500,81.500,0.000,-0.464
'[13:02:55.350 23/06/1995]',-0.032,0.034,91.900,36.500,81.500,0.000,-0.464
'[13:02:55.352 23/06/1995]',-0.032,0.034,90.600,36.425,81.500,0.000,-0.461
'[13:02:55.354 23/06/1995]',-0.032,0.034,90.600,36.425,81.500,0.000,-0.461
'[13:02:55.356 23/06/1995]',-0.021,0.034,90.600,36.425,81.500,0.000,-0.461
'[13:02:55.358 23/06/1995]',-0.032,0.022,90.600,36.425,81.500,0.000,-0.461
'[13:02:55.360 23/06/1995]',-0.021,0.022,89.200,36.325,81.700,0.000,-0.458
'[13:02:55.362 23/06/1995]',-0.043,0.022,89.200,36.325,81.700,0.000,-0.458
'[13:02:55.364 23/06/1995]',-0.043,0.022,89.200,36.325,81.700,0.000,-0.458
'[13:02:55.366 23/06/1995]',-0.032,0.034,89.200,36.325,81.700,0.000,-0.458
'[13:02:55.368 23/06/1995]',-0.032,0.034,87.800,36.250,82.100,0.000,-0.455
'[13:02:55.370 23/06/1995]',-0.032,0.056,87.800,36.250,82.100,0.000,-0.455
'[13:02:55.372 23/06/1995]',-0.032,0.056,87.800,36.250,82.100,0.000,-0.455
'[13:02:55.374 23/06/1995]',-0.032,0.044,87.800,36.250,82.100,0.000,-0.455
'[13:02:55.376 23/06/1995]',-0.032,0.034,86.600,36.200,82.700,0.000,-0.453
'[13:02:55.378 23/06/1995]',-0.043,0.022,86.600,36.200,82.700,0.000,-0.453
'[13:02:55.380 23/06/1995]',-0.032,0.022,86.600,36.200,82.700,0.000,-0.453
'[13:02:55.382 23/06/1995]',-0.032,0.022,86.600,36.200,82.700,0.000,-0.453
'[13:02:55.384 23/06/1995]',-0.021,0.034,85.450,36.150,83.350,0.000,-0.450
'[13:02:55.386 23/06/1995]',-0.021,0.044,85.450,36.150,83.350,0.000,-0.450
'[13:02:55.388 23/06/1995]',-0.021,0.044,85.450,36.150,83.350,0.000,-0.450
'[13:02:55.390 23/06/1995]',-0.032,0.044,85.450,36.150,83.350,0.000,-0.450
'[13:02:55.392 23/06/1995]',-0.032,0.034,84.550,36.150,84.050,0.000,-0.448
'[13:02:55.394 23/06/1995]',-0.032,0.034,84.550,36.150,84.050,0.000,-0.448
'[13:02:55.396 23/06/1995]',-0.043,0.034,84.550,36.150,84.050,0.000,-0.448
'[13:02:55.398 23/06/1995]',-0.043,0.034,84.550,36.150,84.050,0.000,-0.448
'[13:02:55.400 23/06/1995]',-0.032,0.034,83.800,36.075,84.800,0.000,-0.445
'[13:02:55.402 23/06/1995]',-0.043,0.056,83.800,36.075,84.800,0.000,-0.445
'[13:02:55.404 23/06/1995]',-0.032,0.067,83.800,36.075,84.800,0.000,-0.445
'[13:02:55.406 23/06/1995]',-0.032,0.067,83.800,36.075,84.800,0.000,-0.445
'[13:02:55.408 23/06/1995]',-0.032,0.067,83.350,36.075,85.500,0.000,-0.442
'[13:02:55.410 23/06/1995]',-0.043,0.056,83.350,36.075,85.500,0.000,-0.442
'[13:02:55.412 23/06/1995]',-0.043,0.056,83.350,36.075,85.500,0.000,-0.442
'[13:02:55.414 23/06/1995]',-0.054,0.056,83.350,36.075,85.500,0.000,-0.442
'[13:02:55.416 23/06/1995]',-0.054,0.056,83.050,36.025,86.250,0.000,-0.438
'[13:02:55.418 23/06/1995]',-0.054,0.056,83.050,36.025,86.250,0.000,-0.438
'[13:02:55.420 23/06/1995]',-0.043,0.067,83.050,36.025,86.250,0.000,-0.438
'[13:02:55.422 23/06/1995]',-0.043,0.067,83.050,36.025,86.250,0.000,-0.438
'[13:02:55.424 23/06/1995]',-0.054,0.067,82.950,35.975,86.750,0.000,-0.433
'[13:02:55.426 23/06/1995]',-0.054,0.056,82.950,35.975,86.750,0.000,-0.433
'[13:02:55.428 23/06/1995]',-0.054,0.056,82.950,35.975,86.750,0.000,-0.433
'[13:02:55.430 23/06/1995]',-0.054,0.067,82.950,35.975,86.750,0.000,-0.433
'[13:02:55.432 23/06/1995]',-0.054,0.077,82.950,35.900,87.200,0.000,-0.428
'[13:02:55.434 23/06/1995]',-0.065,0.077,82.950,35.900,87.200,0.000,-0.428
'[13:02:55.436 23/06/1995]',-0.076,0.088,82.950,35.900,87.200,0.000,-0.428
'[13:02:55.438 23/06/1995]',-0.076,0.088,82.950,35.900,87.200,0.000,-0.428
'[13:02:55.440 23/06/1995]',-0.076,0.100,83.000,35.800,87.500,0.000,-0.424
'[13:02:55.442 23/06/1995]',-0.076,0.100,83.000,35.800,87.500,0.000,-0.424
'[13:02:55.444 23/06/1995]',-0.087,0.088,83.000,35.800,87.500,0.000,-0.424
'[13:02:55.446 23/06/1995]',-0.098,0.077,83.000,35.800,87.500,0.000,-0.424
'[13:02:55.448 23/06/1995]',-0.098,0.067,83.100,35.725,87.700,0.000,-0.420
'[13:02:55.450 23/06/1995]',-0.087,0.067,83.100,35.725,87.700,0.000,-0.420
'[13:02:55.452 23/06/1995]',-0.087,0.067,83.100,35.725,87.700,0.000,-0.420
'[13:02:55.454 23/06/1995]',-0.076,0.067,83.100,35.725,87.700,0.000,-0.420
'[13:02:55.456 23/06/1995]',-0.076,0.077,83.200,35.725,87.750,0.000,-0.417
'[13:02:55.458 23/06/1995]',-0.076,0.067,83.200,35.725,87.750,0.000,-0.417
'[13:02:55.460 23/06/1995]',-0.076,0.067,83.200,35.725,87.750,0.000,-0.417
'[13:02:55.462 23/06/1995]',-0.076,0.067,83.200,35.725,87.750,0.000,-0.417
'[13:02:55.464 23/06/1995]',-0.076,0.067,83.300,35.800,87.700,0.000,-0.413
'[13:02:55.466 23/06/1995]',-0.065,0.067,83.300,35.800,87.700,0.000,-0.413
'[13:02:55.468 23/06/1995]',-0.054,0.077,83.300,35.800,87.700,0.000,-0.413
'[13:02:55.470 23/06/1995]',-0.054,0.077,83.300,35.800,87.700,0.000,-0.413
'[13:02:55.472 23/06/1995]',-0.054,0.067,83.350,35.850,87.500,0.000,-0.410
'[13:02:55.474 23/06/1995]',-0.032,0.067,83.350,35.850,87.500,0.000,-0.410
'[13:02:55.476 23/06/1995]',-0.043,0.067,83.350,35.850,87.500,0.000,-0.410
'[13:02:55.478 23/06/1995]',-0.043,0.044,83.350,35.850,87.500,0.000,-0.410
'[13:02:55.480 23/06/1995]',-0.032,0.022,83.300,36.025,87.350,0.000,-0.406
'[13:02:55.482 23/06/1995]',-0.021,0.022,83.300,36.025,87.350,0.000,-0.406
'[13:02:55.484 23/06/1995]',-0.032,0.011,83.300,36.025,87.350,0.000,-0.406
'[13:02:55.486 23/06/1995]',-0.021,0.022,83.300,36.025,87.350,0.000,-0.406
'[13:02:55.488 23/06/1995]',-0.021,0.022,83.250,36.325,87.050,0.000,-0.403
'[13:02:55.490 23/06/1995]',-0.032,0.011,83.250,36.325,87.050,0.000,-0.403
'[13:02:55.492 23/06/1995]',-0.021,0.011,83.250,36.325,87.050,0.000,-0.403
'[13:02:55.494 23/06/1995]',-0.021,0.011,83.250,36.325,87.050,0.000,-0.403
'[13:02:55.496 23/06/1995]',-0.021,0.011,83.100,36.600,86.750,0.000,-0.400
'[13:02:55.498 23/06/1995]',-0.021,0.001,83.100,36.600,86.750,0.000,-0.400
'[13:02:55.500 23/06/1995]',-0.021,0.001,83.100,36.600,86.750,0.000,-0.400
'[13:02:55.502 23/06/1995]',-0.021,0.011,83.100,36.600,86.750,0.000,-0.400
'[13:02:55.504 23/06/1995]',-0.021,0.022,82.950,36.900,86.350,0.000,-0.397
'[13:02:55.506 23/06/1995]',-0.010,0.022,82.950,36.900,86.350,0.000,-0.397
'[13:02:55.508 23/06/1995]',-0.010,0.022,82.950,36.900,86.350,0.000,-0.397
'[13:02:55.510 23/06/1995]',-0.010,0.011,82.950,36.900,86.350,0.000,-0.397
'[13:02:55.512 23/06/1995]',-0.021,0.001,82.700,37.025,85.850,0.000,-0.394
'[13:02:55.514 23/06/1995]',-0.021,0.001,82.700,37.025,85.850,0.000,-0.394
'[13:02:55.516 23/06/1995]',-0.021,0.011,82.700,37.025,85.850,0.000,-0.394
'[13:02:55.518 23/06/1995]',-0.021,0.011,82.700,37.025,85.850,0.000,-0.394
'[13:02:55.520 23/06/1995]',-0.021,0.011,82.350,36.900,85.400,0.000,-0.391
'[13:02:55.522 23/06/1995]',-0.021,0.022,82.350,36.900,85.400,0.000,-0.391
'[13:02:55.524 23/06/1995]',-0.010,0.011,82.350,36.900,85.400,0.000,-0.391
'[13:02:55.526 23/06/1995]',-0.010,0.011,82.350,36.900,85.400,0.000,-0.391
'[13:02:55.528 23/06/1995]',-0.010,0.001,82.050,36.550,84.900,0.000,-0.388
'[13:02:55.530 23/06/1995]',-0.010,0.001,82.050,36.550,84.900,0.000,-0.388
'[13:02:55.532 23/06/1995]',-0.010,0.001,82.050,36.550,84.900,0.000,-0.388
'[13:02:55.534 23/06/1995]',-0.010,0.011,82.050,36.550,84.900,0.000,-0.388
'[13:02:55.536 23/06/1995]',-0.010,0.011,81.700,36.075,84.450,0.000,-0.384
'[13:02:55.538 23/06/1995]',-0.021,0.011,81.700,36.075,84.450,0.000,-0.384
'[13:02:55.540 23/06/1995]',-0.021,0.022,81.700,36.075,84.450,0.000,-0.384
'[13:02:55.542 23/06/1995]',-0.021,0.011,81.700,36.075,84.450,0.000,-0.384
'[13:02:55.544 23/06/1995]',-0.021,0.001,81.400,35.675,84.000,0.000,-0.380
'[13:02:55.546 23/06/1995]',-0.021,0.001,81.400,35.675,84.000,0.000,-0.380
'[13:02:55.548 23/06/1995]',-0.021,0.001,81.400,35.675,84.000,0.000,-0.380
'[13:02:55.550 23/06/1995]',-0.021,0.001,81.400,35.675,84.000,0.000,-0.380
'[13:02:55.552 23/06/1995]',-0.021,0.011,81.050,35.325,83.600,0.000,-0.376
'[13:02:55.554 23/06/1995]',-0.010,0.022,81.050,35.325,83.600,0.000,-0.376
'[13:02:55.556 23/06/1995]',-0.010,0.022,81.050,35.325,83.600,0.000,-0.376
'[13:02:55.558 23/06/1995]',0.001,0.022,81.050,35.325,83.600,0.000,-0.376
'[13:02:55.560 23/06/1995]',-0.021,0.011,80.800,35.075,83.200,0.000,-0.371
'[13:02:55.562 23/06/1995]',-0.021,0.011,80.800,35.075,83.200,0.000,-0.371
'[13:02:55.564 23/06/1995]',-0.021,0.001,80.800,35.075,83.200,0.000,-0.371
'[13:02:55.566 23/06/1995]',-0.021,0.001,80.800,35.075,83.200,0.000,-0.371
'[13:02:55.568 23/06/1995]',-0.010,0.011,80.400,35.025,82.750,0.000,-0.367
'[13:02:55.570 23/06/1995]',-0.010,0.011,80.400,35.025,82.750,0.000,-0.367
'[13:02:55.572 23/06/1995]',-0.010,0.011,80.400,35.025,82.750,0.000,-0.367
'[13:02:55.574 23/06/1995]',0.001,0.011,80.400,35.025,82.750,0.000,-0.367
'[13:02:55.576 23/06/1995]',0.001,0.011,80.150,35.150,82.400,0.000,-0.363
'[13:02:55.578 23/06/1995]',-0.010,0.001,80.150,35.150,82.400,0.000,-0.363
'[13:02:55.580 23/06/1995]',-0.010,0.001,80.150,35.150,82.400,0.000,-0.363
'[13:02:55.582 23/06/1995]',-0.010,0.001,80.150,35.150,82.400,0.000,-0.363
'[13:02:55.584 23/06/1995]',-0.010,0.001,79.800,35.325,82.050,0.000,-0.359
'[13:02:55.586 23/06/1995]',-0.021,0.011,79.800,35.325,82.050,0.000,-0.359
'[13:02:55.588 23/06/1995]',-0.032,0.034,79.800,35.325,82.050,0.000,-0.359
'[13:02:55.590 23/06/1995]',-0.054,0.044,79.800,35.325,82.050,0.000,-0.359
'[13:02:55.592 23/06/1995]',-0.076,0.056,79.500,35.500,81.750,0.000,-0.356
'[13:02:55.594 23/06/1995]',-0.098,0.077,79.500,35.500,81.750,0.000,-0.356
'[13:02:55.596 23/06/1995]',-0.131,0.100,79.500,35.500,81.750,0.000,-0.356
'[13:02:55.598 23/06/1995]',-0.174,0.143,79.500,35.500,81.750,0.000,-0.356
'[13:02:55.600 23/06/1995]',-0.230,0.187,79.200,35.675,81.400,0.000,-0.353
'[13:02:55.602 23/06/1995]',-0.284,0.253,79.200,35.675,81.400,0.000,-0.353
'[13:02:55.604 23/06/1995]',-0.339,0.330,79.200,35.675,81.400,0.000,-0.353
'[13:02:55.606 23/06/1995]',-0.394,0.396,79.200,35.675,81.400,0.000,-0.353
'[13:02:55.608 23/06/1995]',-0.449,0.451,78.950,35.800,81.150,0.000,-0.350
'[13:02:55.610 23/06/1995]',-0.503,0.505,78.950,35.800,81.150,0.000,-0.350
'[13:02:55.612 23/06/1995]',-0.547,0.549,78.950,35.800,81.150,0.000,-0.350
'[13:02:55.614 23/06/1995]',-0.581,0.593,78.950,35.800,81.150,0.000,-0.350
'[13:02:55.616 23/06/1995]',-0.603,0.636,78.800,35.900,80.900,0.000,-0.348
'[13:02:55.618 23/06/1995]',-0.614,0.658,78.800,35.900,80.900,0.000,-0.348
'[13:02:55.620 23/06/1995]',-0.592,0.636,78.800,35.900,80.900,0.000,-0.348
'[13:02:55.622 23/06/1995]',-0.558,0.560,78.800,35.900,80.900,0.000,-0.348
'[13:02:55.624 23/06/1995]',-0.503,0.462,78.550,36.025,80.650,0.000,-0.346
'[13:02:55.626 23/06/1995]',-0.438,0.351,78.550,36.025,80.650,0.000,-0.346
'[13:02:55.628 23/06/1995]',-0.361,0.253,78.550,36.025,80.650,0.000,-0.346
'[13:02:55.630 23/06/1995]',-0.295,0.154,78.550,36.025,80.650,0.000,-0.346
'[13:02:55.632 23/06/1995]',-0.218,0.077,78.350,36.150,80.550,0.000,-0.344
'[13:02:55.634 23/06/1995]',-0.142,0.022,78.350,36.150,80.550,0.000,-0.344
'[13:02:55.636 23/06/1995]',-0.087,-0.010,78.350,36.150,80.550,0.000,-0.344
'[13:02:55.638 23/06/1995]',-0.043,-0.043,78.350,36.150,80.550,0.000,-0.344
'[13:02:55.640 23/06/1995]',-0.032,-0.054,78.200,36.250,80.400,0.000,-0.340
'[13:02:55.642 23/06/1995]',0.001,-0.065,78.200,36.250,80.400,0.000,-0.340
'[13:02:55.644 23/06/1995]',0.001,-0.076,78.200,36.250,80.400,0.000,-0.340
'[13:02:55.646 23/06/1995]',0.022,-0.076,78.200,36.250,80.400,0.000,-0.340
'[13:02:55.648 23/06/1995]',0.034,-0.076,78.000,36.375,80.250,0.000,-0.336
'[13:02:55.650 23/06/1995]',0.056,-0.054,78.000,36.375,80.250,0.000,-0.336
'[13:02:55.652 23/06/1995]',0.056,-0.043,78.000,36.375,80.250,0.000,-0.336
'[13:02:55.654 23/06/1995]',0.067,-0.032,78.000,36.375,80.250,0.000,-0.336
'[13:02:55.656 23/06/1995]',0.056,-0.021,77.900,36.425,80.150,0.000,-0.332
'[13:02:55.658 23/06/1995]',0.056,-0.021,77.900,36.425,80.150,0.000,-0.332
'[13:02:55.660 23/06/1995]',0.056,-0.010,77.900,36.425,80.150,0.000,-0.332
'[13:02:55.662 23/06/1995]',0.056,-0.021,77.900,36.425,80.150,0.000,-0.332
'[13:02:55.664 23/06/1995]',0.056,-0.032,77.750,36.500,79.950,0.000,-0.329
'[13:02:55.666 23/06/1995]',0.056,-0.032,77.750,36.500,79.950,0.000,-0.329
'[13:02:55.668 23/06/1995]',0.056,-0.021,77.750,36.500,79.950,0.000,-0.329
'[13:02:55.670 23/06/1995]',0.067,-0.010,77.750,36.500,79.950,0.000,-0.329
'[13:02:55.672 23/06/1995]',0.067,-0.010,77.500,36.425,79.700,0.000,-0.326
'[13:02:55.674 23/06/1995]',0.067,-0.010,77.500,36.425,79.700,0.000,-0.326
'[13:02:55.676 23/06/1995]',0.067,-0.021,77.500,36.425,79.700,0.000,-0.326
'[13:02:55.678 23/06/1995]',0.056,-0.032,77.500,36.425,79.700,0.000,-0.326
'[13:02:55.680 23/06/1995]',0.056,-0.021,77.200,36.375,79.500,0.000,-0.323
'[13:02:55.682 23/06/1995]',0.056,-0.021,77.200,36.375,79.500,0.000,-0.323
'[13:02:55.684 23/06/1995]',0.056,-0.021,77.200,36.375,79.500,0.000,-0.323
'[13:02:55.686 23/06/1995]',0.056,-0.021,77.200,36.375,79.500,0.000,-0.323
'[13:02:55.688 23/06/1995]',0.056,-0.010,76.950,36.550,79.200,0.000,-0.321
'[13:02:55.690 23/06/1995]',0.056,-0.021,76.950,36.550,79.200,0.000,-0.321
'[13:02:55.692 23/06/1995]',0.044,-0.021,76.950,36.550,79.200,0.000,-0.321
'[13:02:55.694 23/06/1995]',0.044,-0.021,76.950,36.550,79.200,0.000,-0.321
'[13:02:55.696 23/06/1995]',0.044,-0.021,76.800,36.950,78.850,0.000,-0.319
'[13:02:55.698 23/06/1995]',0.044,-0.021,76.800,36.950,78.850,0.000,-0.319
'[13:02:55.700 23/06/1995]',0.056,-0.021,76.800,36.950,78.850,0.000,-0.319
'[13:02:55.702 23/06/1995]',0.056,-0.010,76.800,36.950,78.850,0.000,-0.319
'[13:02:55.704 23/06/1995]',0.056,-0.010,76.650,37.675,78.350,0.000,-0.318
'[13:02:55.706 23/06/1995]',0.056,-0.010,76.650,37.675,78.350,0.000,-0.318
'[13:02:55.708 23/06/1995]',0.056,-0.021,76.650,37.675,78.350,0.000,-0.318
'[13:02:55.710 23/06/1995]',0.044,-0.021,76.650,37.675,78.350,0.000,-0.318
'[13:02:55.712 23/06/1995]',0.044,-0.032,76.450,38.650,77.750,0.000,-0.317
'[13:02:55.714 23/06/1995]',0.056,-0.032,76.450,38.650,77.750,0.000,-0.317
'[13:02:55.716 23/06/1995]',0.056,-0.021,76.450,38.650,77.750,0.000,-0.317
'[13:02:55.718 23/06/1995]',0.056,-0.021,76.450,38.650,77.750,0.000,-0.317
'[13:02:55.720 23/06/1995]',0.056,-0.010,76.100,40.175,76.800,0.000,-0.316
'[13:02:55.722 23/06/1995]',0.067,-0.010,76.100,40.175,76.800,0.000,-0.316
'[13:02:55.724 23/06/1995]',0.056,-0.021,76.100,40.175,76.800,0.000,-0.316
'[13:02:55.726 23/06/1995]',0.067,-0.010,76.100,40.175,76.800,0.000,-0.316
'[13:02:55.728 23/06/1995]',0.056,-0.032,75.400,42.300,75.750,0.000,-0.315
'[13:02:55.730 23/06/1995]',0.056,-0.032,75.400,42.300,75.750,0.000,-0.315
'[13:02:55.732 23/06/1995]',0.056,-0.032,75.400,42.300,75.750,0.000,-0.315
'[13:02:55.734 23/06/1995]',0.056,-0.021,75.400,42.300,75.750,0.000,-0.315
'[13:02:55.736 23/06/1995]',0.067,-0.010,74.200,44.875,74.550,0.000,-0.314
'[13:02:55.738 23/06/1995]',0.056,-0.010,74.200,44.875,74.550,0.000,-0.314
'[13:02:55.740 23/06/1995]',0.056,-0.010,74.200,44.875,74.550,0.000,-0.314
'[13:02:55.742 23/06/1995]',0.056,-0.021,74.200,44.875,74.550,0.000,-0.314
'[13:02:55.744 23/06/1995]',0.044,-0.032,72.700,47.625,73.400,0.000,-0.314
'[13:02:55.746 23/06/1995]',0.056,-0.032,72.700,47.625,73.400,0.000,-0.314
'[13:02:55.748 23/06/1995]',0.056,-0.032,72.700,47.625,73.400,0.000,-0.314
'[13:02:55.750 23/06/1995]',0.056,-0.032,72.700,47.625,73.400,0.000,-0.314
'[13:02:55.752 23/06/1995]',0.056,-0.032,71.000,50.250,72.500,0.000,-0.313
'[13:02:55.754 23/06/1995]',0.056,-0.021,71.000,50.250,72.500,0.000,-0.313
'[13:02:55.756 23/06/1995]',0.056,-0.010,71.000,50.250,72.500,0.000,-0.313
'[13:02:55.758 23/06/1995]',0.056,-0.010,71.000,50.250,72.500,0.000,-0.313
'[13:02:55.760 23/06/1995]',0.056,-0.021,69.150,52.600,72.100,0.000,-0.312
'[13:02:55.762 23/06/1995]',0.034,-0.021,69.150,52.600,72.100,0.000,-0.312
'[13:02:55.764 23/06/1995]',0.034,-0.021,69.150,52.600,72.100,0.000,-0.312
'[13:02:55.766 23/06/1995]',0.044,-0.021,69.150,52.600,72.100,0.000,-0.312
'[13:02:55.768 23/06/1995]',0.044,-0.021,67.500,54.600,72.350,0.000,-0.311
'[13:02:55.770 23/06/1995]',0.056,-0.010,67.500,54.600,72.350,0.000,-0.311
'[13:02:55.772 23/06/1995]',0.056,-0.010,67.500,54.600,72.350,0.000,-0.311
'[13:02:55.774 23/06/1995]',0.044,-0.021,67.500,54.600,72.350,0.000,-0.311
'[13:02:55.776 23/06/1995]',0.044,-0.021,66.150,56.250,73.400,0.000,-0.310
'[13:02:55.778 23/06/1995]',0.044,-0.021,66.150,56.250,73.400,0.000,-0.310
'[13:02:55.780 23/06/1995]',0.056,-0.032,66.150,56.250,73.400,0.000,-0.310
'[13:02:55.782 23/06/1995]',0.056,-0.032,66.150,56.250,73.400,0.000,-0.310
'[13:02:55.784 23/06/1995]',0.056,-0.021,65.250,57.475,75.200,0.000,-0.309
'[13:02:55.786 23/06/1995]',0.056,-0.021,65.250,57.475,75.200,0.000,-0.309
'[13:02:55.788 23/06/1995]',0.056,-0.010,65.250,57.475,75.200,0.000,-0.309
'[13:02:55.790 23/06/1995]',0.056,-0.010,65.250,57.475,75.200,0.000,-0.309
'[13:02:55.792 23/06/1995]',0.056,-0.010,64.950,58.125,77.650,0.000,-0.308
'[13:02:55.794 23/06/1995]',0.056,-0.032,64.950,58.125,77.650,0.000,-0.308
'[13:02:55.796 23/06/1995]',0.056,-0.032,64.950,58.125,77.650,0.000,-0.308
'[13:02:55.798 23/06/1995]',0.044,-0.032,64.950,58.125,77.650,0.000,-0.308
'[13:02:55.800 23/06/1995]',0.056,-0.021,65.350,58.350,80.600,0.000,-0.306
'[13:02:55.802 23/06/1995]',0.056,-0.010,65.350,58.350,80.600,0.000,-0.306
'[13:02:55.804 23/06/1995]',0.056,-0.010,65.350,58.350,80.600,0.000,-0.306
'[13:02:55.806 23/06/1995]',0.056,-0.010,65.350,58.350,80.600,0.000,-0.306
'[13:02:55.808 23/06/1995]',0.044,-0.010,66.400,58.300,83.750,0.000,-0.304
'[13:02:55.810 23/06/1995]',0.044,-0.021,66.400,58.300,83.750,0.000,-0.304
'[13:02:55.812 23/06/1995]',0.044,-0.032,66.400,58.300,83.750,0.000,-0.304
'[13:02:55.814 23/06/1995]',0.034,-0.032,66.400,58.300,83.750,0.000,-0.304
'[13:02:55.816 23/06/1995]',0.034,-0.032,68.050,58.175,87.100,0.000,-0.302
'[13:02:55.818 23/06/1995]',0.044,-0.032,68.050,58.175,87.100,0.000,-0.302
'[13:02:55.820 23/06/1995]',0.056,-0.021,68.050,58.175,87.100,0.000,-0.302
'[13:02:55.822 23/06/1995]',0.056,-0.021,68.050,58.175,87.100,0.000,-0.302
'[13:02:55.824 23/06/1995]',0.056,-0.021,70.050,58.050,90.250,0.000,-0.300
'[13:02:55.826 23/06/1995]',0.056,-0.021,70.050,58.050,90.250,0.000,-0.300
'[13:02:55.828 23/06/1995]',0.044,-0.032,70.050,58.050,90.250,0.000,-0.300
'[13:02:55.830 23/06/1995]',0.044,-0.043,70.050,58.050,90.250,0.000,-0.300
'[13:02:55.832 23/06/1995]',0.056,-0.043,72.550,57.875,93.200,0.000,-0.298
'[13:02:55.834 23/06/1995]',0.056,-0.032,72.550,57.875,93.200,0.000,-0.298
'[13:02:55.836 23/06/1995]',0.044,-0.032,72.550,57.875,93.200,0.000,-0.298
'[13:02:55.838 23/06/1995]',0.044,-0.021,72.550,57.875,93.200,0.000,-0.298
'[13:02:55.840 23/06/1995]',0.034,-0.032,75.700,57.575,95.600,0.000,-0.297
'[13:02:55.842 23/06/1995]',0.034,-0.032,75.700,57.575,95.600,0.000,-0.297
'[13:02:55.844 23/06/1995]',0.034,-0.032,75.700,57.575,95.600,0.000,-0.297
'[13:02:55.846 23/06/1995]',0.022,-0.043,75.700,57.575,95.600,0.000,-0.297
'[13:02:55.848 23/06/1995]',0.044,-0.032,79.100,57.350,97.400,0.000,-0.295
'[13:02:55.850 23/06/1995]',0.044,-0.021,79.100,57.350,97.400,0.000,-0.295
'[13:02:55.852 23/06/1995]',0.056,-0.021,79.100,57.350,97.400,0.000,-0.295
'[13:02:55.854 23/06/1995]',0.067,-0.032,79.100,57.350,97.400,0.000,-0.295
'[13:02:55.856 23/06/1995]',0.067,-0.032,81.950,57.050,98.550,0.000,-0.293
'[13:02:55.858 23/06/1995]',0.056,-0.043,81.950,57.050,98.550,0.000,-0.293
'[13:02:55.860 23/06/1995]',0.056,-0.043,81.950,57.050,98.550,0.000,-0.293
'[13:02:55.862 23/06/1995]',0.056,-0.054,81.950,57.050,98.550,0.000,-0.293
'[13:02:55.864 23/06/1995]',0.056,-0.054,84.050,56.825,98.900,0.000,-0.291
'[13:02:55.866 23/06/1995]',0.056,-0.054,84.050,56.825,98.900,0.000,-0.291
'[13:02:55.868 23/06/1995]',0.056,-0.043,84.050,56.825,98.900,0.000,-0.291
'[13:02:55.870 23/06/1995]',0.056,-0.043,84.050,56.825,98.900,0.000,-0.291
'[13:02:55.872 23/06/1995]',0.056,-0.043,85.600,56.600,98.450,0.000,-0.288
'[13:02:55.874 23/06/1995]',0.067,-0.054,85.600,56.600,98.450,0.000,-0.288
'[13:02:55.876 23/06/1995]',0.067,-0.054,85.600,56.600,98.450,0.000,-0.288
'[13:02:55.878 23/06/1995]',0.056,-0.076,85.600,56.600,98.450,0.000,-0.288
'[13:02:55.880 23/06/1995]',0.056,-0.076,87.050,56.250,97.500,0.000,-0.286
'[13:02:55.882 23/06/1995]',0.067,-0.065,87.050,56.250,97.500,0.000,-0.286
'[13:02:55.884 23/06/1995]',0.056,-0.065,87.050,56.250,97.500,0.000,-0.286
'[13:02:55.886 23/06/1995]',0.067,-0.065,87.050,56.250,97.500,0.000,-0.286
'[13:02:55.888 23/06/1995]',0.056,-0.065,88.500,55.875,96.000,0.000,-0.283
'[13:02:55.890 23/06/1995]',0.067,-0.076,88.500,55.875,96.000,0.000,-0.283
'[13:02:55.892 23/06/1995]',0.067,-0.087,88.500,55.875,96.000,0.000,-0.283
'[13:02:55.894 23/06/1995]',0.067,-0.087,88.500,55.875,96.000,0.000,-0.283
'[13:02:55.896 23/06/1995]',0.067,-0.098,89.750,55.525,94.500,0.000,-0.281
'[13:02:55.898 23/06/1995]',0.067,-0.098,89.750,55.525,94.500,0.000,-0.281
'[13:02:55.900 23/06/1995]',0.067,-0.098,89.750,55.525,94.500,0.000,-0.281
'[13:02:55.902 23/06/1995]',0.077,-0.098,89.750,55.525,94.500,0.000,-0.281
'[13:02:55.904 23/06/1995]',0.077,-0.098,90.850,55.250,93.150,0.000,-0.278
'[13:02:55.906 23/06/1995]',0.077,-0.109,90.850,55.250,93.150,0.000,-0.278
'[13:02:55.908 23/06/1995]',0.077,-0.109,90.850,55.250,93.150,0.000,-0.278
'[13:02:55.910 23/06/1995]',0.077,-0.120,90.850,55.250,93.150,0.000,-0.278
'[13:02:55.912 23/06/1995]',0.067,-0.131,91.900,54.950,92.150,0.000,-0.275
'[13:02:55.914 23/06/1995]',0.077,-0.131,91.900,54.950,92.150,0.000,-0.275
'[13:02:55.916 23/06/1995]',0.077,-0.131,91.900,54.950,92.150,0.000,-0.275
'[13:02:55.918 23/06/1995]',0.077,-0.131,91.900,54.950,92.150,0.000,-0.275
'[13:02:55.920 23/06/1995]',0.077,-0.131,93.100,54.550,91.450,0.000,-0.272
'[13:02:55.922 23/06/1995]',0.077,-0.142,93.100,54.550,91.450,0.000,-0.272
'[13:02:55.924 23/06/1995]',0.077,-0.142,93.100,54.550,91.450,0.000,-0.272
'[13:02:55.926 23/06/1995]',0.077,-0.153,93.100,54.550,91.450,0.000,-0.272
'[13:02:55.928 23/06/1995]',0.067,-0.164,94.150,53.950,90.900,0.000,-0.268
'[13:02:55.930 23/06/1995]',0.067,-0.164,94.150,53.950,90.900,0.000,-0.268
'[13:02:55.932 23/06/1995]',0.077,-0.174,94.150,53.950,90.900,0.000,-0.268
'[13:02:55.934 23/06/1995]',0.077,-0.174,94.150,53.950,90.900,0.000,-0.268
'[13:02:55.936 23/06/1995]',0.077,-0.174,94.900,53.200,90.450,0.000,-0.264
'[13:02:55.938 23/06/1995]',0.077,-0.174,94.900,53.200,90.450,0.000,-0.264
'[13:02:55.940 23/06/1995]',0.067,-0.174,94.900,53.200,90.450,0.000,-0.264
'[13:02:55.942 23/06/1995]',0.067,-0.185,94.900,53.200,90.450,0.000,-0.264
'[13:02:55.944 23/06/1995]',0.056,-0.197,95.350,52.200,90.000,0.000,-0.260
'[13:02:55.946 23/06/1995]',0.056,-0.207,95.350,52.200,90.000,0.000,-0.260
'[13:02:55.948 23/06/1995]',0.056,-0.197,95.350,52.200,90.000,0.000,-0.260
'[13:02:55.950 23/06/1995]',0.067,-0.197,95.350,52.200,90.000,0.000,-0.260
'[13:02:55.952 23/06/1995]',0.067,-0.185,95.400,51.075,89.450,0.000,-0.256
'[13:02:55.954 23/06/1995]',0.067,-0.185,95.400,51.075,89.450,0.000,-0.256
'[13:02:55.956 23/06/1995]',0.067,-0.185,95.400,51.075,89.450,0.000,-0.256
'[13:02:55.958 23/06/1995]',0.056,-0.185,95.400,51.075,89.450,0.000,-0.256
'[13:02:55.960 23/06/1995]',0.056,-0.197,95.050,49.975,88.800,0.000,-0.253
'[13:02:55.962 23/06/1995]',0.056,-0.207,95.050,49.975,88.800,0.000,-0.253
'[13:02:55.964 23/06/1995]',0.056,-0.207,95.050,49.975,88.800,0.000,-0.253
'[13:02:55.966 23/06/1995]',0.056,-0.207,95.050,49.975,88.800,0.000,-0.253
'[13:02:55.968 23/06/1995]',0.056,-0.197,94.450,49.100,88.100,0.000,-0.248
'[13:02:55.970 23/06/1995]',0.056,-0.185,94.450,49.100,88.100,0.000,-0.248
'[13:02:55.972 23/06/1995]',0.056,-0.185,94.450,49.100,88.100,0.000,-0.248
'[13:02:55.974 23/06/1995]',0.056,-0.197,94.450,49.100,88.100,0.000,-0.248
'[13:02:55.976 23/06/1995]',0.056,-0.197,93.450,48.625,87.450,0.000,-0.244
'[13:02:55.978 23/06/1995]',0.056,-0.197,93.450,48.625,87.450,0.000,-0.244
'[13:02:55.980 23/06/1995]',0.056,-0.197,93.450,48.625,87.450,0.000,-0.244
'[13:02:55.982 23/06/1995]',0.056,-0.197,93.450,48.625,87.450,0.000,-0.244
'[13:02:55.984 23/06/1995]',0.056,-0.185,92.200,48.375,86.850,0.000,-0.240
'[13:02:55.986 23/06/1995]',0.067,-0.185,92.200,48.375,86.850,0.000,-0.240
'[13:02:55.988 23/06/1995]',0.056,-0.174,92.200,48.375,86.850,0.000,-0.240
'[13:02:55.990 23/06/1995]',0.056,-0.174,92.200,48.375,86.850,0.000,-0.240
'[13:02:55.992 23/06/1995]',0.056,-0.164,90.950,48.275,86.350,0.000,-0.234
'[13:02:55.994 23/06/1995]',0.056,-0.174,90.950,48.275,86.350,0.000,-0.234
'[13:02:55.996 23/06/1995]',0.056,-0.174,90.950,48.275,86.350,0.000,-0.234
'[13:02:55.998 23/06/1995]',0.056,-0.174,90.950,48.275,86.350,0.000,-0.234
'[13:02:56.000 23/06/1995]',0.056,-0.164,89.600,48.325,85.950,0.000,-0.229
'[13:02:56.002 23/06/1995]',0.056,-0.164,89.600,48.325,85.950,0.000,-0.229
'[13:02:56.004 23/06/1995]',0.056,-0.153,89.600,48.325,85.950,0.000,-0.229
'[13:02:56.006 23/06/1995]',0.056,-0.153,89.600,48.325,85.950,0.000,-0.229
'[13:02:56.008 23/06/1995]',0.044,-0.153,88.150,48.500,85.700,0.000,-0.222
'[13:02:56.010 23/06/1995]',0.022,-0.153,88.150,48.500,85.700,0.000,-0.222
'[13:02:56.012 23/06/1995]',0.034,-0.142,88.150,48.500,85.700,0.000,-0.222
'[13:02:56.014 23/06/1995]',0.034,-0.142,88.150,48.500,85.700,0.000,-0.222
'[13:02:56.016 23/06/1995]',0.034,-0.131,86.500,48.625,85.700,0.000,-0.214
'[13:02:56.018 23/06/1995]',0.034,-0.131,86.500,48.625,85.700,0.000,-0.214
'[13:02:56.020 23/06/1995]',0.034,-0.120,86.500,48.625,85.700,0.000,-0.214
'[13:02:56.022 23/06/1995]',0.034,-0.109,86.500,48.625,85.700,0.000,-0.214
'[13:02:56.024 23/06/1995]',0.034,-0.098,84.800,48.675,85.950,0.000,-0.206
'[13:02:56.026 23/06/1995]',0.022,-0.098,84.800,48.675,85.950,0.000,-0.206
'[13:02:56.028 23/06/1995]',0.022,-0.098,84.800,48.675,85.950,0.000,-0.206
'[13:02:56.030 23/06/1995]',0.022,-0.098,84.800,48.675,85.950,0.000,-0.206
'[13:02:56.032 23/06/1995]',0.022,-0.087,83.300,48.625,86.450,0.000,-0.198
'[13:02:56.034 23/06/1995]',0.022,-0.065,83.300,48.625,86.450,0.000,-0.198
'[13:02:56.036 23/06/1995]',0.011,-0.054,83.300,48.625,86.450,0.000,-0.198
'[13:02:56.038 23/06/1995]',0.001,-0.054,83.300,48.625,86.450,0.000,-0.198
'[13:02:56.040 23/06/1995]',0.001,-0.054,82.250,48.550,87.400,0.000,-0.189
'[13:02:56.042 23/06/1995]',0.001,-0.054,82.250,48.550,87.400,0.000,-0.189
'[13:02:56.044 23/06/1995]',0.001,-0.054,82.250,48.550,87.400,0.000,-0.189
'[13:02:56.046 23/06/1995]',0.011,-0.054,82.250,48.550,87.400,0.000,-0.189
'[13:02:56.048 23/06/1995]',0.011,-0.043,81.700,48.450,88.750,0.000,-0.180
'[13:02:56.050 23/06/1995]',0.001,-0.032,81.700,48.450,88.750,0.000,-0.180
'[13:02:56.052 23/06/1995]',0.001,-0.021,81.700,48.450,88.750,0.000,-0.180
'[13:02:56.054 23/06/1995]',0.001,-0.010,81.700,48.450,88.750,0.000,-0.180
'[13:02:56.056 23/06/1995]',0.001,-0.010,81.850,48.275,90.500,0.000,-0.172
'[13:02:56.058 23/06/1995]',-0.010,-0.010,81.850,48.275,90.500,0.000,-0.172
'[13:02:56.060 23/06/1995]',-0.010,0.001,81.850,48.275,90.500,0.000,-0.172
'[13:02:56.062 23/06/1995]',-0.010,-0.010,81.850,48.275,90.500,0.000,-0.172
'[13:02:56.064 23/06/1995]',-0.010,0.001,82.400,48.100,92.600,0.000,-0.163
'[13:02:56.066 23/06/1995]',-0.010,0.001,82.400,48.100,92.600,0.000,-0.163
'[13:02:56.068 23/06/1995]',-0.021,0.001,82.400,48.100,92.600,0.000,-0.163
'[13:02:56.070 23/06/1995]',-0.021,0.001,82.400,48.100,92.600,0.000,-0.163
'[13:02:56.072 23/06/1995]',-0.021,0.001,83.550,47.925,95.000,0.000,-0.155
'[13:02:56.074 23/06/1995]',-0.021,0.001,83.550,47.925,95.000,0.000,-0.155
'[13:02:56.076 23/06/1995]',-0.021,0.001,83.550,47.925,95.000,0.000,-0.155
'[13:02:56.078 23/06/1995]',-0.032,0.001,83.550,47.925,95.000,0.000,-0.155
'[13:02:56.080 23/06/1995]',-0.043,0.001,85.100,47.850,97.650,0.000,-0.147
'[13:02:56.082 23/06/1995]',-0.043,0.022,85.100,47.850,97.650,0.000,-0.147
'[13:02:56.084 23/06/1995]',-0.032,0.022,85.100,47.850,97.650,0.000,-0.147
'[13:02:56.086 23/06/1995]',-0.032,0.034,85.100,47.850,97.650,0.000,-0.147
'[13:02:56.088 23/06/1995]',-0.032,0.044,87.050,47.800,100.650,0.000,-0.140
'[13:02:56.090 23/06/1995]',-0.032,0.034,87.050,47.800,100.650,0.000,-0.140
'[13:02:56.092 23/06/1995]',-0.032,0.034,87.050,47.800,100.650,0.000,-0.140
'[13:02:56.094 23/06/1995]',-0.043,0.034,87.050,47.800,100.650,0.000,-0.140
'[13:02:56.096 23/06/1995]',-0.043,0.034,89.150,47.750,103.750,0.000,-0.133
'[13:02:56.098 23/06/1995]',-0.043,0.034,89.150,47.750,103.750,0.000,-0.133
'[13:02:56.100 23/06/1995]',-0.043,0.044,89.150,47.750,103.750,0.000,-0.133
'[13:02:56.102 23/06/1995]',-0.043,0.056,89.150,47.750,103.750,0.000,-0.133
'[13:02:56.104 23/06/1995]',-0.043,0.056,91.400,47.750,106.950,0.000,-0.127
'[13:02:56.106 23/06/1995]',-0.043,0.056,91.400,47.750,106.950,0.000,-0.127
'[13:02:56.108 23/06/1995]',-0.043,0.056,91.400,47.750,106.950,0.000,-0.127
'[13:02:56.110 23/06/1995]',-0.043,0.056,91.400,47.750,106.950,0.000,-0.127
'[13:02:56.112 23/06/1995]',-0.043,0.056,93.500,47.675,110.050,0.000,-0.120
'[13:02:56.114 23/06/1995]',-0.043,0.056,93.500,47.675,110.050,0.000,-0.120
'[13:02:56.116 23/06/1995]',-0.043,0.056,93.500,47.675,110.050,0.000,-0.120
'[13:02:56.118 23/06/1995]',-0.043,0.056,93.500,47.675,110.050,0.000,-0.120
'[13:02:56.120 23/06/1995]',-0.032,0.067,95.550,47.675,113.100,0.000,-0.115
'[13:02:56.122 23/06/1995]',-0.043,0.067,95.550,47.675,113.100,0.000,-0.115
'[13:02:56.124 23/06/1995]',-0.043,0.067,95.550,47.675,113.100,0.000,-0.115
'[13:02:56.126 23/06/1995]',-0.054,0.067,95.550,47.675,113.100,0.000,-0.115
'[13:02:56.128 23/06/1995]',-0.054,0.056,97.300,47.625,115.800,0.000,-0.110
'[13:02:56.130 23/06/1995]',-0.054,0.056,97.300,47.625,115.800,0.000,-0.110
'[13:02:56.132 23/06/1995]',-0.054,0.056,97.300,47.625,115.800,0.000,-0.110
'[13:02:56.134 23/06/1995]',-0.054,0.067,97.300,47.625,115.800,0.000,-0.110
'[13:02:56.136 23/06/1995]',-0.054,0.077,98.900,47.500,118.100,0.000,-0.105
'[13:02:56.138 23/06/1995]',-0.054,0.088,98.900,47.500,118.100,0.000,-0.105
'[13:02:56.140 23/06/1995]',-0.054,0.077,98.900,47.500,118.100,0.000,-0.105
'[13:02:56.142 23/06/1995]',-0.054,0.067,98.900,47.500,118.100,0.000,-0.105
'[13:02:56.144 23/06/1995]',-0.054,0.067,100.100,47.400,119.900,0.000,-0.102
'[13:02:56.146 23/06/1995]',-0.065,0.056,100.100,47.400,119.900,0.000,-0.102
'[13:02:56.148 23/06/1995]',-0.054,0.056,100.100,47.400,119.900,0.000,-0.102
'[13:02:56.150 23/06/1995]',-0.054,0.056,100.100,47.400,119.900,0.000,-0.102
'[13:02:56.152 23/06/1995]',-0.054,0.056,101.000,47.225,121.200,0.000,-0.098
'[13:02:56.154 23/06/1995]',-0.054,0.067,101.000,47.225,121.200,0.000,-0.098
'[13:02:56.156 23/06/1995]',-0.054,0.067,101.000,47.225,121.200,0.000,-0.098
'[13:02:56.158 23/06/1995]',-0.054,0.067,101.000,47.225,121.200,0.000,-0.098
'[13:02:56.160 23/06/1995]',-0.054,0.067,101.500,46.925,121.800,0.000,-0.095
'[13:02:56.162 23/06/1995]',-0.054,0.056,101.500,46.925,121.800,0.000,-0.095
'[13:02:56.164 23/06/1995]',-0.054,0.067,101.500,46.925,121.800,0.000,-0.095
'[13:02:56.166 23/06/1995]',-0.054,0.067,101.500,46.925,121.800,0.000,-0.095
'[13:02:56.168 23/06/1995]',-0.054,0.056,102.000,46.575,121.850,0.000,-0.091
'[13:02:56.170 23/06/1995]',-0.054,0.067,102.000,46.575,121.850,0.000,-0.091
'[13:02:56.172 23/06/1995]',-0.043,0.067,102.000,46.575,121.850,0.000,-0.091
'[13:02:56.174 23/06/1995]',-0.054,0.067,102.000,46.575,121.850,0.000,-0.091
'[13:02:56.176 23/06/1995]',-0.043,0.067,102.550,46.225,121.300,0.000,-0.088
'[13:02:56.178 23/06/1995]',-0.054,0.067,102.550,46.225,121.300,0.000,-0.088
'[13:02:56.180 23/06/1995]',-0.054,0.056,102.550,46.225,121.300,0.000,-0.088
'[13:02:56.182 23/06/1995]',-0.054,0.067,102.550,46.225,121.300,0.000,-0.088
'[13:02:56.184 23/06/1995]',-0.054,0.067,103.350,45.925,120.200,0.000,-0.086
'[13:02:56.186 23/06/1995]',-0.054,0.067,103.350,45.925,120.200,0.000,-0.086
