'Time and date','II','aVF','V','ABP','PLETH','RESP'
'hh:mm:ss.mmm dd/mm/yyyy','mV','mV','mV','mmHg','mV','mV'
'[13:39:24.000 02/12/1995]',-0.043,-0.076,0.001,54.240,-0.844,-0.677
'[13:39:24.002 02/12/1995]',-0.043,-0.076,0.001,54.240,-0.844,-0.677
'[13:39:24.004 02/12/1995]',-0.043,-0.065,0.001,54.240,-0.844,-0.677
'[13:39:24.006 02/12/1995]',-0.021,-0.043,0.001,54.240,-0.844,-0.677
'[13:39:24.008 02/12/1995]',-0.010,-0.021,0.001,54.140,-0.844,-0.680
'[13:39:24.010 02/12/1995]',-0.010,-0.010,0.001,54.140,-0.844,-0.680
'[13:39:24.012 02/12/1995]',0.001,-0.021,0.001,54.140,-0.844,-0.680
'[13:39:24.014 02/12/1995]',-0.010,-0.032,0.001,54.140,-0.844,-0.680
'[13:39:24.016 02/12/1995]',-0.021,-0.043,0.010,54.090,-0.844,-0.683
'[13:39:24.018 02/12/1995]',-0.032,-0.065,0.010,54.090,-0.844,-0.683
'[13:39:24.020 02/12/1995]',-0.032,-0.065,0.010,54.090,-0.844,-0.683
'[13:39:24.022 02/12/1995]',-0.021,-0.043,0.001,54.090,-0.844,-0.683
'[13:39:24.024 02/12/1995]',0.001,-0.010,0.001,54.090,-0.830,-0.688
'[13:39:24.026 02/12/1995]',0.001,0.001,0.001,54.090,-0.830,-0.688
'[13:39:24.028 02/12/1995]',0.001,-0.010,0.001,54.090,-0.830,-0.688
'[13:39:24.030 02/12/1995]',0.001,-0.021,0.010,54.090,-0.830,-0.688
'[13:39:24.032 02/12/1995]',0.001,-0.032,0.020,54.290,-0.830,-0.692
'[13:39:24.034 02/12/1995]',-0.010,-0.054,0.030,54.290,-0.830,-0.692
'[13:39:24.036 02/12/1995]',-0.021,-0.054,0.020,54.290,-0.830,-0.692
'[13:39:24.038 02/12/1995]',-0.010,-0.032,0.030,54.290,-0.830,-0.692
'[13:39:24.040 02/12/1995]',0.001,-0.010,0.010,54.891,-0.830,-0.697
'[13:39:24.042 02/12/1995]',0.022,0.001,0.010,54.891,-0.830,-0.697
'[13:39:24.044 02/12/1995]',0.022,0.001,0.010,54.891,-0.830,-0.697
'[13:39:24.046 02/12/1995]',0.022,0.001,0.010,54.891,-0.830,-0.697
'[13:39:24.048 02/12/1995]',0.011,-0.010,0.030,55.943,-0.815,-0.702
'[13:39:24.050 02/12/1995]',0.001,-0.032,0.030,55.943,-0.815,-0.702
'[13:39:24.052 02/12/1995]',0.001,-0.043,0.040,55.943,-0.815,-0.702
'[13:39:24.054 02/12/1995]',0.001,-0.032,0.030,55.943,-0.815,-0.702
'[13:39:24.056 02/12/1995]',0.022,0.001,0.030,57.496,-0.815,-0.708
'[13:39:24.058 02/12/1995]',0.033,0.001,0.020,57.496,-0.815,-0.708
'[13:39:24.060 02/12/1995]',0.044,0.011,0.020,57.496,-0.815,-0.708
'[13:39:24.062 02/12/1995]',0.044,0.001,0.030,57.496,-0.815,-0.708
'[13:39:24.064 02/12/1995]',0.044,0.001,0.040,59.900,-0.815,-0.713
'[13:39:24.066 02/12/1995]',0.022,-0.010,0.040,59.900,-0.815,-0.713
'[13:39:24.068 02/12/1995]',0.022,-0.021,0.059,59.900,-0.815,-0.713
'[13:39:24.070 02/12/1995]',0.022,-0.010,0.049,59.900,-0.815,-0.713
'[13:39:24.072 02/12/1995]',0.033,0.001,0.040,63.305,-0.785,-0.718
'[13:39:24.074 02/12/1995]',0.055,0.001,0.040,63.305,-0.785,-0.718
'[13:39:24.076 02/12/1995]',0.066,0.022,0.040,63.305,-0.785,-0.718
'[13:39:24.078 02/12/1995]',0.077,0.022,0.040,63.305,-0.785,-0.718
'[13:39:24.080 02/12/1995]',0.077,0.022,0.049,67.512,-0.770,-0.722
'[13:39:24.082 02/12/1995]',0.055,0.001,0.059,67.512,-0.770,-0.722
'[13:39:24.084 02/12/1995]',0.044,0.001,0.069,67.512,-0.770,-0.722
'[13:39:24.086 02/12/1995]',0.044,0.001,0.069,67.512,-0.770,-0.722
'[13:39:24.088 02/12/1995]',0.066,0.001,0.069,72.270,-0.770,-0.726
'[13:39:24.090 02/12/1995]',0.077,0.022,0.049,72.270,-0.770,-0.726
'[13:39:24.092 02/12/1995]',0.088,0.044,0.059,72.270,-0.770,-0.726
'[13:39:24.094 02/12/1995]',0.099,0.044,0.059,72.270,-0.770,-0.726
'[13:39:24.096 02/12/1995]',0.099,0.044,0.069,76.978,-0.741,-0.729
'[13:39:24.098 02/12/1995]',0.088,0.011,0.079,76.978,-0.741,-0.729
'[13:39:24.100 02/12/1995]',0.088,0.001,0.089,76.978,-0.741,-0.729
'[13:39:24.102 02/12/1995]',0.077,0.001,0.089,76.978,-0.741,-0.729
'[13:39:24.104 02/12/1995]',0.088,0.011,0.089,81.235,-0.711,-0.732
'[13:39:24.106 02/12/1995]',0.110,0.034,0.079,81.235,-0.711,-0.732
'[13:39:24.108 02/12/1995]',0.121,0.067,0.079,81.235,-0.711,-0.732
'[13:39:24.110 02/12/1995]',0.143,0.077,0.079,81.235,-0.711,-0.732
'[13:39:24.112 02/12/1995]',0.143,0.067,0.089,84.841,-0.696,-0.735
'[13:39:24.114 02/12/1995]',0.132,0.056,0.089,84.841,-0.696,-0.735
'[13:39:24.116 02/12/1995]',0.121,0.034,0.089,84.841,-0.696,-0.735
'[13:39:24.118 02/12/1995]',0.121,0.034,0.099,84.841,-0.696,-0.735
'[13:39:24.120 02/12/1995]',0.121,0.034,0.099,87.596,-0.651,-0.738
'[13:39:24.122 02/12/1995]',0.132,0.067,0.099,87.596,-0.651,-0.738
'[13:39:24.124 02/12/1995]',0.154,0.088,0.089,87.596,-0.651,-0.738
'[13:39:24.126 02/12/1995]',0.164,0.111,0.089,87.596,-0.651,-0.738
'[13:39:24.128 02/12/1995]',0.175,0.111,0.089,89.699,-0.593,-0.741
'[13:39:24.130 02/12/1995]',0.164,0.088,0.099,89.699,-0.593,-0.741
'[13:39:24.132 02/12/1995]',0.154,0.077,0.108,89.699,-0.593,-0.741
'[13:39:24.134 02/12/1995]',0.154,0.067,0.118,89.699,-0.593,-0.741
'[13:39:24.136 02/12/1995]',0.143,0.067,0.118,91.402,-0.533,-0.743
'[13:39:24.138 02/12/1995]',0.143,0.077,0.118,91.402,-0.533,-0.743
'[13:39:24.140 02/12/1995]',0.164,0.100,0.108,91.402,-0.533,-0.743
'[13:39:24.142 02/12/1995]',0.186,0.121,0.108,91.402,-0.533,-0.743
'[13:39:24.144 02/12/1995]',0.186,0.133,0.099,92.855,-0.459,-0.744
'[13:39:24.146 02/12/1995]',0.186,0.121,0.108,92.855,-0.459,-0.744
'[13:39:24.148 02/12/1995]',0.175,0.088,0.118,92.855,-0.459,-0.744
'[13:39:24.150 02/12/1995]',0.164,0.077,0.118,92.855,-0.459,-0.744
'[13:39:24.152 02/12/1995]',0.164,0.067,0.128,94.107,-0.385,-0.745
'[13:39:24.154 02/12/1995]',0.164,0.077,0.118,94.107,-0.385,-0.745
'[13:39:24.156 02/12/1995]',0.175,0.111,0.108,94.107,-0.385,-0.745
'[13:39:24.158 02/12/1995]',0.186,0.121,0.099,94.107,-0.385,-0.745
'[13:39:24.160 02/12/1995]',0.186,0.133,0.099,95.108,-0.281,-0.746
'[13:39:24.162 02/12/1995]',0.186,0.121,0.099,95.108,-0.281,-0.746
'[13:39:24.164 02/12/1995]',0.186,0.111,0.108,95.108,-0.281,-0.746
'[13:39:24.166 02/12/1995]',0.164,0.088,0.108,95.108,-0.281,-0.746
'[13:39:24.168 02/12/1995]',0.154,0.067,0.108,95.860,-0.193,-0.747
'[13:39:24.170 02/12/1995]',0.154,0.077,0.108,95.860,-0.193,-0.747
'[13:39:24.172 02/12/1995]',0.154,0.088,0.099,95.860,-0.193,-0.747
'[13:39:24.174 02/12/1995]',0.164,0.111,0.089,95.860,-0.193,-0.747
'[13:39:24.176 02/12/1995]',0.164,0.121,0.089,96.461,-0.103,-0.747
'[13:39:24.178 02/12/1995]',0.164,0.121,0.089,96.461,-0.103,-0.747
'[13:39:24.180 02/12/1995]',0.154,0.100,0.089,96.461,-0.103,-0.747
'[13:39:24.182 02/12/1995]',0.132,0.067,0.089,96.461,-0.103,-0.747
'[13:39:24.184 02/12/1995]',0.121,0.056,0.089,96.861,-0.015,-0.748
'[13:39:24.186 02/12/1995]',0.099,0.044,0.089,96.861,-0.015,-0.748
'[13:39:24.188 02/12/1995]',0.110,0.056,0.079,96.861,-0.015,-0.748
'[13:39:24.190 02/12/1995]',0.121,0.067,0.059,96.861,-0.015,-0.748
'[13:39:24.192 02/12/1995]',0.121,0.088,0.049,96.911,0.059,-0.748
'[13:39:24.194 02/12/1995]',0.121,0.077,0.040,96.911,0.059,-0.748
'[13:39:24.196 02/12/1995]',0.110,0.067,0.049,96.911,0.059,-0.748
'[13:39:24.198 02/12/1995]',0.088,0.044,0.049,96.911,0.059,-0.748
'[13:39:24.200 02/12/1995]',0.066,0.022,0.049,96.811,0.148,-0.749
'[13:39:24.202 02/12/1995]',0.044,0.011,0.049,96.811,0.148,-0.749
'[13:39:24.204 02/12/1995]',0.044,0.011,0.030,96.811,0.148,-0.749
'[13:39:24.206 02/12/1995]',0.044,0.022,0.020,96.811,0.148,-0.749
'[13:39:24.208 02/12/1995]',0.055,0.044,0.010,96.461,0.223,-0.750
'[13:39:24.210 02/12/1995]',0.055,0.044,0.001,96.461,0.223,-0.750
'[13:39:24.212 02/12/1995]',0.055,0.034,0.001,96.461,0.223,-0.750
'[13:39:24.214 02/12/1995]',0.033,0.001,0.001,96.461,0.223,-0.750
'[13:39:24.216 02/12/1995]',0.022,0.001,0.001,96.010,0.311,-0.751
'[13:39:24.218 02/12/1995]',0.001,-0.010,0.001,96.010,0.311,-0.751
'[13:39:24.220 02/12/1995]',0.001,0.001,0.001,96.010,0.311,-0.751
'[13:39:24.222 02/12/1995]',0.001,0.001,0.001,96.010,0.311,-0.751
'[13:39:24.224 02/12/1995]',0.011,0.001,-0.009,95.459,0.355,-0.752
'[13:39:24.226 02/12/1995]',0.011,0.011,-0.019,95.459,0.355,-0.752
'[13:39:24.228 02/12/1995]',0.011,0.001,-0.019,95.459,0.355,-0.752
'[13:39:24.230 02/12/1995]',0.001,0.001,-0.009,95.459,0.355,-0.752
'[13:39:24.232 02/12/1995]',-0.010,-0.010,-0.009,94.758,0.415,-0.752
'[13:39:24.234 02/12/1995]',-0.021,-0.032,-0.009,94.758,0.415,-0.752
'[13:39:24.236 02/12/1995]',-0.032,-0.043,-0.009,94.758,0.415,-0.752
'[13:39:24.238 02/12/1995]',-0.032,-0.032,-0.019,94.758,0.415,-0.752
'[13:39:24.240 02/12/1995]',-0.021,0.001,-0.029,93.956,0.445,-0.752
'[13:39:24.242 02/12/1995]',-0.010,0.001,-0.029,93.956,0.445,-0.752
'[13:39:24.244 02/12/1995]',-0.010,0.001,-0.038,93.956,0.445,-0.752
'[13:39:24.246 02/12/1995]',-0.021,0.001,-0.038,93.956,0.445,-0.752
'[13:39:24.248 02/12/1995]',-0.032,-0.032,-0.029,92.955,0.474,-0.752
'[13:39:24.250 02/12/1995]',-0.043,-0.054,-0.029,92.955,0.474,-0.752
'[13:39:24.252 02/12/1995]',-0.065,-0.065,-0.019,92.955,0.474,-0.752
'[13:39:24.254 02/12/1995]',-0.054,-0.054,-0.029,92.955,0.474,-0.752
'[13:39:24.256 02/12/1995]',-0.043,-0.032,-0.038,91.603,0.533,-0.752
'[13:39:24.258 02/12/1995]',-0.032,-0.010,-0.038,91.603,0.533,-0.752
'[13:39:24.260 02/12/1995]',-0.021,-0.010,-0.058,91.603,0.533,-0.752
'[13:39:24.262 02/12/1995]',-0.032,-0.021,-0.048,91.603,0.533,-0.752
'[13:39:24.264 02/12/1995]',-0.043,-0.043,-0.038,90.000,0.533,-0.751
'[13:39:24.266 02/12/1995]',-0.065,-0.065,-0.029,90.000,0.533,-0.751
'[13:39:24.268 02/12/1995]',-0.065,-0.065,-0.029,90.000,0.533,-0.751
'[13:39:24.270 02/12/1995]',-0.065,-0.065,-0.038,90.000,0.533,-0.751
'[13:39:24.272 02/12/1995]',-0.065,-0.043,-0.048,88.097,0.533,-0.750
'[13:39:24.274 02/12/1995]',-0.043,-0.032,-0.048,88.097,0.533,-0.750
'[13:39:24.276 02/12/1995]',-0.032,-0.010,-0.058,88.097,0.533,-0.750
'[13:39:24.278 02/12/1995]',-0.032,-0.010,-0.058,88.097,0.533,-0.750
'[13:39:24.280 02/12/1995]',-0.043,-0.032,-0.048,85.843,0.548,-0.749
'[13:39:24.282 02/12/1995]',-0.065,-0.065,-0.038,85.843,0.548,-0.749
'[13:39:24.284 02/12/1995]',-0.065,-0.076,-0.038,85.843,0.548,-0.749
'[13:39:24.286 02/12/1995]',-0.076,-0.076,-0.038,85.843,0.548,-0.749
'[13:39:24.288 02/12/1995]',-0.065,-0.065,-0.038,83.239,0.548,-0.748
'[13:39:24.290 02/12/1995]',-0.065,-0.043,-0.058,83.239,0.548,-0.748
'[13:39:24.292 02/12/1995]',-0.043,-0.032,-0.058,83.239,0.548,-0.748
'[13:39:24.294 02/12/1995]',-0.043,-0.032,-0.058,83.239,0.548,-0.748
'[13:39:24.296 02/12/1995]',-0.043,-0.043,-0.058,80.434,0.533,-0.746
'[13:39:24.298 02/12/1995]',-0.065,-0.065,-0.048,80.434,0.533,-0.746
'[13:39:24.300 02/12/1995]',-0.076,-0.087,-0.038,80.434,0.533,-0.746
'[13:39:24.302 02/12/1995]',-0.086,-0.098,-0.038,80.434,0.533,-0.746
'[13:39:24.304 02/12/1995]',-0.076,-0.087,-0.048,77.429,0.518,-0.745
'[13:39:24.306 02/12/1995]',-0.065,-0.054,-0.048,77.429,0.518,-0.745
'[13:39:24.308 02/12/1995]',-0.054,-0.043,-0.068,77.429,0.518,-0.745
'[13:39:24.310 02/12/1995]',-0.054,-0.043,-0.068,77.429,0.518,-0.745
'[13:39:24.312 02/12/1995]',-0.054,-0.043,-0.058,74.524,0.503,-0.744
'[13:39:24.314 02/12/1995]',-0.065,-0.065,-0.048,74.524,0.503,-0.744
'[13:39:24.316 02/12/1995]',-0.076,-0.087,-0.048,74.524,0.503,-0.744
'[13:39:24.318 02/12/1995]',-0.086,-0.109,-0.038,74.524,0.503,-0.744
'[13:39:24.320 02/12/1995]',-0.086,-0.098,-0.038,71.970,0.445,-0.744
'[13:39:24.322 02/12/1995]',-0.076,-0.076,-0.048,71.970,0.445,-0.744
'[13:39:24.324 02/12/1995]',-0.065,-0.043,-0.058,71.970,0.445,-0.744
'[13:39:24.326 02/12/1995]',-0.043,-0.043,-0.068,71.970,0.445,-0.744
'[13:39:24.328 02/12/1995]',-0.065,-0.043,-0.058,70.167,0.415,-0.743
'[13:39:24.330 02/12/1995]',-0.065,-0.065,-0.058,70.167,0.415,-0.743
'[13:39:24.332 02/12/1995]',-0.076,-0.087,-0.048,70.167,0.415,-0.743
'[13:39:24.334 02/12/1995]',-0.086,-0.109,-0.038,70.167,0.415,-0.743
'[13:39:24.336 02/12/1995]',-0.086,-0.109,-0.048,69.416,0.385,-0.743
'[13:39:24.338 02/12/1995]',-0.097,-0.098,-0.048,69.416,0.385,-0.743
'[13:39:24.340 02/12/1995]',-0.076,-0.076,-0.058,69.416,0.385,-0.743
'[13:39:24.342 02/12/1995]',-0.065,-0.065,-0.068,69.416,0.385,-0.743
'[13:39:24.344 02/12/1995]',-0.065,-0.054,-0.068,69.766,0.326,-0.744
'[13:39:24.346 02/12/1995]',-0.065,-0.076,-0.068,69.766,0.326,-0.744
'[13:39:24.348 02/12/1995]',-0.076,-0.087,-0.048,69.766,0.326,-0.744
'[13:39:24.350 02/12/1995]',-0.086,-0.109,-0.058,69.766,0.326,-0.744
'[13:39:24.352 02/12/1995]',-0.097,-0.120,-0.048,70.968,0.281,-0.744
'[13:39:24.354 02/12/1995]',-0.086,-0.098,-0.048,70.968,0.281,-0.744
'[13:39:24.356 02/12/1995]',-0.076,-0.076,-0.058,70.968,0.281,-0.744
'[13:39:24.358 02/12/1995]',-0.065,-0.065,-0.058,70.968,0.281,-0.744
'[13:39:24.360 02/12/1995]',-0.065,-0.054,-0.068,72.521,0.207,-0.745
'[13:39:24.362 02/12/1995]',-0.065,-0.065,-0.058,72.521,0.207,-0.745
'[13:39:24.364 02/12/1995]',-0.065,-0.087,-0.058,72.521,0.207,-0.745
'[13:39:24.366 02/12/1995]',-0.086,-0.098,-0.048,72.521,0.207,-0.745
'[13:39:24.368 02/12/1995]',-0.086,-0.120,-0.048,73.923,0.134,-0.745
'[13:39:24.370 02/12/1995]',-0.097,-0.120,-0.038,73.923,0.134,-0.745
'[13:39:24.372 02/12/1995]',-0.086,-0.098,-0.058,73.923,0.134,-0.745
'[13:39:24.374 02/12/1995]',-0.065,-0.065,-0.058,73.923,0.134,-0.745
'[13:39:24.376 02/12/1995]',-0.065,-0.054,-0.068,74.774,0.089,-0.745
'[13:39:24.378 02/12/1995]',-0.065,-0.065,-0.078,74.774,0.089,-0.745
'[13:39:24.380 02/12/1995]',-0.065,-0.076,-0.058,74.774,0.089,-0.745
'[13:39:24.382 02/12/1995]',-0.086,-0.098,-0.048,74.774,0.089,-0.745
'[13:39:24.384 02/12/1995]',-0.086,-0.109,-0.048,75.175,0.015,-0.745
'[13:39:24.386 02/12/1995]',-0.097,-0.120,-0.048,75.175,0.015,-0.745
'[13:39:24.388 02/12/1995]',-0.086,-0.109,-0.048,75.175,0.015,-0.745
'[13:39:24.390 02/12/1995]',-0.076,-0.076,-0.058,75.175,0.015,-0.745
'[13:39:24.392 02/12/1995]',-0.065,-0.054,-0.068,75.025,-0.059,-0.745
'[13:39:24.394 02/12/1995]',-0.065,-0.054,-0.068,75.025,-0.059,-0.745
'[13:39:24.396 02/12/1995]',-0.065,-0.065,-0.058,75.025,-0.059,-0.745
'[13:39:24.398 02/12/1995]',-0.086,-0.098,-0.048,75.025,-0.059,-0.745
'[13:39:24.400 02/12/1995]',-0.086,-0.109,-0.038,74.674,-0.089,-0.745
'[13:39:24.402 02/12/1995]',-0.097,-0.120,-0.038,74.674,-0.089,-0.745
'[13:39:24.404 02/12/1995]',-0.108,-0.109,-0.048,74.674,-0.089,-0.745
'[13:39:24.406 02/12/1995]',-0.086,-0.087,-0.058,74.674,-0.089,-0.745
'[13:39:24.408 02/12/1995]',-0.065,-0.065,-0.068,74.274,-0.148,-0.744
'[13:39:24.410 02/12/1995]',-0.065,-0.065,-0.058,74.274,-0.148,-0.744
'[13:39:24.412 02/12/1995]',-0.065,-0.065,-0.058,74.274,-0.148,-0.744
'[13:39:24.414 02/12/1995]',-0.076,-0.087,-0.048,74.274,-0.148,-0.744
'[13:39:24.416 02/12/1995]',-0.086,-0.109,-0.048,73.873,-0.177,-0.743
'[13:39:24.418 02/12/1995]',-0.097,-0.120,-0.038,73.873,-0.177,-0.743
'[13:39:24.420 02/12/1995]',-0.086,-0.109,-0.038,73.873,-0.177,-0.743
'[13:39:24.422 02/12/1995]',-0.086,-0.087,-0.048,73.873,-0.177,-0.743
'[13:39:24.424 02/12/1995]',-0.076,-0.076,-0.058,73.472,-0.207,-0.742
'[13:39:24.426 02/12/1995]',-0.065,-0.043,-0.058,73.472,-0.207,-0.742
'[13:39:24.428 02/12/1995]',-0.065,-0.054,-0.058,73.472,-0.207,-0.742
'[13:39:24.430 02/12/1995]',-0.065,-0.065,-0.048,73.472,-0.207,-0.742
'[13:39:24.432 02/12/1995]',-0.076,-0.098,-0.048,72.971,-0.222,-0.740
'[13:39:24.434 02/12/1995]',-0.097,-0.109,-0.038,72.971,-0.222,-0.740
'[13:39:24.436 02/12/1995]',-0.097,-0.120,-0.038,72.971,-0.222,-0.740
'[13:39:24.438 02/12/1995]',-0.086,-0.098,-0.048,72.971,-0.222,-0.740
'[13:39:24.440 02/12/1995]',-0.065,-0.065,-0.058,72.521,-0.237,-0.737
'[13:39:24.442 02/12/1995]',-0.065,-0.054,-0.058,72.521,-0.237,-0.737
'[13:39:24.444 02/12/1995]',-0.065,-0.054,-0.058,72.521,-0.237,-0.737
'[13:39:24.446 02/12/1995]',-0.065,-0.065,-0.048,72.521,-0.237,-0.737
'[13:39:24.448 02/12/1995]',-0.076,-0.087,-0.048,72.020,-0.252,-0.735
'[13:39:24.450 02/12/1995]',-0.086,-0.098,-0.038,72.020,-0.252,-0.735
'[13:39:24.452 02/12/1995]',-0.097,-0.109,-0.038,72.020,-0.252,-0.735
'[13:39:24.454 02/12/1995]',-0.086,-0.087,-0.038,72.020,-0.252,-0.735
'[13:39:24.456 02/12/1995]',-0.076,-0.076,-0.048,71.569,-0.237,-0.733
'[13:39:24.458 02/12/1995]',-0.065,-0.054,-0.058,71.569,-0.237,-0.733
'[13:39:24.460 02/12/1995]',-0.054,-0.054,-0.058,71.569,-0.237,-0.733
'[13:39:24.462 02/12/1995]',-0.065,-0.054,-0.048,71.569,-0.237,-0.733
'[13:39:24.464 02/12/1995]',-0.065,-0.076,-0.048,71.118,-0.252,-0.731
'[13:39:24.466 02/12/1995]',-0.086,-0.087,-0.038,71.118,-0.252,-0.731
'[13:39:24.468 02/12/1995]',-0.086,-0.109,-0.038,71.118,-0.252,-0.731
'[13:39:24.470 02/12/1995]',-0.086,-0.098,-0.029,71.118,-0.252,-0.731
'[13:39:24.472 02/12/1995]',-0.086,-0.087,-0.048,70.618,-0.252,-0.730
'[13:39:24.474 02/12/1995]',-0.065,-0.065,-0.048,70.618,-0.252,-0.730
'[13:39:24.476 02/12/1995]',-0.065,-0.043,-0.058,70.618,-0.252,-0.730
'[13:39:24.478 02/12/1995]',-0.054,-0.043,-0.058,70.618,-0.252,-0.730
'[13:39:24.480 02/12/1995]',-0.065,-0.065,-0.048,70.167,-0.252,-0.728
'[13:39:24.482 02/12/1995]',-0.076,-0.087,-0.038,70.167,-0.252,-0.728
'[13:39:24.484 02/12/1995]',-0.086,-0.098,-0.029,70.167,-0.252,-0.728
'[13:39:24.486 02/12/1995]',-0.086,-0.098,-0.029,70.167,-0.252,-0.728
'[13:39:24.488 02/12/1995]',-0.086,-0.087,-0.038,69.766,-0.267,-0.727
'[13:39:24.490 02/12/1995]',-0.065,-0.054,-0.048,69.766,-0.267,-0.727
'[13:39:24.492 02/12/1995]',-0.065,-0.043,-0.048,69.766,-0.267,-0.727
'[13:39:24.494 02/12/1995]',-0.054,-0.043,-0.048,69.766,-0.267,-0.727
'[13:39:24.496 02/12/1995]',-0.065,-0.054,-0.048,69.215,-0.296,-0.725
'[13:39:24.498 02/12/1995]',-0.065,-0.065,-0.038,69.215,-0.296,-0.725
'[13:39:24.500 02/12/1995]',-0.086,-0.087,-0.038,69.215,-0.296,-0.725
'[13:39:24.502 02/12/1995]',-0.086,-0.098,-0.029,69.215,-0.296,-0.725
'[13:39:24.504 02/12/1995]',-0.086,-0.087,-0.038,68.714,-0.296,-0.724
'[13:39:24.506 02/12/1995]',-0.076,-0.065,-0.048,68.714,-0.296,-0.724
'[13:39:24.508 02/12/1995]',-0.065,-0.043,-0.048,68.714,-0.296,-0.724
'[13:39:24.510 02/12/1995]',-0.054,-0.043,-0.058,68.714,-0.296,-0.724
'[13:39:24.512 02/12/1995]',-0.065,-0.043,-0.048,68.163,-0.341,-0.722
'[13:39:24.514 02/12/1995]',-0.065,-0.065,-0.038,68.163,-0.341,-0.722
'[13:39:24.516 02/12/1995]',-0.086,-0.087,-0.038,68.163,-0.341,-0.722
'[13:39:24.518 02/12/1995]',-0.086,-0.109,-0.029,68.163,-0.341,-0.722
'[13:39:24.520 02/12/1995]',-0.086,-0.098,-0.029,67.713,-0.370,-0.721
'[13:39:24.522 02/12/1995]',-0.086,-0.076,-0.038,67.713,-0.370,-0.721
'[13:39:24.524 02/12/1995]',-0.065,-0.054,-0.048,67.713,-0.370,-0.721
'[13:39:24.526 02/12/1995]',-0.054,-0.032,-0.058,67.713,-0.370,-0.721
'[13:39:24.528 02/12/1995]',-0.054,-0.043,-0.058,67.212,-0.385,-0.720
'[13:39:24.530 02/12/1995]',-0.065,-0.065,-0.038,67.212,-0.385,-0.720
'[13:39:24.532 02/12/1995]',-0.076,-0.087,-0.029,67.212,-0.385,-0.720
'[13:39:24.534 02/12/1995]',-0.086,-0.098,-0.029,67.212,-0.385,-0.720
'[13:39:24.536 02/12/1995]',-0.086,-0.098,-0.029,66.711,-0.429,-0.718
'[13:39:24.538 02/12/1995]',-0.086,-0.087,-0.038,66.711,-0.429,-0.718
'[13:39:24.540 02/12/1995]',-0.065,-0.054,-0.038,66.711,-0.429,-0.718
'[13:39:24.542 02/12/1995]',-0.054,-0.032,-0.048,66.711,-0.429,-0.718
'[13:39:24.544 02/12/1995]',-0.043,-0.043,-0.048,66.210,-0.415,-0.717
'[13:39:24.546 02/12/1995]',-0.054,-0.043,-0.038,66.210,-0.415,-0.717
'[13:39:24.548 02/12/1995]',-0.065,-0.076,-0.029,66.210,-0.415,-0.717
'[13:39:24.550 02/12/1995]',-0.086,-0.087,-0.029,66.210,-0.415,-0.717
'[13:39:24.552 02/12/1995]',-0.086,-0.098,-0.019,65.759,-0.445,-0.717
'[13:39:24.554 02/12/1995]',-0.086,-0.087,-0.019,65.759,-0.445,-0.717
'[13:39:24.556 02/12/1995]',-0.076,-0.065,-0.029,65.759,-0.445,-0.717
'[13:39:24.558 02/12/1995]',-0.065,-0.043,-0.038,65.759,-0.445,-0.717
'[13:39:24.560 02/12/1995]',-0.054,-0.043,-0.038,65.309,-0.459,-0.717
'[13:39:24.562 02/12/1995]',-0.054,-0.043,-0.029,65.309,-0.459,-0.717
'[13:39:24.564 02/12/1995]',-0.065,-0.065,-0.029,65.309,-0.459,-0.717
'[13:39:24.566 02/12/1995]',-0.076,-0.087,-0.019,65.309,-0.459,-0.717
'[13:39:24.568 02/12/1995]',-0.086,-0.098,-0.009,64.958,-0.474,-0.717
'[13:39:24.570 02/12/1995]',-0.086,-0.098,-0.019,64.958,-0.474,-0.717
'[13:39:24.572 02/12/1995]',-0.076,-0.076,-0.029,64.958,-0.474,-0.717
'[13:39:24.574 02/12/1995]',-0.065,-0.054,-0.029,64.958,-0.474,-0.717
'[13:39:24.576 02/12/1995]',-0.054,-0.043,-0.038,64.507,-0.474,-0.717
'[13:39:24.578 02/12/1995]',-0.054,-0.043,-0.038,64.507,-0.474,-0.717
'[13:39:24.580 02/12/1995]',-0.065,-0.054,-0.029,64.507,-0.474,-0.717
'[13:39:24.582 02/12/1995]',-0.065,-0.076,-0.029,64.507,-0.474,-0.717
'[13:39:24.584 02/12/1995]',-0.086,-0.098,-0.019,64.257,-0.503,-0.717
'[13:39:24.586 02/12/1995]',-0.086,-0.098,-0.019,64.257,-0.503,-0.717
'[13:39:24.588 02/12/1995]',-0.086,-0.087,-0.029,64.257,-0.503,-0.717
'[13:39:24.590 02/12/1995]',-0.065,-0.065,-0.029,64.257,-0.503,-0.717
'[13:39:24.592 02/12/1995]',-0.054,-0.043,-0.038,63.956,-0.533,-0.716
'[13:39:24.594 02/12/1995]',-0.054,-0.043,-0.038,63.956,-0.533,-0.716
'[13:39:24.596 02/12/1995]',-0.065,-0.054,-0.029,63.956,-0.533,-0.716
'[13:39:24.598 02/12/1995]',-0.076,-0.087,-0.019,63.956,-0.533,-0.716
'[13:39:24.600 02/12/1995]',-0.086,-0.087,-0.009,63.656,-0.533,-0.715
'[13:39:24.602 02/12/1995]',-0.086,-0.098,-0.009,63.656,-0.533,-0.715
'[13:39:24.604 02/12/1995]',-0.086,-0.087,-0.019,63.656,-0.533,-0.715
'[13:39:24.606 02/12/1995]',-0.076,-0.065,-0.019,63.656,-0.533,-0.715
'[13:39:24.608 02/12/1995]',-0.065,-0.043,-0.029,63.355,-0.563,-0.714
'[13:39:24.610 02/12/1995]',-0.043,-0.032,-0.029,63.355,-0.563,-0.714
'[13:39:24.612 02/12/1995]',-0.054,-0.043,-0.029,63.355,-0.563,-0.714
'[13:39:24.614 02/12/1995]',-0.065,-0.065,-0.019,63.355,-0.563,-0.714
'[13:39:24.616 02/12/1995]',-0.076,-0.087,-0.009,63.055,-0.578,-0.713
'[13:39:24.618 02/12/1995]',-0.086,-0.098,-0.009,63.055,-0.578,-0.713
'[13:39:24.620 02/12/1995]',-0.086,-0.087,-0.009,63.055,-0.578,-0.713
'[13:39:24.622 02/12/1995]',-0.076,-0.076,-0.019,63.055,-0.578,-0.713
'[13:39:24.624 02/12/1995]',-0.065,-0.043,-0.029,62.754,-0.578,-0.712
'[13:39:24.626 02/12/1995]',-0.054,-0.032,-0.038,62.754,-0.578,-0.712
'[13:39:24.628 02/12/1995]',-0.054,-0.043,-0.029,62.754,-0.578,-0.712
'[13:39:24.630 02/12/1995]',-0.065,-0.054,-0.029,62.754,-0.578,-0.712
'[13:39:24.632 02/12/1995]',-0.076,-0.076,-0.009,62.554,-0.608,-0.711
'[13:39:24.634 02/12/1995]',-0.086,-0.098,-0.009,62.554,-0.608,-0.711
'[13:39:24.636 02/12/1995]',-0.086,-0.098,-0.009,62.554,-0.608,-0.711
'[13:39:24.638 02/12/1995]',-0.076,-0.076,-0.009,62.554,-0.608,-0.711
'[13:39:24.640 02/12/1995]',-0.065,-0.043,-0.019,62.354,-0.608,-0.710
'[13:39:24.642 02/12/1995]',-0.043,-0.032,-0.029,62.354,-0.608,-0.710
'[13:39:24.644 02/12/1995]',-0.043,-0.032,-0.029,62.354,-0.608,-0.710
'[13:39:24.646 02/12/1995]',-0.054,-0.043,-0.019,62.354,-0.608,-0.710
'[13:39:24.648 02/12/1995]',-0.065,-0.065,-0.019,62.254,-0.622,-0.709
'[13:39:24.650 02/12/1995]',-0.076,-0.087,-0.009,62.254,-0.622,-0.709
'[13:39:24.652 02/12/1995]',-0.076,-0.087,-0.009,62.254,-0.622,-0.709
'[13:39:24.654 02/12/1995]',-0.076,-0.076,-0.019,62.254,-0.622,-0.709
'[13:39:24.656 02/12/1995]',-0.065,-0.043,-0.019,62.103,-0.637,-0.708
'[13:39:24.658 02/12/1995]',-0.043,-0.021,-0.029,62.103,-0.637,-0.708
'[13:39:24.660 02/12/1995]',-0.043,-0.032,-0.029,62.103,-0.637,-0.708
'[13:39:24.662 02/12/1995]',-0.043,-0.043,-0.029,62.103,-0.637,-0.708
'[13:39:24.664 02/12/1995]',-0.054,-0.054,-0.019,61.953,-0.622,-0.707
'[13:39:24.666 02/12/1995]',-0.065,-0.076,-0.009,61.953,-0.622,-0.707
'[13:39:24.668 02/12/1995]',-0.076,-0.087,0.001,61.953,-0.622,-0.707
'[13:39:24.670 02/12/1995]',-0.076,-0.076,-0.009,61.953,-0.622,-0.707
'[13:39:24.672 02/12/1995]',-0.065,-0.065,-0.019,61.803,-0.637,-0.706
'[13:39:24.674 02/12/1995]',-0.054,-0.043,-0.019,61.803,-0.637,-0.706
'[13:39:24.676 02/12/1995]',-0.043,-0.032,-0.029,61.803,-0.637,-0.706
'[13:39:24.678 02/12/1995]',-0.043,-0.032,-0.029,61.803,-0.637,-0.706
'[13:39:24.680 02/12/1995]',-0.043,-0.043,-0.019,61.653,-0.652,-0.705
'[13:39:24.682 02/12/1995]',-0.065,-0.065,-0.009,61.653,-0.652,-0.705
'[13:39:24.684 02/12/1995]',-0.065,-0.065,0.001,61.653,-0.652,-0.705
'[13:39:24.686 02/12/1995]',-0.054,-0.054,0.001,61.653,-0.652,-0.705
'[13:39:24.688 02/12/1995]',-0.043,-0.043,0.001,61.402,-0.666,-0.704
'[13:39:24.690 02/12/1995]',-0.021,-0.010,0.001,61.402,-0.666,-0.704
'[13:39:24.692 02/12/1995]',-0.021,0.001,0.001,61.402,-0.666,-0.704
'[13:39:24.694 02/12/1995]',-0.010,0.001,0.001,61.402,-0.666,-0.704
'[13:39:24.696 02/12/1995]',-0.010,0.001,0.001,61.252,-0.652,-0.703
'[13:39:24.698 02/12/1995]',-0.021,-0.021,0.001,61.252,-0.652,-0.703
'[13:39:24.700 02/12/1995]',-0.032,-0.032,0.010,61.252,-0.652,-0.703
'[13:39:24.702 02/12/1995]',-0.032,-0.032,0.010,61.252,-0.652,-0.703
'[13:39:24.704 02/12/1995]',-0.032,-0.021,0.010,61.052,-0.681,-0.702
'[13:39:24.706 02/12/1995]',-0.021,0.001,0.001,61.052,-0.681,-0.702
'[13:39:24.708 02/12/1995]',0.001,0.001,0.001,61.052,-0.681,-0.702
'[13:39:24.710 02/12/1995]',0.001,0.001,0.001,61.052,-0.681,-0.702
'[13:39:24.712 02/12/1995]',0.001,0.001,0.001,60.901,-0.666,-0.701
'[13:39:24.714 02/12/1995]',0.001,0.001,0.010,60.901,-0.666,-0.701
'[13:39:24.716 02/12/1995]',-0.021,-0.010,0.010,60.901,-0.666,-0.701
'[13:39:24.718 02/12/1995]',-0.032,-0.021,0.020,60.901,-0.666,-0.701
'[13:39:24.720 02/12/1995]',-0.032,-0.021,0.010,60.651,-0.696,-0.700
'[13:39:24.722 02/12/1995]',-0.032,-0.010,0.001,60.651,-0.696,-0.700
'[13:39:24.724 02/12/1995]',-0.021,0.001,0.001,60.651,-0.696,-0.700
'[13:39:24.726 02/12/1995]',-0.021,0.001,-0.019,60.651,-0.696,-0.700
'[13:39:24.728 02/12/1995]',-0.021,0.001,-0.009,60.501,-0.696,-0.699
'[13:39:24.730 02/12/1995]',-0.032,-0.021,-0.009,60.501,-0.696,-0.699
'[13:39:24.732 02/12/1995]',-0.043,-0.043,0.001,60.501,-0.696,-0.699
'[13:39:24.734 02/12/1995]',-0.054,-0.054,0.001,60.501,-0.696,-0.699
'[13:39:24.736 02/12/1995]',-0.065,-0.065,0.001,60.350,-0.696,-0.698
'[13:39:24.738 02/12/1995]',-0.065,-0.054,-0.009,60.350,-0.696,-0.698
'[13:39:24.740 02/12/1995]',-0.043,-0.043,-0.019,60.350,-0.696,-0.698
'[13:39:24.742 02/12/1995]',-0.043,-0.032,-0.029,60.350,-0.696,-0.698
'[13:39:24.744 02/12/1995]',-0.043,-0.043,-0.038,60.200,-0.726,-0.697
'[13:39:24.746 02/12/1995]',-0.043,-0.065,-0.038,60.200,-0.726,-0.697
'[13:39:24.748 02/12/1995]',-0.065,-0.087,-0.029,60.200,-0.726,-0.697
'[13:39:24.750 02/12/1995]',-0.076,-0.109,-0.019,60.200,-0.726,-0.697
'[13:39:24.752 02/12/1995]',-0.086,-0.109,-0.029,60.000,-0.726,-0.696
'[13:39:24.754 02/12/1995]',-0.076,-0.098,-0.038,60.000,-0.726,-0.696
'[13:39:24.756 02/12/1995]',-0.065,-0.076,-0.038,60.000,-0.726,-0.696
'[13:39:24.758 02/12/1995]',-0.065,-0.065,-0.048,60.000,-0.726,-0.696
'[13:39:24.760 02/12/1995]',-0.065,-0.054,-0.058,59.699,-0.726,-0.696
'[13:39:24.762 02/12/1995]',-0.054,-0.065,-0.048,59.699,-0.726,-0.696
'[13:39:24.764 02/12/1995]',-0.065,-0.076,-0.038,59.699,-0.726,-0.696
'[13:39:24.766 02/12/1995]',-0.076,-0.098,-0.029,59.699,-0.726,-0.696
'[13:39:24.768 02/12/1995]',-0.086,-0.098,-0.019,59.499,-0.741,-0.695
'[13:39:24.770 02/12/1995]',-0.076,-0.087,-0.019,59.499,-0.741,-0.695
'[13:39:24.772 02/12/1995]',-0.065,-0.065,-0.029,59.499,-0.741,-0.695
'[13:39:24.774 02/12/1995]',-0.054,-0.043,-0.019,59.499,-0.741,-0.695
'[13:39:24.776 02/12/1995]',-0.043,-0.032,-0.029,59.249,-0.755,-0.694
'[13:39:24.778 02/12/1995]',-0.043,-0.032,-0.029,59.249,-0.755,-0.694
'[13:39:24.780 02/12/1995]',-0.054,-0.043,-0.019,59.249,-0.755,-0.694
'[13:39:24.782 02/12/1995]',-0.076,-0.076,-0.019,59.249,-0.755,-0.694
'[13:39:24.784 02/12/1995]',-0.086,-0.087,-0.009,59.048,-0.741,-0.693
'[13:39:24.786 02/12/1995]',-0.086,-0.098,-0.019,59.048,-0.741,-0.693
'[13:39:24.788 02/12/1995]',-0.086,-0.087,-0.019,59.048,-0.741,-0.693
'[13:39:24.790 02/12/1995]',-0.076,-0.065,-0.029,59.048,-0.741,-0.693
'[13:39:24.792 02/12/1995]',-0.065,-0.043,-0.038,58.848,-0.741,-0.691
'[13:39:24.794 02/12/1995]',-0.065,-0.043,-0.038,58.848,-0.741,-0.691
'[13:39:24.796 02/12/1995]',-0.065,-0.054,-0.029,58.848,-0.741,-0.691
'[13:39:24.798 02/12/1995]',-0.076,-0.076,-0.019,58.848,-0.741,-0.691
'[13:39:24.800 02/12/1995]',-0.086,-0.098,-0.019,58.648,-0.741,-0.689
'[13:39:24.802 02/12/1995]',-0.086,-0.098,-0.009,58.648,-0.741,-0.689
'[13:39:24.804 02/12/1995]',-0.086,-0.087,-0.009,58.648,-0.741,-0.689
'[13:39:24.806 02/12/1995]',-0.065,-0.065,-0.019,58.648,-0.741,-0.689
'[13:39:24.808 02/12/1995]',-0.054,-0.043,-0.029,58.447,-0.726,-0.687
'[13:39:24.810 02/12/1995]',-0.054,-0.032,-0.038,58.447,-0.726,-0.687
'[13:39:24.812 02/12/1995]',-0.054,-0.043,-0.019,58.447,-0.726,-0.687
'[13:39:24.814 02/12/1995]',-0.065,-0.076,-0.029,58.447,-0.726,-0.687
'[13:39:24.816 02/12/1995]',-0.076,-0.087,-0.009,58.197,-0.726,-0.686
'[13:39:24.818 02/12/1995]',-0.086,-0.109,0.001,58.197,-0.726,-0.686
'[13:39:24.820 02/12/1995]',-0.086,-0.109,-0.029,58.197,-0.726,-0.686
'[13:39:24.822 02/12/1995]',-0.086,-0.109,-0.038,58.197,-0.726,-0.686
'[13:39:24.824 02/12/1995]',-0.086,-0.098,-0.048,57.997,-0.726,-0.685
'[13:39:24.826 02/12/1995]',-0.076,-0.109,-0.068,57.997,-0.726,-0.685
'[13:39:24.828 02/12/1995]',-0.076,-0.109,-0.068,57.997,-0.726,-0.685
'[13:39:24.830 02/12/1995]',-0.086,-0.142,-0.058,57.997,-0.726,-0.685
'[13:39:24.832 02/12/1995]',-0.097,-0.164,-0.038,57.846,-0.726,-0.684
'[13:39:24.834 02/12/1995]',-0.086,-0.164,-0.009,57.846,-0.726,-0.684
'[13:39:24.836 02/12/1995]',-0.065,-0.131,0.010,57.846,-0.726,-0.684
'[13:39:24.838 02/12/1995]',0.001,-0.065,0.049,57.846,-0.726,-0.684
'[13:39:24.840 02/12/1995]',0.066,0.001,0.089,57.596,-0.711,-0.683
'[13:39:24.842 02/12/1995]',0.132,0.034,0.138,57.596,-0.711,-0.683
'[13:39:24.844 02/12/1995]',0.197,0.077,0.186,57.596,-0.711,-0.683
'[13:39:24.846 02/12/1995]',0.284,0.133,0.265,57.596,-0.711,-0.683
'[13:39:24.848 02/12/1995]',0.338,0.165,0.333,57.345,-0.726,-0.681
'[13:39:24.850 02/12/1995]',0.393,0.165,0.372,57.345,-0.726,-0.681
'[13:39:24.852 02/12/1995]',0.437,0.176,0.402,57.345,-0.726,-0.681
'[13:39:24.854 02/12/1995]',0.502,0.242,0.431,57.345,-0.726,-0.681
'[13:39:24.856 02/12/1995]',0.568,0.362,0.470,57.195,-0.741,-0.680
'[13:39:24.858 02/12/1995]',0.600,0.451,0.490,57.195,-0.741,-0.680
'[13:39:24.860 02/12/1995]',0.611,0.494,0.470,57.195,-0.741,-0.680
'[13:39:24.862 02/12/1995]',0.600,0.527,0.470,57.195,-0.741,-0.680
'[13:39:24.864 02/12/1995]',0.557,0.527,0.460,56.945,-0.741,-0.678
'[13:39:24.866 02/12/1995]',0.524,0.538,0.431,56.945,-0.741,-0.678
'[13:39:24.868 02/12/1995]',0.480,0.527,0.392,56.945,-0.741,-0.678
'[13:39:24.870 02/12/1995]',0.448,0.538,0.333,56.945,-0.741,-0.678
'[13:39:24.872 02/12/1995]',0.404,0.538,0.265,56.744,-0.726,-0.677
'[13:39:24.874 02/12/1995]',0.349,0.505,0.177,56.744,-0.726,-0.677
'[13:39:24.876 02/12/1995]',0.273,0.472,0.089,56.744,-0.726,-0.677
'[13:39:24.878 02/12/1995]',0.186,0.396,0.020,56.744,-0.726,-0.677
'[13:39:24.880 02/12/1995]',0.110,0.308,-0.029,56.544,-0.755,-0.675
'[13:39:24.882 02/12/1995]',0.044,0.220,-0.068,56.544,-0.755,-0.675
'[13:39:24.884 02/12/1995]',-0.010,0.154,-0.087,56.544,-0.755,-0.675
'[13:39:24.886 02/12/1995]',-0.043,0.088,-0.117,56.544,-0.755,-0.675
'[13:39:24.888 02/12/1995]',-0.065,0.056,-0.136,56.294,-0.755,-0.673
'[13:39:24.890 02/12/1995]',-0.076,0.034,-0.156,56.294,-0.755,-0.673
'[13:39:24.892 02/12/1995]',-0.076,0.022,-0.146,56.294,-0.755,-0.673
'[13:39:24.894 02/12/1995]',-0.065,0.001,-0.136,56.294,-0.755,-0.673
'[13:39:24.896 02/12/1995]',-0.065,0.001,-0.117,56.143,-0.755,-0.671
'[13:39:24.898 02/12/1995]',-0.076,-0.021,-0.087,56.143,-0.755,-0.671
'[13:39:24.900 02/12/1995]',-0.086,-0.043,-0.078,56.143,-0.755,-0.671
'[13:39:24.902 02/12/1995]',-0.076,-0.043,-0.058,56.143,-0.755,-0.671
'[13:39:24.904 02/12/1995]',-0.054,-0.021,-0.058,55.943,-0.770,-0.669
'[13:39:24.906 02/12/1995]',-0.043,0.001,-0.048,55.943,-0.770,-0.669
'[13:39:24.908 02/12/1995]',-0.021,0.001,-0.058,55.943,-0.770,-0.669
'[13:39:24.910 02/12/1995]',-0.021,0.001,-0.058,55.943,-0.770,-0.669
'[13:39:24.912 02/12/1995]',-0.021,0.001,-0.048,55.793,-0.755,-0.668
'[13:39:24.914 02/12/1995]',-0.021,-0.010,-0.038,55.793,-0.755,-0.668
'[13:39:24.916 02/12/1995]',-0.043,-0.043,-0.029,55.793,-0.755,-0.668
'[13:39:24.918 02/12/1995]',-0.043,-0.054,-0.019,55.793,-0.755,-0.668
'[13:39:24.920 02/12/1995]',-0.043,-0.043,-0.019,55.593,-0.770,-0.666
'[13:39:24.922 02/12/1995]',-0.032,-0.021,-0.029,55.593,-0.770,-0.666
'[13:39:24.924 02/12/1995]',-0.021,0.001,-0.029,55.593,-0.770,-0.666
'[13:39:24.926 02/12/1995]',0.001,0.001,-0.029,55.593,-0.770,-0.666
'[13:39:24.928 02/12/1995]',-0.010,0.001,-0.038,55.492,-0.755,-0.665
'[13:39:24.930 02/12/1995]',-0.021,-0.010,-0.019,55.492,-0.755,-0.665
'[13:39:24.932 02/12/1995]',-0.032,-0.043,-0.019,55.492,-0.755,-0.665
'[13:39:24.934 02/12/1995]',-0.043,-0.043,-0.009,55.492,-0.755,-0.665
'[13:39:24.936 02/12/1995]',-0.043,-0.054,-0.009,55.292,-0.770,-0.663
'[13:39:24.938 02/12/1995]',-0.032,-0.043,-0.009,55.292,-0.770,-0.663
'[13:39:24.940 02/12/1995]',-0.021,-0.010,-0.019,55.292,-0.770,-0.663
'[13:39:24.942 02/12/1995]',-0.010,0.001,-0.029,55.292,-0.770,-0.663
'[13:39:24.944 02/12/1995]',0.001,0.001,-0.029,55.192,-0.755,-0.662
'[13:39:24.946 02/12/1995]',-0.010,-0.010,-0.019,55.192,-0.755,-0.662
'[13:39:24.948 02/12/1995]',-0.021,-0.032,-0.009,55.192,-0.755,-0.662
'[13:39:24.950 02/12/1995]',-0.043,-0.054,-0.009,55.192,-0.755,-0.662
'[13:39:24.952 02/12/1995]',-0.043,-0.054,0.001,55.092,-0.755,-0.660
'[13:39:24.954 02/12/1995]',-0.043,-0.043,-0.009,55.092,-0.755,-0.660
'[13:39:24.956 02/12/1995]',-0.021,-0.010,-0.019,55.092,-0.755,-0.660
'[13:39:24.958 02/12/1995]',-0.010,0.001,-0.029,55.092,-0.755,-0.660
'[13:39:24.960 02/12/1995]',0.001,0.001,-0.029,54.891,-0.770,-0.659
'[13:39:24.962 02/12/1995]',0.001,0.001,-0.019,54.891,-0.770,-0.659
'[13:39:24.964 02/12/1995]',-0.021,-0.021,-0.019,54.891,-0.770,-0.659
'[13:39:24.966 02/12/1995]',-0.032,-0.043,-0.009,54.891,-0.770,-0.659
'[13:39:24.968 02/12/1995]',-0.043,-0.054,0.001,54.791,-0.755,-0.658
'[13:39:24.970 02/12/1995]',-0.032,-0.043,-0.009,54.791,-0.755,-0.658
'[13:39:24.972 02/12/1995]',-0.021,-0.021,-0.009,54.791,-0.755,-0.658
'[13:39:24.974 02/12/1995]',-0.010,0.001,-0.019,54.791,-0.755,-0.658
'[13:39:24.976 02/12/1995]',0.001,0.001,-0.019,54.591,-0.770,-0.657
'[13:39:24.978 02/12/1995]',0.001,0.001,-0.019,54.591,-0.770,-0.657
'[13:39:24.980 02/12/1995]',0.001,0.001,-0.009,54.591,-0.770,-0.657
'[13:39:24.982 02/12/1995]',-0.010,-0.021,0.001,54.591,-0.770,-0.657
'[13:39:24.984 02/12/1995]',-0.021,-0.043,0.001,54.441,-0.755,-0.656
'[13:39:24.986 02/12/1995]',-0.021,-0.043,0.001,54.441,-0.755,-0.656
'[13:39:24.988 02/12/1995]',-0.021,-0.021,-0.009,54.441,-0.755,-0.656
'[13:39:24.990 02/12/1995]',0.001,0.001,-0.019,54.441,-0.755,-0.656
'[13:39:24.992 02/12/1995]',0.001,0.001,-0.019,54.391,-0.770,-0.656
'[13:39:24.994 02/12/1995]',0.001,0.001,-0.019,54.391,-0.770,-0.656
'[13:39:24.996 02/12/1995]',0.001,0.001,-0.009,54.391,-0.770,-0.656
'[13:39:24.998 02/12/1995]',0.001,-0.021,0.001,54.391,-0.770,-0.656
'[13:39:25.000 02/12/1995]',-0.021,-0.032,0.001,54.240,-0.755,-0.657
'[13:39:25.002 02/12/1995]',-0.021,-0.043,0.001,54.240,-0.755,-0.657
'[13:39:25.004 02/12/1995]',-0.021,-0.021,0.001,54.240,-0.755,-0.657
'[13:39:25.006 02/12/1995]',0.001,-0.010,0.001,54.240,-0.755,-0.657
'[13:39:25.008 02/12/1995]',0.011,0.001,-0.009,54.140,-0.755,-0.658
'[13:39:25.010 02/12/1995]',0.022,0.001,-0.009,54.140,-0.755,-0.658
'[13:39:25.012 02/12/1995]',0.011,0.001,-0.009,54.140,-0.755,-0.658
'[13:39:25.014 02/12/1995]',0.001,0.001,0.001,54.140,-0.755,-0.658
'[13:39:25.016 02/12/1995]',0.001,-0.021,0.001,53.940,-0.755,-0.660
'[13:39:25.018 02/12/1995]',-0.010,-0.032,0.001,53.940,-0.755,-0.660
'[13:39:25.020 02/12/1995]',0.001,-0.021,0.001,53.940,-0.755,-0.660
'[13:39:25.022 02/12/1995]',0.001,0.001,0.001,53.940,-0.755,-0.660
'[13:39:25.024 02/12/1995]',0.022,0.001,0.001,53.840,-0.755,-0.662
'[13:39:25.026 02/12/1995]',0.022,0.011,0.001,53.840,-0.755,-0.662
'[13:39:25.028 02/12/1995]',0.022,0.011,0.001,53.840,-0.755,-0.662
'[13:39:25.030 02/12/1995]',0.022,0.001,0.001,53.840,-0.755,-0.662
'[13:39:25.032 02/12/1995]',0.001,0.001,0.001,53.890,-0.741,-0.664
'[13:39:25.034 02/12/1995]',0.001,-0.010,0.010,53.890,-0.741,-0.664
'[13:39:25.036 02/12/1995]',0.001,-0.010,0.010,53.890,-0.741,-0.664
'[13:39:25.038 02/12/1995]',0.011,0.001,0.001,53.890,-0.741,-0.664
'[13:39:25.040 02/12/1995]',0.022,0.001,0.001,54.090,-0.741,-0.666
'[13:39:25.042 02/12/1995]',0.033,0.011,0.001,54.090,-0.741,-0.666
'[13:39:25.044 02/12/1995]',0.044,0.022,0.001,54.090,-0.741,-0.666
'[13:39:25.046 02/12/1995]',0.044,0.001,0.001,54.090,-0.741,-0.666
'[13:39:25.048 02/12/1995]',0.022,0.001,0.010,54.290,-0.741,-0.668
'[13:39:25.050 02/12/1995]',0.022,0.001,0.010,54.290,-0.741,-0.668
'[13:39:25.052 02/12/1995]',0.022,0.001,0.020,54.290,-0.741,-0.668
'[13:39:25.054 02/12/1995]',0.022,0.001,0.010,54.290,-0.741,-0.668
'[13:39:25.056 02/12/1995]',0.044,0.011,0.010,54.741,-0.726,-0.669
'[13:39:25.058 02/12/1995]',0.055,0.034,0.001,54.741,-0.726,-0.669
'[13:39:25.060 02/12/1995]',0.066,0.044,0.001,54.741,-0.726,-0.669
'[13:39:25.062 02/12/1995]',0.066,0.034,0.001,54.741,-0.726,-0.669
'[13:39:25.064 02/12/1995]',0.055,0.011,0.020,55.542,-0.726,-0.671
'[13:39:25.066 02/12/1995]',0.044,0.001,0.030,55.542,-0.726,-0.671
'[13:39:25.068 02/12/1995]',0.033,0.001,0.030,55.542,-0.726,-0.671
'[13:39:25.070 02/12/1995]',0.044,0.001,0.040,55.542,-0.726,-0.671
'[13:39:25.072 02/12/1995]',0.055,0.011,0.020,56.945,-0.741,-0.672
'[13:39:25.074 02/12/1995]',0.066,0.034,0.020,56.945,-0.741,-0.672
'[13:39:25.076 02/12/1995]',0.077,0.044,0.010,56.945,-0.741,-0.672
'[13:39:25.078 02/12/1995]',0.077,0.044,0.020,56.945,-0.741,-0.672
'[13:39:25.080 02/12/1995]',0.077,0.034,0.030,59.299,-0.711,-0.674
'[13:39:25.082 02/12/1995]',0.066,0.001,0.040,59.299,-0.711,-0.674
'[13:39:25.084 02/12/1995]',0.066,0.001,0.049,59.299,-0.711,-0.674
'[13:39:25.086 02/12/1995]',0.066,0.001,0.040,59.299,-0.711,-0.674
'[13:39:25.088 02/12/1995]',0.066,0.022,0.049,62.654,-0.711,-0.675
'[13:39:25.090 02/12/1995]',0.088,0.044,0.040,62.654,-0.711,-0.675
'[13:39:25.092 02/12/1995]',0.099,0.067,0.030,62.654,-0.711,-0.675
'[13:39:25.094 02/12/1995]',0.110,0.067,0.030,62.654,-0.711,-0.675
'[13:39:25.096 02/12/1995]',0.110,0.056,0.040,66.861,-0.681,-0.675
'[13:39:25.098 02/12/1995]',0.088,0.034,0.059,66.861,-0.681,-0.675
'[13:39:25.100 02/12/1995]',0.088,0.022,0.059,66.861,-0.681,-0.675
'[13:39:25.102 02/12/1995]',0.088,0.022,0.069,66.861,-0.681,-0.675
'[13:39:25.104 02/12/1995]',0.099,0.044,0.059,71.669,-0.666,-0.675
'[13:39:25.106 02/12/1995]',0.121,0.056,0.049,71.669,-0.666,-0.675
'[13:39:25.108 02/12/1995]',0.121,0.077,0.049,71.669,-0.666,-0.675
'[13:39:25.110 02/12/1995]',0.143,0.077,0.049,71.669,-0.666,-0.675
'[13:39:25.112 02/12/1995]',0.143,0.088,0.059,76.578,-0.652,-0.674
'[13:39:25.114 02/12/1995]',0.143,0.067,0.069,76.578,-0.652,-0.674
'[13:39:25.116 02/12/1995]',0.121,0.044,0.079,76.578,-0.652,-0.674
'[13:39:25.118 02/12/1995]',0.121,0.056,0.089,76.578,-0.652,-0.674
'[13:39:25.120 02/12/1995]',0.132,0.056,0.079,80.885,-0.637,-0.673
'[13:39:25.122 02/12/1995]',0.143,0.088,0.079,80.885,-0.637,-0.673
'[13:39:25.124 02/12/1995]',0.164,0.100,0.069,80.885,-0.637,-0.673
'[13:39:25.126 02/12/1995]',0.164,0.121,0.069,80.885,-0.637,-0.673
'[13:39:25.128 02/12/1995]',0.175,0.121,0.079,84.441,-0.593,-0.672
'[13:39:25.130 02/12/1995]',0.164,0.100,0.089,84.441,-0.593,-0.672
'[13:39:25.132 02/12/1995]',0.164,0.088,0.089,84.441,-0.593,-0.672
'[13:39:25.134 02/12/1995]',0.154,0.077,0.099,84.441,-0.593,-0.672
'[13:39:25.136 02/12/1995]',0.154,0.077,0.099,87.195,-0.548,-0.671
'[13:39:25.138 02/12/1995]',0.164,0.100,0.089,87.195,-0.548,-0.671
'[13:39:25.140 02/12/1995]',0.186,0.121,0.089,87.195,-0.548,-0.671
'[13:39:25.142 02/12/1995]',0.208,0.143,0.089,87.195,-0.548,-0.671
'[13:39:25.144 02/12/1995]',0.208,0.154,0.089,89.249,-0.503,-0.670
'[13:39:25.146 02/12/1995]',0.197,0.133,0.089,89.249,-0.503,-0.670
'[13:39:25.148 02/12/1995]',0.197,0.121,0.099,89.249,-0.503,-0.670
'[13:39:25.150 02/12/1995]',0.186,0.111,0.118,89.249,-0.503,-0.670
'[13:39:25.152 02/12/1995]',0.186,0.100,0.118,90.901,-0.445,-0.669
'[13:39:25.154 02/12/1995]',0.186,0.111,0.108,90.901,-0.445,-0.669
'[13:39:25.156 02/12/1995]',0.208,0.143,0.099,90.901,-0.445,-0.669
'[13:39:25.158 02/12/1995]',0.219,0.154,0.099,90.901,-0.445,-0.669
'[13:39:25.160 02/12/1995]',0.230,0.165,0.099,92.354,-0.355,-0.669
'[13:39:25.162 02/12/1995]',0.230,0.165,0.099,92.354,-0.355,-0.669
'[13:39:25.164 02/12/1995]',0.208,0.143,0.108,92.354,-0.355,-0.669
'[13:39:25.166 02/12/1995]',0.208,0.121,0.118,92.354,-0.355,-0.669
'[13:39:25.168 02/12/1995]',0.197,0.121,0.118,93.706,-0.296,-0.670
'[13:39:25.170 02/12/1995]',0.197,0.121,0.108,93.706,-0.296,-0.670
'[13:39:25.172 02/12/1995]',0.208,0.143,0.099,93.706,-0.296,-0.670
'[13:39:25.174 02/12/1995]',0.219,0.165,0.099,93.706,-0.296,-0.670
'[13:39:25.176 02/12/1995]',0.230,0.165,0.089,94.858,-0.207,-0.671
'[13:39:25.178 02/12/1995]',0.219,0.165,0.089,94.858,-0.207,-0.671
'[13:39:25.180 02/12/1995]',0.219,0.154,0.099,94.858,-0.207,-0.671
'[13:39:25.182 02/12/1995]',0.186,0.121,0.099,94.858,-0.207,-0.671
'[13:39:25.184 02/12/1995]',0.186,0.111,0.108,95.759,-0.118,-0.671
'[13:39:25.186 02/12/1995]',0.186,0.111,0.099,95.759,-0.118,-0.671
'[13:39:25.188 02/12/1995]',0.186,0.121,0.099,95.759,-0.118,-0.671
'[13:39:25.190 02/12/1995]',0.197,0.154,0.079,95.759,-0.118,-0.671
'[13:39:25.192 02/12/1995]',0.208,0.165,0.079,96.210,-0.015,-0.672
'[13:39:25.194 02/12/1995]',0.208,0.165,0.079,96.210,-0.015,-0.672
'[13:39:25.196 02/12/1995]',0.186,0.154,0.089,96.210,-0.015,-0.672
'[13:39:25.198 02/12/1995]',0.175,0.121,0.089,96.210,-0.015,-0.672
'[13:39:25.200 02/12/1995]',0.164,0.100,0.079,96.511,0.074,-0.672
'[13:39:25.202 02/12/1995]',0.143,0.088,0.089,96.511,0.074,-0.672
'[13:39:25.204 02/12/1995]',0.143,0.088,0.069,96.511,0.074,-0.672
'[13:39:25.206 02/12/1995]',0.154,0.111,0.049,96.511,0.074,-0.672
'[13:39:25.208 02/12/1995]',0.164,0.133,0.049,96.611,0.163,-0.671
'[13:39:25.210 02/12/1995]',0.154,0.121,0.040,96.611,0.163,-0.671
'[13:39:25.212 02/12/1995]',0.143,0.111,0.040,96.611,0.163,-0.671
'[13:39:25.214 02/12/1995]',0.121,0.088,0.040,96.611,0.163,-0.671
'[13:39:25.216 02/12/1995]',0.110,0.067,0.040,96.711,0.237,-0.671
'[13:39:25.218 02/12/1995]',0.088,0.044,0.040,96.711,0.237,-0.671
'[13:39:25.220 02/12/1995]',0.088,0.056,0.030,96.711,0.237,-0.671
'[13:39:25.222 02/12/1995]',0.088,0.067,0.020,96.711,0.237,-0.671
'[13:39:25.224 02/12/1995]',0.088,0.077,0.010,96.461,0.311,-0.670
'[13:39:25.226 02/12/1995]',0.099,0.088,0.001,96.461,0.311,-0.670
'[13:39:25.228 02/12/1995]',0.088,0.077,0.001,96.461,0.311,-0.670
'[13:39:25.230 02/12/1995]',0.077,0.056,0.001,96.461,0.311,-0.670
'[13:39:25.232 02/12/1995]',0.055,0.034,0.001,96.060,0.370,-0.670
'[13:39:25.234 02/12/1995]',0.044,0.001,0.001,96.060,0.370,-0.670
'[13:39:25.236 02/12/1995]',0.033,0.011,0.001,96.060,0.370,-0.670
'[13:39:25.238 02/12/1995]',0.033,0.011,0.001,96.060,0.370,-0.670
'[13:39:25.240 02/12/1995]',0.044,0.034,-0.009,95.459,0.445,-0.669
'[13:39:25.242 02/12/1995]',0.044,0.044,-0.019,95.459,0.445,-0.669
'[13:39:25.244 02/12/1995]',0.044,0.044,-0.019,95.459,0.445,-0.669
'[13:39:25.246 02/12/1995]',0.044,0.034,-0.019,95.459,0.445,-0.669
'[13:39:25.248 02/12/1995]',0.022,0.001,-0.009,94.808,0.474,-0.669
'[13:39:25.250 02/12/1995]',0.001,0.001,-0.009,94.808,0.474,-0.669
'[13:39:25.252 02/12/1995]',0.001,0.001,-0.009,94.808,0.474,-0.669
'[13:39:25.254 02/12/1995]',0.001,0.001,-0.019,94.808,0.474,-0.669
'[13:39:25.256 02/12/1995]',0.011,0.011,-0.029,93.956,0.518,-0.668
'[13:39:25.258 02/12/1995]',0.022,0.022,-0.038,93.956,0.518,-0.668
'[13:39:25.260 02/12/1995]',0.022,0.022,-0.038,93.956,0.518,-0.668
'[13:39:25.262 02/12/1995]',0.011,0.011,-0.048,93.956,0.518,-0.668
'[13:39:25.264 02/12/1995]',0.001,0.001,-0.029,92.855,0.548,-0.668
'[13:39:25.266 02/12/1995]',-0.010,0.001,-0.029,92.855,0.548,-0.668
'[13:39:25.268 02/12/1995]',-0.021,-0.021,-0.029,92.855,0.548,-0.668
'[13:39:25.270 02/12/1995]',-0.021,-0.010,-0.029,92.855,0.548,-0.668
'[13:39:25.272 02/12/1995]',-0.010,0.001,-0.038,91.653,0.593,-0.667
'[13:39:25.274 02/12/1995]',0.001,0.001,-0.048,91.653,0.593,-0.667
'[13:39:25.276 02/12/1995]',0.001,0.011,-0.058,91.653,0.593,-0.667
'[13:39:25.278 02/12/1995]',0.001,0.001,-0.048,91.653,0.593,-0.667
'[13:39:25.280 02/12/1995]',0.001,0.001,-0.048,90.100,0.593,-0.667
'[13:39:25.282 02/12/1995]',-0.021,-0.021,-0.038,90.100,0.593,-0.667
'[13:39:25.284 02/12/1995]',-0.032,-0.032,-0.029,90.100,0.593,-0.667
'[13:39:25.286 02/12/1995]',-0.043,-0.032,-0.038,90.100,0.593,-0.667
'[13:39:25.288 02/12/1995]',-0.032,-0.010,-0.048,88.247,0.608,-0.666
'[13:39:25.290 02/12/1995]',-0.010,0.001,-0.058,88.247,0.608,-0.666
'[13:39:25.292 02/12/1995]',0.001,0.001,-0.058,88.247,0.608,-0.666
'[13:39:25.294 02/12/1995]',0.001,0.001,-0.058,88.247,0.608,-0.666
'[13:39:25.296 02/12/1995]',-0.010,0.001,-0.058,86.043,0.608,-0.666
'[13:39:25.298 02/12/1995]',-0.021,-0.010,-0.038,86.043,0.608,-0.666
'[13:39:25.300 02/12/1995]',-0.043,-0.032,-0.038,86.043,0.608,-0.666
'[13:39:25.302 02/12/1995]',-0.043,-0.032,-0.038,86.043,0.608,-0.666
'[13:39:25.304 02/12/1995]',-0.043,-0.021,-0.048,83.539,0.608,-0.665
'[13:39:25.306 02/12/1995]',-0.021,0.001,-0.058,83.539,0.608,-0.665
'[13:39:25.308 02/12/1995]',-0.010,0.001,-0.058,83.539,0.608,-0.665
'[13:39:25.310 02/12/1995]',0.001,0.001,-0.068,83.539,0.608,-0.665
'[13:39:25.312 02/12/1995]',-0.010,0.001,-0.058,80.785,0.593,-0.665
'[13:39:25.314 02/12/1995]',-0.021,-0.010,-0.048,80.785,0.593,-0.665
'[13:39:25.316 02/12/1995]',-0.043,-0.043,-0.048,80.785,0.593,-0.665
'[13:39:25.318 02/12/1995]',-0.043,-0.043,-0.038,80.785,0.593,-0.665
'[13:39:25.320 02/12/1995]',-0.043,-0.043,-0.048,77.830,0.593,-0.664
'[13:39:25.322 02/12/1995]',-0.032,-0.021,-0.058,77.830,0.593,-0.664
'[13:39:25.324 02/12/1995]',-0.021,0.001,-0.058,77.830,0.593,-0.664
'[13:39:25.326 02/12/1995]',-0.010,0.001,-0.068,77.830,0.593,-0.664
'[13:39:25.328 02/12/1995]',-0.021,0.001,-0.068,74.925,0.548,-0.664
'[13:39:25.330 02/12/1995]',-0.021,-0.021,-0.058,74.925,0.548,-0.664
'[13:39:25.332 02/12/1995]',-0.043,-0.032,-0.058,74.925,0.548,-0.664
'[13:39:25.334 02/12/1995]',-0.043,-0.054,-0.048,74.925,0.548,-0.664
'[13:39:25.336 02/12/1995]',-0.043,-0.043,-0.058,72.320,0.518,-0.663
'[13:39:25.338 02/12/1995]',-0.043,-0.032,-0.058,72.320,0.518,-0.663
'[13:39:25.340 02/12/1995]',-0.021,-0.010,-0.068,72.320,0.518,-0.663
'[13:39:25.342 02/12/1995]',-0.021,0.001,-0.068,72.320,0.518,-0.663
'[13:39:25.344 02/12/1995]',-0.021,0.001,-0.068,70.467,0.474,-0.663
'[13:39:25.346 02/12/1995]',-0.021,-0.010,-0.068,70.467,0.474,-0.663
'[13:39:25.348 02/12/1995]',-0.043,-0.043,-0.058,70.467,0.474,-0.663
'[13:39:25.350 02/12/1995]',-0.043,-0.054,-0.048,70.467,0.474,-0.663
'[13:39:25.352 02/12/1995]',-0.054,-0.043,-0.048,69.616,0.414,-0.663
'[13:39:25.354 02/12/1995]',-0.043,-0.043,-0.058,69.616,0.414,-0.663
'[13:39:25.356 02/12/1995]',-0.043,-0.021,-0.068,69.616,0.414,-0.663
'[13:39:25.358 02/12/1995]',-0.021,0.001,-0.068,69.616,0.414,-0.663
'[13:39:25.360 02/12/1995]',-0.021,0.001,-0.078,69.866,0.370,-0.663
'[13:39:25.362 02/12/1995]',-0.021,-0.010,-0.068,69.866,0.370,-0.663
'[13:39:25.364 02/12/1995]',-0.043,-0.043,-0.058,69.866,0.370,-0.663
'[13:39:25.366 02/12/1995]',-0.054,-0.054,-0.058,69.866,0.370,-0.663
'[13:39:25.368 02/12/1995]',-0.054,-0.065,-0.048,70.968,0.296,-0.664
'[13:39:25.370 02/12/1995]',-0.065,-0.065,-0.058,70.968,0.296,-0.664
'[13:39:25.372 02/12/1995]',-0.043,-0.032,-0.058,70.968,0.296,-0.664
'[13:39:25.374 02/12/1995]',-0.032,-0.010,-0.068,70.968,0.296,-0.664
'[13:39:25.376 02/12/1995]',-0.021,-0.010,-0.078,72.370,0.237,-0.665
'[13:39:25.378 02/12/1995]',-0.021,-0.010,-0.068,72.370,0.237,-0.665
'[13:39:25.380 02/12/1995]',-0.043,-0.032,-0.068,72.370,0.237,-0.665
'[13:39:25.382 02/12/1995]',-0.054,-0.054,-0.058,72.370,0.237,-0.665
'[13:39:25.384 02/12/1995]',-0.065,-0.076,-0.048,73.823,0.193,-0.665
'[13:39:25.386 02/12/1995]',-0.065,-0.065,-0.048,73.823,0.193,-0.665
'[13:39:25.388 02/12/1995]',-0.054,-0.054,-0.058,73.823,0.193,-0.665
'[13:39:25.390 02/12/1995]',-0.032,-0.021,-0.068,73.823,0.193,-0.665
'[13:39:25.392 02/12/1995]',-0.032,-0.021,-0.078,74.724,0.134,-0.664
'[13:39:25.394 02/12/1995]',-0.032,-0.021,-0.078,74.724,0.134,-0.664
'[13:39:25.396 02/12/1995]',-0.043,-0.032,-0.068,74.724,0.134,-0.664
'[13:39:25.398 02/12/1995]',-0.043,-0.054,-0.058,74.724,0.134,-0.664
'[13:39:25.400 02/12/1995]',-0.065,-0.076,-0.048,75.175,0.059,-0.663
'[13:39:25.402 02/12/1995]',-0.065,-0.076,-0.048,75.175,0.059,-0.663
'[13:39:25.404 02/12/1995]',-0.065,-0.065,-0.048,75.175,0.059,-0.663
'[13:39:25.406 02/12/1995]',-0.043,-0.032,-0.068,75.175,0.059,-0.663
'[13:39:25.408 02/12/1995]',-0.032,-0.010,-0.078,75.075,0.000,-0.662
'[13:39:25.410 02/12/1995]',-0.032,-0.010,-0.068,75.075,0.000,-0.662
'[13:39:25.412 02/12/1995]',-0.043,-0.032,-0.068,75.075,0.000,-0.662
'[13:39:25.414 02/12/1995]',-0.043,-0.043,-0.058,75.075,0.000,-0.662
'[13:39:25.416 02/12/1995]',-0.065,-0.065,-0.048,74.724,-0.044,-0.661
'[13:39:25.418 02/12/1995]',-0.065,-0.065,-0.048,74.724,-0.044,-0.661
'[13:39:25.420 02/12/1995]',-0.065,-0.065,-0.048,74.724,-0.044,-0.661
'[13:39:25.422 02/12/1995]',-0.043,-0.032,-0.058,74.724,-0.044,-0.661
'[13:39:25.424 02/12/1995]',-0.032,-0.010,-0.068,74.274,-0.089,-0.660
'[13:39:25.426 02/12/1995]',-0.021,0.001,-0.068,74.274,-0.089,-0.660
'[13:39:25.428 02/12/1995]',-0.032,-0.021,-0.068,74.274,-0.089,-0.660
'[13:39:25.430 02/12/1995]',-0.043,-0.043,-0.058,74.274,-0.089,-0.660
'[13:39:25.432 02/12/1995]',-0.065,-0.054,-0.048,73.873,-0.134,-0.659
'[13:39:25.434 02/12/1995]',-0.065,-0.065,-0.048,73.873,-0.134,-0.659
'[13:39:25.436 02/12/1995]',-0.065,-0.065,-0.048,73.873,-0.134,-0.659
'[13:39:25.438 02/12/1995]',-0.065,-0.054,-0.058,73.873,-0.134,-0.659
'[13:39:25.440 02/12/1995]',-0.043,-0.021,-0.058,73.372,-0.134,-0.658
'[13:39:25.442 02/12/1995]',-0.032,-0.010,-0.068,73.372,-0.134,-0.658
'[13:39:25.444 02/12/1995]',-0.032,-0.010,-0.068,73.372,-0.134,-0.658
'[13:39:25.446 02/12/1995]',-0.032,-0.021,-0.058,73.372,-0.134,-0.658
'[13:39:25.448 02/12/1995]',-0.054,-0.054,-0.048,72.971,-0.148,-0.657
'[13:39:25.450 02/12/1995]',-0.065,-0.065,-0.048,72.971,-0.148,-0.657
'[13:39:25.452 02/12/1995]',-0.065,-0.076,-0.048,72.971,-0.148,-0.657
'[13:39:25.454 02/12/1995]',-0.065,-0.054,-0.048,72.971,-0.148,-0.657
'[13:39:25.456 02/12/1995]',-0.043,-0.021,-0.058,72.471,-0.178,-0.655
'[13:39:25.458 02/12/1995]',-0.032,-0.010,-0.068,72.471,-0.178,-0.655
'[13:39:25.460 02/12/1995]',-0.021,-0.010,-0.068,72.471,-0.178,-0.655
'[13:39:25.462 02/12/1995]',-0.032,-0.021,-0.048,72.471,-0.178,-0.655
'[13:39:25.464 02/12/1995]',-0.043,-0.032,-0.038,71.920,-0.178,-0.653
'[13:39:25.466 02/12/1995]',-0.054,-0.054,-0.038,71.920,-0.178,-0.653
'[13:39:25.468 02/12/1995]',-0.065,-0.065,-0.029,71.920,-0.178,-0.653
'[13:39:25.470 02/12/1995]',-0.065,-0.054,-0.038,71.920,-0.178,-0.653
'[13:39:25.472 02/12/1995]',-0.043,-0.032,-0.038,71.419,-0.178,-0.651
'[13:39:25.474 02/12/1995]',-0.032,0.001,-0.048,71.419,-0.178,-0.651
'[13:39:25.476 02/12/1995]',-0.021,-0.010,-0.048,71.419,-0.178,-0.651
'[13:39:25.478 02/12/1995]',-0.032,-0.010,-0.048,71.419,-0.178,-0.651
'[13:39:25.480 02/12/1995]',-0.043,-0.032,-0.038,70.918,-0.193,-0.648
'[13:39:25.482 02/12/1995]',-0.054,-0.043,-0.029,70.918,-0.193,-0.648
'[13:39:25.484 02/12/1995]',-0.065,-0.065,-0.029,70.918,-0.193,-0.648
'[13:39:25.486 02/12/1995]',-0.065,-0.054,-0.029,70.918,-0.193,-0.648
'[13:39:25.488 02/12/1995]',-0.054,-0.043,-0.038,70.517,-0.193,-0.646
'[13:39:25.490 02/12/1995]',-0.043,-0.021,-0.048,70.517,-0.193,-0.646
'[13:39:25.492 02/12/1995]',-0.032,0.001,-0.048,70.517,-0.193,-0.646
'[13:39:25.494 02/12/1995]',-0.021,0.001,-0.048,70.517,-0.193,-0.646
'[13:39:25.496 02/12/1995]',-0.032,-0.021,-0.038,70.117,-0.207,-0.643
'[13:39:25.498 02/12/1995]',-0.043,-0.043,-0.038,70.117,-0.207,-0.643
'[13:39:25.500 02/12/1995]',-0.065,-0.065,-0.029,70.117,-0.207,-0.643
'[13:39:25.502 02/12/1995]',-0.065,-0.054,-0.029,70.117,-0.207,-0.643
'[13:39:25.504 02/12/1995]',-0.054,-0.043,-0.038,69.616,-0.222,-0.640
'[13:39:25.506 02/12/1995]',-0.043,-0.021,-0.038,69.616,-0.222,-0.640
'[13:39:25.508 02/12/1995]',-0.032,0.001,-0.048,69.616,-0.222,-0.640
'[13:39:25.510 02/12/1995]',-0.021,0.001,-0.048,69.616,-0.222,-0.640
'[13:39:25.512 02/12/1995]',-0.021,-0.010,-0.048,69.165,-0.252,-0.637
'[13:39:25.514 02/12/1995]',-0.043,-0.043,-0.038,69.165,-0.252,-0.637
'[13:39:25.516 02/12/1995]',-0.054,-0.054,-0.029,69.165,-0.252,-0.637
'[13:39:25.518 02/12/1995]',-0.065,-0.065,-0.019,69.165,-0.252,-0.637
'[13:39:25.520 02/12/1995]',-0.054,-0.043,-0.029,68.614,-0.281,-0.635
'[13:39:25.522 02/12/1995]',-0.043,-0.032,-0.038,68.614,-0.281,-0.635
'[13:39:25.524 02/12/1995]',-0.032,-0.010,-0.048,68.614,-0.281,-0.635
'[13:39:25.526 02/12/1995]',-0.021,0.001,-0.048,68.614,-0.281,-0.635
'[13:39:25.528 02/12/1995]',-0.032,0.001,-0.038,68.113,-0.281,-0.632
'[13:39:25.530 02/12/1995]',-0.043,-0.021,-0.029,68.113,-0.281,-0.632
'[13:39:25.532 02/12/1995]',-0.043,-0.054,-0.029,68.113,-0.281,-0.632
'[13:39:25.534 02/12/1995]',-0.065,-0.065,-0.029,68.113,-0.281,-0.632
'[13:39:25.536 02/12/1995]',-0.054,-0.054,-0.019,67.562,-0.326,-0.630
'[13:39:25.538 02/12/1995]',-0.054,-0.043,-0.029,67.562,-0.326,-0.630
'[13:39:25.540 02/12/1995]',-0.032,-0.010,-0.038,67.562,-0.326,-0.630
'[13:39:25.542 02/12/1995]',-0.021,0.001,-0.048,67.562,-0.326,-0.630
'[13:39:25.544 02/12/1995]',-0.021,0.001,-0.038,67.112,-0.341,-0.628
'[13:39:25.546 02/12/1995]',-0.032,-0.021,-0.038,67.112,-0.341,-0.628
'[13:39:25.548 02/12/1995]',-0.043,-0.043,-0.029,67.112,-0.341,-0.628
'[13:39:25.550 02/12/1995]',-0.054,-0.054,-0.029,67.112,-0.341,-0.628
'[13:39:25.552 02/12/1995]',-0.065,-0.065,-0.019,66.661,-0.355,-0.626
'[13:39:25.554 02/12/1995]',-0.065,-0.043,-0.029,66.661,-0.355,-0.626
'[13:39:25.556 02/12/1995]',-0.043,-0.021,-0.038,66.661,-0.355,-0.626
'[13:39:25.558 02/12/1995]',-0.032,-0.010,-0.038,66.661,-0.355,-0.626
'[13:39:25.560 02/12/1995]',-0.021,0.001,-0.048,66.310,-0.400,-0.624
'[13:39:25.562 02/12/1995]',-0.032,-0.021,-0.038,66.310,-0.400,-0.624
'[13:39:25.564 02/12/1995]',-0.043,-0.032,-0.029,66.310,-0.400,-0.624
'[13:39:25.566 02/12/1995]',-0.065,-0.054,-0.019,66.310,-0.400,-0.624
'[13:39:25.568 02/12/1995]',-0.065,-0.065,-0.009,65.860,-0.370,-0.622
'[13:39:25.570 02/12/1995]',-0.065,-0.054,-0.019,65.860,-0.370,-0.622
'[13:39:25.572 02/12/1995]',-0.043,-0.021,-0.029,65.860,-0.370,-0.622
'[13:39:25.574 02/12/1995]',-0.032,0.001,-0.038,65.860,-0.370,-0.622
'[13:39:25.576 02/12/1995]',-0.021,0.001,-0.038,65.459,-0.400,-0.620
'[13:39:25.578 02/12/1995]',-0.021,-0.010,-0.038,65.459,-0.400,-0.620
'[13:39:25.580 02/12/1995]',-0.032,-0.021,-0.038,65.459,-0.400,-0.620
'[13:39:25.582 02/12/1995]',-0.054,-0.043,-0.019,65.459,-0.400,-0.620
'[13:39:25.584 02/12/1995]',-0.065,-0.065,-0.019,65.058,-0.429,-0.618
'[13:39:25.586 02/12/1995]',-0.065,-0.054,-0.019,65.058,-0.429,-0.618
'[13:39:25.588 02/12/1995]',-0.054,-0.043,-0.038,65.058,-0.429,-0.618
'[13:39:25.590 02/12/1995]',-0.043,-0.021,-0.038,65.058,-0.429,-0.618
'[13:39:25.592 02/12/1995]',-0.021,0.001,-0.048,64.658,-0.429,-0.617
'[13:39:25.594 02/12/1995]',-0.021,-0.010,-0.038,64.658,-0.429,-0.617
'[13:39:25.596 02/12/1995]',-0.032,-0.010,-0.038,64.658,-0.429,-0.617
'[13:39:25.598 02/12/1995]',-0.043,-0.032,-0.029,64.658,-0.429,-0.617
'[13:39:25.600 02/12/1995]',-0.065,-0.054,-0.019,64.257,-0.460,-0.615
'[13:39:25.602 02/12/1995]',-0.065,-0.054,-0.019,64.257,-0.460,-0.615
'[13:39:25.604 02/12/1995]',-0.054,-0.043,-0.019,64.257,-0.460,-0.615
'[13:39:25.606 02/12/1995]',-0.043,-0.021,-0.029,64.257,-0.460,-0.615
'[13:39:25.608 02/12/1995]',-0.021,0.001,-0.048,63.806,-0.460,-0.614
'[13:39:25.610 02/12/1995]',-0.021,0.001,-0.038,63.806,-0.460,-0.614
'[13:39:25.612 02/12/1995]',-0.021,-0.010,-0.038,63.806,-0.460,-0.614
'[13:39:25.614 02/12/1995]',-0.043,-0.021,-0.019,63.806,-0.460,-0.614
'[13:39:25.616 02/12/1995]',-0.043,-0.054,-0.019,63.456,-0.489,-0.612
'[13:39:25.618 02/12/1995]',-0.065,-0.054,-0.019,63.456,-0.489,-0.612
'[13:39:25.620 02/12/1995]',-0.065,-0.054,-0.019,63.456,-0.489,-0.612
'[13:39:25.622 02/12/1995]',-0.043,-0.021,-0.029,63.456,-0.489,-0.612
'[13:39:25.624 02/12/1995]',-0.021,-0.010,-0.038,63.255,-0.489,-0.611
'[13:39:25.626 02/12/1995]',-0.021,0.001,-0.038,63.255,-0.489,-0.611
'[13:39:25.628 02/12/1995]',-0.021,0.001,-0.038,63.255,-0.489,-0.611
'[13:39:25.630 02/12/1995]',-0.032,-0.021,-0.029,63.255,-0.489,-0.611
'[13:39:25.632 02/12/1995]',-0.054,-0.043,-0.019,63.005,-0.533,-0.609
'[13:39:25.634 02/12/1995]',-0.054,-0.054,-0.009,63.005,-0.533,-0.609
'[13:39:25.636 02/12/1995]',-0.054,-0.043,-0.019,63.005,-0.533,-0.609
'[13:39:25.638 02/12/1995]',-0.043,-0.032,-0.029,63.005,-0.533,-0.609
'[13:39:25.640 02/12/1995]',-0.032,-0.010,-0.029,62.805,-0.533,-0.608
'[13:39:25.642 02/12/1995]',-0.021,0.001,-0.038,62.805,-0.533,-0.608
'[13:39:25.644 02/12/1995]',-0.021,0.001,-0.029,62.805,-0.533,-0.608
'[13:39:25.646 02/12/1995]',-0.021,-0.010,-0.029,62.805,-0.533,-0.608
'[13:39:25.648 02/12/1995]',-0.043,-0.032,-0.019,62.654,-0.548,-0.606
'[13:39:25.650 02/12/1995]',-0.054,-0.054,-0.009,62.654,-0.548,-0.606
'[13:39:25.652 02/12/1995]',-0.065,-0.054,-0.019,62.654,-0.548,-0.606
'[13:39:25.654 02/12/1995]',-0.054,-0.043,-0.029,62.654,-0.548,-0.606
'[13:39:25.656 02/12/1995]',-0.032,-0.010,-0.029,62.554,-0.578,-0.604
'[13:39:25.658 02/12/1995]',-0.021,0.001,-0.038,62.554,-0.578,-0.604
'[13:39:25.660 02/12/1995]',-0.021,0.001,-0.038,62.554,-0.578,-0.604
'[13:39:25.662 02/12/1995]',-0.021,-0.010,-0.029,62.554,-0.578,-0.604
'[13:39:25.664 02/12/1995]',-0.032,-0.021,-0.029,62.354,-0.578,-0.602
'[13:39:25.666 02/12/1995]',-0.043,-0.054,-0.009,62.354,-0.578,-0.602
'[13:39:25.668 02/12/1995]',-0.065,-0.054,-0.009,62.354,-0.578,-0.602
'[13:39:25.670 02/12/1995]',-0.054,-0.043,-0.019,62.354,-0.578,-0.602
'[13:39:25.672 02/12/1995]',-0.043,-0.021,-0.019,62.204,-0.593,-0.600
'[13:39:25.674 02/12/1995]',-0.021,0.001,-0.038,62.204,-0.593,-0.600
'[13:39:25.676 02/12/1995]',-0.021,0.001,-0.038,62.204,-0.593,-0.600
'[13:39:25.678 02/12/1995]',-0.021,-0.010,-0.038,62.204,-0.593,-0.600
'[13:39:25.680 02/12/1995]',-0.032,-0.032,-0.029,61.953,-0.608,-0.598
'[13:39:25.682 02/12/1995]',-0.043,-0.043,-0.019,61.953,-0.608,-0.598
'[13:39:25.684 02/12/1995]',-0.054,-0.054,-0.019,61.953,-0.608,-0.598
'[13:39:25.686 02/12/1995]',-0.054,-0.054,-0.019,61.953,-0.608,-0.598
'[13:39:25.688 02/12/1995]',-0.043,-0.021,-0.019,61.753,-0.593,-0.596
'[13:39:25.690 02/12/1995]',-0.021,0.001,-0.019,61.753,-0.593,-0.596
'[13:39:25.692 02/12/1995]',0.001,0.011,-0.019,61.753,-0.593,-0.596
'[13:39:25.694 02/12/1995]',0.001,0.011,-0.019,61.753,-0.593,-0.596
'[13:39:25.696 02/12/1995]',0.001,0.001,0.001,61.552,-0.608,-0.594
'[13:39:25.698 02/12/1995]',0.001,0.001,0.001,61.552,-0.608,-0.594
'[13:39:25.700 02/12/1995]',-0.021,-0.010,0.001,61.552,-0.608,-0.594
'[13:39:25.702 02/12/1995]',-0.021,-0.010,0.001,61.552,-0.608,-0.594
'[13:39:25.704 02/12/1995]',-0.010,0.001,0.001,61.352,-0.608,-0.592
'[13:39:25.706 02/12/1995]',0.001,0.011,0.001,61.352,-0.608,-0.592
'[13:39:25.708 02/12/1995]',0.011,0.034,0.001,61.352,-0.608,-0.592
'[13:39:25.710 02/12/1995]',0.022,0.034,0.001,61.352,-0.608,-0.592
'[13:39:25.712 02/12/1995]',0.022,0.034,0.001,61.202,-0.623,-0.590
'[13:39:25.714 02/12/1995]',0.001,0.011,0.001,61.202,-0.623,-0.590
'[13:39:25.716 02/12/1995]',0.001,0.001,0.010,61.202,-0.623,-0.590
'[13:39:25.718 02/12/1995]',0.001,0.001,0.010,61.202,-0.623,-0.590
'[13:39:25.720 02/12/1995]',0.001,0.001,0.010,61.002,-0.623,-0.589
'[13:39:25.722 02/12/1995]',0.001,0.011,0.001,61.002,-0.623,-0.589
'[13:39:25.724 02/12/1995]',0.011,0.022,0.001,61.002,-0.623,-0.589
'[13:39:25.726 02/12/1995]',0.011,0.034,0.001,61.002,-0.623,-0.589
'[13:39:25.728 02/12/1995]',0.011,0.011,-0.009,60.901,-0.637,-0.587
'[13:39:25.730 02/12/1995]',0.001,0.001,0.001,60.901,-0.637,-0.587
'[13:39:25.732 02/12/1995]',-0.021,0.001,0.001,60.901,-0.637,-0.587
'[13:39:25.734 02/12/1995]',-0.032,-0.021,0.001,60.901,-0.637,-0.587
'[13:39:25.736 02/12/1995]',-0.043,-0.021,0.001,60.651,-0.637,-0.586
'[13:39:25.738 02/12/1995]',-0.021,-0.010,-0.009,60.651,-0.637,-0.586
'[13:39:25.740 02/12/1995]',-0.010,0.001,-0.029,60.651,-0.637,-0.586
'[13:39:25.742 02/12/1995]',0.001,0.001,-0.029,60.651,-0.637,-0.586
'[13:39:25.744 02/12/1995]',-0.010,0.001,-0.038,60.501,-0.652,-0.585
'[13:39:25.746 02/12/1995]',-0.021,-0.021,-0.029,60.501,-0.652,-0.585
'[13:39:25.748 02/12/1995]',-0.032,-0.054,-0.029,60.501,-0.652,-0.585
'[13:39:25.750 02/12/1995]',-0.054,-0.065,-0.029,60.501,-0.652,-0.585
'[13:39:25.752 02/12/1995]',-0.065,-0.076,-0.029,60.350,-0.652,-0.584
'[13:39:25.754 02/12/1995]',-0.065,-0.076,-0.038,60.350,-0.652,-0.584
'[13:39:25.756 02/12/1995]',-0.043,-0.043,-0.048,60.350,-0.652,-0.584
'[13:39:25.758 02/12/1995]',-0.021,-0.021,-0.058,60.350,-0.652,-0.584
'[13:39:25.760 02/12/1995]',-0.021,-0.021,-0.058,60.200,-0.681,-0.583
'[13:39:25.762 02/12/1995]',-0.043,-0.043,-0.048,60.200,-0.681,-0.583
'[13:39:25.764 02/12/1995]',-0.043,-0.065,-0.048,60.200,-0.681,-0.583
'[13:39:25.766 02/12/1995]',-0.065,-0.087,-0.038,60.200,-0.681,-0.583
'[13:39:25.768 02/12/1995]',-0.065,-0.087,-0.038,60.000,-0.666,-0.582
'[13:39:25.770 02/12/1995]',-0.065,-0.065,-0.038,60.000,-0.666,-0.582
'[13:39:25.772 02/12/1995]',-0.043,-0.043,-0.048,60.000,-0.666,-0.582
'[13:39:25.774 02/12/1995]',-0.032,-0.021,-0.048,60.000,-0.666,-0.582
'[13:39:25.776 02/12/1995]',-0.021,-0.010,-0.048,59.749,-0.681,-0.581
'[13:39:25.778 02/12/1995]',-0.021,-0.010,-0.038,59.749,-0.681,-0.581
'[13:39:25.780 02/12/1995]',-0.032,-0.032,-0.029,59.749,-0.681,-0.581
'[13:39:25.782 02/12/1995]',-0.043,-0.054,-0.029,59.749,-0.681,-0.581
'[13:39:25.784 02/12/1995]',-0.065,-0.065,-0.019,59.549,-0.681,-0.579
'[13:39:25.786 02/12/1995]',-0.065,-0.065,-0.029,59.549,-0.681,-0.579
'[13:39:25.788 02/12/1995]',-0.054,-0.043,-0.038,59.549,-0.681,-0.579
'[13:39:25.790 02/12/1995]',-0.043,-0.021,-0.038,59.549,-0.681,-0.579
'[13:39:25.792 02/12/1995]',-0.043,-0.021,-0.048,59.299,-0.681,-0.578
'[13:39:25.794 02/12/1995]',-0.032,-0.021,-0.048,59.299,-0.681,-0.578
'[13:39:25.796 02/12/1995]',-0.043,-0.032,-0.038,59.299,-0.681,-0.578
'[13:39:25.798 02/12/1995]',-0.054,-0.054,-0.038,59.299,-0.681,-0.578
'[13:39:25.800 02/12/1995]',-0.065,-0.076,-0.029,59.048,-0.697,-0.576
'[13:39:25.802 02/12/1995]',-0.065,-0.065,-0.019,59.048,-0.697,-0.576
'[13:39:25.804 02/12/1995]',-0.065,-0.054,-0.029,59.048,-0.697,-0.576
'[13:39:25.806 02/12/1995]',-0.043,-0.021,-0.038,59.048,-0.697,-0.576
'[13:39:25.808 02/12/1995]',-0.032,-0.010,-0.038,58.848,-0.681,-0.574
'[13:39:25.810 02/12/1995]',-0.032,-0.010,-0.048,58.848,-0.681,-0.574
'[13:39:25.812 02/12/1995]',-0.032,-0.021,-0.038,58.848,-0.681,-0.574
'[13:39:25.814 02/12/1995]',-0.043,-0.043,-0.029,58.848,-0.681,-0.574
'[13:39:25.816 02/12/1995]',-0.054,-0.054,-0.019,58.598,-0.681,-0.572
'[13:39:25.818 02/12/1995]',-0.065,-0.065,-0.019,58.598,-0.681,-0.572
'[13:39:25.820 02/12/1995]',-0.065,-0.054,-0.019,58.598,-0.681,-0.572
'[13:39:25.822 02/12/1995]',-0.043,-0.032,-0.029,58.598,-0.681,-0.572
'[13:39:25.824 02/12/1995]',-0.032,-0.021,-0.048,58.447,-0.681,-0.570
'[13:39:25.826 02/12/1995]',-0.032,-0.032,-0.058,58.447,-0.681,-0.570
'[13:39:25.828 02/12/1995]',-0.054,-0.054,-0.068,58.447,-0.681,-0.570
'[13:39:25.830 02/12/1995]',-0.065,-0.098,-0.058,58.447,-0.681,-0.570
'[13:39:25.832 02/12/1995]',-0.086,-0.131,-0.058,58.197,-0.681,-0.568
'[13:39:25.834 02/12/1995]',-0.086,-0.153,-0.058,58.197,-0.681,-0.568
'[13:39:25.836 02/12/1995]',-0.086,-0.153,-0.058,58.197,-0.681,-0.568
'[13:39:25.838 02/12/1995]',-0.065,-0.131,-0.048,58.197,-0.681,-0.568
'[13:39:25.840 02/12/1995]',-0.021,-0.076,-0.019,57.946,-0.697,-0.566
'[13:39:25.842 02/12/1995]',0.033,-0.010,0.001,57.946,-0.697,-0.566
'[13:39:25.844 02/12/1995]',0.088,0.011,0.049,57.946,-0.697,-0.566
'[13:39:25.846 02/12/1995]',0.132,0.022,0.099,57.946,-0.697,-0.566
'[13:39:25.848 02/12/1995]',0.175,0.044,0.167,57.646,-0.697,-0.565
'[13:39:25.850 02/12/1995]',0.241,0.077,0.226,57.646,-0.697,-0.565
'[13:39:25.852 02/12/1995]',0.317,0.143,0.294,57.646,-0.697,-0.565
'[13:39:25.854 02/12/1995]',0.393,0.176,0.333,57.646,-0.697,-0.565
'[13:39:25.856 02/12/1995]',0.459,0.231,0.362,57.496,-0.681,-0.564
'[13:39:25.858 02/12/1995]',0.524,0.275,0.382,57.496,-0.681,-0.564
'[13:39:25.860 02/12/1995]',0.579,0.351,0.431,57.496,-0.681,-0.564
'[13:39:25.862 02/12/1995]',0.622,0.428,0.470,57.496,-0.681,-0.564
'[13:39:25.864 02/12/1995]',0.611,0.462,0.480,57.295,-0.697,-0.563
'[13:39:25.866 02/12/1995]',0.600,0.483,0.480,57.295,-0.697,-0.563
'[13:39:25.868 02/12/1995]',0.568,0.505,0.470,57.295,-0.697,-0.563
'[13:39:25.870 02/12/1995]',0.546,0.538,0.440,57.295,-0.697,-0.563
'[13:39:25.872 02/12/1995]',0.524,0.582,0.392,57.145,-0.711,-0.562
'[13:39:25.874 02/12/1995]',0.513,0.615,0.343,57.145,-0.711,-0.562
'[13:39:25.876 02/12/1995]',0.480,0.615,0.284,57.145,-0.711,-0.562
'[13:39:25.878 02/12/1995]',0.404,0.571,0.216,57.145,-0.711,-0.562
'[13:39:25.880 02/12/1995]',0.317,0.494,0.138,56.945,-0.681,-0.560
'[13:39:25.882 02/12/1995]',0.230,0.406,0.069,56.945,-0.681,-0.560
'[13:39:25.884 02/12/1995]',0.143,0.330,0.010,56.945,-0.681,-0.560
'[13:39:25.886 02/12/1995]',0.088,0.275,-0.038,56.945,-0.681,-0.560
'[13:39:25.888 02/12/1995]',0.033,0.231,-0.087,56.795,-0.697,-0.559
'[13:39:25.890 02/12/1995]',0.022,0.198,-0.107,56.795,-0.697,-0.559
'[13:39:25.892 02/12/1995]',0.001,0.165,-0.136,56.795,-0.697,-0.559
'[13:39:25.894 02/12/1995]',-0.032,0.111,-0.146,56.795,-0.697,-0.559
'[13:39:25.896 02/12/1995]',-0.054,0.056,-0.146,56.544,-0.697,-0.558
'[13:39:25.898 02/12/1995]',-0.065,0.011,-0.127,56.544,-0.697,-0.558
'[13:39:25.900 02/12/1995]',-0.076,0.001,-0.097,56.544,-0.697,-0.558
'[13:39:25.902 02/12/1995]',-0.065,0.001,-0.087,56.544,-0.697,-0.558
'[13:39:25.904 02/12/1995]',-0.054,0.001,-0.087,56.394,-0.681,-0.556
'[13:39:25.906 02/12/1995]',-0.021,0.011,-0.078,56.394,-0.681,-0.556
'[13:39:25.908 02/12/1995]',-0.010,0.022,-0.078,56.394,-0.681,-0.556
'[13:39:25.910 02/12/1995]',0.001,0.034,-0.068,56.394,-0.681,-0.556
'[13:39:25.912 02/12/1995]',0.001,0.022,-0.058,56.194,-0.681,-0.555
'[13:39:25.914 02/12/1995]',-0.010,0.001,-0.038,56.194,-0.681,-0.555
'[13:39:25.916 02/12/1995]',-0.021,-0.010,-0.029,56.194,-0.681,-0.555
'[13:39:25.918 02/12/1995]',-0.021,-0.010,-0.019,56.194,-0.681,-0.555
'[13:39:25.920 02/12/1995]',-0.021,0.001,-0.029,55.943,-0.697,-0.554
'[13:39:25.922 02/12/1995]',0.001,0.001,-0.029,55.943,-0.697,-0.554
'[13:39:25.924 02/12/1995]',0.011,0.022,-0.029,55.943,-0.697,-0.554
'[13:39:25.926 02/12/1995]',0.022,0.034,-0.038,55.943,-0.697,-0.554
'[13:39:25.928 02/12/1995]',0.022,0.022,-0.029,55.793,-0.681,-0.553
'[13:39:25.930 02/12/1995]',0.001,0.001,-0.019,55.793,-0.681,-0.553
'[13:39:25.932 02/12/1995]',0.001,0.001,-0.009,55.793,-0.681,-0.553
'[13:39:25.934 02/12/1995]',-0.010,-0.010,-0.009,55.793,-0.681,-0.553
'[13:39:25.936 02/12/1995]',-0.010,0.001,-0.009,55.593,-0.697,-0.552
'[13:39:25.938 02/12/1995]',0.001,0.001,-0.019,55.593,-0.697,-0.552
'[13:39:25.940 02/12/1995]',0.001,0.011,-0.029,55.593,-0.697,-0.552
'[13:39:25.942 02/12/1995]',0.011,0.022,-0.038,55.593,-0.697,-0.552
'[13:39:25.944 02/12/1995]',0.011,0.022,-0.029,55.442,-0.697,-0.552
'[13:39:25.946 02/12/1995]',0.011,0.001,-0.019,55.442,-0.697,-0.552
'[13:39:25.948 02/12/1995]',0.001,0.001,-0.009,55.442,-0.697,-0.552
'[13:39:25.950 02/12/1995]',-0.010,-0.010,-0.009,55.442,-0.697,-0.552
'[13:39:25.952 02/12/1995]',-0.010,-0.010,0.001,55.242,-0.697,-0.551
'[13:39:25.954 02/12/1995]',0.001,0.001,-0.009,55.242,-0.697,-0.551
'[13:39:25.956 02/12/1995]',0.001,0.001,-0.019,55.242,-0.697,-0.551
'[13:39:25.958 02/12/1995]',0.022,0.011,-0.029,55.242,-0.697,-0.551
'[13:39:25.960 02/12/1995]',0.022,0.022,-0.029,55.142,-0.711,-0.551
'[13:39:25.962 02/12/1995]',0.011,0.001,-0.019,55.142,-0.711,-0.551
'[13:39:25.964 02/12/1995]',0.001,0.001,-0.009,55.142,-0.711,-0.551
'[13:39:25.966 02/12/1995]',0.001,-0.010,0.001,55.142,-0.711,-0.551
'[13:39:25.968 02/12/1995]',0.001,-0.010,0.001,54.941,-0.711,-0.551
'[13:39:25.970 02/12/1995]',0.001,0.001,-0.009,54.941,-0.711,-0.551
'[13:39:25.972 02/12/1995]',0.001,0.001,-0.019,54.941,-0.711,-0.551
'[13:39:25.974 02/12/1995]',0.022,0.011,-0.019,54.941,-0.711,-0.551
'[13:39:25.976 02/12/1995]',0.022,0.022,-0.029,54.841,-0.711,-0.551
'[13:39:25.978 02/12/1995]',0.022,0.011,-0.019,54.841,-0.711,-0.551
'[13:39:25.980 02/12/1995]',0.011,0.001,-0.009,54.841,-0.711,-0.551
'[13:39:25.982 02/12/1995]',0.001,-0.010,-0.009,54.841,-0.711,-0.551
'[13:39:25.984 02/12/1995]',0.001,-0.021,0.001,54.691,-0.726,-0.551
'[13:39:25.986 02/12/1995]',0.001,0.001,-0.009,54.691,-0.726,-0.551
'[13:39:25.988 02/12/1995]',0.001,0.001,-0.009,54.691,-0.726,-0.551
'[13:39:25.990 02/12/1995]',0.022,0.022,-0.019,54.691,-0.726,-0.551
'[13:39:25.992 02/12/1995]',0.033,0.034,-0.019,54.541,-0.726,-0.552
'[13:39:25.994 02/12/1995]',0.033,0.022,-0.019,54.541,-0.726,-0.552
'[13:39:25.996 02/12/1995]',0.022,0.011,-0.009,54.541,-0.726,-0.552
'[13:39:25.998 02/12/1995]',0.011,0.001,0.001,54.541,-0.726,-0.552
'[13:39:26.000 02/12/1995]',0.001,0.001,0.001,54.441,-0.726,-0.552
'[13:39:26.002 02/12/1995]',0.001,0.001,0.001,54.441,-0.726,-0.552
'[13:39:26.004 02/12/1995]',0.001,0.001,0.001,54.441,-0.726,-0.552
'[13:39:26.006 02/12/1995]',0.022,0.011,-0.009,54.441,-0.726,-0.552
'[13:39:26.008 02/12/1995]',0.033,0.022,-0.009,54.290,-0.741,-0.553
'[13:39:26.010 02/12/1995]',0.044,0.034,-0.019,54.290,-0.741,-0.553
'[13:39:26.012 02/12/1995]',0.044,0.022,0.001,54.290,-0.741,-0.553
'[13:39:26.014 02/12/1995]',0.022,0.001,0.001,54.290,-0.741,-0.553
'[13:39:26.016 02/12/1995]',0.022,0.001,0.001,54.190,-0.726,-0.554
'[13:39:26.018 02/12/1995]',0.001,0.001,0.001,54.190,-0.726,-0.554
'[13:39:26.020 02/12/1995]',0.022,0.001,0.001,54.190,-0.726,-0.554
'[13:39:26.022 02/12/1995]',0.033,0.022,0.001,54.190,-0.726,-0.554
'[13:39:26.024 02/12/1995]',0.044,0.044,0.001,54.140,-0.726,-0.556
'[13:39:26.026 02/12/1995]',0.055,0.056,-0.019,54.140,-0.726,-0.556
'[13:39:26.028 02/12/1995]',0.044,0.034,0.001,54.140,-0.726,-0.556
'[13:39:26.030 02/12/1995]',0.044,0.022,0.001,54.140,-0.726,-0.556
'[13:39:26.032 02/12/1995]',0.033,0.001,0.001,54.140,-0.726,-0.558
'[13:39:26.034 02/12/1995]',0.022,0.001,0.001,54.140,-0.726,-0.558
'[13:39:26.036 02/12/1995]',0.022,0.001,0.001,54.140,-0.726,-0.558
'[13:39:26.038 02/12/1995]',0.044,0.022,0.001,54.140,-0.726,-0.558
'[13:39:26.040 02/12/1995]',0.055,0.044,0.001,54.190,-0.711,-0.561
'[13:39:26.042 02/12/1995]',0.066,0.056,0.001,54.190,-0.711,-0.561
'[13:39:26.044 02/12/1995]',0.066,0.056,0.001,54.190,-0.711,-0.561
'[13:39:26.046 02/12/1995]',0.066,0.034,0.001,54.190,-0.711,-0.561
'[13:39:26.048 02/12/1995]',0.044,0.011,0.010,54.391,-0.711,-0.564
'[13:39:26.050 02/12/1995]',0.044,0.001,0.020,54.391,-0.711,-0.564
'[13:39:26.052 02/12/1995]',0.033,0.001,0.010,54.391,-0.711,-0.564
'[13:39:26.054 02/12/1995]',0.044,0.011,0.010,54.391,-0.711,-0.564
'[13:39:26.056 02/12/1995]',0.066,0.044,0.001,54.591,-0.681,-0.566
'[13:39:26.058 02/12/1995]',0.088,0.056,0.001,54.591,-0.681,-0.566
'[13:39:26.060 02/12/1995]',0.088,0.056,0.001,54.591,-0.681,-0.566
'[13:39:26.062 02/12/1995]',0.077,0.056,0.010,54.591,-0.681,-0.566
'[13:39:26.064 02/12/1995]',0.066,0.044,0.020,55.192,-0.697,-0.568
'[13:39:26.066 02/12/1995]',0.055,0.022,0.020,55.192,-0.697,-0.568
'[13:39:26.068 02/12/1995]',0.055,0.011,0.030,55.192,-0.697,-0.568
'[13:39:26.070 02/12/1995]',0.066,0.022,0.020,55.192,-0.697,-0.568
'[13:39:26.072 02/12/1995]',0.088,0.056,0.020,56.194,-0.697,-0.570
'[13:39:26.074 02/12/1995]',0.099,0.077,0.010,56.194,-0.697,-0.570
'[13:39:26.076 02/12/1995]',0.110,0.088,0.010,56.194,-0.697,-0.570
'[13:39:26.078 02/12/1995]',0.110,0.077,0.020,56.194,-0.697,-0.570
'[13:39:26.080 02/12/1995]',0.099,0.067,0.030,57.997,-0.666,-0.571
'[13:39:26.082 02/12/1995]',0.088,0.044,0.030,57.997,-0.666,-0.571
'[13:39:26.084 02/12/1995]',0.077,0.034,0.040,57.997,-0.666,-0.571
'[13:39:26.086 02/12/1995]',0.088,0.044,0.040,57.997,-0.666,-0.571
'[13:39:26.088 02/12/1995]',0.099,0.067,0.040,60.751,-0.666,-0.572
'[13:39:26.090 02/12/1995]',0.121,0.088,0.030,60.751,-0.666,-0.572
'[13:39:26.092 02/12/1995]',0.132,0.100,0.030,60.751,-0.666,-0.572
'[13:39:26.094 02/12/1995]',0.143,0.100,0.030,60.751,-0.666,-0.572
'[13:39:26.096 02/12/1995]',0.132,0.088,0.040,64.608,-0.666,-0.573
'[13:39:26.098 02/12/1995]',0.121,0.044,0.049,64.608,-0.666,-0.573
'[13:39:26.100 02/12/1995]',0.110,0.044,0.049,64.608,-0.666,-0.573
'[13:39:26.102 02/12/1995]',0.110,0.056,0.049,64.608,-0.666,-0.573
'[13:39:26.104 02/12/1995]',0.121,0.067,0.049,69.115,-0.652,-0.573
'[13:39:26.106 02/12/1995]',0.143,0.088,0.049,69.115,-0.652,-0.573
'[13:39:26.108 02/12/1995]',0.154,0.121,0.040,69.115,-0.652,-0.573
'[13:39:26.110 02/12/1995]',0.164,0.121,0.040,69.115,-0.652,-0.573
'[13:39:26.112 02/12/1995]',0.154,0.100,0.049,73.923,-0.637,-0.573
'[13:39:26.114 02/12/1995]',0.143,0.088,0.059,73.923,-0.637,-0.573
'[13:39:26.116 02/12/1995]',0.143,0.067,0.069,73.923,-0.637,-0.573
'[13:39:26.118 02/12/1995]',0.143,0.067,0.079,73.923,-0.637,-0.573
'[13:39:26.120 02/12/1995]',0.143,0.088,0.079,78.531,-0.623,-0.572
'[13:39:26.122 02/12/1995]',0.164,0.111,0.069,78.531,-0.623,-0.572
'[13:39:26.124 02/12/1995]',0.175,0.133,0.069,78.531,-0.623,-0.572
'[13:39:26.126 02/12/1995]',0.186,0.143,0.069,78.531,-0.623,-0.572
'[13:39:26.128 02/12/1995]',0.186,0.133,0.069,82.537,-0.593,-0.572
'[13:39:26.130 02/12/1995]',0.186,0.121,0.089,82.537,-0.593,-0.572
'[13:39:26.132 02/12/1995]',0.175,0.100,0.089,82.537,-0.593,-0.572
'[13:39:26.134 02/12/1995]',0.164,0.100,0.089,82.537,-0.593,-0.572
'[13:39:26.136 02/12/1995]',0.175,0.111,0.089,85.693,-0.548,-0.571
'[13:39:26.138 02/12/1995]',0.186,0.133,0.089,85.693,-0.548,-0.571
'[13:39:26.140 02/12/1995]',0.208,0.154,0.089,85.693,-0.548,-0.571
'[13:39:26.142 02/12/1995]',0.219,0.165,0.089,85.693,-0.548,-0.571
'[13:39:26.144 02/12/1995]',0.219,0.165,0.089,88.197,-0.504,-0.570
'[13:39:26.146 02/12/1995]',0.219,0.154,0.089,88.197,-0.504,-0.570
'[13:39:26.148 02/12/1995]',0.208,0.143,0.099,88.197,-0.504,-0.570
'[13:39:26.150 02/12/1995]',0.197,0.121,0.108,88.197,-0.504,-0.570
'[13:39:26.152 02/12/1995]',0.197,0.121,0.108,90.050,-0.460,-0.570
'[13:39:26.154 02/12/1995]',0.208,0.143,0.099,90.050,-0.460,-0.570
'[13:39:26.156 02/12/1995]',0.230,0.165,0.099,90.050,-0.460,-0.570
'[13:39:26.158 02/12/1995]',0.241,0.176,0.089,90.050,-0.460,-0.570
'[13:39:26.160 02/12/1995]',0.241,0.176,0.089,91.703,-0.386,-0.569
'[13:39:26.162 02/12/1995]',0.241,0.165,0.089,91.703,-0.386,-0.569
'[13:39:26.164 02/12/1995]',0.230,0.154,0.099,91.703,-0.386,-0.569
'[13:39:26.166 02/12/1995]',0.219,0.143,0.099,91.703,-0.386,-0.569
'[13:39:26.168 02/12/1995]',0.219,0.143,0.108,93.205,-0.311,-0.569
'[13:39:26.170 02/12/1995]',0.219,0.143,0.099,93.205,-0.311,-0.569
'[13:39:26.172 02/12/1995]',0.241,0.165,0.089,93.205,-0.311,-0.569
'[13:39:26.174 02/12/1995]',0.251,0.187,0.089,93.205,-0.311,-0.569
'[13:39:26.176 02/12/1995]',0.262,0.198,0.089,94.557,-0.252,-0.568
'[13:39:26.178 02/12/1995]',0.251,0.176,0.089,94.557,-0.252,-0.568
'[13:39:26.180 02/12/1995]',0.241,0.165,0.089,94.557,-0.252,-0.568
'[13:39:26.182 02/12/1995]',0.219,0.154,0.099,94.557,-0.252,-0.568
'[13:39:26.184 02/12/1995]',0.208,0.143,0.099,95.709,-0.148,-0.568
'[13:39:26.186 02/12/1995]',0.208,0.143,0.089,95.709,-0.148,-0.568
'[13:39:26.188 02/12/1995]',0.219,0.165,0.089,95.709,-0.148,-0.568
'[13:39:26.190 02/12/1995]',0.230,0.176,0.089,95.709,-0.148,-0.568
'[13:39:26.192 02/12/1995]',0.241,0.187,0.079,96.461,-0.044,-0.568
'[13:39:26.194 02/12/1995]',0.241,0.176,0.079,96.461,-0.044,-0.568
'[13:39:26.196 02/12/1995]',0.219,0.165,0.079,96.461,-0.044,-0.568
'[13:39:26.198 02/12/1995]',0.208,0.154,0.089,96.461,-0.044,-0.568
'[13:39:26.200 02/12/1995]',0.186,0.133,0.089,96.861,0.044,-0.569
'[13:39:26.202 02/12/1995]',0.186,0.121,0.079,96.861,0.044,-0.569
'[13:39:26.204 02/12/1995]',0.186,0.143,0.069,96.861,0.044,-0.569
'[13:39:26.206 02/12/1995]',0.186,0.165,0.059,96.861,0.044,-0.569
'[13:39:26.208 02/12/1995]',0.197,0.165,0.049,96.961,0.118,-0.569
'[13:39:26.210 02/12/1995]',0.186,0.165,0.040,96.961,0.118,-0.569
'[13:39:26.212 02/12/1995]',0.186,0.154,0.049,96.961,0.118,-0.569
'[13:39:26.214 02/12/1995]',0.164,0.121,0.049,96.961,0.118,-0.569
'[13:39:26.216 02/12/1995]',0.143,0.100,0.049,96.861,0.222,-0.569
'[13:39:26.218 02/12/1995]',0.132,0.088,0.040,96.861,0.222,-0.569
'[13:39:26.220 02/12/1995]',0.121,0.100,0.030,96.861,0.222,-0.569
'[13:39:26.222 02/12/1995]',0.132,0.111,0.020,96.861,0.222,-0.569
'[13:39:26.224 02/12/1995]',0.143,0.133,0.010,96.611,0.311,-0.569
'[13:39:26.226 02/12/1995]',0.143,0.133,0.001,96.611,0.311,-0.569
'[13:39:26.228 02/12/1995]',0.121,0.111,0.001,96.611,0.311,-0.569
'[13:39:26.230 02/12/1995]',0.110,0.077,0.001,96.611,0.311,-0.569
'[13:39:26.232 02/12/1995]',0.088,0.067,0.001,96.360,0.370,-0.569
'[13:39:26.234 02/12/1995]',0.066,0.044,0.001,96.360,0.370,-0.569
'[13:39:26.236 02/12/1995]',0.066,0.044,0.001,96.360,0.370,-0.569
'[13:39:26.238 02/12/1995]',0.066,0.067,0.001,96.360,0.370,-0.569
'[13:39:26.240 02/12/1995]',0.088,0.088,-0.009,95.910,0.459,-0.568
'[13:39:26.242 02/12/1995]',0.088,0.088,-0.019,95.910,0.459,-0.568
'[13:39:26.244 02/12/1995]',0.077,0.077,-0.019,95.910,0.459,-0.568
'[13:39:26.246 02/12/1995]',0.066,0.056,-0.009,95.910,0.459,-0.568
'[13:39:26.248 02/12/1995]',0.044,0.034,-0.009,95.409,0.488,-0.568
'[13:39:26.250 02/12/1995]',0.033,0.022,-0.009,95.409,0.488,-0.568
'[13:39:26.252 02/12/1995]',0.033,0.022,-0.009,95.409,0.488,-0.568
'[13:39:26.254 02/12/1995]',0.033,0.022,-0.019,95.409,0.488,-0.568
'[13:39:26.256 02/12/1995]',0.044,0.056,-0.029,94.708,0.533,-0.567
'[13:39:26.258 02/12/1995]',0.044,0.067,-0.038,94.708,0.533,-0.567
'[13:39:26.260 02/12/1995]',0.044,0.056,-0.048,94.708,0.533,-0.567
'[13:39:26.262 02/12/1995]',0.044,0.044,-0.048,94.708,0.533,-0.567
'[13:39:26.264 02/12/1995]',0.022,0.022,-0.029,93.806,0.562,-0.566
'[13:39:26.266 02/12/1995]',0.001,0.001,-0.029,93.806,0.562,-0.566
'[13:39:26.268 02/12/1995]',0.001,0.001,-0.029,93.806,0.562,-0.566
'[13:39:26.270 02/12/1995]',0.001,0.001,-0.029,93.806,0.562,-0.566
'[13:39:26.272 02/12/1995]',0.022,0.034,-0.038,92.704,0.607,-0.565
'[13:39:26.274 02/12/1995]',0.022,0.044,-0.048,92.704,0.607,-0.565
'[13:39:26.276 02/12/1995]',0.022,0.044,-0.058,92.704,0.607,-0.565
'[13:39:26.278 02/12/1995]',0.022,0.034,-0.048,92.704,0.607,-0.565
'[13:39:26.280 02/12/1995]',0.011,0.011,-0.038,91.302,0.607,-0.564
'[13:39:26.282 02/12/1995]',0.001,0.001,-0.038,91.302,0.607,-0.564
'[13:39:26.284 02/12/1995]',-0.010,0.001,-0.038,91.302,0.607,-0.564
'[13:39:26.286 02/12/1995]',-0.010,0.001,-0.038,91.302,0.607,-0.564
'[13:39:26.288 02/12/1995]',0.001,0.001,-0.048,89.599,0.622,-0.564
'[13:39:26.290 02/12/1995]',0.011,0.034,-0.058,89.599,0.622,-0.564
'[13:39:26.292 02/12/1995]',0.011,0.034,-0.068,89.599,0.622,-0.564
'[13:39:26.294 02/12/1995]',0.011,0.022,-0.058,89.599,0.622,-0.564
'[13:39:26.296 02/12/1995]',0.001,0.011,-0.058,87.546,0.637,-0.563
'[13:39:26.298 02/12/1995]',0.001,0.001,-0.048,87.546,0.637,-0.563
'[13:39:26.300 02/12/1995]',-0.010,0.001,-0.048,87.546,0.637,-0.563
'[13:39:26.302 02/12/1995]',-0.021,0.001,-0.048,87.546,0.637,-0.563
'[13:39:26.304 02/12/1995]',-0.021,0.001,-0.048,85.242,0.637,-0.562
'[13:39:26.306 02/12/1995]',0.001,0.011,-0.068,85.242,0.637,-0.562
'[13:39:26.308 02/12/1995]',0.001,0.022,-0.068,85.242,0.637,-0.562
'[13:39:26.310 02/12/1995]',0.001,0.022,-0.068,85.242,0.637,-0.562
'[13:39:26.312 02/12/1995]',0.001,0.011,-0.068,82.588,0.607,-0.561
'[13:39:26.314 02/12/1995]',-0.010,0.001,-0.048,82.588,0.607,-0.561
'[13:39:26.316 02/12/1995]',-0.021,-0.010,-0.048,82.588,0.607,-0.561
'[13:39:26.318 02/12/1995]',-0.021,-0.021,-0.048,82.588,0.607,-0.561
'[13:39:26.320 02/12/1995]',-0.021,0.001,-0.048,79.783,0.622,-0.560
'[13:39:26.322 02/12/1995]',-0.010,0.001,-0.068,79.783,0.622,-0.560
'[13:39:26.324 02/12/1995]',0.001,0.011,-0.068,79.783,0.622,-0.560
'[13:39:26.326 02/12/1995]',0.001,0.022,-0.078,79.783,0.622,-0.560
'[13:39:26.328 02/12/1995]',0.001,0.011,-0.068,76.778,0.593,-0.559
'[13:39:26.330 02/12/1995]',-0.010,0.001,-0.058,76.778,0.593,-0.559
'[13:39:26.332 02/12/1995]',-0.021,-0.010,-0.048,76.778,0.593,-0.559
'[13:39:26.334 02/12/1995]',-0.021,-0.010,-0.048,76.778,0.593,-0.559
'[13:39:26.336 02/12/1995]',-0.021,-0.010,-0.048,73.973,0.548,-0.557
'[13:39:26.338 02/12/1995]',-0.010,0.001,-0.058,73.973,0.548,-0.557
'[13:39:26.340 02/12/1995]',0.001,0.001,-0.068,73.973,0.548,-0.557
'[13:39:26.342 02/12/1995]',0.001,0.011,-0.068,73.973,0.548,-0.557
'[13:39:26.344 02/12/1995]',0.001,0.001,-0.058,71.569,0.533,-0.556
'[13:39:26.346 02/12/1995]',0.001,0.001,-0.058,71.569,0.533,-0.556
'[13:39:26.348 02/12/1995]',-0.021,-0.010,-0.048,71.569,0.533,-0.556
'[13:39:26.350 02/12/1995]',-0.032,-0.032,-0.048,71.569,0.533,-0.556
'[13:39:26.352 02/12/1995]',-0.021,-0.021,-0.038,70.067,0.488,-0.556
'[13:39:26.354 02/12/1995]',-0.021,-0.010,-0.048,70.067,0.488,-0.556
'[13:39:26.356 02/12/1995]',-0.010,0.001,-0.058,70.067,0.488,-0.556
'[13:39:26.358 02/12/1995]',0.001,0.001,-0.068,70.067,0.488,-0.556
'[13:39:26.360 02/12/1995]',0.001,0.001,-0.068,69.616,0.444,-0.556
'[13:39:26.362 02/12/1995]',0.001,0.001,-0.058,69.616,0.444,-0.556
'[13:39:26.364 02/12/1995]',-0.021,-0.010,-0.058,69.616,0.444,-0.556
'[13:39:26.366 02/12/1995]',-0.021,-0.021,-0.048,69.616,0.444,-0.556
'[13:39:26.368 02/12/1995]',-0.043,-0.032,-0.048,70.267,0.370,-0.556
'[13:39:26.370 02/12/1995]',-0.032,-0.021,-0.048,70.267,0.370,-0.556
'[13:39:26.372 02/12/1995]',-0.021,0.001,-0.058,70.267,0.370,-0.556
'[13:39:26.374 02/12/1995]',0.001,0.001,-0.068,70.267,0.370,-0.556
'[13:39:26.376 02/12/1995]',0.001,0.001,-0.068,71.569,0.311,-0.556
'[13:39:26.378 02/12/1995]',-0.010,0.001,-0.058,71.569,0.311,-0.556
'[13:39:26.380 02/12/1995]',-0.021,-0.010,-0.058,71.569,0.311,-0.556
'[13:39:26.382 02/12/1995]',-0.032,-0.032,-0.048,71.569,0.311,-0.556
'[13:39:26.384 02/12/1995]',-0.043,-0.043,-0.038,73.072,0.252,-0.557
'[13:39:26.386 02/12/1995]',-0.032,-0.032,-0.048,73.072,0.252,-0.557
'[13:39:26.388 02/12/1995]',-0.021,-0.010,-0.058,73.072,0.252,-0.557
'[13:39:26.390 02/12/1995]',-0.010,0.001,-0.068,73.072,0.252,-0.557
'[13:39:26.392 02/12/1995]',0.001,0.001,-0.068,74.324,0.193,-0.558
'[13:39:26.394 02/12/1995]',0.001,0.001,-0.068,74.324,0.193,-0.558
'[13:39:26.396 02/12/1995]',-0.010,0.001,-0.048,74.324,0.193,-0.558
'[13:39:26.398 02/12/1995]',-0.021,-0.021,-0.048,74.324,0.193,-0.558
'[13:39:26.400 02/12/1995]',-0.032,-0.043,-0.038,75.025,0.118,-0.558
'[13:39:26.402 02/12/1995]',-0.043,-0.032,-0.048,75.025,0.118,-0.558
'[13:39:26.404 02/12/1995]',-0.032,-0.010,-0.048,75.025,0.118,-0.558
'[13:39:26.406 02/12/1995]',-0.010,0.001,-0.058,75.025,0.118,-0.558
'[13:39:26.408 02/12/1995]',0.001,0.001,-0.058,75.225,0.059,-0.558
'[13:39:26.410 02/12/1995]',0.001,0.001,-0.058,75.225,0.059,-0.558
'[13:39:26.412 02/12/1995]',-0.010,0.001,-0.058,75.225,0.059,-0.558
'[13:39:26.414 02/12/1995]',-0.021,-0.010,-0.048,75.225,0.059,-0.558
'[13:39:26.416 02/12/1995]',-0.032,-0.043,-0.038,74.975,0.000,-0.557
'[13:39:26.418 02/12/1995]',-0.043,-0.032,-0.038,74.975,0.000,-0.557
'[13:39:26.420 02/12/1995]',-0.032,-0.021,-0.058,74.975,0.000,-0.557
'[13:39:26.422 02/12/1995]',-0.021,0.001,-0.058,74.975,0.000,-0.557
'[13:39:26.424 02/12/1995]',0.001,0.001,-0.058,74.524,-0.044,-0.556
'[13:39:26.426 02/12/1995]',0.001,0.001,-0.058,74.524,-0.044,-0.556
'[13:39:26.428 02/12/1995]',0.001,0.001,-0.058,74.524,-0.044,-0.556
'[13:39:26.430 02/12/1995]',-0.021,-0.021,-0.048,74.524,-0.044,-0.556
'[13:39:26.432 02/12/1995]',-0.032,-0.021,-0.038,74.073,-0.089,-0.554
'[13:39:26.434 02/12/1995]',-0.043,-0.032,-0.038,74.073,-0.089,-0.554
'[13:39:26.436 02/12/1995]',-0.043,-0.032,-0.038,74.073,-0.089,-0.554
'[13:39:26.438 02/12/1995]',-0.021,-0.021,-0.048,74.073,-0.089,-0.554
'[13:39:26.440 02/12/1995]',-0.021,0.001,-0.058,73.623,-0.118,-0.553
'[13:39:26.442 02/12/1995]',0.001,0.001,-0.058,73.623,-0.118,-0.553
'[13:39:26.444 02/12/1995]',0.001,0.001,-0.058,73.623,-0.118,-0.553
'[13:39:26.446 02/12/1995]',-0.021,0.001,-0.048,73.623,-0.118,-0.553
'[13:39:26.448 02/12/1995]',-0.032,-0.021,-0.048,73.222,-0.118,-0.551
'[13:39:26.450 02/12/1995]',-0.043,-0.032,-0.038,73.222,-0.118,-0.551
'[13:39:26.452 02/12/1995]',-0.043,-0.032,-0.038,73.222,-0.118,-0.551
'[13:39:26.454 02/12/1995]',-0.043,-0.021,-0.048,73.222,-0.118,-0.551
'[13:39:26.456 02/12/1995]',-0.021,0.001,-0.058,72.721,-0.148,-0.550
'[13:39:26.458 02/12/1995]',0.001,0.001,-0.058,72.721,-0.148,-0.550
'[13:39:26.460 02/12/1995]',0.001,0.001,-0.058,72.721,-0.148,-0.550
'[13:39:26.462 02/12/1995]',0.001,0.001,-0.048,72.721,-0.148,-0.550
'[13:39:26.464 02/12/1995]',-0.021,-0.010,-0.038,72.220,-0.148,-0.549
'[13:39:26.466 02/12/1995]',-0.032,-0.021,-0.038,72.220,-0.148,-0.549
'[13:39:26.468 02/12/1995]',-0.043,-0.032,-0.029,72.220,-0.148,-0.549
'[13:39:26.470 02/12/1995]',-0.032,-0.021,-0.038,72.220,-0.148,-0.549
'[13:39:26.472 02/12/1995]',-0.021,0.001,-0.048,71.769,-0.163,-0.548
'[13:39:26.474 02/12/1995]',-0.010,0.001,-0.048,71.769,-0.163,-0.548
'[13:39:26.476 02/12/1995]',0.001,0.001,-0.068,71.769,-0.163,-0.548
'[13:39:26.478 02/12/1995]',-0.010,0.001,-0.048,71.769,-0.163,-0.548
'[13:39:26.480 02/12/1995]',-0.021,0.001,-0.038,71.269,-0.163,-0.547
'[13:39:26.482 02/12/1995]',-0.032,-0.021,-0.038,71.269,-0.163,-0.547
'[13:39:26.484 02/12/1995]',-0.043,-0.032,-0.029,71.269,-0.163,-0.547
'[13:39:26.486 02/12/1995]',-0.043,-0.021,-0.038,71.269,-0.163,-0.547
'[13:39:26.488 02/12/1995]',-0.021,0.001,-0.048,70.868,-0.163,-0.546
'[13:39:26.490 02/12/1995]',-0.010,0.001,-0.048,70.868,-0.163,-0.546
'[13:39:26.492 02/12/1995]',0.001,0.001,-0.048,70.868,-0.163,-0.546
'[13:39:26.494 02/12/1995]',0.001,0.001,-0.048,70.868,-0.163,-0.546
'[13:39:26.496 02/12/1995]',-0.010,0.001,-0.038,70.417,-0.178,-0.545
'[13:39:26.498 02/12/1995]',-0.021,-0.010,-0.029,70.417,-0.178,-0.545
'[13:39:26.500 02/12/1995]',-0.043,-0.032,-0.029,70.417,-0.178,-0.545
'[13:39:26.502 02/12/1995]',-0.043,-0.032,-0.029,70.417,-0.178,-0.545
'[13:39:26.504 02/12/1995]',-0.032,-0.010,-0.038,69.966,-0.193,-0.544
'[13:39:26.506 02/12/1995]',-0.021,0.001,-0.048,69.966,-0.193,-0.544
'[13:39:26.508 02/12/1995]',0.001,0.001,-0.048,69.966,-0.193,-0.544
'[13:39:26.510 02/12/1995]',0.001,0.011,-0.058,69.966,-0.193,-0.544
'[13:39:26.512 02/12/1995]',-0.010,0.001,-0.038,69.516,-0.207,-0.543
'[13:39:26.514 02/12/1995]',-0.021,-0.010,-0.029,69.516,-0.207,-0.543
'[13:39:26.516 02/12/1995]',-0.032,-0.021,-0.029,69.516,-0.207,-0.543
'[13:39:26.518 02/12/1995]',-0.032,-0.032,-0.029,69.516,-0.207,-0.543
'[13:39:26.520 02/12/1995]',-0.032,-0.010,-0.038,69.065,-0.207,-0.542
'[13:39:26.522 02/12/1995]',-0.021,0.001,-0.038,69.065,-0.207,-0.542
'[13:39:26.524 02/12/1995]',0.001,0.001,-0.048,69.065,-0.207,-0.542
'[13:39:26.526 02/12/1995]',0.001,0.011,-0.048,69.065,-0.207,-0.542
'[13:39:26.528 02/12/1995]',0.001,0.001,-0.048,68.564,-0.252,-0.541
'[13:39:26.530 02/12/1995]',-0.021,0.001,-0.029,68.564,-0.252,-0.541
'[13:39:26.532 02/12/1995]',-0.032,-0.010,-0.029,68.564,-0.252,-0.541
'[13:39:26.534 02/12/1995]',-0.043,-0.032,-0.019,68.564,-0.252,-0.541
'[13:39:26.536 02/12/1995]',-0.032,-0.021,-0.029,68.063,-0.267,-0.540
'[13:39:26.538 02/12/1995]',-0.021,0.001,-0.048,68.063,-0.267,-0.540
'[13:39:26.540 02/12/1995]',-0.010,0.001,-0.048,68.063,-0.267,-0.540
'[13:39:26.542 02/12/1995]',0.001,0.001,-0.048,68.063,-0.267,-0.540
'[13:39:26.544 02/12/1995]',0.001,0.001,-0.048,67.562,-0.296,-0.540
'[13:39:26.546 02/12/1995]',-0.010,0.001,-0.038,67.562,-0.296,-0.540
'[13:39:26.548 02/12/1995]',-0.021,-0.010,-0.029,67.562,-0.296,-0.540
'[13:39:26.550 02/12/1995]',-0.043,-0.032,-0.029,67.562,-0.296,-0.540
'[13:39:26.552 02/12/1995]',-0.043,-0.021,-0.019,67.062,-0.311,-0.539
'[13:39:26.554 02/12/1995]',-0.021,-0.010,-0.029,67.062,-0.311,-0.539
'[13:39:26.556 02/12/1995]',-0.021,0.001,-0.038,67.062,-0.311,-0.539
'[13:39:26.558 02/12/1995]',0.001,0.011,-0.038,67.062,-0.311,-0.539
'[13:39:26.560 02/12/1995]',0.001,0.001,-0.048,66.561,-0.326,-0.539
'[13:39:26.562 02/12/1995]',0.001,0.001,-0.038,66.561,-0.326,-0.539
'[13:39:26.564 02/12/1995]',-0.021,0.001,-0.029,66.561,-0.326,-0.539
'[13:39:26.566 02/12/1995]',-0.032,-0.021,-0.019,66.561,-0.326,-0.539
'[13:39:26.568 02/12/1995]',-0.043,-0.021,-0.019,66.060,-0.355,-0.539
'[13:39:26.570 02/12/1995]',-0.032,-0.010,-0.029,66.060,-0.355,-0.539
'[13:39:26.572 02/12/1995]',-0.021,0.001,-0.029,66.060,-0.355,-0.539
'[13:39:26.574 02/12/1995]',-0.010,0.001,-0.038,66.060,-0.355,-0.539
'[13:39:26.576 02/12/1995]',0.001,0.011,-0.038,65.559,-0.386,-0.539
'[13:39:26.578 02/12/1995]',0.001,0.001,-0.038,65.559,-0.386,-0.539
'[13:39:26.580 02/12/1995]',-0.021,0.001,-0.029,65.559,-0.386,-0.539
'[13:39:26.582 02/12/1995]',-0.032,-0.010,-0.019,65.559,-0.386,-0.539
'[13:39:26.584 02/12/1995]',-0.043,-0.021,-0.019,65.158,-0.386,-0.540
'[13:39:26.586 02/12/1995]',-0.032,-0.021,-0.029,65.158,-0.386,-0.540
'[13:39:26.588 02/12/1995]',-0.021,0.001,-0.029,65.158,-0.386,-0.540
'[13:39:26.590 02/12/1995]',-0.010,0.001,-0.038,65.158,-0.386,-0.540
'[13:39:26.592 02/12/1995]',0.001,0.011,-0.048,64.758,-0.370,-0.540
'[13:39:26.594 02/12/1995]',0.001,0.001,-0.038,64.758,-0.370,-0.540
'[13:39:26.596 02/12/1995]',-0.010,0.001,-0.038,64.758,-0.370,-0.540
'[13:39:26.598 02/12/1995]',-0.032,-0.010,-0.029,64.758,-0.370,-0.540
'[13:39:26.600 02/12/1995]',-0.043,-0.021,-0.019,64.407,-0.385,-0.541
'[13:39:26.602 02/12/1995]',-0.043,-0.021,-0.019,64.407,-0.385,-0.541
'[13:39:26.604 02/12/1995]',-0.032,0.001,-0.029,64.407,-0.385,-0.541
'[13:39:26.606 02/12/1995]',-0.021,0.001,-0.038,64.407,-0.385,-0.541
'[13:39:26.608 02/12/1995]',0.001,0.001,-0.038,64.007,-0.415,-0.541
'[13:39:26.610 02/12/1995]',0.001,0.001,-0.038,64.007,-0.415,-0.541
'[13:39:26.612 02/12/1995]',-0.021,0.001,-0.038,64.007,-0.415,-0.541
'[13:39:26.614 02/12/1995]',-0.021,-0.010,-0.029,64.007,-0.415,-0.541
'[13:39:26.616 02/12/1995]',-0.032,-0.032,-0.019,63.706,-0.415,-0.542
'[13:39:26.618 02/12/1995]',-0.043,-0.032,-0.019,63.706,-0.415,-0.542
'[13:39:26.620 02/12/1995]',-0.043,-0.021,-0.019,63.706,-0.415,-0.542
'[13:39:26.622 02/12/1995]',-0.021,0.001,-0.029,63.706,-0.415,-0.542
'[13:39:26.624 02/12/1995]',-0.010,0.001,-0.038,63.456,-0.429,-0.542
'[13:39:26.626 02/12/1995]',0.001,0.011,-0.038,63.456,-0.429,-0.542
'[13:39:26.628 02/12/1995]',-0.010,0.001,-0.038,63.456,-0.429,-0.542
'[13:39:26.630 02/12/1995]',-0.021,0.001,-0.029,63.456,-0.429,-0.542
'[13:39:26.632 02/12/1995]',-0.032,-0.021,-0.019,63.255,-0.445,-0.543
'[13:39:26.634 02/12/1995]',-0.043,-0.021,-0.019,63.255,-0.445,-0.543
'[13:39:26.636 02/12/1995]',-0.043,-0.021,-0.019,63.255,-0.445,-0.543
'[13:39:26.638 02/12/1995]',-0.021,0.001,-0.029,63.255,-0.445,-0.543
'[13:39:26.640 02/12/1995]',0.001,0.001,-0.029,62.955,-0.474,-0.543
'[13:39:26.642 02/12/1995]',0.001,0.011,-0.038,62.955,-0.474,-0.543
'[13:39:26.644 02/12/1995]',0.001,0.001,-0.038,62.955,-0.474,-0.543
'[13:39:26.646 02/12/1995]',-0.010,0.001,-0.019,62.955,-0.474,-0.543
'[13:39:26.648 02/12/1995]',-0.021,-0.010,-0.019,62.704,-0.474,-0.544
'[13:39:26.650 02/12/1995]',-0.043,-0.032,-0.009,62.704,-0.474,-0.544
'[13:39:26.652 02/12/1995]',-0.032,-0.021,-0.019,62.704,-0.474,-0.544
'[13:39:26.654 02/12/1995]',-0.021,-0.010,-0.019,62.704,-0.474,-0.544
'[13:39:26.656 02/12/1995]',0.001,0.001,-0.029,62.554,-0.489,-0.544
'[13:39:26.658 02/12/1995]',0.001,0.011,-0.038,62.554,-0.489,-0.544
'[13:39:26.660 02/12/1995]',0.001,0.011,-0.038,62.554,-0.489,-0.544
'[13:39:26.662 02/12/1995]',-0.010,0.001,-0.029,62.554,-0.489,-0.544
'[13:39:26.664 02/12/1995]',-0.021,0.001,-0.019,62.404,-0.489,-0.544
'[13:39:26.666 02/12/1995]',-0.032,-0.021,-0.019,62.404,-0.489,-0.544
'[13:39:26.668 02/12/1995]',-0.043,-0.021,-0.019,62.404,-0.489,-0.544
'[13:39:26.670 02/12/1995]',-0.021,0.001,-0.019,62.404,-0.489,-0.544
'[13:39:26.672 02/12/1995]',-0.010,0.001,-0.029,62.304,-0.503,-0.544
'[13:39:26.674 02/12/1995]',0.001,0.011,-0.038,62.304,-0.503,-0.544
'[13:39:26.676 02/12/1995]',0.001,0.011,-0.038,62.304,-0.503,-0.544
'[13:39:26.678 02/12/1995]',0.001,0.001,-0.038,62.304,-0.503,-0.544
'[13:39:26.680 02/12/1995]',-0.021,0.001,-0.029,62.204,-0.518,-0.543
'[13:39:26.682 02/12/1995]',-0.032,-0.021,-0.019,62.204,-0.518,-0.543
'[13:39:26.684 02/12/1995]',-0.032,-0.010,-0.009,62.204,-0.518,-0.543
'[13:39:26.686 02/12/1995]',-0.021,-0.010,-0.009,62.204,-0.518,-0.543
'[13:39:26.688 02/12/1995]',-0.010,0.001,-0.019,62.003,-0.518,-0.543
'[13:39:26.690 02/12/1995]',0.011,0.022,-0.019,62.003,-0.518,-0.543
'[13:39:26.692 02/12/1995]',0.022,0.034,-0.019,62.003,-0.518,-0.543
'[13:39:26.694 02/12/1995]',0.022,0.034,-0.009,62.003,-0.518,-0.543
'[13:39:26.696 02/12/1995]',0.022,0.022,0.001,61.803,-0.548,-0.542
'[13:39:26.698 02/12/1995]',0.001,0.011,0.001,61.803,-0.548,-0.542
'[13:39:26.700 02/12/1995]',0.001,0.001,0.001,61.803,-0.548,-0.542
'[13:39:26.702 02/12/1995]',0.001,0.001,0.001,61.803,-0.548,-0.542
'[13:39:26.704 02/12/1995]',0.011,0.022,0.001,61.603,-0.548,-0.542
'[13:39:26.706 02/12/1995]',0.022,0.056,0.001,61.603,-0.548,-0.542
'[13:39:26.708 02/12/1995]',0.044,0.067,0.001,61.603,-0.548,-0.542
'[13:39:26.710 02/12/1995]',0.044,0.067,0.001,61.603,-0.548,-0.542
'[13:39:26.712 02/12/1995]',0.044,0.056,0.001,61.352,-0.548,-0.542
'[13:39:26.714 02/12/1995]',0.022,0.034,0.001,61.352,-0.548,-0.542
'[13:39:26.716 02/12/1995]',0.022,0.022,0.010,61.352,-0.548,-0.542
'[13:39:26.718 02/12/1995]',0.011,0.011,0.010,61.352,-0.548,-0.542
'[13:39:26.720 02/12/1995]',0.022,0.034,0.001,61.202,-0.563,-0.542
'[13:39:26.722 02/12/1995]',0.022,0.056,0.001,61.202,-0.563,-0.542
'[13:39:26.724 02/12/1995]',0.033,0.067,0.001,61.202,-0.563,-0.542
'[13:39:26.726 02/12/1995]',0.033,0.067,0.001,61.202,-0.563,-0.542
'[13:39:26.728 02/12/1995]',0.022,0.056,0.001,61.002,-0.563,-0.542
'[13:39:26.730 02/12/1995]',0.011,0.022,0.001,61.002,-0.563,-0.542
'[13:39:26.732 02/12/1995]',0.001,0.001,0.001,61.002,-0.563,-0.542
'[13:39:26.734 02/12/1995]',-0.021,0.001,0.001,61.002,-0.563,-0.542
'[13:39:26.736 02/12/1995]',-0.010,0.001,-0.009,60.851,-0.593,-0.542
'[13:39:26.738 02/12/1995]',0.001,0.011,-0.019,60.851,-0.593,-0.542
'[13:39:26.740 02/12/1995]',0.001,0.022,-0.029,60.851,-0.593,-0.542
'[13:39:26.742 02/12/1995]',0.011,0.034,-0.038,60.851,-0.593,-0.542
'[13:39:26.744 02/12/1995]',0.001,0.011,-0.038,60.601,-0.578,-0.542
'[13:39:26.746 02/12/1995]',0.001,0.001,-0.029,60.601,-0.578,-0.542
'[13:39:26.748 02/12/1995]',-0.021,-0.021,-0.019,60.601,-0.578,-0.542
'[13:39:26.750 02/12/1995]',-0.032,-0.043,-0.019,60.601,-0.578,-0.542
'[13:39:26.752 02/12/1995]',-0.043,-0.043,-0.029,60.401,-0.608,-0.542
'[13:39:26.754 02/12/1995]',-0.032,-0.021,-0.038,60.401,-0.608,-0.542
'[13:39:26.756 02/12/1995]',-0.021,0.001,-0.048,60.401,-0.608,-0.542
'[13:39:26.758 02/12/1995]',0.001,0.001,-0.048,60.401,-0.608,-0.542
'[13:39:26.760 02/12/1995]',0.001,0.001,-0.048,60.300,-0.593,-0.542
'[13:39:26.762 02/12/1995]',-0.010,-0.010,-0.048,60.300,-0.593,-0.542
'[13:39:26.764 02/12/1995]',-0.032,-0.043,-0.038,60.300,-0.593,-0.542
'[13:39:26.766 02/12/1995]',-0.043,-0.054,-0.029,60.300,-0.593,-0.542
'[13:39:26.768 02/12/1995]',-0.043,-0.065,-0.029,60.050,-0.608,-0.542
'[13:39:26.770 02/12/1995]',-0.043,-0.032,-0.029,60.050,-0.608,-0.542
'[13:39:26.772 02/12/1995]',-0.021,-0.010,-0.048,60.050,-0.608,-0.542
'[13:39:26.774 02/12/1995]',0.001,0.001,-0.048,60.050,-0.608,-0.542
'[13:39:26.776 02/12/1995]',0.001,0.001,-0.048,59.850,-0.608,-0.541
'[13:39:26.778 02/12/1995]',0.001,0.001,-0.038,59.850,-0.608,-0.541
'[13:39:26.780 02/12/1995]',-0.010,0.001,-0.019,59.850,-0.608,-0.541
'[13:39:26.782 02/12/1995]',-0.032,-0.021,-0.019,59.850,-0.608,-0.541
'[13:39:26.784 02/12/1995]',-0.043,-0.021,-0.019,59.649,-0.622,-0.540
'[13:39:26.786 02/12/1995]',-0.043,-0.021,-0.019,59.649,-0.622,-0.540
'[13:39:26.788 02/12/1995]',-0.032,-0.010,-0.029,59.649,-0.622,-0.540
'[13:39:26.790 02/12/1995]',-0.021,0.001,-0.038,59.649,-0.622,-0.540
'[13:39:26.792 02/12/1995]',-0.021,0.001,-0.038,59.499,-0.608,-0.539
'[13:39:26.794 02/12/1995]',-0.021,0.001,-0.048,59.499,-0.608,-0.539
'[13:39:26.796 02/12/1995]',-0.021,0.001,-0.038,59.499,-0.608,-0.539
'[13:39:26.798 02/12/1995]',-0.043,-0.032,-0.029,59.499,-0.608,-0.539
'[13:39:26.800 02/12/1995]',-0.043,-0.043,-0.019,59.249,-0.622,-0.538
'[13:39:26.802 02/12/1995]',-0.043,-0.032,-0.019,59.249,-0.622,-0.538
'[13:39:26.804 02/12/1995]',-0.043,-0.010,-0.029,59.249,-0.622,-0.538
'[13:39:26.806 02/12/1995]',-0.021,0.001,-0.038,59.249,-0.622,-0.538
'[13:39:26.808 02/12/1995]',-0.010,0.001,-0.038,59.048,-0.622,-0.537
'[13:39:26.810 02/12/1995]',-0.021,0.001,-0.038,59.048,-0.622,-0.537
'[13:39:26.812 02/12/1995]',-0.021,0.001,-0.029,59.048,-0.622,-0.537
'[13:39:26.814 02/12/1995]',-0.032,-0.010,-0.019,59.048,-0.622,-0.537
'[13:39:26.816 02/12/1995]',-0.043,-0.021,-0.009,58.798,-0.608,-0.536
'[13:39:26.818 02/12/1995]',-0.043,-0.032,-0.019,58.798,-0.608,-0.536
'[13:39:26.820 02/12/1995]',-0.043,-0.021,-0.019,58.798,-0.608,-0.536
'[13:39:26.822 02/12/1995]',-0.021,0.001,-0.029,58.798,-0.608,-0.536
'[13:39:26.824 02/12/1995]',-0.021,0.001,-0.048,58.547,-0.622,-0.536
'[13:39:26.826 02/12/1995]',-0.021,-0.010,-0.048,58.547,-0.622,-0.536
'[13:39:26.828 02/12/1995]',-0.032,-0.043,-0.058,58.547,-0.622,-0.536
'[13:39:26.830 02/12/1995]',-0.043,-0.076,-0.058,58.547,-0.622,-0.536
'[13:39:26.832 02/12/1995]',-0.065,-0.098,-0.058,58.347,-0.622,-0.535
'[13:39:26.834 02/12/1995]',-0.076,-0.120,-0.058,58.347,-0.622,-0.535
'[13:39:26.836 02/12/1995]',-0.065,-0.120,-0.058,58.347,-0.622,-0.535
'[13:39:26.838 02/12/1995]',-0.043,-0.098,-0.038,58.347,-0.622,-0.535
'[13:39:26.840 02/12/1995]',0.001,-0.032,-0.009,58.147,-0.608,-0.534
'[13:39:26.842 02/12/1995]',0.055,0.001,0.001,58.147,-0.608,-0.534
'[13:39:26.844 02/12/1995]',0.110,0.034,0.069,58.147,-0.608,-0.534
'[13:39:26.846 02/12/1995]',0.143,0.044,0.118,58.147,-0.608,-0.534
'[13:39:26.848 02/12/1995]',0.197,0.067,0.177,57.896,-0.622,-0.533
'[13:39:26.850 02/12/1995]',0.262,0.111,0.235,57.896,-0.622,-0.533
'[13:39:26.852 02/12/1995]',0.338,0.165,0.284,57.896,-0.622,-0.533
'[13:39:26.854 02/12/1995]',0.415,0.198,0.333,57.896,-0.622,-0.533
'[13:39:26.856 02/12/1995]',0.480,0.242,0.353,57.646,-0.608,-0.532
'[13:39:26.858 02/12/1995]',0.546,0.308,0.372,57.646,-0.608,-0.532
'[13:39:26.860 02/12/1995]',0.611,0.385,0.431,57.646,-0.608,-0.532
'[13:39:26.862 02/12/1995]',0.633,0.440,0.470,57.646,-0.608,-0.532
'[13:39:26.864 02/12/1995]',0.622,0.472,0.470,57.496,-0.622,-0.531
'[13:39:26.866 02/12/1995]',0.600,0.494,0.470,57.496,-0.622,-0.531
'[13:39:26.868 02/12/1995]',0.579,0.527,0.460,57.496,-0.622,-0.531
'[13:39:26.870 02/12/1995]',0.557,0.571,0.431,57.496,-0.622,-0.531
'[13:39:26.872 02/12/1995]',0.546,0.615,0.372,57.245,-0.622,-0.530
'[13:39:26.874 02/12/1995]',0.524,0.647,0.323,57.245,-0.622,-0.530
'[13:39:26.876 02/12/1995]',0.480,0.636,0.275,57.245,-0.622,-0.530
'[13:39:26.878 02/12/1995]',0.426,0.593,0.206,57.245,-0.622,-0.530
'[13:39:26.880 02/12/1995]',0.317,0.505,0.128,56.995,-0.608,-0.529
'[13:39:26.882 02/12/1995]',0.230,0.428,0.059,56.995,-0.608,-0.529
'[13:39:26.884 02/12/1995]',0.154,0.341,0.001,56.995,-0.608,-0.529
'[13:39:26.886 02/12/1995]',0.088,0.297,-0.048,56.995,-0.608,-0.529
'[13:39:26.888 02/12/1995]',0.055,0.264,-0.087,56.795,-0.622,-0.528
'[13:39:26.890 02/12/1995]',0.033,0.231,-0.107,56.795,-0.622,-0.528
'[13:39:26.892 02/12/1995]',0.001,0.176,-0.136,56.795,-0.622,-0.528
'[13:39:26.894 02/12/1995]',-0.010,0.133,-0.136,56.795,-0.622,-0.528
'[13:39:26.896 02/12/1995]',-0.032,0.077,-0.127,56.594,-0.608,-0.527
'[13:39:26.898 02/12/1995]',-0.054,0.034,-0.107,56.594,-0.608,-0.527
'[13:39:26.900 02/12/1995]',-0.054,0.001,-0.087,56.594,-0.608,-0.527
'[13:39:26.902 02/12/1995]',-0.054,0.001,-0.087,56.594,-0.608,-0.527
'[13:39:26.904 02/12/1995]',-0.032,0.011,-0.087,56.394,-0.622,-0.527
'[13:39:26.906 02/12/1995]',-0.010,0.034,-0.087,56.394,-0.622,-0.527
'[13:39:26.908 02/12/1995]',0.001,0.056,-0.068,56.394,-0.622,-0.527
'[13:39:26.910 02/12/1995]',0.011,0.044,-0.058,56.394,-0.622,-0.527
'[13:39:26.912 02/12/1995]',0.011,0.034,-0.058,56.194,-0.622,-0.526
'[13:39:26.914 02/12/1995]',0.001,0.001,-0.038,56.194,-0.622,-0.526
'[13:39:26.916 02/12/1995]',0.001,0.001,-0.029,56.194,-0.622,-0.526
'[13:39:26.918 02/12/1995]',0.001,0.001,-0.029,56.194,-0.622,-0.526
'[13:39:26.920 02/12/1995]',0.001,0.001,-0.029,55.993,-0.637,-0.526
'[13:39:26.922 02/12/1995]',0.011,0.022,-0.029,55.993,-0.637,-0.526
'[13:39:26.924 02/12/1995]',0.033,0.044,-0.038,55.993,-0.637,-0.526
'[13:39:26.926 02/12/1995]',0.033,0.044,-0.038,55.993,-0.637,-0.526
'[13:39:26.928 02/12/1995]',0.022,0.034,-0.029,55.843,-0.622,-0.525
'[13:39:26.930 02/12/1995]',0.011,0.011,-0.019,55.843,-0.622,-0.525
'[13:39:26.932 02/12/1995]',0.001,0.001,-0.019,55.843,-0.622,-0.525
'[13:39:26.934 02/12/1995]',0.001,0.001,-0.009,55.843,-0.622,-0.525
'[13:39:26.936 02/12/1995]',0.001,0.001,-0.009,55.643,-0.637,-0.524
'[13:39:26.938 02/12/1995]',0.001,0.001,-0.019,55.643,-0.637,-0.524
'[13:39:26.940 02/12/1995]',0.022,0.034,-0.029,55.643,-0.637,-0.524
'[13:39:26.942 02/12/1995]',0.033,0.034,-0.038,55.643,-0.637,-0.524
'[13:39:26.944 02/12/1995]',0.022,0.034,-0.029,55.542,-0.622,-0.523
'[13:39:26.946 02/12/1995]',0.022,0.022,-0.019,55.542,-0.622,-0.523
'[13:39:26.948 02/12/1995]',0.001,0.001,-0.009,55.542,-0.622,-0.523
'[13:39:26.950 02/12/1995]',0.001,0.001,-0.009,55.542,-0.622,-0.523
'[13:39:26.952 02/12/1995]',0.001,0.001,-0.009,55.392,-0.637,-0.523
'[13:39:26.954 02/12/1995]',0.001,0.011,-0.009,55.392,-0.637,-0.523
'[13:39:26.956 02/12/1995]',0.022,0.034,-0.029,55.392,-0.637,-0.523
'[13:39:26.958 02/12/1995]',0.033,0.034,-0.029,55.392,-0.637,-0.523
'[13:39:26.960 02/12/1995]',0.022,0.034,-0.029,55.192,-0.637,-0.523
'[13:39:26.962 02/12/1995]',0.022,0.011,-0.019,55.192,-0.637,-0.523
'[13:39:26.964 02/12/1995]',0.011,0.001,-0.019,55.192,-0.637,-0.523
'[13:39:26.966 02/12/1995]',0.001,0.001,-0.009,55.192,-0.637,-0.523
'[13:39:26.968 02/12/1995]',0.001,0.001,-0.009,55.092,-0.652,-0.523
'[13:39:26.970 02/12/1995]',0.001,0.001,-0.009,55.092,-0.652,-0.523
'[13:39:26.972 02/12/1995]',0.011,0.011,-0.019,55.092,-0.652,-0.523
'[13:39:26.974 02/12/1995]',0.022,0.034,-0.029,55.092,-0.652,-0.523
'[13:39:26.976 02/12/1995]',0.033,0.034,-0.019,54.891,-0.652,-0.523
'[13:39:26.978 02/12/1995]',0.022,0.022,-0.019,54.891,-0.652,-0.523
'[13:39:26.980 02/12/1995]',0.022,0.011,-0.009,54.891,-0.652,-0.523
'[13:39:26.982 02/12/1995]',0.011,0.001,0.001,54.891,-0.652,-0.523
'[13:39:26.984 02/12/1995]',0.001,0.001,0.001,54.791,-0.652,-0.525
'[13:39:26.986 02/12/1995]',0.001,0.001,-0.009,54.791,-0.652,-0.525
'[13:39:26.988 02/12/1995]',0.022,0.011,-0.009,54.791,-0.652,-0.525
'[13:39:26.990 02/12/1995]',0.033,0.034,-0.019,54.791,-0.652,-0.525
'[13:39:26.992 02/12/1995]',0.044,0.044,-0.019,54.691,-0.666,-0.527
'[13:39:26.994 02/12/1995]',0.044,0.044,-0.009,54.691,-0.666,-0.527
'[13:39:26.996 02/12/1995]',0.033,0.022,-0.009,54.691,-0.666,-0.527
'[13:39:26.998 02/12/1995]',0.011,0.001,0.001,54.691,-0.666,-0.527
'[13:39:27.000 02/12/1995]',0.001,0.001,0.001,54.541,-0.666,-0.529
'[13:39:27.002 02/12/1995]',0.011,0.001,0.001,54.541,-0.666,-0.529
'[13:39:27.004 02/12/1995]',0.022,0.011,0.001,54.541,-0.666,-0.529
'[13:39:27.006 02/12/1995]',0.033,0.034,-0.009,54.541,-0.666,-0.529
'[13:39:27.008 02/12/1995]',0.044,0.044,-0.009,54.441,-0.666,-0.532
'[13:39:27.010 02/12/1995]',0.044,0.056,-0.009,54.441,-0.666,-0.532
'[13:39:27.012 02/12/1995]',0.044,0.034,0.001,54.441,-0.666,-0.532
'[13:39:27.014 02/12/1995]',0.033,0.011,0.001,54.441,-0.666,-0.532
'[13:39:27.016 02/12/1995]',0.022,0.001,0.001,54.290,-0.681,-0.534
'[13:39:27.018 02/12/1995]',0.022,0.001,0.001,54.290,-0.681,-0.534
'[13:39:27.020 02/12/1995]',0.022,0.011,0.001,54.290,-0.681,-0.534
'[13:39:27.022 02/12/1995]',0.044,0.044,0.001,54.290,-0.681,-0.534
'[13:39:27.024 02/12/1995]',0.044,0.044,-0.009,54.240,-0.666,-0.536
'[13:39:27.026 02/12/1995]',0.055,0.044,-0.009,54.240,-0.666,-0.536
'[13:39:27.028 02/12/1995]',0.055,0.044,0.001,54.240,-0.666,-0.536
'[13:39:27.030 02/12/1995]',0.044,0.022,0.001,54.240,-0.666,-0.536
'[13:39:27.032 02/12/1995]',0.033,0.011,0.001,54.240,-0.681,-0.538
'[13:39:27.034 02/12/1995]',0.022,0.001,0.001,54.240,-0.681,-0.538
'[13:39:27.036 02/12/1995]',0.033,0.011,0.001,54.240,-0.681,-0.538
'[13:39:27.038 02/12/1995]',0.044,0.044,0.001,54.240,-0.681,-0.538
'[13:39:27.040 02/12/1995]',0.066,0.067,0.001,54.391,-0.666,-0.540
'[13:39:27.042 02/12/1995]',0.077,0.067,0.001,54.391,-0.666,-0.540
'[13:39:27.044 02/12/1995]',0.077,0.056,0.001,54.391,-0.666,-0.540
'[13:39:27.046 02/12/1995]',0.066,0.044,0.001,54.391,-0.666,-0.540
'[13:39:27.048 02/12/1995]',0.055,0.034,0.010,54.541,-0.666,-0.542
'[13:39:27.050 02/12/1995]',0.044,0.022,0.010,54.541,-0.666,-0.542
'[13:39:27.052 02/12/1995]',0.044,0.022,0.010,54.541,-0.666,-0.542
'[13:39:27.054 02/12/1995]',0.066,0.034,0.001,54.541,-0.666,-0.542
'[13:39:27.056 02/12/1995]',0.077,0.067,0.001,54.841,-0.652,-0.544
'[13:39:27.058 02/12/1995]',0.088,0.077,0.001,54.841,-0.652,-0.544
'[13:39:27.060 02/12/1995]',0.088,0.077,0.001,54.841,-0.652,-0.544
'[13:39:27.062 02/12/1995]',0.088,0.067,0.010,54.841,-0.652,-0.544
'[13:39:27.064 02/12/1995]',0.066,0.044,0.020,55.442,-0.652,-0.546
'[13:39:27.066 02/12/1995]',0.066,0.022,0.020,55.442,-0.652,-0.546
'[13:39:27.068 02/12/1995]',0.066,0.034,0.030,55.442,-0.652,-0.546
'[13:39:27.070 02/12/1995]',0.066,0.044,0.020,55.442,-0.652,-0.546
'[13:39:27.072 02/12/1995]',0.088,0.067,0.010,56.594,-0.652,-0.548
'[13:39:27.074 02/12/1995]',0.099,0.088,0.010,56.594,-0.652,-0.548
'[13:39:27.076 02/12/1995]',0.110,0.100,0.010,56.594,-0.652,-0.548
'[13:39:27.078 02/12/1995]',0.110,0.077,0.020,56.594,-0.652,-0.548
'[13:39:27.080 02/12/1995]',0.099,0.056,0.030,58.547,-0.637,-0.550
'[13:39:27.082 02/12/1995]',0.088,0.044,0.040,58.547,-0.637,-0.550
'[13:39:27.084 02/12/1995]',0.088,0.034,0.040,58.547,-0.637,-0.550
'[13:39:27.086 02/12/1995]',0.088,0.056,0.040,58.547,-0.637,-0.550
'[13:39:27.088 02/12/1995]',0.110,0.077,0.030,61.452,-0.622,-0.551
'[13:39:27.090 02/12/1995]',0.121,0.100,0.030,61.452,-0.622,-0.551
'[13:39:27.092 02/12/1995]',0.132,0.100,0.020,61.452,-0.622,-0.551
'[13:39:27.094 02/12/1995]',0.132,0.088,0.030,61.452,-0.622,-0.551
'[13:39:27.096 02/12/1995]',0.132,0.077,0.040,65.359,-0.622,-0.553
'[13:39:27.098 02/12/1995]',0.110,0.056,0.049,65.359,-0.622,-0.553
'[13:39:27.100 02/12/1995]',0.110,0.056,0.059,65.359,-0.622,-0.553
'[13:39:27.102 02/12/1995]',0.121,0.067,0.059,65.359,-0.622,-0.553
'[13:39:27.104 02/12/1995]',0.121,0.077,0.049,69.966,-0.593,-0.554
'[13:39:27.106 02/12/1995]',0.143,0.111,0.049,69.966,-0.593,-0.554
'[13:39:27.108 02/12/1995]',0.164,0.121,0.040,69.966,-0.593,-0.554
'[13:39:27.110 02/12/1995]',0.164,0.121,0.049,69.966,-0.593,-0.554
'[13:39:27.112 02/12/1995]',0.164,0.111,0.049,74.875,-0.563,-0.554
'[13:39:27.114 02/12/1995]',0.143,0.088,0.069,74.875,-0.563,-0.554
'[13:39:27.116 02/12/1995]',0.154,0.077,0.069,74.875,-0.563,-0.554
'[13:39:27.118 02/12/1995]',0.143,0.077,0.079,74.875,-0.563,-0.554
'[13:39:27.120 02/12/1995]',0.154,0.088,0.069,79.482,-0.548,-0.554
'[13:39:27.122 02/12/1995]',0.164,0.121,0.059,79.482,-0.548,-0.554
'[13:39:27.124 02/12/1995]',0.186,0.143,0.059,79.482,-0.548,-0.554
'[13:39:27.126 02/12/1995]',0.186,0.143,0.059,79.482,-0.548,-0.554
'[13:39:27.128 02/12/1995]',0.197,0.143,0.069,83.439,-0.518,-0.554
'[13:39:27.130 02/12/1995]',0.186,0.121,0.079,83.439,-0.518,-0.554
'[13:39:27.132 02/12/1995]',0.175,0.111,0.089,83.439,-0.518,-0.554
'[13:39:27.134 02/12/1995]',0.175,0.100,0.089,83.439,-0.518,-0.554
'[13:39:27.136 02/12/1995]',0.186,0.121,0.089,86.544,-0.488,-0.553
'[13:39:27.138 02/12/1995]',0.197,0.143,0.089,86.544,-0.488,-0.553
'[13:39:27.140 02/12/1995]',0.219,0.165,0.089,86.544,-0.488,-0.553
'[13:39:27.142 02/12/1995]',0.230,0.165,0.079,86.544,-0.488,-0.553
'[13:39:27.144 02/12/1995]',0.230,0.165,0.079,88.898,-0.429,-0.553
'[13:39:27.146 02/12/1995]',0.219,0.154,0.089,88.898,-0.429,-0.553
'[13:39:27.148 02/12/1995]',0.208,0.133,0.099,88.898,-0.429,-0.553
'[13:39:27.150 02/12/1995]',0.208,0.133,0.108,88.898,-0.429,-0.553
'[13:39:27.152 02/12/1995]',0.208,0.143,0.099,90.751,-0.370,-0.552
'[13:39:27.154 02/12/1995]',0.219,0.154,0.099,90.751,-0.370,-0.552
'[13:39:27.156 02/12/1995]',0.241,0.165,0.089,90.751,-0.370,-0.552
'[13:39:27.158 02/12/1995]',0.251,0.187,0.089,90.751,-0.370,-0.552
'[13:39:27.160 02/12/1995]',0.251,0.187,0.089,92.354,-0.326,-0.552
'[13:39:27.162 02/12/1995]',0.241,0.176,0.089,92.354,-0.326,-0.552
'[13:39:27.164 02/12/1995]',0.241,0.165,0.108,92.354,-0.326,-0.552
'[13:39:27.166 02/12/1995]',0.219,0.143,0.108,92.354,-0.326,-0.552
'[13:39:27.168 02/12/1995]',0.219,0.143,0.118,93.756,-0.252,-0.552
'[13:39:27.170 02/12/1995]',0.230,0.154,0.099,93.756,-0.252,-0.552
'[13:39:27.172 02/12/1995]',0.241,0.176,0.099,93.756,-0.252,-0.552
'[13:39:27.174 02/12/1995]',0.262,0.198,0.089,93.756,-0.252,-0.552
'[13:39:27.176 02/12/1995]',0.262,0.198,0.089,95.058,-0.148,-0.553
'[13:39:27.178 02/12/1995]',0.251,0.187,0.099,95.058,-0.148,-0.553
'[13:39:27.180 02/12/1995]',0.241,0.165,0.099,95.058,-0.148,-0.553
'[13:39:27.182 02/12/1995]',0.230,0.165,0.108,95.058,-0.148,-0.553
'[13:39:27.184 02/12/1995]',0.208,0.154,0.108,96.160,-0.074,-0.553
'[13:39:27.186 02/12/1995]',0.208,0.154,0.099,96.160,-0.074,-0.553
'[13:39:27.188 02/12/1995]',0.230,0.165,0.089,96.160,-0.074,-0.553
'[13:39:27.190 02/12/1995]',0.241,0.187,0.089,96.160,-0.074,-0.553
'[13:39:27.192 02/12/1995]',0.251,0.198,0.079,96.961,0.029,-0.554
'[13:39:27.194 02/12/1995]',0.241,0.176,0.079,96.961,0.029,-0.554
'[13:39:27.196 02/12/1995]',0.219,0.165,0.089,96.961,0.029,-0.554
'[13:39:27.198 02/12/1995]',0.208,0.154,0.089,96.961,0.029,-0.554
'[13:39:27.200 02/12/1995]',0.186,0.133,0.089,97.412,0.118,-0.555
'[13:39:27.202 02/12/1995]',0.186,0.143,0.089,97.412,0.118,-0.555
'[13:39:27.204 02/12/1995]',0.186,0.154,0.079,97.412,0.118,-0.555
'[13:39:27.206 02/12/1995]',0.197,0.165,0.059,97.412,0.118,-0.555
'[13:39:27.208 02/12/1995]',0.197,0.165,0.049,97.462,0.223,-0.556
'[13:39:27.210 02/12/1995]',0.186,0.165,0.049,97.462,0.223,-0.556
'[13:39:27.212 02/12/1995]',0.186,0.154,0.049,97.462,0.223,-0.556
'[13:39:27.214 02/12/1995]',0.164,0.121,0.059,97.462,0.223,-0.556
'[13:39:27.216 02/12/1995]',0.143,0.100,0.059,97.312,0.311,-0.556
'[13:39:27.218 02/12/1995]',0.143,0.100,0.049,97.312,0.311,-0.556
'[13:39:27.220 02/12/1995]',0.143,0.111,0.040,97.312,0.311,-0.556
'[13:39:27.222 02/12/1995]',0.143,0.121,0.020,97.312,0.311,-0.556
'[13:39:27.224 02/12/1995]',0.143,0.133,0.010,97.062,0.385,-0.557
'[13:39:27.226 02/12/1995]',0.143,0.133,0.010,97.062,0.385,-0.557
'[13:39:27.228 02/12/1995]',0.132,0.111,0.010,97.062,0.385,-0.557
'[13:39:27.230 02/12/1995]',0.121,0.088,0.010,97.062,0.385,-0.557
'[13:39:27.232 02/12/1995]',0.088,0.067,0.010,96.761,0.460,-0.557
'[13:39:27.234 02/12/1995]',0.077,0.056,0.010,96.761,0.460,-0.557
'[13:39:27.236 02/12/1995]',0.077,0.056,0.001,96.761,0.460,-0.557
'[13:39:27.238 02/12/1995]',0.088,0.077,0.001,96.761,0.460,-0.557
'[13:39:27.240 02/12/1995]',0.088,0.100,-0.009,96.260,0.503,-0.558
'[13:39:27.242 02/12/1995]',0.088,0.100,-0.009,96.260,0.503,-0.558
'[13:39:27.244 02/12/1995]',0.088,0.077,-0.009,96.260,0.503,-0.558
'[13:39:27.246 02/12/1995]',0.066,0.056,-0.009,96.260,0.503,-0.558
'[13:39:27.248 02/12/1995]',0.044,0.044,0.001,95.759,0.563,-0.558
'[13:39:27.250 02/12/1995]',0.044,0.022,0.001,95.759,0.563,-0.558
'[13:39:27.252 02/12/1995]',0.033,0.022,-0.009,95.759,0.563,-0.558
'[13:39:27.254 02/12/1995]',0.044,0.044,-0.019,95.759,0.563,-0.558
'[13:39:27.256 02/12/1995]',0.044,0.067,-0.029,95.108,0.608,-0.558
'[13:39:27.258 02/12/1995]',0.055,0.077,-0.038,95.108,0.608,-0.558
'[13:39:27.260 02/12/1995]',0.055,0.077,-0.038,95.108,0.608,-0.558
'[13:39:27.262 02/12/1995]',0.044,0.056,-0.029,95.108,0.608,-0.558
'[13:39:27.264 02/12/1995]',0.033,0.034,-0.019,94.207,0.637,-0.557
'[13:39:27.266 02/12/1995]',0.011,0.011,-0.019,94.207,0.637,-0.557
'[13:39:27.268 02/12/1995]',0.011,0.011,-0.029,94.207,0.637,-0.557
'[13:39:27.270 02/12/1995]',0.011,0.022,-0.029,94.207,0.637,-0.557
'[13:39:27.272 02/12/1995]',0.022,0.044,-0.038,93.055,0.681,-0.556
'[13:39:27.274 02/12/1995]',0.033,0.067,-0.038,93.055,0.681,-0.556
'[13:39:27.276 02/12/1995]',0.033,0.056,-0.038,93.055,0.681,-0.556
'[13:39:27.278 02/12/1995]',0.033,0.044,-0.048,93.055,0.681,-0.556
'[13:39:27.280 02/12/1995]',0.022,0.022,-0.038,91.653,0.681,-0.555
'[13:39:27.282 02/12/1995]',0.001,0.001,-0.029,91.653,0.681,-0.555
'[13:39:27.284 02/12/1995]',-0.010,0.001,-0.029,91.653,0.681,-0.555
'[13:39:27.286 02/12/1995]',0.001,0.001,-0.029,91.653,0.681,-0.555
'[13:39:27.288 02/12/1995]',0.011,0.034,-0.048,89.900,0.681,-0.554
'[13:39:27.290 02/12/1995]',0.022,0.044,-0.048,89.900,0.681,-0.554
'[13:39:27.292 02/12/1995]',0.022,0.044,-0.048,89.900,0.681,-0.554
'[13:39:27.294 02/12/1995]',0.022,0.034,-0.048,89.900,0.681,-0.554
'[13:39:27.296 02/12/1995]',0.011,0.022,-0.038,87.896,0.697,-0.552
'[13:39:27.298 02/12/1995]',0.001,0.001,-0.038,87.896,0.697,-0.552
'[13:39:27.300 02/12/1995]',-0.010,0.001,-0.029,87.896,0.697,-0.552
'[13:39:27.302 02/12/1995]',-0.010,0.001,-0.048,87.896,0.697,-0.552
'[13:39:27.304 02/12/1995]',0.001,0.011,-0.048,85.542,0.711,-0.551
'[13:39:27.306 02/12/1995]',0.011,0.034,-0.058,85.542,0.711,-0.551
'[13:39:27.308 02/12/1995]',0.011,0.044,-0.058,85.542,0.711,-0.551
'[13:39:27.310 02/12/1995]',0.001,0.034,-0.048,85.542,0.711,-0.551
'[13:39:27.312 02/12/1995]',0.001,0.011,-0.048,82.888,0.697,-0.550
'[13:39:27.314 02/12/1995]',0.001,0.001,-0.038,82.888,0.697,-0.550
'[13:39:27.316 02/12/1995]',-0.010,0.001,-0.038,82.888,0.697,-0.550
'[13:39:27.318 02/12/1995]',-0.021,-0.010,-0.038,82.888,0.697,-0.550
'[13:39:27.320 02/12/1995]',0.001,0.001,-0.038,79.983,0.681,-0.550
'[13:39:27.322 02/12/1995]',0.001,0.011,-0.048,79.983,0.681,-0.550
'[13:39:27.324 02/12/1995]',0.011,0.022,-0.048,79.983,0.681,-0.550
'[13:39:27.326 02/12/1995]',0.011,0.011,-0.058,79.983,0.681,-0.550
'[13:39:27.328 02/12/1995]',0.001,0.011,-0.048,76.928,0.666,-0.549
'[13:39:27.330 02/12/1995]',0.001,0.001,-0.038,76.928,0.666,-0.549
'[13:39:27.332 02/12/1995]',-0.021,0.001,-0.038,76.928,0.666,-0.549
'[13:39:27.334 02/12/1995]',-0.021,-0.010,-0.038,76.928,0.666,-0.549
'[13:39:27.336 02/12/1995]',-0.010,0.001,-0.038,74.023,0.608,-0.549
'[13:39:27.338 02/12/1995]',-0.010,0.001,-0.048,74.023,0.608,-0.549
'[13:39:27.340 02/12/1995]',0.001,0.011,-0.058,74.023,0.608,-0.549
'[13:39:27.342 02/12/1995]',0.001,0.011,-0.058,74.023,0.608,-0.549
'[13:39:27.344 02/12/1995]',0.001,0.011,-0.058,71.669,0.563,-0.549
'[13:39:27.346 02/12/1995]',0.001,0.001,-0.058,71.669,0.563,-0.549
'[13:39:27.348 02/12/1995]',-0.021,-0.010,-0.048,71.669,0.563,-0.549
'[13:39:27.350 02/12/1995]',-0.021,-0.021,-0.048,71.669,0.563,-0.549
'[13:39:27.352 02/12/1995]',-0.021,-0.010,-0.038,70.167,0.533,-0.549
'[13:39:27.354 02/12/1995]',-0.010,0.001,-0.058,70.167,0.533,-0.549
'[13:39:27.356 02/12/1995]',0.001,0.011,-0.058,70.167,0.533,-0.549
'[13:39:27.358 02/12/1995]',0.001,0.011,-0.068,70.167,0.533,-0.549
'[13:39:27.360 02/12/1995]',0.001,0.011,-0.068,69.766,0.474,-0.549
'[13:39:27.362 02/12/1995]',0.001,0.001,-0.058,69.766,0.474,-0.549
'[13:39:27.364 02/12/1995]',-0.010,0.001,-0.048,69.766,0.474,-0.549
'[13:39:27.366 02/12/1995]',-0.021,-0.010,-0.048,69.766,0.474,-0.549
'[13:39:27.368 02/12/1995]',-0.021,-0.021,-0.048,70.467,0.415,-0.549
'[13:39:27.370 02/12/1995]',-0.021,0.001,-0.048,70.467,0.415,-0.549
'[13:39:27.372 02/12/1995]',0.001,0.001,-0.058,70.467,0.415,-0.549
'[13:39:27.374 02/12/1995]',0.001,0.011,-0.068,70.467,0.415,-0.549
'[13:39:27.376 02/12/1995]',0.001,0.011,-0.068,71.820,0.355,-0.548
'[13:39:27.378 02/12/1995]',0.001,0.001,-0.058,71.820,0.355,-0.548
'[13:39:27.380 02/12/1995]',-0.010,0.001,-0.058,71.820,0.355,-0.548
'[13:39:27.382 02/12/1995]',-0.021,-0.021,-0.048,71.820,0.355,-0.548
'[13:39:27.384 02/12/1995]',-0.032,-0.021,-0.048,73.322,0.296,-0.548
'[13:39:27.386 02/12/1995]',-0.021,-0.010,-0.048,73.322,0.296,-0.548
'[13:39:27.388 02/12/1995]',-0.010,0.001,-0.058,73.322,0.296,-0.548
'[13:39:27.390 02/12/1995]',0.001,0.011,-0.058,73.322,0.296,-0.548
'[13:39:27.392 02/12/1995]',0.001,0.022,-0.068,74.574,0.237,-0.547
'[13:39:27.394 02/12/1995]',0.001,0.011,-0.058,74.574,0.237,-0.547
'[13:39:27.396 02/12/1995]',0.001,0.001,-0.048,74.574,0.237,-0.547
'[13:39:27.398 02/12/1995]',-0.021,-0.010,-0.048,74.574,0.237,-0.547
'[13:39:27.400 02/12/1995]',-0.021,-0.021,-0.038,75.225,0.163,-0.547
'[13:39:27.402 02/12/1995]',-0.021,-0.021,-0.048,75.225,0.163,-0.547
'[13:39:27.404 02/12/1995]',-0.021,0.001,-0.048,75.225,0.163,-0.547
'[13:39:27.406 02/12/1995]',0.001,0.001,-0.058,75.225,0.163,-0.547
'[13:39:27.408 02/12/1995]',0.001,0.011,-0.058,75.376,0.104,-0.546
'[13:39:27.410 02/12/1995]',0.001,0.011,-0.058,75.376,0.104,-0.546
'[13:39:27.412 02/12/1995]',0.001,0.001,-0.048,75.376,0.104,-0.546
'[13:39:27.414 02/12/1995]',-0.021,-0.010,-0.048,75.376,0.104,-0.546
'[13:39:27.416 02/12/1995]',-0.021,-0.021,-0.038,75.075,0.074,-0.546
'[13:39:27.418 02/12/1995]',-0.021,-0.021,-0.038,75.075,0.074,-0.546
'[13:39:27.420 02/12/1995]',-0.021,0.001,-0.048,75.075,0.074,-0.546
'[13:39:27.422 02/12/1995]',0.001,0.001,-0.058,75.075,0.074,-0.546
'[13:39:27.424 02/12/1995]',0.001,0.011,-0.058,74.624,0.015,-0.545
'[13:39:27.426 02/12/1995]',0.001,0.011,-0.058,74.624,0.015,-0.545
'[13:39:27.428 02/12/1995]',0.001,0.001,-0.058,74.624,0.015,-0.545
'[13:39:27.430 02/12/1995]',-0.021,0.001,-0.038,74.624,0.015,-0.545
'[13:39:27.432 02/12/1995]',-0.032,-0.021,-0.038,74.173,-0.015,-0.543
'[13:39:27.434 02/12/1995]',-0.032,-0.032,-0.038,74.173,-0.015,-0.543
'[13:39:27.436 02/12/1995]',-0.032,-0.021,-0.048,74.173,-0.015,-0.543
'[13:39:27.438 02/12/1995]',-0.021,0.001,-0.048,74.173,-0.015,-0.543
'[13:39:27.440 02/12/1995]',0.001,0.001,-0.058,73.673,-0.029,-0.542
'[13:39:27.442 02/12/1995]',0.001,0.011,-0.058,73.673,-0.029,-0.542
'[13:39:27.444 02/12/1995]',0.001,0.001,-0.058,73.673,-0.029,-0.542
'[13:39:27.446 02/12/1995]',-0.010,0.001,-0.048,73.673,-0.029,-0.542
'[13:39:27.448 02/12/1995]',-0.021,-0.010,-0.038,73.222,-0.059,-0.540
'[13:39:27.450 02/12/1995]',-0.043,-0.021,-0.038,73.222,-0.059,-0.540
'[13:39:27.452 02/12/1995]',-0.032,-0.021,-0.038,73.222,-0.059,-0.540
'[13:39:27.454 02/12/1995]',-0.021,0.001,-0.038,73.222,-0.059,-0.540
'[13:39:27.456 02/12/1995]',-0.010,0.001,-0.048,72.821,-0.059,-0.538
'[13:39:27.458 02/12/1995]',0.001,0.011,-0.048,72.821,-0.059,-0.538
'[13:39:27.460 02/12/1995]',0.001,0.011,-0.048,72.821,-0.059,-0.538
'[13:39:27.462 02/12/1995]',-0.010,0.001,-0.048,72.821,-0.059,-0.538
'[13:39:27.464 02/12/1995]',-0.021,0.001,-0.038,72.320,-0.089,-0.536
'[13:39:27.466 02/12/1995]',-0.032,-0.021,-0.038,72.320,-0.089,-0.536
'[13:39:27.468 02/12/1995]',-0.032,-0.010,-0.029,72.320,-0.089,-0.536
'[13:39:27.470 02/12/1995]',-0.021,0.001,-0.038,72.320,-0.089,-0.536
'[13:39:27.472 02/12/1995]',-0.010,0.001,-0.048,71.870,-0.074,-0.534
'[13:39:27.474 02/12/1995]',0.001,0.011,-0.048,71.870,-0.074,-0.534
'[13:39:27.476 02/12/1995]',0.001,0.011,-0.058,71.870,-0.074,-0.534
'[13:39:27.478 02/12/1995]',0.001,0.001,-0.048,71.870,-0.074,-0.534
'[13:39:27.480 02/12/1995]',-0.021,0.001,-0.038,71.469,-0.089,-0.533
'[13:39:27.482 02/12/1995]',-0.032,-0.010,-0.029,71.469,-0.089,-0.533
'[13:39:27.484 02/12/1995]',-0.032,-0.021,-0.029,71.469,-0.089,-0.533
'[13:39:27.486 02/12/1995]',-0.021,0.001,-0.038,71.469,-0.089,-0.533
'[13:39:27.488 02/12/1995]',-0.021,0.001,-0.038,71.018,-0.089,-0.532
'[13:39:27.490 02/12/1995]',0.001,0.011,-0.048,71.018,-0.089,-0.532
'[13:39:27.492 02/12/1995]',0.001,0.011,-0.048,71.018,-0.089,-0.532
'[13:39:27.494 02/12/1995]',0.001,0.011,-0.048,71.018,-0.089,-0.532
'[13:39:27.496 02/12/1995]',-0.010,0.001,-0.038,70.618,-0.103,-0.531
'[13:39:27.498 02/12/1995]',-0.021,-0.010,-0.029,70.618,-0.103,-0.531
'[13:39:27.500 02/12/1995]',-0.043,-0.021,-0.029,70.618,-0.103,-0.531
'[13:39:27.502 02/12/1995]',-0.032,-0.010,-0.029,70.618,-0.103,-0.531
'[13:39:27.504 02/12/1995]',-0.021,0.001,-0.038,70.167,-0.118,-0.531
'[13:39:27.506 02/12/1995]',-0.010,0.011,-0.048,70.167,-0.118,-0.531
