'Time and date','aVR','II','V','ABP','PLETH','RESP'
'hh:mm:ss.mmm dd/mm/yyyy','mV','mV','mV','mmHg','mV','mV'
'[09:10:08.000 26/12/1995]',0.015,-0.015,-0.020,52.237,-,0.046
'[09:10:08.002 26/12/1995]',0.015,-0.015,-0.020,52.237,-,0.046
'[09:10:08.004 26/12/1995]',0.015,-0.015,-0.020,52.237,-,0.046
'[09:10:08.006 26/12/1995]',0.015,-0.015,-0.020,52.237,-,0.046
'[09:10:08.008 26/12/1995]',0.014,-0.022,-0.027,51.987,-,0.036
'[09:10:08.010 26/12/1995]',0.014,-0.015,-0.027,51.987,-,0.036
'[09:10:08.012 26/12/1995]',0.014,-0.015,-0.027,51.987,-,0.036
'[09:10:08.014 26/12/1995]',0.014,-0.015,-0.027,51.987,-,0.036
'[09:10:08.016 26/12/1995]',0.014,-0.015,-0.027,51.836,-,0.024
'[09:10:08.018 26/12/1995]',0.014,-0.030,-0.020,51.836,-,0.024
'[09:10:08.020 26/12/1995]',0.014,-0.030,-0.027,51.836,-,0.024
'[09:10:08.022 26/12/1995]',0.014,-0.022,-0.027,51.836,-,0.024
'[09:10:08.024 26/12/1995]',0.014,-0.022,-0.027,51.636,-,0.009
'[09:10:08.026 26/12/1995]',0.014,-0.022,-0.033,51.636,-,0.009
'[09:10:08.028 26/12/1995]',0.014,-0.022,-0.027,51.636,-,0.009
'[09:10:08.030 26/12/1995]',0.014,-0.030,-0.027,51.636,-,0.009
'[09:10:08.032 26/12/1995]',0.014,-0.022,-0.033,51.486,-,-0.009
'[09:10:08.034 26/12/1995]',0.014,-0.022,-0.033,51.486,-,-0.009
'[09:10:08.036 26/12/1995]',0.014,-0.022,-0.033,51.486,-,-0.009
'[09:10:08.038 26/12/1995]',0.014,-0.022,-0.033,51.486,-,-0.009
'[09:10:08.040 26/12/1995]',0.014,-0.022,-0.033,51.285,-,-0.030
'[09:10:08.042 26/12/1995]',0.014,-0.022,-0.033,51.285,-,-0.030
'[09:10:08.044 26/12/1995]',0.014,-0.022,-0.033,51.285,-,-0.030
'[09:10:08.046 26/12/1995]',0.015,-0.030,-0.033,51.285,-,-0.030
'[09:10:08.048 26/12/1995]',0.014,-0.022,-0.033,51.185,-,-0.055
'[09:10:08.050 26/12/1995]',0.014,-0.015,-0.033,51.185,-,-0.055
'[09:10:08.052 26/12/1995]',0.014,-0.015,-0.047,51.185,-,-0.055
'[09:10:08.054 26/12/1995]',0.013,-0.022,-0.047,51.185,-,-0.055
'[09:10:08.056 26/12/1995]',0.012,-0.022,-0.047,51.085,-,-0.083
'[09:10:08.058 26/12/1995]',0.012,-0.030,-0.047,51.085,-,-0.083
'[09:10:08.060 26/12/1995]',0.012,-0.022,-0.033,51.085,-,-0.083
'[09:10:08.062 26/12/1995]',0.011,-0.030,-0.047,51.085,-,-0.083
'[09:10:08.064 26/12/1995]',0.011,-0.015,-0.033,50.885,-,-0.113
'[09:10:08.066 26/12/1995]',0.010,-0.015,-0.047,50.885,-,-0.113
'[09:10:08.068 26/12/1995]',0.010,-0.022,-0.047,50.885,-,-0.113
'[09:10:08.070 26/12/1995]',0.009,-0.022,-0.047,50.885,-,-0.113
'[09:10:08.072 26/12/1995]',0.010,-0.022,-0.047,50.785,-,-0.145
'[09:10:08.074 26/12/1995]',0.010,-0.022,-0.047,50.785,-,-0.145
'[09:10:08.076 26/12/1995]',0.011,-0.022,-0.047,50.785,-,-0.145
'[09:10:08.078 26/12/1995]',0.011,-0.022,-0.033,50.785,-,-0.145
'[09:10:08.080 26/12/1995]',0.012,-0.022,-0.047,50.584,-,-0.180
'[09:10:08.082 26/12/1995]',0.012,-0.030,-0.033,50.584,-,-0.180
'[09:10:08.084 26/12/1995]',0.012,-0.030,-0.033,50.584,-,-0.180
'[09:10:08.086 26/12/1995]',0.012,-0.030,-0.047,50.584,-,-0.180
'[09:10:08.088 26/12/1995]',0.012,-0.030,-0.047,50.434,-,-0.217
'[09:10:08.090 26/12/1995]',0.011,-0.030,-0.047,50.434,-,-0.217
'[09:10:08.092 26/12/1995]',0.011,-0.022,-0.033,50.434,-,-0.217
'[09:10:08.094 26/12/1995]',0.010,-0.022,-0.033,50.434,-,-0.217
'[09:10:08.096 26/12/1995]',0.008,-0.022,-0.033,50.234,-,-0.258
'[09:10:08.098 26/12/1995]',0.007,-0.022,-0.033,50.234,-,-0.258
'[09:10:08.100 26/12/1995]',0.006,-0.022,-0.047,50.234,-,-0.258
'[09:10:08.102 26/12/1995]',0.005,-0.022,-0.047,50.234,-,-0.258
'[09:10:08.104 26/12/1995]',0.004,-0.022,-0.047,50.083,-,-0.302
'[09:10:08.106 26/12/1995]',0.002,-0.015,-0.047,50.083,-,-0.302
'[09:10:08.108 26/12/1995]',0.000,0.001,-0.047,50.083,-,-0.302
'[09:10:08.110 26/12/1995]',-0.002,0.008,-0.047,50.083,-,-0.302
'[09:10:08.112 26/12/1995]',-0.004,0.001,-0.047,49.883,-,-0.351
'[09:10:08.114 26/12/1995]',-0.005,0.001,-0.047,49.883,-,-0.351
'[09:10:08.116 26/12/1995]',-0.006,-0.007,-0.047,49.883,-,-0.351
'[09:10:08.118 26/12/1995]',-0.008,-0.007,-0.047,49.883,-,-0.351
'[09:10:08.120 26/12/1995]',-0.009,-0.007,-0.054,49.783,-,-0.403
'[09:10:08.122 26/12/1995]',-0.010,-0.015,-0.061,49.783,-,-0.403
'[09:10:08.124 26/12/1995]',-0.011,-0.015,-0.054,49.783,-,-0.403
'[09:10:08.126 26/12/1995]',-0.011,-0.007,-0.061,49.783,-,-0.403
'[09:10:08.128 26/12/1995]',-0.012,-0.007,-0.061,49.532,-,-0.456
'[09:10:08.130 26/12/1995]',-0.012,-0.007,-0.061,49.532,-,-0.456
'[09:10:08.132 26/12/1995]',-0.011,0.001,-0.061,49.532,-,-0.456
'[09:10:08.134 26/12/1995]',-0.010,0.008,-0.068,49.532,-,-0.456
'[09:10:08.136 26/12/1995]',-0.005,0.016,-0.074,49.382,-,-0.505
'[09:10:08.138 26/12/1995]',-0.001,0.023,-0.088,49.382,-,-0.505
'[09:10:08.140 26/12/1995]',0.008,0.016,-0.088,49.382,-,-0.505
'[09:10:08.142 26/12/1995]',0.016,0.001,-0.088,49.382,-,-0.505
'[09:10:08.144 26/12/1995]',0.028,-0.015,-0.088,49.132,-,-0.553
'[09:10:08.146 26/12/1995]',0.041,-0.022,-0.074,49.132,-,-0.553
'[09:10:08.148 26/12/1995]',0.054,-0.053,-0.068,49.132,-,-0.553
'[09:10:08.150 26/12/1995]',0.067,-0.075,-0.068,49.132,-,-0.553
'[09:10:08.152 26/12/1995]',0.080,-0.091,-0.061,48.881,-,-0.600
'[09:10:08.154 26/12/1995]',0.092,-0.106,-0.054,48.881,-,-0.600
'[09:10:08.156 26/12/1995]',0.105,-0.136,-0.047,48.881,-,-0.600
'[09:10:08.158 26/12/1995]',0.117,-0.151,-0.020,48.881,-,-0.600
'[09:10:08.160 26/12/1995]',0.129,-0.174,-0.013,48.631,-,-0.643
'[09:10:08.162 26/12/1995]',0.141,-0.181,0.001,48.631,-,-0.643
'[09:10:08.164 26/12/1995]',0.153,-0.212,0.007,48.631,-,-0.643
'[09:10:08.166 26/12/1995]',0.165,-0.227,0.014,48.631,-,-0.643
'[09:10:08.168 26/12/1995]',0.176,-0.242,0.028,48.381,-,-0.682
'[09:10:08.170 26/12/1995]',0.187,-0.280,0.048,48.381,-,-0.682
'[09:10:08.172 26/12/1995]',0.196,-0.303,0.062,48.381,-,-0.682
'[09:10:08.174 26/12/1995]',0.204,-0.340,0.075,48.381,-,-0.682
'[09:10:08.176 26/12/1995]',0.208,-0.371,0.102,48.130,-,-0.719
'[09:10:08.178 26/12/1995]',0.212,-0.386,0.109,48.130,-,-0.719
'[09:10:08.180 26/12/1995]',0.210,-0.409,0.109,48.130,-,-0.719
'[09:10:08.182 26/12/1995]',0.208,-0.416,0.116,48.130,-,-0.719
'[09:10:08.184 26/12/1995]',0.200,-0.416,0.129,47.830,-,-0.751
'[09:10:08.186 26/12/1995]',0.192,-0.386,0.116,47.830,-,-0.751
'[09:10:08.188 26/12/1995]',0.182,-0.363,0.109,47.830,-,-0.751
'[09:10:08.190 26/12/1995]',0.171,-0.340,0.096,47.830,-,-0.751
'[09:10:08.192 26/12/1995]',0.160,-0.318,0.089,47.529,-,-0.781
'[09:10:08.194 26/12/1995]',0.150,-0.303,0.075,47.529,-,-0.781
'[09:10:08.196 26/12/1995]',0.140,-0.295,0.075,47.529,-,-0.781
'[09:10:08.198 26/12/1995]',0.131,-0.287,0.068,47.529,-,-0.781
'[09:10:08.200 26/12/1995]',0.122,-0.272,0.062,47.229,-,-0.806
'[09:10:08.202 26/12/1995]',0.113,-0.249,0.055,47.229,-,-0.806
'[09:10:08.204 26/12/1995]',0.104,-0.242,0.048,47.229,-,-0.806
'[09:10:08.206 26/12/1995]',0.095,-0.227,0.034,47.229,-,-0.806
'[09:10:08.208 26/12/1995]',0.084,-0.219,0.028,46.928,-,-0.829
'[09:10:08.210 26/12/1995]',0.073,-0.219,0.021,46.928,-,-0.829
'[09:10:08.212 26/12/1995]',0.062,-0.212,0.014,46.928,-,-0.829
'[09:10:08.214 26/12/1995]',0.051,-0.189,0.014,46.928,-,-0.829
'[09:10:08.216 26/12/1995]',0.040,-0.159,0.001,46.678,-,-0.848
'[09:10:08.218 26/12/1995]',0.030,-0.121,-0.013,46.678,-,-0.848
'[09:10:08.220 26/12/1995]',0.021,-0.091,-0.020,46.678,-,-0.848
'[09:10:08.222 26/12/1995]',0.012,-0.075,-0.033,46.678,-,-0.848
'[09:10:08.224 26/12/1995]',0.006,-0.045,-0.033,46.327,-,-0.863
'[09:10:08.226 26/12/1995]',0.000,-0.037,-0.047,46.327,-,-0.863
'[09:10:08.228 26/12/1995]',-0.005,-0.015,-0.047,46.327,-,-0.863
'[09:10:08.230 26/12/1995]',-0.009,-0.007,-0.047,46.327,-,-0.863
'[09:10:08.232 26/12/1995]',-0.013,0.001,-0.054,45.876,-,-0.875
'[09:10:08.234 26/12/1995]',-0.017,-0.007,-0.054,45.876,-,-0.875
'[09:10:08.236 26/12/1995]',-0.020,-0.015,-0.054,45.876,-,-0.875
'[09:10:08.238 26/12/1995]',-0.023,-0.007,-0.054,45.876,-,-0.875
'[09:10:08.240 26/12/1995]',-0.026,0.008,-0.061,45.476,-,-0.884
'[09:10:08.242 26/12/1995]',-0.028,0.023,-0.061,45.476,-,-0.884
'[09:10:08.244 26/12/1995]',-0.030,0.031,-0.068,45.476,-,-0.884
'[09:10:08.246 26/12/1995]',-0.031,0.031,-0.068,45.476,-,-0.884
'[09:10:08.248 26/12/1995]',-0.033,0.023,-0.061,45.075,-,-0.890
'[09:10:08.250 26/12/1995]',-0.035,0.016,-0.061,45.075,-,-0.890
'[09:10:08.252 26/12/1995]',-0.036,0.023,-0.061,45.075,-,-0.890
'[09:10:08.254 26/12/1995]',-0.038,0.038,-0.068,45.075,-,-0.890
'[09:10:08.256 26/12/1995]',-0.041,0.046,-0.068,44.674,-,-0.894
'[09:10:08.258 26/12/1995]',-0.043,0.046,-0.068,44.674,-,-0.894
'[09:10:08.260 26/12/1995]',-0.045,0.054,-0.068,44.674,-,-0.894
'[09:10:08.262 26/12/1995]',-0.047,0.054,-0.068,44.674,-,-0.894
'[09:10:08.264 26/12/1995]',-0.048,0.069,-0.068,44.374,-,-0.894
'[09:10:08.266 26/12/1995]',-0.049,0.069,-0.068,44.374,-,-0.894
'[09:10:08.268 26/12/1995]',-0.048,0.069,-0.068,44.374,-,-0.894
'[09:10:08.270 26/12/1995]',-0.048,0.054,-0.068,44.374,-,-0.894
'[09:10:08.272 26/12/1995]',-0.046,0.046,-0.068,44.123,-,-0.892
'[09:10:08.274 26/12/1995]',-0.045,0.038,-0.068,44.123,-,-0.892
'[09:10:08.276 26/12/1995]',-0.045,0.038,-0.068,44.123,-,-0.892
'[09:10:08.278 26/12/1995]',-0.044,0.046,-0.068,44.123,-,-0.892
'[09:10:08.280 26/12/1995]',-0.043,0.046,-0.061,43.973,-,-0.888
'[09:10:08.282 26/12/1995]',-0.043,0.054,-0.068,43.973,-,-0.888
'[09:10:08.284 26/12/1995]',-0.043,0.054,-0.068,43.973,-,-0.888
'[09:10:08.286 26/12/1995]',-0.043,0.046,-0.061,43.973,-,-0.888
'[09:10:08.288 26/12/1995]',-0.043,0.054,-0.061,43.773,-,-0.881
'[09:10:08.290 26/12/1995]',-0.042,0.054,-0.061,43.773,-,-0.881
'[09:10:08.292 26/12/1995]',-0.042,0.054,-0.061,43.773,-,-0.881
'[09:10:08.294 26/12/1995]',-0.041,0.054,-0.061,43.773,-,-0.881
'[09:10:08.296 26/12/1995]',-0.041,0.054,-0.061,43.723,-,-0.872
'[09:10:08.298 26/12/1995]',-0.042,0.054,-0.061,43.723,-,-0.872
'[09:10:08.300 26/12/1995]',-0.042,0.054,-0.054,43.723,-,-0.872
'[09:10:08.302 26/12/1995]',-0.042,0.054,-0.061,43.723,-,-0.872
'[09:10:08.304 26/12/1995]',-0.042,0.069,-0.061,44.023,-,-0.860
'[09:10:08.306 26/12/1995]',-0.042,0.054,-0.054,44.023,-,-0.860
'[09:10:08.308 26/12/1995]',-0.043,0.054,-0.054,44.023,-,-0.860
'[09:10:08.310 26/12/1995]',-0.043,0.069,-0.054,44.023,-,-0.860
'[09:10:08.312 26/12/1995]',-0.043,0.069,-0.054,44.875,-,-0.845
'[09:10:08.314 26/12/1995]',-0.044,0.054,-0.054,44.875,-,-0.845
'[09:10:08.316 26/12/1995]',-0.044,0.069,-0.054,44.875,-,-0.845
'[09:10:08.318 26/12/1995]',-0.044,0.054,-0.061,44.875,-,-0.845
'[09:10:08.320 26/12/1995]',-0.044,0.069,-0.054,46.728,-,-0.828
'[09:10:08.322 26/12/1995]',-0.044,0.069,-0.061,46.728,-,-0.828
'[09:10:08.324 26/12/1995]',-0.045,0.076,-0.054,46.728,-,-0.828
'[09:10:08.326 26/12/1995]',-0.045,0.076,-0.054,46.728,-,-0.828
'[09:10:08.328 26/12/1995]',-0.045,0.076,-0.047,49.733,-,-0.806
'[09:10:08.330 26/12/1995]',-0.044,0.069,-0.047,49.733,-,-0.806
'[09:10:08.332 26/12/1995]',-0.044,0.069,-0.047,49.733,-,-0.806
'[09:10:08.334 26/12/1995]',-0.044,0.069,-0.047,49.733,-,-0.806
'[09:10:08.336 26/12/1995]',-0.044,0.069,-0.054,53.739,-,-0.780
'[09:10:08.338 26/12/1995]',-0.044,0.069,-0.054,53.739,-,-0.780
'[09:10:08.340 26/12/1995]',-0.044,0.076,-0.054,53.739,-,-0.780
'[09:10:08.342 26/12/1995]',-0.045,0.069,-0.054,53.739,-,-0.780
'[09:10:08.344 26/12/1995]',-0.046,0.084,-0.054,58.598,-,-0.751
'[09:10:08.346 26/12/1995]',-0.048,0.076,-0.054,58.598,-,-0.751
'[09:10:08.348 26/12/1995]',-0.048,0.069,-0.054,58.598,-,-0.751
'[09:10:08.350 26/12/1995]',-0.049,0.069,-0.061,58.598,-,-0.751
'[09:10:08.352 26/12/1995]',-0.048,0.076,-0.054,63.756,-,-0.719
'[09:10:08.354 26/12/1995]',-0.047,0.076,-0.054,63.756,-,-0.719
'[09:10:08.356 26/12/1995]',-0.045,0.076,-0.054,63.756,-,-0.719
'[09:10:08.358 26/12/1995]',-0.043,0.076,-0.054,63.756,-,-0.719
'[09:10:08.360 26/12/1995]',-0.040,0.076,-0.054,68.965,-,-0.681
'[09:10:08.362 26/12/1995]',-0.037,0.069,-0.054,68.965,-,-0.681
'[09:10:08.364 26/12/1995]',-0.034,0.069,-0.054,68.965,-,-0.681
'[09:10:08.366 26/12/1995]',-0.031,0.054,-0.047,68.965,-,-0.681
'[09:10:08.368 26/12/1995]',-0.029,0.054,-0.047,74.123,-,-0.639
'[09:10:08.370 26/12/1995]',-0.028,0.054,-0.054,74.123,-,-0.639
'[09:10:08.372 26/12/1995]',-0.027,0.046,-0.047,74.123,-,-0.639
'[09:10:08.374 26/12/1995]',-0.026,0.046,-0.047,74.123,-,-0.639
'[09:10:08.376 26/12/1995]',-0.026,0.046,-0.047,78.982,-,-0.593
'[09:10:08.378 26/12/1995]',-0.026,0.038,-0.054,78.982,-,-0.593
'[09:10:08.380 26/12/1995]',-0.026,0.046,-0.054,78.982,-,-0.593
'[09:10:08.382 26/12/1995]',-0.025,0.038,-0.047,78.982,-,-0.593
'[09:10:08.384 26/12/1995]',-0.023,0.038,-0.047,83.389,-,-0.546
'[09:10:08.386 26/12/1995]',-0.022,0.038,-0.047,83.389,-,-0.546
'[09:10:08.388 26/12/1995]',-0.021,0.038,-0.047,83.389,-,-0.546
'[09:10:08.390 26/12/1995]',-0.020,0.031,-0.047,83.389,-,-0.546
'[09:10:08.392 26/12/1995]',-0.019,0.031,-0.047,87.295,-,-0.500
'[09:10:08.394 26/12/1995]',-0.019,0.023,-0.047,87.295,-,-0.500
'[09:10:08.396 26/12/1995]',-0.019,0.023,-0.047,87.295,-,-0.500
'[09:10:08.398 26/12/1995]',-0.018,0.016,-0.047,87.295,-,-0.500
'[09:10:08.400 26/12/1995]',-0.018,0.023,-0.047,90.551,-,-0.455
'[09:10:08.402 26/12/1995]',-0.017,0.023,-0.047,90.551,-,-0.455
'[09:10:08.404 26/12/1995]',-0.016,0.023,-0.047,90.551,-,-0.455
'[09:10:08.406 26/12/1995]',-0.015,0.016,-0.054,90.551,-,-0.455
'[09:10:08.408 26/12/1995]',-0.013,0.016,-0.054,93.205,-,-0.410
'[09:10:08.410 26/12/1995]',-0.011,0.016,-0.047,93.205,-,-0.410
'[09:10:08.412 26/12/1995]',-0.008,0.016,-0.047,93.205,-,-0.410
'[09:10:08.414 26/12/1995]',-0.005,0.023,-0.033,93.205,-,-0.410
'[09:10:08.416 26/12/1995]',-0.003,0.008,-0.033,95.209,-,-0.367
'[09:10:08.418 26/12/1995]',-0.001,0.001,-0.027,95.209,-,-0.367
'[09:10:08.420 26/12/1995]',0.001,-0.007,-0.033,95.209,-,-0.367
'[09:10:08.422 26/12/1995]',0.003,-0.007,-0.033,95.209,-,-0.367
'[09:10:08.424 26/12/1995]',0.004,-0.007,-0.033,96.411,-,-0.326
'[09:10:08.426 26/12/1995]',0.005,-0.007,-0.047,96.411,-,-0.326
'[09:10:08.428 26/12/1995]',0.006,-0.007,-0.047,96.411,-,-0.326
'[09:10:08.430 26/12/1995]',0.008,-0.007,-0.033,96.411,-,-0.326
'[09:10:08.432 26/12/1995]',0.009,-0.007,-0.033,97.112,-,-0.287
'[09:10:08.434 26/12/1995]',0.010,-0.007,-0.033,97.112,-,-0.287
'[09:10:08.436 26/12/1995]',0.011,-0.015,-0.033,97.112,-,-0.287
'[09:10:08.438 26/12/1995]',0.012,-0.015,-0.047,97.112,-,-0.287
'[09:10:08.440 26/12/1995]',0.012,-0.030,-0.033,97.312,-,-0.251
'[09:10:08.442 26/12/1995]',0.012,-0.037,-0.027,97.312,-,-0.251
'[09:10:08.444 26/12/1995]',0.013,-0.045,-0.027,97.312,-,-0.251
'[09:10:08.446 26/12/1995]',0.013,-0.037,-0.033,97.312,-,-0.251
'[09:10:08.448 26/12/1995]',0.013,-0.022,-0.033,97.112,-,-0.215
'[09:10:08.450 26/12/1995]',0.013,-0.022,-0.033,97.112,-,-0.215
'[09:10:08.452 26/12/1995]',0.013,-0.022,-0.033,97.112,-,-0.215
'[09:10:08.454 26/12/1995]',0.014,-0.015,-0.033,97.112,-,-0.215
'[09:10:08.456 26/12/1995]',0.014,-0.022,-0.027,96.711,-,-0.181
'[09:10:08.458 26/12/1995]',0.015,-0.022,-0.033,96.711,-,-0.181
'[09:10:08.460 26/12/1995]',0.015,-0.022,-0.033,96.711,-,-0.181
'[09:10:08.462 26/12/1995]',0.015,-0.022,-0.033,96.711,-,-0.181
'[09:10:08.464 26/12/1995]',0.016,-0.030,-0.033,96.060,-,-0.148
'[09:10:08.466 26/12/1995]',0.017,-0.022,-0.027,96.060,-,-0.148
'[09:10:08.468 26/12/1995]',0.018,-0.030,-0.033,96.060,-,-0.148
'[09:10:08.470 26/12/1995]',0.018,-0.030,-0.027,96.060,-,-0.148
'[09:10:08.472 26/12/1995]',0.019,-0.030,-0.027,95.158,-,-0.117
'[09:10:08.474 26/12/1995]',0.019,-0.037,-0.027,95.158,-,-0.117
'[09:10:08.476 26/12/1995]',0.019,-0.030,-0.027,95.158,-,-0.117
'[09:10:08.478 26/12/1995]',0.018,-0.045,-0.027,95.158,-,-0.117
'[09:10:08.480 26/12/1995]',0.018,-0.037,-0.020,93.956,-,-0.086
'[09:10:08.482 26/12/1995]',0.018,-0.037,-0.027,93.956,-,-0.086
'[09:10:08.484 26/12/1995]',0.019,-0.037,-0.020,93.956,-,-0.086
'[09:10:08.486 26/12/1995]',0.019,-0.037,-0.027,93.956,-,-0.086
'[09:10:08.488 26/12/1995]',0.021,-0.037,-0.020,92.454,-,-0.057
'[09:10:08.490 26/12/1995]',0.022,-0.037,-0.020,92.454,-,-0.057
'[09:10:08.492 26/12/1995]',0.024,-0.030,-0.020,92.454,-,-0.057
'[09:10:08.494 26/12/1995]',0.026,-0.037,-0.020,92.454,-,-0.057
'[09:10:08.496 26/12/1995]',0.027,-0.037,-0.020,90.601,-,-0.029
'[09:10:08.498 26/12/1995]',0.028,-0.037,-0.020,90.601,-,-0.029
'[09:10:08.500 26/12/1995]',0.027,-0.045,-0.020,90.601,-,-0.029
'[09:10:08.502 26/12/1995]',0.027,-0.053,-0.020,90.601,-,-0.029
'[09:10:08.504 26/12/1995]',0.025,-0.045,-0.020,88.648,-,-0.003
'[09:10:08.506 26/12/1995]',0.023,-0.037,-0.027,88.648,-,-0.003
'[09:10:08.508 26/12/1995]',0.020,-0.030,-0.020,88.648,-,-0.003
'[09:10:08.510 26/12/1995]',0.017,-0.037,-0.027,88.648,-,-0.003
'[09:10:08.512 26/12/1995]',0.015,-0.030,-0.027,86.344,-0.973,0.021
'[09:10:08.514 26/12/1995]',0.013,-0.030,-0.027,86.344,-0.973,0.021
'[09:10:08.516 26/12/1995]',0.012,-0.022,-0.027,86.344,-0.973,0.021
'[09:10:08.518 26/12/1995]',0.011,-0.022,-0.027,86.344,-0.973,0.021
'[09:10:08.520 26/12/1995]',0.012,-0.015,-0.027,83.890,-0.893,0.039
'[09:10:08.522 26/12/1995]',0.012,-0.022,-0.027,83.890,-0.893,0.039
'[09:10:08.524 26/12/1995]',0.012,-0.022,-0.020,83.890,-0.893,0.039
'[09:10:08.526 26/12/1995]',0.011,-0.022,-0.027,83.890,-0.893,0.039
'[09:10:08.528 26/12/1995]',0.010,-0.022,-0.027,81.235,-0.821,0.053
'[09:10:08.530 26/12/1995]',0.009,-0.015,-0.027,81.235,-0.821,0.053
'[09:10:08.532 26/12/1995]',0.007,-0.015,-0.027,81.235,-0.821,0.053
'[09:10:08.534 26/12/1995]',0.005,-0.022,-0.027,81.235,-0.821,0.053
'[09:10:08.536 26/12/1995]',0.004,-0.015,-0.027,78.531,-0.751,0.063
'[09:10:08.538 26/12/1995]',0.003,-0.015,-0.027,78.531,-0.751,0.063
'[09:10:08.540 26/12/1995]',0.002,-0.007,-0.027,78.531,-0.751,0.063
'[09:10:08.542 26/12/1995]',0.002,-0.007,-0.027,78.531,-0.751,0.063
'[09:10:08.544 26/12/1995]',0.002,-0.007,-0.033,75.826,-0.689,0.070
'[09:10:08.546 26/12/1995]',0.002,0.001,-0.033,75.826,-0.689,0.070
'[09:10:08.548 26/12/1995]',0.001,0.008,-0.027,75.826,-0.689,0.070
'[09:10:08.550 26/12/1995]',0.001,0.001,-0.033,75.826,-0.689,0.070
'[09:10:08.552 26/12/1995]',0.000,0.001,-0.033,73.322,-0.632,0.074
'[09:10:08.554 26/12/1995]',-0.001,-0.007,-0.033,73.322,-0.632,0.074
'[09:10:08.556 26/12/1995]',-0.002,-0.007,-0.047,73.322,-0.632,0.074
'[09:10:08.558 26/12/1995]',-0.003,-0.007,-0.047,73.322,-0.632,0.074
'[09:10:08.560 26/12/1995]',-0.004,-0.007,-0.047,70.968,-0.580,0.075
'[09:10:08.562 26/12/1995]',-0.005,0.001,-0.033,70.968,-0.580,0.075
'[09:10:08.564 26/12/1995]',-0.006,0.001,-0.047,70.968,-0.580,0.075
'[09:10:08.566 26/12/1995]',-0.007,0.001,-0.047,70.968,-0.580,0.075
'[09:10:08.568 26/12/1995]',-0.007,0.001,-0.047,68.915,-0.530,0.074
'[09:10:08.570 26/12/1995]',-0.007,0.001,-0.047,68.915,-0.530,0.074
'[09:10:08.572 26/12/1995]',-0.005,-0.007,-0.033,68.915,-0.530,0.074
'[09:10:08.574 26/12/1995]',-0.004,0.001,-0.033,68.915,-0.530,0.074
'[09:10:08.576 26/12/1995]',-0.001,-0.007,-0.033,67.012,-0.491,0.071
'[09:10:08.578 26/12/1995]',0.002,-0.007,-0.033,67.012,-0.491,0.071
'[09:10:08.580 26/12/1995]',0.005,-0.007,-0.027,67.012,-0.491,0.071
'[09:10:08.582 26/12/1995]',0.009,-0.015,-0.033,67.012,-0.491,0.071
'[09:10:08.584 26/12/1995]',0.012,-0.015,-0.027,65.459,-0.454,0.064
'[09:10:08.586 26/12/1995]',0.015,-0.022,-0.027,65.459,-0.454,0.064
'[09:10:08.588 26/12/1995]',0.017,-0.022,-0.027,65.459,-0.454,0.064
'[09:10:08.590 26/12/1995]',0.019,-0.030,-0.027,65.459,-0.454,0.064
'[09:10:08.592 26/12/1995]',0.020,-0.030,-0.027,64.057,-0.424,0.053
'[09:10:08.594 26/12/1995]',0.021,-0.037,-0.027,64.057,-0.424,0.053
'[09:10:08.596 26/12/1995]',0.021,-0.045,-0.020,64.057,-0.424,0.053
'[09:10:08.598 26/12/1995]',0.021,-0.053,-0.020,64.057,-0.424,0.053
'[09:10:08.600 26/12/1995]',0.020,-0.037,-0.020,62.905,-0.398,0.041
'[09:10:08.602 26/12/1995]',0.019,-0.030,-0.033,62.905,-0.398,0.041
'[09:10:08.604 26/12/1995]',0.019,-0.030,-0.027,62.905,-0.398,0.041
'[09:10:08.606 26/12/1995]',0.018,-0.037,-0.027,62.905,-0.398,0.041
'[09:10:08.608 26/12/1995]',0.019,-0.030,-0.027,61.903,-0.371,0.026
'[09:10:08.610 26/12/1995]',0.019,-0.030,-0.027,61.903,-0.371,0.026
'[09:10:08.612 26/12/1995]',0.020,-0.030,-0.027,61.903,-0.371,0.026
'[09:10:08.614 26/12/1995]',0.021,-0.030,-0.027,61.903,-0.371,0.026
'[09:10:08.616 26/12/1995]',0.022,-0.022,-0.020,61.102,-0.350,0.011
'[09:10:08.618 26/12/1995]',0.022,-0.022,-0.020,61.102,-0.350,0.011
'[09:10:08.620 26/12/1995]',0.021,-0.022,-0.027,61.102,-0.350,0.011
'[09:10:08.622 26/12/1995]',0.021,-0.030,-0.020,61.102,-0.350,0.011
'[09:10:08.624 26/12/1995]',0.019,-0.030,-0.020,60.451,-0.331,-0.005
'[09:10:08.626 26/12/1995]',0.017,-0.030,-0.020,60.451,-0.331,-0.005
'[09:10:08.628 26/12/1995]',0.016,-0.030,-0.020,60.451,-0.331,-0.005
'[09:10:08.630 26/12/1995]',0.016,-0.030,-0.020,60.451,-0.331,-0.005
'[09:10:08.632 26/12/1995]',0.016,-0.022,-0.020,59.900,-0.311,-0.022
'[09:10:08.634 26/12/1995]',0.016,-0.030,-0.027,59.900,-0.311,-0.022
'[09:10:08.636 26/12/1995]',0.015,-0.030,-0.027,59.900,-0.311,-0.022
'[09:10:08.638 26/12/1995]',0.015,-0.015,-0.020,59.900,-0.311,-0.022
'[09:10:08.640 26/12/1995]',0.014,-0.015,-0.020,59.499,-0.291,-0.040
'[09:10:08.642 26/12/1995]',0.014,-0.015,-0.020,59.499,-0.291,-0.040
'[09:10:08.644 26/12/1995]',0.012,-0.015,-0.020,59.499,-0.291,-0.040
'[09:10:08.646 26/12/1995]',0.011,-0.015,-0.020,59.499,-0.291,-0.040
'[09:10:08.648 26/12/1995]',0.010,-0.015,-0.027,59.148,-0.270,-0.059
'[09:10:08.650 26/12/1995]',0.009,-0.022,-0.020,59.148,-0.270,-0.059
'[09:10:08.652 26/12/1995]',0.008,-0.022,-0.027,59.148,-0.270,-0.059
'[09:10:08.654 26/12/1995]',0.008,-0.022,-0.027,59.148,-0.270,-0.059
'[09:10:08.656 26/12/1995]',0.008,-0.015,-0.027,58.848,-0.250,-0.078
'[09:10:08.658 26/12/1995]',0.008,-0.022,-0.027,58.848,-0.250,-0.078
'[09:10:08.660 26/12/1995]',0.009,-0.022,-0.033,58.848,-0.250,-0.078
'[09:10:08.662 26/12/1995]',0.011,-0.030,-0.047,58.848,-0.250,-0.078
'[09:10:08.664 26/12/1995]',0.015,-0.015,-0.047,58.497,-0.231,-0.099
'[09:10:08.666 26/12/1995]',0.018,-0.015,-0.054,58.497,-0.231,-0.099
'[09:10:08.668 26/12/1995]',0.025,-0.007,-0.054,58.497,-0.231,-0.099
'[09:10:08.670 26/12/1995]',0.031,0.001,-0.061,58.497,-0.231,-0.099
'[09:10:08.672 26/12/1995]',0.039,0.001,-0.061,58.197,-0.211,-0.118
'[09:10:08.674 26/12/1995]',0.048,-0.015,-0.054,58.197,-0.211,-0.118
'[09:10:08.676 26/12/1995]',0.059,-0.030,-0.054,58.197,-0.211,-0.118
'[09:10:08.678 26/12/1995]',0.070,-0.053,-0.047,58.197,-0.211,-0.118
'[09:10:08.680 26/12/1995]',0.083,-0.075,-0.047,57.946,-0.192,-0.135
'[09:10:08.682 26/12/1995]',0.097,-0.083,-0.033,57.946,-0.192,-0.135
'[09:10:08.684 26/12/1995]',0.110,-0.098,-0.033,57.946,-0.192,-0.135
'[09:10:08.686 26/12/1995]',0.124,-0.121,-0.027,57.946,-0.192,-0.135
'[09:10:08.688 26/12/1995]',0.137,-0.143,-0.013,57.696,-0.174,-0.150
'[09:10:08.690 26/12/1995]',0.150,-0.159,0.001,57.696,-0.174,-0.150
'[09:10:08.692 26/12/1995]',0.162,-0.174,0.014,57.696,-0.174,-0.150
'[09:10:08.694 26/12/1995]',0.173,-0.212,0.021,57.696,-0.174,-0.150
'[09:10:08.696 26/12/1995]',0.185,-0.219,0.034,57.345,-0.157,-0.164
'[09:10:08.698 26/12/1995]',0.196,-0.227,0.034,57.345,-0.157,-0.164
'[09:10:08.700 26/12/1995]',0.207,-0.242,0.055,57.345,-0.157,-0.164
'[09:10:08.702 26/12/1995]',0.217,-0.272,0.062,57.345,-0.157,-0.164
'[09:10:08.704 26/12/1995]',0.225,-0.287,0.075,56.995,-0.139,-0.175
'[09:10:08.706 26/12/1995]',0.233,-0.310,0.096,56.995,-0.139,-0.175
'[09:10:08.708 26/12/1995]',0.237,-0.348,0.109,56.995,-0.139,-0.175
'[09:10:08.710 26/12/1995]',0.240,-0.363,0.136,56.995,-0.139,-0.175
'[09:10:08.712 26/12/1995]',0.238,-0.378,0.136,56.644,-0.126,-0.186
'[09:10:08.714 26/12/1995]',0.236,-0.393,0.143,56.644,-0.126,-0.186
'[09:10:08.716 26/12/1995]',0.228,-0.386,0.143,56.644,-0.126,-0.186
'[09:10:08.718 26/12/1995]',0.221,-0.378,0.136,56.644,-0.126,-0.186
'[09:10:08.720 26/12/1995]',0.211,-0.355,0.129,56.244,-0.111,-0.195
'[09:10:08.722 26/12/1995]',0.201,-0.325,0.109,56.244,-0.111,-0.195
'[09:10:08.724 26/12/1995]',0.190,-0.318,0.109,56.244,-0.111,-0.195
'[09:10:08.726 26/12/1995]',0.179,-0.310,0.102,56.244,-0.111,-0.195
'[09:10:08.728 26/12/1995]',0.169,-0.295,0.102,55.793,-0.100,-0.203
'[09:10:08.730 26/12/1995]',0.159,-0.295,0.096,55.793,-0.100,-0.203
'[09:10:08.732 26/12/1995]',0.149,-0.295,0.096,55.793,-0.100,-0.203
'[09:10:08.734 26/12/1995]',0.140,-0.272,0.096,55.793,-0.100,-0.203
'[09:10:08.736 26/12/1995]',0.131,-0.249,0.075,55.442,-0.089,-0.210
'[09:10:08.738 26/12/1995]',0.122,-0.227,0.068,55.442,-0.089,-0.210
'[09:10:08.740 26/12/1995]',0.112,-0.212,0.055,55.442,-0.089,-0.210
'[09:10:08.742 26/12/1995]',0.103,-0.212,0.048,55.442,-0.089,-0.210
'[09:10:08.744 26/12/1995]',0.093,-0.189,0.034,55.042,-0.079,-0.216
'[09:10:08.746 26/12/1995]',0.084,-0.174,0.034,55.042,-0.079,-0.216
'[09:10:08.748 26/12/1995]',0.075,-0.159,0.021,55.042,-0.079,-0.216
'[09:10:08.750 26/12/1995]',0.065,-0.143,0.021,55.042,-0.079,-0.216
'[09:10:08.752 26/12/1995]',0.057,-0.121,0.007,54.641,-0.070,-0.222
'[09:10:08.754 26/12/1995]',0.048,-0.106,0.001,54.641,-0.070,-0.222
'[09:10:08.756 26/12/1995]',0.041,-0.091,-0.006,54.641,-0.070,-0.222
'[09:10:08.758 26/12/1995]',0.035,-0.075,-0.006,54.641,-0.070,-0.222
'[09:10:08.760 26/12/1995]',0.030,-0.045,-0.013,54.240,-0.059,-0.227
'[09:10:08.762 26/12/1995]',0.025,-0.030,-0.013,54.240,-0.059,-0.227
'[09:10:08.764 26/12/1995]',0.023,-0.022,-0.020,54.240,-0.059,-0.227
'[09:10:08.766 26/12/1995]',0.021,-0.015,-0.020,54.240,-0.059,-0.227
'[09:10:08.768 26/12/1995]',0.019,-0.015,-0.027,53.840,-0.050,-0.231
'[09:10:08.770 26/12/1995]',0.017,-0.007,-0.020,53.840,-0.050,-0.231
'[09:10:08.772 26/12/1995]',0.016,-0.015,-0.027,53.840,-0.050,-0.231
'[09:10:08.774 26/12/1995]',0.015,-0.015,-0.027,53.840,-0.050,-0.231
'[09:10:08.776 26/12/1995]',0.014,-0.007,-0.033,53.389,-0.043,-0.234
'[09:10:08.778 26/12/1995]',0.013,-0.007,-0.033,53.389,-0.043,-0.234
'[09:10:08.780 26/12/1995]',0.011,0.001,-0.033,53.389,-0.043,-0.234
'[09:10:08.782 26/12/1995]',0.009,-0.007,-0.033,53.389,-0.043,-0.234
'[09:10:08.784 26/12/1995]',0.007,-0.015,-0.027,52.988,-0.035,-0.236
'[09:10:08.786 26/12/1995]',0.005,-0.015,-0.033,52.988,-0.035,-0.236
'[09:10:08.788 26/12/1995]',0.002,0.001,-0.033,52.988,-0.035,-0.236
'[09:10:08.790 26/12/1995]',0.000,0.008,-0.033,52.988,-0.035,-0.236
'[09:10:08.792 26/12/1995]',-0.002,0.023,-0.033,52.588,-0.026,-0.237
'[09:10:08.794 26/12/1995]',-0.004,0.023,-0.047,52.588,-0.026,-0.237
'[09:10:08.796 26/12/1995]',-0.006,0.023,-0.047,52.588,-0.026,-0.237
'[09:10:08.798 26/12/1995]',-0.007,0.023,-0.047,52.588,-0.026,-0.237
'[09:10:08.800 26/12/1995]',-0.008,0.031,-0.054,52.237,-0.018,-0.238
'[09:10:08.802 26/12/1995]',-0.008,0.031,-0.047,52.237,-0.018,-0.238
'[09:10:08.804 26/12/1995]',-0.008,0.031,-0.047,52.237,-0.018,-0.238
'[09:10:08.806 26/12/1995]',-0.008,0.023,-0.033,52.237,-0.018,-0.238
'[09:10:08.808 26/12/1995]',-0.007,0.016,-0.033,51.936,-0.011,-0.237
'[09:10:08.810 26/12/1995]',-0.006,0.023,-0.033,51.936,-0.011,-0.237
'[09:10:08.812 26/12/1995]',-0.006,0.023,-0.033,51.936,-0.011,-0.237
'[09:10:08.814 26/12/1995]',-0.005,0.031,-0.033,51.936,-0.011,-0.237
'[09:10:08.816 26/12/1995]',-0.005,0.031,-0.033,51.686,-0.004,-0.235
'[09:10:08.818 26/12/1995]',-0.005,0.023,-0.033,51.686,-0.004,-0.235
'[09:10:08.820 26/12/1995]',-0.005,0.016,-0.033,51.686,-0.004,-0.235
'[09:10:08.822 26/12/1995]',-0.005,0.023,-0.033,51.686,-0.004,-0.235
'[09:10:08.824 26/12/1995]',-0.006,0.031,-0.033,51.486,0.002,-0.232
'[09:10:08.826 26/12/1995]',-0.007,0.038,-0.047,51.486,0.002,-0.232
'[09:10:08.828 26/12/1995]',-0.009,0.031,-0.033,51.486,0.002,-0.232
'[09:10:08.830 26/12/1995]',-0.010,0.038,-0.033,51.486,0.002,-0.232
'[09:10:08.832 26/12/1995]',-0.011,0.038,-0.033,51.285,0.006,-0.228
'[09:10:08.834 26/12/1995]',-0.012,0.038,-0.033,51.285,0.006,-0.228
'[09:10:08.836 26/12/1995]',-0.014,0.038,-0.033,51.285,0.006,-0.228
'[09:10:08.838 26/12/1995]',-0.015,0.038,-0.047,51.285,0.006,-0.228
'[09:10:08.840 26/12/1995]',-0.015,0.046,-0.047,51.085,0.011,-0.223
'[09:10:08.842 26/12/1995]',-0.016,0.046,-0.047,51.085,0.011,-0.223
'[09:10:08.844 26/12/1995]',-0.016,0.046,-0.033,51.085,0.011,-0.223
'[09:10:08.846 26/12/1995]',-0.017,0.046,-0.033,51.085,0.011,-0.223
'[09:10:08.848 26/12/1995]',-0.017,0.046,-0.033,50.885,0.019,-0.216
'[09:10:08.850 26/12/1995]',-0.018,0.046,-0.033,50.885,0.019,-0.216
'[09:10:08.852 26/12/1995]',-0.019,0.046,-0.047,50.885,0.019,-0.216
'[09:10:08.854 26/12/1995]',-0.019,0.054,-0.047,50.885,0.019,-0.216
'[09:10:08.856 26/12/1995]',-0.021,0.038,-0.033,50.935,0.021,-0.208
'[09:10:08.858 26/12/1995]',-0.022,0.031,-0.033,50.935,0.021,-0.208
'[09:10:08.860 26/12/1995]',-0.023,0.038,-0.027,50.935,0.021,-0.208
'[09:10:08.862 26/12/1995]',-0.024,0.054,-0.047,50.935,0.021,-0.208
'[09:10:08.864 26/12/1995]',-0.025,0.076,-0.047,51.436,0.026,-0.200
'[09:10:08.866 26/12/1995]',-0.026,0.076,-0.047,51.436,0.026,-0.200
'[09:10:08.868 26/12/1995]',-0.026,0.084,-0.047,51.436,0.026,-0.200
'[09:10:08.870 26/12/1995]',-0.026,0.076,-0.047,51.436,0.026,-0.200
'[09:10:08.872 26/12/1995]',-0.027,0.084,-0.047,52.588,0.033,-0.191
'[09:10:08.874 26/12/1995]',-0.027,0.076,-0.047,52.588,0.033,-0.191
'[09:10:08.876 26/12/1995]',-0.027,0.076,-0.033,52.588,0.033,-0.191
'[09:10:08.878 26/12/1995]',-0.027,0.084,-0.033,52.588,0.033,-0.191
'[09:10:08.880 26/12/1995]',-0.027,0.092,-0.033,54.441,0.039,-0.181
'[09:10:08.882 26/12/1995]',-0.028,0.084,-0.033,54.441,0.039,-0.181
'[09:10:08.884 26/12/1995]',-0.028,0.084,-0.033,54.441,0.039,-0.181
'[09:10:08.886 26/12/1995]',-0.028,0.084,-0.047,54.441,0.039,-0.181
'[09:10:08.888 26/12/1995]',-0.028,0.076,-0.047,56.995,0.043,-0.171
'[09:10:08.890 26/12/1995]',-0.028,0.069,-0.054,56.995,0.043,-0.171
'[09:10:08.892 26/12/1995]',-0.027,0.076,-0.047,56.995,0.043,-0.171
'[09:10:08.894 26/12/1995]',-0.026,0.076,-0.047,56.995,0.043,-0.171
'[09:10:08.896 26/12/1995]',-0.025,0.076,-0.047,60.050,0.056,-0.160
'[09:10:08.898 26/12/1995]',-0.025,0.069,-0.047,60.050,0.056,-0.160
'[09:10:08.900 26/12/1995]',-0.023,0.069,-0.047,60.050,0.056,-0.160
'[09:10:08.902 26/12/1995]',-0.022,0.069,-0.047,60.050,0.056,-0.160
'[09:10:08.904 26/12/1995]',-0.020,0.069,-0.047,63.506,0.065,-0.148
'[09:10:08.906 26/12/1995]',-0.019,0.054,-0.033,63.506,0.065,-0.148
'[09:10:08.908 26/12/1995]',-0.017,0.054,-0.033,63.506,0.065,-0.148
'[09:10:08.910 26/12/1995]',-0.015,0.054,-0.047,63.506,0.065,-0.148
'[09:10:08.912 26/12/1995]',-0.012,0.054,-0.047,67.062,0.080,-0.137
'[09:10:08.914 26/12/1995]',-0.010,0.046,-0.047,67.062,0.080,-0.137
'[09:10:08.916 26/12/1995]',-0.007,0.038,-0.047,67.062,0.080,-0.137
'[09:10:08.918 26/12/1995]',-0.005,0.023,-0.047,67.062,0.080,-0.137
'[09:10:08.920 26/12/1995]',-0.003,0.023,-0.047,70.668,0.096,-0.125
'[09:10:08.922 26/12/1995]',-0.002,0.023,-0.033,70.668,0.096,-0.125
'[09:10:08.924 26/12/1995]',-0.001,0.023,-0.033,70.668,0.096,-0.125
'[09:10:08.926 26/12/1995]',0.001,0.016,-0.033,70.668,0.096,-0.125
'[09:10:08.928 26/12/1995]',0.001,0.016,-0.033,74.123,0.115,-0.114
'[09:10:08.930 26/12/1995]',0.002,0.016,-0.033,74.123,0.115,-0.114
'[09:10:08.932 26/12/1995]',0.002,0.023,-0.033,74.123,0.115,-0.114
'[09:10:08.934 26/12/1995]',0.003,0.023,-0.033,74.123,0.115,-0.114
'[09:10:08.936 26/12/1995]',0.005,0.023,-0.033,77.279,0.137,-0.103
'[09:10:08.938 26/12/1995]',0.006,0.016,-0.033,77.279,0.137,-0.103
'[09:10:08.940 26/12/1995]',0.008,0.001,-0.027,77.279,0.137,-0.103
'[09:10:08.942 26/12/1995]',0.010,-0.007,-0.033,77.279,0.137,-0.103
'[09:10:08.944 26/12/1995]',0.012,-0.007,-0.027,80.133,0.161,-0.093
'[09:10:08.946 26/12/1995]',0.015,0.001,-0.020,80.133,0.161,-0.093
'[09:10:08.948 26/12/1995]',0.017,-0.007,-0.027,80.133,0.161,-0.093
'[09:10:08.950 26/12/1995]',0.019,0.001,-0.020,80.133,0.161,-0.093
'[09:10:08.952 26/12/1995]',0.022,0.001,-0.020,82.387,0.182,-0.084
'[09:10:08.954 26/12/1995]',0.024,-0.007,-0.020,82.387,0.182,-0.084
'[09:10:08.956 26/12/1995]',0.027,-0.007,-0.020,82.387,0.182,-0.084
'[09:10:08.958 26/12/1995]',0.029,-0.015,-0.020,82.387,0.182,-0.084
'[09:10:08.960 26/12/1995]',0.031,-0.015,-0.020,84.290,0.204,-0.075
'[09:10:08.962 26/12/1995]',0.033,-0.022,-0.020,84.290,0.204,-0.075
'[09:10:08.964 26/12/1995]',0.035,-0.022,-0.020,84.290,0.204,-0.075
'[09:10:08.966 26/12/1995]',0.036,-0.030,-0.020,84.290,0.204,-0.075
'[09:10:08.968 26/12/1995]',0.036,-0.030,-0.013,85.593,0.228,-0.068
'[09:10:08.970 26/12/1995]',0.036,-0.030,-0.013,85.593,0.228,-0.068
'[09:10:08.972 26/12/1995]',0.035,-0.030,-0.013,85.593,0.228,-0.068
'[09:10:08.974 26/12/1995]',0.035,-0.030,-0.013,85.593,0.228,-0.068
'[09:10:08.976 26/12/1995]',0.036,-0.030,-0.013,86.394,0.252,-0.060
'[09:10:08.978 26/12/1995]',0.036,-0.030,-0.013,86.394,0.252,-0.060
'[09:10:08.980 26/12/1995]',0.038,-0.030,-0.013,86.394,0.252,-0.060
'[09:10:08.982 26/12/1995]',0.039,-0.037,-0.013,86.394,0.252,-0.060
'[09:10:08.984 26/12/1995]',0.042,-0.030,-0.013,86.744,0.271,-0.053
'[09:10:08.986 26/12/1995]',0.044,-0.037,-0.020,86.744,0.271,-0.053
'[09:10:08.988 26/12/1995]',0.044,-0.037,-0.013,86.744,0.271,-0.053
'[09:10:08.990 26/12/1995]',0.045,-0.075,-0.006,86.744,0.271,-0.053
'[09:10:08.992 26/12/1995]',0.044,-0.083,0.001,86.694,0.293,-0.048
'[09:10:08.994 26/12/1995]',0.044,-0.068,0.001,86.694,0.293,-0.048
'[09:10:08.996 26/12/1995]',0.043,-0.037,-0.006,86.694,0.293,-0.048
'[09:10:08.998 26/12/1995]',0.042,-0.037,-0.013,86.694,0.293,-0.048
'[09:10:09.000 26/12/1995]',0.041,-0.030,-0.013,86.344,0.310,-0.045
'[09:10:09.002 26/12/1995]',0.040,-0.030,-0.013,86.344,0.310,-0.045
'[09:10:09.004 26/12/1995]',0.039,-0.037,-0.013,86.344,0.310,-0.045
'[09:10:09.006 26/12/1995]',0.039,-0.045,-0.013,86.344,0.310,-0.045
'[09:10:09.008 26/12/1995]',0.039,-0.037,-0.013,85.643,0.328,-0.044
'[09:10:09.010 26/12/1995]',0.039,-0.045,-0.013,85.643,0.328,-0.044
'[09:10:09.012 26/12/1995]',0.040,-0.037,-0.013,85.643,0.328,-0.044
'[09:10:09.014 26/12/1995]',0.041,-0.037,-0.006,85.643,0.328,-0.044
'[09:10:09.016 26/12/1995]',0.041,-0.037,-0.006,84.641,0.341,-0.046
'[09:10:09.018 26/12/1995]',0.041,-0.045,-0.013,84.641,0.341,-0.046
'[09:10:09.020 26/12/1995]',0.040,-0.037,-0.006,84.641,0.341,-0.046
'[09:10:09.022 26/12/1995]',0.039,-0.045,-0.006,84.641,0.341,-0.046
'[09:10:09.024 26/12/1995]',0.037,-0.053,-0.006,83.239,0.354,-0.049
'[09:10:09.026 26/12/1995]',0.035,-0.045,-0.006,83.239,0.354,-0.049
'[09:10:09.028 26/12/1995]',0.034,-0.037,-0.006,83.239,0.354,-0.049
'[09:10:09.030 26/12/1995]',0.033,-0.037,-0.006,83.239,0.354,-0.049
'[09:10:09.032 26/12/1995]',0.033,-0.037,-0.006,81.386,0.362,-0.051
'[09:10:09.034 26/12/1995]',0.033,-0.030,-0.006,81.386,0.362,-0.051
'[09:10:09.036 26/12/1995]',0.035,-0.022,-0.006,81.386,0.362,-0.051
'[09:10:09.038 26/12/1995]',0.036,-0.022,-0.006,81.386,0.362,-0.051
'[09:10:09.040 26/12/1995]',0.038,-0.037,-0.013,79.232,0.369,-0.051
'[09:10:09.042 26/12/1995]',0.039,-0.037,-0.013,79.232,0.369,-0.051
'[09:10:09.044 26/12/1995]',0.041,-0.037,-0.013,79.232,0.369,-0.051
'[09:10:09.046 26/12/1995]',0.042,-0.037,-0.013,79.232,0.369,-0.051
'[09:10:09.048 26/12/1995]',0.041,-0.037,-0.006,76.828,0.376,-0.051
'[09:10:09.050 26/12/1995]',0.041,-0.037,-0.013,76.828,0.376,-0.051
'[09:10:09.052 26/12/1995]',0.040,-0.037,-0.006,76.828,0.376,-0.051
'[09:10:09.054 26/12/1995]',0.039,-0.045,-0.006,76.828,0.376,-0.051
'[09:10:09.056 26/12/1995]',0.039,-0.030,-0.006,74.224,0.378,-0.052
'[09:10:09.058 26/12/1995]',0.039,-0.037,-0.013,74.224,0.378,-0.052
'[09:10:09.060 26/12/1995]',0.038,-0.030,-0.006,74.224,0.378,-0.052
'[09:10:09.062 26/12/1995]',0.037,-0.030,-0.006,74.224,0.378,-0.052
'[09:10:09.064 26/12/1995]',0.037,-0.030,-0.006,71.769,0.382,-0.056
'[09:10:09.066 26/12/1995]',0.037,-0.022,-0.006,71.769,0.382,-0.056
'[09:10:09.068 26/12/1995]',0.036,-0.030,-0.006,71.769,0.382,-0.056
'[09:10:09.070 26/12/1995]',0.036,-0.030,-0.006,71.769,0.382,-0.056
'[09:10:09.072 26/12/1995]',0.035,-0.030,-0.013,69.416,0.380,-0.060
'[09:10:09.074 26/12/1995]',0.035,-0.030,-0.013,69.416,0.380,-0.060
'[09:10:09.076 26/12/1995]',0.035,-0.030,-0.013,69.416,0.380,-0.060
'[09:10:09.078 26/12/1995]',0.036,-0.030,-0.006,69.416,0.380,-0.060
'[09:10:09.080 26/12/1995]',0.036,-0.030,-0.006,67.262,0.380,-0.066
'[09:10:09.082 26/12/1995]',0.037,-0.030,-0.013,67.262,0.380,-0.066
'[09:10:09.084 26/12/1995]',0.039,-0.030,-0.006,67.262,0.380,-0.066
'[09:10:09.086 26/12/1995]',0.040,-0.030,-0.006,67.262,0.380,-0.066
'[09:10:09.088 26/12/1995]',0.041,-0.030,-0.006,65.309,0.380,-0.073
'[09:10:09.090 26/12/1995]',0.042,-0.037,-0.006,65.309,0.380,-0.073
'[09:10:09.092 26/12/1995]',0.042,-0.037,-0.006,65.309,0.380,-0.073
'[09:10:09.094 26/12/1995]',0.043,-0.045,-0.006,65.309,0.380,-0.073
'[09:10:09.096 26/12/1995]',0.043,-0.037,-0.006,63.606,0.373,-0.081
'[09:10:09.098 26/12/1995]',0.043,-0.030,-0.006,63.606,0.373,-0.081
'[09:10:09.100 26/12/1995]',0.043,-0.037,-0.006,63.606,0.373,-0.081
'[09:10:09.102 26/12/1995]',0.043,-0.045,-0.006,63.606,0.373,-0.081
'[09:10:09.104 26/12/1995]',0.042,-0.068,0.001,62.103,0.367,-0.088
'[09:10:09.106 26/12/1995]',0.041,-0.068,0.001,62.103,0.367,-0.088
'[09:10:09.108 26/12/1995]',0.040,-0.053,-0.006,62.103,0.367,-0.088
'[09:10:09.110 26/12/1995]',0.039,-0.037,-0.006,62.103,0.367,-0.088
'[09:10:09.112 26/12/1995]',0.038,-0.030,-0.006,60.801,0.362,-0.097
'[09:10:09.114 26/12/1995]',0.037,-0.037,-0.013,60.801,0.362,-0.097
'[09:10:09.116 26/12/1995]',0.036,-0.022,-0.006,60.801,0.362,-0.097
'[09:10:09.118 26/12/1995]',0.036,-0.022,-0.013,60.801,0.362,-0.097
'[09:10:09.120 26/12/1995]',0.037,-0.015,-0.013,59.699,0.356,-0.106
'[09:10:09.122 26/12/1995]',0.037,-0.030,-0.013,59.699,0.356,-0.106
'[09:10:09.124 26/12/1995]',0.039,-0.037,-0.006,59.699,0.356,-0.106
'[09:10:09.126 26/12/1995]',0.040,-0.037,-0.013,59.699,0.356,-0.106
'[09:10:09.128 26/12/1995]',0.041,-0.030,-0.013,58.748,0.347,-0.117
'[09:10:09.130 26/12/1995]',0.042,-0.030,-0.013,58.748,0.347,-0.117
'[09:10:09.132 26/12/1995]',0.042,-0.030,-0.006,58.748,0.347,-0.117
'[09:10:09.134 26/12/1995]',0.043,-0.037,-0.006,58.748,0.347,-0.117
'[09:10:09.136 26/12/1995]',0.042,-0.037,-0.006,57.997,0.339,-0.131
'[09:10:09.138 26/12/1995]',0.042,-0.030,-0.013,57.997,0.339,-0.131
'[09:10:09.140 26/12/1995]',0.041,-0.030,-0.013,57.997,0.339,-0.131
'[09:10:09.142 26/12/1995]',0.041,-0.030,-0.013,57.997,0.339,-0.131
'[09:10:09.144 26/12/1995]',0.040,-0.030,-0.006,57.396,0.332,-0.146
'[09:10:09.146 26/12/1995]',0.039,-0.022,-0.013,57.396,0.332,-0.146
'[09:10:09.148 26/12/1995]',0.040,-0.022,-0.006,57.396,0.332,-0.146
'[09:10:09.150 26/12/1995]',0.040,-0.022,-0.006,57.396,0.332,-0.146
'[09:10:09.152 26/12/1995]',0.041,-0.022,-0.006,56.895,0.319,-0.161
'[09:10:09.154 26/12/1995]',0.041,-0.030,-0.006,56.895,0.319,-0.161
'[09:10:09.156 26/12/1995]',0.041,-0.030,-0.006,56.895,0.319,-0.161
'[09:10:09.158 26/12/1995]',0.042,-0.037,-0.006,56.895,0.319,-0.161
'[09:10:09.160 26/12/1995]',0.042,-0.037,-0.006,56.544,0.310,-0.175
'[09:10:09.162 26/12/1995]',0.042,-0.030,-0.006,56.544,0.310,-0.175
'[09:10:09.164 26/12/1995]',0.041,-0.030,-0.013,56.544,0.310,-0.175
'[09:10:09.166 26/12/1995]',0.041,-0.030,-0.006,56.544,0.310,-0.175
'[09:10:09.168 26/12/1995]',0.041,-0.030,-0.006,56.244,0.301,-0.188
'[09:10:09.170 26/12/1995]',0.041,-0.030,-0.013,56.244,0.301,-0.188
'[09:10:09.172 26/12/1995]',0.040,-0.030,-0.013,56.244,0.301,-0.188
'[09:10:09.174 26/12/1995]',0.039,-0.037,-0.006,56.244,0.301,-0.188
'[09:10:09.176 26/12/1995]',0.038,-0.030,-0.006,55.943,0.295,-0.200
'[09:10:09.178 26/12/1995]',0.037,-0.030,-0.013,55.943,0.295,-0.200
'[09:10:09.180 26/12/1995]',0.035,-0.022,-0.006,55.943,0.295,-0.200
'[09:10:09.182 26/12/1995]',0.033,-0.015,-0.013,55.943,0.295,-0.200
'[09:10:09.184 26/12/1995]',0.033,-0.007,-0.013,55.643,0.284,-0.211
'[09:10:09.186 26/12/1995]',0.033,-0.007,-0.013,55.643,0.284,-0.211
'[09:10:09.188 26/12/1995]',0.033,-0.007,-0.013,55.643,0.284,-0.211
'[09:10:09.190 26/12/1995]',0.033,-0.015,-0.013,55.643,0.284,-0.211
'[09:10:09.192 26/12/1995]',0.033,-0.022,-0.013,55.392,0.278,-0.223
'[09:10:09.194 26/12/1995]',0.033,-0.022,-0.013,55.392,0.278,-0.223
'[09:10:09.196 26/12/1995]',0.032,-0.037,-0.013,55.392,0.278,-0.223
'[09:10:09.198 26/12/1995]',0.030,-0.053,-0.013,55.392,0.278,-0.223
'[09:10:09.200 26/12/1995]',0.028,-0.037,-0.013,55.192,0.269,-0.234
'[09:10:09.202 26/12/1995]',0.026,-0.022,-0.027,55.192,0.269,-0.234
'[09:10:09.204 26/12/1995]',0.026,-0.015,-0.033,55.192,0.269,-0.234
'[09:10:09.206 26/12/1995]',0.025,-0.015,-0.033,55.192,0.269,-0.234
'[09:10:09.208 26/12/1995]',0.028,0.001,-0.033,54.941,0.263,-0.244
'[09:10:09.210 26/12/1995]',0.031,0.008,-0.047,54.941,0.263,-0.244
'[09:10:09.212 26/12/1995]',0.038,0.016,-0.033,54.941,0.263,-0.244
'[09:10:09.214 26/12/1995]',0.044,0.008,-0.047,54.941,0.263,-0.244
'[09:10:09.216 26/12/1995]',0.055,0.008,-0.047,54.641,0.256,-0.255
'[09:10:09.218 26/12/1995]',0.065,0.001,-0.047,54.641,0.256,-0.255
'[09:10:09.220 26/12/1995]',0.077,-0.015,-0.047,54.641,0.256,-0.255
'[09:10:09.222 26/12/1995]',0.090,-0.045,-0.033,54.641,0.256,-0.255
'[09:10:09.224 26/12/1995]',0.103,-0.075,-0.027,54.391,0.247,-0.262
'[09:10:09.226 26/12/1995]',0.117,-0.091,-0.027,54.391,0.247,-0.262
'[09:10:09.228 26/12/1995]',0.129,-0.106,-0.013,54.391,0.247,-0.262
'[09:10:09.230 26/12/1995]',0.142,-0.136,-0.006,54.391,0.247,-0.262
'[09:10:09.232 26/12/1995]',0.153,-0.143,0.007,54.090,0.236,-0.267
'[09:10:09.234 26/12/1995]',0.165,-0.159,0.014,54.090,0.236,-0.267
'[09:10:09.236 26/12/1995]',0.176,-0.181,0.028,54.090,0.236,-0.267
'[09:10:09.238 26/12/1995]',0.187,-0.212,0.034,54.090,0.236,-0.267
'[09:10:09.240 26/12/1995]',0.197,-0.212,0.048,53.890,0.232,-0.271
'[09:10:09.242 26/12/1995]',0.207,-0.234,0.055,53.890,0.232,-0.271
'[09:10:09.244 26/12/1995]',0.217,-0.249,0.068,53.890,0.232,-0.271
'[09:10:09.246 26/12/1995]',0.226,-0.272,0.075,53.890,0.232,-0.271
'[09:10:09.248 26/12/1995]',0.233,-0.295,0.096,53.589,0.222,-0.273
'[09:10:09.250 26/12/1995]',0.239,-0.318,0.109,53.589,0.222,-0.273
'[09:10:09.252 26/12/1995]',0.242,-0.348,0.129,53.589,0.222,-0.273
'[09:10:09.254 26/12/1995]',0.244,-0.355,0.143,53.589,0.222,-0.273
'[09:10:09.256 26/12/1995]',0.242,-0.378,0.150,53.239,0.212,-0.274
'[09:10:09.258 26/12/1995]',0.239,-0.378,0.157,53.239,0.212,-0.274
'[09:10:09.260 26/12/1995]',0.233,-0.371,0.150,53.239,0.212,-0.274
'[09:10:09.262 26/12/1995]',0.226,-0.348,0.143,53.239,0.212,-0.274
'[09:10:09.264 26/12/1995]',0.217,-0.325,0.136,52.888,0.202,-0.274
'[09:10:09.266 26/12/1995]',0.208,-0.310,0.129,52.888,0.202,-0.274
'[09:10:09.268 26/12/1995]',0.199,-0.303,0.116,52.888,0.202,-0.274
'[09:10:09.270 26/12/1995]',0.189,-0.295,0.109,52.888,0.202,-0.274
'[09:10:09.272 26/12/1995]',0.180,-0.295,0.102,52.537,0.195,-0.274
'[09:10:09.274 26/12/1995]',0.171,-0.295,0.096,52.537,0.195,-0.274
'[09:10:09.276 26/12/1995]',0.162,-0.280,0.096,52.537,0.195,-0.274
'[09:10:09.278 26/12/1995]',0.153,-0.272,0.089,52.537,0.195,-0.274
'[09:10:09.280 26/12/1995]',0.144,-0.249,0.075,52.187,0.186,-0.273
'[09:10:09.282 26/12/1995]',0.134,-0.234,0.068,52.187,0.186,-0.273
'[09:10:09.284 26/12/1995]',0.124,-0.219,0.062,52.187,0.186,-0.273
'[09:10:09.286 26/12/1995]',0.114,-0.189,0.062,52.187,0.186,-0.273
'[09:10:09.288 26/12/1995]',0.104,-0.181,0.048,51.836,0.178,-0.271
'[09:10:09.290 26/12/1995]',0.095,-0.166,0.048,51.836,0.178,-0.271
'[09:10:09.292 26/12/1995]',0.086,-0.159,0.034,51.836,0.178,-0.271
'[09:10:09.294 26/12/1995]',0.078,-0.136,0.028,51.836,0.178,-0.271
'[09:10:09.296 26/12/1995]',0.071,-0.106,0.014,51.486,0.169,-0.268
'[09:10:09.298 26/12/1995]',0.063,-0.091,0.007,51.486,0.169,-0.268
'[09:10:09.300 26/12/1995]',0.058,-0.083,0.007,51.486,0.169,-0.268
'[09:10:09.302 26/12/1995]',0.052,-0.083,0.007,51.486,0.169,-0.268
'[09:10:09.304 26/12/1995]',0.047,-0.083,0.001,51.185,0.163,-0.264
'[09:10:09.306 26/12/1995]',0.043,-0.053,-0.006,51.185,0.163,-0.264
'[09:10:09.308 26/12/1995]',0.039,-0.030,-0.013,51.185,0.163,-0.264
'[09:10:09.310 26/12/1995]',0.036,-0.015,-0.013,51.185,0.163,-0.264
'[09:10:09.312 26/12/1995]',0.032,0.001,-0.013,50.835,0.152,-0.260
'[09:10:09.314 26/12/1995]',0.029,0.001,-0.013,50.835,0.152,-0.260
'[09:10:09.316 26/12/1995]',0.025,0.001,-0.013,50.835,0.152,-0.260
'[09:10:09.318 26/12/1995]',0.022,-0.007,-0.013,50.835,0.152,-0.260
'[09:10:09.320 26/12/1995]',0.020,-0.007,-0.020,50.534,0.145,-0.257
'[09:10:09.322 26/12/1995]',0.017,0.001,-0.027,50.534,0.145,-0.257
'[09:10:09.324 26/12/1995]',0.016,0.016,-0.020,50.534,0.145,-0.257
'[09:10:09.326 26/12/1995]',0.015,0.008,-0.020,50.534,0.145,-0.257
'[09:10:09.328 26/12/1995]',0.014,0.008,-0.020,50.284,0.139,-0.254
'[09:10:09.330 26/12/1995]',0.014,0.016,-0.020,50.284,0.139,-0.254
'[09:10:09.332 26/12/1995]',0.014,0.023,-0.020,50.284,0.139,-0.254
'[09:10:09.334 26/12/1995]',0.013,0.023,-0.027,50.284,0.139,-0.254
'[09:10:09.336 26/12/1995]',0.012,0.023,-0.033,50.083,0.128,-0.251
'[09:10:09.338 26/12/1995]',0.011,0.008,-0.033,50.083,0.128,-0.251
'[09:10:09.340 26/12/1995]',0.011,0.016,-0.033,50.083,0.128,-0.251
'[09:10:09.342 26/12/1995]',0.010,0.023,-0.033,50.083,0.128,-0.251
'[09:10:09.344 26/12/1995]',0.008,0.023,-0.027,49.833,0.119,-0.248
'[09:10:09.346 26/12/1995]',0.007,0.016,-0.027,49.833,0.119,-0.248
'[09:10:09.348 26/12/1995]',0.006,0.008,-0.027,49.833,0.119,-0.248
'[09:10:09.350 26/12/1995]',0.006,0.016,-0.027,49.833,0.119,-0.248
'[09:10:09.352 26/12/1995]',0.005,0.023,-0.027,49.583,0.111,-0.245
'[09:10:09.354 26/12/1995]',0.005,0.031,-0.027,49.583,0.111,-0.245
'[09:10:09.356 26/12/1995]',0.005,0.038,-0.033,49.583,0.111,-0.245
'[09:10:09.358 26/12/1995]',0.004,0.038,-0.033,49.583,0.111,-0.245
'[09:10:09.360 26/12/1995]',0.004,0.038,-0.020,49.382,0.102,-0.241
'[09:10:09.362 26/12/1995]',0.003,0.031,-0.027,49.382,0.102,-0.241
'[09:10:09.364 26/12/1995]',0.002,0.031,-0.020,49.382,0.102,-0.241
'[09:10:09.366 26/12/1995]',0.002,0.023,-0.020,49.382,0.102,-0.241
'[09:10:09.368 26/12/1995]',0.000,0.031,-0.020,49.232,0.091,-0.236
'[09:10:09.370 26/12/1995]',-0.001,0.031,-0.027,49.232,0.091,-0.236
'[09:10:09.372 26/12/1995]',-0.003,0.038,-0.027,49.232,0.091,-0.236
'[09:10:09.374 26/12/1995]',-0.004,0.046,-0.027,49.232,0.091,-0.236
'[09:10:09.376 26/12/1995]',-0.005,0.046,-0.027,49.182,0.080,-0.231
'[09:10:09.378 26/12/1995]',-0.006,0.054,-0.020,49.182,0.080,-0.231
'[09:10:09.380 26/12/1995]',-0.006,0.046,-0.020,49.182,0.080,-0.231
'[09:10:09.382 26/12/1995]',-0.006,0.046,-0.020,49.182,0.080,-0.231
'[09:10:09.384 26/12/1995]',-0.006,0.046,-0.027,49.432,0.073,-0.225
'[09:10:09.386 26/12/1995]',-0.005,0.046,-0.027,49.432,0.073,-0.225
'[09:10:09.388 26/12/1995]',-0.004,0.054,-0.027,49.432,0.073,-0.225
'[09:10:09.390 26/12/1995]',-0.002,0.054,-0.033,49.432,0.073,-0.225
'[09:10:09.392 26/12/1995]',-0.001,0.054,-0.027,50.083,0.065,-0.218
'[09:10:09.394 26/12/1995]',0.001,0.054,-0.027,50.083,0.065,-0.218
'[09:10:09.396 26/12/1995]',0.001,0.054,-0.027,50.083,0.065,-0.218
'[09:10:09.398 26/12/1995]',0.002,0.054,-0.020,50.083,0.065,-0.218
'[09:10:09.400 26/12/1995]',0.001,0.054,-0.020,51.536,0.056,-0.211
'[09:10:09.402 26/12/1995]',-0.001,0.046,-0.020,51.536,0.056,-0.211
'[09:10:09.404 26/12/1995]',-0.002,0.046,-0.020,51.536,0.056,-0.211
'[09:10:09.406 26/12/1995]',-0.004,0.031,-0.020,51.536,0.056,-0.211
'[09:10:09.408 26/12/1995]',-0.006,0.031,-0.020,53.890,0.050,-0.204
'[09:10:09.410 26/12/1995]',-0.008,0.054,-0.020,53.890,0.050,-0.204
'[09:10:09.412 26/12/1995]',-0.009,0.069,-0.020,53.890,0.050,-0.204
'[09:10:09.414 26/12/1995]',-0.011,0.076,-0.020,53.890,0.050,-0.204
'[09:10:09.416 26/12/1995]',-0.013,0.076,-0.027,57.245,0.048,-0.197
'[09:10:09.418 26/12/1995]',-0.015,0.076,-0.027,57.245,0.048,-0.197
'[09:10:09.420 26/12/1995]',-0.015,0.076,-0.033,57.245,0.048,-0.197
'[09:10:09.422 26/12/1995]',-0.016,0.076,-0.033,57.245,0.048,-0.197
'[09:10:09.424 26/12/1995]',-0.015,0.076,-0.033,61.402,0.048,-0.190
'[09:10:09.426 26/12/1995]',-0.014,0.076,-0.027,61.402,0.048,-0.190
'[09:10:09.428 26/12/1995]',-0.012,0.069,-0.027,61.402,0.048,-0.190
'[09:10:09.430 26/12/1995]',-0.011,0.076,-0.027,61.402,0.048,-0.190
'[09:10:09.432 26/12/1995]',-0.009,0.076,-0.027,65.960,0.052,-0.181
'[09:10:09.434 26/12/1995]',-0.008,0.069,-0.027,65.960,0.052,-0.181
'[09:10:09.436 26/12/1995]',-0.006,0.054,-0.027,65.960,0.052,-0.181
'[09:10:09.438 26/12/1995]',-0.004,0.069,-0.027,65.960,0.052,-0.181
'[09:10:09.440 26/12/1995]',-0.004,0.069,-0.033,70.718,0.060,-0.173
'[09:10:09.442 26/12/1995]',-0.004,0.054,-0.027,70.718,0.060,-0.173
'[09:10:09.444 26/12/1995]',-0.004,0.069,-0.027,70.718,0.060,-0.173
'[09:10:09.446 26/12/1995]',-0.004,0.054,-0.027,70.718,0.060,-0.173
'[09:10:09.448 26/12/1995]',-0.005,0.054,-0.027,75.325,0.073,-0.166
'[09:10:09.450 26/12/1995]',-0.006,0.069,-0.027,75.325,0.073,-0.166
'[09:10:09.452 26/12/1995]',-0.005,0.069,-0.027,75.325,0.073,-0.166
'[09:10:09.454 26/12/1995]',-0.005,0.054,-0.033,75.325,0.073,-0.166
'[09:10:09.456 26/12/1995]',-0.004,0.054,-0.033,79.532,0.093,-0.158
'[09:10:09.458 26/12/1995]',-0.002,0.046,-0.033,79.532,0.093,-0.158
'[09:10:09.460 26/12/1995]',-0.001,0.038,-0.027,79.532,0.093,-0.158
'[09:10:09.462 26/12/1995]',0.001,0.031,-0.033,79.532,0.093,-0.158
'[09:10:09.464 26/12/1995]',0.002,0.038,-0.033,83.339,0.113,-0.149
'[09:10:09.466 26/12/1995]',0.004,0.038,-0.027,83.339,0.113,-0.149
'[09:10:09.468 26/12/1995]',0.005,0.023,-0.027,83.339,0.113,-0.149
'[09:10:09.470 26/12/1995]',0.005,0.023,-0.020,83.339,0.113,-0.149
'[09:10:09.472 26/12/1995]',0.006,0.016,-0.027,86.594,0.137,-0.141
'[09:10:09.474 26/12/1995]',0.008,0.023,-0.020,86.594,0.137,-0.141
'[09:10:09.476 26/12/1995]',0.009,0.023,-0.027,86.594,0.137,-0.141
'[09:10:09.478 26/12/1995]',0.011,0.023,-0.020,86.594,0.137,-0.141
'[09:10:09.480 26/12/1995]',0.012,0.023,-0.027,89.349,0.163,-0.134
'[09:10:09.482 26/12/1995]',0.014,0.023,-0.027,89.349,0.163,-0.134
'[09:10:09.484 26/12/1995]',0.015,0.016,-0.027,89.349,0.163,-0.134
'[09:10:09.486 26/12/1995]',0.016,0.016,-0.027,89.349,0.163,-0.134
'[09:10:09.488 26/12/1995]',0.018,0.008,-0.027,91.452,0.191,-0.128
'[09:10:09.490 26/12/1995]',0.019,0.008,-0.027,91.452,0.191,-0.128
'[09:10:09.492 26/12/1995]',0.021,0.001,-0.020,91.452,0.191,-0.128
'[09:10:09.494 26/12/1995]',0.024,-0.007,-0.027,91.452,0.191,-0.128
'[09:10:09.496 26/12/1995]',0.026,-0.007,-0.020,93.005,0.219,-0.123
'[09:10:09.498 26/12/1995]',0.029,-0.015,-0.013,93.005,0.219,-0.123
'[09:10:09.500 26/12/1995]',0.032,-0.022,-0.006,93.005,0.219,-0.123
'[09:10:09.502 26/12/1995]',0.034,-0.007,-0.006,93.005,0.219,-0.123
'[09:10:09.504 26/12/1995]',0.036,-0.007,-0.006,94.007,0.247,-0.119
'[09:10:09.506 26/12/1995]',0.038,-0.015,-0.006,94.007,0.247,-0.119
'[09:10:09.508 26/12/1995]',0.039,-0.015,-0.013,94.007,0.247,-0.119
'[09:10:09.510 26/12/1995]',0.039,-0.015,-0.013,94.007,0.247,-0.119
'[09:10:09.512 26/12/1995]',0.039,-0.015,-0.020,94.608,0.271,-0.117
'[09:10:09.514 26/12/1995]',0.039,-0.022,-0.013,94.608,0.271,-0.117
'[09:10:09.516 26/12/1995]',0.038,-0.022,-0.013,94.608,0.271,-0.117
'[09:10:09.518 26/12/1995]',0.038,-0.022,-0.013,94.608,0.271,-0.117
'[09:10:09.520 26/12/1995]',0.038,-0.022,-0.013,94.708,0.299,-0.115
'[09:10:09.522 26/12/1995]',0.039,-0.022,-0.013,94.708,0.299,-0.115
'[09:10:09.524 26/12/1995]',0.039,-0.030,-0.013,94.708,0.299,-0.115
'[09:10:09.526 26/12/1995]',0.040,-0.037,-0.013,94.708,0.299,-0.115
'[09:10:09.528 26/12/1995]',0.041,-0.030,-0.006,94.507,0.324,-0.115
'[09:10:09.530 26/12/1995]',0.042,-0.022,-0.006,94.507,0.324,-0.115
'[09:10:09.532 26/12/1995]',0.044,-0.030,-0.006,94.507,0.324,-0.115
'[09:10:09.534 26/12/1995]',0.046,-0.030,-0.006,94.507,0.324,-0.115
'[09:10:09.536 26/12/1995]',0.048,-0.037,-0.013,93.906,0.347,-0.115
'[09:10:09.538 26/12/1995]',0.049,-0.030,-0.006,93.906,0.347,-0.115
'[09:10:09.540 26/12/1995]',0.049,-0.030,-0.006,93.906,0.347,-0.115
'[09:10:09.542 26/12/1995]',0.049,-0.030,-0.006,93.906,0.347,-0.115
'[09:10:09.544 26/12/1995]',0.048,-0.045,0.001,93.005,0.369,-0.117
'[09:10:09.546 26/12/1995]',0.047,-0.068,0.001,93.005,0.369,-0.117
'[09:10:09.548 26/12/1995]',0.046,-0.045,-0.006,93.005,0.369,-0.117
'[09:10:09.550 26/12/1995]',0.045,-0.030,-0.013,93.005,0.369,-0.117
'[09:10:09.552 26/12/1995]',0.044,-0.022,-0.013,91.803,0.389,-0.119
'[09:10:09.554 26/12/1995]',0.043,-0.015,-0.013,91.803,0.389,-0.119
'[09:10:09.556 26/12/1995]',0.042,-0.022,-0.013,91.803,0.389,-0.119
'[09:10:09.558 26/12/1995]',0.041,-0.022,-0.013,91.803,0.389,-0.119
'[09:10:09.560 26/12/1995]',0.040,-0.022,-0.013,90.401,0.404,-0.123
'[09:10:09.562 26/12/1995]',0.039,-0.015,-0.013,90.401,0.404,-0.123
'[09:10:09.564 26/12/1995]',0.039,-0.022,-0.006,90.401,0.404,-0.123
'[09:10:09.566 26/12/1995]',0.039,-0.022,-0.006,90.401,0.404,-0.123
'[09:10:09.568 26/12/1995]',0.039,-0.030,-0.006,88.648,0.419,-0.128
'[09:10:09.570 26/12/1995]',0.039,-0.022,-0.006,88.648,0.419,-0.128
'[09:10:09.572 26/12/1995]',0.039,-0.015,-0.013,88.648,0.419,-0.128
'[09:10:09.574 26/12/1995]',0.039,-0.015,-0.013,88.648,0.419,-0.128
'[09:10:09.576 26/12/1995]',0.039,-0.015,-0.006,86.644,0.430,-0.131
'[09:10:09.578 26/12/1995]',0.039,-0.022,-0.013,86.644,0.430,-0.131
'[09:10:09.580 26/12/1995]',0.040,-0.022,-0.006,86.644,0.430,-0.131
'[09:10:09.582 26/12/1995]',0.040,-0.022,-0.006,86.644,0.430,-0.131
'[09:10:09.584 26/12/1995]',0.041,-0.022,-0.013,84.391,0.439,-0.135
'[09:10:09.586 26/12/1995]',0.041,-0.022,-0.006,84.391,0.439,-0.135
'[09:10:09.588 26/12/1995]',0.042,-0.022,-0.013,84.391,0.439,-0.135
'[09:10:09.590 26/12/1995]',0.042,-0.015,-0.013,84.391,0.439,-0.135
'[09:10:09.592 26/12/1995]',0.042,-0.015,-0.013,81.936,0.443,-0.138
'[09:10:09.594 26/12/1995]',0.043,-0.015,-0.006,81.936,0.443,-0.138
'[09:10:09.596 26/12/1995]',0.042,-0.037,0.001,81.936,0.443,-0.138
'[09:10:09.598 26/12/1995]',0.041,-0.045,0.007,81.936,0.443,-0.138
'[09:10:09.600 26/12/1995]',0.039,-0.030,0.001,79.282,0.445,-0.141
'[09:10:09.602 26/12/1995]',0.038,-0.022,-0.006,79.282,0.445,-0.141
'[09:10:09.604 26/12/1995]',0.035,-0.015,-0.006,79.282,0.445,-0.141
'[09:10:09.606 26/12/1995]',0.033,-0.015,-0.006,79.282,0.445,-0.141
'[09:10:09.608 26/12/1995]',0.031,-0.030,-0.006,76.628,0.447,-0.143
'[09:10:09.610 26/12/1995]',0.029,-0.030,-0.006,76.628,0.447,-0.143
'[09:10:09.612 26/12/1995]',0.027,-0.022,-0.006,76.628,0.447,-0.143
'[09:10:09.614 26/12/1995]',0.025,-0.015,-0.006,76.628,0.447,-0.143
'[09:10:09.616 26/12/1995]',0.025,-0.007,-0.006,74.073,0.445,-0.145
'[09:10:09.618 26/12/1995]',0.025,0.001,-0.006,74.073,0.445,-0.145
'[09:10:09.620 26/12/1995]',0.026,0.001,-0.006,74.073,0.445,-0.145
'[09:10:09.622 26/12/1995]',0.027,0.001,-0.006,74.073,0.445,-0.145
'[09:10:09.624 26/12/1995]',0.029,0.001,-0.006,71.719,0.443,-0.147
'[09:10:09.626 26/12/1995]',0.031,-0.015,-0.006,71.719,0.443,-0.147
'[09:10:09.628 26/12/1995]',0.033,-0.015,-0.006,71.719,0.443,-0.147
'[09:10:09.630 26/12/1995]',0.035,-0.015,-0.006,71.719,0.443,-0.147
'[09:10:09.632 26/12/1995]',0.036,-0.015,-0.006,69.566,0.436,-0.150
'[09:10:09.634 26/12/1995]',0.037,-0.015,-0.013,69.566,0.436,-0.150
'[09:10:09.636 26/12/1995]',0.037,-0.015,-0.006,69.566,0.436,-0.150
'[09:10:09.638 26/12/1995]',0.038,-0.022,-0.020,69.566,0.436,-0.150
'[09:10:09.640 26/12/1995]',0.038,-0.022,-0.013,67.562,0.427,-0.153
'[09:10:09.642 26/12/1995]',0.038,-0.015,-0.013,67.562,0.427,-0.153
'[09:10:09.644 26/12/1995]',0.038,-0.022,-0.006,67.562,0.427,-0.153
'[09:10:09.646 26/12/1995]',0.037,-0.022,-0.013,67.562,0.427,-0.153
'[09:10:09.648 26/12/1995]',0.037,-0.022,-0.013,65.659,0.419,-0.158
'[09:10:09.650 26/12/1995]',0.037,-0.022,-0.013,65.659,0.419,-0.158
'[09:10:09.652 26/12/1995]',0.036,-0.015,-0.013,65.659,0.419,-0.158
'[09:10:09.654 26/12/1995]',0.036,-0.015,-0.013,65.659,0.419,-0.158
'[09:10:09.656 26/12/1995]',0.035,-0.022,-0.013,63.956,0.408,-0.164
'[09:10:09.658 26/12/1995]',0.035,-0.030,-0.013,63.956,0.408,-0.164
'[09:10:09.660 26/12/1995]',0.035,-0.015,-0.006,63.956,0.408,-0.164
'[09:10:09.662 26/12/1995]',0.036,-0.015,-0.013,63.956,0.408,-0.164
'[09:10:09.664 26/12/1995]',0.036,-0.007,-0.013,62.604,0.400,-0.171
'[09:10:09.666 26/12/1995]',0.037,-0.015,-0.013,62.604,0.400,-0.171
'[09:10:09.668 26/12/1995]',0.037,-0.015,-0.006,62.604,0.400,-0.171
'[09:10:09.670 26/12/1995]',0.038,-0.022,-0.013,62.604,0.400,-0.171
'[09:10:09.672 26/12/1995]',0.039,-0.015,-0.013,61.452,0.384,-0.179
'[09:10:09.674 26/12/1995]',0.040,-0.015,-0.006,61.452,0.384,-0.179
'[09:10:09.676 26/12/1995]',0.041,-0.015,-0.013,61.452,0.384,-0.179
'[09:10:09.678 26/12/1995]',0.042,-0.015,-0.006,61.452,0.384,-0.179
'[09:10:09.680 26/12/1995]',0.043,-0.015,-0.013,60.501,0.371,-0.191
'[09:10:09.682 26/12/1995]',0.044,-0.022,-0.013,60.501,0.371,-0.191
'[09:10:09.684 26/12/1995]',0.045,-0.030,-0.006,60.501,0.371,-0.191
'[09:10:09.686 26/12/1995]',0.045,-0.030,-0.006,60.501,0.371,-0.191
'[09:10:09.688 26/12/1995]',0.045,-0.037,-0.006,59.749,0.358,-0.204
'[09:10:09.690 26/12/1995]',0.045,-0.045,-0.006,59.749,0.358,-0.204
'[09:10:09.692 26/12/1995]',0.045,-0.030,-0.006,59.749,0.358,-0.204
'[09:10:09.694 26/12/1995]',0.044,-0.022,-0.006,59.749,0.358,-0.204
'[09:10:09.696 26/12/1995]',0.043,-0.015,-0.006,59.148,0.345,-0.217
'[09:10:09.698 26/12/1995]',0.042,-0.015,-0.006,59.148,0.345,-0.217
'[09:10:09.700 26/12/1995]',0.041,-0.015,-0.006,59.148,0.345,-0.217
'[09:10:09.702 26/12/1995]',0.041,-0.022,-0.006,59.148,0.345,-0.217
'[09:10:09.704 26/12/1995]',0.040,-0.022,-0.006,58.648,0.332,-0.229
'[09:10:09.706 26/12/1995]',0.040,-0.015,-0.013,58.648,0.332,-0.229
'[09:10:09.708 26/12/1995]',0.041,-0.015,-0.013,58.648,0.332,-0.229
'[09:10:09.710 26/12/1995]',0.042,-0.007,-0.013,58.648,0.332,-0.229
'[09:10:09.712 26/12/1995]',0.043,-0.015,-0.013,58.197,0.317,-0.239
'[09:10:09.714 26/12/1995]',0.044,-0.015,-0.013,58.197,0.317,-0.239
'[09:10:09.716 26/12/1995]',0.045,-0.015,-0.013,58.197,0.317,-0.239
'[09:10:09.718 26/12/1995]',0.046,-0.015,-0.013,58.197,0.317,-0.239
'[09:10:09.720 26/12/1995]',0.046,-0.030,-0.006,57.846,0.304,-0.248
'[09:10:09.722 26/12/1995]',0.046,-0.045,-0.006,57.846,0.304,-0.248
'[09:10:09.724 26/12/1995]',0.046,-0.030,-0.006,57.846,0.304,-0.248
'[09:10:09.726 26/12/1995]',0.045,-0.022,-0.006,57.846,0.304,-0.248
'[09:10:09.728 26/12/1995]',0.042,-0.022,-0.006,57.596,0.288,-0.256
'[09:10:09.730 26/12/1995]',0.040,-0.030,0.001,57.596,0.288,-0.256
'[09:10:09.732 26/12/1995]',0.038,-0.022,-0.006,57.596,0.288,-0.256
'[09:10:09.734 26/12/1995]',0.036,-0.007,-0.006,57.596,0.288,-0.256
'[09:10:09.736 26/12/1995]',0.035,0.001,-0.020,57.345,0.276,-0.263
'[09:10:09.738 26/12/1995]',0.035,0.001,-0.013,57.345,0.276,-0.263
'[09:10:09.740 26/12/1995]',0.035,-0.007,-0.013,57.345,0.276,-0.263
'[09:10:09.742 26/12/1995]',0.036,-0.007,-0.006,57.345,0.276,-0.263
'[09:10:09.744 26/12/1995]',0.037,0.001,-0.006,57.095,0.261,-0.269
'[09:10:09.746 26/12/1995]',0.038,-0.007,-0.013,57.095,0.261,-0.269
'[09:10:09.748 26/12/1995]',0.039,-0.007,-0.006,57.095,0.261,-0.269
'[09:10:09.750 26/12/1995]',0.039,-0.015,-0.013,57.095,0.261,-0.269
'[09:10:09.752 26/12/1995]',0.040,-0.015,-0.013,56.895,0.247,-0.275
'[09:10:09.754 26/12/1995]',0.040,-0.015,-0.013,56.895,0.247,-0.275
'[09:10:09.756 26/12/1995]',0.040,-0.007,-0.006,56.895,0.247,-0.275
'[09:10:09.758 26/12/1995]',0.041,-0.022,-0.006,56.895,0.247,-0.275
'[09:10:09.760 26/12/1995]',0.041,-0.022,0.001,56.594,0.234,-0.279
'[09:10:09.762 26/12/1995]',0.041,-0.015,-0.006,56.594,0.234,-0.279
'[09:10:09.764 26/12/1995]',0.041,-0.015,-0.006,56.594,0.234,-0.279
'[09:10:09.766 26/12/1995]',0.042,-0.015,-0.006,56.594,0.234,-0.279
'[09:10:09.768 26/12/1995]',0.044,-0.015,-0.013,56.344,0.222,-0.282
'[09:10:09.770 26/12/1995]',0.045,-0.015,-0.013,56.344,0.222,-0.282
'[09:10:09.772 26/12/1995]',0.047,-0.022,-0.013,56.344,0.222,-0.282
'[09:10:09.774 26/12/1995]',0.048,-0.022,-0.013,56.344,0.222,-0.282
'[09:10:09.776 26/12/1995]',0.049,-0.022,-0.013,56.043,0.208,-0.285
'[09:10:09.778 26/12/1995]',0.049,-0.022,0.001,56.043,0.208,-0.285
'[09:10:09.780 26/12/1995]',0.049,-0.045,0.007,56.043,0.208,-0.285
'[09:10:09.782 26/12/1995]',0.049,-0.053,0.007,56.043,0.208,-0.285
'[09:10:09.784 26/12/1995]',0.049,-0.030,0.001,55.693,0.195,-0.286
'[09:10:09.786 26/12/1995]',0.049,-0.015,-0.006,55.693,0.195,-0.286
'[09:10:09.788 26/12/1995]',0.048,-0.007,-0.013,55.693,0.195,-0.286
'[09:10:09.790 26/12/1995]',0.048,-0.015,-0.013,55.693,0.195,-0.286
'[09:10:09.792 26/12/1995]',0.047,-0.015,-0.006,55.392,0.182,-0.287
'[09:10:09.794 26/12/1995]',0.046,-0.015,-0.006,55.392,0.182,-0.287
'[09:10:09.796 26/12/1995]',0.046,-0.022,-0.006,55.392,0.182,-0.287
'[09:10:09.798 26/12/1995]',0.045,-0.015,-0.006,55.392,0.182,-0.287
'[09:10:09.800 26/12/1995]',0.043,-0.015,-0.006,55.042,0.167,-0.287
'[09:10:09.802 26/12/1995]',0.041,-0.015,-0.006,55.042,0.167,-0.287
'[09:10:09.804 26/12/1995]',0.040,-0.015,-0.013,55.042,0.167,-0.287
'[09:10:09.806 26/12/1995]',0.039,-0.015,-0.013,55.042,0.167,-0.287
'[09:10:09.808 26/12/1995]',0.040,-0.015,-0.006,54.641,0.154,-0.287
'[09:10:09.810 26/12/1995]',0.041,-0.015,0.001,54.641,0.154,-0.287
'[09:10:09.812 26/12/1995]',0.041,-0.015,-0.006,54.641,0.154,-0.287
'[09:10:09.814 26/12/1995]',0.042,-0.015,-0.006,54.641,0.154,-0.287
'[09:10:09.816 26/12/1995]',0.042,-0.015,-0.006,54.290,0.143,-0.286
'[09:10:09.818 26/12/1995]',0.042,-0.022,-0.013,54.290,0.143,-0.286
'[09:10:09.820 26/12/1995]',0.041,-0.015,-0.006,54.290,0.143,-0.286
'[09:10:09.822 26/12/1995]',0.041,-0.015,-0.006,54.290,0.143,-0.286
'[09:10:09.824 26/12/1995]',0.041,-0.015,0.001,53.940,0.130,-0.284
'[09:10:09.826 26/12/1995]',0.041,-0.015,-0.006,53.940,0.130,-0.284
'[09:10:09.828 26/12/1995]',0.041,-0.022,-0.006,53.940,0.130,-0.284
'[09:10:09.830 26/12/1995]',0.042,-0.022,0.001,53.940,0.130,-0.284
'[09:10:09.832 26/12/1995]',0.042,-0.030,0.001,53.589,0.117,-0.283
'[09:10:09.834 26/12/1995]',0.042,-0.030,-0.006,53.589,0.117,-0.283
'[09:10:09.836 26/12/1995]',0.042,-0.022,-0.006,53.589,0.117,-0.283
'[09:10:09.838 26/12/1995]',0.042,-0.015,-0.006,53.589,0.117,-0.283
'[09:10:09.840 26/12/1995]',0.042,-0.022,-0.013,53.289,0.108,-0.281
'[09:10:09.842 26/12/1995]',0.043,-0.022,-0.006,53.289,0.108,-0.281
'[09:10:09.844 26/12/1995]',0.043,-0.022,-0.013,53.289,0.108,-0.281
'[09:10:09.846 26/12/1995]',0.043,-0.022,-0.006,53.289,0.108,-0.281
'[09:10:09.848 26/12/1995]',0.043,-0.022,-0.006,53.038,0.093,-0.279
'[09:10:09.850 26/12/1995]',0.044,-0.022,0.001,53.038,0.093,-0.279
'[09:10:09.852 26/12/1995]',0.045,-0.022,-0.006,53.038,0.093,-0.279
'[09:10:09.854 26/12/1995]',0.046,-0.022,-0.006,53.038,0.093,-0.279
'[09:10:09.856 26/12/1995]',0.048,-0.015,-0.006,52.788,0.085,-0.277
'[09:10:09.858 26/12/1995]',0.050,-0.015,-0.006,52.788,0.085,-0.277
'[09:10:09.860 26/12/1995]',0.053,-0.022,0.001,52.788,0.085,-0.277
'[09:10:09.862 26/12/1995]',0.056,-0.030,0.007,52.788,0.085,-0.277
'[09:10:09.864 26/12/1995]',0.057,-0.022,0.001,52.487,0.070,-0.276
'[09:10:09.866 26/12/1995]',0.059,-0.030,0.001,52.487,0.070,-0.276
'[09:10:09.868 26/12/1995]',0.059,-0.030,0.001,52.487,0.070,-0.276
'[09:10:09.870 26/12/1995]',0.059,-0.030,-0.006,52.487,0.070,-0.276
'[09:10:09.872 26/12/1995]',0.056,-0.030,-0.006,52.137,0.056,-0.276
'[09:10:09.874 26/12/1995]',0.054,-0.045,0.001,52.137,0.056,-0.276
'[09:10:09.876 26/12/1995]',0.051,-0.045,0.001,52.137,0.056,-0.276
'[09:10:09.878 26/12/1995]',0.048,-0.030,-0.006,52.137,0.056,-0.276
'[09:10:09.880 26/12/1995]',0.044,-0.007,0.001,51.786,0.043,-0.276
'[09:10:09.882 26/12/1995]',0.041,-0.007,-0.006,51.786,0.043,-0.276
'[09:10:09.884 26/12/1995]',0.038,0.001,-0.006,51.786,0.043,-0.276
'[09:10:09.886 26/12/1995]',0.035,-0.007,0.001,51.786,0.043,-0.276
'[09:10:09.888 26/12/1995]',0.033,-0.007,-0.006,51.436,0.030,-0.276
'[09:10:09.890 26/12/1995]',0.031,-0.015,-0.006,51.436,0.030,-0.276
'[09:10:09.892 26/12/1995]',0.030,-0.007,-0.006,51.436,0.030,-0.276
'[09:10:09.894 26/12/1995]',0.030,-0.007,-0.020,51.436,0.030,-0.276
'[09:10:09.896 26/12/1995]',0.029,-0.007,-0.013,51.085,0.017,-0.275
'[09:10:09.898 26/12/1995]',0.029,-0.015,-0.013,51.085,0.017,-0.275
'[09:10:09.900 26/12/1995]',0.031,-0.015,-0.006,51.085,0.017,-0.275
'[09:10:09.902 26/12/1995]',0.032,-0.015,-0.013,51.085,0.017,-0.275
'[09:10:09.904 26/12/1995]',0.036,0.001,-0.020,50.835,0.002,-0.273
'[09:10:09.906 26/12/1995]',0.041,0.001,-0.027,50.835,0.002,-0.273
'[09:10:09.908 26/12/1995]',0.048,0.008,-0.033,50.835,0.002,-0.273
'[09:10:09.910 26/12/1995]',0.055,0.016,-0.047,50.835,0.002,-0.273
'[09:10:09.912 26/12/1995]',0.066,0.008,-0.047,50.534,-0.011,-0.270
'[09:10:09.914 26/12/1995]',0.076,-0.007,-0.033,50.534,-0.011,-0.270
'[09:10:09.916 26/12/1995]',0.089,-0.030,-0.027,50.534,-0.011,-0.270
'[09:10:09.918 26/12/1995]',0.102,-0.045,-0.027,50.534,-0.011,-0.270
'[09:10:09.920 26/12/1995]',0.114,-0.075,-0.020,50.284,-0.024,-0.267
'[09:10:09.922 26/12/1995]',0.126,-0.098,-0.013,50.284,-0.024,-0.267
'[09:10:09.924 26/12/1995]',0.138,-0.121,-0.006,50.284,-0.024,-0.267
'[09:10:09.926 26/12/1995]',0.150,-0.143,0.007,50.284,-0.024,-0.267
'[09:10:09.928 26/12/1995]',0.160,-0.151,0.014,50.083,-0.037,-0.265
'[09:10:09.930 26/12/1995]',0.170,-0.159,0.021,50.083,-0.037,-0.265
'[09:10:09.932 26/12/1995]',0.180,-0.159,0.028,50.083,-0.037,-0.265
'[09:10:09.934 26/12/1995]',0.191,-0.181,0.034,50.083,-0.037,-0.265
'[09:10:09.936 26/12/1995]',0.202,-0.212,0.055,49.833,-0.048,-0.264
'[09:10:09.938 26/12/1995]',0.212,-0.227,0.062,49.833,-0.048,-0.264
'[09:10:09.940 26/12/1995]',0.222,-0.234,0.075,49.833,-0.048,-0.264
'[09:10:09.942 26/12/1995]',0.232,-0.242,0.075,49.833,-0.048,-0.264
'[09:10:09.944 26/12/1995]',0.239,-0.272,0.102,49.583,-0.063,-0.264
'[09:10:09.946 26/12/1995]',0.246,-0.303,0.116,49.583,-0.063,-0.264
'[09:10:09.948 26/12/1995]',0.247,-0.325,0.136,49.583,-0.063,-0.264
'[09:10:09.950 26/12/1995]',0.249,-0.348,0.143,49.583,-0.063,-0.264
'[09:10:09.952 26/12/1995]',0.245,-0.355,0.150,49.382,-0.074,-0.265
'[09:10:09.954 26/12/1995]',0.241,-0.355,0.157,49.382,-0.074,-0.265
'[09:10:09.956 26/12/1995]',0.233,-0.340,0.150,49.382,-0.074,-0.265
'[09:10:09.958 26/12/1995]',0.224,-0.318,0.143,49.382,-0.074,-0.265
'[09:10:09.960 26/12/1995]',0.214,-0.303,0.136,49.132,-0.085,-0.265
'[09:10:09.962 26/12/1995]',0.204,-0.287,0.129,49.132,-0.085,-0.265
'[09:10:09.964 26/12/1995]',0.195,-0.287,0.129,49.132,-0.085,-0.265
'[09:10:09.966 26/12/1995]',0.185,-0.280,0.129,49.132,-0.085,-0.265
'[09:10:09.968 26/12/1995]',0.177,-0.257,0.116,48.881,-0.093,-0.266
'[09:10:09.970 26/12/1995]',0.169,-0.242,0.102,48.881,-0.093,-0.266
'[09:10:09.972 26/12/1995]',0.162,-0.234,0.096,48.881,-0.093,-0.266
'[09:10:09.974 26/12/1995]',0.155,-0.227,0.089,48.881,-0.093,-0.266
'[09:10:09.976 26/12/1995]',0.146,-0.212,0.075,48.631,-0.102,-0.266
'[09:10:09.978 26/12/1995]',0.138,-0.204,0.075,48.631,-0.102,-0.266
'[09:10:09.980 26/12/1995]',0.129,-0.181,0.068,48.631,-0.102,-0.266
'[09:10:09.982 26/12/1995]',0.119,-0.166,0.062,48.631,-0.102,-0.266
'[09:10:09.984 26/12/1995]',0.109,-0.166,0.048,48.431,-0.113,-0.267
'[09:10:09.986 26/12/1995]',0.099,-0.151,0.048,48.431,-0.113,-0.267
'[09:10:09.988 26/12/1995]',0.089,-0.136,0.034,48.431,-0.113,-0.267
'[09:10:09.990 26/12/1995]',0.079,-0.106,0.028,48.431,-0.113,-0.267
'[09:10:09.992 26/12/1995]',0.071,-0.091,0.021,48.130,-0.119,-0.267
'[09:10:09.994 26/12/1995]',0.062,-0.068,0.014,48.130,-0.119,-0.267
'[09:10:09.996 26/12/1995]',0.055,-0.045,0.007,48.130,-0.119,-0.267
'[09:10:09.998 26/12/1995]',0.048,-0.022,0.007,48.130,-0.119,-0.267
'[09:10:10.000 26/12/1995]',0.043,-0.015,0.001,47.880,-0.129,-0.268
'[09:10:10.002 26/12/1995]',0.038,0.001,-0.006,47.880,-0.129,-0.268
'[09:10:10.004 26/12/1995]',0.035,0.001,-0.013,47.880,-0.129,-0.268
'[09:10:10.006 26/12/1995]',0.032,0.008,-0.013,47.880,-0.129,-0.268
'[09:10:10.008 26/12/1995]',0.030,0.008,-0.006,47.679,-0.131,-0.268
'[09:10:10.010 26/12/1995]',0.028,0.001,-0.013,47.679,-0.131,-0.268
'[09:10:10.012 26/12/1995]',0.027,0.008,-0.006,47.679,-0.131,-0.268
'[09:10:10.014 26/12/1995]',0.025,0.016,-0.013,47.679,-0.131,-0.268
'[09:10:10.016 26/12/1995]',0.024,0.008,-0.013,47.429,-0.139,-0.269
'[09:10:10.018 26/12/1995]',0.022,0.008,-0.013,47.429,-0.139,-0.269
'[09:10:10.020 26/12/1995]',0.020,0.016,-0.013,47.429,-0.139,-0.269
'[09:10:10.022 26/12/1995]',0.018,0.023,-0.020,47.429,-0.139,-0.269
'[09:10:10.024 26/12/1995]',0.017,0.023,-0.020,47.179,-0.146,-0.271
'[09:10:10.026 26/12/1995]',0.016,0.023,-0.027,47.179,-0.146,-0.271
'[09:10:10.028 26/12/1995]',0.015,0.023,-0.020,47.179,-0.146,-0.271
'[09:10:10.030 26/12/1995]',0.014,0.031,-0.020,47.179,-0.146,-0.271
'[09:10:10.032 26/12/1995]',0.012,0.031,-0.027,47.028,-0.152,-0.274
'[09:10:10.034 26/12/1995]',0.011,0.031,-0.027,47.028,-0.152,-0.274
'[09:10:10.036 26/12/1995]',0.011,0.031,-0.027,47.028,-0.152,-0.274
'[09:10:10.038 26/12/1995]',0.010,0.031,-0.027,47.028,-0.152,-0.274
'[09:10:10.040 26/12/1995]',0.009,0.031,-0.020,46.928,-0.157,-0.278
'[09:10:10.042 26/12/1995]',0.009,0.038,-0.020,46.928,-0.157,-0.278
'[09:10:10.044 26/12/1995]',0.009,0.038,-0.020,46.928,-0.157,-0.278
'[09:10:10.046 26/12/1995]',0.009,0.054,-0.020,46.928,-0.157,-0.278
'[09:10:10.048 26/12/1995]',0.009,0.054,-0.020,46.778,-0.159,-0.282
'[09:10:10.050 26/12/1995]',0.008,0.054,-0.020,46.778,-0.159,-0.282
'[09:10:10.052 26/12/1995]',0.008,0.054,-0.020,46.778,-0.159,-0.282
'[09:10:10.054 26/12/1995]',0.007,0.046,-0.020,46.778,-0.159,-0.282
'[09:10:10.056 26/12/1995]',0.007,0.046,-0.020,46.678,-0.168,-0.286
'[09:10:10.058 26/12/1995]',0.006,0.046,-0.013,46.678,-0.168,-0.286
'[09:10:10.060 26/12/1995]',0.006,0.046,-0.020,46.678,-0.168,-0.286
'[09:10:10.062 26/12/1995]',0.006,0.046,-0.020,46.678,-0.168,-0.286
'[09:10:10.064 26/12/1995]',0.006,0.031,-0.020,46.477,-0.170,-0.290
'[09:10:10.066 26/12/1995]',0.006,0.023,-0.020,46.477,-0.170,-0.290
'[09:10:10.068 26/12/1995]',0.006,0.038,-0.027,46.477,-0.170,-0.290
'[09:10:10.070 26/12/1995]',0.005,0.054,-0.033,46.477,-0.170,-0.290
'[09:10:10.072 26/12/1995]',0.005,0.054,-0.027,46.427,-0.176,-0.293
'[09:10:10.074 26/12/1995]',0.004,0.046,-0.027,46.427,-0.176,-0.293
'[09:10:10.076 26/12/1995]',0.003,0.054,-0.027,46.427,-0.176,-0.293
'[09:10:10.078 26/12/1995]',0.002,0.069,-0.027,46.427,-0.176,-0.293
'[09:10:10.080 26/12/1995]',0.002,0.069,-0.027,46.728,-0.176,-0.295
'[09:10:10.082 26/12/1995]',0.002,0.069,-0.020,46.728,-0.176,-0.295
'[09:10:10.084 26/12/1995]',0.002,0.069,-0.020,46.728,-0.176,-0.295
'[09:10:10.086 26/12/1995]',0.002,0.069,-0.027,46.728,-0.176,-0.295
'[09:10:10.088 26/12/1995]',0.003,0.069,-0.020,47.830,-0.178,-0.298
'[09:10:10.090 26/12/1995]',0.003,0.069,-0.027,47.830,-0.178,-0.298
'[09:10:10.092 26/12/1995]',0.004,0.054,-0.020,47.830,-0.178,-0.298
'[09:10:10.094 26/12/1995]',0.004,0.069,-0.020,47.830,-0.178,-0.298
'[09:10:10.096 26/12/1995]',0.003,0.076,-0.013,49.933,-0.178,-0.300
'[09:10:10.098 26/12/1995]',0.002,0.084,-0.013,49.933,-0.178,-0.300
'[09:10:10.100 26/12/1995]',0.002,0.076,-0.013,49.933,-0.178,-0.300
'[09:10:10.102 26/12/1995]',0.002,0.084,-0.020,49.933,-0.178,-0.300
'[09:10:10.104 26/12/1995]',0.002,0.076,-0.027,53.189,-0.178,-0.302
'[09:10:10.106 26/12/1995]',0.002,0.076,-0.027,53.189,-0.178,-0.302
'[09:10:10.108 26/12/1995]',0.003,0.076,-0.027,53.189,-0.178,-0.302
'[09:10:10.110 26/12/1995]',0.004,0.076,-0.027,53.189,-0.178,-0.302
'[09:10:10.112 26/12/1995]',0.005,0.084,-0.020,57.345,-0.170,-0.302
'[09:10:10.114 26/12/1995]',0.006,0.076,-0.020,57.345,-0.170,-0.302
'[09:10:10.116 26/12/1995]',0.006,0.069,-0.020,57.345,-0.170,-0.302
'[09:10:10.118 26/12/1995]',0.005,0.069,-0.020,57.345,-0.170,-0.302
'[09:10:10.120 26/12/1995]',0.004,0.069,-0.020,62.103,-0.163,-0.300
'[09:10:10.122 26/12/1995]',0.003,0.076,-0.027,62.103,-0.163,-0.300
'[09:10:10.124 26/12/1995]',0.002,0.076,-0.027,62.103,-0.163,-0.300
'[09:10:10.126 26/12/1995]',0.000,0.084,-0.027,62.103,-0.163,-0.300
'[09:10:10.128 26/12/1995]',-0.000,0.076,-0.027,67.162,-0.150,-0.296
'[09:10:10.130 26/12/1995]',-0.001,0.092,-0.027,67.162,-0.150,-0.296
'[09:10:10.132 26/12/1995]',-0.000,0.084,-0.020,67.162,-0.150,-0.296
'[09:10:10.134 26/12/1995]',0.000,0.092,-0.027,67.162,-0.150,-0.296
'[09:10:10.136 26/12/1995]',0.000,0.092,-0.027,72.270,-0.131,-0.290
'[09:10:10.138 26/12/1995]',0.000,0.084,-0.027,72.270,-0.131,-0.290
'[09:10:10.140 26/12/1995]',0.000,0.092,-0.020,72.270,-0.131,-0.290
'[09:10:10.142 26/12/1995]',0.000,0.084,-0.020,72.270,-0.131,-0.290
'[09:10:10.144 26/12/1995]',0.000,0.084,-0.020,77.078,-0.111,-0.283
'[09:10:10.146 26/12/1995]',0.001,0.076,-0.020,77.078,-0.111,-0.283
'[09:10:10.148 26/12/1995]',0.001,0.076,-0.020,77.078,-0.111,-0.283
'[09:10:10.150 26/12/1995]',0.002,0.076,-0.020,77.078,-0.111,-0.283
'[09:10:10.152 26/12/1995]',0.003,0.076,-0.020,81.536,-0.087,-0.277
'[09:10:10.154 26/12/1995]',0.004,0.069,-0.027,81.536,-0.087,-0.277
'[09:10:10.156 26/12/1995]',0.006,0.054,-0.020,81.536,-0.087,-0.277
'[09:10:10.158 26/12/1995]',0.009,0.046,-0.020,81.536,-0.087,-0.277
'[09:10:10.160 26/12/1995]',0.011,0.046,-0.020,85.442,-0.059,-0.271
'[09:10:10.162 26/12/1995]',0.012,0.054,-0.020,85.442,-0.059,-0.271
'[09:10:10.164 26/12/1995]',0.013,0.046,-0.020,85.442,-0.059,-0.271
'[09:10:10.166 26/12/1995]',0.014,0.023,-0.013,85.442,-0.059,-0.271
'[09:10:10.168 26/12/1995]',0.013,0.008,-0.020,88.748,-0.024,-0.265
'[09:10:10.170 26/12/1995]',0.012,0.023,-0.013,88.748,-0.024,-0.265
'[09:10:10.172 26/12/1995]',0.012,0.046,-0.020,88.748,-0.024,-0.265
'[09:10:10.174 26/12/1995]',0.011,0.054,-0.020,88.748,-0.024,-0.265
'[09:10:10.176 26/12/1995]',0.012,0.046,-0.027,91.452,0.006,-0.259
'[09:10:10.178 26/12/1995]',0.012,0.054,-0.020,91.452,0.006,-0.259
'[09:10:10.180 26/12/1995]',0.012,0.046,-0.020,91.452,0.006,-0.259
'[09:10:10.182 26/12/1995]',0.012,0.031,-0.020,91.452,0.006,-0.259
'[09:10:10.184 26/12/1995]',0.013,0.031,-0.020,93.506,0.041,-0.253
'[09:10:10.186 26/12/1995]',0.014,0.031,-0.020,93.506,0.041,-0.253
'[09:10:10.188 26/12/1995]',0.015,0.016,-0.020,93.506,0.041,-0.253
'[09:10:10.190 26/12/1995]',0.017,0.023,-0.013,93.506,0.041,-0.253
'[09:10:10.192 26/12/1995]',0.018,0.016,-0.013,94.908,0.076,-0.247
'[09:10:10.194 26/12/1995]',0.020,0.016,-0.006,94.908,0.076,-0.247
'[09:10:10.196 26/12/1995]',0.022,0.016,-0.006,94.908,0.076,-0.247
'[09:10:10.198 26/12/1995]',0.024,0.016,-0.006,94.908,0.076,-0.247
'[09:10:10.200 26/12/1995]',0.026,0.008,-0.013,95.860,0.111,-0.242
'[09:10:10.202 26/12/1995]',0.028,0.008,-0.013,95.860,0.111,-0.242
'[09:10:10.204 26/12/1995]',0.028,0.001,-0.013,95.860,0.111,-0.242
'[09:10:10.206 26/12/1995]',0.029,0.001,-0.013,95.860,0.111,-0.242
'[09:10:10.208 26/12/1995]',0.030,0.001,-0.013,96.260,0.143,-0.237
'[09:10:10.210 26/12/1995]',0.031,0.001,-0.013,96.260,0.143,-0.237
'[09:10:10.212 26/12/1995]',0.032,-0.007,-0.006,96.260,0.143,-0.237
'[09:10:10.214 26/12/1995]',0.033,0.001,-0.006,96.260,0.143,-0.237
'[09:10:10.216 26/12/1995]',0.034,0.001,-0.006,96.310,0.175,-0.233
'[09:10:10.218 26/12/1995]',0.035,-0.007,-0.013,96.310,0.175,-0.233
'[09:10:10.220 26/12/1995]',0.037,-0.007,-0.013,96.310,0.175,-0.233
'[09:10:10.222 26/12/1995]',0.038,-0.007,-0.013,96.310,0.175,-0.233
'[09:10:10.224 26/12/1995]',0.040,-0.015,-0.013,96.010,0.204,-0.230
'[09:10:10.226 26/12/1995]',0.042,-0.015,-0.006,96.010,0.204,-0.230
'[09:10:10.228 26/12/1995]',0.043,-0.015,-0.006,96.010,0.204,-0.230
'[09:10:10.230 26/12/1995]',0.044,-0.015,-0.006,96.010,0.204,-0.230
'[09:10:10.232 26/12/1995]',0.044,-0.007,-0.006,95.309,0.230,-0.227
'[09:10:10.234 26/12/1995]',0.044,-0.007,-0.013,95.309,0.230,-0.227
'[09:10:10.236 26/12/1995]',0.044,-0.015,-0.013,95.309,0.230,-0.227
'[09:10:10.238 26/12/1995]',0.044,-0.015,-0.013,95.309,0.230,-0.227
'[09:10:10.240 26/12/1995]',0.044,-0.015,-0.013,94.307,0.258,-0.223
'[09:10:10.242 26/12/1995]',0.044,-0.015,-0.006,94.307,0.258,-0.223
'[09:10:10.244 26/12/1995]',0.043,-0.015,-0.006,94.307,0.258,-0.223
'[09:10:10.246 26/12/1995]',0.043,-0.007,-0.006,94.307,0.258,-0.223
'[09:10:10.248 26/12/1995]',0.042,-0.007,-0.006,93.005,0.278,-0.219
'[09:10:10.250 26/12/1995]',0.042,-0.007,-0.006,93.005,0.278,-0.219
'[09:10:10.252 26/12/1995]',0.043,-0.007,-0.013,93.005,0.278,-0.219
'[09:10:10.254 26/12/1995]',0.044,-0.015,-0.013,93.005,0.278,-0.219
'[09:10:10.256 26/12/1995]',0.045,-0.015,-0.013,91.502,0.299,-0.214
'[09:10:10.258 26/12/1995]',0.047,-0.007,-0.006,91.502,0.299,-0.214
'[09:10:10.260 26/12/1995]',0.048,-0.015,-0.013,91.502,0.299,-0.214
'[09:10:10.262 26/12/1995]',0.048,-0.015,-0.013,91.502,0.299,-0.214
'[09:10:10.264 26/12/1995]',0.048,-0.015,-0.006,89.599,0.315,-0.209
'[09:10:10.266 26/12/1995]',0.048,-0.022,0.001,89.599,0.315,-0.209
'[09:10:10.268 26/12/1995]',0.047,-0.037,0.001,89.599,0.315,-0.209
'[09:10:10.270 26/12/1995]',0.045,-0.030,-0.006,89.599,0.315,-0.209
'[09:10:10.272 26/12/1995]',0.044,-0.022,-0.013,87.546,0.332,-0.204
'[09:10:10.274 26/12/1995]',0.042,-0.015,-0.013,87.546,0.332,-0.204
'[09:10:10.276 26/12/1995]',0.041,-0.015,-0.013,87.546,0.332,-0.204
'[09:10:10.278 26/12/1995]',0.040,-0.007,-0.006,87.546,0.332,-0.204
'[09:10:10.280 26/12/1995]',0.039,-0.007,-0.013,85.292,0.343,-0.200
'[09:10:10.282 26/12/1995]',0.039,-0.007,-0.013,85.292,0.343,-0.200
'[09:10:10.284 26/12/1995]',0.039,0.001,-0.013,85.292,0.343,-0.200
'[09:10:10.286 26/12/1995]',0.039,0.008,-0.006,85.292,0.343,-0.200
'[09:10:10.288 26/12/1995]',0.039,0.001,-0.013,82.738,0.354,-0.196
'[09:10:10.290 26/12/1995]',0.039,-0.007,-0.006,82.738,0.354,-0.196
'[09:10:10.292 26/12/1995]',0.038,-0.007,-0.006,82.738,0.354,-0.196
'[09:10:10.294 26/12/1995]',0.037,0.001,-0.006,82.738,0.354,-0.196
'[09:10:10.296 26/12/1995]',0.036,0.008,-0.006,80.133,0.358,-0.193
'[09:10:10.298 26/12/1995]',0.036,0.008,-0.013,80.133,0.358,-0.193
'[09:10:10.300 26/12/1995]',0.036,0.008,-0.013,80.133,0.358,-0.193
'[09:10:10.302 26/12/1995]',0.036,0.001,-0.013,80.133,0.358,-0.193
'[09:10:10.304 26/12/1995]',0.036,0.008,-0.013,77.429,0.358,-0.190
'[09:10:10.306 26/12/1995]',0.037,0.001,-0.013,77.429,0.358,-0.190
'[09:10:10.308 26/12/1995]',0.037,0.001,-0.006,77.429,0.358,-0.190
'[09:10:10.310 26/12/1995]',0.037,0.001,-0.006,77.429,0.358,-0.190
'[09:10:10.312 26/12/1995]',0.036,-0.007,0.001,74.774,0.360,-0.188
'[09:10:10.314 26/12/1995]',0.035,-0.007,0.001,74.774,0.360,-0.188
'[09:10:10.316 26/12/1995]',0.033,0.001,-0.006,74.774,0.360,-0.188
'[09:10:10.318 26/12/1995]',0.031,0.008,-0.013,74.774,0.360,-0.188
'[09:10:10.320 26/12/1995]',0.029,0.001,-0.013,72.320,0.356,-0.185
'[09:10:10.322 26/12/1995]',0.027,0.001,-0.013,72.320,0.356,-0.185
'[09:10:10.324 26/12/1995]',0.025,0.001,-0.013,72.320,0.356,-0.185
'[09:10:10.326 26/12/1995]',0.024,0.008,-0.013,72.320,0.356,-0.185
'[09:10:10.328 26/12/1995]',0.023,0.008,-0.013,70.017,0.349,-0.184
'[09:10:10.330 26/12/1995]',0.022,0.008,-0.020,70.017,0.349,-0.184
'[09:10:10.332 26/12/1995]',0.022,0.008,-0.013,70.017,0.349,-0.184
'[09:10:10.334 26/12/1995]',0.023,0.008,-0.013,70.017,0.349,-0.184
'[09:10:10.336 26/12/1995]',0.023,0.008,-0.013,68.013,0.345,-0.183
'[09:10:10.338 26/12/1995]',0.024,0.008,-0.013,68.013,0.345,-0.183
'[09:10:10.340 26/12/1995]',0.025,0.016,-0.013,68.013,0.345,-0.183
'[09:10:10.342 26/12/1995]',0.026,0.016,-0.013,68.013,0.345,-0.183
'[09:10:10.344 26/12/1995]',0.027,0.008,-0.013,66.210,0.337,-0.185
'[09:10:10.346 26/12/1995]',0.028,0.001,-0.006,66.210,0.337,-0.185
'[09:10:10.348 26/12/1995]',0.028,-0.007,-0.013,66.210,0.337,-0.185
'[09:10:10.350 26/12/1995]',0.028,-0.007,-0.013,66.210,0.337,-0.185
'[09:10:10.352 26/12/1995]',0.028,0.001,-0.013,64.658,0.326,-0.189
'[09:10:10.354 26/12/1995]',0.028,0.001,-0.013,64.658,0.326,-0.189
'[09:10:10.356 26/12/1995]',0.028,0.001,-0.013,64.658,0.326,-0.189
'[09:10:10.358 26/12/1995]',0.028,0.008,-0.013,64.658,0.326,-0.189
'[09:10:10.360 26/12/1995]',0.029,0.008,-0.013,63.305,0.315,-0.194
'[09:10:10.362 26/12/1995]',0.031,0.001,-0.013,63.305,0.315,-0.194
'[09:10:10.364 26/12/1995]',0.033,0.001,-0.013,63.305,0.315,-0.194
'[09:10:10.366 26/12/1995]',0.036,0.001,-0.013,63.305,0.315,-0.194
'[09:10:10.368 26/12/1995]',0.038,-0.007,-0.013,62.153,0.301,-0.200
'[09:10:10.370 26/12/1995]',0.039,-0.007,-0.006,62.153,0.301,-0.200
'[09:10:10.372 26/12/1995]',0.039,-0.015,-0.006,62.153,0.301,-0.200
'[09:10:10.374 26/12/1995]',0.039,-0.007,-0.006,62.153,0.301,-0.200
'[09:10:10.376 26/12/1995]',0.037,-0.015,-0.006,61.202,0.286,-0.206
'[09:10:10.378 26/12/1995]',0.035,-0.037,0.001,61.202,0.286,-0.206
'[09:10:10.380 26/12/1995]',0.034,-0.022,0.001,61.202,0.286,-0.206
'[09:10:10.382 26/12/1995]',0.033,-0.007,-0.013,61.202,0.286,-0.206
'[09:10:10.384 26/12/1995]',0.032,0.008,-0.013,60.451,0.271,-0.213
'[09:10:10.386 26/12/1995]',0.032,0.016,-0.020,60.451,0.271,-0.213
'[09:10:10.388 26/12/1995]',0.033,0.008,-0.020,60.451,0.271,-0.213
'[09:10:10.390 26/12/1995]',0.035,0.001,-0.013,60.451,0.271,-0.213
'[09:10:10.392 26/12/1995]',0.037,0.001,-0.013,59.850,0.258,-0.221
'[09:10:10.394 26/12/1995]',0.039,0.001,-0.013,59.850,0.258,-0.221
'[09:10:10.396 26/12/1995]',0.042,0.001,-0.006,59.850,0.258,-0.221
'[09:10:10.398 26/12/1995]',0.044,0.001,-0.006,59.850,0.258,-0.221
'[09:10:10.400 26/12/1995]',0.044,-0.007,-0.006,59.399,0.243,-0.229
'[09:10:10.402 26/12/1995]',0.044,-0.007,-0.006,59.399,0.243,-0.229
'[09:10:10.404 26/12/1995]',0.043,-0.015,0.001,59.399,0.243,-0.229
'[09:10:10.406 26/12/1995]',0.043,-0.015,-0.006,59.399,0.243,-0.229
'[09:10:10.408 26/12/1995]',0.042,-0.015,0.001,58.998,0.226,-0.238
'[09:10:10.410 26/12/1995]',0.041,-0.015,-0.006,58.998,0.226,-0.238
'[09:10:10.412 26/12/1995]',0.040,0.001,-0.006,58.998,0.226,-0.238
'[09:10:10.414 26/12/1995]',0.039,0.001,-0.006,58.998,0.226,-0.238
'[09:10:10.416 26/12/1995]',0.038,0.001,-0.006,58.698,0.212,-0.248
'[09:10:10.418 26/12/1995]',0.038,0.001,-0.006,58.698,0.212,-0.248
'[09:10:10.420 26/12/1995]',0.038,-0.007,-0.013,58.698,0.212,-0.248
'[09:10:10.422 26/12/1995]',0.039,-0.007,-0.013,58.698,0.212,-0.248
'[09:10:10.424 26/12/1995]',0.039,0.001,-0.006,58.397,0.200,-0.259
'[09:10:10.426 26/12/1995]',0.039,-0.007,-0.006,58.397,0.200,-0.259
'[09:10:10.428 26/12/1995]',0.039,-0.007,-0.006,58.397,0.200,-0.259
'[09:10:10.430 26/12/1995]',0.039,-0.007,-0.006,58.397,0.200,-0.259
'[09:10:10.432 26/12/1995]',0.040,-0.007,-0.006,58.147,0.184,-0.269
'[09:10:10.434 26/12/1995]',0.040,-0.007,-0.006,58.147,0.184,-0.269
'[09:10:10.436 26/12/1995]',0.041,-0.007,-0.006,58.147,0.184,-0.269
'[09:10:10.438 26/12/1995]',0.041,-0.007,-0.006,58.147,0.184,-0.269
'[09:10:10.440 26/12/1995]',0.041,-0.007,-0.013,57.997,0.172,-0.278
'[09:10:10.442 26/12/1995]',0.042,-0.007,-0.006,57.997,0.172,-0.278
'[09:10:10.444 26/12/1995]',0.042,-0.007,-0.006,57.997,0.172,-0.278
'[09:10:10.446 26/12/1995]',0.042,-0.007,-0.006,57.997,0.172,-0.278
'[09:10:10.448 26/12/1995]',0.041,-0.007,-0.006,57.796,0.159,-0.284
'[09:10:10.450 26/12/1995]',0.041,-0.007,-0.013,57.796,0.159,-0.284
'[09:10:10.452 26/12/1995]',0.041,-0.007,-0.013,57.796,0.159,-0.284
'[09:10:10.454 26/12/1995]',0.042,-0.007,-0.013,57.796,0.159,-0.284
'[09:10:10.456 26/12/1995]',0.043,0.001,-0.006,57.696,0.145,-0.289
'[09:10:10.458 26/12/1995]',0.044,0.001,-0.006,57.696,0.145,-0.289
'[09:10:10.460 26/12/1995]',0.046,0.001,-0.006,57.696,0.145,-0.289
'[09:10:10.462 26/12/1995]',0.048,0.001,0.001,57.696,0.145,-0.289
'[09:10:10.464 26/12/1995]',0.049,-0.007,-0.006,57.496,0.132,-0.294
'[09:10:10.466 26/12/1995]',0.050,-0.007,-0.006,57.496,0.132,-0.294
'[09:10:10.468 26/12/1995]',0.052,-0.007,-0.013,57.496,0.132,-0.294
'[09:10:10.470 26/12/1995]',0.053,-0.007,-0.006,57.496,0.132,-0.294
'[09:10:10.472 26/12/1995]',0.053,-0.015,-0.006,57.245,0.117,-0.299
'[09:10:10.474 26/12/1995]',0.053,-0.007,-0.006,57.245,0.117,-0.299
'[09:10:10.476 26/12/1995]',0.052,-0.007,0.001,57.245,0.117,-0.299
'[09:10:10.478 26/12/1995]',0.050,0.001,0.001,57.245,0.117,-0.299
'[09:10:10.480 26/12/1995]',0.049,-0.015,0.007,56.795,0.106,-0.304
'[09:10:10.482 26/12/1995]',0.047,-0.022,0.007,56.795,0.106,-0.304
'[09:10:10.484 26/12/1995]',0.046,-0.015,0.001,56.795,0.106,-0.304
'[09:10:10.486 26/12/1995]',0.045,-0.007,-0.006,56.795,0.106,-0.304
'[09:10:10.488 26/12/1995]',0.045,-0.007,-0.006,56.394,0.093,-0.309
'[09:10:10.490 26/12/1995]',0.045,0.001,0.001,56.394,0.093,-0.309
'[09:10:10.492 26/12/1995]',0.045,0.001,-0.006,56.394,0.093,-0.309
'[09:10:10.494 26/12/1995]',0.046,0.001,0.001,56.394,0.093,-0.309
'[09:10:10.496 26/12/1995]',0.046,0.001,0.001,55.993,0.083,-0.315
'[09:10:10.498 26/12/1995]',0.046,-0.007,-0.006,55.993,0.083,-0.315
'[09:10:10.500 26/12/1995]',0.046,-0.007,0.001,55.993,0.083,-0.315
'[09:10:10.502 26/12/1995]',0.046,-0.007,0.001,55.993,0.083,-0.315
'[09:10:10.504 26/12/1995]',0.045,0.001,-0.006,55.643,0.067,-0.321
'[09:10:10.506 26/12/1995]',0.044,0.001,-0.006,55.643,0.067,-0.321
'[09:10:10.508 26/12/1995]',0.043,0.001,-0.006,55.643,0.067,-0.321
'[09:10:10.510 26/12/1995]',0.041,-0.007,0.001,55.643,0.067,-0.321
'[09:10:10.512 26/12/1995]',0.039,0.001,0.001,55.242,0.059,-0.327
'[09:10:10.514 26/12/1995]',0.037,0.008,0.001,55.242,0.059,-0.327
'[09:10:10.516 26/12/1995]',0.035,0.001,0.001,55.242,0.059,-0.327
'[09:10:10.518 26/12/1995]',0.033,-0.007,0.001,55.242,0.059,-0.327
'[09:10:10.520 26/12/1995]',0.032,0.001,-0.006,54.891,0.045,-0.334
'[09:10:10.522 26/12/1995]',0.031,0.001,-0.013,54.891,0.045,-0.334
'[09:10:10.524 26/12/1995]',0.031,0.001,-0.013,54.891,0.045,-0.334
'[09:10:10.526 26/12/1995]',0.031,-0.007,-0.020,54.891,0.045,-0.334
'[09:10:10.528 26/12/1995]',0.033,0.008,-0.020,54.541,0.035,-0.341
'[09:10:10.530 26/12/1995]',0.035,0.016,-0.027,54.541,0.035,-0.341
'[09:10:10.532 26/12/1995]',0.041,0.023,-0.033,54.541,0.035,-0.341
'[09:10:10.534 26/12/1995]',0.047,0.031,-0.033,54.541,0.035,-0.341
'[09:10:10.536 26/12/1995]',0.057,0.031,-0.047,54.190,0.024,-0.345
'[09:10:10.538 26/12/1995]',0.066,0.016,-0.047,54.190,0.024,-0.345
'[09:10:10.540 26/12/1995]',0.079,0.001,-0.033,54.190,0.024,-0.345
'[09:10:10.542 26/12/1995]',0.092,-0.015,-0.027,54.190,0.024,-0.345
'[09:10:10.544 26/12/1995]',0.105,-0.037,-0.020,53.840,0.017,-0.347
'[09:10:10.546 26/12/1995]',0.118,-0.068,-0.013,53.840,0.017,-0.347
'[09:10:10.548 26/12/1995]',0.131,-0.083,-0.013,53.840,0.017,-0.347
'[09:10:10.550 26/12/1995]',0.143,-0.106,-0.006,53.840,0.017,-0.347
'[09:10:10.552 26/12/1995]',0.154,-0.121,0.007,53.489,0.006,-0.348
'[09:10:10.554 26/12/1995]',0.165,-0.151,0.014,53.489,0.006,-0.348
'[09:10:10.556 26/12/1995]',0.176,-0.166,0.028,53.489,0.006,-0.348
'[09:10:10.558 26/12/1995]',0.187,-0.181,0.034,53.489,0.006,-0.348
'[09:10:10.560 26/12/1995]',0.198,-0.204,0.048,53.189,-0.004,-0.349
'[09:10:10.562 26/12/1995]',0.210,-0.212,0.062,53.189,-0.004,-0.349
'[09:10:10.564 26/12/1995]',0.221,-0.227,0.068,53.189,-0.004,-0.349
'[09:10:10.566 26/12/1995]',0.232,-0.234,0.089,53.189,-0.004,-0.349
'[09:10:10.568 26/12/1995]',0.242,-0.257,0.096,52.838,-0.013,-0.352
'[09:10:10.570 26/12/1995]',0.251,-0.295,0.109,52.838,-0.013,-0.352
'[09:10:10.572 26/12/1995]',0.256,-0.325,0.136,52.838,-0.013,-0.352
'[09:10:10.574 26/12/1995]',0.261,-0.355,0.143,52.838,-0.013,-0.352
'[09:10:10.576 26/12/1995]',0.259,-0.378,0.157,52.537,-0.022,-0.355
'[09:10:10.578 26/12/1995]',0.256,-0.386,0.164,52.537,-0.022,-0.355
'[09:10:10.580 26/12/1995]',0.248,-0.378,0.177,52.537,-0.022,-0.355
'[09:10:10.582 26/12/1995]',0.239,-0.363,0.157,52.537,-0.022,-0.355
'[09:10:10.584 26/12/1995]',0.228,-0.325,0.157,52.237,-0.029,-0.359
'[09:10:10.586 26/12/1995]',0.217,-0.310,0.143,52.237,-0.029,-0.359
'[09:10:10.588 26/12/1995]',0.207,-0.287,0.129,52.237,-0.029,-0.359
'[09:10:10.590 26/12/1995]',0.197,-0.280,0.129,52.237,-0.029,-0.359
'[09:10:10.592 26/12/1995]',0.189,-0.272,0.116,51.987,-0.042,-0.363
'[09:10:10.594 26/12/1995]',0.180,-0.249,0.109,51.987,-0.042,-0.363
'[09:10:10.596 26/12/1995]',0.173,-0.242,0.102,51.987,-0.042,-0.363
'[09:10:10.598 26/12/1995]',0.165,-0.242,0.102,51.987,-0.042,-0.363
'[09:10:10.600 26/12/1995]',0.157,-0.234,0.096,51.786,-0.050,-0.366
'[09:10:10.602 26/12/1995]',0.150,-0.234,0.075,51.786,-0.050,-0.366
'[09:10:10.604 26/12/1995]',0.141,-0.204,0.075,51.786,-0.050,-0.366
'[09:10:10.606 26/12/1995]',0.132,-0.189,0.068,51.786,-0.050,-0.366
'[09:10:10.608 26/12/1995]',0.123,-0.174,0.062,51.536,-0.059,-0.368
'[09:10:10.610 26/12/1995]',0.113,-0.159,0.055,51.536,-0.059,-0.368
'[09:10:10.612 26/12/1995]',0.103,-0.143,0.048,51.536,-0.059,-0.368
'[09:10:10.614 26/12/1995]',0.093,-0.121,0.028,51.536,-0.059,-0.368
'[09:10:10.616 26/12/1995]',0.083,-0.106,0.028,51.285,-0.070,-0.370
'[09:10:10.618 26/12/1995]',0.074,-0.106,0.021,51.285,-0.070,-0.370
'[09:10:10.620 26/12/1995]',0.067,-0.083,0.021,51.285,-0.070,-0.370
'[09:10:10.622 26/12/1995]',0.059,-0.037,0.007,51.285,-0.070,-0.370
'[09:10:10.624 26/12/1995]',0.053,-0.030,0.001,51.085,-0.079,-0.371
'[09:10:10.626 26/12/1995]',0.048,-0.022,0.001,51.085,-0.079,-0.371
'[09:10:10.628 26/12/1995]',0.044,-0.007,-0.006,51.085,-0.079,-0.371
'[09:10:10.630 26/12/1995]',0.040,0.001,-0.013,51.085,-0.079,-0.371
'[09:10:10.632 26/12/1995]',0.038,0.016,-0.013,50.835,-0.089,-0.373
'[09:10:10.634 26/12/1995]',0.036,0.023,-0.013,50.835,-0.089,-0.373
'[09:10:10.636 26/12/1995]',0.033,0.023,-0.020,50.835,-0.089,-0.373
'[09:10:10.638 26/12/1995]',0.031,0.023,-0.013,50.835,-0.089,-0.373
'[09:10:10.640 26/12/1995]',0.029,0.023,-0.020,50.634,-0.096,-0.375
'[09:10:10.642 26/12/1995]',0.026,0.031,-0.020,50.634,-0.096,-0.375
'[09:10:10.644 26/12/1995]',0.024,0.023,-0.013,50.634,-0.096,-0.375
'[09:10:10.646 26/12/1995]',0.022,0.023,-0.013,50.634,-0.096,-0.375
'[09:10:10.648 26/12/1995]',0.020,0.031,-0.020,50.484,-0.104,-0.378
'[09:10:10.650 26/12/1995]',0.017,0.046,-0.027,50.484,-0.104,-0.378
'[09:10:10.652 26/12/1995]',0.016,0.054,-0.020,50.484,-0.104,-0.378
'[09:10:10.654 26/12/1995]',0.015,0.069,-0.020,50.484,-0.104,-0.378
'[09:10:10.656 26/12/1995]',0.015,0.054,-0.020,50.284,-0.113,-0.380
'[09:10:10.658 26/12/1995]',0.015,0.046,-0.020,50.284,-0.113,-0.380
'[09:10:10.660 26/12/1995]',0.015,0.046,-0.020,50.284,-0.113,-0.380
'[09:10:10.662 26/12/1995]',0.015,0.046,-0.020,50.284,-0.113,-0.380
'[09:10:10.664 26/12/1995]',0.015,0.046,-0.020,50.083,-0.119,-0.380
'[09:10:10.666 26/12/1995]',0.015,0.046,-0.020,50.083,-0.119,-0.380
'[09:10:10.668 26/12/1995]',0.015,0.038,-0.027,50.083,-0.119,-0.380
'[09:10:10.670 26/12/1995]',0.015,0.046,-0.027,50.083,-0.119,-0.380
'[09:10:10.672 26/12/1995]',0.014,0.046,-0.027,49.783,-0.129,-0.380
'[09:10:10.674 26/12/1995]',0.014,0.046,-0.020,49.783,-0.129,-0.380
'[09:10:10.676 26/12/1995]',0.014,0.054,-0.020,49.783,-0.129,-0.380
'[09:10:10.678 26/12/1995]',0.013,0.054,-0.020,49.783,-0.129,-0.380
'[09:10:10.680 26/12/1995]',0.012,0.069,-0.013,49.432,-0.137,-0.378
'[09:10:10.682 26/12/1995]',0.011,0.054,-0.020,49.432,-0.137,-0.378
'[09:10:10.684 26/12/1995]',0.011,0.054,-0.020,49.432,-0.137,-0.378
'[09:10:10.686 26/12/1995]',0.010,0.054,-0.020,49.432,-0.137,-0.378
'[09:10:10.688 26/12/1995]',0.009,0.069,-0.020,49.182,-0.143,-0.376
'[09:10:10.690 26/12/1995]',0.008,0.069,-0.020,49.182,-0.143,-0.376
'[09:10:10.692 26/12/1995]',0.008,0.054,-0.020,49.182,-0.143,-0.376
'[09:10:10.694 26/12/1995]',0.008,0.069,-0.020,49.182,-0.143,-0.376
'[09:10:10.696 26/12/1995]',0.008,0.076,-0.020,49.032,-0.148,-0.375
'[09:10:10.698 26/12/1995]',0.008,0.076,-0.013,49.032,-0.148,-0.375
'[09:10:10.700 26/12/1995]',0.007,0.076,-0.013,49.032,-0.148,-0.375
'[09:10:10.702 26/12/1995]',0.007,0.076,-0.020,49.032,-0.148,-0.375
'[09:10:10.704 26/12/1995]',0.006,0.069,-0.013,49.032,-0.152,-0.375
'[09:10:10.706 26/12/1995]',0.006,0.069,-0.013,49.032,-0.152,-0.375
'[09:10:10.708 26/12/1995]',0.005,0.069,-0.013,49.032,-0.152,-0.375
'[09:10:10.710 26/12/1995]',0.005,0.069,-0.020,49.032,-0.152,-0.375
'[09:10:10.712 26/12/1995]',0.004,0.076,-0.020,49.382,-0.154,-0.376
'[09:10:10.714 26/12/1995]',0.004,0.084,-0.020,49.382,-0.154,-0.376
'[09:10:10.716 26/12/1995]',0.002,0.084,-0.020,49.382,-0.154,-0.376
'[09:10:10.718 26/12/1995]',0.001,0.084,-0.020,49.382,-0.154,-0.376
'[09:10:10.720 26/12/1995]',0.000,0.076,-0.020,50.284,-0.159,-0.376
'[09:10:10.722 26/12/1995]',-0.001,0.076,-0.020,50.284,-0.159,-0.376
'[09:10:10.724 26/12/1995]',-0.002,0.084,-0.020,50.284,-0.159,-0.376
'[09:10:10.726 26/12/1995]',-0.003,0.092,-0.020,50.284,-0.159,-0.376
'[09:10:10.728 26/12/1995]',-0.005,0.092,-0.020,52.037,-0.159,-0.376
'[09:10:10.730 26/12/1995]',-0.006,0.092,-0.020,52.037,-0.159,-0.376
'[09:10:10.732 26/12/1995]',-0.008,0.099,-0.020,52.037,-0.159,-0.376
'[09:10:10.734 26/12/1995]',-0.010,0.099,-0.027,52.037,-0.159,-0.376
'[09:10:10.736 26/12/1995]',-0.012,0.107,-0.027,54.841,-0.159,-0.376
'[09:10:10.738 26/12/1995]',-0.013,0.092,-0.027,54.841,-0.159,-0.376
'[09:10:10.740 26/12/1995]',-0.014,0.092,-0.027,54.841,-0.159,-0.376
'[09:10:10.742 26/12/1995]',-0.016,0.099,-0.027,54.841,-0.159,-0.376
'[09:10:10.744 26/12/1995]',-0.016,0.107,-0.027,58.347,-0.154,-0.374
'[09:10:10.746 26/12/1995]',-0.017,0.114,-0.027,58.347,-0.154,-0.374
'[09:10:10.748 26/12/1995]',-0.017,0.114,-0.027,58.347,-0.154,-0.374
'[09:10:10.750 26/12/1995]',-0.018,0.122,-0.027,58.347,-0.154,-0.374
'[09:10:10.752 26/12/1995]',-0.018,0.122,-0.033,62.454,-0.150,-0.373
'[09:10:10.754 26/12/1995]',-0.018,0.114,-0.047,62.454,-0.150,-0.373
'[09:10:10.756 26/12/1995]',-0.018,0.107,-0.033,62.454,-0.150,-0.373
'[09:10:10.758 26/12/1995]',-0.017,0.107,-0.047,62.454,-0.150,-0.373
'[09:10:10.760 26/12/1995]',-0.015,0.107,-0.033,66.861,-0.139,-0.371
'[09:10:10.762 26/12/1995]',-0.014,0.099,-0.027,66.861,-0.139,-0.371
'[09:10:10.764 26/12/1995]',-0.011,0.099,-0.027,66.861,-0.139,-0.371
'[09:10:10.766 26/12/1995]',-0.009,0.107,-0.027,66.861,-0.139,-0.371
'[09:10:10.768 26/12/1995]',-0.007,0.107,-0.027,71.269,-0.124,-0.369
'[09:10:10.770 26/12/1995]',-0.005,0.099,-0.033,71.269,-0.124,-0.369
'[09:10:10.772 26/12/1995]',-0.003,0.092,-0.033,71.269,-0.124,-0.369
'[09:10:10.774 26/12/1995]',-0.002,0.092,-0.033,71.269,-0.124,-0.369
'[09:10:10.776 26/12/1995]',-0.001,0.092,-0.033,75.576,-0.109,-0.367
'[09:10:10.778 26/12/1995]',0.000,0.092,-0.033,75.576,-0.109,-0.367
'[09:10:10.780 26/12/1995]',0.001,0.099,-0.033,75.576,-0.109,-0.367
'[09:10:10.782 26/12/1995]',0.001,0.092,-0.033,75.576,-0.109,-0.367
'[09:10:10.784 26/12/1995]',0.002,0.092,-0.033,79.633,-0.089,-0.363
'[09:10:10.786 26/12/1995]',0.004,0.084,-0.033,79.633,-0.089,-0.363
'[09:10:10.788 26/12/1995]',0.005,0.076,-0.027,79.633,-0.089,-0.363
'[09:10:10.790 26/12/1995]',0.006,0.069,-0.027,79.633,-0.089,-0.363
'[09:10:10.792 26/12/1995]',0.007,0.069,-0.027,83.289,-0.061,-0.358
'[09:10:10.794 26/12/1995]',0.008,0.069,-0.033,83.289,-0.061,-0.358
'[09:10:10.796 26/12/1995]',0.009,0.054,-0.027,83.289,-0.061,-0.358
'[09:10:10.798 26/12/1995]',0.010,0.054,-0.027,83.289,-0.061,-0.358
'[09:10:10.800 26/12/1995]',0.011,0.046,-0.027,86.394,-0.035,-0.351
'[09:10:10.802 26/12/1995]',0.012,0.046,-0.027,86.394,-0.035,-0.351
'[09:10:10.804 26/12/1995]',0.014,0.046,-0.027,86.394,-0.035,-0.351
'[09:10:10.806 26/12/1995]',0.015,0.046,-0.027,86.394,-0.035,-0.351
'[09:10:10.808 26/12/1995]',0.018,0.046,-0.027,88.898,-0.007,-0.342
'[09:10:10.810 26/12/1995]',0.020,0.046,-0.020,88.898,-0.007,-0.342
'[09:10:10.812 26/12/1995]',0.022,0.038,-0.020,88.898,-0.007,-0.342
'[09:10:10.814 26/12/1995]',0.025,0.031,-0.020,88.898,-0.007,-0.342
'[09:10:10.816 26/12/1995]',0.027,0.038,-0.020,90.851,0.026,-0.333
'[09:10:10.818 26/12/1995]',0.029,0.038,-0.020,90.851,0.026,-0.333
'[09:10:10.820 26/12/1995]',0.030,0.031,-0.020,90.851,0.026,-0.333
'[09:10:10.822 26/12/1995]',0.032,0.031,-0.020,90.851,0.026,-0.333
'[09:10:10.824 26/12/1995]',0.033,0.023,-0.013,92.254,0.056,-0.325
'[09:10:10.826 26/12/1995]',0.034,0.023,-0.020,92.254,0.056,-0.325
'[09:10:10.828 26/12/1995]',0.035,0.023,-0.013,92.254,0.056,-0.325
'[09:10:10.830 26/12/1995]',0.036,0.023,-0.020,92.254,0.056,-0.325
'[09:10:10.832 26/12/1995]',0.037,0.023,-0.020,93.105,0.085,-0.317
'[09:10:10.834 26/12/1995]',0.038,0.023,-0.013,93.105,0.085,-0.317
'[09:10:10.836 26/12/1995]',0.039,0.016,-0.020,93.105,0.085,-0.317
'[09:10:10.838 26/12/1995]',0.040,0.008,-0.013,93.105,0.085,-0.317
'[09:10:10.840 26/12/1995]',0.041,0.008,-0.013,93.456,0.115,-0.309
'[09:10:10.842 26/12/1995]',0.042,0.008,-0.006,93.456,0.115,-0.309
'[09:10:10.844 26/12/1995]',0.044,0.008,-0.006,93.456,0.115,-0.309
'[09:10:10.846 26/12/1995]',0.046,0.008,-0.006,93.456,0.115,-0.309
'[09:10:10.848 26/12/1995]',0.048,0.008,-0.006,93.456,0.139,-0.301
'[09:10:10.850 26/12/1995]',0.049,0.001,-0.006,93.456,0.139,-0.301
'[09:10:10.852 26/12/1995]',0.050,-0.007,-0.013,93.456,0.139,-0.301
'[09:10:10.854 26/12/1995]',0.050,-0.015,-0.013,93.456,0.139,-0.301
'[09:10:10.856 26/12/1995]',0.050,-0.015,-0.006,93.155,0.163,-0.291
'[09:10:10.858 26/12/1995]',0.050,-0.007,-0.006,93.155,0.163,-0.291
'[09:10:10.860 26/12/1995]',0.050,0.001,0.001,93.155,0.163,-0.291
'[09:10:10.862 26/12/1995]',0.050,0.001,-0.006,93.155,0.163,-0.291
'[09:10:10.864 26/12/1995]',0.049,0.001,-0.006,92.554,0.184,-0.279
'[09:10:10.866 26/12/1995]',0.049,0.001,-0.013,92.554,0.184,-0.279
'[09:10:10.868 26/12/1995]',0.049,0.001,-0.013,92.554,0.184,-0.279
'[09:10:10.870 26/12/1995]',0.049,0.001,-0.013,92.554,0.184,-0.279
'[09:10:10.872 26/12/1995]',0.049,-0.007,-0.006,91.753,0.206,-0.266
'[09:10:10.874 26/12/1995]',0.049,-0.007,-0.006,91.753,0.206,-0.266
'[09:10:10.876 26/12/1995]',0.049,0.001,-0.006,91.753,0.206,-0.266
'[09:10:10.878 26/12/1995]',0.049,0.001,-0.006,91.753,0.206,-0.266
'[09:10:10.880 26/12/1995]',0.049,-0.007,-0.006,90.501,0.224,-0.252
'[09:10:10.882 26/12/1995]',0.049,-0.007,-0.006,90.501,0.224,-0.252
'[09:10:10.884 26/12/1995]',0.048,-0.007,-0.006,90.501,0.224,-0.252
'[09:10:10.886 26/12/1995]',0.047,-0.007,-0.006,90.501,0.224,-0.252
'[09:10:10.888 26/12/1995]',0.046,-0.015,-0.006,88.898,0.238,-0.237
'[09:10:10.890 26/12/1995]',0.045,-0.007,-0.006,88.898,0.238,-0.237
'[09:10:10.892 26/12/1995]',0.045,-0.007,-0.013,88.898,0.238,-0.237
'[09:10:10.894 26/12/1995]',0.044,-0.007,-0.006,88.898,0.238,-0.237
'[09:10:10.896 26/12/1995]',0.044,-0.015,-0.006,86.945,0.249,-0.224
'[09:10:10.898 26/12/1995]',0.044,-0.007,0.001,86.945,0.249,-0.224
'[09:10:10.900 26/12/1995]',0.043,-0.007,-0.006,86.945,0.249,-0.224
'[09:10:10.902 26/12/1995]',0.043,-0.007,-0.006,86.945,0.249,-0.224
'[09:10:10.904 26/12/1995]',0.042,-0.007,-0.006,84.641,0.263,-0.209
'[09:10:10.906 26/12/1995]',0.041,-0.015,-0.006,84.641,0.263,-0.209
'[09:10:10.908 26/12/1995]',0.040,-0.007,-0.006,84.641,0.263,-0.209
'[09:10:10.910 26/12/1995]',0.039,-0.007,-0.006,84.641,0.263,-0.209
'[09:10:10.912 26/12/1995]',0.038,0.001,-0.006,82.187,0.271,-0.197
'[09:10:10.914 26/12/1995]',0.037,0.001,-0.013,82.187,0.271,-0.197
'[09:10:10.916 26/12/1995]',0.036,0.008,-0.013,82.187,0.271,-0.197
'[09:10:10.918 26/12/1995]',0.036,0.008,-0.013,82.187,0.271,-0.197
'[09:10:10.920 26/12/1995]',0.036,0.008,-0.013,79.583,0.276,-0.185
'[09:10:10.922 26/12/1995]',0.037,0.008,-0.013,79.583,0.276,-0.185
'[09:10:10.924 26/12/1995]',0.037,0.001,-0.013,79.583,0.276,-0.185
'[09:10:10.926 26/12/1995]',0.037,0.001,-0.006,79.583,0.276,-0.185
'[09:10:10.928 26/12/1995]',0.036,0.001,-0.006,76.978,0.276,-0.176
'[09:10:10.930 26/12/1995]',0.036,0.008,-0.013,76.978,0.276,-0.176
'[09:10:10.932 26/12/1995]',0.035,0.016,-0.013,76.978,0.276,-0.176
'[09:10:10.934 26/12/1995]',0.035,0.016,-0.013,76.978,0.276,-0.176
'[09:10:10.936 26/12/1995]',0.035,0.008,-0.013,74.374,0.280,-0.168
'[09:10:10.938 26/12/1995]',0.035,0.001,-0.013,74.374,0.280,-0.168
'[09:10:10.940 26/12/1995]',0.034,0.008,-0.013,74.374,0.280,-0.168
'[09:10:10.942 26/12/1995]',0.033,0.008,-0.020,74.374,0.280,-0.168
'[09:10:10.944 26/12/1995]',0.033,0.008,-0.013,71.920,0.278,-0.162
'[09:10:10.946 26/12/1995]',0.033,0.016,-0.013,71.920,0.278,-0.162
'[09:10:10.948 26/12/1995]',0.032,0.016,-0.013,71.920,0.278,-0.162
'[09:10:10.950 26/12/1995]',0.032,0.016,-0.013,71.920,0.278,-0.162
'[09:10:10.952 26/12/1995]',0.032,0.016,-0.020,69.666,0.274,-0.159
'[09:10:10.954 26/12/1995]',0.031,0.016,-0.020,69.666,0.274,-0.159
'[09:10:10.956 26/12/1995]',0.032,0.008,-0.020,69.666,0.274,-0.159
'[09:10:10.958 26/12/1995]',0.032,0.008,-0.013,69.666,0.274,-0.159
'[09:10:10.960 26/12/1995]',0.033,0.008,-0.020,67.663,0.269,-0.159
'[09:10:10.962 26/12/1995]',0.033,0.008,-0.013,67.663,0.269,-0.159
'[09:10:10.964 26/12/1995]',0.035,0.008,-0.020,67.663,0.269,-0.159
'[09:10:10.966 26/12/1995]',0.036,0.008,-0.020,67.663,0.269,-0.159
'[09:10:10.968 26/12/1995]',0.036,0.008,-0.020,65.910,0.263,-0.160
'[09:10:10.970 26/12/1995]',0.037,0.008,-0.013,65.910,0.263,-0.160
'[09:10:10.972 26/12/1995]',0.036,0.008,-0.013,65.910,0.263,-0.160
'[09:10:10.974 26/12/1995]',0.036,0.008,-0.013,65.910,0.263,-0.160
'[09:10:10.976 26/12/1995]',0.035,0.016,-0.013,64.407,0.252,-0.164
'[09:10:10.978 26/12/1995]',0.035,0.008,-0.020,64.407,0.252,-0.164
'[09:10:10.980 26/12/1995]',0.035,0.008,-0.013,64.407,0.252,-0.164
'[09:10:10.982 26/12/1995]',0.035,0.016,-0.013,64.407,0.252,-0.164
'[09:10:10.984 26/12/1995]',0.035,0.016,-0.013,63.105,0.243,-0.171
'[09:10:10.986 26/12/1995]',0.036,0.016,-0.013,63.105,0.243,-0.171
'[09:10:10.988 26/12/1995]',0.036,0.023,-0.020,63.105,0.243,-0.171
'[09:10:10.990 26/12/1995]',0.036,0.016,-0.013,63.105,0.243,-0.171
'[09:10:10.992 26/12/1995]',0.035,0.008,-0.013,61.953,0.228,-0.180
'[09:10:10.994 26/12/1995]',0.035,0.008,-0.013,61.953,0.228,-0.180
'[09:10:10.996 26/12/1995]',0.033,0.001,-0.013,61.953,0.228,-0.180
'[09:10:10.998 26/12/1995]',0.031,0.008,-0.013,61.953,0.228,-0.180
'[09:10:11.000 26/12/1995]',0.031,0.016,-0.013,61.052,0.219,-0.192
'[09:10:11.002 26/12/1995]',0.030,0.016,-0.020,61.052,0.219,-0.192
'[09:10:11.004 26/12/1995]',0.031,0.016,-0.020,61.052,0.219,-0.192
'[09:10:11.006 26/12/1995]',0.032,0.023,-0.020,61.052,0.219,-0.192
'[09:10:11.008 26/12/1995]',0.034,0.023,-0.027,60.350,0.206,-0.203
'[09:10:11.010 26/12/1995]',0.037,0.023,-0.020,60.350,0.206,-0.203
'[09:10:11.012 26/12/1995]',0.039,0.016,-0.013,60.350,0.206,-0.203
'[09:10:11.014 26/12/1995]',0.042,0.016,-0.013,60.350,0.206,-0.203
'[09:10:11.016 26/12/1995]',0.042,0.016,-0.006,59.699,0.191,-0.214
'[09:10:11.018 26/12/1995]',0.043,0.001,-0.006,59.699,0.191,-0.214
'[09:10:11.020 26/12/1995]',0.042,0.001,-0.006,59.699,0.191,-0.214
'[09:10:11.022 26/12/1995]',0.041,0.008,-0.013,59.699,0.191,-0.214
'[09:10:11.024 26/12/1995]',0.040,0.008,-0.013,59.199,0.180,-0.225
'[09:10:11.026 26/12/1995]',0.039,0.008,-0.013,59.199,0.180,-0.225
'[09:10:11.028 26/12/1995]',0.040,0.008,-0.013,59.199,0.180,-0.225
'[09:10:11.030 26/12/1995]',0.040,0.016,-0.013,59.199,0.180,-0.225
'[09:10:11.032 26/12/1995]',0.041,0.023,-0.006,58.798,0.165,-0.235
'[09:10:11.034 26/12/1995]',0.041,0.016,-0.006,58.798,0.165,-0.235
'[09:10:11.036 26/12/1995]',0.041,0.016,-0.006,58.798,0.165,-0.235
'[09:10:11.038 26/12/1995]',0.042,0.008,-0.006,58.798,0.165,-0.235
'[09:10:11.040 26/12/1995]',0.042,0.008,-0.006,58.447,0.154,-0.243
'[09:10:11.042 26/12/1995]',0.042,0.001,-0.006,58.447,0.154,-0.243
'[09:10:11.044 26/12/1995]',0.042,0.008,-0.013,58.447,0.154,-0.243
'[09:10:11.046 26/12/1995]',0.043,0.016,-0.013,58.447,0.154,-0.243
'[09:10:11.048 26/12/1995]',0.043,0.016,-0.013,58.297,0.141,-0.250
'[09:10:11.050 26/12/1995]',0.044,0.016,-0.013,58.297,0.141,-0.250
'[09:10:11.052 26/12/1995]',0.045,0.008,-0.013,58.297,0.141,-0.250
'[09:10:11.054 26/12/1995]',0.045,0.001,-0.013,58.297,0.141,-0.250
'[09:10:11.056 26/12/1995]',0.045,0.001,-0.006,58.147,0.132,-0.255
'[09:10:11.058 26/12/1995]',0.045,0.001,-0.006,58.147,0.132,-0.255
'[09:10:11.060 26/12/1995]',0.044,-0.007,-0.006,58.147,0.132,-0.255
'[09:10:11.062 26/12/1995]',0.044,-0.007,-0.006,58.147,0.132,-0.255
'[09:10:11.064 26/12/1995]',0.043,0.001,-0.006,58.047,0.119,-0.257
'[09:10:11.066 26/12/1995]',0.043,0.001,-0.006,58.047,0.119,-0.257
'[09:10:11.068 26/12/1995]',0.042,0.008,-0.013,58.047,0.119,-0.257
'[09:10:11.070 26/12/1995]',0.042,0.008,-0.013,58.047,0.119,-0.257
'[09:10:11.072 26/12/1995]',0.043,0.001,-0.013,57.946,0.108,-0.258
'[09:10:11.074 26/12/1995]',0.043,0.008,-0.013,57.946,0.108,-0.258
'[09:10:11.076 26/12/1995]',0.044,-0.007,-0.013,57.946,0.108,-0.258
'[09:10:11.078 26/12/1995]',0.045,-0.007,-0.013,57.946,0.108,-0.258
'[09:10:11.080 26/12/1995]',0.046,0.001,-0.013,57.746,0.098,-0.257
'[09:10:11.082 26/12/1995]',0.048,0.001,-0.013,57.746,0.098,-0.257
'[09:10:11.084 26/12/1995]',0.047,0.001,-0.013,57.746,0.098,-0.257
'[09:10:11.086 26/12/1995]',0.047,0.001,-0.013,57.746,0.098,-0.257
'[09:10:11.088 26/12/1995]',0.046,0.008,-0.006,57.446,0.086,-0.255
'[09:10:11.090 26/12/1995]',0.045,0.001,-0.006,57.446,0.086,-0.255
'[09:10:11.092 26/12/1995]',0.044,0.001,-0.006,57.446,0.086,-0.255
'[09:10:11.094 26/12/1995]',0.043,0.001,-0.013,57.446,0.086,-0.255
'[09:10:11.096 26/12/1995]',0.043,0.008,-0.013,57.145,0.078,-0.251
'[09:10:11.098 26/12/1995]',0.043,0.008,-0.020,57.145,0.078,-0.251
'[09:10:11.100 26/12/1995]',0.044,0.008,-0.013,57.145,0.078,-0.251
'[09:10:11.102 26/12/1995]',0.044,0.008,-0.013,57.145,0.078,-0.251
'[09:10:11.104 26/12/1995]',0.046,0.008,-0.013,56.895,0.070,-0.246
'[09:10:11.106 26/12/1995]',0.047,0.001,-0.013,56.895,0.070,-0.246
'[09:10:11.108 26/12/1995]',0.048,-0.007,-0.013,56.895,0.070,-0.246
'[09:10:11.110 26/12/1995]',0.048,-0.007,-0.013,56.895,0.070,-0.246
'[09:10:11.112 26/12/1995]',0.049,-0.007,-0.006,56.594,0.056,-0.241
'[09:10:11.114 26/12/1995]',0.049,0.001,-0.006,56.594,0.056,-0.241
'[09:10:11.116 26/12/1995]',0.049,-0.007,-0.013,56.594,0.056,-0.241
'[09:10:11.118 26/12/1995]',0.049,-0.007,-0.013,56.594,0.056,-0.241
'[09:10:11.120 26/12/1995]',0.049,-0.007,-0.013,56.344,0.048,-0.237
'[09:10:11.122 26/12/1995]',0.049,-0.007,-0.006,56.344,0.048,-0.237
'[09:10:11.124 26/12/1995]',0.048,-0.007,-0.006,56.344,0.048,-0.237
'[09:10:11.126 26/12/1995]',0.048,-0.007,-0.006,56.344,0.048,-0.237
'[09:10:11.128 26/12/1995]',0.047,-0.007,-0.006,56.043,0.036,-0.233
'[09:10:11.130 26/12/1995]',0.047,-0.007,-0.006,56.043,0.036,-0.233
'[09:10:11.132 26/12/1995]',0.047,-0.007,-0.006,56.043,0.036,-0.233
'[09:10:11.134 26/12/1995]',0.048,-0.007,-0.006,56.043,0.036,-0.233
'[09:10:11.136 26/12/1995]',0.048,-0.007,-0.013,55.793,0.028,-0.229
'[09:10:11.138 26/12/1995]',0.048,-0.007,-0.006,55.793,0.028,-0.229
'[09:10:11.140 26/12/1995]',0.047,-0.015,-0.006,55.793,0.028,-0.229
'[09:10:11.142 26/12/1995]',0.046,-0.015,-0.006,55.793,0.028,-0.229
'[09:10:11.144 26/12/1995]',0.045,-0.007,-0.006,55.542,0.017,-0.225
'[09:10:11.146 26/12/1995]',0.044,-0.007,-0.006,55.542,0.017,-0.225
'[09:10:11.148 26/12/1995]',0.042,0.001,-0.013,55.542,0.017,-0.225
'[09:10:11.150 26/12/1995]',0.040,0.001,-0.006,55.542,0.017,-0.225
'[09:10:11.152 26/12/1995]',0.038,0.001,-0.013,55.192,0.011,-0.223
'[09:10:11.154 26/12/1995]',0.037,0.008,-0.020,55.192,0.011,-0.223
'[09:10:11.156 26/12/1995]',0.036,0.008,-0.013,55.192,0.011,-0.223
'[09:10:11.158 26/12/1995]',0.035,0.016,-0.020,55.192,0.011,-0.223
'[09:10:11.160 26/12/1995]',0.034,0.016,-0.013,54.891,0.000,-0.221
'[09:10:11.162 26/12/1995]',0.034,0.016,-0.013,54.891,0.000,-0.221
'[09:10:11.164 26/12/1995]',0.035,0.016,-0.013,54.891,0.000,-0.221
'[09:10:11.166 26/12/1995]',0.035,0.016,-0.020,54.891,0.000,-0.221
'[09:10:11.168 26/12/1995]',0.036,0.008,-0.013,54.541,-0.009,-0.218
'[09:10:11.170 26/12/1995]',0.036,0.008,-0.013,54.541,-0.009,-0.218
'[09:10:11.172 26/12/1995]',0.036,0.001,-0.013,54.541,-0.009,-0.218
'[09:10:11.174 26/12/1995]',0.037,0.001,-0.013,54.541,-0.009,-0.218
'[09:10:11.176 26/12/1995]',0.037,0.001,-0.013,54.240,-0.020,-0.217
'[09:10:11.178 26/12/1995]',0.038,0.008,-0.013,54.240,-0.020,-0.217
'[09:10:11.180 26/12/1995]',0.039,0.008,-0.013,54.240,-0.020,-0.217
'[09:10:11.182 26/12/1995]',0.040,0.016,-0.013,54.240,-0.020,-0.217
'[09:10:11.184 26/12/1995]',0.041,0.008,-0.013,53.940,-0.029,-0.216
'[09:10:11.186 26/12/1995]',0.041,0.008,-0.013,53.940,-0.029,-0.216
'[09:10:11.188 26/12/1995]',0.042,0.008,-0.013,53.940,-0.029,-0.216
'[09:10:11.190 26/12/1995]',0.042,0.008,-0.013,53.940,-0.029,-0.216
'[09:10:11.192 26/12/1995]',0.043,0.001,-0.013,53.639,-0.037,-0.215
'[09:10:11.194 26/12/1995]',0.044,0.001,-0.013,53.639,-0.037,-0.215
'[09:10:11.196 26/12/1995]',0.045,0.008,-0.013,53.639,-0.037,-0.215
'[09:10:11.198 26/12/1995]',0.045,0.008,-0.013,53.639,-0.037,-0.215
'[09:10:11.200 26/12/1995]',0.045,0.001,-0.013,53.339,-0.046,-0.213
'[09:10:11.202 26/12/1995]',0.045,0.001,-0.006,53.339,-0.046,-0.213
'[09:10:11.204 26/12/1995]',0.043,0.001,-0.006,53.339,-0.046,-0.213
'[09:10:11.206 26/12/1995]',0.042,0.008,-0.006,53.339,-0.046,-0.213
'[09:10:11.208 26/12/1995]',0.040,0.008,-0.006,53.038,-0.057,-0.210
'[09:10:11.210 26/12/1995]',0.037,0.016,-0.006,53.038,-0.057,-0.210
'[09:10:11.212 26/12/1995]',0.035,0.023,-0.006,53.038,-0.057,-0.210
'[09:10:11.214 26/12/1995]',0.032,0.023,-0.006,53.038,-0.057,-0.210
'[09:10:11.216 26/12/1995]',0.029,0.031,-0.013,52.788,-0.066,-0.206
'[09:10:11.218 26/12/1995]',0.027,0.031,-0.020,52.788,-0.066,-0.206
'[09:10:11.220 26/12/1995]',0.026,0.031,-0.013,52.788,-0.066,-0.206
'[09:10:11.222 26/12/1995]',0.024,0.031,-0.013,52.788,-0.066,-0.206
'[09:10:11.224 26/12/1995]',0.023,0.031,-0.013,52.487,-0.076,-0.201
'[09:10:11.226 26/12/1995]',0.022,0.023,-0.013,52.487,-0.076,-0.201
'[09:10:11.228 26/12/1995]',0.022,0.023,-0.013,52.487,-0.076,-0.201
'[09:10:11.230 26/12/1995]',0.021,0.031,-0.020,52.487,-0.076,-0.201
'[09:10:11.232 26/12/1995]',0.022,0.023,-0.013,52.237,-0.087,-0.195
'[09:10:11.234 26/12/1995]',0.023,0.023,-0.020,52.237,-0.087,-0.195
'[09:10:11.236 26/12/1995]',0.026,0.023,-0.020,52.237,-0.087,-0.195
'[09:10:11.238 26/12/1995]',0.030,0.023,-0.027,52.237,-0.087,-0.195
'[09:10:11.240 26/12/1995]',0.036,0.023,-0.033,51.987,-0.100,-0.188
'[09:10:11.242 26/12/1995]',0.043,0.031,-0.033,51.987,-0.100,-0.188
'[09:10:11.244 26/12/1995]',0.052,0.023,-0.033,51.987,-0.100,-0.188
'[09:10:11.246 26/12/1995]',0.062,0.016,-0.033,51.987,-0.100,-0.188
'[09:10:11.248 26/12/1995]',0.073,0.001,-0.033,51.836,-0.109,-0.181
'[09:10:11.250 26/12/1995]',0.084,-0.015,-0.033,51.836,-0.109,-0.181
'[09:10:11.252 26/12/1995]',0.095,-0.030,-0.033,51.836,-0.109,-0.181
'[09:10:11.254 26/12/1995]',0.106,-0.045,-0.027,51.836,-0.109,-0.181
'[09:10:11.256 26/12/1995]',0.118,-0.068,-0.020,51.586,-0.116,-0.174
'[09:10:11.258 26/12/1995]',0.131,-0.083,-0.020,51.586,-0.116,-0.174
'[09:10:11.260 26/12/1995]',0.144,-0.098,-0.013,51.586,-0.116,-0.174
'[09:10:11.262 26/12/1995]',0.158,-0.113,-0.006,51.586,-0.116,-0.174
'[09:10:11.264 26/12/1995]',0.172,-0.136,0.007,51.436,-0.126,-0.168
'[09:10:11.266 26/12/1995]',0.186,-0.159,0.021,51.436,-0.126,-0.168
'[09:10:11.268 26/12/1995]',0.201,-0.181,0.034,51.436,-0.126,-0.168
'[09:10:11.270 26/12/1995]',0.216,-0.212,0.048,51.436,-0.126,-0.168
'[09:10:11.272 26/12/1995]',0.229,-0.234,0.062,51.185,-0.133,-0.160
'[09:10:11.274 26/12/1995]',0.243,-0.272,0.068,51.185,-0.133,-0.160
'[09:10:11.276 26/12/1995]',0.254,-0.295,0.096,51.185,-0.133,-0.160
'[09:10:11.278 26/12/1995]',0.265,-0.318,0.102,51.185,-0.133,-0.160
'[09:10:11.280 26/12/1995]',0.271,-0.348,0.129,50.935,-0.135,-0.152
'[09:10:11.282 26/12/1995]',0.276,-0.371,0.143,50.935,-0.135,-0.152
'[09:10:11.284 26/12/1995]',0.276,-0.386,0.157,50.935,-0.135,-0.152
'[09:10:11.286 26/12/1995]',0.275,-0.409,0.164,50.935,-0.135,-0.152
'[09:10:11.288 26/12/1995]',0.269,-0.409,0.177,50.785,-0.137,-0.145
'[09:10:11.290 26/12/1995]',0.263,-0.393,0.177,50.785,-0.137,-0.145
'[09:10:11.292 26/12/1995]',0.252,-0.378,0.157,50.785,-0.137,-0.145
'[09:10:11.294 26/12/1995]',0.241,-0.355,0.143,50.785,-0.137,-0.145
'[09:10:11.296 26/12/1995]',0.231,-0.318,0.136,50.534,-0.137,-0.139
'[09:10:11.298 26/12/1995]',0.221,-0.303,0.129,50.534,-0.137,-0.139
'[09:10:11.300 26/12/1995]',0.212,-0.295,0.116,50.534,-0.137,-0.139
'[09:10:11.302 26/12/1995]',0.204,-0.287,0.109,50.534,-0.137,-0.139
'[09:10:11.304 26/12/1995]',0.195,-0.280,0.102,50.284,-0.133,-0.134
'[09:10:11.306 26/12/1995]',0.187,-0.272,0.102,50.284,-0.133,-0.134
'[09:10:11.308 26/12/1995]',0.178,-0.257,0.096,50.284,-0.133,-0.134
'[09:10:11.310 26/12/1995]',0.169,-0.249,0.089,50.284,-0.133,-0.134
'[09:10:11.312 26/12/1995]',0.158,-0.234,0.075,50.083,-0.131,-0.130
'[09:10:11.314 26/12/1995]',0.148,-0.227,0.068,50.083,-0.131,-0.130
'[09:10:11.316 26/12/1995]',0.137,-0.212,0.062,50.083,-0.131,-0.130
'[09:10:11.318 26/12/1995]',0.126,-0.189,0.055,50.083,-0.131,-0.130
'[09:10:11.320 26/12/1995]',0.115,-0.174,0.048,49.833,-0.129,-0.128
'[09:10:11.322 26/12/1995]',0.103,-0.151,0.028,49.833,-0.129,-0.128
'[09:10:11.324 26/12/1995]',0.093,-0.121,0.021,49.833,-0.129,-0.128
'[09:10:11.326 26/12/1995]',0.083,-0.106,0.014,49.833,-0.129,-0.128
'[09:10:11.328 26/12/1995]',0.074,-0.091,0.014,49.583,-0.129,-0.126
'[09:10:11.330 26/12/1995]',0.065,-0.053,0.007,49.583,-0.129,-0.126
'[09:10:11.332 26/12/1995]',0.058,-0.030,-0.006,49.583,-0.129,-0.126
'[09:10:11.334 26/12/1995]',0.050,-0.015,-0.013,49.583,-0.129,-0.126
'[09:10:11.336 26/12/1995]',0.044,0.001,-0.013,49.382,-0.129,-0.125
'[09:10:11.338 26/12/1995]',0.037,0.016,-0.020,49.382,-0.129,-0.125
'[09:10:11.340 26/12/1995]',0.032,0.016,-0.020,49.382,-0.129,-0.125
'[09:10:11.342 26/12/1995]',0.026,0.023,-0.020,49.382,-0.129,-0.125
'[09:10:11.344 26/12/1995]',0.022,0.031,-0.020,49.232,-0.129,-0.124
'[09:10:11.346 26/12/1995]',0.018,0.038,-0.027,49.232,-0.129,-0.124
'[09:10:11.348 26/12/1995]',0.015,0.038,-0.033,49.232,-0.129,-0.124
'[09:10:11.350 26/12/1995]',0.012,0.046,-0.033,49.232,-0.129,-0.124
'[09:10:11.352 26/12/1995]',0.011,0.046,-0.047,49.082,-0.135,-0.123
'[09:10:11.354 26/12/1995]',0.009,0.054,-0.047,49.082,-0.135,-0.123
'[09:10:11.356 26/12/1995]',0.009,0.054,-0.047,49.082,-0.135,-0.123
'[09:10:11.358 26/12/1995]',0.008,0.054,-0.047,49.082,-0.135,-0.123
'[09:10:11.360 26/12/1995]',0.008,0.069,-0.033,48.881,-0.143,-0.123
'[09:10:11.362 26/12/1995]',0.009,0.069,-0.033,48.881,-0.143,-0.123
'[09:10:11.364 26/12/1995]',0.008,0.069,-0.033,48.881,-0.143,-0.123
'[09:10:11.366 26/12/1995]',0.008,0.076,-0.047,48.881,-0.143,-0.123
'[09:10:11.368 26/12/1995]',0.008,0.069,-0.033,48.781,-0.150,-0.122
'[09:10:11.370 26/12/1995]',0.008,0.069,-0.047,48.781,-0.150,-0.122
'[09:10:11.372 26/12/1995]',0.008,0.069,-0.033,48.781,-0.150,-0.122
'[09:10:11.374 26/12/1995]',0.008,0.069,-0.033,48.781,-0.150,-0.122
'[09:10:11.376 26/12/1995]',0.007,0.069,-0.027,48.631,-0.154,-0.121
'[09:10:11.378 26/12/1995]',0.007,0.076,-0.027,48.631,-0.154,-0.121
'[09:10:11.380 26/12/1995]',0.006,0.076,-0.020,48.631,-0.154,-0.121
'[09:10:11.382 26/12/1995]',0.005,0.076,-0.027,48.631,-0.154,-0.121
'[09:10:11.384 26/12/1995]',0.004,0.076,-0.027,48.531,-0.161,-0.119
'[09:10:11.386 26/12/1995]',0.003,0.076,-0.033,48.531,-0.161,-0.119
'[09:10:11.388 26/12/1995]',0.002,0.076,-0.027,48.531,-0.161,-0.119
'[09:10:11.390 26/12/1995]',0.001,0.076,-0.027,48.531,-0.161,-0.119
'[09:10:11.392 26/12/1995]',-0.001,0.076,-0.027,48.481,-0.166,-0.118
'[09:10:11.394 26/12/1995]',-0.002,0.076,-0.027,48.481,-0.166,-0.118
'[09:10:11.396 26/12/1995]',-0.003,0.076,-0.027,48.481,-0.166,-0.118
'[09:10:11.398 26/12/1995]',-0.004,0.084,-0.033,48.481,-0.166,-0.118
'[09:10:11.400 26/12/1995]',-0.005,0.084,-0.027,48.481,-0.168,-0.116
'[09:10:11.402 26/12/1995]',-0.006,0.084,-0.027,48.481,-0.168,-0.116
'[09:10:11.404 26/12/1995]',-0.007,0.084,-0.027,48.481,-0.168,-0.116
'[09:10:11.406 26/12/1995]',-0.008,0.092,-0.027,48.481,-0.168,-0.116
'[09:10:11.408 26/12/1995]',-0.008,0.092,-0.027,48.631,-0.166,-0.114
'[09:10:11.410 26/12/1995]',-0.009,0.099,-0.027,48.631,-0.166,-0.114
'[09:10:11.412 26/12/1995]',-0.008,0.092,-0.027,48.631,-0.166,-0.114
'[09:10:11.414 26/12/1995]',-0.008,0.092,-0.027,48.631,-0.166,-0.114
'[09:10:11.416 26/12/1995]',-0.008,0.092,-0.033,49.282,-0.161,-0.112
'[09:10:11.418 26/12/1995]',-0.008,0.092,-0.027,49.282,-0.161,-0.112
'[09:10:11.420 26/12/1995]',-0.009,0.092,-0.027,49.282,-0.161,-0.112
'[09:10:11.422 26/12/1995]',-0.010,0.084,-0.027,49.282,-0.161,-0.112
'[09:10:11.424 26/12/1995]',-0.011,0.092,-0.027,50.684,-0.157,-0.110
'[09:10:11.426 26/12/1995]',-0.011,0.092,-0.027,50.684,-0.157,-0.110
'[09:10:11.428 26/12/1995]',-0.013,0.099,-0.020,50.684,-0.157,-0.110
'[09:10:11.430 26/12/1995]',-0.014,0.107,-0.020,50.684,-0.157,-0.110
'[09:10:11.432 26/12/1995]',-0.015,0.107,-0.020,53.038,-0.143,-0.110
'[09:10:11.434 26/12/1995]',-0.017,0.107,-0.027,53.038,-0.143,-0.110
'[09:10:11.436 26/12/1995]',-0.018,0.099,-0.027,53.038,-0.143,-0.110
'[09:10:11.438 26/12/1995]',-0.018,0.092,-0.033,53.038,-0.143,-0.110
'[09:10:11.440 26/12/1995]',-0.020,0.099,-0.033,56.344,-0.135,-0.110
'[09:10:11.442 26/12/1995]',-0.021,0.099,-0.033,56.344,-0.135,-0.110
'[09:10:11.444 26/12/1995]',-0.023,0.107,-0.047,56.344,-0.135,-0.110
'[09:10:11.446 26/12/1995]',-0.025,0.107,-0.047,56.344,-0.135,-0.110
'[09:10:11.448 26/12/1995]',-0.027,0.107,-0.033,60.451,-0.119,-0.111
'[09:10:11.450 26/12/1995]',-0.030,0.114,-0.047,60.451,-0.119,-0.111
'[09:10:11.452 26/12/1995]',-0.031,0.122,-0.047,60.451,-0.119,-0.111
'[09:10:11.454 26/12/1995]',-0.033,0.122,-0.047,60.451,-0.119,-0.111
'[09:10:11.456 26/12/1995]',-0.033,0.137,-0.054,64.908,-0.100,-0.112
'[09:10:11.458 26/12/1995]',-0.033,0.137,-0.047,64.908,-0.100,-0.112
'[09:10:11.460 26/12/1995]',-0.033,0.144,-0.047,64.908,-0.100,-0.112
'[09:10:11.462 26/12/1995]',-0.032,0.144,-0.054,64.908,-0.100,-0.112
'[09:10:11.464 26/12/1995]',-0.030,0.144,-0.047,69.566,-0.083,-0.112
'[09:10:11.466 26/12/1995]',-0.029,0.137,-0.047,69.566,-0.083,-0.112
'[09:10:11.468 26/12/1995]',-0.027,0.137,-0.047,69.566,-0.083,-0.112
'[09:10:11.470 26/12/1995]',-0.025,0.137,-0.047,69.566,-0.083,-0.112
'[09:10:11.472 26/12/1995]',-0.024,0.122,-0.047,74.123,-0.057,-0.112
'[09:10:11.474 26/12/1995]',-0.022,0.122,-0.047,74.123,-0.057,-0.112
'[09:10:11.476 26/12/1995]',-0.021,0.114,-0.047,74.123,-0.057,-0.112
'[09:10:11.478 26/12/1995]',-0.019,0.114,-0.047,74.123,-0.057,-0.112
'[09:10:11.480 26/12/1995]',-0.019,0.114,-0.033,78.631,-0.033,-0.112
'[09:10:11.482 26/12/1995]',-0.018,0.107,-0.033,78.631,-0.033,-0.112
'[09:10:11.484 26/12/1995]',-0.018,0.099,-0.033,78.631,-0.033,-0.112
'[09:10:11.486 26/12/1995]',-0.018,0.107,-0.047,78.631,-0.033,-0.112
'[09:10:11.488 26/12/1995]',-0.018,0.107,-0.047,82.688,-0.009,-0.111
'[09:10:11.490 26/12/1995]',-0.018,0.107,-0.047,82.688,-0.009,-0.111
'[09:10:11.492 26/12/1995]',-0.019,0.107,-0.047,82.688,-0.009,-0.111
'[09:10:11.494 26/12/1995]',-0.019,0.107,-0.033,82.688,-0.009,-0.111
'[09:10:11.496 26/12/1995]',-0.019,0.107,-0.033,86.294,0.019,-0.110
'[09:10:11.498 26/12/1995]',-0.019,0.107,-0.033,86.294,0.019,-0.110
'[09:10:11.500 26/12/1995]',-0.018,0.099,-0.047,86.294,0.019,-0.110
'[09:10:11.502 26/12/1995]',-0.016,0.099,-0.047,86.294,0.019,-0.110
'[09:10:11.504 26/12/1995]',-0.015,0.092,-0.047,89.098,0.052,-0.108
'[09:10:11.506 26/12/1995]',-0.013,0.092,-0.047,89.098,0.052,-0.108
'[09:10:11.508 26/12/1995]',-0.011,0.092,-0.054,89.098,0.052,-0.108
'[09:10:11.510 26/12/1995]',-0.010,0.092,-0.033,89.098,0.052,-0.108
'[09:10:11.512 26/12/1995]',-0.008,0.092,-0.047,91.252,0.083,-0.107
'[09:10:11.514 26/12/1995]',-0.006,0.084,-0.047,91.252,0.083,-0.107
'[09:10:11.516 26/12/1995]',-0.005,0.084,-0.033,91.252,0.083,-0.107
'[09:10:11.518 26/12/1995]',-0.003,0.084,-0.047,91.252,0.083,-0.107
'[09:10:11.520 26/12/1995]',-0.002,0.076,-0.047,92.905,0.115,-0.105
'[09:10:11.522 26/12/1995]',0.000,0.076,-0.047,92.905,0.115,-0.105
'[09:10:11.524 26/12/1995]',0.001,0.076,-0.047,92.905,0.115,-0.105
'[09:10:11.526 26/12/1995]',0.003,0.076,-0.033,92.905,0.115,-0.105
'[09:10:11.528 26/12/1995]',0.004,0.076,-0.033,94.107,0.147,-0.103
'[09:10:11.530 26/12/1995]',0.006,0.076,-0.033,94.107,0.147,-0.103
'[09:10:11.532 26/12/1995]',0.007,0.069,-0.033,94.107,0.147,-0.103
'[09:10:11.534 26/12/1995]',0.009,0.069,-0.027,94.107,0.147,-0.103
'[09:10:11.536 26/12/1995]',0.010,0.069,-0.027,94.808,0.178,-0.101
'[09:10:11.538 26/12/1995]',0.012,0.069,-0.027,94.808,0.178,-0.101
'[09:10:11.540 26/12/1995]',0.013,0.054,-0.027,94.808,0.178,-0.101
'[09:10:11.542 26/12/1995]',0.015,0.054,-0.027,94.808,0.178,-0.101
'[09:10:11.544 26/12/1995]',0.015,0.046,-0.027,95.008,0.210,-0.099
'[09:10:11.546 26/12/1995]',0.016,0.046,-0.027,95.008,0.210,-0.099
'[09:10:11.548 26/12/1995]',0.016,0.046,-0.020,95.008,0.210,-0.099
'[09:10:11.550 26/12/1995]',0.016,0.046,-0.027,95.008,0.210,-0.099
'[09:10:11.552 26/12/1995]',0.016,0.046,-0.020,94.958,0.238,-0.097
'[09:10:11.554 26/12/1995]',0.016,0.054,-0.027,94.958,0.238,-0.097
'[09:10:11.556 26/12/1995]',0.016,0.046,-0.027,94.958,0.238,-0.097
'[09:10:11.558 26/12/1995]',0.016,0.046,-0.027,94.958,0.238,-0.097
'[09:10:11.560 26/12/1995]',0.016,0.046,-0.027,94.507,0.267,-0.095
'[09:10:11.562 26/12/1995]',0.016,0.038,-0.020,94.507,0.267,-0.095
