'Time and date','V','aVL','V','ABP','PAP','CVP','PLETH'
'hh:mm:ss.mmm dd/mm/yyyy','mV','mV','mV','mmHg','mmHg','mmHg','mV'
'[10:01:48.000 29/12/1995]',0.559,-0.043,0.714,60.450,39.533,20.875,-0.391
'[10:01:48.002 29/12/1995]',0.559,-0.054,0.736,60.450,39.533,20.875,-0.391
'[10:01:48.004 29/12/1995]',0.559,-0.065,0.747,60.450,39.533,20.875,-0.391
'[10:01:48.006 29/12/1995]',0.559,-0.076,0.757,60.450,39.533,20.875,-0.391
'[10:01:48.008 29/12/1995]',0.559,-0.065,0.768,60.550,39.708,21.163,-0.397
'[10:01:48.010 29/12/1995]',0.615,-0.065,0.779,60.550,39.708,21.163,-0.397
'[10:01:48.012 29/12/1995]',0.615,-0.054,0.801,60.550,39.708,21.163,-0.397
'[10:01:48.014 29/12/1995]',0.615,-0.054,0.823,60.550,39.708,21.163,-0.397
'[10:01:48.016 29/12/1995]',0.615,-0.043,0.845,60.900,40.359,21.337,-0.401
'[10:01:48.018 29/12/1995]',0.671,-0.054,0.856,60.900,40.359,21.337,-0.401
'[10:01:48.020 29/12/1995]',0.671,-0.065,0.867,60.900,40.359,21.337,-0.401
'[10:01:48.022 29/12/1995]',0.671,-0.076,0.889,60.900,40.359,21.337,-0.401
'[10:01:48.024 29/12/1995]',0.671,-0.076,0.911,61.600,41.159,21.400,-0.405
'[10:01:48.026 29/12/1995]',0.727,-0.076,0.922,61.600,41.159,21.400,-0.405
'[10:01:48.028 29/12/1995]',0.727,-0.065,0.955,61.600,41.159,21.400,-0.405
'[10:01:48.030 29/12/1995]',0.727,-0.054,0.988,61.600,41.159,21.400,-0.405
'[10:01:48.032 29/12/1995]',0.782,-0.043,1.010,63.000,41.935,21.462,-0.407
'[10:01:48.034 29/12/1995]',0.782,-0.054,1.024,63.000,41.935,21.462,-0.407
'[10:01:48.036 29/12/1995]',0.782,-0.065,1.024,63.000,41.935,21.462,-0.407
'[10:01:48.038 29/12/1995]',0.835,-0.065,1.024,63.000,41.935,21.462,-0.407
'[10:01:48.040 29/12/1995]',0.835,-0.076,1.024,65.350,42.986,21.462,-0.409
'[10:01:48.042 29/12/1995]',0.835,-0.065,1.024,65.350,42.986,21.462,-0.409
'[10:01:48.044 29/12/1995]',0.891,-0.054,1.024,65.350,42.986,21.462,-0.409
'[10:01:48.046 29/12/1995]',0.891,-0.054,1.024,65.350,42.986,21.462,-0.409
'[10:01:48.048 29/12/1995]',0.947,-0.054,1.024,68.600,44.512,21.400,-0.409
'[10:01:48.050 29/12/1995]',0.947,-0.054,1.024,68.600,44.512,21.400,-0.409
'[10:01:48.052 29/12/1995]',0.947,-0.065,1.024,68.600,44.512,21.400,-0.409
'[10:01:48.054 29/12/1995]',1.003,-0.076,1.024,68.600,44.512,21.400,-0.409
'[10:01:48.056 29/12/1995]',1.003,-0.076,1.024,72.450,46.514,21.337,-0.406
'[10:01:48.058 29/12/1995]',1.003,-0.065,1.024,72.450,46.514,21.337,-0.406
'[10:01:48.060 29/12/1995]',1.058,-0.065,1.024,72.450,46.514,21.337,-0.406
'[10:01:48.062 29/12/1995]',1.058,-0.054,1.024,72.450,46.514,21.337,-0.406
'[10:01:48.064 29/12/1995]',1.114,-0.054,1.024,76.650,48.666,21.225,-0.399
'[10:01:48.066 29/12/1995]',1.114,-0.054,1.024,76.650,48.666,21.225,-0.399
'[10:01:48.068 29/12/1995]',1.114,-0.065,1.024,76.650,48.666,21.225,-0.399
'[10:01:48.070 29/12/1995]',1.114,-0.065,1.024,76.650,48.666,21.225,-0.399
'[10:01:48.072 29/12/1995]',1.114,-0.076,1.024,80.850,50.742,21.113,-0.387
'[10:01:48.074 29/12/1995]',1.170,-0.065,1.024,80.850,50.742,21.113,-0.387
'[10:01:48.076 29/12/1995]',1.170,-0.065,1.024,80.850,50.742,21.113,-0.387
'[10:01:48.078 29/12/1995]',1.170,-0.054,1.024,80.850,50.742,21.113,-0.387
'[10:01:48.080 29/12/1995]',1.170,-0.065,1.024,84.700,52.544,20.988,-0.368
'[10:01:48.082 29/12/1995]',1.170,-0.065,1.024,84.700,52.544,20.988,-0.368
'[10:01:48.084 29/12/1995]',1.170,-0.076,1.024,84.700,52.544,20.988,-0.368
'[10:01:48.086 29/12/1995]',1.170,-0.098,1.024,84.700,52.544,20.988,-0.368
'[10:01:48.088 29/12/1995]',1.170,-0.098,1.024,88.050,54.070,20.812,-0.344
'[10:01:48.090 29/12/1995]',1.170,-0.109,1.024,88.050,54.070,20.812,-0.344
'[10:01:48.092 29/12/1995]',1.170,-0.098,1.024,88.050,54.070,20.812,-0.344
'[10:01:48.094 29/12/1995]',1.114,-0.076,1.024,88.050,54.070,20.812,-0.344
'[10:01:48.096 29/12/1995]',1.114,-0.076,1.024,91.050,55.196,20.762,-0.309
'[10:01:48.098 29/12/1995]',1.114,-0.076,1.024,91.050,55.196,20.762,-0.309
'[10:01:48.100 29/12/1995]',1.058,-0.098,1.024,91.050,55.196,20.762,-0.309
'[10:01:48.102 29/12/1995]',1.058,-0.098,1.024,91.050,55.196,20.762,-0.309
'[10:01:48.104 29/12/1995]',1.058,-0.120,1.024,93.600,55.771,20.637,-0.267
'[10:01:48.106 29/12/1995]',1.003,-0.120,1.024,93.600,55.771,20.637,-0.267
'[10:01:48.108 29/12/1995]',1.003,-0.120,1.024,93.600,55.771,20.637,-0.267
'[10:01:48.110 29/12/1995]',0.947,-0.109,1.024,93.600,55.771,20.637,-0.267
'[10:01:48.112 29/12/1995]',0.947,-0.109,1.024,95.950,55.821,20.525,-0.216
'[10:01:48.114 29/12/1995]',0.891,-0.098,1.024,95.950,55.821,20.525,-0.216
'[10:01:48.116 29/12/1995]',0.891,-0.109,1.024,95.950,55.821,20.525,-0.216
'[10:01:48.118 29/12/1995]',0.835,-0.120,1.024,95.950,55.821,20.525,-0.216
'[10:01:48.120 29/12/1995]',0.782,-0.120,1.024,98.200,55.196,20.462,-0.160
'[10:01:48.122 29/12/1995]',0.782,-0.131,0.999,98.200,55.196,20.462,-0.160
'[10:01:48.124 29/12/1995]',0.727,-0.131,0.966,98.200,55.196,20.462,-0.160
'[10:01:48.126 29/12/1995]',0.727,-0.131,0.922,98.200,55.196,20.462,-0.160
'[10:01:48.128 29/12/1995]',0.671,-0.120,0.889,100.600,53.945,20.350,-0.098
'[10:01:48.130 29/12/1995]',0.615,-0.120,0.845,100.600,53.945,20.350,-0.098
'[10:01:48.132 29/12/1995]',0.615,-0.120,0.823,100.600,53.945,20.350,-0.098
'[10:01:48.134 29/12/1995]',0.559,-0.131,0.768,100.600,53.945,20.350,-0.098
'[10:01:48.136 29/12/1995]',0.559,-0.131,0.736,103.150,52.068,20.225,-0.035
'[10:01:48.138 29/12/1995]',0.504,-0.131,0.692,103.150,52.068,20.225,-0.035
'[10:01:48.140 29/12/1995]',0.504,-0.131,0.658,103.150,52.068,20.225,-0.035
'[10:01:48.142 29/12/1995]',0.448,-0.120,0.615,103.150,52.068,20.225,-0.035
'[10:01:48.144 29/12/1995]',0.448,-0.109,0.604,105.800,49.666,20.175,0.029
'[10:01:48.146 29/12/1995]',0.448,-0.098,0.571,105.800,49.666,20.175,0.029
'[10:01:48.148 29/12/1995]',0.392,-0.098,0.538,105.800,49.666,20.175,0.029
'[10:01:48.150 29/12/1995]',0.392,-0.098,0.516,105.800,49.666,20.175,0.029
'[10:01:48.152 29/12/1995]',0.337,-0.098,0.494,108.200,46.914,20.113,0.091
'[10:01:48.154 29/12/1995]',0.337,-0.098,0.462,108.200,46.914,20.113,0.091
'[10:01:48.156 29/12/1995]',0.337,-0.098,0.451,108.200,46.914,20.113,0.091
'[10:01:48.158 29/12/1995]',0.281,-0.076,0.428,108.200,46.914,20.113,0.091
'[10:01:48.160 29/12/1995]',0.281,-0.065,0.417,110.150,43.937,20.050,0.146
'[10:01:48.162 29/12/1995]',0.281,-0.054,0.396,110.150,43.937,20.050,0.146
'[10:01:48.164 29/12/1995]',0.281,-0.054,0.385,110.150,43.937,20.050,0.146
'[10:01:48.166 29/12/1995]',0.281,-0.054,0.373,110.150,43.937,20.050,0.146
'[10:01:48.168 29/12/1995]',0.281,-0.054,0.362,111.500,41.059,20.000,0.198
'[10:01:48.170 29/12/1995]',0.225,-0.054,0.341,111.500,41.059,20.000,0.198
'[10:01:48.172 29/12/1995]',0.225,-0.054,0.330,111.500,41.059,20.000,0.198
'[10:01:48.174 29/12/1995]',0.225,-0.054,0.319,111.500,41.059,20.000,0.198
'[10:01:48.176 29/12/1995]',0.225,-0.043,0.319,112.200,38.182,19.875,0.245
'[10:01:48.178 29/12/1995]',0.225,-0.032,0.308,112.200,38.182,19.875,0.245
'[10:01:48.180 29/12/1995]',0.225,-0.032,0.297,112.200,38.182,19.875,0.245
'[10:01:48.182 29/12/1995]',0.225,-0.021,0.286,112.200,38.182,19.875,0.245
'[10:01:48.184 29/12/1995]',0.225,-0.021,0.297,112.100,35.354,19.762,0.286
'[10:01:48.186 29/12/1995]',0.170,-0.021,0.275,112.100,35.354,19.762,0.286
'[10:01:48.188 29/12/1995]',0.170,-0.032,0.275,112.100,35.354,19.762,0.286
'[10:01:48.190 29/12/1995]',0.170,-0.043,0.275,112.100,35.354,19.762,0.286
'[10:01:48.192 29/12/1995]',0.170,-0.043,0.275,111.250,32.602,19.587,0.325
'[10:01:48.194 29/12/1995]',0.170,-0.032,0.275,111.250,32.602,19.587,0.325
'[10:01:48.196 29/12/1995]',0.170,-0.032,0.275,111.250,32.602,19.587,0.325
'[10:01:48.198 29/12/1995]',0.170,-0.010,0.275,111.250,32.602,19.587,0.325
'[10:01:48.200 29/12/1995]',0.170,-0.021,0.264,109.550,30.200,19.413,0.357
'[10:01:48.202 29/12/1995]',0.170,-0.021,0.264,109.550,30.200,19.413,0.357
'[10:01:48.204 29/12/1995]',0.170,-0.021,0.253,109.550,30.200,19.413,0.357
'[10:01:48.206 29/12/1995]',0.170,-0.032,0.253,109.550,30.200,19.413,0.357
'[10:01:48.208 29/12/1995]',0.170,-0.032,0.253,107.200,28.274,19.175,0.385
'[10:01:48.210 29/12/1995]',0.170,-0.032,0.264,107.200,28.274,19.175,0.385
'[10:01:48.212 29/12/1995]',0.170,-0.021,0.253,107.200,28.274,19.175,0.385
'[10:01:48.214 29/12/1995]',0.170,-0.021,0.253,107.200,28.274,19.175,0.385
'[10:01:48.216 29/12/1995]',0.170,-0.021,0.253,104.200,26.922,18.825,0.409
'[10:01:48.218 29/12/1995]',0.170,-0.032,0.242,104.200,26.922,18.825,0.409
'[10:01:48.220 29/12/1995]',0.170,-0.032,0.253,104.200,26.922,18.825,0.409
'[10:01:48.222 29/12/1995]',0.170,-0.032,0.242,104.200,26.922,18.825,0.409
'[10:01:48.224 29/12/1995]',0.170,-0.032,0.242,100.850,26.272,18.475,0.428
'[10:01:48.226 29/12/1995]',0.170,-0.032,0.242,100.850,26.272,18.475,0.428
'[10:01:48.228 29/12/1995]',0.170,-0.021,0.253,100.850,26.272,18.475,0.428
'[10:01:48.230 29/12/1995]',0.170,-0.010,0.264,100.850,26.272,18.475,0.428
'[10:01:48.232 29/12/1995]',0.170,-0.010,0.253,97.550,26.347,18.062,0.443
'[10:01:48.234 29/12/1995]',0.170,-0.021,0.253,97.550,26.347,18.062,0.443
'[10:01:48.236 29/12/1995]',0.170,-0.021,0.253,97.550,26.347,18.062,0.443
'[10:01:48.238 29/12/1995]',0.170,-0.032,0.242,97.550,26.347,18.062,0.443
'[10:01:48.240 29/12/1995]',0.170,-0.032,0.242,94.600,27.323,17.650,0.450
'[10:01:48.242 29/12/1995]',0.170,-0.032,0.242,94.600,27.323,17.650,0.450
'[10:01:48.244 29/12/1995]',0.170,-0.032,0.242,94.600,27.323,17.650,0.450
'[10:01:48.246 29/12/1995]',0.170,-0.032,0.242,94.600,27.323,17.650,0.450
'[10:01:48.248 29/12/1995]',0.170,-0.021,0.253,92.100,29.324,17.238,0.451
'[10:01:48.250 29/12/1995]',0.170,-0.032,0.242,92.100,29.324,17.238,0.451
'[10:01:48.252 29/12/1995]',0.170,-0.032,0.253,92.100,29.324,17.238,0.451
'[10:01:48.254 29/12/1995]',0.170,-0.032,0.242,92.100,29.324,17.238,0.451
'[10:01:48.256 29/12/1995]',0.170,-0.032,0.231,89.900,32.252,16.837,0.444
'[10:01:48.258 29/12/1995]',0.170,-0.032,0.220,89.900,32.252,16.837,0.444
'[10:01:48.260 29/12/1995]',0.170,-0.021,0.231,89.900,32.252,16.837,0.444
'[10:01:48.262 29/12/1995]',0.170,-0.021,0.231,89.900,32.252,16.837,0.444
'[10:01:48.264 29/12/1995]',0.727,1.024,1.010,88.000,36.305,16.475,0.428
'[10:01:48.266 29/12/1995]',0.671,1.024,0.845,88.000,36.305,16.475,0.428
'[10:01:48.268 29/12/1995]',0.448,0.593,0.582,88.000,36.305,16.475,0.428
'[10:01:48.270 29/12/1995]',0.281,0.308,0.406,88.000,36.305,16.475,0.428
'[10:01:48.272 29/12/1995]',0.225,0.111,0.308,86.300,41.585,16.125,0.408
'[10:01:48.274 29/12/1995]',0.170,0.001,0.231,86.300,41.585,16.125,0.408
'[10:01:48.276 29/12/1995]',0.114,-0.098,0.165,86.300,41.585,16.125,0.408
'[10:01:48.278 29/12/1995]',0.058,-0.164,0.133,86.300,41.585,16.125,0.408
'[10:01:48.280 29/12/1995]',0.058,-0.230,0.088,84.800,47.264,15.838,0.382
'[10:01:48.282 29/12/1995]',0.005,-0.306,0.056,84.800,47.264,15.838,0.382
'[10:01:48.284 29/12/1995]',0.005,-0.361,0.022,84.800,47.264,15.838,0.382
'[10:01:48.286 29/12/1995]',0.005,-0.416,0.001,84.800,47.264,15.838,0.382
'[10:01:48.288 29/12/1995]',0.005,-0.449,-0.010,83.450,51.843,15.662,0.350
'[10:01:48.290 29/12/1995]',0.005,-0.438,-0.010,83.450,51.843,15.662,0.350
'[10:01:48.292 29/12/1995]',0.005,-0.416,0.001,83.450,51.843,15.662,0.350
'[10:01:48.294 29/12/1995]',0.005,-0.372,0.011,83.450,51.843,15.662,0.350
'[10:01:48.296 29/12/1995]',0.005,-0.339,0.034,82.250,54.120,15.488,0.315
'[10:01:48.298 29/12/1995]',0.058,-0.306,0.067,82.250,54.120,15.488,0.315
'[10:01:48.300 29/12/1995]',0.058,-0.263,0.088,82.250,54.120,15.488,0.315
'[10:01:48.302 29/12/1995]',0.058,-0.240,0.111,82.250,54.120,15.488,0.315
'[10:01:48.304 29/12/1995]',0.058,-0.207,0.111,81.000,54.120,15.425,0.280
'[10:01:48.306 29/12/1995]',0.058,-0.174,0.121,81.000,54.120,15.425,0.280
'[10:01:48.308 29/12/1995]',0.058,-0.153,0.121,81.000,54.120,15.425,0.280
'[10:01:48.310 29/12/1995]',0.058,-0.142,0.121,81.000,54.120,15.425,0.280
'[10:01:48.312 29/12/1995]',0.058,-0.120,0.133,79.700,52.844,15.363,0.241
'[10:01:48.314 29/12/1995]',0.058,-0.098,0.143,79.700,52.844,15.363,0.241
'[10:01:48.316 29/12/1995]',0.114,-0.076,0.154,79.700,52.844,15.363,0.241
'[10:01:48.318 29/12/1995]',0.114,-0.076,0.154,79.700,52.844,15.363,0.241
'[10:01:48.320 29/12/1995]',0.114,-0.076,0.154,78.600,51.143,15.312,0.204
'[10:01:48.322 29/12/1995]',0.114,-0.065,0.154,78.600,51.143,15.312,0.204
'[10:01:48.324 29/12/1995]',0.114,-0.054,0.143,78.600,51.143,15.312,0.204
'[10:01:48.326 29/12/1995]',0.114,-0.043,0.154,78.600,51.143,15.312,0.204
'[10:01:48.328 29/12/1995]',0.114,-0.032,0.154,77.600,49.141,15.250,0.170
'[10:01:48.330 29/12/1995]',0.114,-0.032,0.154,77.600,49.141,15.250,0.170
'[10:01:48.332 29/12/1995]',0.114,-0.021,0.154,77.600,49.141,15.250,0.170
'[10:01:48.334 29/12/1995]',0.114,-0.021,0.154,77.600,49.141,15.250,0.170
'[10:01:48.336 29/12/1995]',0.114,-0.032,0.154,76.750,46.864,15.312,0.136
'[10:01:48.338 29/12/1995]',0.114,-0.032,0.143,76.750,46.864,15.312,0.136
'[10:01:48.340 29/12/1995]',0.058,-0.043,0.133,76.750,46.864,15.312,0.136
'[10:01:48.342 29/12/1995]',0.058,-0.043,0.121,76.750,46.864,15.312,0.136
'[10:01:48.344 29/12/1995]',0.058,-0.032,0.121,75.900,44.287,15.425,0.102
'[10:01:48.346 29/12/1995]',0.058,-0.032,0.111,75.900,44.287,15.425,0.102
'[10:01:48.348 29/12/1995]',0.058,-0.021,0.133,75.900,44.287,15.425,0.102
'[10:01:48.350 29/12/1995]',0.058,-0.021,0.121,75.900,44.287,15.425,0.102
'[10:01:48.352 29/12/1995]',0.058,-0.010,0.121,75.200,41.710,15.662,0.071
'[10:01:48.354 29/12/1995]',0.058,-0.010,0.111,75.200,41.710,15.662,0.071
'[10:01:48.356 29/12/1995]',0.058,-0.010,0.111,75.200,41.710,15.662,0.071
'[10:01:48.358 29/12/1995]',0.058,0.011,0.121,75.200,41.710,15.662,0.071
'[10:01:48.360 29/12/1995]',0.058,0.022,0.121,74.700,39.483,15.950,0.041
'[10:01:48.362 29/12/1995]',0.058,0.044,0.133,74.700,39.483,15.950,0.041
'[10:01:48.364 29/12/1995]',0.058,0.044,0.133,74.700,39.483,15.950,0.041
'[10:01:48.366 29/12/1995]',0.114,0.056,0.143,74.700,39.483,15.950,0.041
'[10:01:48.368 29/12/1995]',0.114,0.067,0.143,74.400,37.481,16.300,0.012
'[10:01:48.370 29/12/1995]',0.114,0.067,0.143,74.400,37.481,16.300,0.012
'[10:01:48.372 29/12/1995]',0.058,0.067,0.133,74.400,37.481,16.300,0.012
'[10:01:48.374 29/12/1995]',0.058,0.067,0.133,74.400,37.481,16.300,0.012
'[10:01:48.376 29/12/1995]',0.114,0.100,0.143,74.150,35.830,16.600,-0.016
'[10:01:48.378 29/12/1995]',0.114,0.100,0.143,74.150,35.830,16.600,-0.016
'[10:01:48.380 29/12/1995]',0.114,0.111,0.154,74.150,35.830,16.600,-0.016
'[10:01:48.382 29/12/1995]',0.114,0.111,0.165,74.150,35.830,16.600,-0.016
'[10:01:48.384 29/12/1995]',0.114,0.100,0.176,73.850,34.479,16.950,-0.044
'[10:01:48.386 29/12/1995]',0.114,0.067,0.187,73.850,34.479,16.950,-0.044
'[10:01:48.388 29/12/1995]',0.114,0.056,0.176,73.850,34.479,16.950,-0.044
'[10:01:48.390 29/12/1995]',0.114,0.067,0.187,73.850,34.479,16.950,-0.044
'[10:01:48.392 29/12/1995]',0.114,0.056,0.187,73.650,33.553,17.363,-0.070
'[10:01:48.394 29/12/1995]',0.114,0.067,0.187,73.650,33.553,17.363,-0.070
'[10:01:48.396 29/12/1995]',0.114,0.067,0.198,73.650,33.553,17.363,-0.070
'[10:01:48.398 29/12/1995]',0.114,0.056,0.198,73.650,33.553,17.363,-0.070
'[10:01:48.400 29/12/1995]',0.114,0.044,0.198,73.500,32.902,17.825,-0.096
'[10:01:48.402 29/12/1995]',0.114,0.022,0.198,73.500,32.902,17.825,-0.096
'[10:01:48.404 29/12/1995]',0.114,0.001,0.187,73.500,32.902,17.825,-0.096
'[10:01:48.406 29/12/1995]',0.114,0.001,0.176,73.500,32.902,17.825,-0.096
'[10:01:48.408 29/12/1995]',0.114,0.001,0.176,73.350,32.502,18.238,-0.118
'[10:01:48.410 29/12/1995]',0.114,0.001,0.176,73.350,32.502,18.238,-0.118
'[10:01:48.412 29/12/1995]',0.114,0.011,0.187,73.350,32.502,18.238,-0.118
'[10:01:48.414 29/12/1995]',0.114,0.011,0.176,73.350,32.502,18.238,-0.118
'[10:01:48.416 29/12/1995]',0.114,0.001,0.187,73.150,32.327,18.650,-0.139
'[10:01:48.418 29/12/1995]',0.170,-0.010,0.231,73.150,32.327,18.650,-0.139
'[10:01:48.420 29/12/1995]',0.058,-0.043,0.121,73.150,32.327,18.650,-0.139
'[10:01:48.422 29/12/1995]',0.058,-0.032,0.133,73.150,32.327,18.650,-0.139
'[10:01:48.424 29/12/1995]',0.114,-0.021,0.154,73.000,32.377,19.062,-0.158
'[10:01:48.426 29/12/1995]',0.114,-0.021,0.154,73.000,32.377,19.062,-0.158
'[10:01:48.428 29/12/1995]',0.114,-0.021,0.165,73.000,32.377,19.062,-0.158
'[10:01:48.430 29/12/1995]',0.114,-0.010,0.176,73.000,32.377,19.062,-0.158
'[10:01:48.432 29/12/1995]',0.114,-0.010,0.187,72.800,32.602,19.413,-0.174
'[10:01:48.434 29/12/1995]',0.114,-0.021,0.176,72.800,32.602,19.413,-0.174
'[10:01:48.436 29/12/1995]',0.114,-0.032,0.176,72.800,32.602,19.413,-0.174
'[10:01:48.438 29/12/1995]',0.114,-0.043,0.165,72.800,32.602,19.413,-0.174
'[10:01:48.440 29/12/1995]',0.114,-0.032,0.165,72.650,33.027,19.700,-0.191
'[10:01:48.442 29/12/1995]',0.114,-0.032,0.165,72.650,33.027,19.700,-0.191
'[10:01:48.444 29/12/1995]',0.114,-0.032,0.176,72.650,33.027,19.700,-0.191
'[10:01:48.446 29/12/1995]',0.114,-0.032,0.176,72.650,33.027,19.700,-0.191
'[10:01:48.448 29/12/1995]',0.114,-0.032,0.176,72.450,33.428,20.000,-0.203
'[10:01:48.450 29/12/1995]',0.114,-0.032,0.187,72.450,33.428,20.000,-0.203
'[10:01:48.452 29/12/1995]',0.114,-0.032,0.176,72.450,33.428,20.000,-0.203
'[10:01:48.454 29/12/1995]',0.114,-0.032,0.176,72.450,33.428,20.000,-0.203
'[10:01:48.456 29/12/1995]',0.114,-0.043,0.165,72.300,33.903,20.175,-0.214
'[10:01:48.458 29/12/1995]',0.114,-0.032,0.165,72.300,33.903,20.175,-0.214
'[10:01:48.460 29/12/1995]',0.114,-0.021,0.165,72.300,33.903,20.175,-0.214
'[10:01:48.462 29/12/1995]',0.114,-0.021,0.176,72.300,33.903,20.175,-0.214
'[10:01:48.464 29/12/1995]',0.114,-0.010,0.187,72.050,34.429,20.350,-0.224
'[10:01:48.466 29/12/1995]',0.114,-0.021,0.187,72.050,34.429,20.350,-0.224
'[10:01:48.468 29/12/1995]',0.114,-0.032,0.176,72.050,34.429,20.350,-0.224
'[10:01:48.470 29/12/1995]',0.114,-0.043,0.176,72.050,34.429,20.350,-0.224
'[10:01:48.472 29/12/1995]',0.114,-0.032,0.176,71.800,34.904,20.462,-0.231
'[10:01:48.474 29/12/1995]',0.114,-0.032,0.165,71.800,34.904,20.462,-0.231
'[10:01:48.476 29/12/1995]',0.114,-0.021,0.176,71.800,34.904,20.462,-0.231
'[10:01:48.478 29/12/1995]',0.114,-0.010,0.165,71.800,34.904,20.462,-0.231
'[10:01:48.480 29/12/1995]',0.114,-0.010,0.165,71.600,35.354,20.525,-0.239
'[10:01:48.482 29/12/1995]',0.114,-0.010,0.165,71.600,35.354,20.525,-0.239
'[10:01:48.484 29/12/1995]',0.114,-0.021,0.165,71.600,35.354,20.525,-0.239
'[10:01:48.486 29/12/1995]',0.114,-0.032,0.154,71.600,35.354,20.525,-0.239
'[10:01:48.488 29/12/1995]',0.114,-0.032,0.143,71.250,35.655,20.587,-0.245
'[10:01:48.490 29/12/1995]',0.058,-0.032,0.121,71.250,35.655,20.587,-0.245
'[10:01:48.492 29/12/1995]',0.058,-0.032,0.077,71.250,35.655,20.587,-0.245
'[10:01:48.494 29/12/1995]',0.005,-0.021,-0.010,71.250,35.655,20.587,-0.245
'[10:01:48.496 29/12/1995]',-0.051,-0.032,-0.142,70.850,35.955,20.525,-0.251
'[10:01:48.498 29/12/1995]',-0.162,-0.043,-0.274,70.850,35.955,20.525,-0.251
'[10:01:48.500 29/12/1995]',-0.273,-0.054,-0.427,70.850,35.955,20.525,-0.251
'[10:01:48.502 29/12/1995]',-0.441,-0.054,-0.603,70.850,35.955,20.525,-0.251
'[10:01:48.504 29/12/1995]',-0.552,-0.065,-0.778,70.500,36.130,20.462,-0.257
'[10:01:48.506 29/12/1995]',-0.719,-0.076,-0.997,70.500,36.130,20.462,-0.257
'[10:01:48.508 29/12/1995]',-0.884,-0.076,-,70.500,36.130,20.462,-0.257
'[10:01:48.510 29/12/1995]',-1.051,-0.076,-,70.500,36.130,20.462,-0.257
'[10:01:48.512 29/12/1995]',-1.218,-0.076,-,70.150,36.255,20.400,-0.262
'[10:01:48.514 29/12/1995]',-1.329,-0.098,-,70.150,36.255,20.400,-0.262
'[10:01:48.516 29/12/1995]',-1.441,-0.109,-,70.150,36.255,20.400,-0.262
'[10:01:48.518 29/12/1995]',-1.552,-0.109,-,70.150,36.255,20.400,-0.262
'[10:01:48.520 29/12/1995]',-1.661,-0.098,-,69.800,36.355,20.288,-0.268
'[10:01:48.522 29/12/1995]',-1.772,-0.065,-,69.800,36.355,20.288,-0.268
'[10:01:48.524 29/12/1995]',-1.828,-0.043,-,69.800,36.355,20.288,-0.268
'[10:01:48.526 29/12/1995]',-1.939,-0.010,-,69.800,36.355,20.288,-0.268
'[10:01:48.528 29/12/1995]',-1.995,0.011,-,69.450,36.430,20.175,-0.273
'[10:01:48.530 29/12/1995]',-2.051,0.034,-,69.450,36.430,20.175,-0.273
'[10:01:48.532 29/12/1995]',-2.106,0.034,-,69.450,36.430,20.175,-0.273
'[10:01:48.534 29/12/1995]',-2.162,0.044,-,69.450,36.430,20.175,-0.273
'[10:01:48.536 29/12/1995]',-2.218,0.044,-,69.050,36.605,20.000,-0.278
'[10:01:48.538 29/12/1995]',-2.218,0.034,-,69.050,36.605,20.000,-0.278
'[10:01:48.540 29/12/1995]',-2.273,0.034,-,69.050,36.605,20.000,-0.278
'[10:01:48.542 29/12/1995]',-2.273,0.022,-,69.050,36.605,20.000,-0.278
'[10:01:48.544 29/12/1995]',-2.273,0.011,-,68.700,36.881,19.762,-0.282
'[10:01:48.546 29/12/1995]',-2.218,0.001,-,68.700,36.881,19.762,-0.282
'[10:01:48.548 29/12/1995]',-2.162,-0.010,-,68.700,36.881,19.762,-0.282
'[10:01:48.550 29/12/1995]',-2.106,-0.010,-,68.700,36.881,19.762,-0.282
'[10:01:48.552 29/12/1995]',-2.051,-0.010,-,68.200,37.406,19.587,-0.289
'[10:01:48.554 29/12/1995]',-1.939,0.001,-,68.200,37.406,19.587,-0.289
'[10:01:48.556 29/12/1995]',-1.828,0.034,-,68.200,37.406,19.587,-0.289
'[10:01:48.558 29/12/1995]',-1.716,0.100,-,68.200,37.406,19.587,-0.289
'[10:01:48.560 29/12/1995]',-1.605,0.133,-,67.650,38.232,19.413,-0.293
'[10:01:48.562 29/12/1995]',-1.441,0.176,-,67.650,38.232,19.413,-0.293
'[10:01:48.564 29/12/1995]',-1.329,0.198,-,67.650,38.232,19.413,-0.293
'[10:01:48.566 29/12/1995]',-1.273,0.220,-,67.650,38.232,19.413,-0.293
'[10:01:48.568 29/12/1995]',-1.162,0.253,-,67.050,39.183,19.238,-0.300
'[10:01:48.570 29/12/1995]',-1.051,0.275,-,67.050,39.183,19.238,-0.300
'[10:01:48.572 29/12/1995]',-0.995,0.308,-,67.050,39.183,19.238,-0.300
'[10:01:48.574 29/12/1995]',-0.884,0.341,-,67.050,39.183,19.238,-0.300
'[10:01:48.576 29/12/1995]',-0.775,0.351,-,66.550,39.933,19.113,-0.307
'[10:01:48.578 29/12/1995]',-0.719,0.396,-0.920,66.550,39.933,19.113,-0.307
'[10:01:48.580 29/12/1995]',-0.608,0.417,-0.799,66.550,39.933,19.113,-0.307
'[10:01:48.582 29/12/1995]',-0.496,0.428,-0.679,66.550,39.933,19.113,-0.307
'[10:01:48.584 29/12/1995]',-0.385,0.440,-0.547,65.950,40.409,19.062,-0.316
'[10:01:48.586 29/12/1995]',-0.329,0.451,-0.427,65.950,40.409,19.062,-0.316
'[10:01:48.588 29/12/1995]',-0.218,0.462,-0.306,65.950,40.409,19.062,-0.316
'[10:01:48.590 29/12/1995]',-0.162,0.472,-0.207,65.950,40.409,19.062,-0.316
'[10:01:48.592 29/12/1995]',-0.051,0.505,-0.098,65.350,40.634,19.062,-0.323
'[10:01:48.594 29/12/1995]',0.005,0.472,-0.010,65.350,40.634,19.062,-0.323
'[10:01:48.596 29/12/1995]',0.005,0.462,0.067,65.350,40.634,19.062,-0.323
'[10:01:48.598 29/12/1995]',0.058,0.440,0.133,65.350,40.634,19.062,-0.323
'[10:01:48.600 29/12/1995]',0.114,0.417,0.187,64.700,40.934,19.062,-0.331
'[10:01:48.602 29/12/1995]',0.170,0.362,0.231,64.700,40.934,19.062,-0.331
'[10:01:48.604 29/12/1995]',0.170,0.330,0.253,64.700,40.934,19.062,-0.331
'[10:01:48.606 29/12/1995]',0.170,0.275,0.286,64.700,40.934,19.062,-0.331
'[10:01:48.608 29/12/1995]',0.225,0.242,0.319,64.150,41.284,19.175,-0.338
'[10:01:48.610 29/12/1995]',0.225,0.209,0.351,64.150,41.284,19.175,-0.338
'[10:01:48.612 29/12/1995]',0.281,0.165,0.385,64.150,41.284,19.175,-0.338
'[10:01:48.614 29/12/1995]',0.281,0.143,0.417,64.150,41.284,19.175,-0.338
'[10:01:48.616 29/12/1995]',0.337,0.121,0.440,63.650,41.760,19.238,-0.345
'[10:01:48.618 29/12/1995]',0.337,0.077,0.462,63.650,41.760,19.238,-0.345
'[10:01:48.620 29/12/1995]',0.337,0.044,0.494,63.650,41.760,19.238,-0.345
'[10:01:48.622 29/12/1995]',0.392,0.022,0.527,63.650,41.760,19.238,-0.345
'[10:01:48.624 29/12/1995]',0.392,-0.010,0.549,63.200,42.285,19.350,-0.354
'[10:01:48.626 29/12/1995]',0.448,-0.021,0.582,63.200,42.285,19.350,-0.354
'[10:01:48.628 29/12/1995]',0.448,-0.032,0.593,63.200,42.285,19.350,-0.354
'[10:01:48.630 29/12/1995]',0.448,-0.032,0.615,63.200,42.285,19.350,-0.354
'[10:01:48.632 29/12/1995]',0.448,-0.043,0.625,62.850,42.686,19.525,-0.361
'[10:01:48.634 29/12/1995]',0.448,-0.043,0.625,62.850,42.686,19.525,-0.361
'[10:01:48.636 29/12/1995]',0.448,-0.032,0.636,62.850,42.686,19.525,-0.361
'[10:01:48.638 29/12/1995]',0.448,-0.043,0.636,62.850,42.686,19.525,-0.361
'[10:01:48.640 29/12/1995]',0.504,-0.043,0.647,62.550,42.635,19.700,-0.369
'[10:01:48.642 29/12/1995]',0.504,-0.054,0.658,62.550,42.635,19.700,-0.369
'[10:01:48.644 29/12/1995]',0.504,-0.043,0.669,62.550,42.635,19.700,-0.369
'[10:01:48.646 29/12/1995]',0.504,-0.054,0.680,62.550,42.635,19.700,-0.369
'[10:01:48.648 29/12/1995]',0.504,-0.054,0.692,62.400,41.885,19.875,-0.378
'[10:01:48.650 29/12/1995]',0.504,-0.054,0.692,62.400,41.885,19.875,-0.378
'[10:01:48.652 29/12/1995]',0.504,-0.065,0.703,62.400,41.885,19.875,-0.378
'[10:01:48.654 29/12/1995]',0.504,-0.065,0.703,62.400,41.885,19.875,-0.378
'[10:01:48.656 29/12/1995]',0.504,-0.065,0.714,62.300,40.759,20.050,-0.386
'[10:01:48.658 29/12/1995]',0.559,-0.065,0.725,62.300,40.759,20.050,-0.386
'[10:01:48.660 29/12/1995]',0.559,-0.076,0.736,62.300,40.759,20.050,-0.386
'[10:01:48.662 29/12/1995]',0.559,-0.065,0.757,62.300,40.759,20.050,-0.386
'[10:01:48.664 29/12/1995]',0.559,-0.054,0.768,62.400,39.933,20.175,-0.394
'[10:01:48.666 29/12/1995]',0.559,-0.065,0.779,62.400,39.933,20.175,-0.394
'[10:01:48.668 29/12/1995]',0.615,-0.065,0.790,62.400,39.933,20.175,-0.394
'[10:01:48.670 29/12/1995]',0.615,-0.065,0.812,62.400,39.933,20.175,-0.394
'[10:01:48.672 29/12/1995]',0.615,-0.076,0.812,62.550,39.933,20.225,-0.401
'[10:01:48.674 29/12/1995]',0.615,-0.065,0.834,62.550,39.933,20.225,-0.401
'[10:01:48.676 29/12/1995]',0.615,-0.065,0.845,62.550,39.933,20.225,-0.401
'[10:01:48.678 29/12/1995]',0.671,-0.054,0.867,62.550,39.933,20.225,-0.401
'[10:01:48.680 29/12/1995]',0.671,-0.054,0.889,62.950,40.709,20.350,-0.408
'[10:01:48.682 29/12/1995]',0.671,-0.043,0.911,62.950,40.709,20.350,-0.408
'[10:01:48.684 29/12/1995]',0.671,-0.054,0.922,62.950,40.709,20.350,-0.408
'[10:01:48.686 29/12/1995]',0.727,-0.065,0.944,62.950,40.709,20.350,-0.408
'[10:01:48.688 29/12/1995]',0.727,-0.076,0.955,63.850,41.885,20.400,-0.414
'[10:01:48.690 29/12/1995]',0.727,-0.076,0.977,63.850,41.885,20.400,-0.414
'[10:01:48.692 29/12/1995]',0.727,-0.076,0.999,63.850,41.885,20.400,-0.414
'[10:01:48.694 29/12/1995]',0.782,-0.076,1.010,63.850,41.885,20.400,-0.414
'[10:01:48.696 29/12/1995]',0.782,-0.054,1.024,65.550,43.236,20.525,-0.418
'[10:01:48.698 29/12/1995]',0.782,-0.065,1.024,65.550,43.236,20.525,-0.418
'[10:01:48.700 29/12/1995]',0.835,-0.065,1.024,65.550,43.236,20.525,-0.418
'[10:01:48.702 29/12/1995]',0.835,-0.065,1.024,65.550,43.236,20.525,-0.418
'[10:01:48.704 29/12/1995]',0.835,-0.076,1.024,68.250,44.812,20.587,-0.420
'[10:01:48.706 29/12/1995]',0.891,-0.076,1.024,68.250,44.812,20.587,-0.420
'[10:01:48.708 29/12/1995]',0.891,-0.076,1.024,68.250,44.812,20.587,-0.420
'[10:01:48.710 29/12/1995]',0.947,-0.065,1.024,68.250,44.812,20.587,-0.420
'[10:01:48.712 29/12/1995]',0.947,-0.054,1.024,71.850,46.614,20.587,-0.421
'[10:01:48.714 29/12/1995]',0.947,-0.054,1.024,71.850,46.614,20.587,-0.421
'[10:01:48.716 29/12/1995]',1.003,-0.065,1.024,71.850,46.614,20.587,-0.421
'[10:01:48.718 29/12/1995]',1.003,-0.076,1.024,71.850,46.614,20.587,-0.421
'[10:01:48.720 29/12/1995]',1.058,-0.098,1.024,76.100,48.741,20.587,-0.417
'[10:01:48.722 29/12/1995]',1.058,-0.098,1.024,76.100,48.741,20.587,-0.417
'[10:01:48.724 29/12/1995]',1.058,-0.098,1.024,76.100,48.741,20.587,-0.417
'[10:01:48.726 29/12/1995]',1.114,-0.076,1.024,76.100,48.741,20.587,-0.417
'[10:01:48.728 29/12/1995]',1.114,-0.065,1.024,80.500,50.967,20.587,-0.409
'[10:01:48.730 29/12/1995]',1.114,-0.065,1.024,80.500,50.967,20.587,-0.409
'[10:01:48.732 29/12/1995]',1.170,-0.065,1.024,80.500,50.967,20.587,-0.409
'[10:01:48.734 29/12/1995]',1.170,-0.065,1.024,80.500,50.967,20.587,-0.409
'[10:01:48.736 29/12/1995]',1.170,-0.076,1.024,84.550,53.019,20.525,-0.396
'[10:01:48.738 29/12/1995]',1.170,-0.098,1.024,84.550,53.019,20.525,-0.396
'[10:01:48.740 29/12/1995]',1.170,-0.098,1.024,84.550,53.019,20.525,-0.396
'[10:01:48.742 29/12/1995]',1.170,-0.076,1.024,84.550,53.019,20.525,-0.396
'[10:01:48.744 29/12/1995]',1.170,-0.076,1.024,88.200,54.771,20.525,-0.376
'[10:01:48.746 29/12/1995]',1.225,-0.076,1.024,88.200,54.771,20.525,-0.376
'[10:01:48.748 29/12/1995]',1.225,-0.076,1.024,88.200,54.771,20.525,-0.376
'[10:01:48.750 29/12/1995]',1.225,-0.076,1.024,88.200,54.771,20.525,-0.376
'[10:01:48.752 29/12/1995]',1.170,-0.076,1.024,91.400,56.072,20.462,-0.349
'[10:01:48.754 29/12/1995]',1.170,-0.098,1.024,91.400,56.072,20.462,-0.349
'[10:01:48.756 29/12/1995]',1.170,-0.109,1.024,91.400,56.072,20.462,-0.349
'[10:01:48.758 29/12/1995]',1.170,-0.109,1.024,91.400,56.072,20.462,-0.349
'[10:01:48.760 29/12/1995]',1.170,-0.098,1.024,94.250,56.947,20.400,-0.312
'[10:01:48.762 29/12/1995]',1.114,-0.098,1.024,94.250,56.947,20.400,-0.312
'[10:01:48.764 29/12/1995]',1.114,-0.109,1.024,94.250,56.947,20.400,-0.312
'[10:01:48.766 29/12/1995]',1.114,-0.131,1.024,94.250,56.947,20.400,-0.312
'[10:01:48.768 29/12/1995]',1.058,-0.131,1.024,96.900,57.248,20.350,-0.270
'[10:01:48.770 29/12/1995]',1.058,-0.142,1.024,96.900,57.248,20.350,-0.270
'[10:01:48.772 29/12/1995]',1.003,-0.142,1.024,96.900,57.248,20.350,-0.270
'[10:01:48.774 29/12/1995]',1.003,-0.120,1.024,96.900,57.248,20.350,-0.270
'[10:01:48.776 29/12/1995]',0.947,-0.120,1.024,99.300,56.997,20.288,-0.218
'[10:01:48.778 29/12/1995]',0.947,-0.120,1.024,99.300,56.997,20.288,-0.218
'[10:01:48.780 29/12/1995]',0.891,-0.109,1.024,99.300,56.997,20.288,-0.218
'[10:01:48.782 29/12/1995]',0.891,-0.131,1.024,99.300,56.997,20.288,-0.218
'[10:01:48.784 29/12/1995]',0.835,-0.142,1.024,101.500,56.072,20.225,-0.164
'[10:01:48.786 29/12/1995]',0.835,-0.142,1.024,101.500,56.072,20.225,-0.164
'[10:01:48.788 29/12/1995]',0.782,-0.142,0.999,101.500,56.072,20.225,-0.164
'[10:01:48.790 29/12/1995]',0.727,-0.142,0.955,101.500,56.072,20.225,-0.164
'[10:01:48.792 29/12/1995]',0.727,-0.131,0.922,103.750,54.545,20.113,-0.104
'[10:01:48.794 29/12/1995]',0.671,-0.131,0.889,103.750,54.545,20.113,-0.104
'[10:01:48.796 29/12/1995]',0.671,-0.120,0.845,103.750,54.545,20.113,-0.104
'[10:01:48.798 29/12/1995]',0.615,-0.120,0.812,103.750,54.545,20.113,-0.104
'[10:01:48.800 29/12/1995]',0.615,-0.120,0.768,105.950,52.544,20.050,-0.043
'[10:01:48.802 29/12/1995]',0.559,-0.131,0.747,105.950,52.544,20.050,-0.043
'[10:01:48.804 29/12/1995]',0.504,-0.142,0.703,105.950,52.544,20.050,-0.043
'[10:01:48.806 29/12/1995]',0.504,-0.142,0.669,105.950,52.544,20.050,-0.043
'[10:01:48.808 29/12/1995]',0.504,-0.131,0.636,108.250,50.142,19.938,0.017
'[10:01:48.810 29/12/1995]',0.448,-0.120,0.615,108.250,50.142,19.938,0.017
'[10:01:48.812 29/12/1995]',0.448,-0.109,0.604,108.250,50.142,19.938,0.017
'[10:01:48.814 29/12/1995]',0.448,-0.098,0.571,108.250,50.142,19.938,0.017
'[10:01:48.816 29/12/1995]',0.392,-0.076,0.538,110.250,47.565,19.875,0.073
'[10:01:48.818 29/12/1995]',0.392,-0.076,0.527,110.250,47.565,19.875,0.073
'[10:01:48.820 29/12/1995]',0.392,-0.098,0.494,110.250,47.565,19.875,0.073
'[10:01:48.822 29/12/1995]',0.337,-0.098,0.462,110.250,47.565,19.875,0.073
'[10:01:48.824 29/12/1995]',0.337,-0.065,0.462,111.750,44.737,19.825,0.127
'[10:01:48.826 29/12/1995]',0.337,-0.076,0.440,111.750,44.737,19.825,0.127
'[10:01:48.828 29/12/1995]',0.337,-0.065,0.440,111.750,44.737,19.825,0.127
'[10:01:48.830 29/12/1995]',0.337,-0.054,0.428,111.750,44.737,19.825,0.127
'[10:01:48.832 29/12/1995]',0.281,-0.054,0.417,112.850,41.885,19.700,0.174
'[10:01:48.834 29/12/1995]',0.281,-0.054,0.396,112.850,41.885,19.700,0.174
'[10:01:48.836 29/12/1995]',0.281,-0.065,0.385,112.850,41.885,19.700,0.174
'[10:01:48.838 29/12/1995]',0.281,-0.065,0.385,112.850,41.885,19.700,0.174
'[10:01:48.840 29/12/1995]',0.281,-0.054,0.373,113.250,38.932,19.525,0.217
'[10:01:48.842 29/12/1995]',0.281,-0.043,0.362,113.250,38.932,19.525,0.217
'[10:01:48.844 29/12/1995]',0.281,-0.032,0.351,113.250,38.932,19.525,0.217
'[10:01:48.846 29/12/1995]',0.281,-0.021,0.341,113.250,38.932,19.525,0.217
'[10:01:48.848 29/12/1995]',0.225,-0.021,0.341,113.000,36.080,19.288,0.255
'[10:01:48.850 29/12/1995]',0.225,-0.021,0.330,113.000,36.080,19.288,0.255
'[10:01:48.852 29/12/1995]',0.225,-0.032,0.330,113.000,36.080,19.288,0.255
'[10:01:48.854 29/12/1995]',0.225,-0.054,0.319,113.000,36.080,19.288,0.255
'[10:01:48.856 29/12/1995]',0.225,-0.043,0.319,111.950,33.303,19.062,0.288
'[10:01:48.858 29/12/1995]',0.225,-0.043,0.319,111.950,33.303,19.062,0.288
'[10:01:48.860 29/12/1995]',0.225,-0.032,0.319,111.950,33.303,19.062,0.288
'[10:01:48.862 29/12/1995]',0.225,-0.021,0.319,111.950,33.303,19.062,0.288
'[10:01:48.864 29/12/1995]',0.225,-0.021,0.319,110.000,30.726,18.825,0.317
'[10:01:48.866 29/12/1995]',0.225,-0.032,0.319,110.000,30.726,18.825,0.317
'[10:01:48.868 29/12/1995]',0.225,-0.032,0.319,110.000,30.726,18.825,0.317
'[10:01:48.870 29/12/1995]',0.225,-0.043,0.308,110.000,30.726,18.825,0.317
'[10:01:48.872 29/12/1995]',0.225,-0.043,0.308,107.450,28.499,18.587,0.341
'[10:01:48.874 29/12/1995]',0.225,-0.043,0.308,107.450,28.499,18.587,0.341
'[10:01:48.876 29/12/1995]',0.225,-0.032,0.308,107.450,28.499,18.587,0.341
'[10:01:48.878 29/12/1995]',0.225,-0.021,0.308,107.450,28.499,18.587,0.341
'[10:01:48.880 29/12/1995]',0.225,-0.010,0.319,104.200,26.747,18.238,0.361
'[10:01:48.882 29/12/1995]',0.225,-0.021,0.308,104.200,26.747,18.238,0.361
'[10:01:48.884 29/12/1995]',0.225,-0.032,0.308,104.200,26.747,18.238,0.361
'[10:01:48.886 29/12/1995]',0.225,-0.032,0.308,104.200,26.747,18.238,0.361
'[10:01:48.888 29/12/1995]',0.225,-0.032,0.308,100.500,25.696,17.887,0.378
'[10:01:48.890 29/12/1995]',0.225,-0.032,0.297,100.500,25.696,17.887,0.378
'[10:01:48.892 29/12/1995]',0.225,-0.021,0.308,100.500,25.696,17.887,0.378
'[10:01:48.894 29/12/1995]',0.225,-0.010,0.308,100.500,25.696,17.887,0.378
'[10:01:48.896 29/12/1995]',0.225,-0.010,0.308,96.750,25.396,17.413,0.387
'[10:01:48.898 29/12/1995]',0.225,-0.021,0.308,96.750,25.396,17.413,0.387
'[10:01:48.900 29/12/1995]',0.225,-0.032,0.308,96.750,25.396,17.413,0.387
'[10:01:48.902 29/12/1995]',0.225,-0.043,0.308,96.750,25.396,17.413,0.387
'[10:01:48.904 29/12/1995]',0.225,-0.043,0.308,93.450,26.047,16.950,0.391
'[10:01:48.906 29/12/1995]',0.225,-0.054,0.297,93.450,26.047,16.950,0.391
'[10:01:48.908 29/12/1995]',0.225,-0.043,0.297,93.450,26.047,16.950,0.391
'[10:01:48.910 29/12/1995]',0.225,-0.032,0.297,93.450,26.047,16.950,0.391
'[10:01:48.912 29/12/1995]',0.225,-0.032,0.297,90.700,27.673,16.475,0.389
'[10:01:48.914 29/12/1995]',0.225,-0.032,0.308,90.700,27.673,16.475,0.389
'[10:01:48.916 29/12/1995]',0.225,-0.043,0.286,90.700,27.673,16.475,0.389
'[10:01:48.918 29/12/1995]',0.225,-0.054,0.297,90.700,27.673,16.475,0.389
'[10:01:48.920 29/12/1995]',0.225,-0.054,0.297,88.450,30.100,16.075,0.379
'[10:01:48.922 29/12/1995]',0.225,-0.065,0.286,88.450,30.100,16.075,0.379
'[10:01:48.924 29/12/1995]',0.225,-0.054,0.297,88.450,30.100,16.075,0.379
'[10:01:48.926 29/12/1995]',0.225,-0.054,0.297,88.450,30.100,16.075,0.379
'[10:01:48.928 29/12/1995]',0.225,-0.043,0.297,86.600,33.128,15.713,0.361
'[10:01:48.930 29/12/1995]',0.671,0.933,0.900,86.600,33.128,15.713,0.361
'[10:01:48.932 29/12/1995]',0.727,1.024,0.911,86.600,33.128,15.713,0.361
'[10:01:48.934 29/12/1995]',0.504,0.625,0.636,86.600,33.128,15.713,0.361
'[10:01:48.936 29/12/1995]',0.337,0.319,0.472,84.950,36.881,15.312,0.338
'[10:01:48.938 29/12/1995]',0.281,0.121,0.362,84.950,36.881,15.312,0.338
'[10:01:48.940 29/12/1995]',0.225,0.001,0.275,84.950,36.881,15.312,0.338
'[10:01:48.942 29/12/1995]',0.170,-0.098,0.242,84.950,36.881,15.312,0.338
'[10:01:48.944 29/12/1995]',0.114,-0.153,0.198,83.400,41.359,14.963,0.309
'[10:01:48.946 29/12/1995]',0.114,-0.230,0.154,83.400,41.359,14.963,0.309
'[10:01:48.948 29/12/1995]',0.058,-0.306,0.121,83.400,41.359,14.963,0.309
'[10:01:48.950 29/12/1995]',0.058,-0.361,0.077,83.400,41.359,14.963,0.309
'[10:01:48.952 29/12/1995]',0.058,-0.405,0.067,82.100,45.813,14.662,0.276
'[10:01:48.954 29/12/1995]',0.005,-0.438,0.044,82.100,45.813,14.662,0.276
'[10:01:48.956 29/12/1995]',0.005,-0.438,0.044,82.100,45.813,14.662,0.276
'[10:01:48.958 29/12/1995]',0.005,-0.416,0.056,82.100,45.813,14.662,0.276
'[10:01:48.960 29/12/1995]',0.058,-0.394,0.077,80.950,49.091,14.375,0.236
'[10:01:48.962 29/12/1995]',0.058,-0.339,0.088,80.950,49.091,14.375,0.236
'[10:01:48.964 29/12/1995]',0.058,-0.306,0.121,80.950,49.091,14.375,0.236
'[10:01:48.966 29/12/1995]',0.114,-0.263,0.154,80.950,49.091,14.375,0.236
'[10:01:48.968 29/12/1995]',0.114,-0.240,0.154,79.850,50.267,14.200,0.200
'[10:01:48.970 29/12/1995]',0.114,-0.218,0.154,79.850,50.267,14.200,0.200
'[10:01:48.972 29/12/1995]',0.114,-0.197,0.165,79.850,50.267,14.200,0.200
'[10:01:48.974 29/12/1995]',0.114,-0.153,0.165,79.850,50.267,14.200,0.200
'[10:01:48.976 29/12/1995]',0.114,-0.131,0.176,78.800,49.616,14.075,0.160
'[10:01:48.978 29/12/1995]',0.114,-0.120,0.187,78.800,49.616,14.075,0.160
'[10:01:48.980 29/12/1995]',0.114,-0.109,0.187,78.800,49.616,14.075,0.160
'[10:01:48.982 29/12/1995]',0.114,-0.109,0.187,78.800,49.616,14.075,0.160
'[10:01:48.984 29/12/1995]',0.114,-0.098,0.187,77.600,48.040,13.900,0.121
'[10:01:48.986 29/12/1995]',0.114,-0.098,0.187,77.600,48.040,13.900,0.121
'[10:01:48.988 29/12/1995]',0.114,-0.076,0.187,77.600,48.040,13.900,0.121
'[10:01:48.990 29/12/1995]',0.114,-0.065,0.198,77.600,48.040,13.900,0.121
'[10:01:48.992 29/12/1995]',0.114,-0.054,0.198,76.550,46.264,13.787,0.085
'[10:01:48.994 29/12/1995]',0.114,-0.043,0.198,76.550,46.264,13.787,0.085
'[10:01:48.996 29/12/1995]',0.170,-0.032,0.198,76.550,46.264,13.787,0.085
'[10:01:48.998 29/12/1995]',0.170,-0.021,0.209,76.550,46.264,13.787,0.085
'[10:01:49.000 29/12/1995]',0.114,-0.021,0.198,75.550,44.212,13.725,0.050
'[10:01:49.002 29/12/1995]',0.114,-0.021,0.198,75.550,44.212,13.725,0.050
'[10:01:49.004 29/12/1995]',0.114,-0.043,0.187,75.550,44.212,13.725,0.050
'[10:01:49.006 29/12/1995]',0.114,-0.043,0.176,75.550,44.212,13.725,0.050
'[10:01:49.008 29/12/1995]',0.114,-0.054,0.176,74.700,41.935,13.662,0.017
'[10:01:49.010 29/12/1995]',0.114,-0.054,0.176,74.700,41.935,13.662,0.017
'[10:01:49.012 29/12/1995]',0.114,-0.054,0.165,74.700,41.935,13.662,0.017
'[10:01:49.014 29/12/1995]',0.114,-0.043,0.165,74.700,41.935,13.662,0.017
'[10:01:49.016 29/12/1995]',0.114,-0.032,0.165,74.000,39.358,13.725,-0.013
'[10:01:49.018 29/12/1995]',0.114,-0.032,0.154,74.000,39.358,13.725,-0.013
'[10:01:49.020 29/12/1995]',0.114,-0.021,0.154,74.000,39.358,13.725,-0.013
'[10:01:49.022 29/12/1995]',0.114,-0.010,0.154,74.000,39.358,13.725,-0.013
'[10:01:49.024 29/12/1995]',0.114,0.011,0.154,73.400,36.956,13.838,-0.044
'[10:01:49.026 29/12/1995]',0.114,0.022,0.165,73.400,36.956,13.838,-0.044
'[10:01:49.028 29/12/1995]',0.114,0.044,0.176,73.400,36.956,13.838,-0.044
'[10:01:49.030 29/12/1995]',0.114,0.056,0.187,73.400,36.956,13.838,-0.044
'[10:01:49.032 29/12/1995]',0.114,0.067,0.187,72.900,34.829,14.075,-0.072
'[10:01:49.034 29/12/1995]',0.114,0.067,0.187,72.900,34.829,14.075,-0.072
'[10:01:49.036 29/12/1995]',0.114,0.067,0.176,72.900,34.829,14.075,-0.072
'[10:01:49.038 29/12/1995]',0.114,0.067,0.176,72.900,34.829,14.075,-0.072
'[10:01:49.040 29/12/1995]',0.114,0.067,0.176,72.500,33.078,14.312,-0.100
'[10:01:49.042 29/12/1995]',0.114,0.077,0.176,72.500,33.078,14.312,-0.100
'[10:01:49.044 29/12/1995]',0.114,0.100,0.176,72.500,33.078,14.312,-0.100
'[10:01:49.046 29/12/1995]',0.114,0.111,0.187,72.500,33.078,14.312,-0.100
'[10:01:49.048 29/12/1995]',0.114,0.111,0.198,72.200,31.726,14.600,-0.127
'[10:01:49.050 29/12/1995]',0.170,0.077,0.209,72.200,31.726,14.600,-0.127
'[10:01:49.052 29/12/1995]',0.170,0.067,0.220,72.200,31.726,14.600,-0.127
'[10:01:49.054 29/12/1995]',0.170,0.056,0.220,72.200,31.726,14.600,-0.127
'[10:01:49.056 29/12/1995]',0.170,0.044,0.231,71.850,30.676,14.963,-0.153
'[10:01:49.058 29/12/1995]',0.170,0.044,0.231,71.850,30.676,14.963,-0.153
'[10:01:49.060 29/12/1995]',0.170,0.056,0.231,71.850,30.676,14.963,-0.153
'[10:01:49.062 29/12/1995]',0.170,0.056,0.231,71.850,30.676,14.963,-0.153
'[10:01:49.064 29/12/1995]',0.170,0.056,0.231,71.600,29.900,15.312,-0.177
'[10:01:49.066 29/12/1995]',0.170,0.034,0.242,71.600,29.900,15.312,-0.177
'[10:01:49.068 29/12/1995]',0.170,0.011,0.242,71.600,29.900,15.312,-0.177
'[10:01:49.070 29/12/1995]',0.170,-0.021,0.231,71.600,29.900,15.312,-0.177
'[10:01:49.072 29/12/1995]',0.170,-0.043,0.231,71.300,29.324,15.600,-0.201
'[10:01:49.074 29/12/1995]',0.170,-0.021,0.231,71.300,29.324,15.600,-0.201
'[10:01:49.076 29/12/1995]',0.170,-0.032,0.220,71.300,29.324,15.600,-0.201
'[10:01:49.078 29/12/1995]',0.170,-0.021,0.231,71.300,29.324,15.600,-0.201
'[10:01:49.080 29/12/1995]',0.170,-0.010,0.231,71.100,28.849,15.950,-0.223
'[10:01:49.082 29/12/1995]',0.170,-0.010,0.220,71.100,28.849,15.950,-0.223
'[10:01:49.084 29/12/1995]',0.170,-0.021,0.264,71.100,28.849,15.950,-0.223
'[10:01:49.086 29/12/1995]',0.114,-0.043,0.154,71.100,28.849,15.950,-0.223
'[10:01:49.088 29/12/1995]',0.114,-0.043,0.165,70.950,28.574,16.250,-0.242
'[10:01:49.090 29/12/1995]',0.114,-0.043,0.187,70.950,28.574,16.250,-0.242
'[10:01:49.092 29/12/1995]',0.114,-0.032,0.198,70.950,28.574,16.250,-0.242
'[10:01:49.094 29/12/1995]',0.114,-0.021,0.209,70.950,28.574,16.250,-0.242
'[10:01:49.096 29/12/1995]',0.170,-0.021,0.220,70.650,28.399,16.538,-0.261
'[10:01:49.098 29/12/1995]',0.170,-0.021,0.220,70.650,28.399,16.538,-0.261
'[10:01:49.100 29/12/1995]',0.170,-0.021,0.220,70.650,28.399,16.538,-0.261
'[10:01:49.102 29/12/1995]',0.170,-0.032,0.220,70.650,28.399,16.538,-0.261
'[10:01:49.104 29/12/1995]',0.170,-0.032,0.220,70.250,28.324,16.712,-0.276
'[10:01:49.106 29/12/1995]',0.114,-0.032,0.209,70.250,28.324,16.712,-0.276
'[10:01:49.108 29/12/1995]',0.114,-0.032,0.209,70.250,28.324,16.712,-0.276
'[10:01:49.110 29/12/1995]',0.170,-0.032,0.209,70.250,28.324,16.712,-0.276
'[10:01:49.112 29/12/1995]',0.170,-0.021,0.220,69.900,28.324,16.950,-0.289
'[10:01:49.114 29/12/1995]',0.170,-0.021,0.209,69.900,28.324,16.950,-0.289
'[10:01:49.116 29/12/1995]',0.170,-0.032,0.220,69.900,28.324,16.950,-0.289
'[10:01:49.118 29/12/1995]',0.170,-0.043,0.220,69.900,28.324,16.950,-0.289
'[10:01:49.120 29/12/1995]',0.170,-0.043,0.220,69.600,28.399,17.062,-0.301
'[10:01:49.122 29/12/1995]',0.114,-0.043,0.209,69.600,28.399,17.062,-0.301
'[10:01:49.124 29/12/1995]',0.170,-0.032,0.209,69.600,28.399,17.062,-0.301
'[10:01:49.126 29/12/1995]',0.170,-0.032,0.220,69.600,28.399,17.062,-0.301
'[10:01:49.128 29/12/1995]',0.170,-0.021,0.220,69.300,28.574,17.188,-0.310
'[10:01:49.130 29/12/1995]',0.170,-0.021,0.231,69.300,28.574,17.188,-0.310
'[10:01:49.132 29/12/1995]',0.170,-0.021,0.231,69.300,28.574,17.188,-0.310
'[10:01:49.134 29/12/1995]',0.170,-0.032,0.220,69.300,28.574,17.188,-0.310
'[10:01:49.136 29/12/1995]',0.170,-0.043,0.220,68.950,28.749,17.238,-0.320
'[10:01:49.138 29/12/1995]',0.114,-0.043,0.220,68.950,28.749,17.238,-0.320
'[10:01:49.140 29/12/1995]',0.114,-0.043,0.209,68.950,28.749,17.238,-0.320
'[10:01:49.142 29/12/1995]',0.114,-0.043,0.209,68.950,28.749,17.238,-0.320
'[10:01:49.144 29/12/1995]',0.170,-0.032,0.209,68.600,29.024,17.238,-0.327
'[10:01:49.146 29/12/1995]',0.114,-0.032,0.209,68.600,29.024,17.238,-0.327
'[10:01:49.148 29/12/1995]',0.114,-0.021,0.209,68.600,29.024,17.238,-0.327
'[10:01:49.150 29/12/1995]',0.114,-0.021,0.209,68.600,29.024,17.238,-0.327
'[10:01:49.152 29/12/1995]',0.114,-0.021,0.187,68.250,29.274,17.238,-0.334
'[10:01:49.154 29/12/1995]',0.114,-0.021,0.176,68.250,29.274,17.238,-0.334
'[10:01:49.156 29/12/1995]',0.114,-0.010,0.154,68.250,29.274,17.238,-0.334
'[10:01:49.158 29/12/1995]',0.058,-0.010,0.111,68.250,29.274,17.238,-0.334
'[10:01:49.160 29/12/1995]',0.005,-0.010,0.034,67.900,29.450,17.238,-0.341
'[10:01:49.162 29/12/1995]',0.005,-0.010,-0.076,67.900,29.450,17.238,-0.341
'[10:01:49.164 29/12/1995]',-0.106,-0.021,-0.207,67.900,29.450,17.238,-0.341
'[10:01:49.166 29/12/1995]',-0.218,-0.032,-0.339,67.900,29.450,17.238,-0.341
'[10:01:49.168 29/12/1995]',-0.385,-0.065,-0.503,67.550,29.550,17.188,-0.346
'[10:01:49.170 29/12/1995]',-0.496,-0.098,-0.690,67.550,29.550,17.188,-0.346
'[10:01:49.172 29/12/1995]',-0.663,-0.109,-0.909,67.550,29.550,17.188,-0.346
'[10:01:49.174 29/12/1995]',-0.828,-0.109,-,67.550,29.550,17.188,-0.346
'[10:01:49.176 29/12/1995]',-0.995,-0.098,-,67.300,29.625,17.062,-0.352
'[10:01:49.178 29/12/1995]',-1.162,-0.109,-,67.300,29.625,17.062,-0.352
'[10:01:49.180 29/12/1995]',-1.329,-0.109,-,67.300,29.625,17.062,-0.352
'[10:01:49.182 29/12/1995]',-1.441,-0.120,-,67.300,29.625,17.062,-0.352
'[10:01:49.184 29/12/1995]',-1.552,-0.109,-,67.000,29.625,16.950,-0.360
'[10:01:49.186 29/12/1995]',-1.661,-0.076,-,67.000,29.625,16.950,-0.360
'[10:01:49.188 29/12/1995]',-1.772,-0.043,-,67.000,29.625,16.950,-0.360
'[10:01:49.190 29/12/1995]',-1.884,-0.010,-,67.000,29.625,16.950,-0.360
'[10:01:49.192 29/12/1995]',-1.939,0.022,-,66.700,29.625,16.837,-0.366
'[10:01:49.194 29/12/1995]',-2.051,0.034,-,66.700,29.625,16.837,-0.366
'[10:01:49.196 29/12/1995]',-2.106,0.056,-,66.700,29.625,16.837,-0.366
'[10:01:49.198 29/12/1995]',-2.162,0.100,-,66.700,29.625,16.837,-0.366
'[10:01:49.200 29/12/1995]',-2.218,0.121,-,66.300,29.675,16.712,-0.371
'[10:01:49.202 29/12/1995]',-2.273,0.121,-,66.300,29.675,16.712,-0.371
'[10:01:49.204 29/12/1995]',-2.273,0.111,-,66.300,29.675,16.712,-0.371
'[10:01:49.206 29/12/1995]',-2.273,0.121,-,66.300,29.675,16.712,-0.371
'[10:01:49.208 29/12/1995]',-2.329,0.133,-,65.850,29.975,16.600,-0.376
'[10:01:49.210 29/12/1995]',-2.329,0.121,-,65.850,29.975,16.600,-0.376
'[10:01:49.212 29/12/1995]',-2.273,0.121,-,65.850,29.975,16.600,-0.376
'[10:01:49.214 29/12/1995]',-2.218,0.111,-,65.850,29.975,16.600,-0.376
'[10:01:49.216 29/12/1995]',-2.162,0.077,-,65.350,30.550,16.475,-0.382
'[10:01:49.218 29/12/1995]',-2.051,0.100,-,65.350,30.550,16.475,-0.382
'[10:01:49.220 29/12/1995]',-1.995,0.100,-,65.350,30.550,16.475,-0.382
'[10:01:49.222 29/12/1995]',-1.884,0.121,-,65.350,30.550,16.475,-0.382
'[10:01:49.224 29/12/1995]',-1.772,0.165,-,64.950,31.501,16.475,-0.386
'[10:01:49.226 29/12/1995]',-1.661,0.209,-,64.950,31.501,16.475,-0.386
'[10:01:49.228 29/12/1995]',-1.496,0.242,-,64.950,31.501,16.475,-0.386
'[10:01:49.230 29/12/1995]',-1.385,0.275,-,64.950,31.501,16.475,-0.386
'[10:01:49.232 29/12/1995]',-1.273,0.308,-,64.500,32.602,16.538,-0.390
'[10:01:49.234 29/12/1995]',-1.218,0.330,-,64.500,32.602,16.538,-0.390
'[10:01:49.236 29/12/1995]',-1.106,0.330,-,64.500,32.602,16.538,-0.390
'[10:01:49.238 29/12/1995]',-1.051,0.362,-,64.500,32.602,16.538,-0.390
'[10:01:49.240 29/12/1995]',-0.939,0.396,-,63.950,33.603,16.650,-0.395
'[10:01:49.242 29/12/1995]',-0.828,0.406,-,63.950,33.603,16.650,-0.395
'[10:01:49.244 29/12/1995]',-0.719,0.428,-0.986,63.950,33.603,16.650,-0.395
'[10:01:49.246 29/12/1995]',-0.663,0.451,-0.844,63.950,33.603,16.650,-0.395
'[10:01:49.248 29/12/1995]',-0.552,0.472,-0.723,63.450,34.078,16.887,-0.400
'[10:01:49.250 29/12/1995]',-0.441,0.494,-0.603,63.450,34.078,16.887,-0.400
'[10:01:49.252 29/12/1995]',-0.329,0.494,-0.481,63.450,34.078,16.887,-0.400
'[10:01:49.254 29/12/1995]',-0.273,0.505,-0.372,63.450,34.078,16.887,-0.400
'[10:01:49.256 29/12/1995]',-0.162,0.505,-0.252,62.900,34.254,17.238,-0.406
'[10:01:49.258 29/12/1995]',-0.106,0.505,-0.153,62.900,34.254,17.238,-0.406
'[10:01:49.260 29/12/1995]',0.005,0.516,-0.043,62.900,34.254,17.238,-0.406
'[10:01:49.262 29/12/1995]',0.005,0.505,0.034,62.900,34.254,17.238,-0.406
'[10:01:49.264 29/12/1995]',0.058,0.494,0.121,62.400,34.479,17.650,-0.411
'[10:01:49.266 29/12/1995]',0.114,0.451,0.176,62.400,34.479,17.650,-0.411
'[10:01:49.268 29/12/1995]',0.170,0.406,0.209,62.400,34.479,17.650,-0.411
'[10:01:49.270 29/12/1995]',0.170,0.351,0.242,62.400,34.479,17.650,-0.411
'[10:01:49.272 29/12/1995]',0.225,0.308,0.286,61.850,35.079,18.062,-0.416
'[10:01:49.274 29/12/1995]',0.225,0.264,0.308,61.850,35.079,18.062,-0.416
'[10:01:49.276 29/12/1995]',0.225,0.231,0.341,61.850,35.079,18.062,-0.416
'[10:01:49.278 29/12/1995]',0.281,0.198,0.385,61.850,35.079,18.062,-0.416
'[10:01:49.280 29/12/1995]',0.281,0.165,0.406,61.450,36.005,18.587,-0.421
'[10:01:49.282 29/12/1995]',0.337,0.133,0.451,61.450,36.005,18.587,-0.421
'[10:01:49.284 29/12/1995]',0.337,0.100,0.472,61.450,36.005,18.587,-0.421
'[10:01:49.286 29/12/1995]',0.392,0.067,0.505,61.450,36.005,18.587,-0.421
'[10:01:49.288 29/12/1995]',0.392,0.034,0.527,61.050,37.006,19.062,-0.428
'[10:01:49.290 29/12/1995]',0.392,0.011,0.549,61.050,37.006,19.062,-0.428
'[10:01:49.292 29/12/1995]',0.448,-0.010,0.571,61.050,37.006,19.062,-0.428
'[10:01:49.294 29/12/1995]',0.448,-0.021,0.615,61.050,37.006,19.062,-0.428
'[10:01:49.296 29/12/1995]',0.448,-0.021,0.625,60.600,37.781,19.587,-0.434
'[10:01:49.298 29/12/1995]',0.504,-0.021,0.636,60.600,37.781,19.587,-0.434
'[10:01:49.300 29/12/1995]',0.504,-0.043,0.636,60.600,37.781,19.587,-0.434
'[10:01:49.302 29/12/1995]',0.504,-0.054,0.658,60.600,37.781,19.587,-0.434
'[10:01:49.304 29/12/1995]',0.504,-0.054,0.669,60.350,38.232,20.050,-0.441
'[10:01:49.306 29/12/1995]',0.504,-0.065,0.658,60.350,38.232,20.050,-0.441
'[10:01:49.308 29/12/1995]',0.504,-0.054,0.680,60.350,38.232,20.050,-0.441
'[10:01:49.310 29/12/1995]',0.504,-0.065,0.692,60.350,38.232,20.050,-0.441
'[10:01:49.312 29/12/1995]',0.504,-0.054,0.703,60.200,38.307,20.462,-0.448
'[10:01:49.314 29/12/1995]',0.559,-0.065,0.714,60.200,38.307,20.462,-0.448
'[10:01:49.316 29/12/1995]',0.559,-0.065,0.725,60.200,38.307,20.462,-0.448
'[10:01:49.318 29/12/1995]',0.559,-0.065,0.725,60.200,38.307,20.462,-0.448
'[10:01:49.320 29/12/1995]',0.559,-0.076,0.736,60.150,37.831,20.875,-0.455
'[10:01:49.322 29/12/1995]',0.559,-0.076,0.747,60.150,37.831,20.875,-0.455
'[10:01:49.324 29/12/1995]',0.559,-0.076,0.757,60.150,37.831,20.875,-0.455
'[10:01:49.326 29/12/1995]',0.559,-0.065,0.768,60.150,37.831,20.875,-0.455
'[10:01:49.328 29/12/1995]',0.615,-0.054,0.768,60.100,37.056,21.163,-0.462
'[10:01:49.330 29/12/1995]',0.615,-0.054,0.790,60.100,37.056,21.163,-0.462
'[10:01:49.332 29/12/1995]',0.615,-0.065,0.790,60.100,37.056,21.163,-0.462
'[10:01:49.334 29/12/1995]',0.615,-0.065,0.801,60.100,37.056,21.163,-0.462
'[10:01:49.336 29/12/1995]',0.615,-0.065,0.823,60.150,36.530,21.400,-0.467
'[10:01:49.338 29/12/1995]',0.615,-0.076,0.823,60.150,36.530,21.400,-0.467
'[10:01:49.340 29/12/1995]',0.615,-0.065,0.845,60.150,36.530,21.400,-0.467
'[10:01:49.342 29/12/1995]',0.671,-0.065,0.856,60.150,36.530,21.400,-0.467
'[10:01:49.344 29/12/1995]',0.671,-0.065,0.878,60.400,36.706,21.462,-0.471
'[10:01:49.346 29/12/1995]',0.671,-0.065,0.911,60.400,36.706,21.462,-0.471
'[10:01:49.348 29/12/1995]',0.727,-0.065,0.922,60.400,36.706,21.462,-0.471
'[10:01:49.350 29/12/1995]',0.727,-0.076,0.944,60.400,36.706,21.462,-0.471
'[10:01:49.352 29/12/1995]',0.727,-0.076,0.955,60.950,37.406,21.462,-0.476
'[10:01:49.354 29/12/1995]',0.727,-0.076,0.977,60.950,37.406,21.462,-0.476
'[10:01:49.356 29/12/1995]',0.727,-0.098,0.999,60.950,37.406,21.462,-0.476
'[10:01:49.358 29/12/1995]',0.782,-0.076,1.010,60.950,37.406,21.462,-0.476
'[10:01:49.360 29/12/1995]',0.782,-0.065,1.024,62.150,38.307,21.400,-0.478
'[10:01:49.362 29/12/1995]',0.835,-0.065,1.024,62.150,38.307,21.400,-0.478
'[10:01:49.364 29/12/1995]',0.835,-0.065,1.024,62.150,38.307,21.400,-0.478
'[10:01:49.366 29/12/1995]',0.835,-0.065,1.024,62.150,38.307,21.400,-0.478
'[10:01:49.368 29/12/1995]',0.891,-0.065,1.024,64.100,39.283,21.288,-0.480
'[10:01:49.370 29/12/1995]',0.891,-0.076,1.024,64.100,39.283,21.288,-0.480
'[10:01:49.372 29/12/1995]',0.891,-0.098,1.024,64.100,39.283,21.288,-0.480
'[10:01:49.374 29/12/1995]',0.947,-0.076,1.024,64.100,39.283,21.288,-0.480
'[10:01:49.376 29/12/1995]',0.947,-0.076,1.024,67.050,40.584,21.113,-0.478
'[10:01:49.378 29/12/1995]',1.003,-0.065,1.024,67.050,40.584,21.113,-0.478
'[10:01:49.380 29/12/1995]',1.003,-0.065,1.024,67.050,40.584,21.113,-0.478
'[10:01:49.382 29/12/1995]',1.003,-0.054,1.024,67.050,40.584,21.113,-0.478
'[10:01:49.384 29/12/1995]',1.058,-0.065,1.024,70.950,42.410,20.938,-0.474
'[10:01:49.386 29/12/1995]',1.058,-0.076,1.024,70.950,42.410,20.938,-0.474
'[10:01:49.388 29/12/1995]',1.114,-0.076,1.024,70.950,42.410,20.938,-0.474
'[10:01:49.390 29/12/1995]',1.114,-0.076,1.024,70.950,42.410,20.938,-0.474
'[10:01:49.392 29/12/1995]',1.114,-0.076,1.024,75.400,44.562,20.700,-0.468
'[10:01:49.394 29/12/1995]',1.170,-0.065,1.024,75.400,44.562,20.700,-0.468
'[10:01:49.396 29/12/1995]',1.170,-0.065,1.024,75.400,44.562,20.700,-0.468
'[10:01:49.398 29/12/1995]',1.170,-0.076,1.024,75.400,44.562,20.700,-0.468
'[10:01:49.400 29/12/1995]',1.225,-0.076,1.024,79.850,46.689,20.400,-0.456
'[10:01:49.402 29/12/1995]',1.225,-0.109,1.024,79.850,46.689,20.400,-0.456
'[10:01:49.404 29/12/1995]',1.225,-0.098,1.024,79.850,46.689,20.400,-0.456
'[10:01:49.406 29/12/1995]',1.225,-0.098,1.024,79.850,46.689,20.400,-0.456
'[10:01:49.408 29/12/1995]',1.225,-0.098,1.024,83.950,48.565,20.175,-0.439
'[10:01:49.410 29/12/1995]',1.225,-0.076,1.024,83.950,48.565,20.175,-0.439
'[10:01:49.412 29/12/1995]',1.225,-0.065,1.024,83.950,48.565,20.175,-0.439
'[10:01:49.414 29/12/1995]',1.225,-0.076,1.024,83.950,48.565,20.175,-0.439
'[10:01:49.416 29/12/1995]',1.225,-0.076,1.024,87.550,50.092,20.000,-0.413
'[10:01:49.418 29/12/1995]',1.225,-0.098,1.024,87.550,50.092,20.000,-0.413
'[10:01:49.420 29/12/1995]',1.225,-0.109,1.024,87.550,50.092,20.000,-0.413
'[10:01:49.422 29/12/1995]',1.225,-0.109,1.024,87.550,50.092,20.000,-0.413
'[10:01:49.424 29/12/1995]',1.225,-0.109,1.024,90.750,51.193,19.762,-0.380
'[10:01:49.426 29/12/1995]',1.170,-0.109,1.024,90.750,51.193,19.762,-0.380
'[10:01:49.428 29/12/1995]',1.170,-0.109,1.024,90.750,51.193,19.762,-0.380
'[10:01:49.430 29/12/1995]',1.170,-0.109,1.024,90.750,51.193,19.762,-0.380
'[10:01:49.432 29/12/1995]',1.114,-0.098,1.024,93.450,51.843,19.587,-0.338
'[10:01:49.434 29/12/1995]',1.114,-0.109,1.024,93.450,51.843,19.587,-0.338
'[10:01:49.436 29/12/1995]',1.114,-0.109,1.024,93.450,51.843,19.587,-0.338
'[10:01:49.438 29/12/1995]',1.058,-0.120,1.024,93.450,51.843,19.587,-0.338
'[10:01:49.440 29/12/1995]',1.003,-0.120,1.024,95.600,51.893,19.350,-0.288
'[10:01:49.442 29/12/1995]',1.003,-0.120,1.024,95.600,51.893,19.350,-0.288
'[10:01:49.444 29/12/1995]',1.003,-0.120,1.024,95.600,51.893,19.350,-0.288
'[10:01:49.446 29/12/1995]',0.947,-0.120,1.024,95.600,51.893,19.350,-0.288
'[10:01:49.448 29/12/1995]',0.891,-0.120,1.024,97.550,51.318,19.175,-0.230
'[10:01:49.450 29/12/1995]',0.891,-0.120,1.024,97.550,51.318,19.175,-0.230
'[10:01:49.452 29/12/1995]',0.835,-0.120,1.024,97.550,51.318,19.175,-0.230
'[10:01:49.454 29/12/1995]',0.835,-0.131,1.024,97.550,51.318,19.175,-0.230
'[10:01:49.456 29/12/1995]',0.782,-0.120,1.010,99.450,49.967,18.938,-0.168
'[10:01:49.458 29/12/1995]',0.727,-0.120,0.977,99.450,49.967,18.938,-0.168
'[10:01:49.460 29/12/1995]',0.727,-0.120,0.922,99.450,49.967,18.938,-0.168
'[10:01:49.462 29/12/1995]',0.671,-0.120,0.889,99.450,49.967,18.938,-0.168
'[10:01:49.464 29/12/1995]',0.671,-0.109,0.856,101.600,47.915,18.762,-0.102
'[10:01:49.466 29/12/1995]',0.615,-0.131,0.812,101.600,47.915,18.762,-0.102
'[10:01:49.468 29/12/1995]',0.615,-0.131,0.779,101.600,47.915,18.762,-0.102
'[10:01:49.470 29/12/1995]',0.559,-0.131,0.736,101.600,47.915,18.762,-0.102
'[10:01:49.472 29/12/1995]',0.504,-0.131,0.703,103.850,45.338,18.650,-0.035
'[10:01:49.474 29/12/1995]',0.504,-0.131,0.669,103.850,45.338,18.650,-0.035
'[10:01:49.476 29/12/1995]',0.448,-0.120,0.636,103.850,45.338,18.650,-0.035
'[10:01:49.478 29/12/1995]',0.448,-0.109,0.615,103.850,45.338,18.650,-0.035
'[10:01:49.480 29/12/1995]',0.448,-0.098,0.593,106.200,42.460,18.475,0.032
'[10:01:49.482 29/12/1995]',0.392,-0.076,0.560,106.200,42.460,18.475,0.032
'[10:01:49.484 29/12/1995]',0.392,-0.076,0.538,106.200,42.460,18.475,0.032
'[10:01:49.486 29/12/1995]',0.392,-0.076,0.516,106.200,42.460,18.475,0.032
'[10:01:49.488 29/12/1995]',0.337,-0.076,0.483,108.200,39.408,18.350,0.092
'[10:01:49.490 29/12/1995]',0.337,-0.076,0.462,108.200,39.408,18.350,0.092
'[10:01:49.492 29/12/1995]',0.337,-0.065,0.451,108.200,39.408,18.350,0.092
'[10:01:49.494 29/12/1995]',0.337,-0.065,0.428,108.200,39.408,18.350,0.092
'[10:01:49.496 29/12/1995]',0.281,-0.054,0.428,109.650,36.430,18.125,0.148
'[10:01:49.498 29/12/1995]',0.281,-0.054,0.406,109.650,36.430,18.125,0.148
'[10:01:49.500 29/12/1995]',0.281,-0.054,0.396,109.650,36.430,18.125,0.148
'[10:01:49.502 29/12/1995]',0.281,-0.054,0.385,109.650,36.430,18.125,0.148
'[10:01:49.504 29/12/1995]',0.281,-0.054,0.373,110.500,33.378,17.887,0.199
'[10:01:49.506 29/12/1995]',0.281,-0.043,0.362,110.500,33.378,17.887,0.199
'[10:01:49.508 29/12/1995]',0.225,-0.032,0.341,110.500,33.378,17.887,0.199
'[10:01:49.510 29/12/1995]',0.225,-0.032,0.341,110.500,33.378,17.887,0.199
'[10:01:49.512 29/12/1995]',0.225,-0.021,0.330,110.650,30.450,17.587,0.242
'[10:01:49.514 29/12/1995]',0.225,-0.010,0.330,110.650,30.450,17.587,0.242
'[10:01:49.516 29/12/1995]',0.225,-0.021,0.319,110.650,30.450,17.587,0.242
'[10:01:49.518 29/12/1995]',0.225,-0.021,0.319,110.650,30.450,17.587,0.242
'[10:01:49.520 29/12/1995]',0.225,-0.021,0.308,110.150,27.798,17.238,0.281
'[10:01:49.522 29/12/1995]',0.225,-0.021,0.297,110.150,27.798,17.238,0.281
'[10:01:49.524 29/12/1995]',0.225,-0.032,0.297,110.150,27.798,17.238,0.281
'[10:01:49.526 29/12/1995]',0.225,-0.032,0.297,110.150,27.798,17.238,0.281
'[10:01:49.528 29/12/1995]',0.225,-0.021,0.308,108.800,25.571,16.887,0.316
'[10:01:49.530 29/12/1995]',0.225,-0.032,0.308,108.800,25.571,16.887,0.316
'[10:01:49.532 29/12/1995]',0.225,-0.032,0.308,108.800,25.571,16.887,0.316
'[10:01:49.534 29/12/1995]',0.225,-0.021,0.297,108.800,25.571,16.887,0.316
'[10:01:49.536 29/12/1995]',0.225,-0.032,0.297,106.600,24.095,16.538,0.345
'[10:01:49.538 29/12/1995]',0.170,-0.032,0.286,106.600,24.095,16.538,0.345
'[10:01:49.540 29/12/1995]',0.170,-0.032,0.275,106.600,24.095,16.538,0.345
'[10:01:49.542 29/12/1995]',0.170,-0.021,0.275,106.600,24.095,16.538,0.345
'[10:01:49.544 29/12/1995]',0.170,-0.010,0.275,103.750,23.470,16.075,0.370
'[10:01:49.546 29/12/1995]',0.170,-0.010,0.275,103.750,23.470,16.075,0.370
'[10:01:49.548 29/12/1995]',0.170,-0.010,0.275,103.750,23.470,16.075,0.370
'[10:01:49.550 29/12/1995]',0.170,-0.010,0.275,103.750,23.470,16.075,0.370
'[10:01:49.552 29/12/1995]',0.170,-0.021,0.275,100.450,23.695,15.600,0.391
'[10:01:49.554 29/12/1995]',0.170,-0.021,0.264,100.450,23.695,15.600,0.391
'[10:01:49.556 29/12/1995]',0.170,-0.032,0.253,100.450,23.695,15.600,0.391
'[10:01:49.558 29/12/1995]',0.170,-0.032,0.264,100.450,23.695,15.600,0.391
'[10:01:49.560 29/12/1995]',0.170,-0.021,0.275,97.050,24.520,15.137,0.406
'[10:01:49.562 29/12/1995]',0.170,-0.021,0.264,97.050,24.520,15.137,0.406
'[10:01:49.564 29/12/1995]',0.170,-0.010,0.275,97.050,24.520,15.137,0.406
'[10:01:49.566 29/12/1995]',0.170,-0.021,0.275,97.050,24.520,15.137,0.406
'[10:01:49.568 29/12/1995]',0.170,-0.021,0.275,93.850,25.872,14.662,0.416
'[10:01:49.570 29/12/1995]',0.170,-0.032,0.264,93.850,25.872,14.662,0.416
'[10:01:49.572 29/12/1995]',0.170,-0.043,0.253,93.850,25.872,14.662,0.416
'[10:01:49.574 29/12/1995]',0.170,-0.032,0.253,93.850,25.872,14.662,0.416
'[10:01:49.576 29/12/1995]',0.170,-0.032,0.264,91.050,27.798,14.250,0.419
'[10:01:49.578 29/12/1995]',0.170,-0.032,0.264,91.050,27.798,14.250,0.419
'[10:01:49.580 29/12/1995]',0.170,-0.032,0.264,91.050,27.798,14.250,0.419
'[10:01:49.582 29/12/1995]',0.170,-0.032,0.264,91.050,27.798,14.250,0.419
'[10:01:49.584 29/12/1995]',0.170,-0.032,0.253,88.650,30.500,13.900,0.413
'[10:01:49.586 29/12/1995]',0.170,-0.043,0.253,88.650,30.500,13.900,0.413
'[10:01:49.588 29/12/1995]',0.170,-0.054,0.242,88.650,30.500,13.900,0.413
'[10:01:49.590 29/12/1995]',0.170,-0.043,0.242,88.650,30.500,13.900,0.413
'[10:01:49.592 29/12/1995]',0.170,-0.043,0.242,86.500,34.078,13.550,0.403
'[10:01:49.594 29/12/1995]',0.170,-0.043,0.242,86.500,34.078,13.550,0.403
'[10:01:49.596 29/12/1995]',0.504,0.736,0.725,86.500,34.078,13.550,0.403
'[10:01:49.598 29/12/1995]',0.671,1.024,0.856,86.500,34.078,13.550,0.403
'[10:01:49.600 29/12/1995]',0.448,0.647,0.593,84.600,38.357,13.200,0.383
'[10:01:49.602 29/12/1995]',0.337,0.341,0.428,84.600,38.357,13.200,0.383
'[10:01:49.604 29/12/1995]',0.225,0.154,0.330,84.600,38.357,13.200,0.383
'[10:01:49.606 29/12/1995]',0.170,0.022,0.242,84.600,38.357,13.200,0.383
'[10:01:49.608 29/12/1995]',0.114,-0.054,0.209,82.900,42.686,12.900,0.357
'[10:01:49.610 29/12/1995]',0.114,-0.131,0.165,82.900,42.686,12.900,0.357
'[10:01:49.612 29/12/1995]',0.058,-0.197,0.133,82.900,42.686,12.900,0.357
'[10:01:49.614 29/12/1995]',0.058,-0.252,0.088,82.900,42.686,12.900,0.357
'[10:01:49.616 29/12/1995]',0.005,-0.339,0.067,81.400,45.913,12.675,0.326
'[10:01:49.618 29/12/1995]',0.005,-0.405,0.034,81.400,45.913,12.675,0.326
'[10:01:49.620 29/12/1995]',0.005,-0.449,0.011,81.400,45.913,12.675,0.326
'[10:01:49.622 29/12/1995]',0.005,-0.449,0.011,81.400,45.913,12.675,0.326
'[10:01:49.624 29/12/1995]',0.005,-0.427,0.022,80.200,47.264,12.500,0.291
'[10:01:49.626 29/12/1995]',0.005,-0.394,0.034,80.200,47.264,12.500,0.291
'[10:01:49.628 29/12/1995]',0.005,-0.339,0.067,80.200,47.264,12.500,0.291
'[10:01:49.630 29/12/1995]',0.058,-0.306,0.077,80.200,47.264,12.500,0.291
'[10:01:49.632 29/12/1995]',0.058,-0.263,0.100,78.950,46.864,12.375,0.255
'[10:01:49.634 29/12/1995]',0.058,-0.240,0.121,78.950,46.864,12.375,0.255
'[10:01:49.636 29/12/1995]',0.058,-0.207,0.133,78.950,46.864,12.375,0.255
'[10:01:49.638 29/12/1995]',0.058,-0.197,0.133,78.950,46.864,12.375,0.255
'[10:01:49.640 29/12/1995]',0.058,-0.164,0.143,77.800,45.463,12.262,0.215
'[10:01:49.642 29/12/1995]',0.058,-0.142,0.143,77.800,45.463,12.262,0.215
'[10:01:49.644 29/12/1995]',0.058,-0.131,0.143,77.800,45.463,12.262,0.215
'[10:01:49.646 29/12/1995]',0.114,-0.109,0.154,77.800,45.463,12.262,0.215
'[10:01:49.648 29/12/1995]',0.114,-0.098,0.154,76.650,43.862,12.200,0.178
'[10:01:49.650 29/12/1995]',0.114,-0.076,0.154,76.650,43.862,12.200,0.178
'[10:01:49.652 29/12/1995]',0.114,-0.098,0.143,76.650,43.862,12.200,0.178
'[10:01:49.654 29/12/1995]',0.114,-0.076,0.143,76.650,43.862,12.200,0.178
'[10:01:49.656 29/12/1995]',0.114,-0.065,0.154,75.600,42.160,12.200,0.141
'[10:01:49.658 29/12/1995]',0.114,-0.065,0.154,75.600,42.160,12.200,0.141
'[10:01:49.660 29/12/1995]',0.114,-0.043,0.154,75.600,42.160,12.200,0.141
'[10:01:49.662 29/12/1995]',0.114,-0.032,0.154,75.600,42.160,12.200,0.141
'[10:01:49.664 29/12/1995]',0.114,-0.021,0.154,74.700,40.183,12.262,0.106
'[10:01:49.666 29/12/1995]',0.114,-0.021,0.154,74.700,40.183,12.262,0.106
'[10:01:49.668 29/12/1995]',0.114,-0.032,0.154,74.700,40.183,12.262,0.106
'[10:01:49.670 29/12/1995]',0.058,-0.032,0.143,74.700,40.183,12.262,0.106
'[10:01:49.672 29/12/1995]',0.058,-0.043,0.133,73.750,37.882,12.375,0.072
'[10:01:49.674 29/12/1995]',0.058,-0.043,0.133,73.750,37.882,12.375,0.072
'[10:01:49.676 29/12/1995]',0.058,-0.032,0.133,73.750,37.882,12.375,0.072
'[10:01:49.678 29/12/1995]',0.058,-0.032,0.133,73.750,37.882,12.375,0.072
'[10:01:49.680 29/12/1995]',0.058,-0.021,0.121,73.000,35.530,12.550,0.040
'[10:01:49.682 29/12/1995]',0.058,-0.010,0.121,73.000,35.530,12.550,0.040
'[10:01:49.684 29/12/1995]',0.058,-0.010,0.111,73.000,35.530,12.550,0.040
'[10:01:49.686 29/12/1995]',0.058,-0.010,0.111,73.000,35.530,12.550,0.040
'[10:01:49.688 29/12/1995]',0.058,0.011,0.100,72.300,33.478,12.725,0.009
'[10:01:49.690 29/12/1995]',0.058,0.022,0.100,72.300,33.478,12.725,0.009
'[10:01:49.692 29/12/1995]',0.058,0.044,0.111,72.300,33.478,12.725,0.009
'[10:01:49.694 29/12/1995]',0.058,0.056,0.111,72.300,33.478,12.725,0.009
'[10:01:49.696 29/12/1995]',0.058,0.067,0.121,71.700,31.726,13.025,-0.011
'[10:01:49.698 29/12/1995]',0.058,0.100,0.121,71.700,31.726,13.025,-0.011
'[10:01:49.700 29/12/1995]',0.058,0.100,0.111,71.700,31.726,13.025,-0.011
'[10:01:49.702 29/12/1995]',0.058,0.100,0.121,71.700,31.726,13.025,-0.011
'[10:01:49.704 29/12/1995]',0.058,0.067,0.121,71.300,30.325,13.375,-0.041
'[10:01:49.706 29/12/1995]',0.058,0.067,0.121,71.300,30.325,13.375,-0.041
'[10:01:49.708 29/12/1995]',0.058,0.077,0.133,71.300,30.325,13.375,-0.041
'[10:01:49.710 29/12/1995]',0.058,0.100,0.133,71.300,30.325,13.375,-0.041
'[10:01:49.712 29/12/1995]',0.058,0.121,0.143,71.000,29.199,13.787,-0.070
'[10:01:49.714 29/12/1995]',0.058,0.121,0.143,71.000,29.199,13.787,-0.070
'[10:01:49.716 29/12/1995]',0.058,0.111,0.143,71.000,29.199,13.787,-0.070
'[10:01:49.718 29/12/1995]',0.114,0.100,0.154,71.000,29.199,13.787,-0.070
'[10:01:49.720 29/12/1995]',0.114,0.077,0.154,70.800,28.324,14.137,-0.099
'[10:01:49.722 29/12/1995]',0.114,0.056,0.154,70.800,28.324,14.137,-0.099
'[10:01:49.724 29/12/1995]',0.114,0.056,0.154,70.800,28.324,14.137,-0.099
'[10:01:49.726 29/12/1995]',0.114,0.067,0.165,70.800,28.324,14.137,-0.099
'[10:01:49.728 29/12/1995]',0.114,0.056,0.165,70.700,27.673,14.488,-0.124
'[10:01:49.730 29/12/1995]',0.114,0.056,0.176,70.700,27.673,14.488,-0.124
'[10:01:49.732 29/12/1995]',0.114,0.034,0.165,70.700,27.673,14.488,-0.124
'[10:01:49.734 29/12/1995]',0.114,0.022,0.165,70.700,27.673,14.488,-0.124
'[10:01:49.736 29/12/1995]',0.114,0.011,0.165,70.650,27.273,14.900,-0.149
'[10:01:49.738 29/12/1995]',0.114,0.011,0.154,70.650,27.273,14.900,-0.149
'[10:01:49.740 29/12/1995]',0.114,0.011,0.154,70.650,27.273,14.900,-0.149
'[10:01:49.742 29/12/1995]',0.114,0.011,0.154,70.650,27.273,14.900,-0.149
'[10:01:49.744 29/12/1995]',0.114,0.011,0.154,70.600,27.148,15.250,-0.172
'[10:01:49.746 29/12/1995]',0.114,0.022,0.165,70.600,27.148,15.250,-0.172
'[10:01:49.748 29/12/1995]',0.114,0.001,0.154,70.600,27.148,15.250,-0.172
'[10:01:49.750 29/12/1995]',0.114,0.001,0.198,70.600,27.148,15.250,-0.172
'[10:01:49.752 29/12/1995]',0.058,-0.032,0.088,70.400,27.148,15.662,-0.193
'[10:01:49.754 29/12/1995]',0.058,-0.043,0.100,70.400,27.148,15.662,-0.193
'[10:01:49.756 29/12/1995]',0.058,-0.021,0.121,70.400,27.148,15.662,-0.193
'[10:01:49.758 29/12/1995]',0.058,-0.021,0.143,70.400,27.148,15.662,-0.193
'[10:01:49.760 29/12/1995]',0.058,-0.010,0.143,70.150,27.223,15.950,-0.209
'[10:01:49.762 29/12/1995]',0.058,0.001,0.154,70.150,27.223,15.950,-0.209
'[10:01:49.764 29/12/1995]',0.114,0.001,0.143,70.150,27.223,15.950,-0.209
'[10:01:49.766 29/12/1995]',0.058,0.001,0.143,70.150,27.223,15.950,-0.209
'[10:01:49.768 29/12/1995]',0.058,0.001,0.143,69.900,27.323,16.250,-0.225
'[10:01:49.770 29/12/1995]',0.058,0.001,0.143,69.900,27.323,16.250,-0.225
'[10:01:49.772 29/12/1995]',0.058,0.001,0.133,69.900,27.323,16.250,-0.225
'[10:01:49.774 29/12/1995]',0.058,-0.010,0.133,69.900,27.323,16.250,-0.225
'[10:01:49.776 29/12/1995]',0.058,-0.010,0.143,69.650,27.398,16.475,-0.237
'[10:01:49.778 29/12/1995]',0.114,-0.010,0.143,69.650,27.398,16.475,-0.237
'[10:01:49.780 29/12/1995]',0.058,-0.021,0.143,69.650,27.398,16.475,-0.237
'[10:01:49.782 29/12/1995]',0.058,-0.021,0.143,69.650,27.398,16.475,-0.237
'[10:01:49.784 29/12/1995]',0.058,-0.021,0.143,69.350,27.498,16.650,-0.248
'[10:01:49.786 29/12/1995]',0.058,-0.032,0.143,69.350,27.498,16.650,-0.248
'[10:01:49.788 29/12/1995]',0.058,-0.032,0.143,69.350,27.498,16.650,-0.248
'[10:01:49.790 29/12/1995]',0.058,-0.021,0.143,69.350,27.498,16.650,-0.248
'[10:01:49.792 29/12/1995]',0.058,-0.021,0.143,69.050,27.623,16.837,-0.256
'[10:01:49.794 29/12/1995]',0.058,-0.021,0.143,69.050,27.623,16.837,-0.256
'[10:01:49.796 29/12/1995]',0.058,-0.010,0.143,69.050,27.623,16.837,-0.256
'[10:01:49.798 29/12/1995]',0.114,-0.010,0.143,69.050,27.623,16.837,-0.256
'[10:01:49.800 29/12/1995]',0.058,-0.010,0.143,68.750,27.673,16.950,-0.264
'[10:01:49.802 29/12/1995]',0.058,-0.021,0.143,68.750,27.673,16.950,-0.264
'[10:01:49.804 29/12/1995]',0.058,-0.021,0.133,68.750,27.673,16.950,-0.264
'[10:01:49.806 29/12/1995]',0.058,-0.021,0.133,68.750,27.673,16.950,-0.264
'[10:01:49.808 29/12/1995]',0.058,-0.010,0.133,68.450,27.798,17.012,-0.271
'[10:01:49.810 29/12/1995]',0.058,-0.010,0.133,68.450,27.798,17.012,-0.271
'[10:01:49.812 29/12/1995]',0.058,-0.021,0.133,68.450,27.798,17.012,-0.271
'[10:01:49.814 29/12/1995]',0.058,-0.010,0.133,68.450,27.798,17.012,-0.271
'[10:01:49.816 29/12/1995]',0.058,-0.010,0.133,68.100,27.798,17.062,-0.277
'[10:01:49.818 29/12/1995]',0.058,-0.032,0.111,68.100,27.798,17.062,-0.277
'[10:01:49.820 29/12/1995]',0.058,-0.021,0.100,68.100,27.798,17.062,-0.277
'[10:01:49.822 29/12/1995]',0.058,-0.032,0.077,68.100,27.798,17.062,-0.277
'[10:01:49.824 29/12/1995]',0.005,-0.021,0.067,67.700,27.848,17.012,-0.283
'[10:01:49.826 29/12/1995]',0.005,-0.021,0.001,67.700,27.848,17.012,-0.283
'[10:01:49.828 29/12/1995]',-0.051,-0.010,-0.087,67.700,27.848,17.012,-0.283
'[10:01:49.830 29/12/1995]',-0.162,-0.010,-0.230,67.700,27.848,17.012,-0.283
'[10:01:49.832 29/12/1995]',-0.273,-0.021,-0.372,67.300,27.848,16.950,-0.290
'[10:01:49.834 29/12/1995]',-0.385,-0.021,-0.536,67.300,27.848,16.950,-0.290
'[10:01:49.836 29/12/1995]',-0.552,-0.032,-0.723,67.300,27.848,16.950,-0.290
'[10:01:49.838 29/12/1995]',-0.663,-0.043,-0.920,67.300,27.848,16.950,-0.290
'[10:01:49.840 29/12/1995]',-0.828,-0.043,-,66.900,27.923,16.887,-0.296
'[10:01:49.842 29/12/1995]',-0.995,-0.043,-,66.900,27.923,16.887,-0.296
'[10:01:49.844 29/12/1995]',-1.218,-0.043,-,66.900,27.923,16.887,-0.296
'[10:01:49.846 29/12/1995]',-1.385,-0.054,-,66.900,27.923,16.887,-0.296
'[10:01:49.848 29/12/1995]',-1.496,-0.065,-,66.400,27.923,16.775,-0.302
'[10:01:49.850 29/12/1995]',-1.661,-0.065,-,66.400,27.923,16.775,-0.302
'[10:01:49.852 29/12/1995]',-1.772,-0.043,-,66.400,27.923,16.775,-0.302
'[10:01:49.854 29/12/1995]',-1.884,-0.021,-,66.400,27.923,16.775,-0.302
'[10:01:49.856 29/12/1995]',-1.995,0.011,-,66.000,27.923,16.650,-0.309
'[10:01:49.858 29/12/1995]',-2.051,0.044,-,66.000,27.923,16.650,-0.309
'[10:01:49.860 29/12/1995]',-2.162,0.067,-,66.000,27.923,16.650,-0.309
'[10:01:49.862 29/12/1995]',-2.218,0.100,-,66.000,27.923,16.650,-0.309
'[10:01:49.864 29/12/1995]',-2.273,0.100,-,65.550,27.973,16.475,-0.316
'[10:01:49.866 29/12/1995]',-2.329,0.121,-,65.550,27.973,16.475,-0.316
'[10:01:49.868 29/12/1995]',-2.382,0.143,-,65.550,27.973,16.475,-0.316
'[10:01:49.870 29/12/1995]',-2.382,0.154,-,65.550,27.973,16.475,-0.316
'[10:01:49.872 29/12/1995]',-2.438,0.165,-,65.050,28.148,16.363,-0.321
'[10:01:49.874 29/12/1995]',-2.438,0.154,-,65.050,28.148,16.363,-0.321
'[10:01:49.876 29/12/1995]',-2.438,0.154,-,65.050,28.148,16.363,-0.321
'[10:01:49.878 29/12/1995]',-2.438,0.154,-,65.050,28.148,16.363,-0.321
'[10:01:49.880 29/12/1995]',-2.382,0.143,-,64.650,28.574,16.250,-0.328
'[10:01:49.882 29/12/1995]',-2.329,0.121,-,64.650,28.574,16.250,-0.328
'[10:01:49.884 29/12/1995]',-2.218,0.121,-,64.650,28.574,16.250,-0.328
'[10:01:49.886 29/12/1995]',-2.162,0.121,-,64.650,28.574,16.250,-0.328
'[10:01:49.888 29/12/1995]',-2.051,0.143,-,64.250,29.374,16.188,-0.335
'[10:01:49.890 29/12/1995]',-1.939,0.198,-,64.250,29.374,16.188,-0.335
'[10:01:49.892 29/12/1995]',-1.772,0.231,-,64.250,29.374,16.188,-0.335
'[10:01:49.894 29/12/1995]',-1.661,0.264,-,64.250,29.374,16.188,-0.335
'[10:01:49.896 29/12/1995]',-1.552,0.308,-,63.800,30.375,16.188,-0.342
'[10:01:49.898 29/12/1995]',-1.441,0.341,-,63.800,30.375,16.188,-0.342
'[10:01:49.900 29/12/1995]',-1.329,0.362,-,63.800,30.375,16.188,-0.342
'[10:01:49.902 29/12/1995]',-1.273,0.373,-,63.800,30.375,16.188,-0.342
'[10:01:49.904 29/12/1995]',-1.162,0.406,-,63.300,31.326,16.250,-0.346
'[10:01:49.906 29/12/1995]',-1.051,0.428,-,63.300,31.326,16.250,-0.346
'[10:01:49.908 29/12/1995]',-0.995,0.440,-,63.300,31.326,16.250,-0.346
'[10:01:49.910 29/12/1995]',-0.884,0.462,-,63.300,31.326,16.250,-0.346
'[10:01:49.912 29/12/1995]',-0.775,0.494,-,62.900,31.852,16.475,-0.352
'[10:01:49.914 29/12/1995]',-0.663,0.516,-0.909,62.900,31.852,16.475,-0.352
'[10:01:49.916 29/12/1995]',-0.608,0.527,-0.778,62.900,31.852,16.475,-0.352
'[10:01:49.918 29/12/1995]',-0.496,0.538,-0.657,62.900,31.852,16.475,-0.352
'[10:01:49.920 29/12/1995]',-0.385,0.538,-0.536,62.450,32.152,16.775,-0.359
'[10:01:49.922 29/12/1995]',-0.329,0.549,-0.438,62.450,32.152,16.775,-0.359
'[10:01:49.924 29/12/1995]',-0.218,0.549,-0.328,62.450,32.152,16.775,-0.359
'[10:01:49.926 29/12/1995]',-0.162,0.560,-0.218,62.450,32.152,16.775,-0.359
'[10:01:49.928 29/12/1995]',-0.051,0.549,-0.131,61.900,32.552,17.188,-0.364
'[10:01:49.930 29/12/1995]',0.005,0.538,-0.043,61.900,32.552,17.188,-0.364
'[10:01:49.932 29/12/1995]',0.005,0.505,0.011,61.900,32.552,17.188,-0.364
'[10:01:49.934 29/12/1995]',0.058,0.462,0.077,61.900,32.552,17.188,-0.364
'[10:01:49.936 29/12/1995]',0.058,0.417,0.111,61.300,33.478,17.712,-0.371
'[10:01:49.938 29/12/1995]',0.114,0.351,0.154,61.300,33.478,17.712,-0.371
'[10:01:49.940 29/12/1995]',0.114,0.308,0.176,61.300,33.478,17.712,-0.371
'[10:01:49.942 29/12/1995]',0.170,0.253,0.209,61.300,33.478,17.712,-0.371
'[10:01:49.944 29/12/1995]',0.170,0.231,0.242,60.800,34.904,18.238,-0.379
'[10:01:49.946 29/12/1995]',0.170,0.198,0.275,60.800,34.904,18.238,-0.379
'[10:01:49.948 29/12/1995]',0.225,0.165,0.308,60.800,34.904,18.238,-0.379
'[10:01:49.950 29/12/1995]',0.225,0.133,0.341,60.800,34.904,18.238,-0.379
'[10:01:49.952 29/12/1995]',0.281,0.100,0.373,60.400,36.305,18.825,-0.386
'[10:01:49.954 29/12/1995]',0.281,0.067,0.396,60.400,36.305,18.825,-0.386
'[10:01:49.956 29/12/1995]',0.281,0.044,0.428,60.400,36.305,18.825,-0.386
'[10:01:49.958 29/12/1995]',0.337,0.022,0.462,60.400,36.305,18.825,-0.386
'[10:01:49.960 29/12/1995]',0.337,0.011,0.483,60.050,37.306,19.413,-0.393
'[10:01:49.962 29/12/1995]',0.392,0.001,0.516,60.050,37.306,19.413,-0.393
'[10:01:49.964 29/12/1995]',0.392,-0.010,0.538,60.050,37.306,19.413,-0.393
'[10:01:49.966 29/12/1995]',0.392,-0.021,0.538,60.050,37.306,19.413,-0.393
'[10:01:49.968 29/12/1995]',0.392,-0.032,0.538,59.750,37.831,20.000,-0.401
'[10:01:49.970 29/12/1995]',0.392,-0.043,0.549,59.750,37.831,20.000,-0.401
'[10:01:49.972 29/12/1995]',0.392,-0.054,0.549,59.750,37.831,20.000,-0.401
'[10:01:49.974 29/12/1995]',0.392,-0.054,0.560,59.750,37.831,20.000,-0.401
'[10:01:49.976 29/12/1995]',0.448,-0.043,0.571,59.500,37.831,20.462,-0.409
'[10:01:49.978 29/12/1995]',0.448,-0.043,0.582,59.500,37.831,20.462,-0.409
'[10:01:49.980 29/12/1995]',0.448,-0.032,0.604,59.500,37.831,20.462,-0.409
'[10:01:49.982 29/12/1995]',0.448,-0.043,0.604,59.500,37.831,20.462,-0.409
'[10:01:49.984 29/12/1995]',0.448,-0.043,0.615,59.400,37.406,20.938,-0.417
'[10:01:49.986 29/12/1995]',0.448,-0.054,0.615,59.400,37.406,20.938,-0.417
'[10:01:49.988 29/12/1995]',0.448,-0.054,0.615,59.400,37.406,20.938,-0.417
'[10:01:49.990 29/12/1995]',0.448,-0.054,0.615,59.400,37.406,20.938,-0.417
'[10:01:49.992 29/12/1995]',0.504,-0.043,0.636,59.400,36.706,21.288,-0.425
'[10:01:49.994 29/12/1995]',0.504,-0.032,0.647,59.400,36.706,21.288,-0.425
'[10:01:49.996 29/12/1995]',0.504,-0.032,0.658,59.400,36.706,21.288,-0.425
'[10:01:49.998 29/12/1995]',0.504,-0.032,0.669,59.400,36.706,21.288,-0.425
'[10:01:50.000 29/12/1995]',0.504,-0.043,0.680,59.450,36.255,21.575,-0.431
'[10:01:50.002 29/12/1995]',0.504,-0.043,0.692,59.450,36.255,21.575,-0.431
'[10:01:50.004 29/12/1995]',0.504,-0.054,0.703,59.450,36.255,21.575,-0.431
'[10:01:50.006 29/12/1995]',0.504,-0.054,0.703,59.450,36.255,21.575,-0.431
'[10:01:50.008 29/12/1995]',0.559,-0.043,0.736,59.550,36.255,21.700,-0.438
'[10:01:50.010 29/12/1995]',0.559,-0.043,0.747,59.550,36.255,21.700,-0.438
'[10:01:50.012 29/12/1995]',0.615,-0.032,0.768,59.550,36.255,21.700,-0.438
'[10:01:50.014 29/12/1995]',0.615,-0.032,0.790,59.550,36.255,21.700,-0.438
'[10:01:50.016 29/12/1995]',0.615,-0.043,0.823,59.850,36.831,21.700,-0.444
'[10:01:50.018 29/12/1995]',0.615,-0.054,0.845,59.850,36.831,21.700,-0.444
'[10:01:50.020 29/12/1995]',0.615,-0.065,0.845,59.850,36.831,21.700,-0.444
'[10:01:50.022 29/12/1995]',0.671,-0.065,0.867,59.850,36.831,21.700,-0.444
'[10:01:50.024 29/12/1995]',0.671,-0.065,0.889,60.550,37.706,21.637,-0.447
'[10:01:50.026 29/12/1995]',0.671,-0.054,0.922,60.550,37.706,21.637,-0.447
'[10:01:50.028 29/12/1995]',0.727,-0.043,0.944,60.550,37.706,21.637,-0.447
'[10:01:50.030 29/12/1995]',0.727,-0.032,0.966,60.550,37.706,21.637,-0.447
'[10:01:50.032 29/12/1995]',0.727,-0.043,0.999,62.150,38.582,21.525,-0.450
'[10:01:50.034 29/12/1995]',0.782,-0.043,1.010,62.150,38.582,21.525,-0.450
'[10:01:50.036 29/12/1995]',0.782,-0.054,1.024,62.150,38.582,21.525,-0.450
'[10:01:50.038 29/12/1995]',0.782,-0.065,1.024,62.150,38.582,21.525,-0.450
'[10:01:50.040 29/12/1995]',0.835,-0.054,1.024,64.800,39.583,21.337,-0.452
'[10:01:50.042 29/12/1995]',0.835,-0.065,1.024,64.800,39.583,21.337,-0.452
'[10:01:50.044 29/12/1995]',0.891,-0.043,1.024,64.800,39.583,21.337,-0.452
'[10:01:50.046 29/12/1995]',0.891,-0.043,1.024,64.800,39.583,21.337,-0.452
'[10:01:50.048 29/12/1995]',0.947,-0.043,1.024,68.350,40.984,21.113,-0.449
'[10:01:50.050 29/12/1995]',0.947,-0.065,1.024,68.350,40.984,21.113,-0.449
'[10:01:50.052 29/12/1995]',0.947,-0.054,1.024,68.350,40.984,21.113,-0.449
'[10:01:50.054 29/12/1995]',1.003,-0.065,1.024,68.350,40.984,21.113,-0.449
'[10:01:50.056 29/12/1995]',1.003,-0.065,1.024,72.500,42.811,20.812,-0.444
'[10:01:50.058 29/12/1995]',1.003,-0.065,1.024,72.500,42.811,20.812,-0.444
'[10:01:50.060 29/12/1995]',1.058,-0.054,1.024,72.500,42.811,20.812,-0.444
'[10:01:50.062 29/12/1995]',1.058,-0.054,1.024,72.500,42.811,20.812,-0.444
'[10:01:50.064 29/12/1995]',1.114,-0.054,1.024,76.800,44.737,20.587,-0.434
'[10:01:50.066 29/12/1995]',1.114,-0.054,1.024,76.800,44.737,20.587,-0.434
'[10:01:50.068 29/12/1995]',1.114,-0.065,1.024,76.800,44.737,20.587,-0.434
'[10:01:50.070 29/12/1995]',1.114,-0.076,1.024,76.800,44.737,20.587,-0.434
'[10:01:50.072 29/12/1995]',1.114,-0.065,1.024,80.900,46.614,20.350,-0.418
'[10:01:50.074 29/12/1995]',1.114,-0.065,1.024,80.900,46.614,20.350,-0.418
'[10:01:50.076 29/12/1995]',1.170,-0.065,1.024,80.900,46.614,20.350,-0.418
'[10:01:50.078 29/12/1995]',1.170,-0.065,1.024,80.900,46.614,20.350,-0.418
'[10:01:50.080 29/12/1995]',1.170,-0.065,1.024,84.600,48.265,20.113,-0.397
'[10:01:50.082 29/12/1995]',1.170,-0.065,1.024,84.600,48.265,20.113,-0.397
'[10:01:50.084 29/12/1995]',1.170,-0.065,1.024,84.600,48.265,20.113,-0.397
'[10:01:50.086 29/12/1995]',1.170,-0.076,1.024,84.600,48.265,20.113,-0.397
'[10:01:50.088 29/12/1995]',1.114,-0.098,1.024,87.900,49.616,19.875,-0.365
'[10:01:50.090 29/12/1995]',1.114,-0.098,1.024,87.900,49.616,19.875,-0.365
'[10:01:50.092 29/12/1995]',1.114,-0.076,1.024,87.900,49.616,19.875,-0.365
'[10:01:50.094 29/12/1995]',1.114,-0.076,1.024,87.900,49.616,19.875,-0.365
'[10:01:50.096 29/12/1995]',1.114,-0.065,1.024,90.950,50.667,19.650,-0.326
'[10:01:50.098 29/12/1995]',1.058,-0.065,1.024,90.950,50.667,19.650,-0.326
'[10:01:50.100 29/12/1995]',1.058,-0.098,1.024,90.950,50.667,19.650,-0.326
'[10:01:50.102 29/12/1995]',1.003,-0.109,1.024,90.950,50.667,19.650,-0.326
'[10:01:50.104 29/12/1995]',1.003,-0.109,1.024,93.600,51.143,19.462,-0.280
'[10:01:50.106 29/12/1995]',0.947,-0.120,1.024,93.600,51.143,19.462,-0.280
'[10:01:50.108 29/12/1995]',0.947,-0.109,1.024,93.600,51.143,19.462,-0.280
'[10:01:50.110 29/12/1995]',0.891,-0.098,1.024,93.600,51.143,19.462,-0.280
'[10:01:50.112 29/12/1995]',0.891,-0.098,1.024,95.700,50.917,19.238,-0.225
'[10:01:50.114 29/12/1995]',0.835,-0.098,1.024,95.700,50.917,19.238,-0.225
'[10:01:50.116 29/12/1995]',0.782,-0.098,1.024,95.700,50.917,19.238,-0.225
'[10:01:50.118 29/12/1995]',0.782,-0.109,0.999,95.700,50.917,19.238,-0.225
'[10:01:50.120 29/12/1995]',0.727,-0.109,0.966,97.650,49.841,19.062,-0.164
'[10:01:50.122 29/12/1995]',0.671,-0.109,0.911,97.650,49.841,19.062,-0.164
'[10:01:50.124 29/12/1995]',0.671,-0.109,0.867,97.650,49.841,19.062,-0.164
'[10:01:50.126 29/12/1995]',0.615,-0.109,0.834,97.650,49.841,19.062,-0.164
'[10:01:50.128 29/12/1995]',0.615,-0.109,0.790,99.650,47.965,18.825,-0.099
'[10:01:50.130 29/12/1995]',0.559,-0.098,0.757,99.650,47.965,18.825,-0.099
'[10:01:50.132 29/12/1995]',0.504,-0.109,0.692,99.650,47.965,18.825,-0.099
'[10:01:50.134 29/12/1995]',0.504,-0.098,0.658,99.650,47.965,18.825,-0.099
'[10:01:50.136 29/12/1995]',0.448,-0.098,0.615,101.850,45.338,18.650,-0.033
'[10:01:50.138 29/12/1995]',0.448,-0.109,0.582,101.850,45.338,18.650,-0.033
'[10:01:50.140 29/12/1995]',0.392,-0.098,0.549,101.850,45.338,18.650,-0.033
'[10:01:50.142 29/12/1995]',0.392,-0.076,0.527,101.850,45.338,18.650,-0.033
'[10:01:50.144 29/12/1995]',0.337,-0.076,0.494,104.050,42.285,18.525,0.034
'[10:01:50.146 29/12/1995]',0.337,-0.065,0.462,104.050,42.285,18.525,0.034
'[10:01:50.148 29/12/1995]',0.337,-0.065,0.440,104.050,42.285,18.525,0.034
'[10:01:50.150 29/12/1995]',0.281,-0.065,0.417,104.050,42.285,18.525,0.034
'[10:01:50.152 29/12/1995]',0.281,-0.065,0.385,106.050,39.058,18.350,0.097
'[10:01:50.154 29/12/1995]',0.281,-0.065,0.362,106.050,39.058,18.350,0.097
'[10:01:50.156 29/12/1995]',0.225,-0.054,0.341,106.050,39.058,18.350,0.097
'[10:01:50.158 29/12/1995]',0.225,-0.043,0.319,106.050,39.058,18.350,0.097
'[10:01:50.160 29/12/1995]',0.225,-0.032,0.308,107.600,35.830,18.175,0.154
'[10:01:50.162 29/12/1995]',0.225,-0.032,0.297,107.600,35.830,18.175,0.154
'[10:01:50.164 29/12/1995]',0.170,-0.032,0.275,107.600,35.830,18.175,0.154
'[10:01:50.166 29/12/1995]',0.170,-0.032,0.253,107.600,35.830,18.175,0.154
'[10:01:50.168 29/12/1995]',0.170,-0.032,0.242,108.650,32.727,17.950,0.206
'[10:01:50.170 29/12/1995]',0.170,-0.032,0.231,108.650,32.727,17.950,0.206
'[10:01:50.172 29/12/1995]',0.170,-0.021,0.220,108.650,32.727,17.950,0.206
'[10:01:50.174 29/12/1995]',0.114,-0.032,0.209,108.650,32.727,17.950,0.206
'[10:01:50.176 29/12/1995]',0.114,-0.010,0.209,109.100,29.725,17.650,0.254
'[10:01:50.178 29/12/1995]',0.114,0.001,0.198,109.100,29.725,17.650,0.254
'[10:01:50.180 29/12/1995]',0.114,0.001,0.187,109.100,29.725,17.650,0.254
'[10:01:50.182 29/12/1995]',0.114,0.001,0.176,109.100,29.725,17.650,0.254
'[10:01:50.184 29/12/1995]',0.114,0.001,0.176,108.800,27.048,17.363,0.294
'[10:01:50.186 29/12/1995]',0.114,-0.010,0.165,108.800,27.048,17.363,0.294
'[10:01:50.188 29/12/1995]',0.114,0.001,0.154,108.800,27.048,17.363,0.294
'[10:01:50.190 29/12/1995]',0.114,0.001,0.154,108.800,27.048,17.363,0.294
'[10:01:50.192 29/12/1995]',0.114,-0.010,0.154,107.650,24.996,17.012,0.330
'[10:01:50.194 29/12/1995]',0.114,0.001,0.154,107.650,24.996,17.012,0.330
'[10:01:50.196 29/12/1995]',0.114,0.001,0.154,107.650,24.996,17.012,0.330
'[10:01:50.198 29/12/1995]',0.114,-0.010,0.143,107.650,24.996,17.012,0.330
'[10:01:50.200 29/12/1995]',0.114,0.001,0.143,105.800,23.645,16.600,0.362
'[10:01:50.202 29/12/1995]',0.058,-0.010,0.133,105.800,23.645,16.600,0.362
'[10:01:50.204 29/12/1995]',0.058,0.001,0.133,105.800,23.645,16.600,0.362
'[10:01:50.206 29/12/1995]',0.058,0.001,0.133,105.800,23.645,16.600,0.362
'[10:01:50.208 29/12/1995]',0.058,0.001,0.133,103.200,23.169,16.188,0.389
'[10:01:50.210 29/12/1995]',0.058,0.001,0.133,103.200,23.169,16.188,0.389
'[10:01:50.212 29/12/1995]',0.058,0.001,0.133,103.200,23.169,16.188,0.389
'[10:01:50.214 29/12/1995]',0.058,0.011,0.143,103.200,23.169,16.188,0.389
'[10:01:50.216 29/12/1995]',0.058,0.001,0.143,100.150,23.294,15.713,0.412
'[10:01:50.218 29/12/1995]',0.058,0.001,0.133,100.150,23.294,15.713,0.412
'[10:01:50.220 29/12/1995]',0.058,0.001,0.111,100.150,23.294,15.713,0.412
'[10:01:50.222 29/12/1995]',0.058,-0.010,0.121,100.150,23.294,15.713,0.412
'[10:01:50.224 29/12/1995]',0.058,0.001,0.111,96.850,23.995,15.250,0.429
'[10:01:50.226 29/12/1995]',0.058,0.001,0.121,96.850,23.995,15.250,0.429
'[10:01:50.228 29/12/1995]',0.058,0.001,0.121,96.850,23.995,15.250,0.429
'[10:01:50.230 29/12/1995]',0.058,0.001,0.121,96.850,23.995,15.250,0.429
'[10:01:50.232 29/12/1995]',0.058,0.011,0.133,93.750,25.221,14.725,0.439
'[10:01:50.234 29/12/1995]',0.058,-0.010,0.121,93.750,25.221,14.725,0.439
'[10:01:50.236 29/12/1995]',0.058,-0.010,0.121,93.750,25.221,14.725,0.439
'[10:01:50.238 29/12/1995]',0.058,-0.010,0.111,93.750,25.221,14.725,0.439
'[10:01:50.240 29/12/1995]',0.058,-0.010,0.111,90.900,26.922,14.250,0.445
'[10:01:50.242 29/12/1995]',0.058,-0.010,0.111,90.900,26.922,14.250,0.445
'[10:01:50.244 29/12/1995]',0.058,0.001,0.111,90.900,26.922,14.250,0.445
'[10:01:50.246 29/12/1995]',0.058,0.001,0.111,90.900,26.922,14.250,0.445
'[10:01:50.248 29/12/1995]',0.058,-0.010,0.100,88.450,29.199,13.838,0.442
'[10:01:50.250 29/12/1995]',0.058,-0.010,0.100,88.450,29.199,13.838,0.442
'[10:01:50.252 29/12/1995]',0.058,-0.010,0.100,88.450,29.199,13.838,0.442
'[10:01:50.254 29/12/1995]',0.058,-0.021,0.088,88.450,29.199,13.838,0.442
'[10:01:50.256 29/12/1995]',0.058,-0.021,0.088,86.350,32.152,13.375,0.431
'[10:01:50.258 29/12/1995]',0.058,-0.010,0.088,86.350,32.152,13.375,0.431
'[10:01:50.260 29/12/1995]',0.058,-0.010,0.077,86.350,32.152,13.375,0.431
'[10:01:50.262 29/12/1995]',0.170,0.253,0.253,86.350,32.152,13.375,0.431
'[10:01:50.264 29/12/1995]',0.559,1.024,0.757,84.400,35.905,13.025,0.413
'[10:01:50.266 29/12/1995]',0.337,0.757,0.462,84.400,35.905,13.025,0.413
'[10:01:50.268 29/12/1995]',0.225,0.428,0.286,84.400,35.905,13.025,0.413
'[10:01:50.270 29/12/1995]',0.114,0.220,0.165,84.400,35.905,13.025,0.413
'[10:01:50.272 29/12/1995]',0.058,0.056,0.100,82.750,40.233,12.675,0.390
'[10:01:50.274 29/12/1995]',0.005,-0.032,0.044,82.750,40.233,12.675,0.390
'[10:01:50.276 29/12/1995]',0.005,-0.120,0.011,82.750,40.233,12.675,0.390
'[10:01:50.278 29/12/1995]',0.005,-0.174,-0.010,82.750,40.233,12.675,0.390
'[10:01:50.280 29/12/1995]',0.005,-0.240,-0.043,81.300,44.112,12.438,0.360
'[10:01:50.282 29/12/1995]',0.005,-0.317,-0.076,81.300,44.112,12.438,0.360
'[10:01:50.284 29/12/1995]',-0.051,-0.372,-0.109,81.300,44.112,12.438,0.360
'[10:01:50.286 29/12/1995]',-0.051,-0.405,-0.131,81.300,44.112,12.438,0.360
'[10:01:50.288 29/12/1995]',-0.051,-0.416,-0.131,79.950,46.213,12.262,0.327
'[10:01:50.290 29/12/1995]',-0.051,-0.405,-0.131,79.950,46.213,12.262,0.327
'[10:01:50.292 29/12/1995]',-0.051,-0.372,-0.120,79.950,46.213,12.262,0.327
'[10:01:50.294 29/12/1995]',-0.051,-0.328,-0.087,79.950,46.213,12.262,0.327
'[10:01:50.296 29/12/1995]',0.005,-0.274,-0.076,78.650,46.339,12.088,0.290
'[10:01:50.298 29/12/1995]',0.005,-0.240,-0.054,78.650,46.339,12.088,0.290
'[10:01:50.300 29/12/1995]',0.005,-0.207,-0.032,78.650,46.339,12.088,0.290
'[10:01:50.302 29/12/1995]',0.005,-0.174,-0.010,78.650,46.339,12.088,0.290
'[10:01:50.304 29/12/1995]',0.005,-0.153,-0.021,77.450,45.163,11.963,0.253
'[10:01:50.306 29/12/1995]',0.005,-0.131,-0.021,77.450,45.163,11.963,0.253
'[10:01:50.308 29/12/1995]',0.005,-0.120,-0.010,77.450,45.163,11.963,0.253
'[10:01:50.310 29/12/1995]',0.005,-0.098,0.001,77.450,45.163,11.963,0.253
'[10:01:50.312 29/12/1995]',0.005,-0.065,0.001,76.300,43.636,11.912,0.214
'[10:01:50.314 29/12/1995]',0.005,-0.054,0.001,76.300,43.636,11.912,0.214
'[10:01:50.316 29/12/1995]',0.005,-0.043,0.001,76.300,43.636,11.912,0.214
'[10:01:50.318 29/12/1995]',0.005,-0.032,0.001,76.300,43.636,11.912,0.214
'[10:01:50.320 29/12/1995]',0.005,-0.032,0.001,75.250,42.110,11.850,0.177
'[10:01:50.322 29/12/1995]',0.005,-0.032,0.001,75.250,42.110,11.850,0.177
'[10:01:50.324 29/12/1995]',0.005,-0.021,0.001,75.250,42.110,11.850,0.177
'[10:01:50.326 29/12/1995]',0.005,-0.010,0.001,75.250,42.110,11.850,0.177
'[10:01:50.328 29/12/1995]',0.005,0.001,0.001,74.250,40.359,11.912,0.142
'[10:01:50.330 29/12/1995]',0.005,-0.010,0.001,74.250,40.359,11.912,0.142
'[10:01:50.332 29/12/1995]',0.005,0.001,0.001,74.250,40.359,11.912,0.142
'[10:01:50.334 29/12/1995]',0.005,-0.010,0.001,74.250,40.359,11.912,0.142
'[10:01:50.336 29/12/1995]',0.005,-0.010,0.001,73.400,38.182,12.088,0.107
'[10:01:50.338 29/12/1995]',0.005,-0.021,-0.021,73.400,38.182,12.088,0.107
'[10:01:50.340 29/12/1995]',0.005,-0.010,-0.021,73.400,38.182,12.088,0.107
'[10:01:50.342 29/12/1995]',0.005,-0.010,-0.032,73.400,38.182,12.088,0.107
'[10:01:50.344 29/12/1995]',0.005,0.001,-0.032,72.700,35.830,12.262,0.074
'[10:01:50.346 29/12/1995]',0.005,0.011,-0.032,72.700,35.830,12.262,0.074
'[10:01:50.348 29/12/1995]',0.005,0.011,-0.032,72.700,35.830,12.262,0.074
'[10:01:50.350 29/12/1995]',0.005,0.011,-0.043,72.700,35.830,12.262,0.074
'[10:01:50.352 29/12/1995]',0.005,0.011,-0.043,72.100,33.778,12.550,0.043
'[10:01:50.354 29/12/1995]',0.005,0.034,-0.054,72.100,33.778,12.550,0.043
'[10:01:50.356 29/12/1995]',0.005,0.034,-0.054,72.100,33.778,12.550,0.043
'[10:01:50.358 29/12/1995]',0.005,0.056,-0.043,72.100,33.778,12.550,0.043
'[10:01:50.360 29/12/1995]',0.005,0.077,-0.043,71.650,32.027,12.850,0.011
'[10:01:50.362 29/12/1995]',0.005,0.077,-0.043,71.650,32.027,12.850,0.011
'[10:01:50.364 29/12/1995]',0.005,0.100,-0.032,71.650,32.027,12.850,0.011
'[10:01:50.366 29/12/1995]',0.005,0.100,-0.032,71.650,32.027,12.850,0.011
'[10:01:50.368 29/12/1995]',0.005,0.111,-0.032,71.300,30.625,13.262,-0.018
'[10:01:50.370 29/12/1995]',0.005,0.111,-0.043,71.300,30.625,13.262,-0.018
'[10:01:50.372 29/12/1995]',0.005,0.111,-0.032,71.300,30.625,13.262,-0.018
'[10:01:50.374 29/12/1995]',0.005,0.121,-0.032,71.300,30.625,13.262,-0.018
'[10:01:50.376 29/12/1995]',0.005,0.133,-0.032,71.000,29.374,13.662,-0.048
'[10:01:50.378 29/12/1995]',0.005,0.154,-0.021,71.000,29.374,13.662,-0.048
'[10:01:50.380 29/12/1995]',0.005,0.154,-0.010,71.000,29.374,13.662,-0.048
'[10:01:50.382 29/12/1995]',0.005,0.143,-0.010,71.000,29.374,13.662,-0.048
'[10:01:50.384 29/12/1995]',0.005,0.133,0.001,70.800,28.499,14.137,-0.076
'[10:01:50.386 29/12/1995]',0.005,0.111,0.001,70.800,28.499,14.137,-0.076
'[10:01:50.388 29/12/1995]',0.005,0.077,0.001,70.800,28.499,14.137,-0.076
'[10:01:50.390 29/12/1995]',0.005,0.067,0.001,70.800,28.499,14.137,-0.076
'[10:01:50.392 29/12/1995]',0.005,0.067,0.001,70.600,27.848,14.600,-0.103
'[10:01:50.394 29/12/1995]',0.005,0.056,0.001,70.600,27.848,14.600,-0.103
'[10:01:50.396 29/12/1995]',0.005,0.067,0.001,70.600,27.848,14.600,-0.103
'[10:01:50.398 29/12/1995]',0.005,0.044,0.001,70.600,27.848,14.600,-0.103
'[10:01:50.400 29/12/1995]',0.005,0.056,0.001,70.300,27.498,15.075,-0.128
'[10:01:50.402 29/12/1995]',0.005,0.044,0.001,70.300,27.498,15.075,-0.128
'[10:01:50.404 29/12/1995]',0.005,0.034,0.001,70.300,27.498,15.075,-0.128
'[10:01:50.406 29/12/1995]',0.005,0.044,0.001,70.300,27.498,15.075,-0.128
'[10:01:50.408 29/12/1995]',0.005,0.044,0.001,70.000,27.273,15.488,-0.150
'[10:01:50.410 29/12/1995]',0.005,0.034,0.001,70.000,27.273,15.488,-0.150
'[10:01:50.412 29/12/1995]',0.005,0.034,0.001,70.000,27.273,15.488,-0.150
'[10:01:50.414 29/12/1995]',0.005,0.034,0.001,70.000,27.273,15.488,-0.150
'[10:01:50.416 29/12/1995]',0.005,0.022,0.001,69.750,27.098,15.950,-0.172
'[10:01:50.418 29/12/1995]',0.005,-0.010,-0.065,69.750,27.098,15.950,-0.172
'[10:01:50.420 29/12/1995]',0.005,-0.010,-0.065,69.750,27.098,15.950,-0.172
'[10:01:50.422 29/12/1995]',0.005,-0.010,-0.054,69.750,27.098,15.950,-0.172
'[10:01:50.424 29/12/1995]',0.005,0.001,-0.032,69.550,27.048,16.300,-0.190
'[10:01:50.426 29/12/1995]',0.005,0.001,-0.021,69.550,27.048,16.300,-0.190
'[10:01:50.428 29/12/1995]',0.005,0.011,-0.010,69.550,27.048,16.300,-0.190
'[10:01:50.430 29/12/1995]',0.005,0.022,-0.010,69.550,27.048,16.300,-0.190
'[10:01:50.432 29/12/1995]',0.005,0.011,0.001,69.250,26.972,16.650,-0.205
'[10:01:50.434 29/12/1995]',0.005,0.011,0.001,69.250,26.972,16.650,-0.205
'[10:01:50.436 29/12/1995]',0.005,0.001,-0.010,69.250,26.972,16.650,-0.205
'[10:01:50.438 29/12/1995]',0.005,0.001,-0.010,69.250,26.972,16.650,-0.205
'[10:01:50.440 29/12/1995]',0.005,0.001,-0.021,68.900,26.972,16.887,-0.218
'[10:01:50.442 29/12/1995]',0.005,0.011,-0.021,68.900,26.972,16.887,-0.218
'[10:01:50.444 29/12/1995]',0.005,0.011,-0.010,68.900,26.972,16.887,-0.218
'[10:01:50.446 29/12/1995]',0.005,0.022,-0.010,68.900,26.972,16.887,-0.218
'[10:01:50.448 29/12/1995]',0.005,0.022,-0.010,68.550,27.048,17.125,-0.231
'[10:01:50.450 29/12/1995]',0.005,0.011,-0.010,68.550,27.048,17.125,-0.231
'[10:01:50.452 29/12/1995]',0.005,-0.010,-0.021,68.550,27.048,17.125,-0.231
'[10:01:50.454 29/12/1995]',0.005,-0.021,-0.021,68.550,27.048,17.125,-0.231
'[10:01:50.456 29/12/1995]',0.005,0.001,-0.021,68.200,27.098,17.238,-0.241
'[10:01:50.458 29/12/1995]',0.005,-0.010,-0.021,68.200,27.098,17.238,-0.241
'[10:01:50.460 29/12/1995]',0.005,0.011,0.001,68.200,27.098,17.238,-0.241
'[10:01:50.462 29/12/1995]',0.005,0.011,-0.010,68.200,27.098,17.238,-0.241
'[10:01:50.464 29/12/1995]',0.005,0.011,0.001,67.850,27.098,17.300,-0.249
'[10:01:50.466 29/12/1995]',0.005,0.011,0.001,67.850,27.098,17.300,-0.249
'[10:01:50.468 29/12/1995]',0.005,0.011,-0.010,67.850,27.098,17.300,-0.249
'[10:01:50.470 29/12/1995]',0.005,-0.010,0.001,67.850,27.098,17.300,-0.249
'[10:01:50.472 29/12/1995]',0.005,-0.010,-0.010,67.500,27.098,17.300,-0.258
'[10:01:50.474 29/12/1995]',0.005,-0.010,-0.010,67.500,27.098,17.300,-0.258
'[10:01:50.476 29/12/1995]',0.005,0.001,-0.010,67.500,27.098,17.300,-0.258
'[10:01:50.478 29/12/1995]',0.005,0.022,-0.010,67.500,27.098,17.300,-0.258
'[10:01:50.480 29/12/1995]',0.005,0.022,-0.021,67.250,27.098,17.300,-0.266
'[10:01:50.482 29/12/1995]',0.005,0.022,-0.021,67.250,27.098,17.300,-0.266
'[10:01:50.484 29/12/1995]',0.005,0.001,-0.032,67.250,27.098,17.300,-0.266
'[10:01:50.486 29/12/1995]',0.005,-0.010,-0.043,67.250,27.098,17.300,-0.266
'[10:01:50.488 29/12/1995]',-0.051,0.001,-0.065,66.950,27.098,17.238,-0.273
'[10:01:50.490 29/12/1995]',-0.051,0.001,-0.087,66.950,27.098,17.238,-0.273
'[10:01:50.492 29/12/1995]',-0.051,0.011,-0.131,66.950,27.098,17.238,-0.273
'[10:01:50.494 29/12/1995]',-0.106,0.011,-0.207,66.950,27.098,17.238,-0.273
'[10:01:50.496 29/12/1995]',-0.218,0.011,-0.328,66.650,27.098,17.125,-0.281
'[10:01:50.498 29/12/1995]',-0.329,0.001,-0.470,66.650,27.098,17.125,-0.281
'[10:01:50.500 29/12/1995]',-0.441,0.001,-0.635,66.650,27.098,17.125,-0.281
'[10:01:50.502 29/12/1995]',-0.608,-0.010,-0.822,66.650,27.098,17.125,-0.281
'[10:01:50.504 29/12/1995]',-0.775,-0.021,-1.019,66.300,27.098,17.012,-0.288
'[10:01:50.506 29/12/1995]',-0.939,-0.021,-,66.300,27.098,17.012,-0.288
'[10:01:50.508 29/12/1995]',-1.106,-0.021,-,66.300,27.098,17.012,-0.288
'[10:01:50.510 29/12/1995]',-1.273,-0.021,-,66.300,27.098,17.012,-0.288
'[10:01:50.512 29/12/1995]',-1.441,-0.032,-,65.950,27.098,16.837,-0.294
'[10:01:50.514 29/12/1995]',-1.605,-0.043,-,65.950,27.098,16.837,-0.294
'[10:01:50.516 29/12/1995]',-1.772,-0.054,-,65.950,27.098,16.837,-0.294
'[10:01:50.518 29/12/1995]',-1.884,-0.043,-,65.950,27.098,16.837,-0.294
'[10:01:50.520 29/12/1995]',-1.995,-0.021,-,65.500,27.098,16.650,-0.303
'[10:01:50.522 29/12/1995]',-2.106,0.001,-,65.500,27.098,16.650,-0.303
'[10:01:50.524 29/12/1995]',-2.218,0.034,-,65.500,27.098,16.650,-0.303
'[10:01:50.526 29/12/1995]',-2.273,0.067,-,65.500,27.098,16.650,-0.303
'[10:01:50.528 29/12/1995]',-2.382,0.100,-,65.000,27.098,16.475,-0.310
'[10:01:50.530 29/12/1995]',-2.438,0.133,-,65.000,27.098,16.475,-0.310
'[10:01:50.532 29/12/1995]',-2.494,0.165,-,65.000,27.098,16.475,-0.310
'[10:01:50.534 29/12/1995]',-2.549,0.176,-,65.000,27.098,16.475,-0.310
'[10:01:50.536 29/12/1995]',-2.549,0.198,-,64.500,27.273,16.300,-0.316
'[10:01:50.538 29/12/1995]',-2.549,0.209,-,64.500,27.273,16.300,-0.316
'[10:01:50.540 29/12/1995]',-2.605,0.220,-,64.500,27.273,16.300,-0.316
'[10:01:50.542 29/12/1995]',-2.605,0.231,-,64.500,27.273,16.300,-0.316
'[10:01:50.544 29/12/1995]',-2.605,0.242,-,64.000,27.623,16.125,-0.323
'[10:01:50.546 29/12/1995]',-2.549,0.231,-,64.000,27.623,16.125,-0.323
'[10:01:50.548 29/12/1995]',-2.494,0.176,-,64.000,27.623,16.125,-0.323
'[10:01:50.550 29/12/1995]',-2.438,0.143,-,64.000,27.623,16.125,-0.323
'[10:01:50.552 29/12/1995]',-2.329,0.133,-,63.600,28.274,16.012,-0.330
'[10:01:50.554 29/12/1995]',-2.218,0.133,-,63.600,28.274,16.012,-0.330
'[10:01:50.556 29/12/1995]',-2.106,0.176,-,63.600,28.274,16.012,-0.330
'[10:01:50.558 29/12/1995]',-1.995,0.231,-,63.600,28.274,16.012,-0.330
'[10:01:50.560 29/12/1995]',-1.884,0.297,-,63.200,29.099,16.012,-0.335
'[10:01:50.562 29/12/1995]',-1.772,0.341,-,63.200,29.099,16.012,-0.335
'[10:01:50.564 29/12/1995]',-1.605,0.362,-,63.200,29.099,16.012,-0.335
'[10:01:50.566 29/12/1995]',-1.496,0.396,-,63.200,29.099,16.012,-0.335
'[10:01:50.568 29/12/1995]',-1.441,0.406,-,62.850,30.025,16.075,-0.342
'[10:01:50.570 29/12/1995]',-1.329,0.417,-,62.850,30.025,16.075,-0.342
'[10:01:50.572 29/12/1995]',-1.273,0.428,-,62.850,30.025,16.075,-0.342
'[10:01:50.574 29/12/1995]',-1.162,0.472,-,62.850,30.025,16.075,-0.342
'[10:01:50.576 29/12/1995]',-1.051,0.494,-,62.450,30.851,16.250,-0.348
'[10:01:50.578 29/12/1995]',-0.939,0.516,-,62.450,30.851,16.250,-0.348
'[10:01:50.580 29/12/1995]',-0.884,0.538,-,62.450,30.851,16.250,-0.348
'[10:01:50.582 29/12/1995]',-0.775,0.549,-1.019,62.450,30.851,16.250,-0.348
'[10:01:50.584 29/12/1995]',-0.663,0.560,-0.898,61.950,31.426,16.538,-0.352
'[10:01:50.586 29/12/1995]',-0.552,0.560,-0.767,61.950,31.426,16.538,-0.352
'[10:01:50.588 29/12/1995]',-0.496,0.571,-0.657,61.950,31.426,16.538,-0.352
'[10:01:50.590 29/12/1995]',-0.385,0.593,-0.547,61.950,31.426,16.538,-0.352
'[10:01:50.592 29/12/1995]',-0.329,0.593,-0.438,61.500,32.077,16.950,-0.360
'[10:01:50.594 29/12/1995]',-0.218,0.571,-0.339,61.500,32.077,16.950,-0.360
'[10:01:50.596 29/12/1995]',-0.162,0.560,-0.252,61.500,32.077,16.950,-0.360
'[10:01:50.598 29/12/1995]',-0.106,0.538,-0.174,61.500,32.077,16.950,-0.360
'[10:01:50.600 29/12/1995]',-0.051,0.505,-0.120,61.050,32.952,17.413,-0.365
'[10:01:50.602 29/12/1995]',-0.051,0.462,-0.076,61.050,32.952,17.413,-0.365
'[10:01:50.604 29/12/1995]',0.005,0.417,-0.043,61.050,32.952,17.413,-0.365
'[10:01:50.606 29/12/1995]',0.005,0.351,0.001,61.050,32.952,17.413,-0.365
'[10:01:50.608 29/12/1995]',0.005,0.319,0.022,60.500,34.128,17.950,-0.371
'[10:01:50.610 29/12/1995]',0.005,0.275,0.067,60.500,34.128,17.950,-0.371
'[10:01:50.612 29/12/1995]',0.058,0.242,0.088,60.500,34.128,17.950,-0.371
'[10:01:50.614 29/12/1995]',0.058,0.209,0.121,60.500,34.128,17.950,-0.371
'[10:01:50.616 29/12/1995]',0.114,0.165,0.154,60.050,35.354,18.587,-0.379
'[10:01:50.618 29/12/1995]',0.114,0.121,0.187,60.050,35.354,18.587,-0.379
'[10:01:50.620 29/12/1995]',0.170,0.100,0.220,60.050,35.354,18.587,-0.379
'[10:01:50.622 29/12/1995]',0.170,0.056,0.231,60.050,35.354,18.587,-0.379
'[10:01:50.624 29/12/1995]',0.170,0.034,0.264,59.700,36.305,19.175,-0.384
'[10:01:50.626 29/12/1995]',0.225,0.011,0.297,59.700,36.305,19.175,-0.384
'[10:01:50.628 29/12/1995]',0.225,0.001,0.319,59.700,36.305,19.175,-0.384
'[10:01:50.630 29/12/1995]',0.225,0.001,0.341,59.700,36.305,19.175,-0.384
'[10:01:50.632 29/12/1995]',0.281,-0.010,0.362,59.500,36.881,19.825,-0.392
'[10:01:50.634 29/12/1995]',0.281,-0.010,0.362,59.500,36.881,19.825,-0.392
'[10:01:50.636 29/12/1995]',0.281,-0.010,0.373,59.500,36.881,19.825,-0.392
'[10:01:50.638 29/12/1995]',0.281,-0.010,0.373,59.500,36.881,19.825,-0.392
'[10:01:50.640 29/12/1995]',0.281,-0.010,0.373,59.400,37.181,20.400,-0.399
'[10:01:50.642 29/12/1995]',0.281,-0.021,0.385,59.400,37.181,20.400,-0.399
'[10:01:50.644 29/12/1995]',0.281,-0.021,0.385,59.400,37.181,20.400,-0.399
'[10:01:50.646 29/12/1995]',0.281,-0.021,0.396,59.400,37.181,20.400,-0.399
'[10:01:50.648 29/12/1995]',0.281,-0.021,0.417,59.400,37.181,20.875,-0.404
'[10:01:50.650 29/12/1995]',0.281,-0.032,0.417,59.400,37.181,20.875,-0.404
'[10:01:50.652 29/12/1995]',0.337,-0.032,0.428,59.400,37.181,20.875,-0.404
'[10:01:50.654 29/12/1995]',0.337,-0.043,0.440,59.400,37.181,20.875,-0.404
'[10:01:50.656 29/12/1995]',0.337,-0.032,0.440,59.450,37.006,21.337,-0.410
'[10:01:50.658 29/12/1995]',0.337,-0.032,0.451,59.450,37.006,21.337,-0.410
'[10:01:50.660 29/12/1995]',0.337,-0.032,0.462,59.450,37.006,21.337,-0.410
'[10:01:50.662 29/12/1995]',0.337,-0.021,0.472,59.450,37.006,21.337,-0.410
'[10:01:50.664 29/12/1995]',0.392,-0.021,0.494,59.550,36.781,21.637,-0.416
'[10:01:50.666 29/12/1995]',0.392,-0.021,0.505,59.550,36.781,21.637,-0.416
'[10:01:50.668 29/12/1995]',0.392,-0.021,0.516,59.550,36.781,21.637,-0.416
'[10:01:50.670 29/12/1995]',0.392,-0.032,0.516,59.550,36.781,21.637,-0.416
'[10:01:50.672 29/12/1995]',0.392,-0.032,0.527,59.700,36.781,21.875,-0.422
'[10:01:50.674 29/12/1995]',0.392,-0.032,0.538,59.700,36.781,21.875,-0.422
'[10:01:50.676 29/12/1995]',0.392,-0.032,0.549,59.700,36.781,21.875,-0.422
'[10:01:50.678 29/12/1995]',0.448,-0.021,0.571,59.700,36.781,21.875,-0.422
'[10:01:50.680 29/12/1995]',0.448,-0.010,0.593,59.850,37.181,21.925,-0.427
'[10:01:50.682 29/12/1995]',0.448,-0.021,0.615,59.850,37.181,21.925,-0.427
'[10:01:50.684 29/12/1995]',0.448,-0.021,0.636,59.850,37.181,21.925,-0.427
'[10:01:50.686 29/12/1995]',0.504,-0.032,0.647,59.850,37.181,21.925,-0.427
'[10:01:50.688 29/12/1995]',0.504,-0.043,0.669,60.350,37.882,21.925,-0.430
'[10:01:50.690 29/12/1995]',0.504,-0.043,0.692,60.350,37.882,21.925,-0.430
'[10:01:50.692 29/12/1995]',0.559,-0.032,0.714,60.350,37.882,21.925,-0.430
'[10:01:50.694 29/12/1995]',0.559,-0.032,0.736,60.350,37.882,21.925,-0.430
'[10:01:50.696 29/12/1995]',0.559,-0.021,0.768,61.400,38.707,21.812,-0.432
'[10:01:50.698 29/12/1995]',0.615,-0.021,0.790,61.400,38.707,21.812,-0.432
'[10:01:50.700 29/12/1995]',0.615,-0.021,0.812,61.400,38.707,21.812,-0.432
'[10:01:50.702 29/12/1995]',0.615,-0.021,0.834,61.400,38.707,21.812,-0.432
'[10:01:50.704 29/12/1995]',0.615,-0.032,0.856,63.350,39.583,21.637,-0.434
'[10:01:50.706 29/12/1995]',0.671,-0.043,0.878,63.350,39.583,21.637,-0.434
'[10:01:50.708 29/12/1995]',0.671,-0.043,0.911,63.350,39.583,21.637,-0.434
'[10:01:50.710 29/12/1995]',0.727,-0.032,0.933,63.350,39.583,21.637,-0.434
'[10:01:50.712 29/12/1995]',0.727,-0.021,0.977,66.350,40.759,21.400,-0.432
'[10:01:50.714 29/12/1995]',0.727,-0.021,0.999,66.350,40.759,21.400,-0.432
'[10:01:50.716 29/12/1995]',0.782,-0.021,1.024,66.350,40.759,21.400,-0.432
'[10:01:50.718 29/12/1995]',0.782,-0.043,1.024,66.350,40.759,21.400,-0.432
'[10:01:50.720 29/12/1995]',0.835,-0.043,1.024,70.300,42.285,21.163,-0.427
'[10:01:50.722 29/12/1995]',0.835,-0.043,1.024,70.300,42.285,21.163,-0.427
'[10:01:50.724 29/12/1995]',0.835,-0.043,1.024,70.300,42.285,21.163,-0.427
'[10:01:50.726 29/12/1995]',0.891,-0.043,1.024,70.300,42.285,21.163,-0.427
'[10:01:50.728 29/12/1995]',0.891,-0.032,1.024,74.700,44.037,20.938,-0.419
'[10:01:50.730 29/12/1995]',0.947,-0.032,1.024,74.700,44.037,20.938,-0.419
'[10:01:50.732 29/12/1995]',0.947,-0.032,1.024,74.700,44.037,20.938,-0.419
'[10:01:50.734 29/12/1995]',0.947,-0.043,1.024,74.700,44.037,20.938,-0.419
'[10:01:50.736 29/12/1995]',0.947,-0.054,1.024,79.150,45.688,20.700,-0.408
'[10:01:50.738 29/12/1995]',0.947,-0.054,1.024,79.150,45.688,20.700,-0.408
'[10:01:50.740 29/12/1995]',0.947,-0.065,1.024,79.150,45.688,20.700,-0.408
'[10:01:50.742 29/12/1995]',1.003,-0.065,1.024,79.150,45.688,20.700,-0.408
'[10:01:50.744 29/12/1995]',1.003,-0.043,1.024,83.300,47.214,20.462,-0.390
'[10:01:50.746 29/12/1995]',1.003,-0.054,1.024,83.300,47.214,20.462,-0.390
'[10:01:50.748 29/12/1995]',1.003,-0.043,1.024,83.300,47.214,20.462,-0.390
'[10:01:50.750 29/12/1995]',1.003,-0.054,1.024,83.300,47.214,20.462,-0.390
'[10:01:50.752 29/12/1995]',1.003,-0.054,1.024,86.850,48.440,20.225,-0.364
'[10:01:50.754 29/12/1995]',0.947,-0.065,1.024,86.850,48.440,20.225,-0.364
'[10:01:50.756 29/12/1995]',0.947,-0.065,1.024,86.850,48.440,20.225,-0.364
'[10:01:50.758 29/12/1995]',0.947,-0.065,1.024,86.850,48.440,20.225,-0.364
'[10:01:50.760 29/12/1995]',0.947,-0.054,1.024,89.750,49.391,19.938,-0.330
'[10:01:50.762 29/12/1995]',0.947,-0.054,1.024,89.750,49.391,19.938,-0.330
'[10:01:50.764 29/12/1995]',0.891,-0.054,1.024,89.750,49.391,19.938,-0.330
'[10:01:50.766 29/12/1995]',0.891,-0.065,1.024,89.750,49.391,19.938,-0.330
'[10:01:50.768 29/12/1995]',0.835,-0.065,1.024,92.050,49.841,19.700,-0.288
'[10:01:50.770 29/12/1995]',0.835,-0.076,1.024,92.050,49.841,19.700,-0.288
'[10:01:50.772 29/12/1995]',0.782,-0.098,1.024,92.050,49.841,19.700,-0.288
'[10:01:50.774 29/12/1995]',0.782,-0.098,0.999,92.050,49.841,19.700,-0.288
'[10:01:50.776 29/12/1995]',0.727,-0.076,0.977,94.000,49.741,19.462,-0.237
'[10:01:50.778 29/12/1995]',0.727,-0.076,0.933,94.000,49.741,19.462,-0.237
'[10:01:50.780 29/12/1995]',0.671,-0.065,0.900,94.000,49.741,19.462,-0.237
'[10:01:50.782 29/12/1995]',0.615,-0.076,0.845,94.000,49.741,19.462,-0.237
'[10:01:50.784 29/12/1995]',0.615,-0.076,0.801,95.850,48.966,19.238,-0.178
'[10:01:50.786 29/12/1995]',0.559,-0.076,0.757,95.850,48.966,19.238,-0.178
'[10:01:50.788 29/12/1995]',0.504,-0.076,0.703,95.850,48.966,19.238,-0.178
'[10:01:50.790 29/12/1995]',0.504,-0.076,0.658,95.850,48.966,19.238,-0.178
'[10:01:50.792 29/12/1995]',0.448,-0.076,0.615,97.650,47.439,19.062,-0.116
'[10:01:50.794 29/12/1995]',0.392,-0.065,0.571,97.650,47.439,19.062,-0.116
'[10:01:50.796 29/12/1995]',0.392,-0.054,0.538,97.650,47.439,19.062,-0.116
'[10:01:50.798 29/12/1995]',0.337,-0.065,0.494,97.650,47.439,19.062,-0.116
'[10:01:50.800 29/12/1995]',0.337,-0.076,0.451,99.700,45.213,18.887,-0.049
'[10:01:50.802 29/12/1995]',0.281,-0.109,0.406,99.700,45.213,18.887,-0.049
'[10:01:50.804 29/12/1995]',0.281,-0.109,0.362,99.700,45.213,18.887,-0.049
'[10:01:50.806 29/12/1995]',0.225,-0.098,0.319,99.700,45.213,18.887,-0.049
'[10:01:50.808 29/12/1995]',0.225,-0.065,0.297,102.000,42.510,18.712,0.018
'[10:01:50.810 29/12/1995]',0.170,-0.065,0.253,102.000,42.510,18.712,0.018
'[10:01:50.812 29/12/1995]',0.170,-0.043,0.231,102.000,42.510,18.712,0.018
'[10:01:50.814 29/12/1995]',0.114,-0.043,0.198,102.000,42.510,18.712,0.018
'[10:01:50.816 29/12/1995]',0.114,-0.043,0.176,104.350,39.533,18.587,0.082
'[10:01:50.818 29/12/1995]',0.114,-0.054,0.154,104.350,39.533,18.587,0.082
'[10:01:50.820 29/12/1995]',0.058,-0.054,0.121,104.350,39.533,18.587,0.082
'[10:01:50.822 29/12/1995]',0.058,-0.054,0.100,104.350,39.533,18.587,0.082
'[10:01:50.824 29/12/1995]',0.058,-0.043,0.077,106.200,36.480,18.413,0.142
'[10:01:50.826 29/12/1995]',0.005,-0.032,0.067,106.200,36.480,18.413,0.142
'[10:01:50.828 29/12/1995]',0.005,-0.021,0.044,106.200,36.480,18.413,0.142
'[10:01:50.830 29/12/1995]',0.005,-0.010,0.034,106.200,36.480,18.413,0.142
'[10:01:50.832 29/12/1995]',0.005,-0.021,0.011,107.550,33.428,18.175,0.197
'[10:01:50.834 29/12/1995]',0.005,-0.021,0.001,107.550,33.428,18.175,0.197
'[10:01:50.836 29/12/1995]',0.005,-0.032,-0.010,107.550,33.428,18.175,0.197
'[10:01:50.838 29/12/1995]',0.005,-0.032,-0.032,107.550,33.428,18.175,0.197
'[10:01:50.840 29/12/1995]',0.005,-0.010,-0.043,108.200,30.450,17.887,0.245
'[10:01:50.842 29/12/1995]',0.005,-0.010,-0.054,108.200,30.450,17.887,0.245
'[10:01:50.844 29/12/1995]',0.005,0.001,-0.054,108.200,30.450,17.887,0.245
'[10:01:50.846 29/12/1995]',0.005,0.011,-0.054,108.200,30.450,17.887,0.245
'[10:01:50.848 29/12/1995]',-0.051,0.001,-0.076,108.250,27.748,17.538,0.288
'[10:01:50.850 29/12/1995]',-0.051,0.001,-0.076,108.250,27.748,17.538,0.288
'[10:01:50.852 29/12/1995]',-0.051,0.001,-0.076,108.250,27.748,17.538,0.288
'[10:01:50.854 29/12/1995]',-0.051,-0.010,-0.098,108.250,27.748,17.538,0.288
'[10:01:50.856 29/12/1995]',-0.051,0.001,-0.098,107.550,25.521,17.188,0.324
'[10:01:50.858 29/12/1995]',-0.051,0.001,-0.109,107.550,25.521,17.188,0.324
'[10:01:50.860 29/12/1995]',-0.051,0.022,-0.109,107.550,25.521,17.188,0.324
'[10:01:50.862 29/12/1995]',-0.051,0.022,-0.109,107.550,25.521,17.188,0.324
'[10:01:50.864 29/12/1995]',-0.051,0.022,-0.109,106.050,24.045,16.712,0.355
'[10:01:50.866 29/12/1995]',-0.051,0.022,-0.120,106.050,24.045,16.712,0.355
'[10:01:50.868 29/12/1995]',-0.051,0.001,-0.131,106.050,24.045,16.712,0.355
'[10:01:50.870 29/12/1995]',-0.051,0.001,-0.142,106.050,24.045,16.712,0.355
'[10:01:50.872 29/12/1995]',-0.051,0.001,-0.142,103.750,23.344,16.250,0.384
'[10:01:50.874 29/12/1995]',-0.051,0.001,-0.142,103.750,23.344,16.250,0.384
'[10:01:50.876 29/12/1995]',-0.051,0.001,-0.131,103.750,23.344,16.250,0.384
'[10:01:50.878 29/12/1995]',-0.051,0.022,-0.131,103.750,23.344,16.250,0.384
'[10:01:50.880 29/12/1995]',-0.051,0.022,-0.131,100.750,23.294,15.713,0.406
'[10:01:50.882 29/12/1995]',-0.051,0.022,-0.142,100.750,23.294,15.713,0.406
'[10:01:50.884 29/12/1995]',-0.106,0.022,-0.142,100.750,23.294,15.713,0.406
'[10:01:50.886 29/12/1995]',-0.106,0.022,-0.142,100.750,23.294,15.713,0.406
'[10:01:50.888 29/12/1995]',-0.106,0.011,-0.142,97.400,23.745,15.188,0.424
'[10:01:50.890 29/12/1995]',-0.106,0.011,-0.153,97.400,23.745,15.188,0.424
'[10:01:50.892 29/12/1995]',-0.106,0.001,-0.142,97.400,23.745,15.188,0.424
'[10:01:50.894 29/12/1995]',-0.106,0.011,-0.153,97.400,23.745,15.188,0.424
'[10:01:50.896 29/12/1995]',-0.106,0.011,-0.142,94.100,24.696,14.600,0.439
'[10:01:50.898 29/12/1995]',-0.106,0.001,-0.153,94.100,24.696,14.600,0.439
'[10:01:50.900 29/12/1995]',-0.106,-0.021,-0.153,94.100,24.696,14.600,0.439
'[10:01:50.902 29/12/1995]',-0.106,-0.021,-0.153,94.100,24.696,14.600,0.439
'[10:01:50.904 29/12/1995]',-0.106,-0.010,-0.153,91.150,26.147,14.075,0.446
'[10:01:50.906 29/12/1995]',-0.106,-0.021,-0.174,91.150,26.147,14.075,0.446
'[10:01:50.908 29/12/1995]',-0.106,0.001,-0.164,91.150,26.147,14.075,0.446
'[10:01:50.910 29/12/1995]',-0.106,0.011,-0.164,91.150,26.147,14.075,0.446
'[10:01:50.912 29/12/1995]',-0.106,0.001,-0.164,88.650,28.223,13.613,0.447
'[10:01:50.914 29/12/1995]',-0.106,-0.010,-0.164,88.650,28.223,13.613,0.447
'[10:01:50.916 29/12/1995]',-0.106,-0.010,-0.164,88.650,28.223,13.613,0.447
'[10:01:50.918 29/12/1995]',-0.106,-0.021,-0.164,88.650,28.223,13.613,0.447
'[10:01:50.920 29/12/1995]',-0.106,-0.021,-0.174,86.450,31.026,13.137,0.439
'[10:01:50.922 29/12/1995]',-0.106,-0.021,-0.185,86.450,31.026,13.137,0.439
'[10:01:50.924 29/12/1995]',-0.106,-0.010,-0.185,86.450,31.026,13.137,0.439
'[10:01:50.926 29/12/1995]',-0.106,0.001,-0.185,86.450,31.026,13.137,0.439
'[10:01:50.928 29/12/1995]',-0.106,0.011,-0.174,84.550,34.729,12.675,0.426
'[10:01:50.930 29/12/1995]',0.392,1.024,0.527,84.550,34.729,12.675,0.426
'[10:01:50.932 29/12/1995]',0.170,0.856,0.231,84.550,34.729,12.675,0.426
'[10:01:50.934 29/12/1995]',0.005,0.472,0.034,84.550,34.729,12.675,0.426
'[10:01:50.936 29/12/1995]',-0.051,0.253,-0.076,82.900,39.007,12.325,0.405
'[10:01:50.938 29/12/1995]',-0.106,0.067,-0.164,82.900,39.007,12.325,0.405
'[10:01:50.940 29/12/1995]',-0.162,-0.021,-0.218,82.900,39.007,12.325,0.405
'[10:01:50.942 29/12/1995]',-0.162,-0.098,-0.252,82.900,39.007,12.325,0.405
'[10:01:50.944 29/12/1995]',-0.218,-0.153,-0.306,81.350,42.936,12.025,0.377
'[10:01:50.946 29/12/1995]',-0.218,-0.230,-0.328,81.350,42.936,12.025,0.377
'[10:01:50.948 29/12/1995]',-0.273,-0.274,-0.372,81.350,42.936,12.025,0.377
'[10:01:50.950 29/12/1995]',-0.273,-0.350,-0.394,81.350,42.936,12.025,0.377
'[10:01:50.952 29/12/1995]',-0.273,-0.394,-0.416,79.950,45.213,11.738,0.345
'[10:01:50.954 29/12/1995]',-0.329,-0.416,-0.427,79.950,45.213,11.738,0.345
'[10:01:50.956 29/12/1995]',-0.329,-0.405,-0.427,79.950,45.213,11.738,0.345
'[10:01:50.958 29/12/1995]',-0.273,-0.372,-0.405,79.950,45.213,11.738,0.345
'[10:01:50.960 29/12/1995]',-0.273,-0.339,-0.383,78.650,45.513,11.562,0.309
'[10:01:50.962 29/12/1995]',-0.273,-0.295,-0.372,78.650,45.513,11.562,0.309
'[10:01:50.964 29/12/1995]',-0.273,-0.263,-0.350,78.650,45.513,11.562,0.309
'[10:01:50.966 29/12/1995]',-0.218,-0.230,-0.339,78.650,45.513,11.562,0.309
'[10:01:50.968 29/12/1995]',-0.218,-0.197,-0.317,77.400,44.462,11.387,0.272
'[10:01:50.970 29/12/1995]',-0.218,-0.174,-0.328,77.400,44.462,11.387,0.272
'[10:01:50.972 29/12/1995]',-0.218,-0.142,-0.306,77.400,44.462,11.387,0.272
'[10:01:50.974 29/12/1995]',-0.218,-0.120,-0.306,77.400,44.462,11.387,0.272
'[10:01:50.976 29/12/1995]',-0.218,-0.109,-0.306,76.150,42.986,11.262,0.234
'[10:01:50.978 29/12/1995]',-0.218,-0.076,-0.306,76.150,42.986,11.262,0.234
'[10:01:50.980 29/12/1995]',-0.218,-0.065,-0.295,76.150,42.986,11.262,0.234
'[10:01:50.982 29/12/1995]',-0.218,-0.054,-0.306,76.150,42.986,11.262,0.234
'[10:01:50.984 29/12/1995]',-0.218,-0.054,-0.295,75.000,41.585,11.213,0.195
'[10:01:50.986 29/12/1995]',-0.218,-0.043,-0.306,75.000,41.585,11.213,0.195
'[10:01:50.988 29/12/1995]',-0.218,-0.043,-0.306,75.000,41.585,11.213,0.195
'[10:01:50.990 29/12/1995]',-0.218,-0.032,-0.306,75.000,41.585,11.213,0.195
'[10:01:50.992 29/12/1995]',-0.218,-0.021,-0.306,73.900,39.883,11.262,0.159
'[10:01:50.994 29/12/1995]',-0.218,-0.010,-0.306,73.900,39.883,11.262,0.159
'[10:01:50.996 29/12/1995]',-0.218,-0.010,-0.306,73.900,39.883,11.262,0.159
'[10:01:50.998 29/12/1995]',-0.218,-0.010,-0.306,73.900,39.883,11.262,0.159
'[10:01:51.000 29/12/1995]',-0.218,0.011,-0.306,72.850,37.781,11.325,0.122
'[10:01:51.002 29/12/1995]',-0.218,0.001,-0.317,72.850,37.781,11.325,0.122
'[10:01:51.004 29/12/1995]',-0.218,-0.010,-0.317,72.850,37.781,11.325,0.122
'[10:01:51.006 29/12/1995]',-0.218,-0.010,-0.328,72.850,37.781,11.325,0.122
'[10:01:51.008 29/12/1995]',-0.218,-0.010,-0.328,72.000,35.429,11.500,0.087
'[10:01:51.010 29/12/1995]',-0.218,0.001,-0.339,72.000,35.429,11.500,0.087
'[10:01:51.012 29/12/1995]',-0.218,0.001,-0.339,72.000,35.429,11.500,0.087
'[10:01:51.014 29/12/1995]',-0.218,-0.010,-0.339,72.000,35.429,11.500,0.087
'[10:01:51.016 29/12/1995]',-0.273,-0.010,-0.350,71.250,33.203,11.675,0.053
'[10:01:51.018 29/12/1995]',-0.273,0.001,-0.350,71.250,33.203,11.675,0.053
'[10:01:51.020 29/12/1995]',-0.273,0.011,-0.361,71.250,33.203,11.675,0.053
'[10:01:51.022 29/12/1995]',-0.273,0.022,-0.361,71.250,33.203,11.675,0.053
'[10:01:51.024 29/12/1995]',-0.273,0.044,-0.361,70.600,31.376,11.963,0.021
'[10:01:51.026 29/12/1995]',-0.273,0.067,-0.361,70.600,31.376,11.963,0.021
'[10:01:51.028 29/12/1995]',-0.273,0.067,-0.361,70.600,31.376,11.963,0.021
'[10:01:51.030 29/12/1995]',-0.273,0.067,-0.361,70.600,31.376,11.963,0.021
'[10:01:51.032 29/12/1995]',-0.273,0.077,-0.350,70.050,29.850,12.325,-0.010
'[10:01:51.034 29/12/1995]',-0.273,0.077,-0.361,70.050,29.850,12.325,-0.010
'[10:01:51.036 29/12/1995]',-0.273,0.100,-0.361,70.050,29.850,12.325,-0.010
'[10:01:51.038 29/12/1995]',-0.273,0.111,-0.361,70.050,29.850,12.325,-0.010
'[10:01:51.040 29/12/1995]',-0.273,0.111,-0.361,69.750,28.574,12.725,-0.041
'[10:01:51.042 29/12/1995]',-0.273,0.121,-0.350,69.750,28.574,12.725,-0.041
'[10:01:51.044 29/12/1995]',-0.273,0.121,-0.350,69.750,28.574,12.725,-0.041
'[10:01:51.046 29/12/1995]',-0.218,0.133,-0.350,69.750,28.574,12.725,-0.041
'[10:01:51.048 29/12/1995]',-0.218,0.133,-0.339,69.550,27.498,13.137,-0.070
'[10:01:51.050 29/12/1995]',-0.218,0.121,-0.339,69.550,27.498,13.137,-0.070
'[10:01:51.052 29/12/1995]',-0.218,0.111,-0.328,69.550,27.498,13.137,-0.070
'[10:01:51.054 29/12/1995]',-0.218,0.100,-0.328,69.550,27.498,13.137,-0.070
'[10:01:51.056 29/12/1995]',-0.218,0.077,-0.328,69.300,26.747,13.613,-0.097
'[10:01:51.058 29/12/1995]',-0.218,0.067,-0.328,69.300,26.747,13.613,-0.097
'[10:01:51.060 29/12/1995]',-0.218,0.056,-0.328,69.300,26.747,13.613,-0.097
'[10:01:51.062 29/12/1995]',-0.218,0.067,-0.317,69.300,26.747,13.613,-0.097
'[10:01:51.064 29/12/1995]',-0.218,0.067,-0.306,69.050,26.272,14.075,-0.124
'[10:01:51.066 29/12/1995]',-0.218,0.044,-0.317,69.050,26.272,14.075,-0.124
'[10:01:51.068 29/12/1995]',-0.218,0.034,-0.317,69.050,26.272,14.075,-0.124
'[10:01:51.070 29/12/1995]',-0.218,0.022,-0.317,69.050,26.272,14.075,-0.124
'[10:01:51.072 29/12/1995]',-0.218,0.011,-0.328,68.800,26.047,14.550,-0.148
'[10:01:51.074 29/12/1995]',-0.218,0.001,-0.328,68.800,26.047,14.550,-0.148
'[10:01:51.076 29/12/1995]',-0.218,0.011,-0.328,68.800,26.047,14.550,-0.148
'[10:01:51.078 29/12/1995]',-0.218,0.022,-0.339,68.800,26.047,14.550,-0.148
'[10:01:51.080 29/12/1995]',-0.218,0.022,-0.328,68.650,25.922,14.963,-0.172
'[10:01:51.082 29/12/1995]',-0.218,0.011,-0.339,68.650,25.922,14.963,-0.172
'[10:01:51.084 29/12/1995]',-0.218,-0.021,-0.350,68.650,25.922,14.963,-0.172
'[10:01:51.086 29/12/1995]',-0.273,-0.021,-0.383,68.650,25.922,14.963,-0.172
'[10:01:51.088 29/12/1995]',-0.273,-0.021,-0.383,68.350,25.872,15.425,-0.192
'[10:01:51.090 29/12/1995]',-0.273,-0.021,-0.372,68.350,25.872,15.425,-0.192
'[10:01:51.092 29/12/1995]',-0.273,-0.021,-0.361,68.350,25.872,15.425,-0.192
'[10:01:51.094 29/12/1995]',-0.273,-0.010,-0.361,68.350,25.872,15.425,-0.192
'[10:01:51.096 29/12/1995]',-0.218,0.001,-0.339,68.050,25.796,15.775,-0.209
'[10:01:51.098 29/12/1995]',-0.273,-0.010,-0.350,68.050,25.796,15.775,-0.209
'[10:01:51.100 29/12/1995]',-0.218,-0.010,-0.350,68.050,25.796,15.775,-0.209
'[10:01:51.102 29/12/1995]',-0.273,-0.010,-0.350,68.050,25.796,15.775,-0.209
'[10:01:51.104 29/12/1995]',-0.273,-0.021,-0.361,67.700,25.746,16.125,-0.227
'[10:01:51.106 29/12/1995]',-0.273,-0.021,-0.361,67.700,25.746,16.125,-0.227
'[10:01:51.108 29/12/1995]',-0.273,-0.021,-0.350,67.700,25.746,16.125,-0.227
'[10:01:51.110 29/12/1995]',-0.273,-0.021,-0.361,67.700,25.746,16.125,-0.227
'[10:01:51.112 29/12/1995]',-0.273,0.001,-0.350,67.400,25.621,16.425,-0.239
'[10:01:51.114 29/12/1995]',-0.273,-0.010,-0.350,67.400,25.621,16.425,-0.239
'[10:01:51.116 29/12/1995]',-0.273,-0.010,-0.350,67.400,25.621,16.425,-0.239
'[10:01:51.118 29/12/1995]',-0.273,-0.010,-0.361,67.400,25.621,16.425,-0.239
'[10:01:51.120 29/12/1995]',-0.273,-0.010,-0.372,67.100,25.621,16.600,-0.252
'[10:01:51.122 29/12/1995]',-0.273,-0.010,-0.372,67.100,25.621,16.600,-0.252
'[10:01:51.124 29/12/1995]',-0.273,-0.010,-0.372,67.100,25.621,16.600,-0.252
'[10:01:51.126 29/12/1995]',-0.273,-0.010,-0.372,67.100,25.621,16.600,-0.252
'[10:01:51.128 29/12/1995]',-0.273,-0.010,-0.361,66.850,25.621,16.712,-0.262
'[10:01:51.130 29/12/1995]',-0.273,-0.010,-0.372,66.850,25.621,16.712,-0.262
'[10:01:51.132 29/12/1995]',-0.273,0.001,-0.372,66.850,25.621,16.712,-0.262
'[10:01:51.134 29/12/1995]',-0.273,-0.010,-0.372,66.850,25.621,16.712,-0.262
'[10:01:51.136 29/12/1995]',-0.273,-0.021,-0.372,66.550,25.696,16.837,-0.270
'[10:01:51.138 29/12/1995]',-0.273,-0.021,-0.383,66.550,25.696,16.837,-0.270
'[10:01:51.140 29/12/1995]',-0.273,-0.021,-0.383,66.550,25.696,16.837,-0.270
'[10:01:51.142 29/12/1995]',-0.273,-0.021,-0.372,66.550,25.696,16.837,-0.270
'[10:01:51.144 29/12/1995]',-0.273,-0.021,-0.372,66.250,25.746,16.887,-0.279
'[10:01:51.146 29/12/1995]',-0.273,-0.010,-0.372,66.250,25.746,16.887,-0.279
'[10:01:51.148 29/12/1995]',-0.273,-0.010,-0.383,66.250,25.746,16.887,-0.279
'[10:01:51.150 29/12/1995]',-0.273,-0.010,-0.383,66.250,25.746,16.887,-0.279
'[10:01:51.152 29/12/1995]',-0.273,-0.021,-0.383,66.000,25.746,16.887,-0.287
'[10:01:51.154 29/12/1995]',-0.273,-0.021,-0.405,66.000,25.746,16.887,-0.287
'[10:01:51.156 29/12/1995]',-0.329,-0.021,-0.427,66.000,25.746,16.887,-0.287
'[10:01:51.158 29/12/1995]',-0.329,-0.021,-0.460,66.000,25.746,16.887,-0.287
'[10:01:51.160 29/12/1995]',-0.385,-0.010,-0.514,65.800,25.796,16.837,-0.294
'[10:01:51.162 29/12/1995]',-0.441,-0.021,-0.624,65.800,25.796,16.837,-0.294
'[10:01:51.164 29/12/1995]',-0.552,-0.021,-0.756,65.800,25.796,16.837,-0.294
'[10:01:51.166 29/12/1995]',-0.663,-0.032,-0.920,65.800,25.796,16.837,-0.294
'[10:01:51.168 29/12/1995]',-0.828,-0.043,-,65.550,25.796,16.712,-0.303
'[10:01:51.170 29/12/1995]',-0.939,-0.054,-,65.550,25.796,16.712,-0.303
'[10:01:51.172 29/12/1995]',-1.106,-0.065,-,65.550,25.796,16.712,-0.303
'[10:01:51.174 29/12/1995]',-1.273,-0.065,-,65.550,25.796,16.712,-0.303
'[10:01:51.176 29/12/1995]',-1.441,-0.065,-,65.250,25.796,16.600,-0.309
'[10:01:51.178 29/12/1995]',-1.605,-0.054,-,65.250,25.796,16.600,-0.309
'[10:01:51.180 29/12/1995]',-1.828,-0.065,-,65.250,25.796,16.600,-0.309
'[10:01:51.182 29/12/1995]',-1.939,-0.076,-,65.250,25.796,16.600,-0.309
'[10:01:51.184 29/12/1995]',-2.106,-0.076,-,64.950,25.796,16.475,-0.316
'[10:01:51.186 29/12/1995]',-2.218,-0.065,-,64.950,25.796,16.475,-0.316
'[10:01:51.188 29/12/1995]',-2.329,-0.043,-,64.950,25.796,16.475,-0.316
'[10:01:51.190 29/12/1995]',-2.438,-0.021,-,64.950,25.796,16.475,-0.316
'[10:01:51.192 29/12/1995]',-2.549,0.022,-,64.550,25.872,16.300,-0.322
'[10:01:51.194 29/12/1995]',-2.605,0.034,-,64.550,25.872,16.300,-0.322
'[10:01:51.196 29/12/1995]',-2.661,0.067,-,64.550,25.872,16.300,-0.322
'[10:01:51.198 29/12/1995]',-2.716,0.100,-,64.550,25.872,16.300,-0.322
'[10:01:51.200 29/12/1995]',-2.772,0.111,-,64.100,25.922,16.125,-0.328
'[10:01:51.202 29/12/1995]',-2.828,0.133,-,64.100,25.922,16.125,-0.328
'[10:01:51.204 29/12/1995]',-2.828,0.143,-,64.100,25.922,16.125,-0.328
'[10:01:51.206 29/12/1995]',-2.828,0.165,-,64.100,25.922,16.125,-0.328
'[10:01:51.208 29/12/1995]',-2.828,0.165,-,63.550,26.047,16.012,-0.333
'[10:01:51.210 29/12/1995]',-2.828,0.154,-,63.550,26.047,16.012,-0.333
'[10:01:51.212 29/12/1995]',-2.828,0.143,-,63.550,26.047,16.012,-0.333
'[10:01:51.214 29/12/1995]',-2.772,0.133,-,63.550,26.047,16.012,-0.333
'[10:01:51.216 29/12/1995]',-2.716,0.111,-,63.000,26.397,15.900,-0.338
