'Time and date','II','aVR','V','ABP','PAP','CVP','PLETH'
'hh:mm:ss.mmm dd/mm/yyyy','mV','mV','mV','mmHg','mmHg','mmHg','mV'
'[15:26:28.000 06/04/1996]',-0.036,0.147,-0.042,64.125,7.300,-4.650,0.000
'[15:26:28.002 06/04/1996]',-0.027,0.147,-0.042,64.125,7.300,-4.650,0.000
'[15:26:28.004 06/04/1996]',-0.027,0.147,-0.042,64.125,7.300,-4.650,0.000
'[15:26:28.006 06/04/1996]',-0.018,0.147,-0.042,64.125,7.300,-4.650,0.000
'[15:26:28.008 06/04/1996]',-0.036,0.147,-0.042,65.775,7.175,-4.650,0.000
'[15:26:28.010 06/04/1996]',-0.036,0.147,-0.042,65.775,7.175,-4.650,0.000
'[15:26:28.012 06/04/1996]',-0.027,0.147,-0.064,65.775,7.175,-4.650,0.000
'[15:26:28.014 06/04/1996]',-0.018,0.147,-0.064,65.775,7.175,-4.650,0.000
'[15:26:28.016 06/04/1996]',0.001,0.129,-0.064,69.000,7.525,-4.650,0.000
'[15:26:28.018 06/04/1996]',0.001,0.129,-0.064,69.000,7.525,-4.650,0.000
'[15:26:28.020 06/04/1996]',0.001,0.129,-0.064,69.000,7.525,-4.650,0.000
'[15:26:28.022 06/04/1996]',0.001,0.111,-0.064,69.000,7.525,-4.650,0.000
'[15:26:28.024 06/04/1996]',0.001,0.129,-0.064,74.025,8.300,-4.650,0.000
'[15:26:28.026 06/04/1996]',0.001,0.111,-0.064,74.025,8.300,-4.650,0.000
'[15:26:28.028 06/04/1996]',0.001,0.129,-0.042,74.025,8.300,-4.650,0.000
'[15:26:28.030 06/04/1996]',0.001,0.111,-0.042,74.025,8.300,-4.650,0.000
'[15:26:28.032 06/04/1996]',0.001,0.111,-0.042,80.025,9.650,-4.650,0.000
'[15:26:28.034 06/04/1996]',0.001,0.111,-0.042,80.025,9.650,-4.650,0.000
'[15:26:28.036 06/04/1996]',0.001,0.111,-0.042,80.025,9.650,-4.650,0.000
'[15:26:28.038 06/04/1996]',0.001,0.111,-0.042,80.025,9.650,-4.650,0.000
'[15:26:28.040 06/04/1996]',0.001,0.111,-0.042,85.725,11.275,-4.650,0.000
'[15:26:28.042 06/04/1996]',0.001,0.111,-0.042,85.725,11.275,-4.650,0.000
'[15:26:28.044 06/04/1996]',0.001,0.111,-0.042,85.725,11.275,-4.650,0.000
'[15:26:28.046 06/04/1996]',0.001,0.111,-0.042,85.725,11.275,-4.650,0.000
'[15:26:28.048 06/04/1996]',0.001,0.111,-0.042,90.150,13.275,-4.650,0.000
'[15:26:28.050 06/04/1996]',0.001,0.111,-0.042,90.150,13.275,-4.650,0.000
'[15:26:28.052 06/04/1996]',0.001,0.111,-0.042,90.150,13.275,-4.650,0.000
'[15:26:28.054 06/04/1996]',-0.008,0.092,-0.042,90.150,13.275,-4.650,0.000
'[15:26:28.056 06/04/1996]',-0.008,0.111,-0.020,93.150,15.550,-4.650,0.000
'[15:26:28.058 06/04/1996]',-0.027,0.111,-0.020,93.150,15.550,-4.650,0.000
'[15:26:28.060 06/04/1996]',-0.018,0.111,0.002,93.150,15.550,-4.650,0.000
'[15:26:28.062 06/04/1996]',-0.027,0.111,0.002,93.150,15.550,-4.650,0.000
'[15:26:28.064 06/04/1996]',-0.036,0.111,0.002,95.550,18.025,-4.650,0.000
'[15:26:28.066 06/04/1996]',-0.027,0.111,0.002,95.550,18.025,-4.650,0.000
'[15:26:28.068 06/04/1996]',-0.018,0.092,0.002,95.550,18.025,-4.650,0.000
'[15:26:28.070 06/04/1996]',-0.018,0.092,0.002,95.550,18.025,-4.650,0.000
'[15:26:28.072 06/04/1996]',-0.018,0.092,0.002,97.950,20.525,-4.650,0.000
'[15:26:28.074 06/04/1996]',-0.027,0.092,0.002,97.950,20.525,-4.650,0.000
'[15:26:28.076 06/04/1996]',-0.036,0.092,0.002,97.950,20.525,-4.650,0.000
'[15:26:28.078 06/04/1996]',-0.036,0.092,0.002,97.950,20.525,-4.650,0.000
'[15:26:28.080 06/04/1996]',-0.045,0.092,0.002,100.425,23.000,-4.650,0.000
'[15:26:28.082 06/04/1996]',-0.045,0.092,0.002,100.425,23.000,-4.650,0.000
'[15:26:28.084 06/04/1996]',-0.045,0.092,0.002,100.425,23.000,-4.650,0.000
'[15:26:28.086 06/04/1996]',-0.045,0.092,0.002,100.425,23.000,-4.650,0.000
'[15:26:28.088 06/04/1996]',-0.027,0.092,0.002,102.825,25.450,-4.650,0.000
'[15:26:28.090 06/04/1996]',-0.036,0.092,0.002,102.825,25.450,-4.650,0.000
'[15:26:28.092 06/04/1996]',-0.036,0.092,0.002,102.825,25.450,-4.650,0.000
'[15:26:28.094 06/04/1996]',-0.036,0.092,0.002,102.825,25.450,-4.650,0.000
'[15:26:28.096 06/04/1996]',-0.045,0.092,0.002,104.925,27.750,-4.650,0.000
'[15:26:28.098 06/04/1996]',-0.036,0.092,0.002,104.925,27.750,-4.650,0.000
'[15:26:28.100 06/04/1996]',-0.036,0.092,0.002,104.925,27.750,-4.650,0.000
'[15:26:28.102 06/04/1996]',-0.036,0.092,0.002,104.925,27.750,-4.650,0.000
'[15:26:28.104 06/04/1996]',-0.045,0.092,0.002,106.500,29.725,-4.650,0.000
'[15:26:28.106 06/04/1996]',-0.063,0.111,0.002,106.500,29.725,-4.650,0.000
'[15:26:28.108 06/04/1996]',-0.072,0.111,0.002,106.500,29.725,-4.650,0.000
'[15:26:28.110 06/04/1996]',-0.063,0.111,0.002,106.500,29.725,-4.650,0.000
'[15:26:28.112 06/04/1996]',-0.063,0.111,0.002,107.550,31.325,-4.650,0.000
'[15:26:28.114 06/04/1996]',-0.063,0.111,0.002,107.550,31.325,-4.650,0.000
'[15:26:28.116 06/04/1996]',-0.063,0.092,0.002,107.550,31.325,-4.650,0.000
'[15:26:28.118 06/04/1996]',-0.063,0.092,0.002,107.550,31.325,-4.650,0.000
'[15:26:28.120 06/04/1996]',-0.054,0.111,0.002,108.450,32.425,-4.650,0.000
'[15:26:28.122 06/04/1996]',-0.063,0.111,0.002,108.450,32.425,-4.650,0.000
'[15:26:28.124 06/04/1996]',-0.063,0.111,0.002,108.450,32.425,-4.650,0.000
'[15:26:28.126 06/04/1996]',-0.063,0.111,0.002,108.450,32.425,-4.650,0.000
'[15:26:28.128 06/04/1996]',-0.063,0.111,0.002,109.200,32.950,-4.650,0.000
'[15:26:28.130 06/04/1996]',-0.063,0.111,0.002,109.200,32.950,-4.650,0.000
'[15:26:28.132 06/04/1996]',-0.063,0.111,0.002,109.200,32.950,-4.650,0.000
'[15:26:28.134 06/04/1996]',-0.054,0.092,0.002,109.200,32.950,-4.650,0.000
'[15:26:28.136 06/04/1996]',-0.045,0.092,0.002,109.725,33.025,-4.650,0.000
'[15:26:28.138 06/04/1996]',-0.045,0.111,0.002,109.725,33.025,-4.650,0.000
'[15:26:28.140 06/04/1996]',-0.045,0.111,0.002,109.725,33.025,-4.650,0.000
'[15:26:28.142 06/04/1996]',-0.045,0.092,0.002,109.725,33.025,-4.650,0.000
'[15:26:28.144 06/04/1996]',-0.063,0.111,0.002,110.100,32.600,-4.650,0.000
'[15:26:28.146 06/04/1996]',-0.063,0.111,0.002,110.100,32.600,-4.650,0.000
'[15:26:28.148 06/04/1996]',-0.082,0.111,0.002,110.100,32.600,-4.650,0.000
'[15:26:28.150 06/04/1996]',-0.091,0.111,0.002,110.100,32.600,-4.650,0.000
'[15:26:28.152 06/04/1996]',-0.091,0.111,0.002,110.250,31.675,-4.650,0.000
'[15:26:28.154 06/04/1996]',-0.082,0.111,0.002,110.250,31.675,-4.650,0.000
'[15:26:28.156 06/04/1996]',-0.072,0.111,0.002,110.250,31.675,-4.650,0.000
'[15:26:28.158 06/04/1996]',-0.072,0.111,0.002,110.250,31.675,-4.650,0.000
'[15:26:28.160 06/04/1996]',-0.072,0.111,0.002,109.950,30.450,-4.650,0.000
'[15:26:28.162 06/04/1996]',-0.063,0.111,0.002,109.950,30.450,-4.650,0.000
'[15:26:28.164 06/04/1996]',-0.054,0.111,0.002,109.950,30.450,-4.650,0.000
'[15:26:28.166 06/04/1996]',-0.054,0.092,0.002,109.950,30.450,-4.650,0.000
'[15:26:28.168 06/04/1996]',-0.045,0.111,0.002,109.425,29.025,-4.650,0.000
'[15:26:28.170 06/04/1996]',-0.045,0.111,0.002,109.425,29.025,-4.650,0.000
'[15:26:28.172 06/04/1996]',-0.054,0.111,0.002,109.425,29.025,-4.650,0.000
'[15:26:28.174 06/04/1996]',-0.054,0.111,0.002,109.425,29.025,-4.650,0.000
'[15:26:28.176 06/04/1996]',-0.054,0.111,0.002,108.600,27.500,-4.450,0.000
'[15:26:28.178 06/04/1996]',-0.063,0.111,0.002,108.600,27.500,-4.450,0.000
'[15:26:28.180 06/04/1996]',-0.063,0.092,0.002,108.600,27.500,-4.450,0.000
'[15:26:28.182 06/04/1996]',-0.063,0.092,0.002,108.600,27.500,-4.450,0.000
'[15:26:28.184 06/04/1996]',-0.045,0.111,0.002,107.325,25.875,-3.862,0.000
'[15:26:28.186 06/04/1996]',-0.045,0.092,0.002,107.325,25.875,-3.862,0.000
'[15:26:28.188 06/04/1996]',-0.045,0.111,0.002,107.325,25.875,-3.862,0.000
'[15:26:28.190 06/04/1996]',-0.054,0.111,0.002,107.325,25.875,-3.862,0.000
'[15:26:28.192 06/04/1996]',-0.054,0.111,0.002,105.450,24.000,-3.212,0.000
'[15:26:28.194 06/04/1996]',-0.072,0.111,0.002,105.450,24.000,-3.212,0.000
'[15:26:28.196 06/04/1996]',-0.063,0.111,0.002,105.450,24.000,-3.212,0.000
'[15:26:28.198 06/04/1996]',-0.063,0.111,0.002,105.450,24.000,-3.212,0.000
'[15:26:28.200 06/04/1996]',-0.054,0.111,0.002,103.050,21.950,-2.638,0.000
'[15:26:28.202 06/04/1996]',-0.036,0.092,0.002,103.050,21.950,-2.638,0.000
'[15:26:28.204 06/04/1996]',-0.036,0.092,0.002,103.050,21.950,-2.638,0.000
'[15:26:28.206 06/04/1996]',-0.027,0.092,0.002,103.050,21.950,-2.638,0.000
'[15:26:28.208 06/04/1996]',-0.036,0.092,0.002,99.825,19.825,-2.100,0.000
'[15:26:28.210 06/04/1996]',-0.045,0.092,0.002,99.825,19.825,-2.100,0.000
'[15:26:28.212 06/04/1996]',-0.054,0.092,0.002,99.825,19.825,-2.100,0.000
'[15:26:28.214 06/04/1996]',-0.054,0.092,0.002,99.825,19.825,-2.100,0.000
'[15:26:28.216 06/04/1996]',-0.045,0.092,0.002,96.225,17.850,-1.637,0.000
'[15:26:28.218 06/04/1996]',-0.036,0.092,0.002,96.225,17.850,-1.637,0.000
'[15:26:28.220 06/04/1996]',-0.008,0.074,0.002,96.225,17.850,-1.637,0.000
'[15:26:28.222 06/04/1996]',0.001,0.074,0.002,96.225,17.850,-1.637,0.000
'[15:26:28.224 06/04/1996]',0.001,0.074,0.002,92.550,16.025,-1.225,0.000
'[15:26:28.226 06/04/1996]',0.001,0.074,0.002,92.550,16.025,-1.225,0.000
'[15:26:28.228 06/04/1996]',-0.008,0.074,0.002,92.550,16.025,-1.225,0.000
'[15:26:28.230 06/04/1996]',-0.018,0.074,0.002,92.550,16.025,-1.225,0.000
'[15:26:28.232 06/04/1996]',-0.027,0.074,0.002,89.550,14.450,-0.812,0.000
'[15:26:28.234 06/04/1996]',-0.027,0.092,0.002,89.550,14.450,-0.812,0.000
'[15:26:28.236 06/04/1996]',-0.036,0.092,0.002,89.550,14.450,-0.812,0.000
'[15:26:28.238 06/04/1996]',-0.027,0.092,0.002,89.550,14.450,-0.812,0.000
'[15:26:28.240 06/04/1996]',-0.027,0.074,0.002,87.675,13.025,-0.400,0.000
'[15:26:28.242 06/04/1996]',-0.018,0.074,0.002,87.675,13.025,-0.400,0.000
'[15:26:28.244 06/04/1996]',-0.027,0.074,0.002,87.675,13.025,-0.400,0.000
'[15:26:28.246 06/04/1996]',-0.018,0.074,0.002,87.675,13.025,-0.400,0.000
'[15:26:28.248 06/04/1996]',0.001,0.074,0.002,86.850,11.925,-0.113,0.000
'[15:26:28.250 06/04/1996]',0.001,0.074,0.002,86.850,11.925,-0.113,0.000
'[15:26:28.252 06/04/1996]',-0.008,0.074,0.002,86.850,11.925,-0.113,0.000
'[15:26:28.254 06/04/1996]',-0.008,0.074,0.002,86.850,11.925,-0.113,0.000
'[15:26:28.256 06/04/1996]',-0.018,0.092,0.002,86.400,11.150,0.062,0.000
'[15:26:28.258 06/04/1996]',-0.027,0.092,0.002,86.400,11.150,0.062,0.000
'[15:26:28.260 06/04/1996]',-0.027,0.092,0.002,86.400,11.150,0.062,0.000
'[15:26:28.262 06/04/1996]',-0.036,0.092,0.002,86.400,11.150,0.062,0.000
'[15:26:28.264 06/04/1996]',-0.045,0.092,0.002,85.950,10.625,0.062,0.000
'[15:26:28.266 06/04/1996]',-0.054,0.111,0.002,85.950,10.625,0.062,0.000
'[15:26:28.268 06/04/1996]',-0.063,0.111,0.002,85.950,10.625,0.062,0.000
'[15:26:28.270 06/04/1996]',-0.072,0.111,0.002,85.950,10.625,0.062,0.000
'[15:26:28.272 06/04/1996]',-0.082,0.129,0.002,85.200,10.450,0.000,0.000
'[15:26:28.274 06/04/1996]',-0.082,0.129,0.002,85.200,10.450,0.000,0.000
'[15:26:28.276 06/04/1996]',-0.082,0.111,0.002,85.200,10.450,0.000,0.000
'[15:26:28.278 06/04/1996]',-0.082,0.111,0.002,85.200,10.450,0.000,0.000
'[15:26:28.280 06/04/1996]',-0.063,0.111,0.002,84.300,10.575,-0.175,0.000
'[15:26:28.282 06/04/1996]',-0.063,0.111,-0.020,84.300,10.575,-0.175,0.000
'[15:26:28.284 06/04/1996]',-0.054,0.111,0.002,84.300,10.575,-0.175,0.000
'[15:26:28.286 06/04/1996]',-0.045,0.111,0.002,84.300,10.575,-0.175,0.000
'[15:26:28.288 06/04/1996]',-0.045,0.111,0.002,83.175,10.975,-0.400,0.000
'[15:26:28.290 06/04/1996]',-0.063,0.111,0.002,83.175,10.975,-0.400,0.000
'[15:26:28.292 06/04/1996]',-0.063,0.111,-0.020,83.175,10.975,-0.400,0.000
'[15:26:28.294 06/04/1996]',-0.072,0.111,0.002,83.175,10.975,-0.400,0.000
'[15:26:28.296 06/04/1996]',-0.082,0.111,0.002,82.125,11.750,-0.700,0.000
'[15:26:28.298 06/04/1996]',-0.091,0.111,-0.020,82.125,11.750,-0.700,0.000
'[15:26:28.300 06/04/1996]',-0.082,0.129,-0.020,82.125,11.750,-0.700,0.000
'[15:26:28.302 06/04/1996]',-0.082,0.111,-0.020,82.125,11.750,-0.700,0.000
'[15:26:28.304 06/04/1996]',-0.072,0.111,0.002,81.225,12.675,-1.113,0.000
'[15:26:28.306 06/04/1996]',-0.072,0.111,-0.020,81.225,12.675,-1.113,0.000
'[15:26:28.308 06/04/1996]',-0.082,0.111,-0.020,81.225,12.675,-1.113,0.000
'[15:26:28.310 06/04/1996]',-0.082,0.111,-0.020,81.225,12.675,-1.113,0.000
'[15:26:28.312 06/04/1996]',-0.082,0.111,-0.020,80.400,13.800,-1.575,0.000
'[15:26:28.314 06/04/1996]',-0.100,0.111,-0.020,80.400,13.800,-1.575,0.000
'[15:26:28.316 06/04/1996]',-0.100,0.129,0.002,80.400,13.800,-1.575,0.000
'[15:26:28.318 06/04/1996]',-0.100,0.129,-0.020,80.400,13.800,-1.575,0.000
'[15:26:28.320 06/04/1996]',-0.091,0.129,-0.020,79.725,14.850,-1.988,0.000
'[15:26:28.322 06/04/1996]',-0.100,0.129,-0.020,79.725,14.850,-1.988,0.000
'[15:26:28.324 06/04/1996]',-0.091,0.129,-0.020,79.725,14.850,-1.988,0.000
'[15:26:28.326 06/04/1996]',-0.091,0.129,-0.020,79.725,14.850,-1.988,0.000
'[15:26:28.328 06/04/1996]',-0.091,0.129,-0.020,78.975,15.675,-2.337,0.000
'[15:26:28.330 06/04/1996]',-0.091,0.129,-0.020,78.975,15.675,-2.337,0.000
'[15:26:28.332 06/04/1996]',-0.091,0.129,-0.020,78.975,15.675,-2.337,0.000
'[15:26:28.334 06/04/1996]',-0.091,0.129,-0.020,78.975,15.675,-2.337,0.000
'[15:26:28.336 06/04/1996]',-0.091,0.111,-0.020,78.375,16.200,-2.575,0.000
'[15:26:28.338 06/04/1996]',-0.100,0.129,-0.020,78.375,16.200,-2.575,0.000
'[15:26:28.340 06/04/1996]',-0.100,0.111,-0.042,78.375,16.200,-2.575,0.000
'[15:26:28.342 06/04/1996]',-0.100,0.111,-0.042,78.375,16.200,-2.575,0.000
'[15:26:28.344 06/04/1996]',-0.091,0.111,-0.020,77.625,16.425,-2.750,0.000
'[15:26:28.346 06/04/1996]',-0.100,0.111,-0.042,77.625,16.425,-2.750,0.000
'[15:26:28.348 06/04/1996]',-0.100,0.129,-0.042,77.625,16.425,-2.750,0.000
'[15:26:28.350 06/04/1996]',-0.100,0.129,-0.042,77.625,16.425,-2.750,0.000
'[15:26:28.352 06/04/1996]',-0.100,0.129,-0.042,77.025,16.550,-2.812,0.000
'[15:26:28.354 06/04/1996]',-0.100,0.129,-0.042,77.025,16.550,-2.812,0.000
'[15:26:28.356 06/04/1996]',-0.091,0.129,-0.042,77.025,16.550,-2.812,0.000
'[15:26:28.358 06/04/1996]',-0.100,0.129,-0.042,77.025,16.550,-2.812,0.000
'[15:26:28.360 06/04/1996]',-0.100,0.129,-0.042,76.350,16.425,-2.688,0.000
'[15:26:28.362 06/04/1996]',-0.109,0.129,-0.042,76.350,16.425,-2.688,0.000
'[15:26:28.364 06/04/1996]',-0.118,0.129,-0.042,76.350,16.425,-2.688,0.000
'[15:26:28.366 06/04/1996]',-0.109,0.129,-0.042,76.350,16.425,-2.688,0.000
'[15:26:28.368 06/04/1996]',-0.109,0.129,-0.042,75.675,16.250,-2.462,0.000
'[15:26:28.370 06/04/1996]',-0.100,0.129,-0.042,75.675,16.250,-2.462,0.000
'[15:26:28.372 06/04/1996]',-0.109,0.129,-0.042,75.675,16.250,-2.462,0.000
'[15:26:28.374 06/04/1996]',-0.109,0.111,-0.042,75.675,16.250,-2.462,0.000
'[15:26:28.376 06/04/1996]',-0.100,0.111,-0.042,75.000,15.975,-1.988,0.000
'[15:26:28.378 06/04/1996]',-0.100,0.111,-0.042,75.000,15.975,-1.988,0.000
'[15:26:28.380 06/04/1996]',-0.100,0.129,-0.042,75.000,15.975,-1.988,0.000
'[15:26:28.382 06/04/1996]',-0.100,0.129,-0.042,75.000,15.975,-1.988,0.000
'[15:26:28.384 06/04/1996]',-0.100,0.129,-0.042,74.325,15.675,-1.400,0.000
'[15:26:28.386 06/04/1996]',-0.100,0.129,-0.042,74.325,15.675,-1.400,0.000
'[15:26:28.388 06/04/1996]',-0.109,0.129,-0.042,74.325,15.675,-1.400,0.000
'[15:26:28.390 06/04/1996]',-0.109,0.129,-0.042,74.325,15.675,-1.400,0.000
'[15:26:28.392 06/04/1996]',-0.109,0.129,-0.042,73.725,15.375,-0.700,0.000
'[15:26:28.394 06/04/1996]',-0.109,0.129,-0.042,73.725,15.375,-0.700,0.000
'[15:26:28.396 06/04/1996]',-0.109,0.129,-0.042,73.725,15.375,-0.700,0.000
'[15:26:28.398 06/04/1996]',-0.100,0.129,-0.064,73.725,15.375,-0.700,0.000
'[15:26:28.400 06/04/1996]',-0.091,0.129,-0.064,73.200,15.150,0.125,0.000
'[15:26:28.402 06/04/1996]',-0.082,0.129,-0.064,73.200,15.150,0.125,0.000
'[15:26:28.404 06/04/1996]',-0.082,0.111,-0.086,73.200,15.150,0.125,0.000
'[15:26:28.406 06/04/1996]',-0.072,0.111,-0.086,73.200,15.150,0.125,0.000
'[15:26:28.408 06/04/1996]',-0.054,0.111,-0.086,72.675,14.850,0.988,0.000
'[15:26:28.410 06/04/1996]',-0.045,0.111,-0.108,72.675,14.850,0.988,0.000
'[15:26:28.412 06/04/1996]',-0.036,0.111,-0.086,72.675,14.850,0.988,0.000
'[15:26:28.414 06/04/1996]',-0.027,0.092,-0.086,72.675,14.850,0.988,0.000
'[15:26:28.416 06/04/1996]',-0.008,0.074,-0.064,72.075,14.450,1.925,0.000
'[15:26:28.418 06/04/1996]',0.001,0.056,-0.042,72.075,14.450,1.925,0.000
'[15:26:28.420 06/04/1996]',0.001,0.037,-0.042,72.075,14.450,1.925,0.000
'[15:26:28.422 06/04/1996]',0.001,0.019,0.002,72.075,14.450,1.925,0.000
'[15:26:28.424 06/04/1996]',0.019,0.002,0.002,71.550,14.100,2.862,0.000
'[15:26:28.426 06/04/1996]',0.046,-0.035,0.023,71.550,14.100,2.862,0.000
'[15:26:28.428 06/04/1996]',0.065,-0.090,0.067,71.550,14.100,2.862,0.000
'[15:26:28.430 06/04/1996]',0.074,-0.108,0.089,71.550,14.100,2.862,0.000
'[15:26:28.432 06/04/1996]',0.074,-0.145,0.133,71.100,13.750,3.737,0.000
'[15:26:28.434 06/04/1996]',0.055,-0.163,0.177,71.100,13.750,3.737,0.000
'[15:26:28.436 06/04/1996]',0.028,-0.182,0.199,71.100,13.750,3.737,0.000
'[15:26:28.438 06/04/1996]',0.001,-0.182,0.221,71.100,13.750,3.737,0.000
'[15:26:28.440 06/04/1996]',-0.036,-0.163,0.243,70.725,13.575,4.562,0.000
'[15:26:28.442 06/04/1996]',-0.091,-0.163,0.243,70.725,13.575,4.562,0.000
'[15:26:28.444 06/04/1996]',-0.128,-0.127,0.265,70.725,13.575,4.562,0.000
'[15:26:28.446 06/04/1996]',-0.164,-0.108,0.243,70.725,13.575,4.562,0.000
'[15:26:28.448 06/04/1996]',-0.191,-0.072,0.221,70.425,13.450,5.213,0.000
'[15:26:28.450 06/04/1996]',-0.219,-0.035,0.199,70.425,13.450,5.213,0.000
'[15:26:28.452 06/04/1996]',-0.246,0.002,0.177,70.425,13.450,5.213,0.000
'[15:26:28.454 06/04/1996]',-0.264,0.037,0.155,70.425,13.450,5.213,0.000
'[15:26:28.456 06/04/1996]',-0.264,0.056,0.133,70.125,13.575,5.787,0.000
'[15:26:28.458 06/04/1996]',-0.273,0.074,0.089,70.125,13.575,5.787,0.000
'[15:26:28.460 06/04/1996]',-0.264,0.092,0.067,70.125,13.575,5.787,0.000
'[15:26:28.462 06/04/1996]',-0.246,0.111,0.045,70.125,13.575,5.787,0.000
'[15:26:28.464 06/04/1996]',-0.228,0.111,0.045,69.750,13.800,6.200,0.000
'[15:26:28.466 06/04/1996]',-0.219,0.111,0.002,69.750,13.800,6.200,0.000
'[15:26:28.468 06/04/1996]',-0.210,0.129,0.002,69.750,13.800,6.200,0.000
'[15:26:28.470 06/04/1996]',-0.191,0.129,-0.020,69.750,13.800,6.200,0.000
'[15:26:28.472 06/04/1996]',-0.164,0.129,-0.042,69.225,14.150,6.550,0.000
'[15:26:28.474 06/04/1996]',-0.155,0.111,-0.042,69.225,14.150,6.550,0.000
'[15:26:28.476 06/04/1996]',-0.136,0.129,-0.042,69.225,14.150,6.550,0.000
'[15:26:28.478 06/04/1996]',-0.136,0.129,-0.064,69.225,14.150,6.550,0.000
'[15:26:28.480 06/04/1996]',-0.128,0.129,-0.064,68.550,14.500,6.725,0.000
'[15:26:28.482 06/04/1996]',-0.118,0.147,-0.064,68.550,14.500,6.725,0.000
'[15:26:28.484 06/04/1996]',-0.118,0.147,-0.064,68.550,14.500,6.725,0.000
'[15:26:28.486 06/04/1996]',-0.118,0.147,-0.064,68.550,14.500,6.725,0.000
'[15:26:28.488 06/04/1996]',-0.109,0.129,-0.064,67.950,14.850,6.787,0.000
'[15:26:28.490 06/04/1996]',-0.118,0.147,-0.064,67.950,14.850,6.787,0.000
'[15:26:28.492 06/04/1996]',-0.118,0.147,-0.064,67.950,14.850,6.787,0.000
'[15:26:28.494 06/04/1996]',-0.118,0.147,-0.064,67.950,14.850,6.787,0.000
'[15:26:28.496 06/04/1996]',-0.109,0.129,-0.064,67.500,15.075,6.787,0.000
'[15:26:28.498 06/04/1996]',-0.109,0.129,-0.064,67.500,15.075,6.787,0.000
'[15:26:28.500 06/04/1996]',-0.100,0.129,-0.086,67.500,15.075,6.787,0.000
'[15:26:28.502 06/04/1996]',-0.109,0.129,-0.086,67.500,15.075,6.787,0.000
'[15:26:28.504 06/04/1996]',-0.091,0.129,-0.086,66.975,15.150,6.725,0.000
'[15:26:28.506 06/04/1996]',-0.109,0.129,-0.086,66.975,15.150,6.725,0.000
'[15:26:28.508 06/04/1996]',-0.100,0.129,-0.086,66.975,15.150,6.725,0.000
'[15:26:28.510 06/04/1996]',-0.100,0.129,-0.086,66.975,15.150,6.725,0.000
'[15:26:28.512 06/04/1996]',-0.109,0.129,-0.086,66.600,15.200,6.612,0.000
'[15:26:28.514 06/04/1996]',-0.100,0.129,-0.086,66.600,15.200,6.612,0.000
'[15:26:28.516 06/04/1996]',-0.100,0.129,-0.086,66.600,15.200,6.612,0.000
'[15:26:28.518 06/04/1996]',-0.100,0.129,-0.086,66.600,15.200,6.612,0.000
'[15:26:28.520 06/04/1996]',-0.091,0.129,-0.086,66.300,15.275,6.438,0.000
'[15:26:28.522 06/04/1996]',-0.100,0.129,-0.086,66.300,15.275,6.438,0.000
'[15:26:28.524 06/04/1996]',-0.100,0.129,-0.086,66.300,15.275,6.438,0.000
'[15:26:28.526 06/04/1996]',-0.100,0.129,-0.086,66.300,15.275,6.438,0.000
'[15:26:28.528 06/04/1996]',-0.100,0.129,-0.086,66.000,15.450,6.263,0.000
'[15:26:28.530 06/04/1996]',-0.100,0.129,-0.086,66.000,15.450,6.263,0.000
'[15:26:28.532 06/04/1996]',-0.100,0.111,-0.086,66.000,15.450,6.263,0.000
'[15:26:28.534 06/04/1996]',-0.100,0.129,-0.086,66.000,15.450,6.263,0.000
'[15:26:28.536 06/04/1996]',-0.091,0.129,-0.086,65.700,15.675,6.088,0.000
'[15:26:28.538 06/04/1996]',-0.100,0.111,-0.086,65.700,15.675,6.088,0.000
'[15:26:28.540 06/04/1996]',-0.091,0.129,-0.086,65.700,15.675,6.088,0.000
'[15:26:28.542 06/04/1996]',-0.091,0.129,-0.086,65.700,15.675,6.088,0.000
'[15:26:28.544 06/04/1996]',-0.091,0.111,-0.086,65.250,15.975,6.025,0.000
'[15:26:28.546 06/04/1996]',-0.091,0.129,-0.086,65.250,15.975,6.025,0.000
'[15:26:28.548 06/04/1996]',-0.091,0.129,-0.086,65.250,15.975,6.025,0.000
'[15:26:28.550 06/04/1996]',-0.091,0.129,-0.086,65.250,15.975,6.025,0.000
'[15:26:28.552 06/04/1996]',-0.082,0.129,-0.086,64.950,16.325,6.025,0.000
'[15:26:28.554 06/04/1996]',-0.091,0.129,-0.086,64.950,16.325,6.025,0.000
'[15:26:28.556 06/04/1996]',-0.091,0.129,-0.086,64.950,16.325,6.025,0.000
'[15:26:28.558 06/04/1996]',-0.091,0.129,-0.086,64.950,16.325,6.025,0.000
'[15:26:28.560 06/04/1996]',-0.091,0.129,-0.086,64.575,16.725,6.150,0.000
'[15:26:28.562 06/04/1996]',-0.091,0.129,-0.086,64.575,16.725,6.150,0.000
'[15:26:28.564 06/04/1996]',-0.091,0.111,-0.086,64.575,16.725,6.150,0.000
'[15:26:28.566 06/04/1996]',-0.091,0.111,-0.086,64.575,16.725,6.150,0.000
'[15:26:28.568 06/04/1996]',-0.082,0.111,-0.086,64.425,17.250,6.263,0.000
'[15:26:28.570 06/04/1996]',-0.082,0.111,-0.086,64.425,17.250,6.263,0.000
'[15:26:28.572 06/04/1996]',-0.072,0.111,-0.086,64.425,17.250,6.263,0.000
'[15:26:28.574 06/04/1996]',-0.082,0.129,-0.086,64.425,17.250,6.263,0.000
'[15:26:28.576 06/04/1996]',-0.072,0.111,-0.086,64.275,17.950,6.375,0.000
'[15:26:28.578 06/04/1996]',-0.082,0.111,-0.086,64.275,17.950,6.375,0.000
'[15:26:28.580 06/04/1996]',-0.082,0.129,-0.108,64.275,17.950,6.375,0.000
'[15:26:28.582 06/04/1996]',-0.072,0.111,-0.108,64.275,17.950,6.375,0.000
'[15:26:28.584 06/04/1996]',-0.072,0.111,-0.108,64.350,18.825,6.550,0.000
'[15:26:28.586 06/04/1996]',-0.063,0.111,-0.086,64.350,18.825,6.550,0.000
'[15:26:28.588 06/04/1996]',-0.072,0.111,-0.086,64.350,18.825,6.550,0.000
'[15:26:28.590 06/04/1996]',-0.072,0.111,-0.108,64.350,18.825,6.550,0.000
'[15:26:28.592 06/04/1996]',-0.063,0.111,-0.108,64.575,20.075,6.725,0.000
'[15:26:28.594 06/04/1996]',-0.063,0.111,-0.108,64.575,20.075,6.725,0.000
'[15:26:28.596 06/04/1996]',-0.072,0.111,-0.108,64.575,20.075,6.725,0.000
'[15:26:28.598 06/04/1996]',-0.072,0.111,-0.130,64.575,20.075,6.725,0.000
'[15:26:28.600 06/04/1996]',-0.054,0.111,-0.108,65.250,21.700,6.963,0.000
'[15:26:28.602 06/04/1996]',-0.063,0.111,-0.130,65.250,21.700,6.963,0.000
'[15:26:28.604 06/04/1996]',-0.054,0.111,-0.108,65.250,21.700,6.963,0.000
'[15:26:28.606 06/04/1996]',-0.054,0.111,-0.108,65.250,21.700,6.963,0.000
'[15:26:28.608 06/04/1996]',-0.054,0.111,-0.108,66.975,23.750,7.263,0.000
'[15:26:28.610 06/04/1996]',-0.054,0.111,-0.108,66.975,23.750,7.263,0.000
'[15:26:28.612 06/04/1996]',-0.045,0.111,-0.130,66.975,23.750,7.263,0.000
'[15:26:28.614 06/04/1996]',-0.045,0.111,-0.130,66.975,23.750,7.263,0.000
'[15:26:28.616 06/04/1996]',-0.036,0.111,-0.130,70.350,26.100,7.438,0.000
'[15:26:28.618 06/04/1996]',-0.036,0.111,-0.130,70.350,26.100,7.438,0.000
'[15:26:28.620 06/04/1996]',-0.045,0.111,-0.130,70.350,26.100,7.438,0.000
'[15:26:28.622 06/04/1996]',-0.036,0.111,-0.130,70.350,26.100,7.438,0.000
'[15:26:28.624 06/04/1996]',-0.036,0.111,-0.130,75.450,28.625,7.612,0.000
'[15:26:28.626 06/04/1996]',-0.036,0.111,-0.130,75.450,28.625,7.612,0.000
'[15:26:28.628 06/04/1996]',-0.045,0.092,-0.130,75.450,28.625,7.612,0.000
'[15:26:28.630 06/04/1996]',-0.045,0.092,-0.130,75.450,28.625,7.612,0.000
'[15:26:28.632 06/04/1996]',-0.036,0.092,-0.130,81.075,31.375,7.662,0.000
'[15:26:28.634 06/04/1996]',-0.036,0.092,-0.130,81.075,31.375,7.662,0.000
'[15:26:28.636 06/04/1996]',-0.027,0.092,-0.108,81.075,31.375,7.662,0.000
'[15:26:28.638 06/04/1996]',-0.036,0.092,-0.108,81.075,31.375,7.662,0.000
'[15:26:28.640 06/04/1996]',-0.036,0.092,-0.108,86.025,34.550,7.725,0.000
'[15:26:28.642 06/04/1996]',-0.036,0.092,-0.108,86.025,34.550,7.725,0.000
'[15:26:28.644 06/04/1996]',-0.036,0.092,-0.108,86.025,34.550,7.725,0.000
'[15:26:28.646 06/04/1996]',-0.045,0.092,-0.108,86.025,34.550,7.725,0.000
'[15:26:28.648 06/04/1996]',-0.036,0.092,-0.108,89.550,38.175,7.787,0.000
'[15:26:28.650 06/04/1996]',-0.036,0.092,-0.108,89.550,38.175,7.787,0.000
'[15:26:28.652 06/04/1996]',-0.036,0.074,-0.108,89.550,38.175,7.787,0.000
'[15:26:28.654 06/04/1996]',-0.045,0.074,-0.086,89.550,38.175,7.787,0.000
'[15:26:28.656 06/04/1996]',-0.045,0.092,-0.086,92.100,42.050,7.787,0.000
'[15:26:28.658 06/04/1996]',-0.045,0.074,-0.086,92.100,42.050,7.787,0.000
'[15:26:28.660 06/04/1996]',-0.054,0.074,-0.086,92.100,42.050,7.787,0.000
'[15:26:28.662 06/04/1996]',-0.063,0.074,-0.086,92.100,42.050,7.787,0.000
'[15:26:28.664 06/04/1996]',-0.045,0.074,-0.086,94.500,45.800,7.787,0.000
'[15:26:28.666 06/04/1996]',-0.054,0.074,-0.086,94.500,45.800,7.787,0.000
'[15:26:28.668 06/04/1996]',-0.054,0.074,-0.086,94.500,45.800,7.787,0.000
'[15:26:28.670 06/04/1996]',-0.045,0.074,-0.086,94.500,45.800,7.787,0.000
'[15:26:28.672 06/04/1996]',-0.054,0.074,-0.064,97.050,49.125,7.787,0.000
'[15:26:28.674 06/04/1996]',-0.054,0.074,-0.064,97.050,49.125,7.787,0.000
'[15:26:28.676 06/04/1996]',-0.063,0.074,-0.064,97.050,49.125,7.787,0.000
'[15:26:28.678 06/04/1996]',-0.063,0.074,-0.064,97.050,49.125,7.787,0.000
'[15:26:28.680 06/04/1996]',-0.063,0.074,-0.064,99.525,51.825,7.787,0.000
'[15:26:28.682 06/04/1996]',-0.063,0.074,-0.064,99.525,51.825,7.787,0.000
'[15:26:28.684 06/04/1996]',-0.063,0.074,-0.064,99.525,51.825,7.787,0.000
'[15:26:28.686 06/04/1996]',-0.063,0.074,-0.064,99.525,51.825,7.787,0.000
'[15:26:28.688 06/04/1996]',-0.063,0.074,-0.064,101.625,53.925,7.725,0.000
'[15:26:28.690 06/04/1996]',-0.063,0.074,-0.064,101.625,53.925,7.725,0.000
'[15:26:28.692 06/04/1996]',-0.072,0.074,-0.064,101.625,53.925,7.725,0.000
'[15:26:28.694 06/04/1996]',-0.072,0.074,-0.064,101.625,53.925,7.725,0.000
'[15:26:28.696 06/04/1996]',-0.072,0.074,-0.064,103.275,55.525,7.662,0.000
'[15:26:28.698 06/04/1996]',-0.072,0.074,-0.064,103.275,55.525,7.662,0.000
'[15:26:28.700 06/04/1996]',-0.063,0.074,-0.064,103.275,55.525,7.662,0.000
'[15:26:28.702 06/04/1996]',-0.063,0.074,-0.064,103.275,55.525,7.662,0.000
'[15:26:28.704 06/04/1996]',-0.063,0.074,-0.064,104.625,56.625,7.662,0.000
'[15:26:28.706 06/04/1996]',-0.072,0.074,-0.064,104.625,56.625,7.662,0.000
'[15:26:28.708 06/04/1996]',-0.072,0.074,-0.064,104.625,56.625,7.662,0.000
'[15:26:28.710 06/04/1996]',-0.072,0.074,-0.064,104.625,56.625,7.662,0.000
'[15:26:28.712 06/04/1996]',-0.072,0.074,-0.042,105.525,57.325,7.662,0.000
'[15:26:28.714 06/04/1996]',-0.072,0.074,-0.064,105.525,57.325,7.662,0.000
'[15:26:28.716 06/04/1996]',-0.063,0.074,-0.064,105.525,57.325,7.662,0.000
'[15:26:28.718 06/04/1996]',-0.063,0.074,-0.064,105.525,57.325,7.662,0.000
'[15:26:28.720 06/04/1996]',-0.063,0.074,-0.064,106.200,57.625,7.662,0.000
'[15:26:28.722 06/04/1996]',-0.063,0.074,-0.064,106.200,57.625,7.662,0.000
'[15:26:28.724 06/04/1996]',-0.072,0.074,-0.064,106.200,57.625,7.662,0.000
'[15:26:28.726 06/04/1996]',-0.072,0.074,-0.064,106.200,57.625,7.662,0.000
'[15:26:28.728 06/04/1996]',-0.072,0.074,-0.064,106.650,57.450,7.612,0.000
'[15:26:28.730 06/04/1996]',-0.072,0.074,-0.064,106.650,57.450,7.612,0.000
'[15:26:28.732 06/04/1996]',-0.063,0.074,-0.064,106.650,57.450,7.612,0.000
'[15:26:28.734 06/04/1996]',-0.063,0.074,-0.064,106.650,57.450,7.612,0.000
'[15:26:28.736 06/04/1996]',-0.063,0.074,-0.064,106.725,56.800,7.612,0.000
'[15:26:28.738 06/04/1996]',-0.063,0.074,-0.064,106.725,56.800,7.612,0.000
'[15:26:28.740 06/04/1996]',-0.063,0.074,-0.064,106.725,56.800,7.612,0.000
'[15:26:28.742 06/04/1996]',-0.063,0.074,-0.064,106.725,56.800,7.612,0.000
'[15:26:28.744 06/04/1996]',-0.063,0.074,-0.042,106.425,55.750,7.550,0.000
'[15:26:28.746 06/04/1996]',-0.063,0.074,-0.042,106.425,55.750,7.550,0.000
'[15:26:28.748 06/04/1996]',-0.063,0.074,-0.064,106.425,55.750,7.550,0.000
'[15:26:28.750 06/04/1996]',-0.063,0.074,-0.064,106.425,55.750,7.550,0.000
'[15:26:28.752 06/04/1996]',-0.063,0.074,-0.064,105.750,54.400,7.550,0.000
'[15:26:28.754 06/04/1996]',-0.054,0.074,-0.064,105.750,54.400,7.550,0.000
'[15:26:28.756 06/04/1996]',-0.063,0.074,-0.064,105.750,54.400,7.550,0.000
'[15:26:28.758 06/04/1996]',-0.063,0.074,-0.064,105.750,54.400,7.550,0.000
'[15:26:28.760 06/04/1996]',-0.063,0.074,-0.042,104.850,52.825,7.487,0.000
'[15:26:28.762 06/04/1996]',-0.063,0.056,-0.064,104.850,52.825,7.487,0.000
'[15:26:28.764 06/04/1996]',-0.054,0.074,-0.064,104.850,52.825,7.487,0.000
'[15:26:28.766 06/04/1996]',-0.045,0.056,-0.042,104.850,52.825,7.487,0.000
'[15:26:28.768 06/04/1996]',-0.045,0.074,-0.042,103.650,51.075,7.438,0.000
'[15:26:28.770 06/04/1996]',-0.045,0.074,-0.042,103.650,51.075,7.438,0.000
'[15:26:28.772 06/04/1996]',-0.036,0.056,-0.042,103.650,51.075,7.438,0.000
'[15:26:28.774 06/04/1996]',-0.036,0.056,-0.042,103.650,51.075,7.438,0.000
'[15:26:28.776 06/04/1996]',-0.036,0.056,-0.042,102.075,49.250,7.438,0.000
'[15:26:28.778 06/04/1996]',-0.036,0.056,-0.042,102.075,49.250,7.438,0.000
'[15:26:28.780 06/04/1996]',-0.036,0.056,-0.042,102.075,49.250,7.438,0.000
'[15:26:28.782 06/04/1996]',-0.027,0.056,-0.042,102.075,49.250,7.438,0.000
'[15:26:28.784 06/04/1996]',-0.027,0.056,-0.042,99.975,47.425,7.487,0.000
'[15:26:28.786 06/04/1996]',-0.027,0.056,-0.042,99.975,47.425,7.487,0.000
'[15:26:28.788 06/04/1996]',-0.027,0.037,-0.042,99.975,47.425,7.487,0.000
'[15:26:28.790 06/04/1996]',-0.027,0.037,-0.064,99.975,47.425,7.487,0.000
'[15:26:28.792 06/04/1996]',-0.027,0.037,-0.042,97.425,45.725,7.550,0.000
'[15:26:28.794 06/04/1996]',-0.027,0.037,-0.064,97.425,45.725,7.550,0.000
'[15:26:28.796 06/04/1996]',-0.036,0.037,-0.042,97.425,45.725,7.550,0.000
'[15:26:28.798 06/04/1996]',-0.027,0.037,-0.042,97.425,45.725,7.550,0.000
'[15:26:28.800 06/04/1996]',-0.027,0.037,-0.042,94.500,43.975,7.612,0.000
'[15:26:28.802 06/04/1996]',-0.018,0.037,-0.042,94.500,43.975,7.612,0.000
'[15:26:28.804 06/04/1996]',-0.018,0.037,-0.042,94.500,43.975,7.612,0.000
'[15:26:28.806 06/04/1996]',-0.018,0.037,-0.042,94.500,43.975,7.612,0.000
'[15:26:28.808 06/04/1996]',-0.018,0.037,-0.042,91.500,42.325,7.787,0.000
'[15:26:28.810 06/04/1996]',-0.018,0.037,-0.042,91.500,42.325,7.787,0.000
'[15:26:28.812 06/04/1996]',-0.018,0.037,-0.042,91.500,42.325,7.787,0.000
'[15:26:28.814 06/04/1996]',-0.018,0.037,-0.042,91.500,42.325,7.787,0.000
'[15:26:28.816 06/04/1996]',-0.008,0.037,-0.042,89.025,40.700,7.963,0.000
'[15:26:28.818 06/04/1996]',-0.008,0.037,-0.042,89.025,40.700,7.963,0.000
'[15:26:28.820 06/04/1996]',-0.008,0.019,-0.042,89.025,40.700,7.963,0.000
'[15:26:28.822 06/04/1996]',0.001,0.019,-0.042,89.025,40.700,7.963,0.000
'[15:26:28.824 06/04/1996]',0.001,0.037,-0.042,87.225,39.050,8.200,0.000
'[15:26:28.826 06/04/1996]',0.001,0.019,-0.042,87.225,39.050,8.200,0.000
'[15:26:28.828 06/04/1996]',0.001,0.019,-0.042,87.225,39.050,8.200,0.000
'[15:26:28.830 06/04/1996]',0.001,0.019,-0.042,87.225,39.050,8.200,0.000
'[15:26:28.832 06/04/1996]',0.010,0.019,-0.042,86.175,37.525,8.425,0.000
'[15:26:28.834 06/04/1996]',0.010,0.019,-0.042,86.175,37.525,8.425,0.000
'[15:26:28.836 06/04/1996]',0.019,0.002,-0.042,86.175,37.525,8.425,0.000
'[15:26:28.838 06/04/1996]',0.019,0.002,-0.020,86.175,37.525,8.425,0.000
'[15:26:28.840 06/04/1996]',0.010,0.002,-0.020,85.575,36.250,8.600,0.000
'[15:26:28.842 06/04/1996]',0.010,0.002,-0.020,85.575,36.250,8.600,0.000
'[15:26:28.844 06/04/1996]',0.019,0.002,-0.020,85.575,36.250,8.600,0.000
'[15:26:28.846 06/04/1996]',0.019,0.002,-0.020,85.575,36.250,8.600,0.000
'[15:26:28.848 06/04/1996]',0.019,0.002,-0.020,84.900,35.300,8.787,0.000
'[15:26:28.850 06/04/1996]',0.019,0.002,-0.020,84.900,35.300,8.787,0.000
'[15:26:28.852 06/04/1996]',0.010,0.002,-0.042,84.900,35.300,8.787,0.000
'[15:26:28.854 06/04/1996]',0.010,0.002,-0.020,84.900,35.300,8.787,0.000
'[15:26:28.856 06/04/1996]',0.010,0.002,-0.020,84.150,34.600,8.963,0.000
'[15:26:28.858 06/04/1996]',0.001,0.002,-0.042,84.150,34.600,8.963,0.000
'[15:26:28.860 06/04/1996]',0.019,0.019,-0.020,84.150,34.600,8.963,0.000
'[15:26:28.862 06/04/1996]',0.010,0.019,-0.020,84.150,34.600,8.963,0.000
'[15:26:28.864 06/04/1996]',0.019,0.002,-0.020,83.175,34.025,9.075,0.000
'[15:26:28.866 06/04/1996]',0.010,0.002,-0.042,83.175,34.025,9.075,0.000
'[15:26:28.868 06/04/1996]',0.010,0.019,-0.020,83.175,34.025,9.075,0.000
'[15:26:28.870 06/04/1996]',0.010,0.019,-0.020,83.175,34.025,9.075,0.000
'[15:26:28.872 06/04/1996]',0.001,0.019,-0.042,82.200,33.550,9.075,0.000
'[15:26:28.874 06/04/1996]',0.001,0.019,-0.020,82.200,33.550,9.075,0.000
'[15:26:28.876 06/04/1996]',0.001,0.019,-0.020,82.200,33.550,9.075,0.000
'[15:26:28.878 06/04/1996]',0.001,0.019,-0.020,82.200,33.550,9.075,0.000
'[15:26:28.880 06/04/1996]',0.001,0.019,-0.042,81.300,33.125,9.075,0.000
'[15:26:28.882 06/04/1996]',0.001,0.019,-0.020,81.300,33.125,9.075,0.000
'[15:26:28.884 06/04/1996]',-0.008,0.019,-0.020,81.300,33.125,9.075,0.000
'[15:26:28.886 06/04/1996]',-0.008,0.019,-0.020,81.300,33.125,9.075,0.000
'[15:26:28.888 06/04/1996]',-0.008,0.037,-0.020,80.550,32.775,8.963,0.000
'[15:26:28.890 06/04/1996]',-0.018,0.019,-0.020,80.550,32.775,8.963,0.000
'[15:26:28.892 06/04/1996]',-0.008,0.019,0.002,80.550,32.775,8.963,0.000
'[15:26:28.894 06/04/1996]',-0.018,0.037,0.002,80.550,32.775,8.963,0.000
'[15:26:28.896 06/04/1996]',-0.018,0.037,0.002,79.950,32.500,8.838,0.000
'[15:26:28.898 06/04/1996]',-0.018,0.037,0.002,79.950,32.500,8.838,0.000
'[15:26:28.900 06/04/1996]',-0.018,0.037,-0.020,79.950,32.500,8.838,0.000
'[15:26:28.902 06/04/1996]',-0.018,0.037,0.002,79.950,32.500,8.838,0.000
'[15:26:28.904 06/04/1996]',-0.008,0.037,0.002,79.425,32.325,8.787,0.000
'[15:26:28.906 06/04/1996]',-0.018,0.037,0.002,79.425,32.325,8.787,0.000
'[15:26:28.908 06/04/1996]',-0.018,0.037,0.002,79.425,32.325,8.787,0.000
'[15:26:28.910 06/04/1996]',-0.018,0.019,0.002,79.425,32.325,8.787,0.000
'[15:26:28.912 06/04/1996]',-0.018,0.037,0.002,78.900,32.200,8.725,0.000
'[15:26:28.914 06/04/1996]',-0.027,0.037,0.002,78.900,32.200,8.725,0.000
'[15:26:28.916 06/04/1996]',-0.027,0.037,0.002,78.900,32.200,8.725,0.000
'[15:26:28.918 06/04/1996]',-0.027,0.037,0.002,78.900,32.200,8.725,0.000
'[15:26:28.920 06/04/1996]',-0.027,0.037,0.002,78.225,32.150,8.662,0.000
'[15:26:28.922 06/04/1996]',-0.036,0.037,-0.020,78.225,32.150,8.662,0.000
'[15:26:28.924 06/04/1996]',-0.036,0.037,0.002,78.225,32.150,8.662,0.000
'[15:26:28.926 06/04/1996]',-0.027,0.037,0.002,78.225,32.150,8.662,0.000
'[15:26:28.928 06/04/1996]',-0.036,0.037,0.002,77.475,32.075,8.600,0.000
'[15:26:28.930 06/04/1996]',-0.036,0.037,0.002,77.475,32.075,8.600,0.000
'[15:26:28.932 06/04/1996]',-0.027,0.037,0.002,77.475,32.075,8.600,0.000
'[15:26:28.934 06/04/1996]',-0.027,0.037,0.002,77.475,32.075,8.600,0.000
'[15:26:28.936 06/04/1996]',-0.018,0.037,0.002,76.725,32.025,8.600,0.000
'[15:26:28.938 06/04/1996]',-0.018,0.037,0.002,76.725,32.025,8.600,0.000
'[15:26:28.940 06/04/1996]',-0.018,0.037,0.002,76.725,32.025,8.600,0.000
'[15:26:28.942 06/04/1996]',-0.027,0.037,0.002,76.725,32.025,8.600,0.000
'[15:26:28.944 06/04/1996]',-0.027,0.037,0.002,75.900,31.900,8.662,0.000
'[15:26:28.946 06/04/1996]',-0.027,0.037,0.002,75.900,31.900,8.662,0.000
'[15:26:28.948 06/04/1996]',-0.036,0.037,-0.020,75.900,31.900,8.662,0.000
'[15:26:28.950 06/04/1996]',-0.036,0.037,-0.020,75.900,31.900,8.662,0.000
'[15:26:28.952 06/04/1996]',-0.027,0.056,0.002,75.225,31.775,8.838,0.000
'[15:26:28.954 06/04/1996]',-0.036,0.037,-0.020,75.225,31.775,8.838,0.000
'[15:26:28.956 06/04/1996]',-0.027,0.037,-0.020,75.225,31.775,8.838,0.000
'[15:26:28.958 06/04/1996]',-0.018,0.037,-0.020,75.225,31.775,8.838,0.000
'[15:26:28.960 06/04/1996]',-0.027,0.037,-0.020,74.625,31.600,9.075,0.000
'[15:26:28.962 06/04/1996]',-0.027,0.037,0.002,74.625,31.600,9.075,0.000
'[15:26:28.964 06/04/1996]',-0.027,0.037,-0.020,74.625,31.600,9.075,0.000
'[15:26:28.966 06/04/1996]',-0.018,0.037,0.002,74.625,31.600,9.075,0.000
'[15:26:28.968 06/04/1996]',-0.018,0.037,-0.020,74.100,31.375,9.363,0.000
'[15:26:28.970 06/04/1996]',-0.027,0.037,0.002,74.100,31.375,9.363,0.000
'[15:26:28.972 06/04/1996]',-0.027,0.037,0.002,74.100,31.375,9.363,0.000
'[15:26:28.974 06/04/1996]',-0.027,0.037,0.002,74.100,31.375,9.363,0.000
'[15:26:28.976 06/04/1996]',-0.027,0.037,0.002,73.650,31.025,9.600,0.000
'[15:26:28.978 06/04/1996]',-0.027,0.037,0.002,73.650,31.025,9.600,0.000
'[15:26:28.980 06/04/1996]',-0.027,0.037,0.002,73.650,31.025,9.600,0.000
'[15:26:28.982 06/04/1996]',-0.027,0.037,0.002,73.650,31.025,9.600,0.000
'[15:26:28.984 06/04/1996]',-0.018,0.037,0.002,73.125,30.450,9.838,0.000
'[15:26:28.986 06/04/1996]',-0.027,0.037,0.002,73.125,30.450,9.838,0.000
'[15:26:28.988 06/04/1996]',-0.027,0.037,0.002,73.125,30.450,9.838,0.000
'[15:26:28.990 06/04/1996]',-0.027,0.037,0.002,73.125,30.450,9.838,0.000
'[15:26:28.992 06/04/1996]',-0.027,0.037,0.002,72.525,29.800,10.075,0.000
'[15:26:28.994 06/04/1996]',-0.027,0.037,0.002,72.525,29.800,10.075,0.000
'[15:26:28.996 06/04/1996]',-0.018,0.037,0.002,72.525,29.800,10.075,0.000
'[15:26:28.998 06/04/1996]',-0.018,0.037,0.002,72.525,29.800,10.075,0.000
'[15:26:29.000 06/04/1996]',-0.018,0.037,0.002,71.925,29.025,10.300,0.000
'[15:26:29.002 06/04/1996]',-0.027,0.037,0.002,71.925,29.025,10.300,0.000
'[15:26:29.004 06/04/1996]',-0.018,0.037,0.002,71.925,29.025,10.300,0.000
'[15:26:29.006 06/04/1996]',-0.008,0.037,-0.020,71.925,29.025,10.300,0.000
'[15:26:29.008 06/04/1996]',0.001,0.037,-0.020,71.400,28.325,10.537,0.000
'[15:26:29.010 06/04/1996]',0.001,0.037,-0.020,71.400,28.325,10.537,0.000
'[15:26:29.012 06/04/1996]',0.001,0.037,-0.042,71.400,28.325,10.537,0.000
'[15:26:29.014 06/04/1996]',0.001,0.037,-0.042,71.400,28.325,10.537,0.000
'[15:26:29.016 06/04/1996]',0.010,0.037,-0.042,71.175,27.750,10.838,0.000
'[15:26:29.018 06/04/1996]',0.010,0.037,-0.064,71.175,27.750,10.838,0.000
'[15:26:29.020 06/04/1996]',0.028,0.037,-0.064,71.175,27.750,10.838,0.000
'[15:26:29.022 06/04/1996]',0.037,0.037,-0.042,71.175,27.750,10.838,0.000
'[15:26:29.024 06/04/1996]',0.055,0.019,-0.042,71.100,27.450,11.062,0.000
'[15:26:29.026 06/04/1996]',0.065,0.002,-0.042,71.100,27.450,11.062,0.000
'[15:26:29.028 06/04/1996]',0.083,0.002,-0.020,71.100,27.450,11.062,0.000
'[15:26:29.030 06/04/1996]',0.092,-0.035,0.002,71.100,27.450,11.062,0.000
'[15:26:29.032 06/04/1996]',0.120,-0.072,0.002,70.800,27.275,11.238,0.000
'[15:26:29.034 06/04/1996]',0.138,-0.108,0.045,70.800,27.275,11.238,0.000
'[15:26:29.036 06/04/1996]',0.156,-0.127,0.067,70.800,27.275,11.238,0.000
'[15:26:29.038 06/04/1996]',0.174,-0.182,0.089,70.800,27.275,11.238,0.000
'[15:26:29.040 06/04/1996]',0.183,-0.218,0.133,70.350,27.325,11.412,0.000
'[15:26:29.042 06/04/1996]',0.193,-0.255,0.177,70.350,27.325,11.412,0.000
'[15:26:29.044 06/04/1996]',0.174,-0.273,0.221,70.350,27.325,11.412,0.000
'[15:26:29.046 06/04/1996]',0.147,-0.291,0.265,70.350,27.325,11.412,0.000
'[15:26:29.048 06/04/1996]',0.120,-0.309,0.309,69.750,27.450,11.475,0.000
'[15:26:29.050 06/04/1996]',0.055,-0.291,0.352,69.750,27.450,11.475,0.000
'[15:26:29.052 06/04/1996]',0.001,-0.273,0.374,69.750,27.450,11.475,0.000
'[15:26:29.054 06/04/1996]',-0.018,-0.255,0.374,69.750,27.450,11.475,0.000
'[15:26:29.056 06/04/1996]',-0.063,-0.237,0.374,69.300,27.675,11.412,0.000
'[15:26:29.058 06/04/1996]',-0.100,-0.200,0.374,69.300,27.675,11.412,0.000
'[15:26:29.060 06/04/1996]',-0.128,-0.182,0.352,69.300,27.675,11.412,0.000
'[15:26:29.062 06/04/1996]',-0.145,-0.145,0.330,69.300,27.675,11.412,0.000
'[15:26:29.064 06/04/1996]',-0.164,-0.108,0.309,69.075,27.750,11.300,0.000
'[15:26:29.066 06/04/1996]',-0.182,-0.090,0.265,69.075,27.750,11.300,0.000
'[15:26:29.068 06/04/1996]',-0.182,-0.053,0.221,69.075,27.750,11.300,0.000
'[15:26:29.070 06/04/1996]',-0.173,-0.035,0.199,69.075,27.750,11.300,0.000
'[15:26:29.072 06/04/1996]',-0.164,-0.017,0.155,68.850,27.625,11.125,0.000
'[15:26:29.074 06/04/1996]',-0.164,0.002,0.133,68.850,27.625,11.125,0.000
'[15:26:29.076 06/04/1996]',-0.155,0.002,0.089,68.850,27.625,11.125,0.000
'[15:26:29.078 06/04/1996]',-0.136,0.002,0.067,68.850,27.625,11.125,0.000
'[15:26:29.080 06/04/1996]',-0.118,0.019,0.045,68.475,27.325,10.838,0.000
'[15:26:29.082 06/04/1996]',-0.100,0.019,0.002,68.475,27.325,10.838,0.000
'[15:26:29.084 06/04/1996]',-0.082,0.037,0.002,68.475,27.325,10.838,0.000
'[15:26:29.086 06/04/1996]',-0.063,0.037,0.002,68.475,27.325,10.838,0.000
'[15:26:29.088 06/04/1996]',-0.045,0.037,0.002,67.800,26.975,10.475,0.000
'[15:26:29.090 06/04/1996]',-0.045,0.037,-0.020,67.800,26.975,10.475,0.000
'[15:26:29.092 06/04/1996]',-0.036,0.037,-0.020,67.800,26.975,10.475,0.000
'[15:26:29.094 06/04/1996]',-0.036,0.037,-0.042,67.800,26.975,10.475,0.000
'[15:26:29.096 06/04/1996]',-0.018,0.056,-0.042,67.200,26.575,10.188,0.000
'[15:26:29.098 06/04/1996]',-0.027,0.056,-0.042,67.200,26.575,10.188,0.000
'[15:26:29.100 06/04/1996]',-0.027,0.056,-0.042,67.200,26.575,10.188,0.000
'[15:26:29.102 06/04/1996]',-0.018,0.056,-0.042,67.200,26.575,10.188,0.000
'[15:26:29.104 06/04/1996]',-0.018,0.056,-0.042,66.825,26.225,9.900,0.000
'[15:26:29.106 06/04/1996]',-0.018,0.056,-0.042,66.825,26.225,9.900,0.000
'[15:26:29.108 06/04/1996]',-0.018,0.037,-0.042,66.825,26.225,9.900,0.000
'[15:26:29.110 06/04/1996]',-0.018,0.037,-0.042,66.825,26.225,9.900,0.000
'[15:26:29.112 06/04/1996]',-0.008,0.037,-0.042,66.675,25.975,9.662,0.000
'[15:26:29.114 06/04/1996]',-0.008,0.037,-0.042,66.675,25.975,9.662,0.000
'[15:26:29.116 06/04/1996]',0.001,0.037,-0.042,66.675,25.975,9.662,0.000
'[15:26:29.118 06/04/1996]',0.001,0.037,-0.042,66.675,25.975,9.662,0.000
'[15:26:29.120 06/04/1996]',0.001,0.056,-0.042,66.375,25.750,9.363,0.000
'[15:26:29.122 06/04/1996]',-0.008,0.056,-0.042,66.375,25.750,9.363,0.000
'[15:26:29.124 06/04/1996]',-0.008,0.056,-0.042,66.375,25.750,9.363,0.000
'[15:26:29.126 06/04/1996]',0.001,0.056,-0.042,66.375,25.750,9.363,0.000
'[15:26:29.128 06/04/1996]',0.001,0.056,-0.042,65.775,25.625,9.075,0.000
'[15:26:29.130 06/04/1996]',0.001,0.056,-0.042,65.775,25.625,9.075,0.000
'[15:26:29.132 06/04/1996]',0.001,0.037,-0.042,65.775,25.625,9.075,0.000
'[15:26:29.134 06/04/1996]',0.001,0.037,-0.042,65.775,25.625,9.075,0.000
'[15:26:29.136 06/04/1996]',0.001,0.056,-0.042,65.175,25.525,8.900,0.000
'[15:26:29.138 06/04/1996]',0.001,0.056,-0.042,65.175,25.525,8.900,0.000
'[15:26:29.140 06/04/1996]',0.001,0.037,-0.042,65.175,25.525,8.900,0.000
'[15:26:29.142 06/04/1996]',-0.008,0.037,-0.042,65.175,25.525,8.900,0.000
'[15:26:29.144 06/04/1996]',0.001,0.037,-0.042,64.650,25.400,8.787,0.000
'[15:26:29.146 06/04/1996]',-0.008,0.037,-0.042,64.650,25.400,8.787,0.000
'[15:26:29.148 06/04/1996]',0.001,0.056,-0.042,64.650,25.400,8.787,0.000
'[15:26:29.150 06/04/1996]',0.001,0.056,-0.042,64.650,25.400,8.787,0.000
'[15:26:29.152 06/04/1996]',-0.008,0.056,-0.042,64.200,25.400,8.725,0.000
'[15:26:29.154 06/04/1996]',0.001,0.056,-0.042,64.200,25.400,8.725,0.000
'[15:26:29.156 06/04/1996]',0.001,0.056,-0.042,64.200,25.400,8.725,0.000
'[15:26:29.158 06/04/1996]',-0.008,0.056,-0.042,64.200,25.400,8.725,0.000
'[15:26:29.160 06/04/1996]',0.001,0.056,-0.042,63.900,25.525,8.725,0.000
'[15:26:29.162 06/04/1996]',-0.008,0.056,-0.042,63.900,25.525,8.725,0.000
'[15:26:29.164 06/04/1996]',0.001,0.056,-0.042,63.900,25.525,8.725,0.000
'[15:26:29.166 06/04/1996]',0.001,0.056,-0.042,63.900,25.525,8.725,0.000
'[15:26:29.168 06/04/1996]',0.001,0.056,-0.042,63.675,25.875,8.787,0.000
'[15:26:29.170 06/04/1996]',0.001,0.056,-0.042,63.675,25.875,8.787,0.000
'[15:26:29.172 06/04/1996]',0.001,0.056,-0.064,63.675,25.875,8.787,0.000
'[15:26:29.174 06/04/1996]',0.001,0.037,-0.064,63.675,25.875,8.787,0.000
'[15:26:29.176 06/04/1996]',0.001,0.056,-0.042,63.450,26.275,8.838,0.000
'[15:26:29.178 06/04/1996]',0.001,0.037,-0.064,63.450,26.275,8.838,0.000
'[15:26:29.180 06/04/1996]',0.001,0.056,-0.042,63.450,26.275,8.838,0.000
'[15:26:29.182 06/04/1996]',0.001,0.056,-0.042,63.450,26.275,8.838,0.000
'[15:26:29.184 06/04/1996]',0.001,0.056,-0.042,63.300,26.575,8.963,0.000
'[15:26:29.186 06/04/1996]',0.001,0.056,-0.042,63.300,26.575,8.963,0.000
'[15:26:29.188 06/04/1996]',0.001,0.056,-0.042,63.300,26.575,8.963,0.000
'[15:26:29.190 06/04/1996]',0.001,0.056,-0.042,63.300,26.575,8.963,0.000
'[15:26:29.192 06/04/1996]',0.001,0.056,-0.042,63.375,26.700,9.137,0.000
'[15:26:29.194 06/04/1996]',0.001,0.056,-0.042,63.375,26.700,9.137,0.000
'[15:26:29.196 06/04/1996]',0.001,0.056,-0.042,63.375,26.700,9.137,0.000
'[15:26:29.198 06/04/1996]',0.001,0.056,-0.042,63.375,26.700,9.137,0.000
'[15:26:29.200 06/04/1996]',0.001,0.056,-0.064,64.050,26.800,9.312,0.000
'[15:26:29.202 06/04/1996]',0.001,0.074,-0.064,64.050,26.800,9.312,0.000
'[15:26:29.204 06/04/1996]',0.001,0.056,-0.064,64.050,26.800,9.312,0.000
'[15:26:29.206 06/04/1996]',0.001,0.056,-0.064,64.050,26.800,9.312,0.000
'[15:26:29.208 06/04/1996]',0.001,0.056,-0.042,65.850,27.150,9.363,0.000
'[15:26:29.210 06/04/1996]',0.001,0.056,-0.064,65.850,27.150,9.363,0.000
'[15:26:29.212 06/04/1996]',0.010,0.056,-0.042,65.850,27.150,9.363,0.000
'[15:26:29.214 06/04/1996]',0.010,0.056,-0.064,65.850,27.150,9.363,0.000
'[15:26:29.216 06/04/1996]',0.010,0.037,-0.064,69.225,27.625,9.312,0.000
'[15:26:29.218 06/04/1996]',0.010,0.056,-0.064,69.225,27.625,9.312,0.000
'[15:26:29.220 06/04/1996]',0.010,0.056,-0.064,69.225,27.625,9.312,0.000
'[15:26:29.222 06/04/1996]',0.010,0.056,-0.042,69.225,27.625,9.312,0.000
'[15:26:29.224 06/04/1996]',0.001,0.056,-0.064,74.100,28.325,9.137,0.000
'[15:26:29.226 06/04/1996]',0.010,0.056,-0.042,74.100,28.325,9.137,0.000
'[15:26:29.228 06/04/1996]',0.010,0.056,-0.042,74.100,28.325,9.137,0.000
'[15:26:29.230 06/04/1996]',0.010,0.056,-0.064,74.100,28.325,9.137,0.000
'[15:26:29.232 06/04/1996]',0.019,0.056,-0.064,79.950,29.150,8.900,0.000
'[15:26:29.234 06/04/1996]',0.019,0.056,-0.064,79.950,29.150,8.900,0.000
'[15:26:29.236 06/04/1996]',0.019,0.037,-0.064,79.950,29.150,8.900,0.000
'[15:26:29.238 06/04/1996]',0.019,0.037,-0.064,79.950,29.150,8.900,0.000
'[15:26:29.240 06/04/1996]',0.028,0.056,-0.042,85.650,30.075,8.662,0.000
'[15:26:29.242 06/04/1996]',0.019,0.037,-0.042,85.650,30.075,8.662,0.000
'[15:26:29.244 06/04/1996]',0.019,0.037,-0.042,85.650,30.075,8.662,0.000
'[15:26:29.246 06/04/1996]',0.010,0.037,-0.042,85.650,30.075,8.662,0.000
'[15:26:29.248 06/04/1996]',0.019,0.037,-0.042,90.525,31.375,8.488,0.000
'[15:26:29.250 06/04/1996]',0.019,0.037,-0.042,90.525,31.375,8.488,0.000
'[15:26:29.252 06/04/1996]',0.019,0.037,-0.042,90.525,31.375,8.488,0.000
'[15:26:29.254 06/04/1996]',0.028,0.037,-0.042,90.525,31.375,8.488,0.000
'[15:26:29.256 06/04/1996]',0.019,0.037,-0.042,94.425,33.300,8.312,0.000
'[15:26:29.258 06/04/1996]',0.010,0.037,-0.020,94.425,33.300,8.312,0.000
'[15:26:29.260 06/04/1996]',0.010,0.037,-0.020,94.425,33.300,8.312,0.000
'[15:26:29.262 06/04/1996]',0.010,0.037,-0.020,94.425,33.300,8.312,0.000
'[15:26:29.264 06/04/1996]',0.019,0.037,-0.020,97.725,35.900,8.137,0.000
'[15:26:29.266 06/04/1996]',0.019,0.019,-0.020,97.725,35.900,8.137,0.000
'[15:26:29.268 06/04/1996]',0.001,0.019,-0.020,97.725,35.900,8.137,0.000
'[15:26:29.270 06/04/1996]',0.001,0.019,-0.020,97.725,35.900,8.137,0.000
'[15:26:29.272 06/04/1996]',0.001,0.019,0.002,100.875,38.925,7.900,0.000
'[15:26:29.274 06/04/1996]',0.001,0.002,0.002,100.875,38.925,7.900,0.000
'[15:26:29.276 06/04/1996]',0.001,0.019,0.002,100.875,38.925,7.900,0.000
'[15:26:29.278 06/04/1996]',0.001,0.019,0.002,100.875,38.925,7.900,0.000
'[15:26:29.280 06/04/1996]',0.010,0.002,0.002,103.800,42.325,7.725,0.000
'[15:26:29.282 06/04/1996]',0.010,0.002,0.002,103.800,42.325,7.725,0.000
'[15:26:29.284 06/04/1996]',0.010,0.002,0.002,103.800,42.325,7.725,0.000
'[15:26:29.286 06/04/1996]',0.001,0.002,0.002,103.800,42.325,7.725,0.000
'[15:26:29.288 06/04/1996]',0.001,0.002,0.002,106.500,45.725,7.662,0.000
'[15:26:29.290 06/04/1996]',0.001,0.019,0.002,106.500,45.725,7.662,0.000
'[15:26:29.292 06/04/1996]',0.001,0.019,0.002,106.500,45.725,7.662,0.000
'[15:26:29.294 06/04/1996]',0.001,0.019,0.002,106.500,45.725,7.662,0.000
'[15:26:29.296 06/04/1996]',0.001,0.019,0.002,108.750,48.900,7.662,0.000
'[15:26:29.298 06/04/1996]',0.001,0.019,0.002,108.750,48.900,7.662,0.000
'[15:26:29.300 06/04/1996]',-0.008,0.002,0.002,108.750,48.900,7.662,0.000
'[15:26:29.302 06/04/1996]',-0.008,0.002,0.002,108.750,48.900,7.662,0.000
'[15:26:29.304 06/04/1996]',-0.008,0.019,0.002,110.775,51.475,7.725,0.000
'[15:26:29.306 06/04/1996]',-0.018,0.019,0.002,110.775,51.475,7.725,0.000
'[15:26:29.308 06/04/1996]',-0.018,0.019,0.002,110.775,51.475,7.725,0.000
'[15:26:29.310 06/04/1996]',-0.027,0.019,0.002,110.775,51.475,7.725,0.000
'[15:26:29.312 06/04/1996]',-0.027,0.037,0.002,112.950,53.350,7.787,0.000
'[15:26:29.314 06/04/1996]',-0.027,0.019,0.002,112.950,53.350,7.787,0.000
'[15:26:29.316 06/04/1996]',-0.027,0.037,0.002,112.950,53.350,7.787,0.000
'[15:26:29.318 06/04/1996]',-0.018,0.019,0.002,112.950,53.350,7.787,0.000
'[15:26:29.320 06/04/1996]',-0.018,0.019,0.002,115.050,54.400,7.900,0.000
'[15:26:29.322 06/04/1996]',-0.018,0.019,0.002,115.050,54.400,7.900,0.000
'[15:26:29.324 06/04/1996]',-0.008,0.019,0.002,115.050,54.400,7.900,0.000
'[15:26:29.326 06/04/1996]',-0.018,0.019,0.002,115.050,54.400,7.900,0.000
'[15:26:29.328 06/04/1996]',-0.008,0.019,0.002,117.000,54.750,8.200,0.000
'[15:26:29.330 06/04/1996]',-0.027,0.019,0.002,117.000,54.750,8.200,0.000
'[15:26:29.332 06/04/1996]',-0.027,0.019,0.002,117.000,54.750,8.200,0.000
'[15:26:29.334 06/04/1996]',-0.027,0.019,0.002,117.000,54.750,8.200,0.000
'[15:26:29.336 06/04/1996]',-0.018,0.019,0.002,118.350,54.525,8.550,0.000
'[15:26:29.338 06/04/1996]',-0.027,0.002,0.002,118.350,54.525,8.550,0.000
'[15:26:29.340 06/04/1996]',-0.018,0.019,0.002,118.350,54.525,8.550,0.000
'[15:26:29.342 06/04/1996]',-0.027,0.019,0.002,118.350,54.525,8.550,0.000
'[15:26:29.344 06/04/1996]',-0.027,0.019,0.002,119.325,53.875,8.787,0.000
'[15:26:29.346 06/04/1996]',-0.036,0.019,0.002,119.325,53.875,8.787,0.000
'[15:26:29.348 06/04/1996]',-0.027,0.019,0.002,119.325,53.875,8.787,0.000
'[15:26:29.350 06/04/1996]',-0.027,0.019,0.002,119.325,53.875,8.787,0.000
'[15:26:29.352 06/04/1996]',-0.018,0.019,0.002,119.925,52.775,8.838,0.000
'[15:26:29.354 06/04/1996]',-0.027,0.019,0.002,119.925,52.775,8.838,0.000
'[15:26:29.356 06/04/1996]',-0.027,0.019,0.002,119.925,52.775,8.838,0.000
'[15:26:29.358 06/04/1996]',-0.036,0.037,0.002,119.925,52.775,8.838,0.000
'[15:26:29.360 06/04/1996]',-0.036,0.019,0.002,120.525,51.350,8.838,0.000
'[15:26:29.362 06/04/1996]',-0.036,0.037,0.002,120.525,51.350,8.838,0.000
'[15:26:29.364 06/04/1996]',-0.045,0.019,0.002,120.525,51.350,8.838,0.000
'[15:26:29.366 06/04/1996]',-0.045,0.019,0.002,120.525,51.350,8.838,0.000
'[15:26:29.368 06/04/1996]',-0.036,0.037,0.002,120.975,49.650,8.963,0.000
'[15:26:29.370 06/04/1996]',-0.045,0.037,0.002,120.975,49.650,8.963,0.000
'[15:26:29.372 06/04/1996]',-0.036,0.037,0.002,120.975,49.650,8.963,0.000
'[15:26:29.374 06/04/1996]',-0.036,0.037,0.002,120.975,49.650,8.963,0.000
'[15:26:29.376 06/04/1996]',-0.036,0.037,0.002,120.825,47.675,9.137,0.000
'[15:26:29.378 06/04/1996]',-0.045,0.037,0.002,120.825,47.675,9.137,0.000
'[15:26:29.380 06/04/1996]',-0.045,0.037,0.002,120.825,47.675,9.137,0.000
'[15:26:29.382 06/04/1996]',-0.036,0.037,0.002,120.825,47.675,9.137,0.000
'[15:26:29.384 06/04/1996]',-0.036,0.037,0.002,119.925,45.675,9.312,0.000
'[15:26:29.386 06/04/1996]',-0.027,0.037,0.002,119.925,45.675,9.312,0.000
'[15:26:29.388 06/04/1996]',-0.036,0.037,0.002,119.925,45.675,9.312,0.000
'[15:26:29.390 06/04/1996]',-0.036,0.019,0.002,119.925,45.675,9.312,0.000
'[15:26:29.392 06/04/1996]',-0.036,0.019,0.002,118.500,43.675,9.425,0.000
'[15:26:29.394 06/04/1996]',-0.036,0.037,0.002,118.500,43.675,9.425,0.000
'[15:26:29.396 06/04/1996]',-0.036,0.019,0.002,118.500,43.675,9.425,0.000
'[15:26:29.398 06/04/1996]',-0.036,0.019,0.002,118.500,43.675,9.425,0.000
'[15:26:29.400 06/04/1996]',-0.027,0.019,0.002,116.925,41.750,9.363,0.000
'[15:26:29.402 06/04/1996]',-0.036,0.019,0.002,116.925,41.750,9.363,0.000
'[15:26:29.404 06/04/1996]',-0.027,0.037,0.002,116.925,41.750,9.363,0.000
'[15:26:29.406 06/04/1996]',-0.027,0.037,0.002,116.925,41.750,9.363,0.000
'[15:26:29.408 06/04/1996]',-0.027,0.037,0.002,115.200,39.925,9.363,0.000
'[15:26:29.410 06/04/1996]',-0.036,0.037,0.002,115.200,39.925,9.363,0.000
'[15:26:29.412 06/04/1996]',-0.036,0.037,0.002,115.200,39.925,9.363,0.000
'[15:26:29.414 06/04/1996]',-0.027,0.019,0.002,115.200,39.925,9.363,0.000
'[15:26:29.416 06/04/1996]',-0.018,0.019,0.002,113.175,38.300,9.363,0.000
'[15:26:29.418 06/04/1996]',-0.018,0.019,0.002,113.175,38.300,9.363,0.000
'[15:26:29.420 06/04/1996]',-0.018,0.019,0.002,113.175,38.300,9.363,0.000
'[15:26:29.422 06/04/1996]',-0.008,0.019,0.002,113.175,38.300,9.363,0.000
'[15:26:29.424 06/04/1996]',-0.008,0.019,0.002,110.475,36.700,9.425,0.000
'[15:26:29.426 06/04/1996]',-0.008,0.002,0.002,110.475,36.700,9.425,0.000
'[15:26:29.428 06/04/1996]',-0.008,0.002,0.002,110.475,36.700,9.425,0.000
'[15:26:29.430 06/04/1996]',0.001,0.002,0.002,110.475,36.700,9.425,0.000
'[15:26:29.432 06/04/1996]',0.001,0.002,0.002,107.025,35.250,9.425,0.000
'[15:26:29.434 06/04/1996]',0.001,0.002,0.002,107.025,35.250,9.425,0.000
'[15:26:29.436 06/04/1996]',0.010,0.002,0.002,107.025,35.250,9.425,0.000
'[15:26:29.438 06/04/1996]',0.010,0.002,0.002,107.025,35.250,9.425,0.000
'[15:26:29.440 06/04/1996]',0.001,0.002,0.002,103.275,33.950,9.425,0.000
'[15:26:29.442 06/04/1996]',0.010,0.002,0.002,103.275,33.950,9.425,0.000
'[15:26:29.444 06/04/1996]',0.010,0.002,0.002,103.275,33.950,9.425,0.000
'[15:26:29.446 06/04/1996]',0.019,0.002,0.002,103.275,33.950,9.425,0.000
'[15:26:29.448 06/04/1996]',0.019,0.002,0.002,99.975,32.725,9.363,0.000
'[15:26:29.450 06/04/1996]',0.019,0.002,0.002,99.975,32.725,9.363,0.000
'[15:26:29.452 06/04/1996]',0.019,0.002,0.002,99.975,32.725,9.363,0.000
'[15:26:29.454 06/04/1996]',0.019,0.002,0.002,99.975,32.725,9.363,0.000
'[15:26:29.456 06/04/1996]',0.019,0.002,0.002,97.425,31.675,9.425,0.000
'[15:26:29.458 06/04/1996]',0.019,0.002,0.002,97.425,31.675,9.425,0.000
'[15:26:29.460 06/04/1996]',0.010,-0.017,0.002,97.425,31.675,9.425,0.000
'[15:26:29.462 06/04/1996]',0.010,-0.017,0.002,97.425,31.675,9.425,0.000
'[15:26:29.464 06/04/1996]',0.010,0.002,0.002,95.775,30.725,9.488,0.000
'[15:26:29.466 06/04/1996]',0.019,-0.017,0.002,95.775,30.725,9.488,0.000
'[15:26:29.468 06/04/1996]',0.019,0.002,0.002,95.775,30.725,9.488,0.000
'[15:26:29.470 06/04/1996]',0.019,0.002,0.002,95.775,30.725,9.488,0.000
'[15:26:29.472 06/04/1996]',0.019,0.002,0.002,94.800,29.975,9.600,0.000
'[15:26:29.474 06/04/1996]',0.010,0.002,0.002,94.800,29.975,9.600,0.000
'[15:26:29.476 06/04/1996]',0.001,0.002,0.002,94.800,29.975,9.600,0.000
'[15:26:29.478 06/04/1996]',0.001,0.002,0.002,94.800,29.975,9.600,0.000
'[15:26:29.480 06/04/1996]',0.001,0.002,0.002,93.975,29.275,9.662,0.000
'[15:26:29.482 06/04/1996]',0.001,0.002,0.002,93.975,29.275,9.662,0.000
'[15:26:29.484 06/04/1996]',0.001,0.002,0.002,93.975,29.275,9.662,0.000
'[15:26:29.486 06/04/1996]',0.001,0.002,0.002,93.975,29.275,9.662,0.000
'[15:26:29.488 06/04/1996]',-0.008,0.002,0.002,93.075,28.675,9.600,0.000
'[15:26:29.490 06/04/1996]',-0.018,0.002,0.002,93.075,28.675,9.600,0.000
'[15:26:29.492 06/04/1996]',-0.018,0.002,0.002,93.075,28.675,9.600,0.000
'[15:26:29.494 06/04/1996]',-0.018,0.002,0.002,93.075,28.675,9.600,0.000
'[15:26:29.496 06/04/1996]',-0.018,0.002,0.002,92.025,28.200,9.600,0.000
'[15:26:29.498 06/04/1996]',-0.018,0.002,0.002,92.025,28.200,9.600,0.000
'[15:26:29.500 06/04/1996]',-0.008,0.002,0.002,92.025,28.200,9.600,0.000
'[15:26:29.502 06/04/1996]',-0.008,0.002,0.002,92.025,28.200,9.600,0.000
'[15:26:29.504 06/04/1996]',-0.018,0.002,0.002,90.750,27.850,9.662,0.000
'[15:26:29.506 06/04/1996]',-0.018,0.002,0.002,90.750,27.850,9.662,0.000
'[15:26:29.508 06/04/1996]',-0.018,0.002,0.002,90.750,27.850,9.662,0.000
'[15:26:29.510 06/04/1996]',-0.008,0.002,0.002,90.750,27.850,9.662,0.000
'[15:26:29.512 06/04/1996]',-0.018,0.002,0.002,89.475,27.675,9.775,0.000
'[15:26:29.514 06/04/1996]',-0.008,0.002,0.002,89.475,27.675,9.775,0.000
'[15:26:29.516 06/04/1996]',0.001,0.002,0.002,89.475,27.675,9.775,0.000
'[15:26:29.518 06/04/1996]',-0.008,0.002,0.002,89.475,27.675,9.775,0.000
'[15:26:29.520 06/04/1996]',-0.008,0.002,0.002,88.275,27.850,9.900,0.000
'[15:26:29.522 06/04/1996]',-0.008,0.002,0.002,88.275,27.850,9.900,0.000
'[15:26:29.524 06/04/1996]',-0.018,0.002,0.002,88.275,27.850,9.900,0.000
'[15:26:29.526 06/04/1996]',-0.027,0.002,0.002,88.275,27.850,9.900,0.000
'[15:26:29.528 06/04/1996]',-0.018,0.002,0.002,87.150,28.275,9.950,0.000
'[15:26:29.530 06/04/1996]',-0.027,0.002,0.002,87.150,28.275,9.950,0.000
'[15:26:29.532 06/04/1996]',-0.018,0.002,0.002,87.150,28.275,9.950,0.000
'[15:26:29.534 06/04/1996]',-0.027,0.019,0.002,87.150,28.275,9.950,0.000
'[15:26:29.536 06/04/1996]',-0.027,0.019,0.002,86.100,29.025,10.012,0.000
'[15:26:29.538 06/04/1996]',-0.036,0.019,0.002,86.100,29.025,10.012,0.000
'[15:26:29.540 06/04/1996]',-0.036,0.019,0.002,86.100,29.025,10.012,0.000
'[15:26:29.542 06/04/1996]',-0.036,0.019,0.002,86.100,29.025,10.012,0.000
'[15:26:29.544 06/04/1996]',-0.036,0.019,0.002,85.050,30.025,10.125,0.000
'[15:26:29.546 06/04/1996]',-0.036,0.019,0.002,85.050,30.025,10.125,0.000
'[15:26:29.548 06/04/1996]',-0.027,0.019,0.002,85.050,30.025,10.125,0.000
'[15:26:29.550 06/04/1996]',-0.027,0.019,0.002,85.050,30.025,10.125,0.000
'[15:26:29.552 06/04/1996]',-0.027,0.019,0.002,84.000,31.025,10.300,0.000
'[15:26:29.554 06/04/1996]',-0.036,0.037,0.002,84.000,31.025,10.300,0.000
'[15:26:29.556 06/04/1996]',-0.045,0.019,-0.020,84.000,31.025,10.300,0.000
'[15:26:29.558 06/04/1996]',-0.045,0.019,-0.020,84.000,31.025,10.300,0.000
'[15:26:29.560 06/04/1996]',-0.036,0.019,0.002,83.025,32.025,10.425,0.000
'[15:26:29.562 06/04/1996]',-0.045,0.019,-0.020,83.025,32.025,10.425,0.000
'[15:26:29.564 06/04/1996]',-0.036,0.037,-0.020,83.025,32.025,10.425,0.000
'[15:26:29.566 06/04/1996]',-0.036,0.037,-0.020,83.025,32.025,10.425,0.000
'[15:26:29.568 06/04/1996]',-0.036,0.037,-0.020,82.125,32.850,10.600,0.000
'[15:26:29.570 06/04/1996]',-0.036,0.037,-0.020,82.125,32.850,10.600,0.000
'[15:26:29.572 06/04/1996]',-0.036,0.037,-0.020,82.125,32.850,10.600,0.000
'[15:26:29.574 06/04/1996]',-0.036,0.037,-0.020,82.125,32.850,10.600,0.000
'[15:26:29.576 06/04/1996]',-0.045,0.037,0.002,81.225,33.425,10.713,0.000
'[15:26:29.578 06/04/1996]',-0.045,0.037,-0.020,81.225,33.425,10.713,0.000
'[15:26:29.580 06/04/1996]',-0.036,0.037,-0.020,81.225,33.425,10.713,0.000
'[15:26:29.582 06/04/1996]',-0.027,0.037,-0.020,81.225,33.425,10.713,0.000
'[15:26:29.584 06/04/1996]',-0.027,0.019,-0.020,80.400,33.775,10.950,0.000
'[15:26:29.586 06/04/1996]',-0.027,0.037,0.002,80.400,33.775,10.950,0.000
'[15:26:29.588 06/04/1996]',-0.036,0.019,-0.020,80.400,33.775,10.950,0.000
'[15:26:29.590 06/04/1996]',-0.036,0.019,-0.020,80.400,33.775,10.950,0.000
'[15:26:29.592 06/04/1996]',-0.027,0.019,0.002,79.725,33.650,11.188,0.000
'[15:26:29.594 06/04/1996]',-0.027,0.002,-0.020,79.725,33.650,11.188,0.000
'[15:26:29.596 06/04/1996]',-0.018,0.019,0.002,79.725,33.650,11.188,0.000
'[15:26:29.598 06/04/1996]',-0.018,0.019,0.002,79.725,33.650,11.188,0.000
'[15:26:29.600 06/04/1996]',-0.018,0.019,0.002,79.050,33.125,11.363,0.000
'[15:26:29.602 06/04/1996]',-0.018,0.019,0.002,79.050,33.125,11.363,0.000
'[15:26:29.604 06/04/1996]',-0.018,0.019,0.002,79.050,33.125,11.363,0.000
'[15:26:29.606 06/04/1996]',-0.027,0.019,0.002,79.050,33.125,11.363,0.000
'[15:26:29.608 06/04/1996]',-0.027,0.019,0.002,78.450,32.250,11.412,0.000
'[15:26:29.610 06/04/1996]',-0.027,0.037,0.002,78.450,32.250,11.412,0.000
'[15:26:29.612 06/04/1996]',-0.036,0.037,0.002,78.450,32.250,11.412,0.000
'[15:26:29.614 06/04/1996]',-0.027,0.037,-0.020,78.450,32.250,11.412,0.000
'[15:26:29.616 06/04/1996]',-0.018,0.037,-0.020,77.925,31.150,11.412,0.000
'[15:26:29.618 06/04/1996]',-0.008,0.019,-0.020,77.925,31.150,11.412,0.000
'[15:26:29.620 06/04/1996]',0.001,0.019,-0.042,77.925,31.150,11.412,0.000
'[15:26:29.622 06/04/1996]',0.001,0.019,-0.042,77.925,31.150,11.412,0.000
'[15:26:29.624 06/04/1996]',0.001,0.019,-0.042,77.475,29.850,11.412,0.000
'[15:26:29.626 06/04/1996]',0.001,0.019,-0.042,77.475,29.850,11.412,0.000
'[15:26:29.628 06/04/1996]',0.001,0.019,-0.064,77.475,29.850,11.412,0.000
'[15:26:29.630 06/04/1996]',0.019,0.019,-0.064,77.475,29.850,11.412,0.000
'[15:26:29.632 06/04/1996]',0.028,0.002,-0.042,76.950,28.450,11.412,0.000
'[15:26:29.634 06/04/1996]',0.037,0.002,-0.042,76.950,28.450,11.412,0.000
'[15:26:29.636 06/04/1996]',0.055,0.002,-0.020,76.950,28.450,11.412,0.000
'[15:26:29.638 06/04/1996]',0.083,-0.035,0.002,76.950,28.450,11.412,0.000
'[15:26:29.640 06/04/1996]',0.101,-0.072,0.002,76.350,27.150,11.412,0.000
'[15:26:29.642 06/04/1996]',0.120,-0.090,0.045,76.350,27.150,11.412,0.000
'[15:26:29.644 06/04/1996]',0.138,-0.127,0.045,76.350,27.150,11.412,0.000
'[15:26:29.646 06/04/1996]',0.156,-0.163,0.089,76.350,27.150,11.412,0.000
'[15:26:29.648 06/04/1996]',0.174,-0.200,0.111,75.750,26.050,11.363,0.000
'[15:26:29.650 06/04/1996]',0.183,-0.237,0.177,75.750,26.050,11.363,0.000
'[15:26:29.652 06/04/1996]',0.174,-0.273,0.199,75.750,26.050,11.363,0.000
'[15:26:29.654 06/04/1996]',0.156,-0.309,0.243,75.750,26.050,11.363,0.000
'[15:26:29.656 06/04/1996]',0.120,-0.309,0.309,75.150,25.275,11.238,0.000
'[15:26:29.658 06/04/1996]',0.065,-0.309,0.352,75.150,25.275,11.238,0.000
'[15:26:29.660 06/04/1996]',0.010,-0.309,0.396,75.150,25.275,11.238,0.000
'[15:26:29.662 06/04/1996]',-0.036,-0.291,0.418,75.150,25.275,11.238,0.000
'[15:26:29.664 06/04/1996]',-0.072,-0.273,0.418,74.700,24.700,11.012,0.000
'[15:26:29.666 06/04/1996]',-0.100,-0.237,0.396,74.700,24.700,11.012,0.000
'[15:26:29.668 06/04/1996]',-0.128,-0.218,0.396,74.700,24.700,11.012,0.000
'[15:26:29.670 06/04/1996]',-0.145,-0.182,0.374,74.700,24.700,11.012,0.000
'[15:26:29.672 06/04/1996]',-0.173,-0.163,0.352,74.250,24.350,10.838,0.000
'[15:26:29.674 06/04/1996]',-0.191,-0.127,0.330,74.250,24.350,10.838,0.000
'[15:26:29.676 06/04/1996]',-0.191,-0.108,0.287,74.250,24.350,10.838,0.000
'[15:26:29.678 06/04/1996]',-0.191,-0.072,0.243,74.250,24.350,10.838,0.000
'[15:26:29.680 06/04/1996]',-0.191,-0.053,0.199,73.800,24.175,10.662,0.000
'[15:26:29.682 06/04/1996]',-0.191,-0.035,0.177,73.800,24.175,10.662,0.000
'[15:26:29.684 06/04/1996]',-0.182,-0.017,0.133,73.800,24.175,10.662,0.000
'[15:26:29.686 06/04/1996]',-0.164,-0.017,0.111,73.800,24.175,10.662,0.000
'[15:26:29.688 06/04/1996]',-0.145,0.002,0.089,73.275,24.050,10.537,0.000
'[15:26:29.690 06/04/1996]',-0.136,0.002,0.045,73.275,24.050,10.537,0.000
'[15:26:29.692 06/04/1996]',-0.128,0.019,0.023,73.275,24.050,10.537,0.000
'[15:26:29.694 06/04/1996]',-0.109,0.037,0.002,73.275,24.050,10.537,0.000
'[15:26:29.696 06/04/1996]',-0.091,0.037,0.002,72.675,24.050,10.363,0.000
'[15:26:29.698 06/04/1996]',-0.082,0.037,-0.020,72.675,24.050,10.363,0.000
'[15:26:29.700 06/04/1996]',-0.063,0.037,-0.020,72.675,24.050,10.363,0.000
'[15:26:29.702 06/04/1996]',-0.054,0.037,-0.042,72.675,24.050,10.363,0.000
'[15:26:29.704 06/04/1996]',-0.054,0.037,-0.042,72.075,24.100,10.188,0.000
'[15:26:29.706 06/04/1996]',-0.054,0.056,-0.042,72.075,24.100,10.188,0.000
'[15:26:29.708 06/04/1996]',-0.045,0.056,-0.042,72.075,24.100,10.188,0.000
'[15:26:29.710 06/04/1996]',-0.054,0.056,-0.042,72.075,24.100,10.188,0.000
'[15:26:29.712 06/04/1996]',-0.045,0.056,-0.042,71.625,24.350,10.012,0.000
'[15:26:29.714 06/04/1996]',-0.045,0.056,-0.064,71.625,24.350,10.012,0.000
'[15:26:29.716 06/04/1996]',-0.054,0.056,-0.064,71.625,24.350,10.012,0.000
'[15:26:29.718 06/04/1996]',-0.054,0.056,-0.064,71.625,24.350,10.012,0.000
'[15:26:29.720 06/04/1996]',-0.045,0.056,-0.064,71.250,24.700,9.950,0.000
'[15:26:29.722 06/04/1996]',-0.045,0.056,-0.064,71.250,24.700,9.950,0.000
'[15:26:29.724 06/04/1996]',-0.045,0.056,-0.064,71.250,24.700,9.950,0.000
'[15:26:29.726 06/04/1996]',-0.045,0.056,-0.064,71.250,24.700,9.950,0.000
'[15:26:29.728 06/04/1996]',-0.036,0.074,-0.064,70.875,25.050,9.900,0.000
'[15:26:29.730 06/04/1996]',-0.045,0.074,-0.064,70.875,25.050,9.900,0.000
'[15:26:29.732 06/04/1996]',-0.045,0.074,-0.086,70.875,25.050,9.900,0.000
'[15:26:29.734 06/04/1996]',-0.054,0.074,-0.086,70.875,25.050,9.900,0.000
'[15:26:29.736 06/04/1996]',-0.045,0.074,-0.086,70.500,25.400,9.900,0.000
'[15:26:29.738 06/04/1996]',-0.045,0.074,-0.086,70.500,25.400,9.900,0.000
'[15:26:29.740 06/04/1996]',-0.045,0.074,-0.086,70.500,25.400,9.900,0.000
'[15:26:29.742 06/04/1996]',-0.045,0.074,-0.086,70.500,25.400,9.900,0.000
'[15:26:29.744 06/04/1996]',-0.036,0.074,-0.086,69.900,25.750,9.900,0.000
'[15:26:29.746 06/04/1996]',-0.036,0.074,-0.086,69.900,25.750,9.900,0.000
'[15:26:29.748 06/04/1996]',-0.036,0.056,-0.086,69.900,25.750,9.900,0.000
'[15:26:29.750 06/04/1996]',-0.036,0.056,-0.086,69.900,25.750,9.900,0.000
'[15:26:29.752 06/04/1996]',-0.027,0.056,-0.086,69.225,26.100,9.900,0.000
'[15:26:29.754 06/04/1996]',-0.036,0.056,-0.086,69.225,26.100,9.900,0.000
'[15:26:29.756 06/04/1996]',-0.027,0.074,-0.086,69.225,26.100,9.900,0.000
'[15:26:29.758 06/04/1996]',-0.036,0.074,-0.064,69.225,26.100,9.900,0.000
'[15:26:29.760 06/04/1996]',-0.036,0.074,-0.086,68.550,26.525,9.950,0.000
'[15:26:29.762 06/04/1996]',-0.036,0.074,-0.086,68.550,26.525,9.950,0.000
'[15:26:29.764 06/04/1996]',-0.027,0.074,-0.086,68.550,26.525,9.950,0.000
'[15:26:29.766 06/04/1996]',-0.036,0.056,-0.086,68.550,26.525,9.950,0.000
'[15:26:29.768 06/04/1996]',-0.027,0.074,-0.086,68.025,27.150,10.012,0.000
'[15:26:29.770 06/04/1996]',-0.036,0.074,-0.086,68.025,27.150,10.012,0.000
'[15:26:29.772 06/04/1996]',-0.036,0.074,-0.086,68.025,27.150,10.012,0.000
'[15:26:29.774 06/04/1996]',-0.036,0.074,-0.086,68.025,27.150,10.012,0.000
'[15:26:29.776 06/04/1996]',-0.036,0.074,-0.086,67.650,27.975,10.188,0.000
'[15:26:29.778 06/04/1996]',-0.027,0.074,-0.086,67.650,27.975,10.188,0.000
'[15:26:29.780 06/04/1996]',-0.036,0.056,-0.086,67.650,27.975,10.188,0.000
'[15:26:29.782 06/04/1996]',-0.036,0.056,-0.086,67.650,27.975,10.188,0.000
'[15:26:29.784 06/04/1996]',-0.027,0.074,-0.086,67.500,28.925,10.300,0.000
'[15:26:29.786 06/04/1996]',-0.036,0.074,-0.086,67.500,28.925,10.300,0.000
'[15:26:29.788 06/04/1996]',-0.036,0.074,-0.086,67.500,28.925,10.300,0.000
'[15:26:29.790 06/04/1996]',-0.036,0.074,-0.086,67.500,28.925,10.300,0.000
'[15:26:29.792 06/04/1996]',-0.036,0.074,-0.086,67.425,29.725,10.475,0.000
'[15:26:29.794 06/04/1996]',-0.036,0.074,-0.086,67.425,29.725,10.475,0.000
'[15:26:29.796 06/04/1996]',-0.027,0.074,-0.086,67.425,29.725,10.475,0.000
'[15:26:29.798 06/04/1996]',-0.036,0.074,-0.086,67.425,29.725,10.475,0.000
'[15:26:29.800 06/04/1996]',-0.027,0.074,-0.086,67.500,30.075,10.600,0.000
'[15:26:29.802 06/04/1996]',-0.027,0.074,-0.086,67.500,30.075,10.600,0.000
'[15:26:29.804 06/04/1996]',-0.027,0.074,-0.086,67.500,30.075,10.600,0.000
'[15:26:29.806 06/04/1996]',-0.027,0.074,-0.086,67.500,30.075,10.600,0.000
'[15:26:29.808 06/04/1996]',-0.027,0.074,-0.086,68.175,29.850,10.662,0.000
'[15:26:29.810 06/04/1996]',-0.027,0.074,-0.086,68.175,29.850,10.662,0.000
'[15:26:29.812 06/04/1996]',-0.036,0.074,-0.086,68.175,29.850,10.662,0.000
'[15:26:29.814 06/04/1996]',-0.036,0.074,-0.086,68.175,29.850,10.662,0.000
'[15:26:29.816 06/04/1996]',-0.018,0.074,-0.086,69.825,29.025,10.713,0.000
'[15:26:29.818 06/04/1996]',-0.027,0.074,-0.086,69.825,29.025,10.713,0.000
'[15:26:29.820 06/04/1996]',-0.008,0.074,-0.086,69.825,29.025,10.713,0.000
'[15:26:29.822 06/04/1996]',-0.008,0.074,-0.086,69.825,29.025,10.713,0.000
'[15:26:29.824 06/04/1996]',-0.008,0.074,-0.086,72.975,27.975,10.713,0.000
'[15:26:29.826 06/04/1996]',-0.008,0.074,-0.086,72.975,27.975,10.713,0.000
'[15:26:29.828 06/04/1996]',0.001,0.074,-0.086,72.975,27.975,10.713,0.000
'[15:26:29.830 06/04/1996]',0.001,0.074,-0.086,72.975,27.975,10.713,0.000
'[15:26:29.832 06/04/1996]',0.001,0.074,-0.086,77.550,27.150,10.600,0.000
'[15:26:29.834 06/04/1996]',0.001,0.074,-0.086,77.550,27.150,10.600,0.000
'[15:26:29.836 06/04/1996]',0.001,0.074,-0.086,77.550,27.150,10.600,0.000
'[15:26:29.838 06/04/1996]',0.001,0.074,-0.086,77.550,27.150,10.600,0.000
'[15:26:29.840 06/04/1996]',0.001,0.074,-0.086,83.250,27.050,10.425,0.000
'[15:26:29.842 06/04/1996]',0.001,0.074,-0.086,83.250,27.050,10.425,0.000
'[15:26:29.844 06/04/1996]',0.001,0.056,-0.086,83.250,27.050,10.425,0.000
'[15:26:29.846 06/04/1996]',0.001,0.056,-0.086,83.250,27.050,10.425,0.000
'[15:26:29.848 06/04/1996]',0.001,0.056,-0.086,89.250,27.675,10.250,0.000
'[15:26:29.850 06/04/1996]',0.001,0.056,-0.086,89.250,27.675,10.250,0.000
'[15:26:29.852 06/04/1996]',0.001,0.056,-0.064,89.250,27.675,10.250,0.000
'[15:26:29.854 06/04/1996]',0.001,0.056,-0.064,89.250,27.675,10.250,0.000
'[15:26:29.856 06/04/1996]',0.001,0.056,-0.064,94.500,29.150,10.075,0.000
'[15:26:29.858 06/04/1996]',0.001,0.056,-0.064,94.500,29.150,10.075,0.000
'[15:26:29.860 06/04/1996]',0.001,0.056,-0.042,94.500,29.150,10.075,0.000
'[15:26:29.862 06/04/1996]',0.001,0.056,-0.064,94.500,29.150,10.075,0.000
'[15:26:29.864 06/04/1996]',0.001,0.037,-0.042,98.700,31.150,9.950,0.000
'[15:26:29.866 06/04/1996]',0.001,0.056,-0.042,98.700,31.150,9.950,0.000
'[15:26:29.868 06/04/1996]',0.001,0.056,-0.042,98.700,31.150,9.950,0.000
'[15:26:29.870 06/04/1996]',0.001,0.037,-0.042,98.700,31.150,9.950,0.000
'[15:26:29.872 06/04/1996]',0.001,0.037,-0.042,102.075,33.475,9.900,0.000
'[15:26:29.874 06/04/1996]',-0.008,0.056,-0.042,102.075,33.475,9.900,0.000
'[15:26:29.876 06/04/1996]',-0.018,0.037,-0.042,102.075,33.475,9.900,0.000
'[15:26:29.878 06/04/1996]',-0.018,0.037,-0.042,102.075,33.475,9.900,0.000
'[15:26:29.880 06/04/1996]',-0.008,0.037,-0.020,105.150,36.125,9.838,0.000
'[15:26:29.882 06/04/1996]',-0.027,0.037,-0.042,105.150,36.125,9.838,0.000
'[15:26:29.884 06/04/1996]',-0.018,0.037,-0.020,105.150,36.125,9.838,0.000
'[15:26:29.886 06/04/1996]',-0.027,0.037,-0.020,105.150,36.125,9.838,0.000
'[15:26:29.888 06/04/1996]',-0.027,0.037,-0.020,108.300,38.875,9.838,0.000
'[15:26:29.890 06/04/1996]',-0.036,0.056,0.002,108.300,38.875,9.838,0.000
'[15:26:29.892 06/04/1996]',-0.036,0.037,0.002,108.300,38.875,9.838,0.000
'[15:26:29.894 06/04/1996]',-0.036,0.037,0.002,108.300,38.875,9.838,0.000
'[15:26:29.896 06/04/1996]',-0.036,0.037,0.002,111.300,41.625,9.838,0.000
'[15:26:29.898 06/04/1996]',-0.036,0.037,0.002,111.300,41.625,9.838,0.000
'[15:26:29.900 06/04/1996]',-0.036,0.037,0.002,111.300,41.625,9.838,0.000
'[15:26:29.902 06/04/1996]',-0.027,0.037,0.002,111.300,41.625,9.838,0.000
'[15:26:29.904 06/04/1996]',-0.036,0.037,0.002,113.925,44.325,9.950,0.000
'[15:26:29.906 06/04/1996]',-0.036,0.037,0.002,113.925,44.325,9.950,0.000
'[15:26:29.908 06/04/1996]',-0.045,0.037,0.002,113.925,44.325,9.950,0.000
'[15:26:29.910 06/04/1996]',-0.054,0.037,0.002,113.925,44.325,9.950,0.000
'[15:26:29.912 06/04/1996]',-0.054,0.037,0.002,116.175,46.725,10.075,0.000
'[15:26:29.914 06/04/1996]',-0.054,0.037,0.002,116.175,46.725,10.075,0.000
'[15:26:29.916 06/04/1996]',-0.045,0.037,0.002,116.175,46.725,10.075,0.000
'[15:26:29.918 06/04/1996]',-0.036,0.037,0.002,116.175,46.725,10.075,0.000
'[15:26:29.920 06/04/1996]',-0.045,0.037,0.002,118.200,48.775,10.250,0.000
'[15:26:29.922 06/04/1996]',-0.045,0.037,0.002,118.200,48.775,10.250,0.000
'[15:26:29.924 06/04/1996]',-0.054,0.037,0.002,118.200,48.775,10.250,0.000
'[15:26:29.926 06/04/1996]',-0.045,0.037,0.002,118.200,48.775,10.250,0.000
'[15:26:29.928 06/04/1996]',-0.045,0.037,0.002,120.150,50.300,10.475,0.000
'[15:26:29.930 06/04/1996]',-0.045,0.037,0.002,120.150,50.300,10.475,0.000
'[15:26:29.932 06/04/1996]',-0.045,0.037,0.002,120.150,50.300,10.475,0.000
'[15:26:29.934 06/04/1996]',-0.045,0.037,0.002,120.150,50.300,10.475,0.000
'[15:26:29.936 06/04/1996]',-0.045,0.037,0.002,121.950,51.300,10.775,0.000
'[15:26:29.938 06/04/1996]',-0.045,0.037,0.002,121.950,51.300,10.775,0.000
'[15:26:29.940 06/04/1996]',-0.045,0.037,0.002,121.950,51.300,10.775,0.000
'[15:26:29.942 06/04/1996]',-0.054,0.037,0.002,121.950,51.300,10.775,0.000
'[15:26:29.944 06/04/1996]',-0.054,0.037,0.002,123.375,51.700,11.062,0.000
'[15:26:29.946 06/04/1996]',-0.054,0.037,0.002,123.375,51.700,11.062,0.000
'[15:26:29.948 06/04/1996]',-0.054,0.037,0.002,123.375,51.700,11.062,0.000
'[15:26:29.950 06/04/1996]',-0.054,0.037,0.002,123.375,51.700,11.062,0.000
'[15:26:29.952 06/04/1996]',-0.045,0.037,0.002,124.425,51.650,11.300,0.000
'[15:26:29.954 06/04/1996]',-0.045,0.037,0.002,124.425,51.650,11.300,0.000
'[15:26:29.956 06/04/1996]',-0.045,0.037,0.002,124.425,51.650,11.300,0.000
'[15:26:29.958 06/04/1996]',-0.063,0.037,0.002,124.425,51.650,11.300,0.000
'[15:26:29.960 06/04/1996]',-0.054,0.037,0.002,125.100,51.075,11.537,0.000
'[15:26:29.962 06/04/1996]',-0.054,0.037,0.002,125.100,51.075,11.537,0.000
'[15:26:29.964 06/04/1996]',-0.045,0.037,0.002,125.100,51.075,11.537,0.000
'[15:26:29.966 06/04/1996]',-0.045,0.037,0.002,125.100,51.075,11.537,0.000
'[15:26:29.968 06/04/1996]',-0.045,0.037,0.002,125.475,49.950,11.713,0.000
'[15:26:29.970 06/04/1996]',-0.045,0.037,0.002,125.475,49.950,11.713,0.000
'[15:26:29.972 06/04/1996]',-0.045,0.037,0.002,125.475,49.950,11.713,0.000
'[15:26:29.974 06/04/1996]',-0.054,0.037,0.002,125.475,49.950,11.713,0.000
'[15:26:29.976 06/04/1996]',-0.054,0.037,0.002,125.550,48.375,11.825,0.000
'[15:26:29.978 06/04/1996]',-0.054,0.037,0.002,125.550,48.375,11.825,0.000
'[15:26:29.980 06/04/1996]',-0.045,0.037,0.002,125.550,48.375,11.825,0.000
'[15:26:29.982 06/04/1996]',-0.045,0.037,0.002,125.550,48.375,11.825,0.000
'[15:26:29.984 06/04/1996]',-0.036,0.037,0.002,125.325,46.250,11.950,0.000
'[15:26:29.986 06/04/1996]',-0.036,0.037,0.002,125.325,46.250,11.950,0.000
'[15:26:29.988 06/04/1996]',-0.036,0.037,0.002,125.325,46.250,11.950,0.000
'[15:26:29.990 06/04/1996]',-0.045,0.037,0.002,125.325,46.250,11.950,0.000
'[15:26:29.992 06/04/1996]',-0.036,0.037,0.002,124.875,43.850,12.000,0.000
'[15:26:29.994 06/04/1996]',-0.045,0.037,0.002,124.875,43.850,12.000,0.000
'[15:26:29.996 06/04/1996]',-0.036,0.037,0.002,124.875,43.850,12.000,0.000
'[15:26:29.998 06/04/1996]',-0.036,0.037,0.002,124.875,43.850,12.000,0.000
'[15:26:30.000 06/04/1996]',-0.036,0.037,0.002,124.125,41.275,12.000,0.000
'[15:26:30.002 06/04/1996]',-0.027,0.037,0.002,124.125,41.275,12.000,0.000
'[15:26:30.004 06/04/1996]',-0.036,0.019,-0.020,124.125,41.275,12.000,0.000
'[15:26:30.006 06/04/1996]',-0.036,0.037,-0.020,124.125,41.275,12.000,0.000
'[15:26:30.008 06/04/1996]',-0.036,0.037,0.002,122.925,38.700,12.000,0.000
'[15:26:30.010 06/04/1996]',-0.036,0.037,0.002,122.925,38.700,12.000,0.000
'[15:26:30.012 06/04/1996]',-0.027,0.037,0.002,122.925,38.700,12.000,0.000
'[15:26:30.014 06/04/1996]',-0.027,0.037,0.002,122.925,38.700,12.000,0.000
'[15:26:30.016 06/04/1996]',-0.027,0.037,0.002,121.200,36.250,11.950,0.000
'[15:26:30.018 06/04/1996]',-0.027,0.037,0.002,121.200,36.250,11.950,0.000
'[15:26:30.020 06/04/1996]',-0.027,0.037,0.002,121.200,36.250,11.950,0.000
'[15:26:30.022 06/04/1996]',-0.027,0.037,-0.020,121.200,36.250,11.950,0.000
'[15:26:30.024 06/04/1996]',-0.027,0.037,0.002,118.875,34.075,11.887,0.000
'[15:26:30.026 06/04/1996]',-0.027,0.037,0.002,118.875,34.075,11.887,0.000
'[15:26:30.028 06/04/1996]',-0.027,0.037,0.002,118.875,34.075,11.887,0.000
'[15:26:30.030 06/04/1996]',-0.027,0.037,-0.020,118.875,34.075,11.887,0.000
'[15:26:30.032 06/04/1996]',-0.008,0.037,0.002,115.950,32.325,11.775,0.000
'[15:26:30.034 06/04/1996]',-0.008,0.019,0.002,115.950,32.325,11.775,0.000
'[15:26:30.036 06/04/1996]',-0.008,0.019,-0.020,115.950,32.325,11.775,0.000
'[15:26:30.038 06/04/1996]',-0.008,0.019,-0.020,115.950,32.325,11.775,0.000
'[15:26:30.040 06/04/1996]',0.001,0.019,-0.020,112.275,31.025,11.650,0.000
'[15:26:30.042 06/04/1996]',0.001,0.002,-0.020,112.275,31.025,11.650,0.000
'[15:26:30.044 06/04/1996]',0.001,0.019,0.002,112.275,31.025,11.650,0.000
'[15:26:30.046 06/04/1996]',0.001,0.002,0.002,112.275,31.025,11.650,0.000
'[15:26:30.048 06/04/1996]',0.001,0.019,0.002,108.150,30.150,11.600,0.000
'[15:26:30.050 06/04/1996]',0.001,0.019,0.002,108.150,30.150,11.600,0.000
'[15:26:30.052 06/04/1996]',0.001,0.002,0.002,108.150,30.150,11.600,0.000
'[15:26:30.054 06/04/1996]',0.001,0.002,0.002,108.150,30.150,11.600,0.000
'[15:26:30.056 06/04/1996]',0.010,0.002,0.002,104.100,29.450,11.475,0.000
'[15:26:30.058 06/04/1996]',0.010,0.002,0.002,104.100,29.450,11.475,0.000
'[15:26:30.060 06/04/1996]',0.010,0.002,0.002,104.100,29.450,11.475,0.000
'[15:26:30.062 06/04/1996]',0.010,0.002,0.002,104.100,29.450,11.475,0.000
'[15:26:30.064 06/04/1996]',0.010,0.002,0.002,100.725,28.925,11.412,0.000
'[15:26:30.066 06/04/1996]',0.010,0.002,0.002,100.725,28.925,11.412,0.000
'[15:26:30.068 06/04/1996]',0.001,0.002,0.002,100.725,28.925,11.412,0.000
'[15:26:30.070 06/04/1996]',0.001,0.002,0.002,100.725,28.925,11.412,0.000
'[15:26:30.072 06/04/1996]',0.001,0.002,0.002,98.475,28.500,11.300,0.000
'[15:26:30.074 06/04/1996]',0.001,0.002,0.002,98.475,28.500,11.300,0.000
'[15:26:30.076 06/04/1996]',0.001,0.002,0.002,98.475,28.500,11.300,0.000
'[15:26:30.078 06/04/1996]',0.001,0.002,0.002,98.475,28.500,11.300,0.000
'[15:26:30.080 06/04/1996]',0.001,0.002,0.002,97.200,28.275,11.188,0.000
'[15:26:30.082 06/04/1996]',0.001,0.002,0.002,97.200,28.275,11.188,0.000
'[15:26:30.084 06/04/1996]',0.001,0.019,0.002,97.200,28.275,11.188,0.000
'[15:26:30.086 06/04/1996]',0.001,0.019,0.002,97.200,28.275,11.188,0.000
'[15:26:30.088 06/04/1996]',-0.008,0.002,0.002,96.300,28.100,11.062,0.000
'[15:26:30.090 06/04/1996]',-0.018,0.019,0.002,96.300,28.100,11.062,0.000
'[15:26:30.092 06/04/1996]',-0.018,0.019,0.002,96.300,28.100,11.062,0.000
'[15:26:30.094 06/04/1996]',-0.027,0.019,0.002,96.300,28.100,11.062,0.000
'[15:26:30.096 06/04/1996]',-0.027,0.019,0.002,95.475,27.975,10.950,0.000
'[15:26:30.098 06/04/1996]',-0.027,0.037,0.002,95.475,27.975,10.950,0.000
'[15:26:30.100 06/04/1996]',-0.036,0.019,0.002,95.475,27.975,10.950,0.000
'[15:26:30.102 06/04/1996]',-0.036,0.019,0.002,95.475,27.975,10.950,0.000
'[15:26:30.104 06/04/1996]',-0.027,0.037,0.002,94.350,27.850,10.838,0.000
'[15:26:30.106 06/04/1996]',-0.036,0.019,0.002,94.350,27.850,10.838,0.000
'[15:26:30.108 06/04/1996]',-0.027,0.019,0.002,94.350,27.850,10.838,0.000
'[15:26:30.110 06/04/1996]',-0.036,0.019,0.002,94.350,27.850,10.838,0.000
'[15:26:30.112 06/04/1996]',-0.036,0.037,0.002,93.075,27.850,10.775,0.000
'[15:26:30.114 06/04/1996]',-0.036,0.037,0.002,93.075,27.850,10.775,0.000
'[15:26:30.116 06/04/1996]',-0.036,0.037,0.002,93.075,27.850,10.775,0.000
'[15:26:30.118 06/04/1996]',-0.027,0.019,0.002,93.075,27.850,10.775,0.000
'[15:26:30.120 06/04/1996]',-0.036,0.037,0.002,91.875,27.975,10.662,0.000
'[15:26:30.122 06/04/1996]',-0.027,0.037,0.002,91.875,27.975,10.662,0.000
'[15:26:30.124 06/04/1996]',-0.036,0.019,0.002,91.875,27.975,10.662,0.000
'[15:26:30.126 06/04/1996]',-0.045,0.037,0.002,91.875,27.975,10.662,0.000
'[15:26:30.128 06/04/1996]',-0.036,0.037,0.002,90.675,28.325,10.600,0.000
'[15:26:30.130 06/04/1996]',-0.036,0.019,0.002,90.675,28.325,10.600,0.000
'[15:26:30.132 06/04/1996]',-0.036,0.019,0.002,90.675,28.325,10.600,0.000
'[15:26:30.134 06/04/1996]',-0.036,0.019,0.002,90.675,28.325,10.600,0.000
'[15:26:30.136 06/04/1996]',-0.036,0.037,0.002,89.550,28.800,10.537,0.000
'[15:26:30.138 06/04/1996]',-0.045,0.037,0.002,89.550,28.800,10.537,0.000
'[15:26:30.140 06/04/1996]',-0.036,0.037,0.002,89.550,28.800,10.537,0.000
'[15:26:30.142 06/04/1996]',-0.036,0.037,0.002,89.550,28.800,10.537,0.000
'[15:26:30.144 06/04/1996]',-0.045,0.037,0.002,88.425,29.450,10.537,0.000
'[15:26:30.146 06/04/1996]',-0.045,0.037,0.002,88.425,29.450,10.537,0.000
'[15:26:30.148 06/04/1996]',-0.045,0.037,0.002,88.425,29.450,10.537,0.000
'[15:26:30.150 06/04/1996]',-0.036,0.037,0.002,88.425,29.450,10.537,0.000
'[15:26:30.152 06/04/1996]',-0.036,0.037,0.002,87.300,30.275,10.600,0.000
'[15:26:30.154 06/04/1996]',-0.036,0.037,0.002,87.300,30.275,10.600,0.000
'[15:26:30.156 06/04/1996]',-0.036,0.037,0.002,87.300,30.275,10.600,0.000
'[15:26:30.158 06/04/1996]',-0.036,0.019,0.002,87.300,30.275,10.600,0.000
'[15:26:30.160 06/04/1996]',-0.036,0.037,0.002,86.250,31.150,10.662,0.000
'[15:26:30.162 06/04/1996]',-0.045,0.037,0.002,86.250,31.150,10.662,0.000
'[15:26:30.164 06/04/1996]',-0.054,0.037,0.002,86.250,31.150,10.662,0.000
'[15:26:30.166 06/04/1996]',-0.063,0.037,0.002,86.250,31.150,10.662,0.000
'[15:26:30.168 06/04/1996]',-0.054,0.056,0.002,85.275,32.025,10.838,0.000
'[15:26:30.170 06/04/1996]',-0.072,0.037,0.002,85.275,32.025,10.838,0.000
'[15:26:30.172 06/04/1996]',-0.054,0.056,0.002,85.275,32.025,10.838,0.000
'[15:26:30.174 06/04/1996]',-0.054,0.056,0.002,85.275,32.025,10.838,0.000
'[15:26:30.176 06/04/1996]',-0.054,0.037,0.002,84.375,32.775,11.012,0.000
'[15:26:30.178 06/04/1996]',-0.054,0.056,0.002,84.375,32.775,11.012,0.000
'[15:26:30.180 06/04/1996]',-0.054,0.056,0.002,84.375,32.775,11.012,0.000
'[15:26:30.182 06/04/1996]',-0.045,0.037,0.002,84.375,32.775,11.012,0.000
'[15:26:30.184 06/04/1996]',-0.045,0.037,0.002,83.625,33.300,11.300,0.000
'[15:26:30.186 06/04/1996]',-0.054,0.037,0.002,83.625,33.300,11.300,0.000
'[15:26:30.188 06/04/1996]',-0.045,0.056,0.002,83.625,33.300,11.300,0.000
'[15:26:30.190 06/04/1996]',-0.045,0.037,0.002,83.625,33.300,11.300,0.000
'[15:26:30.192 06/04/1996]',-0.045,0.037,0.002,82.950,33.550,11.600,0.000
'[15:26:30.194 06/04/1996]',-0.054,0.037,0.002,82.950,33.550,11.600,0.000
'[15:26:30.196 06/04/1996]',-0.054,0.037,0.002,82.950,33.550,11.600,0.000
'[15:26:30.198 06/04/1996]',-0.054,0.037,0.002,82.950,33.550,11.600,0.000
'[15:26:30.200 06/04/1996]',-0.045,0.037,0.002,82.200,33.375,11.887,0.000
'[15:26:30.202 06/04/1996]',-0.054,0.037,0.002,82.200,33.375,11.887,0.000
'[15:26:30.204 06/04/1996]',-0.045,0.037,0.002,82.200,33.375,11.887,0.000
'[15:26:30.206 06/04/1996]',-0.045,0.037,0.002,82.200,33.375,11.887,0.000
'[15:26:30.208 06/04/1996]',-0.045,0.037,0.002,81.450,32.850,12.175,0.000
'[15:26:30.210 06/04/1996]',-0.045,0.037,0.002,81.450,32.850,12.175,0.000
'[15:26:30.212 06/04/1996]',-0.054,0.037,0.002,81.450,32.850,12.175,0.000
'[15:26:30.214 06/04/1996]',-0.045,0.037,0.002,81.450,32.850,12.175,0.000
'[15:26:30.216 06/04/1996]',-0.045,0.037,0.002,80.700,31.950,12.412,0.000
'[15:26:30.218 06/04/1996]',-0.036,0.037,0.002,80.700,31.950,12.412,0.000
'[15:26:30.220 06/04/1996]',-0.036,0.037,0.002,80.700,31.950,12.412,0.000
'[15:26:30.222 06/04/1996]',-0.036,0.037,-0.020,80.700,31.950,12.412,0.000
'[15:26:30.224 06/04/1996]',-0.027,0.037,-0.020,80.025,30.900,12.650,0.000
'[15:26:30.226 06/04/1996]',-0.018,0.037,-0.020,80.025,30.900,12.650,0.000
'[15:26:30.228 06/04/1996]',-0.018,0.037,-0.042,80.025,30.900,12.650,0.000
'[15:26:30.230 06/04/1996]',-0.018,0.037,-0.042,80.025,30.900,12.650,0.000
'[15:26:30.232 06/04/1996]',0.001,0.037,-0.042,79.350,29.675,12.887,0.000
'[15:26:30.234 06/04/1996]',0.001,0.037,-0.064,79.350,29.675,12.887,0.000
'[15:26:30.236 06/04/1996]',0.010,0.037,-0.064,79.350,29.675,12.887,0.000
'[15:26:30.238 06/04/1996]',0.019,0.019,-0.064,79.350,29.675,12.887,0.000
'[15:26:30.240 06/04/1996]',0.028,0.002,-0.042,78.675,28.500,13.000,0.000
'[15:26:30.242 06/04/1996]',0.037,0.002,-0.042,78.675,28.500,13.000,0.000
'[15:26:30.244 06/04/1996]',0.065,-0.017,0.002,78.675,28.500,13.000,0.000
'[15:26:30.246 06/04/1996]',0.083,-0.053,0.002,78.675,28.500,13.000,0.000
'[15:26:30.248 06/04/1996]',0.101,-0.072,0.023,78.075,27.450,13.062,0.000
'[15:26:30.250 06/04/1996]',0.129,-0.108,0.045,78.075,27.450,13.062,0.000
'[15:26:30.252 06/04/1996]',0.147,-0.145,0.067,78.075,27.450,13.062,0.000
'[15:26:30.254 06/04/1996]',0.156,-0.182,0.111,78.075,27.450,13.062,0.000
'[15:26:30.256 06/04/1996]',0.165,-0.218,0.155,77.400,26.575,13.062,0.000
'[15:26:30.258 06/04/1996]',0.165,-0.255,0.221,77.400,26.575,13.062,0.000
'[15:26:30.260 06/04/1996]',0.138,-0.291,0.265,77.400,26.575,13.062,0.000
'[15:26:30.262 06/04/1996]',0.101,-0.291,0.309,77.400,26.575,13.062,0.000
'[15:26:30.264 06/04/1996]',0.046,-0.291,0.352,76.800,25.800,13.000,0.000
'[15:26:30.266 06/04/1996]',0.001,-0.291,0.396,76.800,25.800,13.000,0.000
'[15:26:30.268 06/04/1996]',-0.036,-0.273,0.418,76.800,25.800,13.000,0.000
'[15:26:30.270 06/04/1996]',-0.082,-0.255,0.418,76.800,25.800,13.000,0.000
'[15:26:30.272 06/04/1996]',-0.118,-0.237,0.418,76.200,25.175,12.938,0.000
'[15:26:30.274 06/04/1996]',-0.136,-0.200,0.396,76.200,25.175,12.938,0.000
'[15:26:30.276 06/04/1996]',-0.164,-0.182,0.374,76.200,25.175,12.938,0.000
'[15:26:30.278 06/04/1996]',-0.182,-0.163,0.374,76.200,25.175,12.938,0.000
'[15:26:30.280 06/04/1996]',-0.200,-0.127,0.330,75.675,24.700,12.825,0.000
'[15:26:30.282 06/04/1996]',-0.210,-0.090,0.287,75.675,24.700,12.825,0.000
'[15:26:30.284 06/04/1996]',-0.210,-0.053,0.243,75.675,24.700,12.825,0.000
'[15:26:30.286 06/04/1996]',-0.200,-0.035,0.221,75.675,24.700,12.825,0.000
'[15:26:30.288 06/04/1996]',-0.200,-0.017,0.177,75.150,24.450,12.650,0.000
'[15:26:30.290 06/04/1996]',-0.191,0.002,0.155,75.150,24.450,12.650,0.000
'[15:26:30.292 06/04/1996]',-0.182,0.002,0.111,75.150,24.450,12.650,0.000
'[15:26:30.294 06/04/1996]',-0.164,0.002,0.089,75.150,24.450,12.650,0.000
'[15:26:30.296 06/04/1996]',-0.136,0.002,0.045,74.625,24.350,12.475,0.000
'[15:26:30.298 06/04/1996]',-0.128,0.019,0.002,74.625,24.350,12.475,0.000
'[15:26:30.300 06/04/1996]',-0.109,0.037,0.002,74.625,24.350,12.475,0.000
'[15:26:30.302 06/04/1996]',-0.091,0.037,0.002,74.625,24.350,12.475,0.000
'[15:26:30.304 06/04/1996]',-0.082,0.037,-0.020,74.100,24.450,12.238,0.000
'[15:26:30.306 06/04/1996]',-0.072,0.056,-0.020,74.100,24.450,12.238,0.000
'[15:26:30.308 06/04/1996]',-0.063,0.056,-0.042,74.100,24.450,12.238,0.000
'[15:26:30.310 06/04/1996]',-0.054,0.056,-0.042,74.100,24.450,12.238,0.000
'[15:26:30.312 06/04/1996]',-0.054,0.056,-0.042,73.575,24.650,12.000,0.000
'[15:26:30.314 06/04/1996]',-0.054,0.056,-0.042,73.575,24.650,12.000,0.000
'[15:26:30.316 06/04/1996]',-0.054,0.074,-0.064,73.575,24.650,12.000,0.000
'[15:26:30.318 06/04/1996]',-0.054,0.074,-0.064,73.575,24.650,12.000,0.000
'[15:26:30.320 06/04/1996]',-0.045,0.074,-0.064,73.050,25.000,11.775,0.000
'[15:26:30.322 06/04/1996]',-0.045,0.074,-0.042,73.050,25.000,11.775,0.000
'[15:26:30.324 06/04/1996]',-0.045,0.056,-0.064,73.050,25.000,11.775,0.000
'[15:26:30.326 06/04/1996]',-0.045,0.056,-0.064,73.050,25.000,11.775,0.000
'[15:26:30.328 06/04/1996]',-0.045,0.074,-0.064,72.450,25.275,11.600,0.000
'[15:26:30.330 06/04/1996]',-0.045,0.056,-0.086,72.450,25.275,11.600,0.000
'[15:26:30.332 06/04/1996]',-0.036,0.074,-0.064,72.450,25.275,11.600,0.000
'[15:26:30.334 06/04/1996]',-0.036,0.074,-0.064,72.450,25.275,11.600,0.000
'[15:26:30.336 06/04/1996]',-0.036,0.074,-0.064,71.925,25.625,11.475,0.000
'[15:26:30.338 06/04/1996]',-0.036,0.074,-0.086,71.925,25.625,11.475,0.000
'[15:26:30.340 06/04/1996]',-0.027,0.074,-0.086,71.925,25.625,11.475,0.000
'[15:26:30.342 06/04/1996]',-0.027,0.056,-0.064,71.925,25.625,11.475,0.000
'[15:26:30.344 06/04/1996]',-0.027,0.056,-0.064,71.475,25.925,11.363,0.000
'[15:26:30.346 06/04/1996]',-0.018,0.074,-0.086,71.475,25.925,11.363,0.000
'[15:26:30.348 06/04/1996]',-0.008,0.056,-0.086,71.475,25.925,11.363,0.000
'[15:26:30.350 06/04/1996]',-0.008,0.056,-0.086,71.475,25.925,11.363,0.000
'[15:26:30.352 06/04/1996]',0.001,0.056,-0.086,71.100,26.225,11.300,0.000
'[15:26:30.354 06/04/1996]',0.001,0.056,-0.086,71.100,26.225,11.300,0.000
'[15:26:30.356 06/04/1996]',-0.018,0.056,-0.086,71.100,26.225,11.300,0.000
'[15:26:30.358 06/04/1996]',-0.018,0.056,-0.086,71.100,26.225,11.300,0.000
'[15:26:30.360 06/04/1996]',-0.008,0.056,-0.064,70.575,26.525,11.238,0.000
'[15:26:30.362 06/04/1996]',-0.018,0.056,-0.086,70.575,26.525,11.238,0.000
'[15:26:30.364 06/04/1996]',-0.008,0.056,-0.064,70.575,26.525,11.238,0.000
'[15:26:30.366 06/04/1996]',-0.008,0.056,-0.086,70.575,26.525,11.238,0.000
'[15:26:30.368 06/04/1996]',0.001,0.056,-0.086,70.125,26.975,11.188,0.000
'[15:26:30.370 06/04/1996]',-0.008,0.056,-0.086,70.125,26.975,11.188,0.000
'[15:26:30.372 06/04/1996]',-0.008,0.074,-0.086,70.125,26.975,11.188,0.000
'[15:26:30.374 06/04/1996]',-0.008,0.074,-0.086,70.125,26.975,11.188,0.000
'[15:26:30.376 06/04/1996]',-0.008,0.074,-0.086,69.675,27.750,11.188,0.000
'[15:26:30.378 06/04/1996]',-0.027,0.074,-0.086,69.675,27.750,11.188,0.000
'[15:26:30.380 06/04/1996]',-0.018,0.074,-0.086,69.675,27.750,11.188,0.000
'[15:26:30.382 06/04/1996]',-0.008,0.056,-0.086,69.675,27.750,11.188,0.000
'[15:26:30.384 06/04/1996]',-0.008,0.074,-0.086,69.225,28.750,11.188,0.000
'[15:26:30.386 06/04/1996]',-0.008,0.074,-0.086,69.225,28.750,11.188,0.000
'[15:26:30.388 06/04/1996]',-0.018,0.074,-0.086,69.225,28.750,11.188,0.000
'[15:26:30.390 06/04/1996]',-0.027,0.074,-0.086,69.225,28.750,11.188,0.000
'[15:26:30.392 06/04/1996]',-0.027,0.074,-0.086,68.775,29.800,11.238,0.000
'[15:26:30.394 06/04/1996]',-0.036,0.074,-0.086,68.775,29.800,11.238,0.000
'[15:26:30.396 06/04/1996]',-0.036,0.074,-0.064,68.775,29.800,11.238,0.000
'[15:26:30.398 06/04/1996]',-0.036,0.074,-0.064,68.775,29.800,11.238,0.000
'[15:26:30.400 06/04/1996]',-0.036,0.092,-0.086,68.475,30.500,11.300,0.000
'[15:26:30.402 06/04/1996]',-0.036,0.092,-0.086,68.475,30.500,11.300,0.000
'[15:26:30.404 06/04/1996]',-0.036,0.092,-0.086,68.475,30.500,11.300,0.000
'[15:26:30.406 06/04/1996]',-0.036,0.074,-0.064,68.475,30.500,11.300,0.000
'[15:26:30.408 06/04/1996]',-0.027,0.092,-0.086,68.550,30.450,11.363,0.000
'[15:26:30.410 06/04/1996]',-0.027,0.074,-0.086,68.550,30.450,11.363,0.000
'[15:26:30.412 06/04/1996]',-0.027,0.092,-0.086,68.550,30.450,11.363,0.000
'[15:26:30.414 06/04/1996]',-0.018,0.074,-0.086,68.550,30.450,11.363,0.000
'[15:26:30.416 06/04/1996]',-0.008,0.074,-0.086,69.375,29.550,11.412,0.000
'[15:26:30.418 06/04/1996]',-0.008,0.092,-0.086,69.375,29.550,11.412,0.000
'[15:26:30.420 06/04/1996]',-0.027,0.092,-0.086,69.375,29.550,11.412,0.000
'[15:26:30.422 06/04/1996]',-0.027,0.092,-0.086,69.375,29.550,11.412,0.000
'[15:26:30.424 06/04/1996]',-0.027,0.092,-0.086,71.325,28.150,11.412,0.000
'[15:26:30.426 06/04/1996]',-0.027,0.092,-0.086,71.325,28.150,11.412,0.000
'[15:26:30.428 06/04/1996]',-0.018,0.092,-0.086,71.325,28.150,11.412,0.000
'[15:26:30.430 06/04/1996]',0.001,0.092,-0.086,71.325,28.150,11.412,0.000
'[15:26:30.432 06/04/1996]',0.001,0.074,-0.086,74.700,26.875,11.300,0.000
'[15:26:30.434 06/04/1996]',0.001,0.074,-0.086,74.700,26.875,11.300,0.000
'[15:26:30.436 06/04/1996]',0.001,0.074,-0.086,74.700,26.875,11.300,0.000
'[15:26:30.438 06/04/1996]',0.001,0.074,-0.086,74.700,26.875,11.300,0.000
'[15:26:30.440 06/04/1996]',0.001,0.092,-0.086,79.425,26.150,11.125,0.000
'[15:26:30.442 06/04/1996]',0.001,0.074,-0.086,79.425,26.150,11.125,0.000
'[15:26:30.444 06/04/1996]',0.001,0.074,-0.086,79.425,26.150,11.125,0.000
'[15:26:30.446 06/04/1996]',0.001,0.074,-0.086,79.425,26.150,11.125,0.000
'[15:26:30.448 06/04/1996]',0.001,0.074,-0.086,85.050,26.100,10.887,0.000
'[15:26:30.450 06/04/1996]',0.001,0.074,-0.064,85.050,26.100,10.887,0.000
'[15:26:30.452 06/04/1996]',0.001,0.074,-0.086,85.050,26.100,10.887,0.000
'[15:26:30.454 06/04/1996]',0.001,0.074,-0.086,85.050,26.100,10.887,0.000
'[15:26:30.456 06/04/1996]',0.001,0.074,-0.064,90.750,26.800,10.662,0.000
'[15:26:30.458 06/04/1996]',0.001,0.074,-0.064,90.750,26.800,10.662,0.000
'[15:26:30.460 06/04/1996]',0.001,0.074,-0.064,90.750,26.800,10.662,0.000
'[15:26:30.462 06/04/1996]',0.001,0.074,-0.064,90.750,26.800,10.662,0.000
'[15:26:30.464 06/04/1996]',0.001,0.074,-0.064,95.700,28.200,10.363,0.000
'[15:26:30.466 06/04/1996]',0.001,0.074,-0.042,95.700,28.200,10.363,0.000
'[15:26:30.468 06/04/1996]',0.001,0.074,-0.042,95.700,28.200,10.363,0.000
'[15:26:30.470 06/04/1996]',0.001,0.074,-0.042,95.700,28.200,10.363,0.000
'[15:26:30.472 06/04/1996]',0.001,0.074,-0.042,99.525,30.075,10.075,0.000
'[15:26:30.474 06/04/1996]',0.001,0.074,-0.020,99.525,30.075,10.075,0.000
'[15:26:30.476 06/04/1996]',0.001,0.074,-0.020,99.525,30.075,10.075,0.000
'[15:26:30.478 06/04/1996]',0.001,0.074,-0.020,99.525,30.075,10.075,0.000
'[15:26:30.480 06/04/1996]',-0.008,0.074,-0.020,102.525,32.200,9.725,0.000
'[15:26:30.482 06/04/1996]',-0.008,0.074,-0.020,102.525,32.200,9.725,0.000
'[15:26:30.484 06/04/1996]',-0.018,0.074,-0.020,102.525,32.200,9.725,0.000
'[15:26:30.486 06/04/1996]',-0.018,0.074,-0.020,102.525,32.200,9.725,0.000
'[15:26:30.488 06/04/1996]',-0.018,0.074,0.002,105.150,34.475,9.312,0.000
'[15:26:30.490 06/04/1996]',-0.027,0.056,0.002,105.150,34.475,9.312,0.000
'[15:26:30.492 06/04/1996]',-0.027,0.074,0.002,105.150,34.475,9.312,0.000
'[15:26:30.494 06/04/1996]',-0.036,0.074,0.002,105.150,34.475,9.312,0.000
'[15:26:30.496 06/04/1996]',-0.045,0.074,0.002,107.850,36.700,8.963,0.000
'[15:26:30.498 06/04/1996]',-0.045,0.074,0.002,107.850,36.700,8.963,0.000
'[15:26:30.500 06/04/1996]',-0.045,0.074,0.002,107.850,36.700,8.963,0.000
'[15:26:30.502 06/04/1996]',-0.045,0.074,0.002,107.850,36.700,8.963,0.000
'[15:26:30.504 06/04/1996]',-0.054,0.074,0.002,110.475,38.750,8.550,0.000
'[15:26:30.506 06/04/1996]',-0.063,0.074,0.002,110.475,38.750,8.550,0.000
'[15:26:30.508 06/04/1996]',-0.063,0.074,0.002,110.475,38.750,8.550,0.000
'[15:26:30.510 06/04/1996]',-0.063,0.074,0.002,110.475,38.750,8.550,0.000
'[15:26:30.512 06/04/1996]',-0.063,0.074,0.002,112.650,40.525,8.137,0.000
'[15:26:30.514 06/04/1996]',-0.063,0.074,0.002,112.650,40.525,8.137,0.000
'[15:26:30.516 06/04/1996]',-0.072,0.074,0.002,112.650,40.525,8.137,0.000
'[15:26:30.518 06/04/1996]',-0.063,0.074,0.002,112.650,40.525,8.137,0.000
'[15:26:30.520 06/04/1996]',-0.063,0.074,0.002,114.525,41.750,7.662,0.000
'[15:26:30.522 06/04/1996]',-0.072,0.074,0.002,114.525,41.750,7.662,0.000
'[15:26:30.524 06/04/1996]',-0.072,0.074,0.002,114.525,41.750,7.662,0.000
'[15:26:30.526 06/04/1996]',-0.072,0.074,0.002,114.525,41.750,7.662,0.000
'[15:26:30.528 06/04/1996]',-0.072,0.074,0.002,115.950,42.325,7.138,0.000
'[15:26:30.530 06/04/1996]',-0.063,0.074,0.002,115.950,42.325,7.138,0.000
'[15:26:30.532 06/04/1996]',-0.054,0.074,0.002,115.950,42.325,7.138,0.000
'[15:26:30.534 06/04/1996]',-0.054,0.074,0.002,115.950,42.325,7.138,0.000
'[15:26:30.536 06/04/1996]',-0.063,0.074,0.002,117.375,42.225,6.612,0.000
'[15:26:30.538 06/04/1996]',-0.072,0.074,0.002,117.375,42.225,6.612,0.000
'[15:26:30.540 06/04/1996]',-0.082,0.074,0.002,117.375,42.225,6.612,0.000
'[15:26:30.542 06/04/1996]',-0.082,0.074,0.002,117.375,42.225,6.612,0.000
'[15:26:30.544 06/04/1996]',-0.091,0.074,0.002,118.725,41.575,6.025,0.000
'[15:26:30.546 06/04/1996]',-0.091,0.074,0.002,118.725,41.575,6.025,0.000
'[15:26:30.548 06/04/1996]',-0.091,0.074,0.002,118.725,41.575,6.025,0.000
'[15:26:30.550 06/04/1996]',-0.082,0.074,0.002,118.725,41.575,6.025,0.000
'[15:26:30.552 06/04/1996]',-0.082,0.092,0.002,119.925,40.450,5.388,0.000
'[15:26:30.554 06/04/1996]',-0.100,0.074,0.002,119.925,40.450,5.388,0.000
'[15:26:30.556 06/04/1996]',-0.100,0.092,0.002,119.925,40.450,5.388,0.000
'[15:26:30.558 06/04/1996]',-0.100,0.092,0.002,119.925,40.450,5.388,0.000
'[15:26:30.560 06/04/1996]',-0.100,0.092,0.002,120.675,39.000,4.737,0.000
'[15:26:30.562 06/04/1996]',-0.100,0.092,0.002,120.675,39.000,4.737,0.000
'[15:26:30.564 06/04/1996]',-0.100,0.092,0.002,120.675,39.000,4.737,0.000
'[15:26:30.566 06/04/1996]',-0.100,0.092,0.002,120.675,39.000,4.737,0.000
'[15:26:30.568 06/04/1996]',-0.091,0.092,0.002,120.825,37.225,4.100,0.000
'[15:26:30.570 06/04/1996]',-0.091,0.092,0.002,120.825,37.225,4.100,0.000
'[15:26:30.572 06/04/1996]',-0.091,0.092,0.002,120.825,37.225,4.100,0.000
'[15:26:30.574 06/04/1996]',-0.100,0.092,0.002,120.825,37.225,4.100,0.000
'[15:26:30.576 06/04/1996]',-0.100,0.092,0.002,120.375,35.175,3.450,0.000
'[15:26:30.578 06/04/1996]',-0.109,0.092,0.002,120.375,35.175,3.450,0.000
'[15:26:30.580 06/04/1996]',-0.100,0.092,0.002,120.375,35.175,3.450,0.000
'[15:26:30.582 06/04/1996]',-0.091,0.092,0.002,120.375,35.175,3.450,0.000
'[15:26:30.584 06/04/1996]',-0.100,0.092,0.002,119.550,32.950,2.800,0.000
'[15:26:30.586 06/04/1996]',-0.109,0.092,0.002,119.550,32.950,2.800,0.000
'[15:26:30.588 06/04/1996]',-0.109,0.111,0.023,119.550,32.950,2.800,0.000
'[15:26:30.590 06/04/1996]',-0.109,0.111,0.023,119.550,32.950,2.800,0.000
'[15:26:30.592 06/04/1996]',-0.118,0.111,0.023,118.500,30.550,2.163,0.000
'[15:26:30.594 06/04/1996]',-0.118,0.111,0.023,118.500,30.550,2.163,0.000
'[15:26:30.596 06/04/1996]',-0.118,0.111,0.023,118.500,30.550,2.163,0.000
'[15:26:30.598 06/04/1996]',-0.109,0.111,0.023,118.500,30.550,2.163,0.000
'[15:26:30.600 06/04/1996]',-0.109,0.111,0.023,117.450,28.100,1.512,0.000
'[15:26:30.602 06/04/1996]',-0.109,0.111,0.023,117.450,28.100,1.512,0.000
'[15:26:30.604 06/04/1996]',-0.100,0.111,0.023,117.450,28.100,1.512,0.000
'[15:26:30.606 06/04/1996]',-0.100,0.111,0.023,117.450,28.100,1.512,0.000
'[15:26:30.608 06/04/1996]',-0.100,0.111,0.023,116.175,25.525,0.812,0.000
'[15:26:30.610 06/04/1996]',-0.109,0.111,0.023,116.175,25.525,0.812,0.000
'[15:26:30.612 06/04/1996]',-0.118,0.111,0.002,116.175,25.525,0.812,0.000
'[15:26:30.614 06/04/1996]',-0.118,0.111,0.002,116.175,25.525,0.812,0.000
'[15:26:30.616 06/04/1996]',-0.109,0.111,0.023,114.750,23.125,0.175,0.000
'[15:26:30.618 06/04/1996]',-0.118,0.111,0.002,114.750,23.125,0.175,0.000
'[15:26:30.620 06/04/1996]',-0.109,0.111,0.023,114.750,23.125,0.175,0.000
'[15:26:30.622 06/04/1996]',-0.109,0.111,0.023,114.750,23.125,0.175,0.000
'[15:26:30.624 06/04/1996]',-0.109,0.111,0.023,112.950,20.950,-0.463,0.000
'[15:26:30.626 06/04/1996]',-0.100,0.111,0.023,112.950,20.950,-0.463,0.000
'[15:26:30.628 06/04/1996]',-0.109,0.111,0.023,112.950,20.950,-0.463,0.000
'[15:26:30.630 06/04/1996]',-0.109,0.111,0.023,112.950,20.950,-0.463,0.000
'[15:26:30.632 06/04/1996]',-0.109,0.111,0.002,110.475,19.125,-1.050,0.000
'[15:26:30.634 06/04/1996]',-0.109,0.111,0.002,110.475,19.125,-1.050,0.000
'[15:26:30.636 06/04/1996]',-0.109,0.111,0.002,110.475,19.125,-1.050,0.000
'[15:26:30.638 06/04/1996]',-0.109,0.111,0.002,110.475,19.125,-1.050,0.000
'[15:26:30.640 06/04/1996]',-0.109,0.111,0.002,107.250,17.600,-1.525,0.000
'[15:26:30.642 06/04/1996]',-0.100,0.111,0.023,107.250,17.600,-1.525,0.000
'[15:26:30.644 06/04/1996]',-0.109,0.111,0.002,107.250,17.600,-1.525,0.000
'[15:26:30.646 06/04/1996]',-0.109,0.111,0.002,107.250,17.600,-1.525,0.000
'[15:26:30.648 06/04/1996]',-0.091,0.111,0.002,103.350,16.200,-1.988,0.000
'[15:26:30.650 06/04/1996]',-0.100,0.111,0.002,103.350,16.200,-1.988,0.000
'[15:26:30.652 06/04/1996]',-0.100,0.111,0.002,103.350,16.200,-1.988,0.000
'[15:26:30.654 06/04/1996]',-0.100,0.111,0.002,103.350,16.200,-1.988,0.000
'[15:26:30.656 06/04/1996]',-0.100,0.111,0.002,99.375,14.975,-2.400,0.000
'[15:26:30.658 06/04/1996]',-0.100,0.111,0.002,99.375,14.975,-2.400,0.000
'[15:26:30.660 06/04/1996]',-0.100,0.111,0.002,99.375,14.975,-2.400,0.000
'[15:26:30.662 06/04/1996]',-0.100,0.111,0.002,99.375,14.975,-2.400,0.000
'[15:26:30.664 06/04/1996]',-0.091,0.111,0.002,96.075,13.975,-2.638,0.000
'[15:26:30.666 06/04/1996]',-0.082,0.111,0.002,96.075,13.975,-2.638,0.000
'[15:26:30.668 06/04/1996]',-0.091,0.111,0.002,96.075,13.975,-2.638,0.000
'[15:26:30.670 06/04/1996]',-0.091,0.111,0.002,96.075,13.975,-2.638,0.000
'[15:26:30.672 06/04/1996]',-0.091,0.111,0.023,93.750,13.200,-2.750,0.000
'[15:26:30.674 06/04/1996]',-0.091,0.111,0.023,93.750,13.200,-2.750,0.000
'[15:26:30.676 06/04/1996]',-0.100,0.092,0.002,93.750,13.200,-2.750,0.000
'[15:26:30.678 06/04/1996]',-0.091,0.092,0.002,93.750,13.200,-2.750,0.000
'[15:26:30.680 06/04/1996]',-0.082,0.111,0.002,92.325,12.675,-2.812,0.000
'[15:26:30.682 06/04/1996]',-0.082,0.092,0.002,92.325,12.675,-2.812,0.000
'[15:26:30.684 06/04/1996]',-0.072,0.092,0.002,92.325,12.675,-2.812,0.000
'[15:26:30.686 06/04/1996]',-0.082,0.111,0.002,92.325,12.675,-2.812,0.000
'[15:26:30.688 06/04/1996]',-0.100,0.111,0.002,91.275,12.400,-2.750,0.000
'[15:26:30.690 06/04/1996]',-0.109,0.111,0.023,91.275,12.400,-2.750,0.000
'[15:26:30.692 06/04/1996]',-0.118,0.111,0.023,91.275,12.400,-2.750,0.000
'[15:26:30.694 06/04/1996]',-0.128,0.111,0.023,91.275,12.400,-2.750,0.000
'[15:26:30.696 06/04/1996]',-0.128,0.111,0.023,90.150,12.275,-2.812,0.000
'[15:26:30.698 06/04/1996]',-0.136,0.129,0.002,90.150,12.275,-2.812,0.000
'[15:26:30.700 06/04/1996]',-0.136,0.129,0.002,90.150,12.275,-2.812,0.000
'[15:26:30.702 06/04/1996]',-0.136,0.129,0.002,90.150,12.275,-2.812,0.000
'[15:26:30.704 06/04/1996]',-0.128,0.129,0.023,88.800,12.275,-2.925,0.000
'[15:26:30.706 06/04/1996]',-0.118,0.129,0.002,88.800,12.275,-2.925,0.000
'[15:26:30.708 06/04/1996]',-0.128,0.111,0.002,88.800,12.275,-2.925,0.000
'[15:26:30.710 06/04/1996]',-0.136,0.111,0.023,88.800,12.275,-2.925,0.000
'[15:26:30.712 06/04/1996]',-0.136,0.129,0.023,87.525,12.500,-3.212,0.000
'[15:26:30.714 06/04/1996]',-0.136,0.111,0.023,87.525,12.500,-3.212,0.000
'[15:26:30.716 06/04/1996]',-0.136,0.129,0.023,87.525,12.500,-3.212,0.000
'[15:26:30.718 06/04/1996]',-0.136,0.129,0.023,87.525,12.500,-3.212,0.000
'[15:26:30.720 06/04/1996]',-0.136,0.129,0.045,86.325,12.800,-3.575,0.000
'[15:26:30.722 06/04/1996]',-0.136,0.129,0.045,86.325,12.800,-3.575,0.000
'[15:26:30.724 06/04/1996]',-0.145,0.129,0.023,86.325,12.800,-3.575,0.000
'[15:26:30.726 06/04/1996]',-0.145,0.129,0.023,86.325,12.800,-3.575,0.000
'[15:26:30.728 06/04/1996]',-0.145,0.129,0.045,85.200,13.200,-3.975,0.000
'[15:26:30.730 06/04/1996]',-0.145,0.129,0.023,85.200,13.200,-3.975,0.000
'[15:26:30.732 06/04/1996]',-0.145,0.147,0.023,85.200,13.200,-3.975,0.000
'[15:26:30.734 06/04/1996]',-0.145,0.147,0.023,85.200,13.200,-3.975,0.000
'[15:26:30.736 06/04/1996]',-0.155,0.147,0.023,84.150,13.625,-4.338,0.000
'[15:26:30.738 06/04/1996]',-0.136,0.147,0.023,84.150,13.625,-4.338,0.000
'[15:26:30.740 06/04/1996]',-0.145,0.129,0.023,84.150,13.625,-4.338,0.000
'[15:26:30.742 06/04/1996]',-0.145,0.129,0.023,84.150,13.625,-4.338,0.000
'[15:26:30.744 06/04/1996]',-0.145,0.147,0.023,83.100,14.150,-4.513,0.000
'[15:26:30.746 06/04/1996]',-0.155,0.129,0.023,83.100,14.150,-4.513,0.000
'[15:26:30.748 06/04/1996]',-0.155,0.147,0.023,83.100,14.150,-4.513,0.000
'[15:26:30.750 06/04/1996]',-0.155,0.147,0.023,83.100,14.150,-4.513,0.000
'[15:26:30.752 06/04/1996]',-0.155,0.147,0.023,82.050,14.625,-4.625,0.000
'[15:26:30.754 06/04/1996]',-0.155,0.147,0.023,82.050,14.625,-4.625,0.000
'[15:26:30.756 06/04/1996]',-0.164,0.147,0.023,82.050,14.625,-4.625,0.000
'[15:26:30.758 06/04/1996]',-0.164,0.147,0.023,82.050,14.625,-4.625,0.000
'[15:26:30.760 06/04/1996]',-0.164,0.147,0.023,81.000,14.900,-4.650,0.000
'[15:26:30.762 06/04/1996]',-0.155,0.147,0.023,81.000,14.900,-4.650,0.000
'[15:26:30.764 06/04/1996]',-0.164,0.147,0.023,81.000,14.900,-4.650,0.000
'[15:26:30.766 06/04/1996]',-0.155,0.147,0.023,81.000,14.900,-4.650,0.000
'[15:26:30.768 06/04/1996]',-0.155,0.147,0.023,79.950,15.075,-4.562,0.000
'[15:26:30.770 06/04/1996]',-0.164,0.147,0.023,79.950,15.075,-4.562,0.000
'[15:26:30.772 06/04/1996]',-0.164,0.147,0.023,79.950,15.075,-4.562,0.000
'[15:26:30.774 06/04/1996]',-0.173,0.147,0.023,79.950,15.075,-4.562,0.000
'[15:26:30.776 06/04/1996]',-0.173,0.166,0.023,79.050,15.075,-4.388,0.000
'[15:26:30.778 06/04/1996]',-0.182,0.147,0.002,79.050,15.075,-4.388,0.000
'[15:26:30.780 06/04/1996]',-0.173,0.166,0.023,79.050,15.075,-4.388,0.000
'[15:26:30.782 06/04/1996]',-0.182,0.166,0.023,79.050,15.075,-4.388,0.000
'[15:26:30.784 06/04/1996]',-0.173,0.166,0.023,78.150,14.900,-4.150,0.000
'[15:26:30.786 06/04/1996]',-0.164,0.166,0.023,78.150,14.900,-4.150,0.000
'[15:26:30.788 06/04/1996]',-0.173,0.166,0.023,78.150,14.900,-4.150,0.000
'[15:26:30.790 06/04/1996]',-0.173,0.166,0.023,78.150,14.900,-4.150,0.000
'[15:26:30.792 06/04/1996]',-0.173,0.166,0.023,77.325,14.550,-3.862,0.000
'[15:26:30.794 06/04/1996]',-0.182,0.166,0.023,77.325,14.550,-3.862,0.000
'[15:26:30.796 06/04/1996]',-0.173,0.166,0.002,77.325,14.550,-3.862,0.000
'[15:26:30.798 06/04/1996]',-0.173,0.166,0.023,77.325,14.550,-3.862,0.000
'[15:26:30.800 06/04/1996]',-0.173,0.166,0.002,76.575,14.025,-3.575,0.000
'[15:26:30.802 06/04/1996]',-0.173,0.166,0.023,76.575,14.025,-3.575,0.000
'[15:26:30.804 06/04/1996]',-0.182,0.166,0.002,76.575,14.025,-3.575,0.000
'[15:26:30.806 06/04/1996]',-0.182,0.147,0.002,76.575,14.025,-3.575,0.000
'[15:26:30.808 06/04/1996]',-0.173,0.166,0.023,75.975,13.325,-3.163,0.000
'[15:26:30.810 06/04/1996]',-0.182,0.147,0.002,75.975,13.325,-3.163,0.000
'[15:26:30.812 06/04/1996]',-0.164,0.147,0.023,75.975,13.325,-3.163,0.000
'[15:26:30.814 06/04/1996]',-0.173,0.147,0.023,75.975,13.325,-3.163,0.000
'[15:26:30.816 06/04/1996]',-0.173,0.166,0.023,75.375,12.450,-2.688,0.000
'[15:26:30.818 06/04/1996]',-0.164,0.166,0.002,75.375,12.450,-2.688,0.000
'[15:26:30.820 06/04/1996]',-0.164,0.147,0.002,75.375,12.450,-2.688,0.000
'[15:26:30.822 06/04/1996]',-0.164,0.166,0.002,75.375,12.450,-2.688,0.000
'[15:26:30.824 06/04/1996]',-0.164,0.147,0.002,74.775,11.450,-2.225,0.000
'[15:26:30.826 06/04/1996]',-0.155,0.147,0.002,74.775,11.450,-2.225,0.000
'[15:26:30.828 06/04/1996]',-0.155,0.147,0.002,74.775,11.450,-2.225,0.000
'[15:26:30.830 06/04/1996]',-0.145,0.147,0.002,74.775,11.450,-2.225,0.000
'[15:26:30.832 06/04/1996]',-0.136,0.147,0.002,74.100,10.450,-1.750,0.000
'[15:26:30.834 06/04/1996]',-0.136,0.166,0.002,74.100,10.450,-1.750,0.000
'[15:26:30.836 06/04/1996]',-0.136,0.147,-0.020,74.100,10.450,-1.750,0.000
'[15:26:30.838 06/04/1996]',-0.136,0.147,-0.042,74.100,10.450,-1.750,0.000
'[15:26:30.840 06/04/1996]',-0.109,0.147,-0.042,73.350,9.650,-1.288,0.000
'[15:26:30.842 06/04/1996]',-0.109,0.147,-0.042,73.350,9.650,-1.288,0.000
'[15:26:30.844 06/04/1996]',-0.091,0.147,-0.042,73.350,9.650,-1.288,0.000
'[15:26:30.846 06/04/1996]',-0.072,0.129,-0.020,73.350,9.650,-1.288,0.000
'[15:26:30.848 06/04/1996]',-0.063,0.111,0.002,72.750,9.000,-0.875,0.000
'[15:26:30.850 06/04/1996]',-0.045,0.074,0.002,72.750,9.000,-0.875,0.000
'[15:26:30.852 06/04/1996]',-0.036,0.056,0.023,72.750,9.000,-0.875,0.000
'[15:26:30.854 06/04/1996]',-0.008,0.019,0.045,72.750,9.000,-0.875,0.000
'[15:26:30.856 06/04/1996]',0.001,0.002,0.089,72.075,8.475,-0.463,0.000
'[15:26:30.858 06/04/1996]',0.019,-0.053,0.111,72.075,8.475,-0.463,0.000
'[15:26:30.860 06/04/1996]',0.037,-0.090,0.155,72.075,8.475,-0.463,0.000
'[15:26:30.862 06/04/1996]',0.037,-0.127,0.177,72.075,8.475,-0.463,0.000
'[15:26:30.864 06/04/1996]',0.037,-0.145,0.221,71.550,8.125,-0.175,0.000
'[15:26:30.866 06/04/1996]',0.010,-0.163,0.265,71.550,8.125,-0.175,0.000
'[15:26:30.868 06/04/1996]',-0.008,-0.182,0.287,71.550,8.125,-0.175,0.000
'[15:26:30.870 06/04/1996]',-0.063,-0.163,0.330,71.550,8.125,-0.175,0.000
'[15:26:30.872 06/04/1996]',-0.118,-0.145,0.352,71.250,7.950,0.000,0.000
'[15:26:30.874 06/04/1996]',-0.164,-0.127,0.352,71.250,7.950,0.000,0.000
'[15:26:30.876 06/04/1996]',-0.200,-0.108,0.374,71.250,7.950,0.000,0.000
'[15:26:30.878 06/04/1996]',-0.237,-0.072,0.352,71.250,7.950,0.000,0.000
'[15:26:30.880 06/04/1996]',-0.273,-0.035,0.330,70.950,7.950,0.062,0.000
'[15:26:30.882 06/04/1996]',-0.292,-0.017,0.309,70.950,7.950,0.062,0.000
'[15:26:30.884 06/04/1996]',-0.310,0.002,0.287,70.950,7.950,0.062,0.000
'[15:26:30.886 06/04/1996]',-0.328,0.037,0.265,70.950,7.950,0.062,0.000
'[15:26:30.888 06/04/1996]',-0.319,0.056,0.221,70.650,8.175,-0.050,0.000
'[15:26:30.890 06/04/1996]',-0.328,0.074,0.199,70.650,8.175,-0.050,0.000
'[15:26:30.892 06/04/1996]',-0.310,0.092,0.177,70.650,8.175,-0.050,0.000
'[15:26:30.894 06/04/1996]',-0.301,0.111,0.155,70.650,8.175,-0.050,0.000
'[15:26:30.896 06/04/1996]',-0.282,0.111,0.133,70.350,8.475,-0.287,0.000
'[15:26:30.898 06/04/1996]',-0.273,0.129,0.089,70.350,8.475,-0.287,0.000
'[15:26:30.900 06/04/1996]',-0.264,0.129,0.045,70.350,8.475,-0.287,0.000
'[15:26:30.902 06/04/1996]',-0.237,0.129,0.023,70.350,8.475,-0.287,0.000
'[15:26:30.904 06/04/1996]',-0.219,0.147,0.002,69.825,8.875,-0.588,0.000
'[15:26:30.906 06/04/1996]',-0.200,0.147,0.002,69.825,8.875,-0.588,0.000
'[15:26:30.908 06/04/1996]',-0.191,0.147,0.002,69.825,8.875,-0.588,0.000
'[15:26:30.910 06/04/1996]',-0.182,0.147,0.002,69.825,8.875,-0.588,0.000
'[15:26:30.912 06/04/1996]',-0.173,0.147,0.002,69.300,9.350,-0.812,0.000
'[15:26:30.914 06/04/1996]',-0.164,0.147,-0.020,69.300,9.350,-0.812,0.000
'[15:26:30.916 06/04/1996]',-0.164,0.147,-0.020,69.300,9.350,-0.812,0.000
'[15:26:30.918 06/04/1996]',-0.155,0.147,-0.020,69.300,9.350,-0.812,0.000
'[15:26:30.920 06/04/1996]',-0.145,0.147,-0.042,68.775,9.875,-1.050,0.000
'[15:26:30.922 06/04/1996]',-0.155,0.147,-0.020,68.775,9.875,-1.050,0.000
'[15:26:30.924 06/04/1996]',-0.164,0.166,-0.042,68.775,9.875,-1.050,0.000
'[15:26:30.926 06/04/1996]',-0.164,0.166,-0.042,68.775,9.875,-1.050,0.000
'[15:26:30.928 06/04/1996]',-0.155,0.147,-0.042,68.175,10.450,-1.288,0.000
'[15:26:30.930 06/04/1996]',-0.155,0.166,-0.042,68.175,10.450,-1.288,0.000
'[15:26:30.932 06/04/1996]',-0.155,0.147,-0.042,68.175,10.450,-1.288,0.000
'[15:26:30.934 06/04/1996]',-0.145,0.147,-0.042,68.175,10.450,-1.288,0.000
'[15:26:30.936 06/04/1996]',-0.145,0.147,-0.042,67.575,10.975,-1.462,0.000
'[15:26:30.938 06/04/1996]',-0.145,0.147,-0.064,67.575,10.975,-1.462,0.000
'[15:26:30.940 06/04/1996]',-0.145,0.147,-0.042,67.575,10.975,-1.462,0.000
'[15:26:30.942 06/04/1996]',-0.145,0.166,-0.064,67.575,10.975,-1.462,0.000
'[15:26:30.944 06/04/1996]',-0.155,0.166,-0.064,67.125,11.450,-1.575,0.000
'[15:26:30.946 06/04/1996]',-0.155,0.166,-0.086,67.125,11.450,-1.575,0.000
'[15:26:30.948 06/04/1996]',-0.145,0.166,-0.086,67.125,11.450,-1.575,0.000
'[15:26:30.950 06/04/1996]',-0.136,0.147,-0.086,67.125,11.450,-1.575,0.000
'[15:26:30.952 06/04/1996]',-0.145,0.147,-0.086,66.825,11.750,-1.575,0.000
'[15:26:30.954 06/04/1996]',-0.136,0.166,-0.086,66.825,11.750,-1.575,0.000
'[15:26:30.956 06/04/1996]',-0.145,0.166,-0.086,66.825,11.750,-1.575,0.000
'[15:26:30.958 06/04/1996]',-0.136,0.166,-0.086,66.825,11.750,-1.575,0.000
'[15:26:30.960 06/04/1996]',-0.136,0.147,-0.086,66.600,11.925,-1.400,0.000
'[15:26:30.962 06/04/1996]',-0.136,0.166,-0.086,66.600,11.925,-1.400,0.000
'[15:26:30.964 06/04/1996]',-0.145,0.147,-0.086,66.600,11.925,-1.400,0.000
'[15:26:30.966 06/04/1996]',-0.136,0.147,-0.108,66.600,11.925,-1.400,0.000
'[15:26:30.968 06/04/1996]',-0.136,0.147,-0.086,66.300,11.925,-1.050,0.000
'[15:26:30.970 06/04/1996]',-0.136,0.147,-0.108,66.300,11.925,-1.050,0.000
'[15:26:30.972 06/04/1996]',-0.136,0.166,-0.086,66.300,11.925,-1.050,0.000
'[15:26:30.974 06/04/1996]',-0.136,0.147,-0.086,66.300,11.925,-1.050,0.000
'[15:26:30.976 06/04/1996]',-0.136,0.166,-0.086,66.075,11.925,-0.637,0.000
'[15:26:30.978 06/04/1996]',-0.136,0.147,-0.086,66.075,11.925,-0.637,0.000
'[15:26:30.980 06/04/1996]',-0.136,0.147,-0.108,66.075,11.925,-0.637,0.000
'[15:26:30.982 06/04/1996]',-0.136,0.147,-0.108,66.075,11.925,-0.637,0.000
'[15:26:30.984 06/04/1996]',-0.136,0.147,-0.108,65.550,12.100,-0.225,0.000
'[15:26:30.986 06/04/1996]',-0.136,0.147,-0.108,65.550,12.100,-0.225,0.000
'[15:26:30.988 06/04/1996]',-0.136,0.147,-0.108,65.550,12.100,-0.225,0.000
'[15:26:30.990 06/04/1996]',-0.136,0.166,-0.108,65.550,12.100,-0.225,0.000
'[15:26:30.992 06/04/1996]',-0.136,0.166,-0.130,65.250,12.450,0.237,0.000
'[15:26:30.994 06/04/1996]',-0.136,0.147,-0.108,65.250,12.450,0.237,0.000
'[15:26:30.996 06/04/1996]',-0.136,0.147,-0.130,65.250,12.450,0.237,0.000
'[15:26:30.998 06/04/1996]',-0.136,0.147,-0.130,65.250,12.450,0.237,0.000
'[15:26:31.000 06/04/1996]',-0.118,0.147,-0.108,65.025,13.100,0.812,0.000
'[15:26:31.002 06/04/1996]',-0.128,0.147,-0.130,65.025,13.100,0.812,0.000
'[15:26:31.004 06/04/1996]',-0.128,0.147,-0.108,65.025,13.100,0.812,0.000
'[15:26:31.006 06/04/1996]',-0.128,0.147,-0.108,65.025,13.100,0.812,0.000
'[15:26:31.008 06/04/1996]',-0.128,0.147,-0.108,65.025,13.925,1.512,0.000
'[15:26:31.010 06/04/1996]',-0.136,0.147,-0.130,65.025,13.925,1.512,0.000
'[15:26:31.012 06/04/1996]',-0.128,0.147,-0.130,65.025,13.925,1.512,0.000
'[15:26:31.014 06/04/1996]',-0.128,0.147,-0.130,65.025,13.925,1.512,0.000
'[15:26:31.016 06/04/1996]',-0.136,0.166,-0.130,65.325,14.900,2.337,0.000
'[15:26:31.018 06/04/1996]',-0.118,0.166,-0.130,65.325,14.900,2.337,0.000
'[15:26:31.020 06/04/1996]',-0.118,0.147,-0.130,65.325,14.900,2.337,0.000
'[15:26:31.022 06/04/1996]',-0.118,0.147,-0.130,65.325,14.900,2.337,0.000
'[15:26:31.024 06/04/1996]',-0.109,0.147,-0.130,66.075,16.075,3.212,0.000
'[15:26:31.026 06/04/1996]',-0.128,0.147,-0.130,66.075,16.075,3.212,0.000
'[15:26:31.028 06/04/1996]',-0.109,0.147,-0.130,66.075,16.075,3.212,0.000
'[15:26:31.030 06/04/1996]',-0.118,0.147,-0.130,66.075,16.075,3.212,0.000
'[15:26:31.032 06/04/1996]',-0.109,0.147,-0.130,67.425,17.500,4.037,0.000
'[15:26:31.034 06/04/1996]',-0.109,0.147,-0.152,67.425,17.500,4.037,0.000
'[15:26:31.036 06/04/1996]',-0.091,0.147,-0.130,67.425,17.500,4.037,0.000
'[15:26:31.038 06/04/1996]',-0.091,0.147,-0.130,67.425,17.500,4.037,0.000
'[15:26:31.040 06/04/1996]',-0.082,0.147,-0.152,70.350,19.125,4.737,0.000
'[15:26:31.042 06/04/1996]',-0.082,0.147,-0.152,70.350,19.125,4.737,0.000
'[15:26:31.044 06/04/1996]',-0.082,0.147,-0.152,70.350,19.125,4.737,0.000
'[15:26:31.046 06/04/1996]',-0.082,0.147,-0.130,70.350,19.125,4.737,0.000
'[15:26:31.048 06/04/1996]',-0.091,0.147,-0.152,75.075,20.950,5.325,0.000
'[15:26:31.050 06/04/1996]',-0.082,0.147,-0.152,75.075,20.950,5.325,0.000
'[15:26:31.052 06/04/1996]',-0.072,0.147,-0.152,75.075,20.950,5.325,0.000
'[15:26:31.054 06/04/1996]',-0.072,0.129,-0.152,75.075,20.950,5.325,0.000
'[15:26:31.056 06/04/1996]',-0.072,0.147,-0.152,81.150,23.125,5.912,0.000
'[15:26:31.058 06/04/1996]',-0.072,0.147,-0.152,81.150,23.125,5.912,0.000
'[15:26:31.060 06/04/1996]',-0.082,0.129,-0.152,81.150,23.125,5.912,0.000
'[15:26:31.062 06/04/1996]',-0.091,0.147,-0.152,81.150,23.125,5.912,0.000
'[15:26:31.064 06/04/1996]',-0.082,0.147,-0.152,87.225,25.700,6.550,0.000
'[15:26:31.066 06/04/1996]',-0.082,0.129,-0.152,87.225,25.700,6.550,0.000
'[15:26:31.068 06/04/1996]',-0.063,0.129,-0.152,87.225,25.700,6.550,0.000
'[15:26:31.070 06/04/1996]',-0.072,0.129,-0.130,87.225,25.700,6.550,0.000
'[15:26:31.072 06/04/1996]',-0.072,0.129,-0.130,92.250,28.800,7.138,0.000
'[15:26:31.074 06/04/1996]',-0.072,0.129,-0.130,92.250,28.800,7.138,0.000
'[15:26:31.076 06/04/1996]',-0.082,0.129,-0.130,92.250,28.800,7.138,0.000
'[15:26:31.078 06/04/1996]',-0.082,0.129,-0.130,92.250,28.800,7.138,0.000
'[15:26:31.080 06/04/1996]',-0.082,0.129,-0.130,95.775,32.250,7.612,0.000
'[15:26:31.082 06/04/1996]',-0.082,0.129,-0.130,95.775,32.250,7.612,0.000
'[15:26:31.084 06/04/1996]',-0.091,0.129,-0.130,95.775,32.250,7.612,0.000
'[15:26:31.086 06/04/1996]',-0.091,0.129,-0.130,95.775,32.250,7.612,0.000
'[15:26:31.088 06/04/1996]',-0.091,0.129,-0.108,98.475,36.000,7.963,0.000
'[15:26:31.090 06/04/1996]',-0.091,0.129,-0.130,98.475,36.000,7.963,0.000
'[15:26:31.092 06/04/1996]',-0.100,0.111,-0.108,98.475,36.000,7.963,0.000
'[15:26:31.094 06/04/1996]',-0.100,0.111,-0.130,98.475,36.000,7.963,0.000
'[15:26:31.096 06/04/1996]',-0.091,0.111,-0.108,101.175,39.875,8.200,0.000
'[15:26:31.098 06/04/1996]',-0.091,0.111,-0.108,101.175,39.875,8.200,0.000
'[15:26:31.100 06/04/1996]',-0.091,0.111,-0.108,101.175,39.875,8.200,0.000
'[15:26:31.102 06/04/1996]',-0.091,0.111,-0.086,101.175,39.875,8.200,0.000
'[15:26:31.104 06/04/1996]',-0.091,0.111,-0.086,104.100,43.625,8.425,0.000
'[15:26:31.106 06/04/1996]',-0.100,0.111,-0.086,104.100,43.625,8.425,0.000
'[15:26:31.108 06/04/1996]',-0.109,0.111,-0.086,104.100,43.625,8.425,0.000
'[15:26:31.110 06/04/1996]',-0.109,0.111,-0.086,104.100,43.625,8.425,0.000
'[15:26:31.112 06/04/1996]',-0.100,0.111,-0.086,106.800,47.075,8.600,0.000
'[15:26:31.114 06/04/1996]',-0.100,0.092,-0.086,106.800,47.075,8.600,0.000
'[15:26:31.116 06/04/1996]',-0.091,0.092,-0.086,106.800,47.075,8.600,0.000
'[15:26:31.118 06/04/1996]',-0.100,0.092,-0.086,106.800,47.075,8.600,0.000
'[15:26:31.120 06/04/1996]',-0.100,0.111,-0.086,109.125,50.125,8.725,0.000
'[15:26:31.122 06/04/1996]',-0.091,0.111,-0.086,109.125,50.125,8.725,0.000
'[15:26:31.124 06/04/1996]',-0.100,0.092,-0.086,109.125,50.125,8.725,0.000
'[15:26:31.126 06/04/1996]',-0.100,0.092,-0.086,109.125,50.125,8.725,0.000
'[15:26:31.128 06/04/1996]',-0.100,0.092,-0.086,111.075,52.775,8.787,0.000
'[15:26:31.130 06/04/1996]',-0.100,0.092,-0.086,111.075,52.775,8.787,0.000
'[15:26:31.132 06/04/1996]',-0.091,0.092,-0.086,111.075,52.775,8.787,0.000
'[15:26:31.134 06/04/1996]',-0.091,0.092,-0.086,111.075,52.775,8.787,0.000
'[15:26:31.136 06/04/1996]',-0.091,0.092,-0.086,112.575,54.925,8.787,0.000
'[15:26:31.138 06/04/1996]',-0.091,0.092,-0.086,112.575,54.925,8.787,0.000
'[15:26:31.140 06/04/1996]',-0.091,0.092,-0.086,112.575,54.925,8.787,0.000
'[15:26:31.142 06/04/1996]',-0.091,0.092,-0.086,112.575,54.925,8.787,0.000
'[15:26:31.144 06/04/1996]',-0.091,0.092,-0.086,113.925,56.575,8.787,0.000
'[15:26:31.146 06/04/1996]',-0.091,0.092,-0.086,113.925,56.575,8.787,0.000
'[15:26:31.148 06/04/1996]',-0.091,0.092,-0.086,113.925,56.575,8.787,0.000
'[15:26:31.150 06/04/1996]',-0.082,0.092,-0.086,113.925,56.575,8.787,0.000
'[15:26:31.152 06/04/1996]',-0.082,0.092,-0.086,114.975,57.500,8.838,0.000
'[15:26:31.154 06/04/1996]',-0.091,0.092,-0.086,114.975,57.500,8.838,0.000
'[15:26:31.156 06/04/1996]',-0.100,0.074,-0.086,114.975,57.500,8.838,0.000
'[15:26:31.158 06/04/1996]',-0.082,0.074,-0.086,114.975,57.500,8.838,0.000
'[15:26:31.160 06/04/1996]',-0.082,0.074,-0.086,115.875,57.575,8.900,0.000
'[15:26:31.162 06/04/1996]',-0.091,0.074,-0.086,115.875,57.575,8.900,0.000
'[15:26:31.164 06/04/1996]',-0.082,0.092,-0.086,115.875,57.575,8.900,0.000
'[15:26:31.166 06/04/1996]',-0.082,0.092,-0.086,115.875,57.575,8.900,0.000
'[15:26:31.168 06/04/1996]',-0.082,0.074,-0.086,116.325,56.975,8.963,0.000
'[15:26:31.170 06/04/1996]',-0.082,0.074,-0.086,116.325,56.975,8.963,0.000
'[15:26:31.172 06/04/1996]',-0.072,0.074,-0.086,116.325,56.975,8.963,0.000
'[15:26:31.174 06/04/1996]',-0.072,0.074,-0.086,116.325,56.975,8.963,0.000
'[15:26:31.176 06/04/1996]',-0.082,0.074,-0.086,116.400,55.875,8.963,0.000
'[15:26:31.178 06/04/1996]',-0.082,0.074,-0.086,116.400,55.875,8.963,0.000
'[15:26:31.180 06/04/1996]',-0.082,0.074,-0.086,116.400,55.875,8.963,0.000
'[15:26:31.182 06/04/1996]',-0.082,0.074,-0.086,116.400,55.875,8.963,0.000
'[15:26:31.184 06/04/1996]',-0.072,0.074,-0.086,116.175,54.225,8.963,0.000
'[15:26:31.186 06/04/1996]',-0.072,0.074,-0.086,116.175,54.225,8.963,0.000
'[15:26:31.188 06/04/1996]',-0.091,0.074,-0.086,116.175,54.225,8.963,0.000
'[15:26:31.190 06/04/1996]',-0.082,0.074,-0.086,116.175,54.225,8.963,0.000
'[15:26:31.192 06/04/1996]',-0.072,0.074,-0.086,115.650,52.350,9.075,0.000
'[15:26:31.194 06/04/1996]',-0.082,0.074,-0.108,115.650,52.350,9.075,0.000
'[15:26:31.196 06/04/1996]',-0.072,0.074,-0.086,115.650,52.350,9.075,0.000
'[15:26:31.198 06/04/1996]',-0.063,0.074,-0.086,115.650,52.350,9.075,0.000
'[15:26:31.200 06/04/1996]',-0.063,0.074,-0.086,114.825,50.250,9.250,0.000
'[15:26:31.202 06/04/1996]',-0.063,0.074,-0.086,114.825,50.250,9.250,0.000
'[15:26:31.204 06/04/1996]',-0.063,0.074,-0.086,114.825,50.250,9.250,0.000
'[15:26:31.206 06/04/1996]',-0.063,0.074,-0.086,114.825,50.250,9.250,0.000
'[15:26:31.208 06/04/1996]',-0.063,0.074,-0.086,113.700,48.125,9.425,0.000
'[15:26:31.210 06/04/1996]',-0.063,0.074,-0.086,113.700,48.125,9.425,0.000
'[15:26:31.212 06/04/1996]',-0.063,0.074,-0.086,113.700,48.125,9.425,0.000
'[15:26:31.214 06/04/1996]',-0.054,0.074,-0.086,113.700,48.125,9.425,0.000
'[15:26:31.216 06/04/1996]',-0.054,0.074,-0.086,112.125,46.150,9.662,0.000
'[15:26:31.218 06/04/1996]',-0.045,0.074,-0.086,112.125,46.150,9.662,0.000
'[15:26:31.220 06/04/1996]',-0.054,0.056,-0.086,112.125,46.150,9.662,0.000
'[15:26:31.222 06/04/1996]',-0.054,0.056,-0.086,112.125,46.150,9.662,0.000
'[15:26:31.224 06/04/1996]',-0.036,0.074,-0.086,110.250,44.200,9.900,0.000
'[15:26:31.226 06/04/1996]',-0.045,0.056,-0.086,110.250,44.200,9.900,0.000
'[15:26:31.228 06/04/1996]',-0.036,0.056,-0.086,110.250,44.200,9.900,0.000
'[15:26:31.230 06/04/1996]',-0.036,0.056,-0.086,110.250,44.200,9.900,0.000
'[15:26:31.232 06/04/1996]',-0.036,0.056,-0.086,107.550,42.450,10.125,0.000
