0,0.029831975425946122,0.016629176121102457,0.003549870333002855,-0.00938764157110963,-0.02216557451095774,-0.034766692494680895,-0.04717434085142072,-0.059372476809015695,-0.07134569835587101,-0.08307927134663301,-0.09455915479774661,-0.10577202430879894,-0.1167052935695475,-0.12734713393353356,-0.1376864920258085,-0.14771310534021606,-0.15741751580204752,-0.1667910812919505,-0.1758259851182901,-0.18451524342033435,-0.19285271051022293,-0.2008330821824487,-0.20845189700714875,-0.215705535613285,-0.22259121798939865,-0.22910699884898414,-0.235251761094983,-0.2410252074047526,-0.24642784997187625,-0.25146099845775904,-0.25612674619975706,-0.26042795471938074,-0.2643682365951209,-0.2679519367809199,-0.27118411244024476,-0.2740705113561095,-0.276617548993499,-0.27883228430488227,-0.2807223943579292,-0.2822961478529809,-0.2835623776094401,-0.28453045211200517,-0.28521024619836627,-0.28561211096019407,-0.2857468429381384,-0.28562565270092394,-0.2852601328918227,-0.28466222581997047,-0.2838441906839497,-0.2828185705230579,-0.2815981589821459,-0.28019596696425175,-0.27862518924684965,-0.2768991711419677,-0.27503137527629173,-0.2730353485628879,-0.2709246894395517,-0.2687130154518339,-0.2664139312548698,-0.26404099710705153,-0.2616076979365848,-0.2591274130651703,-0.25661338666046685,-0.2540786989717033,-0.25153623839399575,-0.24899867440525356,-0.24647843141940687,-0.24398766359974536,-0.24153823067634297,-0.23914167481042672,-0.23680919854513335,-0.23455164387728264,-0.2323794724801945,-0.2303027471045321,-0.22833111418257282,-0.22647378765873064,-0.2247395340643832,-0.22313665885120407,-0.22167299399548476,-0.22035588688056426,-0.21919219045342117,-0.21818825464530053,-0.21734991905112405,-0.21668250686608842,-0.21619082007094098,-0.2158791358512681,-0.21575120423930652,-0.21581024696564058,-0.2160589574939306,-0.21649950220316985,-0.21713352269177846,-0.21796213918576016,-0.2189859550231145,-0.2202050621781159,-0.22161904779670755,-0.2232270017149574,-0.22502752491120043,-0.2270187388302461,-0.2291982955353589,-0.23156338865341566,-0.2341107650547887,-0.23683673719466183,-0.23973719606702484,-0.24280762473774767,-0.24604311239372958,-0.24943836882649087,-0.25298773930202484,-0.2566852197947674,-0.26052447253566685,-0.2644988418034942,-0.2686013699210781,-0.27282481343457277,-0.27716165940522686,-0.28160414171422055,-0.286144257332758,-0.2907737825475945,-0.295484289085207,-0.3002671600448355,-0.3051136056079744,-0.3100146785332112,-0.3149612893887679,-0.3199442214355035,-0.32495414513962023,-0.32998163234588124,-0.3350171700830819,-0.34005117392891465,-0.3450740009308401,-0.35007596213276,-0.3550473346905471,-0.35997837350906886,-0.3648593224087637,-0.3696804248925702,-0.37443193452019,-0.37910412484358286,-0.383687298929791,-0.3881717985589798,-0.39254801312269477,-0.3968063881926584,-0.40093743379641883,-0.4049317324925274,-0.40877994727441797,-0.412472829276798,-0.4160012253205611,-0.4193560853893909,-0.42252847007637,-0.42550955798640094,-0.42829065313146,-0.4308631924042373,-0.4332187531664905,-0.43534906093980685,-0.4372459972276845,-0.438901607540721,-0.4403081096590566,-0.4414579021243756,-0.4423435729799283,-0.4429579088040001,-0.44329390404718017,-0.4433447706476896,-0.4431039479199698,-0.4425651127393388,-0.441722190028158,-0.4405693635228393,-0.439101086807093,-0.43731209461145454,-0.43519741437223297,-0.4327523780264246,-0.42997263401316455,-0.42685415945777117,-0.42339327252125225,-0.41958664489243,-0.4154313143802407,-0.4109246975547508,-0.4060646023989162,-0.4008492409367038,-0.39527724177771945,-0.38934766250562775,-0.38306000186394823,-0.3764142117066462,-0.36941070864719205,-0.36205038531825284,-0.3543346211878995,-0.3462652929005672,-0.3378447840737072,-0.32907599446025315,-0.31996234843713756,-0.3105078028127074,-0.3007168538958216,-0.29059454373260185,-0.2801464654674388,-0.26937876782360015,-0.25829815864726474,-0.24691190742102057,-0.23522784671106037,-0.22325437255750083,-0.21100044376233998,-0.1984755799863597,-0.18568985862557222,-0.17265391048678616,-0.1593789142285364,-0.14587658949317134,-0.13215918872158067,-0.11823948769493246,-0.10413077479046909,-0.08984683888914782,-0.07540195593131752,-0.060810874169020014,-0.04608879811237156,-0.03125137112207492,-0.016314656654966803,-0.0012951182203547482,0.01379040193933164,0.0289247054711071,0.044090261815869836,0.05926923332617512,0.0744435015652426,0.08959469479115012,0.10470421658952483,0.11975327557644949,0.1347229161207275,0.14959405006407,0.16434748938612342,0.17896397972665534,0.1934242346953276,0.2077089709207362,0.221798943766573,0.2356749836156496,0.2493180326335408,0.2627091819386237,0.2758297090895977,0.2886611157822666,0.30118516565363834,0.3133839221048628,0.3252397860521587,0.3367355335048398,0.3478543528665363,0.35857988186032874,0.36889624398407084,0.37878808440037015,0.3882406051554924,0.39723959961634014,0.4057714860220619,0.4138233400510961,0.421382926295454,0.4284387285310011,0.4349799786880832,0.44099668443749124,0.44647965529597927,0.4514205271498705,0.45581178511435855,0.4596467846612073,0.46291977093621345,0.4656258961791027,0.4677612351766372,0.46932279869693266,0.4703085448458003,0.4707173882814836,0.470549207245175,0.46980484838366954,0.4684861293335485,0.46659583902792323,0.46413773570046213,0.4611165425784589,0.4575379412577424,0.45340856275186214,0.44873597622142747,0.4435286754048017,0.4377960627760656,0.43154843145930705,0.424796944939615,0.4175536146237467,0.40983127530965086,0.4016435586287727,0.39300486453395606,0.38393033091527035,0.3744358014312539,0.3645377916438628,0.35425345354527726,0.3436005385692158,0.3325973591893864,0.32126274921361186,0.3096160228791688,0.2976769328553238,0.2854656272699393,0.27300260588133496,0.260308675504516,0.24740490479560628,0.23431257851601484,0.22105315141436865,0.20764820185915334,0.1941193853481903,0.1804883880294516,0.1667768803692256,0.15300647108311,0.13919866143238874,0.12537480000421655,0.11155603810713736,0.09776328589826748,0.08401716934424479,0.0703379881291097,0.05674567462841409,0.04325975404633533,0.02989930579489693,0.016682926207834237,0.0036286926917371834,-0.009245870604251546,-0.021923825537759054,-0.03438885106742383,-0.04662527261007385,-0.05861808960276582,-0.07035300123190347,-0.08181643027893476,-0.09299554502064655,-0.10387827914165426,-0.11445334963616782,-0.12471027266856854,-0.13463937735921877,-0.1442318174883343,-0.1534795811315965,-0.16237549822821248,-0.17091324606953803,-0.17908735271411932,-0.1868931983534081,-0.19432701464472532,-0.20138588202252436,-0.20806772501976453,-0.21437130564918702,-0.22029621488535,-0.2258428622814812,-0.23101246377467222,-0.23580702774961448,-0.2402293394199825,-0.2442829435743811,-0.24797212574523,-0.2513018918723315,-0.2542779465281719,-0.2569066697711435,-0.25919509271279106,-0.26115087189907094,-0.26278226259241305,-0.2640980910269846,-0.26510772571737334,-0.2658210479108228,-0.26624842126585874,-0.26640066083401664,-0.2662890014325266,-0.26592506550488754,-0.26532083055685773,-0.26448859624594423,-0.2634409512093443,-0.2621907397220513,-0.26075102826864205,-0.2591350721043979,-0.25735628188742865,-0.2554281904687148,-0.2533644199179258,-0.2511786488514768,-0.24888458012826012,-0.24649590898063947,-0.2440262916454016,-0.24148931455785086,-0.2388984641772606,-0.23626709751411115,-0.2336084134235794,-0.23093542472952633,-0.22826093125585234,-0.22559749384618466,-0.22295740943281137,-0.22035268719009413,-0.21779502579651097,-0.21529579182796596,-0.21286599930195815,-0.21051629038654385,-0.20825691728295448,-0.20609772528890158,-0.20404813705114214,-0.20211713801678802,-0.20031326309047418,-0.19864458450212066,-0.1971187008893259,-0.1957427275933635,-0.1945232881564006,-0.19346650700194798,-0.19257800328740832,-0.19186288592233608,-0.19132574973809752,-0.19097067278843832,-0.19080121476629786,-0.19082041652202664,-0.19103080065078815,-0.19143437310716105,-0.19203262581960182,-0.1928265402888001,-0.19381659214077487,-0.1950027565951489,-0.19638451482173366,-0.19796086116150766,-0.19973031115987125,-0.2016909103442802,-0.20384024370446543,-0.2061754458512071,-0.2086932118022942,-0.21138980832590062,-0.2142610858022187,-0.2173024905830112,-0.2205090777914709,-0.22387552448098402,-0.2273961431118219,-0.23106489533120958,-0.2348754059970715,-0.23882097735621757,-0.2428946033390043,-0.2470889839693698,-0.2513965398390468,-0.2558094265597353,-0.26031954916579236,-0.2649185764837283,-0.2695979554287391,-0.2743489251477613,-0.2791625309928769,-0.28402963835580497,-0.28894094632848133,-0.29388700110728805,-0.2988582091317458,-0.3038448500048028,-0.3088370891722532,-0.3138249902860018,-0.3187985272549288,-0.32374759605349573,-0.3286620262926208,-0.3335315925020293,-0.3383460251464612,-0.34309502145660514,-0.3477682560818732,-0.352355391512657,-0.35684608829632714,-0.36123001514129505,-0.3654968589437846,-0.3696363347148772,-0.3736381954463448,-0.3774922420050302,-0.3811883330782606,-0.3847163951348225,-0.38806643242681654,-0.39122853711633726,-0.39419289955988396,-0.39694981873121743,-0.3994897128089333,-0.4018031300001218,-0.4038807596261419,-0.40571344344969906,-0.40729218725706,-0.4086081727486783,-0.40965276976120374,-0.4104175488060308,-0.4108942939265828,-0.4110750158972963,-0.4109519657607162,-0.4105176486687668,-0.40976483800486047,-0.40868658978329525,-0.4072762573143212,-0.4055275061043056,-0.40343432895555026,-0.400991061234008,-0.3981923962717398,-0.3950334008612724,-0.3915095307875277,-0.3876166463449141,-0.3833510278043023,-0.3787093907970799,-0.3736889015569977,-0.36828719194541354,-0.3625023742072259,-0.3563330554161965,-0.34977835153809655,-0.34283790102560086,-0.33551187789832637,-0.32780100428433845,-0.3197065623561918,-0.3112304055639847,-0.3023749691092818,-0.2931432796340649,-0.2835389640544222,-0.27356625743945134,-0.26323000989016193,-0.2525356924123037,-0.24148940172554606,-0.2300978639150582,-0.2183684368922863,-0.20630911167765725,-0.19392851245990148,-0.18123589533819037,-0.16824114570828583,-0.15495477430220103,-0.14138791184141108,-0.12755230222996206,-0.1134602942858728,-0.09912483206397606,-0.0845594437624342,-0.06977822915222061,-0.05479584552762897,-0.039627492229289095,-0.02428889373904653,-0.00879628130258645,0.0068336269024352764,0.02258364698109944,0.038436151897931176,0.05437309544203538,0.07037603755589093,0.08642617095323059,0.10250434899182395,0.11859111480426612,0.13466673164141588,0.15071121433714066,0.1667043618384477,0.18262579078185912,0.19845497006113186,0.2141712562927046,0.229753930109114,0.24518223323593163,0.2604354062770588,0.2754927271010407,0.2903335497401184,0.3049373437401187,0.3192837338867208,0.333352540211889,0.3471238181873866,0.36057789901882464,0.37369542994001503,0.38645741439203785,0.3988452519751032,0.4108407780735202,0.4224263030584324,0.43358465096805304,0.4442991975580545,0.454553907615544,0.46433337144015246,0.4736228403986377,N,,,,,,,,,,,,,,,,,,,,,,,,,,,,,,,,,,,,,,,,,,,,,,,,,,,,,,,,,,,,,,,,,,,,,,,,,,,,,,,,,,,,,,,,,,,,,,,,,,,,,,,,,,,,,,,,,,,,,,,,,,,,,,,,,,,,,,,,,,,,,,,,,,,,,,,,,,,,,,,,,,,,,,,,,,,,,,,,,,,,,,,,,,,,,,,,,,,,,,,,,,,,,,,,,,,,,,,,,,,,,,,,,,,,,,,,,,,,,,,,,,,,,,,,,,,,,,,,,,,,,,,,,,,,,,,,,,,,,,,,,,,,,,,,,,,,,,,,,,,,,,,,,,,,,,,,,,,,,,,,,,,,,,,,,,,,,,,,,,,,,,,,,,,,,,,,,,,,,,,,,,,,,,,,,,,,,,,,,,,,,,,,,,,,,,,,,,,,,,,,,,,,,,,,,,,,,,,,,,,,,,,,,,,,,,,,,,,,,,,,,,,,,,,,,,,,,,,,,,,,,,
1,-0.09015449967095808,-0.10351269441100254,-0.11670162627530235,-0.12970356456772672,-0.14250137540021968,-0.1550785527737304,-0.1674192479293729,-0.17950829693115922,-0.19133124642698926,-0.20287437752142676,-0.21412472771330202,-0.22507011087058068,-0.23569913520627853,-0.24600121921651044,-0.2559666055712096,-0.26558637297001725,-0.27485244595898917,-0.2837576026865676,-0.29229548059394417,-0.3004605800538851,-0.3082482659637591,-0.31565476729186526,-0.3226771745967816,-0.3293134355581373,-0.33556234854898925,-0.3414235542732328,-0.34689752551044994,-0.35198555502769435,-0.356689741709502,-0.361012974951133,-0.3649589173784899,-0.36853198597388664,-0.37173733167639134,-0.3745808175143811,-0.3770689953395109,-0.3792090812439316,-0.3810089297366338,-0.38247700675138085,-0.3836223615750346,-0.3844545977972741,-0.3849838433712871,-0.3852207198626971,-0.38517631097139593,-0.3848621304197326,-0.384290089293013,-0.38347246291050574,-0.3824218573121465,-0.3811511754530792,-0.37967358319189976,-0.3780024751536117,-0.37615144055682687,-0.3741342291006908,-0.3719647169971326,-0.36965687322328133,-0.36722472607104006,-0.3646823300741474,-0.36204373338577134,-0.35932294567106493,-0.3565339065789448,-0.3536904548587534,-0.3508062981828234,-0.3478949837302029,-0.3449698695855653,-0.34204409700712113,-0.3391305636142283,-0.3362418975422145,-0.33339043261140094,-0.3305881845562481,-0.3278468283559474,-0.32517767670195735,-0.32259165963388775,-0.32009930537248915,-0.3177107223757082,-0.315435582639496,-0.31328310625956923,-0.3112620472665809,-0.3093806807455646,-0.3076467912446006,-0.30606766246550254,-0.30465006822296403,-0.3034002646654352,-0.3023239837583444,-0.30142642802708924,-0.30071226655205135,-0.3001856322083996,-0.2998501201393405,-0.2997087874368019,-0.2997641539951706,-0.3000182045115256,-0.3004723916080221,-0.3011276400346965,-0.3019843519005523,-0.3030424128954488,-0.3043011994740575,-0.30575958695382216,-0.30741595846626485,-0.3092682147202341,-0.3113137845469835,-0.3135496361717011,-0.31597228914007464,-0.31857782685473435,-0.32136190969296985,-0.32431978864611843,-0.32744631940103774,-0.3307359768182467,-0.334182869784549,-0.3377807563816761,-0.3415230592881863,-0.3454028813730758,-0.3494130214673425,-0.3535459902550488,-0.3577940261955909,-0.36214911143956613,-0.36660298773634376,-0.3711471722797502,-0.3757729734026621,-0.38047150609101854,-0.38523370733166196,-0.3900503512505423,-0.3949120639563434,-0.3998093380716551,-0.4047325469844322,-0.40967195878850415,-0.41461774983457966,-0.41956001788704894,-0.42448879494208885,-0.42939405969952343,-0.4342657496299585,-0.43909377265114685,-0.44386801848696505,-0.4485783697163726,-0.45321471246540984,-0.4577669467665733,-0.46222499667087497,-0.4665788201342836,-0.47081841864493895,-0.474933846623641,-0.47891522068926884,-0.4827527288222364,-0.4864366394049946,-0.48995731017489486,-0.49330519717419663,-0.49647086372348137,-0.4994449893919748,-0.5022183789904049,-0.504781971662764,-0.5071268501073742,-0.5092442499104055,-0.5111255690139757,-0.5127623773806794,-0.5141464268775663,-0.5152696613612447,-0.5161242269735049,-0.5167024826879185,-0.5169970111189786,-0.5170006295716387,-0.5167064013256963,-0.5161076471727637,-0.5151979572074072,-0.5139712028496417,-0.5124215490789213,-0.5105434668691756,-0.5083317458047026,-0.5057815068406969,-0.502888215168927,-0.4996476931570081,-0.4960561333373742,-0.49211011141719874,-0.4878065992634704,-0.4831429778120207,-0.4781170498658463,-0.47272705275288557,-0.46697167078726287,-0.46085004746461444,-0.4543617973493397,-0.4475070176262397,-0.44028629925489154,-0.4327007376446557,-0.4247519428054983,-0.41644204895370335,-0.40777372351018937,-0.3987501754015149,-0.3893751626188512,-0.3796529990222367,-0.369588560330941,-0.3591872892083847,-0.3484551994030718,-0.337398878946364,-0.3260254923565852,-0.3143427817612955,-0.30235906690787717,-0.29008324407783037,-0.2775247838647935,-0.26469372773065525,-0.25160068330937635,-0.23825681847587232,-0.2246738541472743,-0.21086405574488237,-0.1968402233066448,-0.1826156802908701,-0.16820426106063643,-0.15362029699623111,-0.13887860124248827,-0.12399445214911217,-0.10898357541241617,-0.09386212488397723,-0.07864666206710659,-0.06335413437181282,-0.048001852153131117,-0.032607464514493326,-0.01718893390409719,-0.001764509577844241,0.01364730003406839,0.029027756056675992,0.044357918957807566,0.05961867931568178,0.07479078951399952,0.08985489633780451,0.10479157440952806,0.11958136037038263,0.13420478773302916,0.14864242235637973,0.16287489847271044,0.17688295517143518,0.19064747325463835,0.20414951239562792,0.21737034851973544,0.23029151130890932,0.24289482173461563,0.2551624295335533,0.2670768505388259,0.2786210037702692,0.28977824818415265,0.3005324189914367,0.31086786347029083,0.32076947620088747,0.330222733628309,0.33921372783739345,0.34772919942219094,0.35575656933683386,0.3632839696093141,0.3703002728019146,0.37679512012283467,0.3827589481065429,0.3881830137676801,0.393059418123396,0.3973811279946365,0.40114199601202,0.40433677874435525,0.40696115286308787,0.40901172927538276,0.4104860651762441,0.4113826739645103,0.4117010329644974,0.4114415889158793,0.41060576121319387,0.40919594287096367,0.4072154991846821,0.40466876407372715,0.4015610341096056,0.39789856023223813,0.39368853715441865,0.388939090466783,0.38365926147053553,0.37785898976965715,0.3715490936572112,0.3647412483414154,0.35744796206945173,0.3496825502125631,0.34145910737879026,0.3327924776255968,0.32369822285302474,0.3141925894654997,0.3042924733938041,0.29401538356868334,0.283379403941399,0.2724031541572839,0.26110574899551386,0.24950675668559805,0.23762615621099656,0.2254842937206254,0.2131018381734635,0.20049973633009666,0.18769916719955293,0.174721496065151,0.16158822822554045,0.14832096257794927,0.13494134516252634,0.12147102279789262,0.10793159694462523,0.09434457791703937,0.08073133955134792,0.06711307445012737,0.05351074992862897,0.03994506476571596,0.026436406845894676,0.013004811795530372,-0.0003300772700915969,-0.01354904879123954,-0.026633360519669396,-0.03956477589347498,-0.05232559893042266,-0.06489870756389511,-0.07726758536569735,-0.08941635158558085,-0.10132978942447306,-0.11299337247821765,-0.12439328930835679,-0.13551646608817441,-0.14635058726989186,-0.15688411424874033,-0.16710630202199878,-0.17700721382532417,-0.18657773371519296,-0.19580957708874794,-0.20469529915333765,-0.2132283013448848,-0.2214028356821902,-0.22921400706454964,-0.2366577735398796,-0.24373094456080271,-0.25043117723755004,-0.2567569706161441,-0.2627076580287713,-0.2682833975551056,-0.2734851606272571,-0.2783147188311202,-0.2827746289741418,-0.28686821647994964,-0.290599557163419,-0.2939734574596222,-0.29699543319619015,-0.2996716869849081,-0.30200908429241813,-0.30401512825803256,-0.3056979333384662,-0.30706619785433337,-0.30812917550998303,-0.3088966459726498,-0.30937888460817237,-0.3095866314617454,-0.30953105956406207,-0.309223742653337,-0.30867662241258537,-0.3079019753117709,-0.3069123791333248,-0.3057206792636642,-0.3043399548392205,-0.30278348483000267,-0.30106471413948116,-0.2991972198072224,-0.2971946774058812,-0.2950708277149719,-0.292839443743618,-0.2905142981756848,-0.28810913131321564,-0.2856376195869493,-0.2831133446921475,-0.28054976340281007,-0.27796017811672896,-0.2753577081840583,-0.27275526207245576,-0.2701655104222988,-0.26760086004457756,-0.2650734289113224,-0.26259502218617087,-0.2601771093421635,-0.25783080241203665,-0.2555668354104687,-0.2533955449594871,-0.25132685214075096,-0.2493702455943356,-0.24753476588291987,-0.24582899113842568,-0.24426102400264746,-0.24283847986896442,-0.2415684764314069,-0.24045762454274822,-0.23951202037153496,-0.23873723884122822,-0.23813832834060683,-0.2377198066998613,-0.23748565842056352,-0.23743933314142412,-0.23758374532499096,-0.23792127515069852,-0.23845377058796194,-0.23918255061502317,-0.24010840955531512,-0.2412316225031518,-0.24255195179205305,-0.24406865444837736,-0.24578049058762083,-0.24768573271954183,-0.24978217590903903,-0.25206714872723945,-0.25453752494666404,-0.25718973594581096,-0.2600197837634327,-0.2630232547269743,-0.26619533360614084,-0.2695308182593769,-0.2730241347103161,-0.27666935257156217,-0.28046020076729145,-0.2843900835280749,-0.2884520965926732,-0.29263904352677944,-0.29694345211354595,-0.3013575908050253,-0.30587348518505225,-0.31048293436584845,-0.3151775272869295,-0.3199486589141953,-0.3247875462814467,-0.32968524428048807,-0.33463266116744833,-0.33962057379840854,-0.34463964254956764,-0.34968042583580056,-0.35473339421071953,-0.3597889440865533,-0.36483741105332873,-0.3698690827309918,-0.37487421115832487,-0.37984302477961107,-0.3847657400283794,-0.38963257245776506,-0.3944337474360879,-0.39915951048216364,-0.40380013724933,-0.4083459431139444,-0.4127872923934183,-0.4171146072768483,-0.4213183764866543,-0.4253891636349129,-0.4293176153049249,-0.4330944689477438,-0.4367105606242733,-0.4401568325697553,-0.44342434061649916,-0.4465042615658875,-0.4493879005489195,-0.45206669836389446,-0.45453223882726795,-0.4567762562204359,-0.45879064287123833,-0.4605674568632983,-0.46209892990055845,-0.4633774753880613,-0.46439569674959413,-0.46514639596223484,-0.4656225823157154,-0.46581748143713675,-0.4657245445966849,-0.46533745827824413,-0.46465015401253695,-0.46365681849131835,-0.4623519039670605,-0.46073013891986014,-0.4587865389738778,-0.4565164180543805,-0.45391539977158357,-0.4509794290040413,-0.44770478364547595,-0.44408808648011666,-0.44012631715844375,-0.43581682424176993,-0.4311573372662147,-0.42614597877124755,-0.4207812762579963,-0.415062174049535,-0.4089880449964594,-0.4025587019540165,-0.395774408984025,-0.38863589225065837,-0.38114435054527046,-0.37330146535590875,-0.3651094104372869,-0.35657086086256856,-0.3476890014952835,-0.3384675347900098,-0.32891068787598854,-0.31902321891086916,-0.3088104226449457,-0.2982781351035903,-0.28743273734974645,-0.27628115832868033,-0.2648308767418956,-0.253089921842704,-0.24106687307844926,-0.22877085854246743,-0.2162115521715815,-0.20339916961938775,-0.1903444628146167,-0.17705871326462264,-0.16355372410498026,-0.1498418108485,-0.1359357908470178,-0.1218489715292781,-0.10759513741960752,-0.09318853588947401,-0.07864386164609066,-0.06397624001127761,-0.04920120899625562,-0.03433470013754441,-0.01939301811448321,-0.004392819217895274,0.010648911305710879,0.025714883052024365,0.040787525370000036,0.05584901331216202,0.07088129458705007,0.08586611751260505,0.10078505992936306,0.1156195589921807,0.13035094178850884,0.14496045676369998,0.1594293059061739,0.17373867761266684,0.18786978017086434,0.20180387581848416,0.2155223153185544,0.22900657296584984,0.2422382819467273,0.25519926998713777,0.2678715952119158,0.2802375821217214,0.29227985759486347,0.30398138682811,0.31532550912753615,0.32629597345193945,0.33687697360710706,0.3470531829915328,0.35680978879927244,0.36613252558489834,0.3750077080868193,0.38342226320212563,0.3913637610159209,0.39882044479368767,0.4057812598359782,0.41223588109213355,0.41817473944771394,0.42358904661221936,0.42847081852063756,0.43281289715339105,0.4366089706969258,0.439853591982483,0.4425421951295946,0.44467111031174544,0.44623757657874197,0.44723975268739424,0.447676725886003,0.4475485185932266,0.4468560929298199,0.4456013530795248,0.44378714545208053,0.44141725661667497,0.4384964089875045,0.43503025425913133,0.43102536459250934,0.42648922155592334,0.42143020284080485,0.4158575667873759,0.40978143475692674,0.4032127713860988,0.3961633627652653,0.3886457925938468,0.380673416372928,0.37226033369998085,0.3634213587350246,0.3541719889148141,0.34452837200141617,0.33450727155885474,0.3241260309539594,0.3134025359813347,0.30235517622072383,0.29100280523877486,0.27936469974160427,0.26746051778340074,0.2553102561476573,0.24293420702358184,0.23035291408940808,0.21758712810860062,0.20465776215957518,0.19158584663002595,0.17839248409480055,0.1650988041870682,0.1517259185861672,0.1382948762548649,0.12482661904266808,0.11134193775909136,0.09786142883415207,0.08440545169293436,0.07099408695289301,0.05764709553722288,0.04438387880930598,0.031223439839240124,0.018184345888814606,0.005284692182600813,-0.007457932951626932,-0.0200264814780175,-0.03240447751070939,-0.0445760475819941,-0.056525949253858274,-0.06823959799575345,-0.07970309227524384,-0.09090323682905092,-0.10182756406839587,-0.1124643535596208,-0.12280264954013463,-0.13283227644947634,-0.14254385244813686,-0.1519288008939982,-0.16097935977292235,-0.16968858910108034,-0.17805037630413614,-0.1860594395675397,-0.19371132917265868,-0.20100242685268624,-0.20792994319224992,-0.21449191308775775,-0.2206871893084338,-0.22651543421696543,-0.2319771096956817,-0.2370734653118715,-0.2418065247727476,-0.24617907073715,-0.25019462804095716,-0.2538574453838264,-0.2571724755406991,-0.2601453541763642,-0.2627823773323622,-0.26509047764759697,-0.26707719938878427,-0.268750672379955,-0.2701195849104,-0.2711931556902881,-0.2719811049331985,-0.2724936246551847,-0.2727413482725489,-0.27273531957356134,-0.27248696114914495,-0.2720080423761819,-0.27131064703853086,-0.2704071406607544,-0.26931013763320427,-0.26803246821261756,-0.2665871454783118,-0.26498733232237487,-0.2632463085619839,-0.26137743826749654,-0.2593941373884456,-0.2573098417439991,-0.25513797543922884,-0.2528919197692429,-0.2505849826724117,-0.24823036879413482,-0.24584115022634742,-0.24343023798912253,-0.24101035431509374,-0.23859400579141252,-0.23619345741308337,-0.23382070760082393,-0.23148746423058708,-0.22920512171284657,-0.22698473915234607,-0.2248370196157441,-0.22277229053510425,-0.22080048527574955,-0.21893112589485683,-0.2171733071141043,-0.21553568152755553,-0.214026446062906,-0.21265332970903872,-0.21142358251864102,-0.21034396589246387,-0.2094207441454007,-0.20865967734199234,-0.20806601538226258,-0.20764449332483212,-0.20739932793894642,-0.20733421546969497,-0.20745233059423893,-0.2077563265510418,-0.2082483364231725,-0.20892997554075274,-0.20980234495826797,-0.2108660359738366,-0.2121211356634645,-0.21356723338568487,-0.21520342820074137,-0.21702833716504924,-0.2190401044720425,-0.22123641138985975,-0.22361448693266087,-0.22617111922300054,-0.22890266751313743,-0.23180507480251672,-0.23487388097034773,-0.23810423637436384,-0.24149091588978944,-0.24502833333145635,-0.24871055618062987,-0.25253132057454275,-0.25648404654041257,-0.260561853414486,-0.26475757535967603,-0.26906377694124634,-0.27347276875037535,-0.2779766230148049,-0.28256718910248285,-0.28723610888275586,-0.29197483195545615,-0.2967746307087239,-0.3016266151291015,-0.3065217473471544,-0.311450855944297,-0.3164046499832307,-0.32137373267976765,-0.3263486147050346,-0.33131972716513725,-0.3362774342460747,-0.3412120454639548,-0.34611382752941017,-0.35097301588824753,-0.35577982593132534,-0.3605244638134481,-0.365197136896202,-0.3697880638960485,-0.37428748476067525,-0.3786856702436954,-0.38297293121114834,-0.38713962776406735,-0.39117617819268397,-0.39507306772172385,-0.3988208570731104,-0.4024101909342605,-0.40583180636591093,-0.4090765411308203,-0.41213534197743945,-0.4149992729584558,-0.41765952380597776,-0.4201074183333991,-0.4223344228866529,-0.4243321549275664,-0.4260923918051337,-0.427607079729896,-0.4288683429865229,-0.4298684934371525,-0.43060004032496846,-0.43105570034881746,-0.4312284080030836,-0.4311113262046934,-0.4306978572057302,-0.42998165376115904,-0.4289566305333077,-0.42761697573316804,-0.42595716298538644,-0.423971963383452,-0.4216564577040176,-0.4190060487625067,-0.4160164738952068,-0.4126838175435317,-0.4090045239025723,-0.4049754095913553,-0.4005936763090551,-0.39585692344013695,-0.39076316055330085,-0.38531081973368053,-0.3794987677106012,-0.3733263177527055,-0.3667932412729694,-0.3598997790695576,-0.35264665215930513,-0.34503507217903484,-0.33706675129412755,-0.3287439115333525,-0.3200692935131534,-0.31104616454284895,-0.30167832605542827,-0.2919701202744604,-0.281926436073574,-0.2715527140197413,-0.2608549505435451,-0.24983970114464296,-0.23851408259432041,-0.22688577413842095,-0.21496301765333778,-0.2027546166707924,-0.1902699342474071,-0.17751888970200977,-0.16451195418893985,-0.15126014503325894,-0.13777501881573587,-0.12406866324589785,-0.1101536878054456,-0.09604321309817404,-0.08175085890277939,-0.067290730976721,-0.05267740660621287,-0.03792591885234545,-0.023051739501772084,-0.008070760782055484,0.007000724148196625,0.022146041971525105,0.0373481612354413,0.05258971556945615,0.06785302807402704,0.08312013689195916,0.09837282192118987,0.1135926325820725,0.12876091659012737,0.1438588497247503,0.1588674665502189,0.17376769200725165,0.18854037381805758,0.2031663156757765,0.21762631116261524,0.23190117831002002,0.24597179472797506,0.2598191332462458,0.2734242979869341,0.2867685607631773,0.29983339771067596,0.3126005260773663,0.325051941089447,0.3371699527971299,0.34893722280465217,0.3603368007983479,0.3713521607889492,0.3819672369782366,0.39216645915164733,0.4019347874958696,0.4112577467456164,0.4201214595645521,0.42851267905526225,0.4364188202876482,0.4438279907444218,0.4507290195890463,0.4571114856530992,0.4629657440362881,0.4682829512275116,0.4730550886671602,0.4772749846630372,0.4809363345698595,0.48403371916343996,0.4865626211568256,0.4885194397948776,0.48990150345484956,0.4907070801977365,0.4909353862323194,0.49058659224757895,0.4896618275634248,0.4881631820662311,0.4860937059129875,0.48345740698637396,0.48025924608260295,0.4765051298319487,0.4722019013689427,0.46735732876764086,0.46198009125391865,0.456079763218093,0.449666796065236,0.44275249794452337,0.43534901140266585,0.4274692890193949,0.41912706709528486,0.4103368374635099,0.4011138174921849,0.3914739183419871,0.38143371154976724,0.3710103940217531,0.3602217515312703,0.3490861208203318,0.3376223504084766,0.3258497602204156,0.3137881001475789,0.3014575076528288,0.2888784645262242,0.27607175291133235,0.26305841072974023,0.24985968662434163,0.23649699453717685,0.22299186804840973,0.20936591461086082,0.19564076980479547,0.18183805172966536,0.16797931565752558,0.15408600907404482,0.14017942721220258,0.12628066917058836,0.11241059472436711,0.0985897819523245,0.08483848579205634,0.07117659762219332,0.057623605976948294,0.044198558497075574,0.030920025193446502,0.017806063080834992,0.0048741822563941415,-0.007858686487573914,-0.02037622244474532,-0.03266274411590552,-0.044703236605090534,-0.056483377216308576,-0.06798955919565844,-0.07920891358219592,-0.09012932912377201,-0.100739470211325,-0.11102879281049426,-0.12098755838946483,-0.1306068458305744,-0.13987856130537216,-0.14879544611651765,-0.15735108252975963,-0.165539897605181,-0.17335716502129112,-0.1807990048987183,-0.18786238164691477,-0.19454509985329257,-0.20084579823378365,-0.20676394168670173,-0.21229981150938124,-0.2174544938271787,-0.22222986627670968,-0.22662858300378594,-0.23065405805235814,-0.23431044720887387,-0.23760262835350857,-0.24053618038045568,-0.243117360762137,-0.24535308182633564,-0.24725088581131693,-0.2488189187793084,-0.25006590348083546,-0.2510011112530694,-0.2516343330268806,-0.2519758495286106,-0.2520364007725581,-0.2518271549300812,-0.25135967664994147,-0.2506458949099996,-0.24969807048748643,-0.24852876312870026,-0.24715079849141913,-0.24557723493703126,-0.2438213302542706,-0.24189650839304483,-0.23981632628570154,-0.2375944408419059,-0.23524457620805234,-0.23278049137152437,-0.23021594817597227,-0.2275646798090412,-0.2248403598243918,-0.22205657175873939,-0.21922677940526947,-0.2163642978095225,-0.2134822650550895,-0.21059361489915485,-0.20771105030981463,-0.20484701795516125,-0.20201368369323436,-0.19922290910596055,-0.19648622911122152,-0.1938148306798584,-0.19121953268123829,-0.18871076688128754,-0.1862985601159524,-0.18399251765834926,-0.1818018077941446,-0.17973514762036016,-0.17780079008282448,-0.17600651226288935,-0.17435960491967475,-0.1728668632926908,-0.1715345791625867,-0.1703685341519699,-0.16937399424029959,-0.1685557054765631,-0.16791789088192868,-0.16746424852700084,-0.16719795076101687,-0.16712164457638487,-0.16723745309261115,-0.16754697812625105,-0.16805130380299124,-0.1687510011810956,-0.16964613386283106,-0.17073626455133167,-0.17202046249783481,-0.17349731180211614,-0.17516492053905297,-0.1770209306592999,-0.1790625285962485,-0.18128645653579759,-0.18368902431770087,-0.1862661219013563,-0.18901323230766512,N
2,-0.026633360519669396,-0.03956477589347498,-0.05232559893042266,-0.06489870756389511,-0.07726758536569735,-0.08941635158558085,-0.10132978942447306,-0.11299337247821765,-0.12439328930835679,-0.13551646608817441,-0.14635058726989186,-0.15688411424874033,-0.16710630202199878,-0.17700721382532417,-0.18657773371519296,-0.19580957708874794,-0.20469529915333765,-0.2132283013448848,-0.2214028356821902,-0.22921400706454964,-0.2366577735398796,-0.24373094456080271,-0.25043117723755004,-0.2567569706161441,-0.2627076580287713,-0.2682833975551056,-0.2734851606272571,-0.2783147188311202,-0.2827746289741418,-0.28686821647994964,-0.290599557163419,-0.2939734574596222,-0.29699543319619015,-0.2996716869849081,-0.30200908429241813,-0.30401512825803256,-0.3056979333384662,-0.30706619785433337,-0.30812917550998303,-0.3088966459726498,-0.30937888460817237,-0.3095866314617454,-0.30953105956406207,-0.309223742653337,-0.30867662241258537,-0.3079019753117709,-0.3069123791333248,-0.3057206792636642,-0.3043399548392205,-0.30278348483000267,-0.30106471413948116,-0.2991972198072224,-0.2971946774058812,-0.2950708277149719,-0.292839443743618,-0.2905142981756848,-0.28810913131321564,-0.2856376195869493,-0.2831133446921475,-0.28054976340281007,-0.27796017811672896,-0.2753577081840583,-0.27275526207245576,-0.2701655104222988,-0.26760086004457756,-0.2650734289113224,-0.26259502218617087,-0.2601771093421635,-0.25783080241203665,-0.2555668354104687,-0.2533955449594871,-0.25132685214075096,-0.2493702455943356,-0.24753476588291987,-0.24582899113842568,-0.24426102400264746,-0.24283847986896442,-0.2415684764314069,-0.24045762454274822,-0.23951202037153496,-0.23873723884122822,-0.23813832834060683,-0.2377198066998613,-0.23748565842056352,-0.23743933314142412,-0.23758374532499096,-0.23792127515069852,-0.23845377058796194,-0.23918255061502317,-0.24010840955531512,-0.2412316225031518,-0.24255195179205305,-0.24406865444837736,-0.24578049058762083,-0.24768573271954183,-0.24978217590903903,-0.25206714872723945,-0.25453752494666404,-0.25718973594581096,-0.2600197837634327,-0.2630232547269743,-0.26619533360614084,-0.2695308182593769,-0.2730241347103161,-0.27666935257156217,-0.28046020076729145,-0.2843900835280749,-0.2884520965926732,-0.29263904352677944,-0.29694345211354595,-0.3013575908050253,-0.30587348518505225,-0.31048293436584845,-0.3151775272869295,-0.3199486589141953,-0.3247875462814467,-0.32968524428048807,-0.33463266116744833,-0.33962057379840854,-0.34463964254956764,-0.34968042583580056,-0.35473339421071953,-0.3597889440865533,-0.36483741105332873,-0.3698690827309918,-0.37487421115832487,-0.37984302477961107,-0.3847657400283794,-0.38963257245776506,-0.3944337474360879,-0.39915951048216364,-0.40380013724933,-0.4083459431139444,-0.4127872923934183,-0.4171146072768483,-0.4213183764866543,-0.4253891636349129,-0.4293176153049249,-0.4330944689477438,-0.4367105606242733,-0.4401568325697553,-0.44342434061649916,-0.4465042615658875,-0.4493879005489195,-0.45206669836389446,-0.45453223882726795,-0.4567762562204359,-0.45879064287123833,-0.4605674568632983,-0.46209892990055845,-0.4633774753880613,-0.46439569674959413,-0.46514639596223484,-0.4656225823157154,-0.46581748143713675,-0.4657245445966849,-0.46533745827824413,-0.46465015401253695,-0.46365681849131835,-0.4623519039670605,-0.46073013891986014,-0.4587865389738778,-0.4565164180543805,-0.45391539977158357,-0.4509794290040413,-0.44770478364547595,-0.44408808648011666,-0.44012631715844375,-0.43581682424176993,-0.4311573372662147,-0.42614597877124755,-0.4207812762579963,-0.415062174049535,-0.4089880449964594,-0.4025587019540165,-0.395774408984025,-0.38863589225065837,-0.38114435054527046,-0.37330146535590875,-0.3651094104372869,-0.35657086086256856,-0.3476890014952835,-0.3384675347900098,-0.32891068787598854,-0.31902321891086916,-0.3088104226449457,-0.2982781351035903,-0.28743273734974645,-0.27628115832868033,-0.2648308767418956,-0.253089921842704,-0.24106687307844926,-0.22877085854246743,-0.2162115521715815,-0.20339916961938775,-0.1903444628146167,-0.17705871326462264,-0.16355372410498026,-0.1498418108485,-0.1359357908470178,-0.1218489715292781,-0.10759513741960752,-0.09318853588947401,-0.07864386164609066,-0.06397624001127761,-0.04920120899625562,-0.03433470013754441,-0.01939301811448321,-0.004392819217895274,0.010648911305710879,0.025714883052024365,0.040787525370000036,0.05584901331216202,0.07088129458705007,0.08586611751260505,0.10078505992936306,0.1156195589921807,0.13035094178850884,0.14496045676369998,0.1594293059061739,0.17373867761266684,0.18786978017086434,0.20180387581848416,0.2155223153185544,0.22900657296584984,0.2422382819467273,0.25519926998713777,0.2678715952119158,0.2802375821217214,0.29227985759486347,0.30398138682811,0.31532550912753615,0.32629597345193945,0.33687697360710706,0.3470531829915328,0.35680978879927244,0.36613252558489834,0.3750077080868193,0.38342226320212563,0.3913637610159209,0.39882044479368767,0.4057812598359782,0.41223588109213355,0.41817473944771394,0.42358904661221936,0.42847081852063756,0.43281289715339105,0.4366089706969258,0.439853591982483,0.4425421951295946,0.44467111031174544,0.44623757657874197,0.44723975268739424,0.447676725886003,0.4475485185932266,0.4468560929298199,0.4456013530795248,0.44378714545208053,0.44141725661667497,0.4384964089875045,0.43503025425913133,0.43102536459250934,0.42648922155592334,0.42143020284080485,0.4158575667873759,0.40978143475692674,0.4032127713860988,0.3961633627652653,0.3886457925938468,0.380673416372928,0.37226033369998085,0.3634213587350246,0.3541719889148141,0.34452837200141617,0.33450727155885474,0.3241260309539594,0.3134025359813347,0.30235517622072383,0.29100280523877486,0.27936469974160427,0.26746051778340074,0.2553102561476573,0.24293420702358184,0.23035291408940808,0.21758712810860062,0.20465776215957518,0.19158584663002595,0.17839248409480055,0.1650988041870682,0.1517259185861672,0.1382948762548649,0.12482661904266808,0.11134193775909136,0.09786142883415207,0.08440545169293436,0.07099408695289301,0.05764709553722288,0.04438387880930598,0.031223439839240124,0.018184345888814606,0.005284692182600813,-0.007457932951626932,-0.0200264814780175,-0.03240447751070939,-0.0445760475819941,-0.056525949253858274,-0.06823959799575345,-0.07970309227524384,-0.09090323682905092,-0.10182756406839587,-0.1124643535596208,-0.12280264954013463,-0.13283227644947634,-0.14254385244813686,-0.1519288008939982,-0.16097935977292235,-0.16968858910108034,-0.17805037630413614,-0.1860594395675397,-0.19371132917265868,-0.20100242685268624,-0.20792994319224992,-0.21449191308775775,-0.2206871893084338,-0.22651543421696543,-0.2319771096956817,-0.2370734653118715,-0.2418065247727476,-0.24617907073715,-0.25019462804095716,-0.2538574453838264,-0.2571724755406991,-0.2601453541763642,-0.2627823773323622,-0.26509047764759697,-0.26707719938878427,-0.268750672379955,-0.2701195849104,-0.2711931556902881,-0.2719811049331985,-0.2724936246551847,-0.2727413482725489,-0.27273531957356134,-0.27248696114914495,-0.2720080423761819,-0.27131064703853086,-0.2704071406607544,-0.26931013763320427,-0.26803246821261756,-0.2665871454783118,-0.26498733232237487,-0.2632463085619839,-0.26137743826749654,-0.2593941373884456,-0.2573098417439991,-0.25513797543922884,-0.2528919197692429,-0.2505849826724117,-0.24823036879413482,-0.24584115022634742,-0.24343023798912253,-0.24101035431509374,-0.23859400579141252,-0.23619345741308337,-0.23382070760082393,-0.23148746423058708,-0.22920512171284657,-0.22698473915234607,-0.2248370196157441,-0.22277229053510425,-0.22080048527574955,-0.21893112589485683,-0.2171733071141043,-0.21553568152755553,-0.214026446062906,-0.21265332970903872,-0.21142358251864102,-0.21034396589246387,-0.2094207441454007,-0.20865967734199234,-0.20806601538226258,-0.20764449332483212,-0.20739932793894642,-0.20733421546969497,-0.20745233059423893,-0.2077563265510418,-0.2082483364231725,-0.20892997554075274,-0.20980234495826797,-0.2108660359738366,-0.2121211356634645,-0.21356723338568487,-0.21520342820074137,-0.21702833716504924,-0.2190401044720425,-0.22123641138985975,-0.22361448693266087,-0.22617111922300054,-0.22890266751313743,-0.23180507480251672,-0.23487388097034773,-0.23810423637436384,-0.24149091588978944,-0.24502833333145635,-0.24871055618062987,-0.25253132057454275,-0.25648404654041257,-0.260561853414486,-0.26475757535967603,-0.26906377694124634,-0.27347276875037535,-0.2779766230148049,-0.28256718910248285,-0.28723610888275586,-0.29197483195545615,-0.2967746307087239,-0.3016266151291015,-0.3065217473471544,-0.311450855944297,-0.3164046499832307,-0.32137373267976765,-0.3263486147050346,-0.33131972716513725,-0.3362774342460747,-0.3412120454639548,-0.34611382752941017,-0.35097301588824753,-0.35577982593132534,-0.3605244638134481,-0.365197136896202,-0.3697880638960485,-0.37428748476067525,-0.3786856702436954,-0.38297293121114834,-0.38713962776406735,-0.39117617819268397,-0.39507306772172385,-0.3988208570731104,-0.4024101909342605,-0.40583180636591093,-0.4090765411308203,-0.41213534197743945,-0.4149992729584558,-0.41765952380597776,-0.4201074183333991,-0.4223344228866529,-0.4243321549275664,-0.4260923918051337,-0.427607079729896,-0.4288683429865229,-0.4298684934371525,-0.43060004032496846,-0.43105570034881746,-0.4312284080030836,-0.4311113262046934,-0.4306978572057302,-0.42998165376115904,-0.4289566305333077,-0.42761697573316804,-0.42595716298538644,-0.423971963383452,-0.4216564577040176,-0.4190060487625067,-0.4160164738952068,-0.4126838175435317,-0.4090045239025723,-0.4049754095913553,-0.4005936763090551,-0.39585692344013695,-0.39076316055330085,-0.38531081973368053,-0.3794987677106012,-0.3733263177527055,-0.3667932412729694,-0.3598997790695576,-0.35264665215930513,-0.34503507217903484,-0.33706675129412755,-0.3287439115333525,-0.3200692935131534,-0.31104616454284895,-0.30167832605542827,-0.2919701202744604,-0.281926436073574,-0.2715527140197413,-0.2608549505435451,-0.24983970114464296,-0.23851408259432041,-0.22688577413842095,-0.21496301765333778,-0.2027546166707924,-0.1902699342474071,-0.17751888970200977,-0.16451195418893985,-0.15126014503325894,-0.13777501881573587,-0.12406866324589785,-0.1101536878054456,-0.09604321309817404,-0.08175085890277939,-0.067290730976721,-0.05267740660621287,-0.03792591885234545,-0.023051739501772084,-0.008070760782055484,0.007000724148196625,0.022146041971525105,0.0373481612354413,0.05258971556945615,0.06785302807402704,0.08312013689195916,0.09837282192118987,0.1135926325820725,0.12876091659012737,0.1438588497247503,0.1588674665502189,0.17376769200725165,0.18854037381805758,0.2031663156757765,0.21762631116261524,0.23190117831002002,0.24597179472797506,0.2598191332462458,0.2734242979869341,0.2867685607631773,0.29983339771067596,0.3126005260773663,0.325051941089447,0.3371699527971299,0.34893722280465217,0.3603368007983479,0.3713521607889492,0.3819672369782366,0.39216645915164733,0.4019347874958696,0.4112577467456164,0.4201214595645521,0.42851267905526225,0.4364188202876482,0.4438279907444218,0.4507290195890463,0.4571114856530992,0.4629657440362881,0.4682829512275116,0.4730550886671602,0.4772749846630372,0.4809363345698595,0.48403371916343996,0.4865626211568256,0.4885194397948776,0.48990150345484956,0.4907070801977365,0.4909353862323194,0.49058659224757895,0.4896618275634248,0.4881631820662311,0.4860937059129875,0.48345740698637396,0.48025924608260295,0.4765051298319487,0.4722019013689427,0.46735732876764086,0.46198009125391865,0.456079763218093,0.449666796065236,0.44275249794452337,0.43534901140266585,0.4274692890193949,0.41912706709528486,0.4103368374635099,0.4011138174921849,0.3914739183419871,0.38143371154976724,0.3710103940217531,0.3602217515312703,0.3490861208203318,0.3376223504084766,0.3258497602204156,0.3137881001475789,0.3014575076528288,0.2888784645262242,0.27607175291133235,0.26305841072974023,0.24985968662434163,0.23649699453717685,0.22299186804840973,0.20936591461086082,0.19564076980479547,0.18183805172966536,0.16797931565752558,0.15408600907404482,0.14017942721220258,0.12628066917058836,0.11241059472436711,0.0985897819523245,0.08483848579205634,0.07117659762219332,0.057623605976948294,0.044198558497075574,0.030920025193446502,0.017806063080834992,0.0048741822563941415,-0.007858686487573914,-0.02037622244474532,-0.03266274411590552,-0.044703236605090534,-0.056483377216308576,-0.06798955919565844,-0.07920891358219592,-0.09012932912377201,-0.100739470211325,-0.11102879281049426,-0.12098755838946483,-0.1306068458305744,-0.13987856130537216,-0.14879544611651765,-0.15735108252975963,-0.165539897605181,-0.17335716502129112,-0.1807990048987183,-0.18786238164691477,-0.19454509985329257,-0.20084579823378365,-0.20676394168670173,-0.21229981150938124,-0.2174544938271787,-0.22222986627670968,-0.22662858300378594,-0.23065405805235814,-0.23431044720887387,-0.23760262835350857,-0.24053618038045568,-0.243117360762137,-0.24535308182633564,-0.24725088581131693,-0.2488189187793084,-0.25006590348083546,-0.2510011112530694,-0.2516343330268806,-0.2519758495286106,-0.2520364007725581,-0.2518271549300812,-0.25135967664994147,-0.2506458949099996,-0.24969807048748643,-0.24852876312870026,-0.24715079849141913,-0.24557723493703126,-0.2438213302542706,-0.24189650839304483,-0.23981632628570154,-0.2375944408419059,-0.23524457620805234,-0.23278049137152437,-0.23021594817597227,-0.2275646798090412,-0.2248403598243918,-0.22205657175873939,-0.21922677940526947,-0.2163642978095225,-0.2134822650550895,-0.21059361489915485,-0.20771105030981463,-0.20484701795516125,-0.20201368369323436,-0.19922290910596055,-0.19648622911122152,-0.1938148306798584,-0.19121953268123829,-0.18871076688128754,-0.1862985601159524,-0.18399251765834926,-0.1818018077941446,-0.17973514762036016,-0.17780079008282448,-0.17600651226288935,-0.17435960491967475,-0.1728668632926908,-0.1715345791625867,-0.1703685341519699,-0.16937399424029959,-0.1685557054765631,-0.16791789088192868,-0.16746424852700084,-0.16719795076101687,-0.16712164457638487,-0.16723745309261115,-0.16754697812625105,-0.16805130380299124,-0.1687510011810956,-0.16964613386283106,-0.17073626455133167,-0.17202046249783481,-0.17349731180211614,-0.17516492053905297,-0.1770209306592999,-0.1790625285962485,-0.18128645653579759,-0.18368902431770087,-0.1862661219013563,-0.18901323230766512,-0.19192544498778188,-0.19499746960179312,-0.19822365016216217,-0.20159797947425953,-0.2051141138411445,-0.2087653880180332,-0.21254483035062097,-0.21644517800027427,-0.22045889221270523,-0.22457817362563195,-0.22879497755987557,-0.2331010292026087,-0.2374878386512805,-0.24194671582668534,-0.2464687851971513,-0.25104500021147885,-0.25566615741472737,-0.26032291028359794,-0.2650057827587495,-0.26970518240369773,-0.27441141319288703,-0.27911468798748335,-0.2838051406860789,-0.28847283798313633,-0.29310779074704135,-0.29769996509595326,-0.3022392931825468,-0.30671568364213025,-0.3111190317327236,-0.31543922925758305,-0.31966617429099153,-0.3237897806691553,-0.32779998727913245,-0.33168676723998264,-0.33544013700334757,-0.3390501653416958,-0.3425069822585923,-0.34580078791708285,-0.34892186162567423,-0.35186057086596373,-0.35460738039807266,-0.35715286152786824,-0.35948770156465754,-0.3616027134457211,-0.3634888455497256,-0.36513719176900783,-0.3665390018718162,-0.36768569214131097,-0.36856885630680136,-0.3691802768150957,-0.3695119364584739,-0.3695560303391997,-0.3693049781670874,-0.36875143690982526,-0.3678883137966631,-0.3667087796491524,-0.36520628251697823,-0.3633745616107971,-0.36120766151850187,-0.3586999466752195,-0.35584611604786504,-0.35264121799363074,-0.349080665251649,-0.34516025001991296,-0.340876159056679,-0.33622498874714524,-0.33120376009789687,-0.3258099336272605,-0.32004142409046654,-0.31389661496184607,-0.3073743726228464,-0.300474060219434,-0.29319555111717643,-0.2855392418602609,-0.2775060645774652,-0.26909749880234535,-0.2603155826339655,-0.25116292313667155,-0.24164270592190254,-0.23175870388733247,-0.22151528504473111,-0.21091741934055103,-0.19997068443183547,-0.18868127042134114,-0.17705598350107957,-0.16510224841238388,-0.15282810968949193,-0.1402422317001182,-0.12735389744014247,-0.11417300599519241,-0.100710068643018,-0.0869762036211023,-0.07298312952890247,-0.05874315729093528,-0.044269180671791156,-0.029574665387833588,-0.01467363680429,0.0004193338409992922,0.015689144685240925,0.031120179904190803,0.046696327786532335,0.062401000255061664,0.07821715380666826,0.09412731178897281,0.11011358798477983,0.12615771152831923,0.14224105313272783,0.15834465256050634,0.17444924730393638,0.1905353024733872,0.20658304184115703,0.22257247994311843,0.23848345517629557,0.2542956638704441,0.26998869528269154,0.2855420674284257,0.3009352636798042,0.31614777008180456,0.3311591133042287,0.34594889911738963,0.3604968512972303,0.37478285089060115,0.38878697575986443,0.4024895403059138,0.4158711352728218,0.4289126675475302,0.44159539986148466,0.45390099028897557,0.46581153143523985,0.477309589213101,0.48837824111067857,0.4990011138494062,0.509162420322914,0.5188469957035012,0.5280403326087025,0.5367286152233842,0.5448987522654741,0.5525384086818138,0.5596360359747113,0.5661809010692215,0.5721631136218425,0.5775736516655413,0.5824043855010027,0.5866480997571834,0.5902985135377484,0.5933502985674236,0.5957990952721482,0.597641526743541,0.5988752105310062,0.5994987681990118,0.5995118326042694,0.5989150528647709,0.5977100969890666,0.5958996521300451,0.5934874224419836,0.5904781245359921,0.586877480530789,0.5826922086973652,0.5779300117111374,0.572599562540417,0.5667104880023618,0.5602733500166887,0.5532996245947187,0.5458016786126799,0.5377927444263604,0.5292868923893008,0.5202990013419109,0.5108447271468359,0.5009404693558481,0.49060333609909784,0.47985110728668917,0.4687021962158025,0.45717560968915893,0.4452909067573677,0.43306815619000216,0.4205278927782444,0.40769107258937864,0.39457902730863215,0.38121341779936657,0.36761618700798115,0.3538095123510452,0.33981575772763306,0.32565742528415775,0.3113571070489296,0.296937436568303,0.2824210406857936,0.2678304915875848,0.2531882592242764,0.23851666423449608,0.22383783150826525,0.20917364451002546,0.19454570046533398,0.17997526652795148,0.16548323705219825,0.15109009207251878,0.1368158570734329,0.1226800641468859,0.10870171464505027,0.09489924341530662,0.08129048468453595,0.06789263967083704,0.05472224600868443,0.04179514905024957,0.02912647508505249,0.016730606530484242,0.004621159153177729,-0.007189038642419781,-0.018687964442676685,-0.029864418345060224,-0.04070803733868268,-0.05120930753987958,-0.061359574298900474,-0.07115105018001215,-0.08057682080404387,-0.08963084856094598,-0.09830797421899366,-0.10660391644927901,-0.1145152692803754,-0.12203949752362757,-0.12917493022935572,-0.13592075221978125,-0.14227699372893562,-0.1482445181934254,-0.15382500825395015,-0.15902095002108887,-0.16383561565612673,-0.16827304433968274,-0.17233802171741577,-0.17603605789909157,-0.1793733640746463,-0.18235682782442195,-0.18499398721420487,-0.18729300375534835,-0.18926263430038243,-0.1909122019568214,-0.19225156611348132,-0.1932910916641357,-0.19404161750402724,-0.1945144243846487,-0.1947212022216552,-0.19467401694224845,-0.19438527695038804,-0.19386769929697506,-0.19313427564983404,-0.19219823814867626,-0.1910730252184592,-0.18977224741604531,-0.18830965338939448,-0.18669909602513224,-0.18495449885982684,-0.18308982284027708,-0.18111903352305703,-0.179056068791331,-0.17691480715071678,-0.1747090366601352,-0.17245242455373117,-0.1701584876163786,-0.16784056341249318,-0.16551178253273122,-0.16318504204222026,-0.16087298024324712,-0.15858795277282553,-0.15634201001394962,-0.15414687579660655,-0.15201392736499808,-0.1499541765824266,-0.1479782523399792,-0.1460963841364029,-0.14431838680615777,-0.14265364638140005,-0.14111110707482116,-0.13969925937050814,-0.1384261292155316,-0.13729926831007672,-0.13632574549317428,-0.13551213921949817,-0.1348645311237985,-0.1343885006654019,-0.13408912083269578,-0.13397095488174462,-0.1340380540920719,-0.1342939565258093,-0.13474168676123252,-0.1353837565631398,-0.13622216646736202,-0.1372584082655482,-0.13849346835846005,-0.13992783193452513,-0.14156148794930548,-0.14339393489312272,-0.1454241873109712,-0.14765078302378146,-0.15007179102408988,-0.15268482003367959,-0.15548702768061332,-0.15847513023363194,-0.16164541286309872,-0.16499374041623835,-0.16851556865483627,N
3,0.018184345888814606,0.005284692182600813,-0.007457932951626932,-0.0200264814780175,-0.03240447751070939,-0.0445760475819941,-0.056525949253858274,-0.06823959799575345,-0.07970309227524384,-0.09090323682905092,-0.10182756406839587,-0.1124643535596208,-0.12280264954013463,-0.13283227644947634,-0.14254385244813686,-0.1519288008939982,-0.16097935977292235,-0.16968858910108034,-0.17805037630413614,-0.1860594395675397,-0.19371132917265868,-0.20100242685268624,-0.20792994319224992,-0.21449191308775775,-0.2206871893084338,-0.22651543421696543,-0.2319771096956817,-0.2370734653118715,-0.2418065247727476,-0.24617907073715,-0.25019462804095716,-0.2538574453838264,-0.2571724755406991,-0.2601453541763642,-0.2627823773323622,-0.26509047764759697,-0.26707719938878427,-0.268750672379955,-0.2701195849104,-0.2711931556902881,-0.2719811049331985,-0.2724936246551847,-0.2727413482725489,-0.27273531957356134,-0.27248696114914495,-0.2720080423761819,-0.27131064703853086,-0.2704071406607544,-0.26931013763320427,-0.26803246821261756,-0.2665871454783118,-0.26498733232237487,-0.2632463085619839,-0.26137743826749654,-0.2593941373884456,-0.2573098417439991,-0.25513797543922884,-0.2528919197692429,-0.2505849826724117,-0.24823036879413482,-0.24584115022634742,-0.24343023798912253,-0.24101035431509374,-0.23859400579141252,-0.23619345741308337,-0.23382070760082393,-0.23148746423058708,-0.22920512171284657,-0.22698473915234607,-0.2248370196157441,-0.22277229053510425,-0.22080048527574955,-0.21893112589485683,-0.2171733071141043,-0.21553568152755553,-0.214026446062906,-0.21265332970903872,-0.21142358251864102,-0.21034396589246387,-0.2094207441454007,-0.20865967734199234,-0.20806601538226258,-0.20764449332483212,-0.20739932793894642,-0.20733421546969497,-0.20745233059423893,-0.2077563265510418,-0.2082483364231725,-0.20892997554075274,-0.20980234495826797,-0.2108660359738366,-0.2121211356634645,-0.21356723338568487,-0.21520342820074137,-0.21702833716504924,-0.2190401044720425,-0.22123641138985975,-0.22361448693266087,-0.22617111922300054,-0.22890266751313743,-0.23180507480251672,-0.23487388097034773,-0.23810423637436384,-0.24149091588978944,-0.24502833333145635,-0.24871055618062987,-0.25253132057454275,-0.25648404654041257,-0.260561853414486,-0.26475757535967603,-0.26906377694124634,-0.27347276875037535,-0.2779766230148049,-0.28256718910248285,-0.28723610888275586,-0.29197483195545615,-0.2967746307087239,-0.3016266151291015,-0.3065217473471544,-0.311450855944297,-0.3164046499832307,-0.32137373267976765,-0.3263486147050346,-0.33131972716513725,-0.3362774342460747,-0.3412120454639548,-0.34611382752941017,-0.35097301588824753,-0.35577982593132534,-0.3605244638134481,-0.365197136896202,-0.3697880638960485,-0.37428748476067525,-0.3786856702436954,-0.38297293121114834,-0.38713962776406735,-0.39117617819268397,-0.39507306772172385,-0.3988208570731104,-0.4024101909342605,-0.40583180636591093,-0.4090765411308203,-0.41213534197743945,-0.4149992729584558,-0.41765952380597776,-0.4201074183333991,-0.4223344228866529,-0.4243321549275664,-0.4260923918051337,-0.427607079729896,-0.4288683429865229,-0.4298684934371525,-0.43060004032496846,-0.43105570034881746,-0.4312284080030836,-0.4311113262046934,-0.4306978572057302,-0.42998165376115904,-0.4289566305333077,-0.42761697573316804,-0.42595716298538644,-0.423971963383452,-0.4216564577040176,-0.4190060487625067,-0.4160164738952068,-0.4126838175435317,-0.4090045239025723,-0.4049754095913553,-0.4005936763090551,-0.39585692344013695,-0.39076316055330085,-0.38531081973368053,-0.3794987677106012,-0.3733263177527055,-0.3667932412729694,-0.3598997790695576,-0.35264665215930513,-0.34503507217903484,-0.33706675129412755,-0.3287439115333525,-0.3200692935131534,-0.31104616454284895,-0.30167832605542827,-0.2919701202744604,-0.281926436073574,-0.2715527140197413,-0.2608549505435451,-0.24983970114464296,-0.23851408259432041,-0.22688577413842095,-0.21496301765333778,-0.2027546166707924,-0.1902699342474071,-0.17751888970200977,-0.16451195418893985,-0.15126014503325894,-0.13777501881573587,-0.12406866324589785,-0.1101536878054456,-0.09604321309817404,-0.08175085890277939,-0.067290730976721,-0.05267740660621287,-0.03792591885234545,-0.023051739501772084,-0.008070760782055484,0.007000724148196625,0.022146041971525105,0.0373481612354413,0.05258971556945615,0.06785302807402704,0.08312013689195916,0.09837282192118987,0.1135926325820725,0.12876091659012737,0.1438588497247503,0.1588674665502189,0.17376769200725165,0.18854037381805758,0.2031663156757765,0.21762631116261524,0.23190117831002002,0.24597179472797506,0.2598191332462458,0.2734242979869341,0.2867685607631773,0.29983339771067596,0.3126005260773663,0.325051941089447,0.3371699527971299,0.34893722280465217,0.3603368007983479,0.3713521607889492,0.3819672369782366,0.39216645915164733,0.4019347874958696,0.4112577467456164,0.4201214595645521,0.42851267905526225,0.4364188202876482,0.4438279907444218,0.4507290195890463,0.4571114856530992,0.4629657440362881,0.4682829512275116,0.4730550886671602,0.4772749846630372,0.4809363345698595,0.48403371916343996,0.4865626211568256,0.4885194397948776,0.48990150345484956,0.4907070801977365,0.4909353862323194,0.49058659224757895,0.4896618275634248,0.4881631820662311,0.4860937059129875,0.48345740698637396,0.48025924608260295,0.4765051298319487,0.4722019013689427,0.46735732876764086,0.46198009125391865,0.456079763218093,0.449666796065236,0.44275249794452337,0.43534901140266585,0.4274692890193949,0.41912706709528486,0.4103368374635099,0.4011138174921849,0.3914739183419871,0.38143371154976724,0.3710103940217531,0.3602217515312703,0.3490861208203318,0.3376223504084766,0.3258497602204156,0.3137881001475789,0.3014575076528288,0.2888784645262242,0.27607175291133235,0.26305841072974023,0.24985968662434163,0.23649699453717685,0.22299186804840973,0.20936591461086082,0.19564076980479547,0.18183805172966536,0.16797931565752558,0.15408600907404482,0.14017942721220258,0.12628066917058836,0.11241059472436711,0.0985897819523245,0.08483848579205634,0.07117659762219332,0.057623605976948294,0.044198558497075574,0.030920025193446502,0.017806063080834992,0.0048741822563941415,-0.007858686487573914,-0.02037622244474532,-0.03266274411590552,-0.044703236605090534,-0.056483377216308576,-0.06798955919565844,-0.07920891358219592,-0.09012932912377201,-0.100739470211325,-0.11102879281049426,-0.12098755838946483,-0.1306068458305744,-0.13987856130537216,-0.14879544611651765,-0.15735108252975963,-0.165539897605181,-0.17335716502129112,-0.1807990048987183,-0.18786238164691477,-0.19454509985329257,-0.20084579823378365,-0.20676394168670173,-0.21229981150938124,-0.2174544938271787,-0.22222986627670968,-0.22662858300378594,-0.23065405805235814,-0.23431044720887387,-0.23760262835350857,-0.24053618038045568,-0.243117360762137,-0.24535308182633564,-0.24725088581131693,-0.2488189187793084,-0.25006590348083546,-0.2510011112530694,-0.2516343330268806,-0.2519758495286106,-0.2520364007725581,-0.2518271549300812,-0.25135967664994147,-0.2506458949099996,-0.24969807048748643,-0.24852876312870026,-0.24715079849141913,-0.24557723493703126,-0.2438213302542706,-0.24189650839304483,-0.23981632628570154,-0.2375944408419059,-0.23524457620805234,-0.23278049137152437,-0.23021594817597227,-0.2275646798090412,-0.2248403598243918,-0.22205657175873939,-0.21922677940526947,-0.2163642978095225,-0.2134822650550895,-0.21059361489915485,-0.20771105030981463,-0.20484701795516125,-0.20201368369323436,-0.19922290910596055,-0.19648622911122152,-0.1938148306798584,-0.19121953268123829,-0.18871076688128754,-0.1862985601159524,-0.18399251765834926,-0.1818018077941446,-0.17973514762036016,-0.17780079008282448,-0.17600651226288935,-0.17435960491967475,-0.1728668632926908,-0.1715345791625867,-0.1703685341519699,-0.16937399424029959,-0.1685557054765631,-0.16791789088192868,-0.16746424852700084,-0.16719795076101687,-0.16712164457638487,-0.16723745309261115,-0.16754697812625105,-0.16805130380299124,-0.1687510011810956,-0.16964613386283106,-0.17073626455133167,-0.17202046249783481,-0.17349731180211614,-0.17516492053905297,-0.1770209306592999,-0.1790625285962485,-0.18128645653579759,-0.18368902431770087,-0.1862661219013563,-0.18901323230766512,-0.19192544498778188,-0.19499746960179312,-0.19822365016216217,-0.20159797947425953,-0.2051141138411445,-0.2087653880180332,-0.21254483035062097,-0.21644517800027427,-0.22045889221270523,-0.22457817362563195,-0.22879497755987557,-0.2331010292026087,-0.2374878386512805,-0.24194671582668534,-0.2464687851971513,-0.25104500021147885,-0.25566615741472737,-0.26032291028359794,-0.2650057827587495,-0.26970518240369773,-0.27441141319288703,-0.27911468798748335,-0.2838051406860789,-0.28847283798313633,-0.29310779074704135,-0.29769996509595326,-0.3022392931825468,-0.30671568364213025,-0.3111190317327236,-0.31543922925758305,-0.31966617429099153,-0.3237897806691553,-0.32779998727913245,-0.33168676723998264,-0.33544013700334757,-0.3390501653416958,-0.3425069822585923,-0.34580078791708285,-0.34892186162567423,-0.35186057086596373,-0.35460738039807266,-0.35715286152786824,-0.35948770156465754,-0.3616027134457211,-0.3634888455497256,-0.36513719176900783,-0.3665390018718162,-0.36768569214131097,-0.36856885630680136,-0.3691802768150957,-0.3695119364584739,-0.3695560303391997,-0.3693049781670874,-0.36875143690982526,-0.3678883137966631,-0.3667087796491524,-0.36520628251697823,-0.3633745616107971,-0.36120766151850187,-0.3586999466752195,-0.35584611604786504,-0.35264121799363074,-0.349080665251649,-0.34516025001991296,-0.340876159056679,-0.33622498874714524,-0.33120376009789687,-0.3258099336272605,-0.32004142409046654,-0.31389661496184607,-0.3073743726228464,-0.300474060219434,-0.29319555111717643,-0.2855392418602609,-0.2775060645774652,-0.26909749880234535,-0.2603155826339655,-0.25116292313667155,-0.24164270592190254,-0.23175870388733247,-0.22151528504473111,-0.21091741934055103,-0.19997068443183547,-0.18868127042134114,-0.17705598350107957,-0.16510224841238388,-0.15282810968949193,-0.1402422317001182,-0.12735389744014247,-0.11417300599519241,-0.100710068643018,-0.0869762036211023,-0.07298312952890247,-0.05874315729093528,-0.044269180671791156,-0.029574665387833588,-0.01467363680429,0.0004193338409992922,0.015689144685240925,0.031120179904190803,0.046696327786532335,0.062401000255061664,0.07821715380666826,0.09412731178897281,0.11011358798477983,0.12615771152831923,0.14224105313272783,0.15834465256050634,0.17444924730393638,0.1905353024733872,0.20658304184115703,0.22257247994311843,0.23848345517629557,0.2542956638704441,0.26998869528269154,0.2855420674284257,0.3009352636798042,0.31614777008180456,0.3311591133042287,0.34594889911738963,0.3604968512972303,0.37478285089060115,0.38878697575986443,0.4024895403059138,0.4158711352728218,0.4289126675475302,0.44159539986148466,0.45390099028897557,0.46581153143523985,0.477309589213101,0.48837824111067857,0.4990011138494062,0.509162420322914,0.5188469957035012,0.5280403326087025,0.5367286152233842,0.5448987522654741,0.5525384086818138,0.5596360359747113,0.5661809010692215,0.5721631136218425,0.5775736516655413,0.5824043855010027,0.5866480997571834,0.5902985135377484,0.5933502985674236,0.5957990952721482,0.597641526743541,0.5988752105310062,0.5994987681990118,0.5995118326042694,0.5989150528647709,0.5977100969890666,0.5958996521300451,0.5934874224419836,0.5904781245359921,0.586877480530789,0.5826922086973652,0.5779300117111374,0.572599562540417,0.5667104880023618,0.5602733500166887,0.5532996245947187,0.5458016786126799,0.5377927444263604,0.5292868923893008,0.5202990013419109,0.5108447271468359,0.5009404693558481,0.49060333609909784,0.47985110728668917,0.4687021962158025,0.45717560968915893,0.4452909067573677,0.43306815619000216,0.4205278927782444,0.40769107258937864,0.39457902730863215,0.38121341779936657,0.36761618700798115,0.3538095123510452,0.33981575772763306,0.32565742528415775,0.3113571070489296,0.296937436568303,0.2824210406857936,0.2678304915875848,0.2531882592242764,0.23851666423449608,0.22383783150826525,0.20917364451002546,0.19454570046533398,0.17997526652795148,0.16548323705219825,0.15109009207251878,0.1368158570734329,0.1226800641468859,0.10870171464505027,0.09489924341530662,0.08129048468453595,0.06789263967083704,0.05472224600868443,0.04179514905024957,0.02912647508505249,0.016730606530484242,0.004621159153177729,-0.007189038642419781,-0.018687964442676685,-0.029864418345060224,-0.04070803733868268,-0.05120930753987958,-0.061359574298900474,-0.07115105018001215,-0.08057682080404387,-0.08963084856094598,-0.09830797421899366,-0.10660391644927901,-0.1145152692803754,-0.12203949752362757,-0.12917493022935572,-0.13592075221978125,-0.14227699372893562,-0.1482445181934254,-0.15382500825395015,-0.15902095002108887,-0.16383561565612673,-0.16827304433968274,-0.17233802171741577,-0.17603605789909157,-0.1793733640746463,-0.18235682782442195,-0.18499398721420487,-0.18729300375534835,-0.18926263430038243,-0.1909122019568214,-0.19225156611348132,-0.1932910916641357,-0.19404161750402724,-0.1945144243846487,-0.1947212022216552,-0.19467401694224845,-0.19438527695038804,-0.19386769929697506,-0.19313427564983404,-0.19219823814867626,-0.1910730252184592,-0.18977224741604531,-0.18830965338939448,-0.18669909602513224,-0.18495449885982684,-0.18308982284027708,-0.18111903352305703,-0.179056068791331,-0.17691480715071678,-0.1747090366601352,-0.17245242455373117,-0.1701584876163786,-0.16784056341249318,-0.16551178253273122,-0.16318504204222026,-0.16087298024324712,-0.15858795277282553,-0.15634201001394962,-0.15414687579660655,-0.15201392736499808,-0.1499541765824266,-0.1479782523399792,-0.1460963841364029,-0.14431838680615777,-0.14265364638140005,-0.14111110707482116,-0.13969925937050814,-0.1384261292155316,-0.13729926831007672,-0.13632574549317428,-0.13551213921949817,-0.1348645311237985,-0.1343885006654019,-0.13408912083269578,-0.13397095488174462,-0.1340380540920719,-0.1342939565258093,-0.13474168676123252,-0.1353837565631398,-0.13622216646736202,-0.1372584082655482,-0.13849346835846005,-0.13992783193452513,-0.14156148794930548,-0.14339393489312272,-0.1454241873109712,-0.14765078302378146,-0.15007179102408988,-0.15268482003367959,-0.15548702768061332,-0.15847513023363194,-0.16164541286309872,-0.16499374041623835,-0.16851556865483627,-0.17220595587848384,-0.1760595748984902,-0.18007072535461408,-0.18423334631866914,-0.18854102909771694,-0.19298703020372546,-0.1975642844964667,-0.20226541845536453,-0.2070827634994015,-0.21200836933394715,-0.21703401734713387,-0.22215123401888578,-0.22735130426270064,-0.23262528468711052,-0.2379640168133309,-0.2433581402185928,-0.24879810552536663,-0.25427418723136486,-0.25977649643463374,-0.2652949934401808,-0.27081950018097845,-0.27633971246232825,-0.28184521210170776,-0.28732547896845306,-0.2927699028710956,-0.29816779531276055,-0.3035084011943054,-0.3087809104730403,-0.3139744697255004,-0.3190781936359336,-0.3240811764979298,-0.32897250375470943,-0.3337412635460114,-0.33837655829126695,-0.34286751639405705,-0.3472033040922908,-0.35137313742263737,-0.35536629432260186,-0.35917212694790174,-0.36278007423554354,-0.36617967469316975,-0.3693605794350206,-0.3723125655277984,-0.37502554967339613,-0.3774896022132462,-0.3796949614619128,-0.38163204840240544,-0.3832914817422269,-0.3846640932936967,-0.3857409436589381,-0.386513338222787,-0.3869728434383912,-0.3871113033647058,-0.38692085642159846,-0.3863939523468045,-0.38552336934014564,-0.38430223136714314,-0.38272402558088603,-0.3807826198164336,-0.37847228011475564,-0.37578768822846154,-0.3727239590452821,-0.3692766578640315,-0.36544181748263826,-0.3612159550661681,-0.35659608872950016,-0.35157975374599554,-0.34616501831674334,-0.3403504988506381,-0.3341353746744626,-0.3275194020778773,-0.3205029276442219,-0.31308690084586493,-0.30527288583715256,-0.2970630723468764,-0.288460285621371,-0.27946799540481854,-0.27009032389315046,-0.26033205256327907,-0.25019862783810676,-0.23969616559128767,-0.2288314544395592,-0.21761195772891206,-0.2060458141842122,-0.1941418372414413,-0.1819095130221697,-0.16935899686222308,-0.15650110836970696,-0.14334732504057365,-0.12990977440306384,-0.11620122461773573,-0.10223507352761073,-0.08802533620912877,-0.07358663101741762,-0.05893416407439654,-0.04408371221836403,-0.029051604491665953,-0.01385470218291881,0.0014896226134060485,0.01696350989774142,0.03254863604891838,0.04822623946393999,0.06397714757376423,0.07978180519868537,0.09562030415443616,0.11147241406488427,0.1273176143809024,0.14313512755915947,0.15890395330802676,0.17460290384236812,0.19021064012639025,0.2057057090498148,0.22106658144403504,0.23627169086526686,0.2512994730920552,0.26612840625041095,0.2807370514470415,0.29510409381168085,0.3092083838772934,0.323028979214289,0.3365451862132333,0.349736601915237,0.3625831557972045,0.375065151405421,0.38716330771571944,0.39885880010356906,0.4101333008203027,0.420969018874677,0.4313487392137347,0.44125586109248216,0.45067443552432795,0.4595892017124297,0.46798562236424157,0.4758499177826177,0.4831690986231197,0.48993099721880334,0.49612429738182146,0.5017385625823912,0.5067642624010328,0.5111927971652238,0.5150165206943184,0.5182287610691503,0.5208238393380886,0.5227970860880895,0.5241448558248114,0.5248645391012571,0.5249545723321846,0.5244144452503848,0.5232447059781739,0.5214469636835786,0.5190238887863263,0.5159792106930776,0.5123177130575647,0.5080452265626929,0.5031686192216169,0.4976957842071703,0.4916356252334897,0.484998039518562,0.47779389835773434,0.47003502534472275,0.46173417228742575,0.45290499287632674,0.4435620141703525,0.43372060596923406,0.42339694814856405,0.4126079960466517,0.4013714440037028,0.3897056871584574,0.3776297816116942,0.36516340307364686,0.35232680411219125,0.3391407701065386,0.3256265740082232,0.31180593002976265,0.2977009463969129,0.28333407729422877,0.2687280741283218,0.25390593624693575,0.2388908612602791,0.22370619509573506,0.2083753819066194,0.19292191397133615,0.1773692817303318,0.1617409240908376,0.1460601791155561,0.13035023522643277,0.11463408306487269,0.0989344681287059,0.0832738442891309,0.06767432830536495,0.0521576554630313,0.036745136435464724,0.021457615446537365,0.0063154298323031864,-0.008661628884086389,-0.023454352309420397,-0.03804415081498367,-0.05241308740391155,-0.06654390972276247,-0.08042008016013083,-0.09402580399892771,-0.10734605557114002,-0.12036660234613522,-0.13307402690279796,-0.14545574675712253,-0.15750003200963095,-0.169196020777606,-0.1805337324127805,-0.1915040785301874,-0.2020988718534262,-0.21231083286070848,-0.2221335942344058,-0.2315617031378456,-0.2405906213396696,-0.24921672323179192,-0.25743729186635883,-0.26525051317459397,-0.2726554684610476,-0.27965212518095317,-0.28624132599548213,-0.29242477611788864,-0.2982050289561342,-0.3035854700498657,-0.3085702993215844,-0.3131645116838535,-0.31737387604008493,-0.32120491271505014,-0.3246648693766888,-0.32776169553109324,-0.330504015661548,-0.3329011010710173,-0.3349628405028187,-0.33669970962999823,-0.33812273949577365,-0.3392434839794477,-0.34007398637612674,-0.3406267451915571,-0.3409146792453759,-0.3409510921692971,-0.34074963640002376,-0.3403242767774275,-0.3396892538470216,-0.3388590469517479,-0.33784833720113433,-0.33667197041217173,-0.3353449201119268,-0.3338822506905859,-0.3322990808056053,-0.33061054714419874,-0.3288317686380447,-0.32697781120819275,-0.3250636531165552,-0.3231041510025104,-0.32111400667680523,-0.3191077347376736,-0.31709963107421535,-0.3151037423228926,-0.31313383633787745,-0.31120337373101953,-0.309325480537798,-0.307512922065358,-0.3057780779719461,-0.3041329186192909,-0.30258898273636126,-0.3011573564309771,-0.29984865358033436,-0.2986729976235795,-0.29764000477233526,-0.29675876865119427,-0.29603784637945374,-0.2954852461028008,-0.29510841597688064,-0.2949142345998712,-0.2949090028914419,-0.29509843741110325,-0.29548766509536356,-0.2960812193855627,-0.29688303772632757,-0.29789646042096013,-0.29912423082136946,-0.300568496822571,-0.3022308136373867,-0.3041121478258805,-0.30621288253384826,-0.308532823883236,-0.31107120847300157,-0.31382671195913353,-0.31679745866368764,-0.3199810321497533,-0.323374486717482,-0.32697435978465755,-0.33077668508553676,-0.3347770066040175,-0.33897039318641503,-0.3433514537968512,-0.3479143533428655,-0.3526528289766871,-0.3575602068175645,-0.36262941907002233,N
4,0.036745136435464724,0.021457615446537365,0.0063154298323031864,-0.008661628884086389,-0.023454352309420397,-0.03804415081498367,-0.05241308740391155,-0.06654390972276247,-0.08042008016013083,-0.09402580399892771,-0.10734605557114002,-0.12036660234613522,-0.13307402690279796,-0.14545574675712253,-0.15750003200963095,-0.169196020777606,-0.1805337324127805,-0.1915040785301874,-0.2020988718534262,-0.21231083286070848,-0.2221335942344058,-0.2315617031378456,-0.2405906213396696,-0.24921672323179192,-0.25743729186635883,-0.26525051317459397,-0.2726554684610476,-0.27965212518095317,-0.28624132599548213,-0.29242477611788864,-0.2982050289561342,-0.3035854700498657,-0.3085702993215844,-0.3131645116838535,-0.31737387604008493,-0.32120491271505014,-0.3246648693766888,-0.32776169553109324,-0.330504015661548,-0.3329011010710173,-0.3349628405028187,-0.33669970962999823,-0.33812273949577365,-0.3392434839794477,-0.34007398637612674,-0.3406267451915571,-0.3409146792453759,-0.3409510921692971,-0.34074963640002376,-0.3403242767774275,-0.3396892538470216,-0.3388590469517479,-0.33784833720113433,-0.33667197041217173,-0.3353449201119268,-0.3338822506905859,-0.3322990808056053,-0.33061054714419874,-0.3288317686380447,-0.32697781120819275,-0.3250636531165552,-0.3231041510025104,-0.32111400667680523,-0.3191077347376736,-0.31709963107421535,-0.3151037423228926,-0.31313383633787745,-0.31120337373101953,-0.309325480537798,-0.307512922065358,-0.3057780779719461,-0.3041329186192909,-0.30258898273636126,-0.3011573564309771,-0.29984865358033436,-0.2986729976235795,-0.29764000477233526,-0.29675876865119427,-0.29603784637945374,-0.2954852461028008,-0.29510841597688064,-0.2949142345998712,-0.2949090028914419,-0.29509843741110325,-0.29548766509536356,-0.2960812193855627,-0.29688303772632757,-0.29789646042096013,-0.29912423082136946,-0.300568496822571,-0.3022308136373867,-0.3041121478258805,-0.30621288253384826,-0.308532823883236,-0.31107120847300157,-0.31382671195913353,-0.31679745866368764,-0.3199810321497533,-0.323374486717482,-0.32697435978465755,-0.33077668508553676,-0.3347770066040175,-0.33897039318641503,-0.3433514537968512,-0.3479143533428655,-0.3526528289766871,-0.3575602068175645,-0.36262941907002233,-0.3678530214763982,-0.37322321101615596,-0.37873184380745084,-0.3843704531929534,-0.3901302679394453,-0.3960022304472218,-0.40197701492367843,-0.4080450455189891,-0.4141965143684462,-0.42042139944769785,-0.4267094822105407,-0.4330503650238634,-0.43943348834850815,-0.44584814756885216,-0.45228350944994306,-0.4587286282638727,-0.46517246156704,-0.4716038855609512,-0.4780117100407958,-0.4843846929907917,-0.4907115548128699,-0.4969809921199809,-0.503181691103374,-0.5093023405480193,-0.5153316445013385,-0.5212583345429309,-0.5270711816782856,-0.5327590079437754,-0.5383106977425762,-0.5437152088724932,-0.5489615832769905,-0.554038957614047,-0.558936573676232,-0.5636437886383638,-0.5681500851687551,-0.5724450814942859,-0.5765185414515075,-0.580360384501476,-0.5839606957379403,-0.5873097359710239,-0.5903979519245891,-0.5932159865377055,-0.5957546893951416,-0.5980051273449772,-0.599958595317171,-0.601606627313854,-0.6029410075730809,-0.6039537819463657,-0.6046372695096857,-0.6049840743958944,-0.6049870978467206,-0.6046395505011063,-0.6039349649239677,-0.6028672083571834,-0.6014304956707501,-0.5996194024950705,-0.5974288785078181,-0.5948542608353538,-0.5918912875212903,-0.5885361110207463,-0.5847853116930746,-0.5806359112651411,-0.5760853862136213,-0.5711316810032934,-0.5657732211387809,-0.5600089259960559,-0.5538382213693577,-0.547261051652168,-0.5402778916034315,-0.5328897576693964,-0.5250982187929163,-0.5169054066174035,-0.508314025034083,-0.49932735904941405,-0.48994928290546397,-0.4801842673569759,-0.47003738606052253,-0.45951432106797735,-0.4486213673661213,-0.43736543637001374,-0.4257540583388591,-0.4137953837278619,-0.4014981834307859,-0.3888718478214298,-0.3759263845614619,-0.3626724151909636,-0.34912117046140867,-0.3352844843256183,-0.321174786561781,-0.3068050940611017,-0.2921890007542297,-0.27734066610966346,-0.26227480220525645,-0.24700665942944255,-0.23155201081079635,-0.21592713492339322,-0.20014879737368252,-0.1842342309282674,-0.1682011142926328,-0.15206754950829987,-0.1358520379944091,-0.11957345531217083,-0.10325102468401062,-0.08690428925404484,-0.07055308312256428,-0.05421750123403193,-0.03791786816368998,-0.021674705815453926,-0.005508700087966759,0.010559333392012425,0.026508484400006877,0.04231778407115456,0.05796624161563161,0.07343288168865295,0.08869678233337305,0.10373711344293321,0.11853317567039787,0.13306443969009055,0.14731058572149588,0.16125154323915233,0.1748675307781181,0.18813909572688345,0.20104715400302034,0.21357302951736282,0.22569849333121175,0.2374058024027225,0.2486777378142834,0.25949764237500805,0.26984945749765565,0.2797177592487562,0.28908779346161323,0.29794550979583684,0.30627759463191234,0.3140715026937611,0.32131548728896187,0.3279986290609387,0.3341108631681653,0.3396430048176997,0.3445867730689151,0.3489348128170852,0.3526807148864914,0.355819034178616,0.35834530580794216,0.3602560591437369,0.3615488296871778,0.36222216872876806,0.36227565073115675,0.3617098783870255,0.3605264853261566,0.35872813646487944,0.3563185259846905,0.35330237291820443,0.34968541433196954,0.3454743961114314,0.3406770613563216,0.3353021363966303,0.3293593144525019,0.3228592369757163,0.31581347271520976,0.30823449455151275,0.30013565415356225,0.2915311545222561,0.28243602049241046,0.27286606726898477,0.26283786707773416,0.25236871401747896,0.241476587210042,0.23018011234773122,0.21849852173511214,0.20645161292376263,0.19405970605261344,0.18134360001826852,0.16832452759868474,0.15502410965273136,0.14146430852753752,0.1276673808103986,0.11365582955215443,0.09945235608318521,0.08507981155453731,0.07056114834363114,0.05591937145084653,0.04117749000383653,0.026358468998408147,0.011485181412031299,-0.0034196391911948507,-0.01833344545832031,-0.033233922329357624,-0.04809903227660087,-0.06290705959590578,-0.07763665366067576,-0.09226687103461888,-0.10677721632814245,-0.12114768170363303,-0.13535878495287923,-0.1493916060573246,-0.1632278221325364,-0.1768497406803501,-0.19024033109165694,-0.20338325433154084,-0.21626289073029983,-0.2288643658269233,-0.24117357423189714,-0.2531772014655917,-0.26486274372080926,-0.27621852552145504,-0.2872337152698205,-0.29789833866495247,-0.3082032899693243,-0.3181403411282952,-0.3277021487683233,-0.33688225908430924,-0.34567511061026246,-0.3540760348835741,-0.36208125503157196,-0.3696878823020327,-0.37689391055571947,-0.38369820876268906,-0.3901005115630743,-0.3961014079412743,-0.40170232805122547,-0.4069055282468556,-0.41171407438804714,-0.416131823483723,-0.4201634037268571,-0.4238141929940955,-0.42709029589783,-0.4299985194676895,-0.43254634752753984,-0.43474191384636274,-0.43659397415379286,-0.43811187710275307,-0.4393055342540791,-0.4401853891701711,-0.4407623857154402,-0.4410479356524036,-0.44105388561405406,-0.4407924835431521,-0.44027634469786775,-0.439518417314362,-0.4385319480105793,-0.4373304470275953,-0.43592765341304823,-0.43433750023651085,-0.43257407990785235,-0.43065160966658866,-0.4285843973135146,-0.426386807253564,-0.4240732269185648,-0.42165803364672044,-0.41915556209983157,-0.41658007229004634,-0.4139457182769297,-0.41126651759412414,-0.4085563214657888,-0.40582878586810545,-0.40309734348514337,-0.4003751766069287,-0.39767519101716264,-0.3950099909147395,-0.39239185490988365,-0.389832713135072,-0.3873441255097316,-0.3849372611930177,-0.3826228792530885,-0.3804113105771489,-0.3783124410438656,-0.376335695976278,-0.37449002588580343,-0.3727838935071332,-0.3712252621185285,-0.3698215851464654,-0.36857979705687066,-0.367506305529333,-0.3666069849053803,-0.3658871709054419,-0.36535165661227725,-0.3650046897133142,-0.36484997098875677,-0.36489065403234067,-0.3651293461851033,-0.36556811064391415,-0.3662084696970336,-0.36705140905094863,-0.3680973832198748,-0.3693463219333714,-0.3707976375069803,-0.3724502331364069,-0.3743025120853153,-0.376352387716811,-0.3785972943055601,-0.3810341985878618,-0.3836596120199116,-0.3864696036898916,-0.3894598138133587,-0.3926254677675362,-0.39596139063723473,-0.39946202221525734,-0.40312143238038306,-0.40693333680814264,-0.41089111298840847,-0.41498781648257105,-0.4192161973274941,-0.42356871653816486,-0.42803756269043325,-0.432614668516644,-0.43729172741542277,-0.4420602098339691,-0.4469113795244116,-0.4518363096255903,-0.4568258984852279,-0.46187088519855196,-0.4669618648837725,-0.4720893036539113,-0.47724355320116935,-0.4824148649803465,-0.487593404033179,-0.4927692624333197,-0.49793247228373855,-0.5030730182705375,-0.5081808498338906,-0.5132458929487881,-0.5182580614552607,-0.5232072679531058,-0.5280834343380097,-0.5328765019879117,-0.537576441552465,-0.5421732623721074,-0.5466570216148521,-0.5510178331504119,-0.5552458761233312,-0.5593314032579414,-0.5632647489913486,-0.5670363374688544,-0.5706366903794325,-0.5740564346704893,-0.5772863102377024,-0.580317177628938,-0.5831400257470618,-0.5857459795874295,-0.588126308093451,-0.5902724321615861,-0.5921759327768464,-0.5938285593029954,-0.5952222379974704,-0.596349080784497,-0.5972013942775393,-0.5977716890682959,-0.598052689329012,-0.5980373427446065,-0.5977188307561593,-0.5970905791129215,-0.5961462687531005,-0.5948798470179277,-0.5932855391787084,-0.591357860257532,-0.5890916271300324,-0.586481970888743,-0.5835243494294315,-0.5802145602183681,-0.5765487532067775,-0.5725234438693654,-0.5681355263399943,-0.5633822865962372,-0.5582614156328098,-0.5527710225765983,-0.546909647700466,-0.540676275269784,-0.5340703461488203,-0.5270917701295434,-0.5197409379626567,-0.5120187330296437,-0.5039265425635946,-0.49546626835722907,-0.48664033691985664,-0.47745170900799494,-0.46790388843324726,-0.45800093010173815,-0.4477474472733346,-0.4371486179812432,-0.42621019052195447,-0.41493848798536176,-0.40334041183712094,-0.39142344450635286,-0.37919565088367974,-0.3666656786883317,-0.3538427577087592,-0.34073669786836874,-0.32735788602869004,-0.31371728150691175,-0.29982641033609364,-0.28569735823955544,-0.2713427622442146,-0.2567758009188854,-0.24201018327628998,-0.22706013632432845,-0.21194039120846556,-0.19666616794949557,-0.18125315883461193,-0.16571751046771982,-0.1500758044387726,-0.1343450366274605,-0.11854259520795657,-0.10268623737604772,-0.08679406477723968,-0.0708844976625518,-0.05497624784594091,-0.03908829050136336,-0.023239834803169733,-0.007450293456898455,0.00826074879007537,0.023873567598863804,0.03936833242444589,0.05472514078042899,0.06992405329315883,0.08494512947365125,0.09976846415944947,0.1143742245586782,0.12874268780266557,0.14285427892035643,0.156689609157228,0.1702295145432098,0.18345509459483203,0.19634775104373367,0.20888922649775019,0.22106164293904504,0.23284753995431337,0.24422991259219418,0.25519224876044244,0.26571856610159805,0.27579344829058894,0.2854020806665804,0.29453028507704143,0.3031645538040148,0.3112920824459106,0.31890080162505213,0.32597940739612824,0.33251739025316246,0.3385050626464073,0.3439335849082868,0.3487949894773435,0.35308220332401424,0.3567890684973483,0.359910360706488,0.36244180585000324,0.36438009442966696,0.3657228938042883,0.36646885823083813,0.36661763663198216,0.36616987804582884,0.36512723473192893,0.3634923629052377,0.3612689210667014,0.3584615659145619,0.3550759458376017,0.35111869199401075,0.34659740698169567,0.34152065112130064,0.3358979263887247,0.32973965803680316,0.32305717394665845,0.3158626817592206,0.3081692438495117,0.2999907502115145,0.2913418893226046,0.2822381170597182,0.27269562374699313,0.2627312994250449,0.25236269743995277,0.24160799645302522,0.23048596097667773,0.21901590055003903,0.2072176276695704,0.19511141458068457,0.18271794903429248,0.17005828912851617,0.15715381737002954,0.1440261940854649,0.1306973103090201,0.11718924028224924,0.10352419370566317,0.08972446786523529,0.07581239974679259,0.0618103182663702,0.04774049675584737,0.03362510582795327,0.019486166731996345,0.005345505324638841,-0.008775293211443536,-0.022854928787942465,-0.03687242987327555,-0.050807195886878424,-0.06463903840699849,-0.07834822109628088,-0.09191549826800784,-0.10532215200218364,-0.11855002771109113,-0.13158156807780463,-0.14439984531140437,-0.15698859164855192,-0.16933222801851208,-0.18141589080879592,-0.19322545668857913,-0.20474756543897246,-0.21596964073711036,-0.2268799088710576,-0.2374674153850818,-0.24772203963890732,-0.25763450724958387,-0.2671964004045378,-0.27640016605470025,-0.2852391219862096,-0.29370746076018883,-0.3018002515308784,-0.30951343977197876,-0.31684384493281337,-0.32378915604059644,-0.3303479252880247,-0.33651955966447333,-0.3423043106782554,-0.34770326220966374,-0.35271831655653874,-0.35735217875214575,-0.36160833922084673,-0.36549105482212313,-0.3690053283467199,-0.37215688654344553,-0.37495215674680527,-0.3773982421689912,-0.37950289593626496,-0.38127449396363366,-0.3827220067509948,-0.3838549701730238,-0.3846834553458291,-0.38521803766438784,-0.38546976509630393,-0.38545012580895643,-0.3851710152163179,-0.384644702540587,-0.38388379697645436,-0.38290121354015305,-0.3817101386960955,-0.38032399586166754,-0.37875641087971773,-0.3770211775366102,-0.37513222320788425,-0.37310357471861827,-0.3709493244970517,-0.3686835970903893,-0.36632051611345623,-0.3638741717038852,-0.3613585885515062,-0.3587876945627299,-0.3561752902212855,-0.3535350187079777,-0.3508803368375323,-0.34822448686619467,-0.3455804692249257,-0.34296101623337993,-0.3403785668436849,-0.33784524245589503,-0.335372823844513,-0.3329727292341424,-0.33065599355720915,-0.3284332489177462,-0.3263147062759331,-0.3243101383639884,-0.32242886384699315,-0.32067973274558453,-0.3190711131356418,-0.31761087913665204,-0.3163064001987252,-0.3151645316935218,-0.31419160680450225,-0.3133934297060041,-0.3127752700243661,-0.3123418585776484,-0.31209738438531776,-0.31204549293382267,-0.31218928568412974,-0.31253132080089685,-0.31307361506443954,-0.31381764691726577,-0.3147643606095212,-0.3159141714173468,-0.3172669718962857,-0.31882213912258917,-0.3205785428873849,-0.32253455481590027,-0.3246880583666841,-0.327036459654148,-0.32957669905314335,-0.332305263550979,-0.3352181997859248,-0.33831112769570704,-0.3415792547250382,-0.34501739055656294,-0.34861996229835984,-0.352381030041728,-0.35629430273756385,-0.3603531543619481,-0.36455064030328505,-0.36887951387889345,-0.3733322429337691,-0.3779010265071727,-0.38257781151165715,-0.3873543093403169,-0.39222201236717846,-0.3971722103380444,-0.40219600659403176,-0.4072843340337655,-0.4124279707832026,-0.4176175555908219,-0.4228436029114164,-0.42809651760098544,-0.43336660921115866,-0.4386441059218925,-0.4439191680889393,-0.44918190133596736,-0.4544223691923539,-0.4596306053342125,-0.46479662542148126,-0.46991043847295555,-0.4749620577941262,-0.4799415115332623,-0.48483885287681766,-0.4896441698416109,-0.49434759469102707,-0.49893931306018946,-0.5034095728081011,-0.5077486925587987,-0.5119470699619628,-0.515995189762551,-0.5198836317058066,-0.5236030782482184,-0.5271443221080783,-0.5304982737472002,-0.5336559688197857,-0.536608575571349,-0.5393474022224003,-0.5418639044192781,-0.544149692781932,-0.5461965405284881,-0.5479963912013958,-0.5495413665673828,-0.5508237747268919,-0.5518361184263753,-0.5525711035937905,-0.5530216481459381,-0.5531808910816071,-0.5530422018380131,-0.5525991899087603,-0.5518457147503149,-0.5507758959888689,-0.5493841239137793,-0.547665070246526,-0.5456136991839207,-0.5432252787040543,-0.5404953921061868,-0.5374199497508318,-0.5339952009713509,-0.5302177461321949,-0.5260845488022226,-0.5215929479961532,-0.5167406704338435,-0.5115258427832381,-0.5059470038565976,-0.5000031167037273,-0.4936935805327012,-0.4870182424145397,-0.4799774087418289,-0.4725718563784309,-0.46480284342138334,-0.4566721195389467,-0.44818193587369604,-0.439335054451891,-0.4301347570046381,-0.4205848531474976,-0.41068968789660665,-0.40045414845361477,-0.38988367016202424,-0.3789842415947939,-0.3677624087738928,-0.3562252784644949,-0.3443805204304903,-0.33223636857254213,-0.3198016209089959,-0.30708563832887104,-0.2940983420361304,-0.2808502096825075,-0.26735227023762,-0.25361609758534226,-0.2396538027859558,-0.22547802500231448,-0.21110192113868417,-0.19653915418541174,-0.18180388021612842,-0.16691073404348195,-0.15187481359104799,-0.13671166298736998,-0.12143725434411139,-0.1060679682382351,-0.09062057296929486,-0.07511220261332312,-0.059560333845738424,-0.043982761548560435,-0.02839757326285506,-0.012823122513916064,0.0027219989941015313,0.01821899027239941,0.03364887094652092,0.048992512106123716,0.06423066808262294,0.07934400909819615,0.09431315469420258,0.10911870786917377,0.12374128988252386,0.1381615756575293,0.1523603296896543,0.16631844237834534,0.18001696671760045,0.19343715526664837,0.2065604973027256,0.21936875606220035,0.23184400598730576,0.24396866989194904,0.2557255559494674,0.26709789440151166,0.27806937388991737,0.2886241773160023,0.2987470171288453,0.30842316993661495,0.31763851033421414,0.32637954385076867,0.33463343892499414,0.3423880578050427,0.34963198626158626,0.3563545620131366,0.3625459017715947,0.36819692680922256,0.37329938694795717,0.37784588289349064,0.38182988685157027,0.38524576135216837,0.38808877619870275,0.39035512347838475,0.3920419305868873,0.3931472712107838,0.39367017420120237,0.3936106302865297,0.3929695965889695,0.391748998908254,0.3899517317347748,0.38758165597147654,0.384643594360928,0.381143324614814,0.37708757024450207,0.3724839891081844,0.36734115970604925,0.3616685652547354,0.35547657556856255,0.3487764267819436,0.3415801989590688,0.333900791644346,0.3257518974121865,0.31714797348194496,0.30810421147270467,0.29863650538039166,0.288761417863423,0.2784961449233849,0.26785847907143623,0.2568667710819,0.24553989044040675,0.2338971845889371,0.22195843706960178,0.2097438246827107,0.19727387378407946,0.18456941583861275,0.1716515423425723,0.1585415592404478,0.14526094097056189,0.1318312842595656,0.11827426177671177,0.10461157577449469,0.09086491185472449,0.07705589298562841,0.06320603388364086,0.049336695885669184,0.03546904244546339,0.021623995368782033,0.007822191886750507,-0.005916057321119827,-0.019570809035795556,-0.033122527244164736,-0.04655212164394052,-0.05984098481651182,-0.0729710279653248,-0.08592471513941093,-0.0986850958810835,-0.11123583622456824,-0.1235612479653105,-0.13564631614699812,-0.1474767247350139,-0.1590388804286133,-0.17031993454815392,-0.18130780295226373,-0.19199118395985432,-0.20235957424344658,-0.21240328265510627,-0.22211344197105415,-0.23148201856195166,-0.24050181998578207,-0.2491665004941766,-0.2574705644688738,-0.265409367825904,-0.27297911741065556,-0.28017686839233097,-0.28700051968287627,-0.293448807423435,-0.2995212965732052,-0.3052183706288151,-0.3105412195212475,-0.3154918257543406,-0.3200729488410474,-0.3242881080896174,-0.3281415638141081,-0.33163829706031844,-0.33478398792363834,-0.3375849925199473,-0.3400483186819932,-0.34218160046667717,-0.3439930715495197,-0.3454915375730743,-0.34668634752667976,-0.3475873642458949,-0.3482049341132381,-0.34854985603623684,-0.3486333497903989,-0.348467023824199,-0.3480628426139634,-0.3474330936465935,-0.3465903541138749,-0.3455474574087177,-0.34431745950691733,-0.34291360531138454,-0.3413492950414882,-0.3396380507551499,-0.33779348308343365,-0.33582925824695214,-0.3337590654218236,-0.3315965845245918,-0.3293554544834237,-0.32704924206135605,-0.32469141130032014,-0.3222952936558628,-0.3198740588868802,-0.31744068675802967,-0.31500793961041745,-0.3125883358551846,-0.3101941244404382,-0.3078372603365111,-0.3055293810807315,-0.3032817844204762,-0.3011054070909979,-0.29901080476199743,-0.2970081331841738,-0.2951071305640655,-0.2933171011920817,-0.29164690034379054,-0.2901049204685447,-0.2886990786753408,-0.2874368055239928,-0.28632503512426205,-0.28537019653447987,-0.2845782064449968,-0.28395446313683953,-0.28350384171045356,-0.2832306905738779,-0.28313882917400396,-0.2832315469565901,-0.28351160353859234,-0.2839812300627252,-0.2846421316960011,-0.2854954912421846,-0.2865419738419868,-0.2877817327201931,-0.28921441592939506,-0.2908391740524704,-0.2926546688335224,-0.29465908269006713,-0.2968501290479354,-0.2992250634563838,-0.30178069544949704,N
5,-0.13535878495287923,-0.1493916060573246,-0.1632278221325364,-0.1768497406803501,-0.19024033109165694,-0.20338325433154084,-0.21626289073029983,-0.2288643658269233,-0.24117357423189714,-0.2531772014655917,-0.26486274372080926,-0.27621852552145504,-0.2872337152698205,-0.29789833866495247,-0.3082032899693243,-0.3181403411282952,-0.3277021487683233,-0.33688225908430924,-0.34567511061026246,-0.3540760348835741,-0.36208125503157196,-0.3696878823020327,-0.37689391055571947,-0.38369820876268906,-0.3901005115630743,-0.3961014079412743,-0.40170232805122547,-0.4069055282468556,-0.41171407438804714,-0.416131823483723,-0.4201634037268571,-0.4238141929940955,-0.42709029589783,-0.4299985194676895,-0.43254634752753984,-0.43474191384636274,-0.43659397415379286,-0.43811187710275307,-0.4393055342540791,-0.4401853891701711,-0.4407623857154402,-0.4410479356524036,-0.44105388561405406,-0.4407924835431521,-0.44027634469786775,-0.439518417314362,-0.4385319480105793,-0.4373304470275953,-0.43592765341304823,-0.43433750023651085,-0.43257407990785235,-0.43065160966658866,-0.4285843973135146,-0.426386807253564,-0.4240732269185648,-0.42165803364672044,-0.41915556209983157,-0.41658007229004634,-0.4139457182769297,-0.41126651759412414,-0.4085563214657888,-0.40582878586810545,-0.40309734348514337,-0.4003751766069287,-0.39767519101716264,-0.3950099909147395,-0.39239185490988365,-0.389832713135072,-0.3873441255097316,-0.3849372611930177,-0.3826228792530885,-0.3804113105771489,-0.3783124410438656,-0.376335695976278,-0.37449002588580343,-0.3727838935071332,-0.3712252621185285,-0.3698215851464654,-0.36857979705687066,-0.367506305529333,-0.3666069849053803,-0.3658871709054419,-0.36535165661227725,-0.3650046897133142,-0.36484997098875677,-0.36489065403234067,-0.3651293461851033,-0.36556811064391415,-0.3662084696970336,-0.36705140905094863,-0.3680973832198748,-0.3693463219333714,-0.3707976375069803,-0.3724502331364069,-0.3743025120853153,-0.376352387716811,-0.3785972943055601,-0.3810341985878618,-0.3836596120199116,-0.3864696036898916,-0.3894598138133587,-0.3926254677675362,-0.39596139063723473,-0.39946202221525734,-0.40312143238038306,-0.40693333680814264,-0.41089111298840847,-0.41498781648257105,-0.4192161973274941,-0.42356871653816486,-0.42803756269043325,-0.432614668516644,-0.43729172741542277,-0.4420602098339691,-0.4469113795244116,-0.4518363096255903,-0.4568258984852279,-0.46187088519855196,-0.4669618648837725,-0.4720893036539113,-0.47724355320116935,-0.4824148649803465,-0.487593404033179,-0.4927692624333197,-0.49793247228373855,-0.5030730182705375,-0.5081808498338906,-0.5132458929487881,-0.5182580614552607,-0.5232072679531058,-0.5280834343380097,-0.5328765019879117,-0.537576441552465,-0.5421732623721074,-0.5466570216148521,-0.5510178331504119,-0.5552458761233312,-0.5593314032579414,-0.5632647489913486,-0.5670363374688544,-0.5706366903794325,-0.5740564346704893,-0.5772863102377024,-0.580317177628938,-0.5831400257470618,-0.5857459795874295,-0.588126308093451,-0.5902724321615861,-0.5921759327768464,-0.5938285593029954,-0.5952222379974704,-0.596349080784497,-0.5972013942775393,-0.5977716890682959,-0.598052689329012,-0.5980373427446065,-0.5977188307561593,-0.5970905791129215,-0.5961462687531005,-0.5948798470179277,-0.5932855391787084,-0.591357860257532,-0.5890916271300324,-0.586481970888743,-0.5835243494294315,-0.5802145602183681,-0.5765487532067775,-0.5725234438693654,-0.5681355263399943,-0.5633822865962372,-0.5582614156328098,-0.5527710225765983,-0.546909647700466,-0.540676275269784,-0.5340703461488203,-0.5270917701295434,-0.5197409379626567,-0.5120187330296437,-0.5039265425635946,-0.49546626835722907,-0.48664033691985664,-0.47745170900799494,-0.46790388843324726,-0.45800093010173815,-0.4477474472733346,-0.4371486179812432,-0.42621019052195447,-0.41493848798536176,-0.40334041183712094,-0.39142344450635286,-0.37919565088367974,-0.3666656786883317,-0.3538427577087592,-0.34073669786836874,-0.32735788602869004,-0.31371728150691175,-0.29982641033609364,-0.28569735823955544,-0.2713427622442146,-0.2567758009188854,-0.24201018327628998,-0.22706013632432845,-0.21194039120846556,-0.19666616794949557,-0.18125315883461193,-0.16571751046771982,-0.1500758044387726,-0.1343450366274605,-0.11854259520795657,-0.10268623737604772,-0.08679406477723968,-0.0708844976625518,-0.05497624784594091,-0.03908829050136336,-0.023239834803169733,-0.007450293456898455,0.00826074879007537,0.023873567598863804,0.03936833242444589,0.05472514078042899,0.06992405329315883,0.08494512947365125,0.09976846415944947,0.1143742245586782,0.12874268780266557,0.14285427892035643,0.156689609157228,0.1702295145432098,0.18345509459483203,0.19634775104373367,0.20888922649775019,0.22106164293904504,0.23284753995431337,0.24422991259219418,0.25519224876044244,0.26571856610159805,0.27579344829058894,0.2854020806665804,0.29453028507704143,0.3031645538040148,0.3112920824459106,0.31890080162505213,0.32597940739612824,0.33251739025316246,0.3385050626464073,0.3439335849082868,0.3487949894773435,0.35308220332401424,0.3567890684973483,0.359910360706488,0.36244180585000324,0.36438009442966696,0.3657228938042883,0.36646885823083813,0.36661763663198216,0.36616987804582884,0.36512723473192893,0.3634923629052377,0.3612689210667014,0.3584615659145619,0.3550759458376017,0.35111869199401075,0.34659740698169567,0.34152065112130064,0.3358979263887247,0.32973965803680316,0.32305717394665845,0.3158626817592206,0.3081692438495117,0.2999907502115145,0.2913418893226046,0.2822381170597182,0.27269562374699313,0.2627312994250449,0.25236269743995277,0.24160799645302522,0.23048596097667773,0.21901590055003903,0.2072176276695704,0.19511141458068457,0.18271794903429248,0.17005828912851617,0.15715381737002954,0.1440261940854649,0.1306973103090201,0.11718924028224924,0.10352419370566317,0.08972446786523529,0.07581239974679259,0.0618103182663702,0.04774049675584737,0.03362510582795327,0.019486166731996345,0.005345505324638841,-0.008775293211443536,-0.022854928787942465,-0.03687242987327555,-0.050807195886878424,-0.06463903840699849,-0.07834822109628088,-0.09191549826800784,-0.10532215200218364,-0.11855002771109113,-0.13158156807780463,-0.14439984531140437,-0.15698859164855192,-0.16933222801851208,-0.18141589080879592,-0.19322545668857913,-0.20474756543897246,-0.21596964073711036,-0.2268799088710576,-0.2374674153850818,-0.24772203963890732,-0.25763450724958387,-0.2671964004045378,-0.27640016605470025,-0.2852391219862096,-0.29370746076018883,-0.3018002515308784,-0.30951343977197876,-0.31684384493281337,-0.32378915604059644,-0.3303479252880247,-0.33651955966447333,-0.3423043106782554,-0.34770326220966374,-0.35271831655653874,-0.35735217875214575,-0.36160833922084673,-0.36549105482212313,-0.3690053283467199,-0.37215688654344553,-0.37495215674680527,-0.3773982421689912,-0.37950289593626496,-0.38127449396363366,-0.3827220067509948,-0.3838549701730238,-0.3846834553458291,-0.38521803766438784,-0.38546976509630393,-0.38545012580895643,-0.3851710152163179,-0.384644702540587,-0.38388379697645436,-0.38290121354015305,-0.3817101386960955,-0.38032399586166754,-0.37875641087971773,-0.3770211775366102,-0.37513222320788425,-0.37310357471861827,-0.3709493244970517,-0.3686835970903893,-0.36632051611345623,-0.3638741717038852,-0.3613585885515062,-0.3587876945627299,-0.3561752902212855,-0.3535350187079777,-0.3508803368375323,-0.34822448686619467,-0.3455804692249257,-0.34296101623337993,-0.3403785668436849,-0.33784524245589503,-0.335372823844513,-0.3329727292341424,-0.33065599355720915,-0.3284332489177462,-0.3263147062759331,-0.3243101383639884,-0.32242886384699315,-0.32067973274558453,-0.3190711131356418,-0.31761087913665204,-0.3163064001987252,-0.3151645316935218,-0.31419160680450225,-0.3133934297060041,-0.3127752700243661,-0.3123418585776484,-0.31209738438531776,-0.31204549293382267,-0.31218928568412974,-0.31253132080089685,-0.31307361506443954,-0.31381764691726577,-0.3147643606095212,-0.3159141714173468,-0.3172669718962857,-0.31882213912258917,-0.3205785428873849,-0.32253455481590027,-0.3246880583666841,-0.327036459654148,-0.32957669905314335,-0.332305263550979,-0.3352181997859248,-0.33831112769570704,-0.3415792547250382,-0.34501739055656294,-0.34861996229835984,-0.352381030041728,-0.35629430273756385,-0.3603531543619481,-0.36455064030328505,-0.36887951387889345,-0.3733322429337691,-0.3779010265071727,-0.38257781151165715,-0.3873543093403169,-0.39222201236717846,-0.3971722103380444,-0.40219600659403176,-0.4072843340337655,-0.4124279707832026,-0.4176175555908219,-0.4228436029114164,-0.42809651760098544,-0.43336660921115866,-0.4386441059218925,-0.4439191680889393,-0.44918190133596736,-0.4544223691923539,-0.4596306053342125,-0.46479662542148126,-0.46991043847295555,-0.4749620577941262,-0.4799415115332623,-0.48483885287681766,-0.4896441698416109,-0.49434759469102707,-0.49893931306018946,-0.5034095728081011,-0.5077486925587987,-0.5119470699619628,-0.515995189762551,-0.5198836317058066,-0.5236030782482184,-0.5271443221080783,-0.5304982737472002,-0.5336559688197857,-0.536608575571349,-0.5393474022224003,-0.5418639044192781,-0.544149692781932,-0.5461965405284881,-0.5479963912013958,-0.5495413665673828,-0.5508237747268919,-0.5518361184263753,-0.5525711035937905,-0.5530216481459381,-0.5531808910816071,-0.5530422018380131,-0.5525991899087603,-0.5518457147503149,-0.5507758959888689,-0.5493841239137793,-0.547665070246526,-0.5456136991839207,-0.5432252787040543,-0.5404953921061868,-0.5374199497508318,-0.5339952009713509,-0.5302177461321949,-0.5260845488022226,-0.5215929479961532,-0.5167406704338435,-0.5115258427832381,-0.5059470038565976,-0.5000031167037273,-0.4936935805327012,-0.4870182424145397,-0.4799774087418289,-0.4725718563784309,-0.46480284342138334,-0.4566721195389467,-0.44818193587369604,-0.439335054451891,-0.4301347570046381,-0.4205848531474976,-0.41068968789660665,-0.40045414845361477,-0.38988367016202424,-0.3789842415947939,-0.3677624087738928,-0.3562252784644949,-0.3443805204304903,-0.33223636857254213,-0.3198016209089959,-0.30708563832887104,-0.2940983420361304,-0.2808502096825075,-0.26735227023762,-0.25361609758534226,-0.2396538027859558,-0.22547802500231448,-0.21110192113868417,-0.19653915418541174,-0.18180388021612842,-0.16691073404348195,-0.15187481359104799,-0.13671166298736998,-0.12143725434411139,-0.1060679682382351,-0.09062057296929486,-0.07511220261332312,-0.059560333845738424,-0.043982761548560435,-0.02839757326285506,-0.012823122513916064,0.0027219989941015313,0.01821899027239941,0.03364887094652092,0.048992512106123716,0.06423066808262294,0.07934400909819615,0.09431315469420258,0.10911870786917377,0.12374128988252386,0.1381615756575293,0.1523603296896543,0.16631844237834534,0.18001696671760045,0.19343715526664837,0.2065604973027256,0.21936875606220035,0.23184400598730576,0.24396866989194904,0.2557255559494674,0.26709789440151166,0.27806937388991737,0.2886241773160023,0.2987470171288453,0.30842316993661495,0.31763851033421414,0.32637954385076867,0.33463343892499414,0.3423880578050427,0.34963198626158626,0.3563545620131366,0.3625459017715947,0.36819692680922256,0.37329938694795717,0.37784588289349064,0.38182988685157027,0.38524576135216837,0.38808877619870275,0.39035512347838475,0.3920419305868873,0.3931472712107838,0.39367017420120237,0.3936106302865297,0.3929695965889695,0.391748998908254,0.3899517317347748,0.38758165597147654,0.384643594360928,0.381143324614814,0.37708757024450207,0.3724839891081844,0.36734115970604925,0.3616685652547354,0.35547657556856255,0.3487764267819436,0.3415801989590688,0.333900791644346,0.3257518974121865,0.31714797348194496,0.30810421147270467,0.29863650538039166,0.288761417863423,0.2784961449233849,0.26785847907143623,0.2568667710819,0.24553989044040675,0.2338971845889371,0.22195843706960178,0.2097438246827107,0.19727387378407946,0.18456941583861275,0.1716515423425723,0.1585415592404478,0.14526094097056189,0.1318312842595656,0.11827426177671177,0.10461157577449469,0.09086491185472449,0.07705589298562841,0.06320603388364086,0.049336695885669184,0.03546904244546339,0.021623995368782033,0.007822191886750507,-0.005916057321119827,-0.019570809035795556,-0.033122527244164736,-0.04655212164394052,-0.05984098481651182,-0.0729710279653248,-0.08592471513941093,-0.0986850958810835,-0.11123583622456824,-0.1235612479653105,-0.13564631614699812,-0.1474767247350139,-0.1590388804286133,-0.17031993454815392,-0.18130780295226373,-0.19199118395985432,-0.20235957424344658,-0.21240328265510627,-0.22211344197105415,-0.23148201856195166,-0.24050181998578207,-0.2491665004941766,-0.2574705644688738,-0.265409367825904,-0.27297911741065556,-0.28017686839233097,-0.28700051968287627,-0.293448807423435,-0.2995212965732052,-0.3052183706288151,-0.3105412195212475,-0.3154918257543406,-0.3200729488410474,-0.3242881080896174,-0.3281415638141081,-0.33163829706031844,-0.33478398792363834,-0.3375849925199473,-0.3400483186819932,-0.34218160046667717,-0.3439930715495197,-0.3454915375730743,-0.34668634752667976,-0.3475873642458949,-0.3482049341132381,-0.34854985603623684,-0.3486333497903989,-0.348467023824199,-0.3480628426139634,-0.3474330936465935,-0.3465903541138749,-0.3455474574087177,-0.34431745950691733,-0.34291360531138454,-0.3413492950414882,-0.3396380507551499,-0.33779348308343365,-0.33582925824695214,-0.3337590654218236,-0.3315965845245918,-0.3293554544834237,-0.32704924206135605,-0.32469141130032014,-0.3222952936558628,-0.3198740588868802,-0.31744068675802967,-0.31500793961041745,-0.3125883358551846,-0.3101941244404382,-0.3078372603365111,-0.3055293810807315,-0.3032817844204762,-0.3011054070909979,-0.29901080476199743,-0.2970081331841738,-0.2951071305640655,-0.2933171011920817,-0.29164690034379054,-0.2901049204685447,-0.2886990786753408,-0.2874368055239928,-0.28632503512426205,-0.28537019653447987,-0.2845782064449968,-0.28395446313683953,-0.28350384171045356,-0.2832306905738779,-0.28313882917400396,-0.2832315469565901,-0.28351160353859234,-0.2839812300627252,-0.2846421316960011,-0.2854954912421846,-0.2865419738419868,-0.2877817327201931,-0.28921441592939506,-0.2908391740524704,-0.2926546688335224,-0.29465908269006713,-0.2968501290479354,-0.2992250634563838,-0.30178069544949704,-0.30451340109653513,-0.3074191361693772,-0.3104934498790016,-0.31373149914881726,-0.3171280633665413,-0.320677559538996,-0.3243740578027168,-0.3282112972590896,-0.33218270206448297,-0.3362813976827643,-0.34050022724930645,-0.3448317680239423,-0.3492683478676106,-0.35380206164938194,-0.35842478754249796,-0.3631282032089791,-0.36790380183043103,-0.37274290791099673,-0.3776366928303651,-0.3825761901607618,-0.38755231070556356,-0.39255585717839353,-0.39757753850422933,-0.4026079837703849,-0.40763775579387934,-0.41265736422732374,-0.41765727819553494,-0.42262793850817343,-0.42755976942630286,-0.4324431899105729,-0.4372686243564772,-0.4420265128889169,-0.44670732122852996,-0.45130155009045003,-0.45579974414529856,-0.4601925006280405,-0.4644704776118811,-0.4686244019086163,-0.4726450766276881,-0.47652338848942216,-0.48025031492878106,-0.4838169309714648,-0.4872144159241478,-0.490434059972515,-0.49346727071950447,-0.4963055796418585,-0.4989406484948344,-0.5013642757264928,-0.5035684028770965,-0.5055451208786929,-0.5072866762515262,-0.5087854772866647,-0.510034100282996,-0.5110252958627106,-0.5117519954202167,-0.5122073177946377,-0.5123845762225699,-0.5122772855876824,-0.511879169999104,-0.5111841707509707,-0.5101864546897062,-0.5088804229841942,-0.5072607202994608,-0.5053222443863266,-0.503060156083931,-0.5004698897101576,-0.4975471638132065,-0.4942879922664294,-0.49068869568988704,-0.48674591317174,-0.4824566142478978,-0.4778181110960386,-0.4728280709135361,-0.4674845284494484,-0.46178589863478714,-0.4557309892425321,-0.4493190135330021,-0.44254960285139844,-0.43542281910977176,-0.4279391670646955,-0.4200996063359457,-0.4119055631325741,-0.40335894161172486,-0.39446213476814557,-0.3852180347949605,-0.37563004288617,-0.3657020784064792,-0.35543858732574857,-0.34484454987170493,-0.333925487393891,-0.32268746837664214,-0.3111371134966346,-0.29928159967641604,-0.2871286631299986,-0.2746866013420061,-0.26196427388036286,-0.2489711020046287,-0.23571706708209353,-0.22221270776772353,-0.20846911585939978,-0.1944979308028937,-0.18031133287389636,-0.1659220350098256,-0.15134327322001861,-0.13658879556705839,-0.12167284976646721,-0.10661016939768526,-0.09141595867057047,-0.07610587574726814,-0.060696014671551016,-0.0452028859125504,-0.02964339548940882,-0.014034822696974878,0.001605203497545995,0.017258729356765104,0.032907502581248894,0.04853299978436964,0.064116455149608,0.07963889021932613,0.09508114479897095,0.11042390892605775,0.12564775581546966,0.14073317571495236,0.15566061063071013,0.17041048985756124,0.18496326621812909,0.1992994529277689,0.21339966101779445,0.2272446372303431,0.24081530227583942,0.25409278935204205,0.2670584828398076,0.2796940570876877,0.2919815151853745,0.3039032276212973,0.3154419707193753,0.3265809647466119,0.33730391157749284,0.34759503179782736,0.357439101135395,0.36682148611618803,0.3757281788484179,0.384145830825049,0.3920617856284259,0.39946411043060787,0.40634162619111397,0.41268393644585377,0.4184814545791006,0.4237254294898304,0.42840796957779526,0.4325220649636625,0.43606160784977144,0.4390214109462276,0.44139722390362923,0.44318574768547747,0.4443846468066537,0.44499255938221594,0.4450091049485685,0.44443489001498165,0.44327151130027936,0.44152155662755604,0.43918860346769034,0.43627721512057427,0.43279293451952894,0.4287422756573278,0.42413271264789154,0.4189726664415693,0.41327148921442236,0.40703944646416346,0.40028769685883947,0.3930282698893181,0.3852740413777482,0.3770387068988538,0.3683367531799053,0.3591834275554533,0.3495947055601831,0.33958725674658585,0.32917840881958704,0.31838611019025864,0.3072288910553772,0.2957258231042831,0.2838964779545162,0.2717608844321186,0.25933948482255714,0.24665309021095064,0.2337228350262547,0.2205701309184788,0.2072166201083853,0.19368412833832607,0.17999461754486615,0.16617013838649242,0.15223278276558172,0.1382046364635865,0.12410773199513281,0.10996400180543234,0.09579523195293774,0.08162301640694222,0.06746871207594698,0.05335339469167791,0.039297815676667874,0.025322360098196103,0.011447005792893926,-0.0023087162393678746,-0.015925760063551404,-0.029385601574065723,-0.04267027373030381,-0.055762400183331826,-0.06864522720266193,-0.08130265383450731,-0.09371926024344397,-0.10588033417763673,-0.11777189548851971,-0.1293807186586374,-0.1406943533121687,-0.1517011426726418,-0.16239023992516755,-0.17275162246430442,-0.1827761040294955,-0.19245534471954237,-0.2017818588692006,-0.21074902079295563,-0.21935106842091354,-0.22758310484187574,-0.23544109776064784,-0.24292187689739,-0.25002312937551624,-0.2567433931351666,-0.2630820484020733,-0.2690393072621846,-0.2746162014100315,-0.2798145681277034,-0.284637034541162,-0.28908700021717953,-0.2931686181797,-0.2968867744144735,-0.30024706592148626,-0.303255777389057,-0.30591985657698034,-0.3082468884870486,-0.3102450683905347,-0.3119231737941468,-0.31329053543730123,-0.31435700740508316,-0.3151329364321573,-0.31562913048096125,-0.31585682668619225,-0.3158276587513937,-0.3155536238774434,-0.31504704931050104,-0.3143205586038324,-0.31338703768104487,-0.31225960078151377,-0.3109515563743733,-0.30947637313235005,-0.3078476460494208,-0.30607906277904146,-0.3041843702733961,-0.3021773418073281,-0.30007174446267076,-0.2978813071387993,-0.29561968915328557,-0.29330044949713646,-0.2909370168054824,-0.28854266010034896,-0.2861304603614699,-0.28371328298063575,-0.28130375115118916,-0.27891422023907514,-0.2765567531782949,-0.2742430969314223,-0.2719846600537604,-0.26979249139737155,-0.2676772599886342,-0.26564923611019836,-0.2637182736145808,-0.26189379349027664,-0.26018476869269025,-0.25859971024727446,-0.25714665463399544,-0.2558331524638423,-0.2546662584541285,-0.25365252270480465,-0.25279798327727737,-0.2521081600747371,-0.25158805001498324,-0.25124212348098923,-0.25107432203555546,-0.25108805738352824,-0.2512862115521365,-0.2516711382524274,-0.25224466539226204,-0.25300809871530444,-0.2539622265278915,-0.25510732546716514,-0.25644316727422517,-0.25796902654185777,-0.2596836893906925,-0.26158546301731184,-0.26367218607227094,-0.26594123983458406,-0.26838956012984727,N
