0,0.12581859823357475,0.12791509852087443,0.12971297603668805,0.13120806024790907,0.13239658494187861,0.13327519879596234,0.13384097504642006,0.13409142019153536,0.13402448168686437,0.13363855461851532,0.1329324873479723,0.1319055861206097,0.13055761863463175,0.12888881656804949,0.12689987705099712,0.12459196306615791,0.12196670277263295,0.11902618775897562,0.11577297022468387,0.11221005908539357,0.10834091501179217,0.10416944442914318,0.09969999250644886,0.09493733516225723,0.08988667011967773,0.08455360704734395,0.0789441568179058,0.07306471991227571,0.06692207400620027,0.060523360787594425,0.053876072058209566,0.0469880351726514,0.03986739786720556,0.03252261253509909,0.02496242001284186,0.017195832943886664,0.009232118772742342,0.0010807823980320413,-0.007248451511406297,-0.015745656539491622,-0.02440072286737447,-0.03320337589224958,-0.0421431950535563,-0.05120963279644309,-0.06039203361360805,-0.06967965312446577,-0.0790616771655515,-0.08852724087030454,-0.09806544770942278,-0.10766538845648967,-0.11731616004569918,-0.12700688429101098,-0.13672672643379621,-0.14646491349303578,-0.15621075241351343,-0.16595364801610465,-0.17568312073240852,-0.18538882407954635,-0.19506056182551176,-0.20468830479946729,-0.21426220730003406,-0.22377262305800857,-0.23321012072537048,-0.24256549887144405,-0.25182980045623565,-0.26099432673752393,-0.2700506505691483,-0.27899062905397837,-0.28780641551518454,-0.2964904707507872,-0.305035573545623,-0.3134348304222932,-0.32168168461196883,-0.32976992422985735,-0.3376936896560017,-0.34544748013140786,-0.3530261595700642,-0.36042496157979553,-0.36763949369515425,-0.3746657408343098,-0.3815000679810133,-0.38813922207582874,-0.39458033309547436,-0.40082091430348765,-0.4068588616617551,-0.41269245239831875,-0.4183203427323,-0.42374156476178737,-0.4289555225241225,-0.4339619872373458,-0.4387610917273791,-0.4433533240466262,-0.44773952029822134,-0.4519208566795641,-0.4558988407424969,-0.4596753018627822,-0.46325238093501797,-0.46663251932982197,-0.4698184471438269,-0.4728131707674055,-0.47561995981137967,-0.4782423334388794,-0.480684046120841,-0.48294907281988836,-0.4850415936375401,-0.48696597797759794,-0.48872676824539535,-0.4903286630829043,-0.4917765001782459,-0.4930752387075594,-0.4942299414148821,-0.49524575630575796,-0.4961278979893029,-0.4968816287460611,-0.49751223934609357,-0.49802502960494444,-0.4984252887326272,-0.4987182755895749,-0.4989091989193892,-0.4990031975884714,-0.4990053209175554,-0.4989205092317957,-0.49875357469659926,-0.4985091824597723,-0.49819183217884533,-0.49780584006009987,-0.49735532147776074,-0.4968441741927162,-0.4962760622472957,-0.49565440066724786,-0.4949823410575447,-0.49426275813209664,-0.4934982372537794,-0.4926910630818563,-0.4918432093513213,-0.49095632975571035,-0.4900317499610282,-0.4890704608323359,-0.4880731129096338,-0.48704001212304043,-0.48597111677663846,-0.48486603586532667,-0.48372402873987647,-0.4825440060900578,-0.48132453225199795,-0.4800638288838935,-0.4787597800198183,-0.47740993847277796,-0.4760115335785251,-0.4745614802869018,-0.47305638956272134,-0.471492580021037,-0.4698660907468385,-0.4681726952663475,-0.4664079165904046,-0.4645670432150183,-0.46264514600362433,-0.46063709592402075,-0.4585375826044576,-0.45634113365013756,-0.4540421346705876,-0.4516348499763174,-0.4491134438775026,-0.44647200249531305,-0.4437045560112114,-0.44080510129931594,-0.43776762487949417,-0.43458612611519176,-0.43125464058422547,-0.4277672635585039,-0.42411817352298287,-0.4203016556556036,-0.4163121251933781,-0.41214415062518284,-0.407792476668871,-0.4032520469922598,-0.3985180266206794,-0.3935858239633621,-0.38845111240236047,-0.38310985139410053,-0.37755830701864024,-0.37179307191259403,-0.3658110845588617,-0.359609647924403,-0.35318644740005056,-0.3465395679650909,-0.33966751052232036,-0.3325692073697095,-0.32524403674515856,-0.31769183635774634,-0.3099129158490581,-0.30190806815354865,-0.2936785797005844,-0.2852262393834061,-0.27655334625932426,-0.2676627159754902,-0.2585576858849245,-0.24924211879858466,-0.23972040536513134,-0.22999746510421465,-0.220078746081454,-0.20997022318217212,-0.1996783949807564,-0.18921027923716388,-0.17857340701800006,-0.16777581541285513,-0.15682603886000857,-0.14573309913182642,-0.1345064939952454,-0.12315618453381849,-0.11169258115932157,-0.10012652837682678,-0.08846928833289551,-0.07673252314537653,-0.06492827604881139,-0.053068951423072476,-0.04116729374587651,-0.029236365491378993,-0.01728952404286023,-0.00534039772244424,0.006597138997986565,0.01850899108470699,0.030380869293321382,0.042198317221762344,0.05394673902990696,0.06561142785903978,0.07717759504758778,0.08863040024182703,0.09995498241872446,0.11113649171625371,0.12216012186854845,0.13301114301542555,0.14367493469669418,0.15413701887797587,0.16438309283811442,0.1743990617353039,0.18417107070738442,0.1936855363950582,0.20292917775813585,0.21188904604083375,0.22055255378190114,0.22890750280913014,0.23694211115696034,0.24464503883643768,0.2520054124035424,0.2590128482771054,0.26565747472470486,0.27192995241842305,0.27782149350339463,0.28332387917087537,0.2884294757347465,0.29313124920317096,0.29742277834753905,0.30129826627582623,0.30475255049761285,0.3077811114562282,0.31038007952538077,0.3125462404918877,0.31427703954356384,0.315570583774144,0.31642564322768674,0.3168416505133781,0.3168186990106622,0.31635753967659264,0.3154595764814931,0.314126860515943,0.3123620828121105,0.31016856591786474,0.3075502542666292,0.3045117033891803,0.3010580680062592,0.2971950890356697,0.29292907955469943,0.2882669097655532,0.28321599100715183,0.2777842588525509,0.27198015533737463,0.26581261036992565,0.25929102236860957,0.25242523816828166,0.2452255322422673,0.23770258528647129,0.22986746219763324,0.22173158947093055,0.21330673205702327,0.2046049697312578,0.19563867301933685,0.18642047871693096,0.1769632650542262,0.1672801265676873,0.15738434873160453,0.14728938239389264,0.13700881807290244,0.1265563601821028,0.11594580123863217,0.10519099610251458,0.09430583630575134,0.0833042245452798,0.07220004941132657,0.06100716041533639,0.04973934338215755,0.038410296266296245,0.02703360543327632,0.015622722435995941,0.004190941327894257,-0.007248623430946007,-0.018683058421538928,-0.03009967202211243,-0.04148601442819445,-0.052829896903170144,-0.06411941025425538,-0.07534294254302379,-0.08648919601807566,-0.09754720323019085,-0.1085063422871937,-0.11935635121333633,-0.1300873413803688,-0.14068980999021205,-0.1511546516198475,-0.1614731688544385,-0.17163708201228442,-0.18163853793588555,-0.19147011781858134,-0.20112484404379224,-0.21059618601798524,-0.2198780649926868,-0.2289648579014114,-0.23785140025263507,-0.24653298809908533,-0.2550053790768955,-0.2632647925054196,-0.2713079085462881,-0.27913186642017146,-0.28673426168016897,-0.29411314255115456,-0.3012670053535074,-0.3081947890292424,-0.31489586879327897,-0.3213700489509947,-0.32761755493376915,-0.33363902459150385,-0.3394354987657945,-0.34500841116914505,-0.35035957760198844,-0.35549118453759804,-0.3604057771084636,-0.3651062465449015,-0.36959581712604866,-0.3738780326883366,-0.37795674271441254,-0.38183608801673835,-0.38552048603263483,-0.38901461575469126,-0.3923234023360736,-0.3954520014326693,-0.39840578335274174,-0.4011903170689384,-0.40381135412920655,-0.4062748125020388,-0.40858676039512964,-0.4107534000812428,-0.4127810517612281,-0.4146761375009605,-0.41644516528374936,-0.4180947132134362,-0.4196314139019343,-0.4210619390883767,-0.42239298454363666,-0.42363125529887413,-0.42478345122375694,-0.4258562529878642,-0.4268563084448955,-0.4277902194660932,-0.4286645292426545,-0.42948571009477954,-0.43026015183452104,-0.43099415070357194,-0.431693898870841,-0.43236547445882634,-0.4330148320692073,-0.4336477937843561,-0.43427004063172386,-0.43488710451146056,-0.43550436059396874,-0.436127020186166,-0.43676012404910614,-0.43740853613638553,-0.4380769377216467,-0.4387698218948445,-0.4394914884166635,-0.44024603891923386,-0.4410373724404232,-0.44186918128436353,-0.4427449471912425,-0.4436679377679646,-0.4446412031201374,-0.44566757265645046,-0.44674965205237965,-0.44788982032563,-0.4490902269580656,-0.4503527890427349,-0.4516791884581167,-0.45307086901977744,-0.4545290335310358,-0.456054640719452,-0.45764840209606106,-0.4593107787257752,-0.4610419778623619,-0.46284194946696405,-0.46471038267432735,-0.4666467022037238,-0.4686500646656218,-0.4707193547916364,-0.4728531816687589,-0.475049874978684,-0.47730748118688826,N,,,,,,,,,,,,,,,,,,,,,,,,,,,,,,,,,,,,,,,,,,,,,,,,,,,,,,,,,,,,,,,,,,,,,,,,,,,,,,,,,,,,,,,,,,,,,,,,,,,,,,,,,,,,,,,,,,,,,,,,,,,,,,,,,,,,,,,,,,,,,,,,,,,,,,,,,,,,,,,,,,,,,,,,,,,,,,,,,,,,,,,,,,,,,,,,,,,,,,,,,,,,,,,,,,,,,,,,,,,,,,,,,,,,,,,,,,,,,,,,,,,,,,,,,,,,,,,,,,,,,,,,,,,,,,,,,,,,,,,,,,,,,,,,,,,,,,,,,,,,,,,,,,,,,,,,,,,,,,,,,,,,,,,,,,,,,,,,,,,,,,,,,,,,,,,,,,,,,,,,,,,,,,,,,,,,,,,,,,,,,,,,,,,,,,,,,,,,,,,,,,,,,,,,,,,,,,,,,,,,,,,,,,,,,,,,,,,,,,,,,,,,,,,,,,,,,,,,,,,,,,,,,,,,,,,,,,,,,,,,,,,,,,,,,,,,,,,,,,,,,,,,,,,,,,,,,,,,,,,,,,,,,,,,,,,,,,,,,,,,,,,,,,,,,,,,,,,,,,,,,,,,,,,,,,,,,,,,,,,,,,,,
1,-0.07906583010659882,-0.08947252548245546,-0.09969000872068431,-0.10971299306371893,-0.11953661339367343,-0.12915642681728215,-0.13856841245477328,-0.14776897047499685,-0.1567549203999871,-0.1655234986740696,-0.17407235548193437,-0.18239955080405604,-0.1905035497080406,-0.1983832168963313,-0.20603781056192935,-0.2134669756166003,-0.22067073633403975,-0.22764948841912522,-0.2344039905014502,-0.24093535505394134,-0.24724503874525483,-0.25333483224971365,-0.2592068495593517,-0.264863516851637,-0.2703075609553399,-0.2755419974475918,-0.2805701184235351,-0.2853954799867192,-0.2900218894962729,-0.2944533925919159,-0.298694260016999,-0.30274897426385244,-0.3066222160627143,-0.3103188507296823,-0.3138439143878146,-0.3172026000779595,-0.32040024378093834,-0.3234423103850719,-0.32633437965127654,-0.32908213223454563,-0.3316913358062141,-0.33416783130494165,-0.33651751934264684,-0.33874634679408366,-0.34086029359243986,-0.3428653597438698,-0.3447675525700342,-0.34657287418861604,-0.34828730924574786,-0.34991681292631654,-0.3514672992866423,-0.3529446299600642,-0.3543546032682718,-0.35570294374722805,-0.35699529208523834,-0.35823719547015304,-0.3594340983454744,-0.36059133358149936,-0.36171411407686244,-0.36280752480918704,-0.3638765153468488,-0.36492589282801696,-0.36596031541620916,-0.36698428624389184,-0.36800214784812785,-0.3690180770917381,-0.3700360805586908,-0.3710599904125515,-0.3720934607079555,-0.3731399641459953,-0.37420278926516753,-0.3752850380601133,-0.37638962402082726,-0.3775192705853129,-0.37867650999885044,-0.37986368257311404,-0.3810829363373444,-0.38233622706878795,-0.3836253186814093,-0.38495178394925506,-0.3863170055489921,-0.38772217741704623,-0.3891683064216644,-0.3906562143500533,-0.3921865402071918,-0.3937597428110162,-0.3953761036500232,-0.3970357299629479,-0.3987385580152829,-0.40048435656088155,-0.4022727304712308,-0.4041031245097313,-0.4059748272383953,-0.4078869750453905,-0.40983855625909704,-0.4118284153032977,-0.4138552568712081,-0.41591765011014664,-0.41801403278393606,-0.42014271536549613,-0.4223018850421242,-0.42448960963382254,-0.4267038413905585,-0.42894242061373256,-0.43120307908762406,-0.43348344333251815,-0.43578103764782045,-0.43809328688617294,-0.44041751894990894,-0.4427509670305794,-0.4450907715507522,-0.44743398172989807,-0.44977755676880493,-0.45211836670851424,-0.45445319297238074,-0.4567787285600158,-0.4590915779224725,-0.4613882565807859,-0.4636651904616205,-0.46591871486868014,-0.4681450731047896,-0.47034041485337275,-0.4725007943857382,-0.47462216861120865,-0.4767003950460986,-0.4787312298169084,-0.48071032572993255,-0.4826332303787795,-0.48449538433775974,-0.48629211955613894,-0.48801865800321975,-0.4896701105553025,-0.49124147618187125,-0.49272764154726095,-0.4941233810808238,-0.49542335751023797,-0.496622122909069,-0.49771412035892565,-0.4986936862633819,-0.49955505329387145,-0.500292353999299,-0.50089962515767,-0.5013708128908848,-0.5016997785105687,-0.5018803051104647,-0.5019061049758088,-0.5017708278507812,-0.5014680700629793,-0.5009913845214936,-0.5003342916219679,-0.4994902910509812,-0.49845287444359243,-0.49721553886485986,-0.4957718011002619,-0.494115212701386,-0.4922393757001851,-0.4901379589304227,-0.4878047149320633,-0.48523349741205185,-0.4824182792160652,-0.4793531707598689,-0.4760324388555433,-0.4724505258322876,-0.46860206883057415,-0.4644819191704966,-0.46008516173037856,-0.455407134284916,-0.45044344674684594,-0.44519000024878413,-0.43964300600006584,-0.4337990038562903,-0.42765488053790773,-0.42120788742532006,-0.4144556578552259,-0.40739622385352475,-0.40002803224541,-0.39234996006999073,-0.38436132921249283,-0.376061920168511,-0.3674519848612106,-0.35853225843484704,-0.34930396996342317,-0.3397688520475234,-0.3299291492892372,-0.3197876256119546,-0.3093475703652492,-0.29861280315860206,-0.2875876773800782,-0.276277082355353,-0.26468644411128983,-0.2528217247411576,-0.24068942038857133,-0.2282965578510386,-0.21565068979603716,-0.20275988861409386,-0.18963273895532637,-0.1762783289720885,-0.16270624027449554,-0.14892653663857935,-0.13494975153121191,-0.12078687448562389,-0.10644933633253142,-0.09194899331350306,-0.07729811012585838,-0.0625093419289579,-0.04759571533024487,-0.03257060840529269,-0.01744772983216017,-0.0022410971933195857,0.013034985519074038,0.028365951119384912,0.04373699306303525,0.05913308983209294,0.07453902983109195,0.0899394367123671,0.1053187950206741,0.12066147609094287,0.13595176417793878,0.1511738827766083,0.16631202106691914,0.18135036044192782,0.19627310109361756,0.21106448859033428,0.22570884035075928,0.24019057195559793,0.25449422326919136,0.2686044843113091,0.2825062207924147,0.29618449926168866,0.30962461185131795,0.3228121005759732,0.335732781122013,0.3483727660879041,0.3607184876558606,0.3727567196372272,0.38447459880754414,0.39585964548378816,0.4068997833264829,0.41758335831703386,0.4278991568350152,0.43783642280144125,0.44738487390172027,0.4565347168960496,0.4652766620070618,0.47360193638681114,0.4815022966665681,0.48897004055272975,0.4959980174081684,0.5025796377949159,0.5087088819978844,0.5143803075484192,0.5195890557527734,0.5243308572384366,0.5286020365296635,0.5323995156298102,0.5357208165687632,0.5385640629022669,0.5409279801783108,0.5428118953729285,0.5442157352834384,0.5451400238883489,0.5455858787051752,0.5455550061673139,0.545049696028851,0.5440728148185014,0.5426277983696135,0.5407186434289715,0.5383498983322759,0.5355266527589867,0.5322545266057003,0.5285396580108829,0.5243886905532394,0.5198087596588605,0.5148074782617562,0.5093929217458846,0.5035736121846499,0.4973585019104067,0.49075695646114686,0.4837787369386452,0.4764339818010929,0.4687331881294336,0.46068719242422235,0.45230715098396906,0.4436045199068736,0.43459103476554695,0.42527869001057306,0.41567971814748084,0.4058065687222133,0.39567188715755053,0.3852884934849189,0.37466936099722903,0.3638275948369555,0.35277641055087294,0.34152911266127284,0.3300990732982424,0.318499710928971,0.3067444692278493,0.29484679613670667,0.2828201231519147,0.2706778448650921,0.2584332987937243,0.2460997455464446,0.2336903493574542,0.2212181590151025,0.20869608921774155,0.19613690239643491,0.18355319103284864,0.17095736049104673,0.15836161239021357,0.14577792855263222,0.13321805555134741,0.12069348987274348,0.10821546371599072,0.09579493145593038,0.08344255678384555,0.07116870053092489,0.05898340918852162,0.04689640415082879,0.034917071702514506,0.02305445376677794,0.011317239427916478,-0.0002862427678321729,-0.011748031755164808,-0.023060540170781837,-0.0342165598680814,-0.045209266720286655,-0.05603222471092031,-0.06667938931892749,-0.07714511019576233,-0.08742413311562426,-0.09751160117530801,-0.10740305522500516,-0.11709443352015517,-0.12658207060039053,-0.1358626954233241,-0.1449334287908475,-0.15379178009339992,-0.16243564337941266,-0.1708632927503845,-0.17907337708498142,-0.18706491410145146,-0.19483728377694423,-0.2023902211543193,-0.2097238085729586,-0.21683846735176218,-0.22373494892937754,-0.23041432543977716,-0.23687797969599492,-0.24312759458185418,-0.24916514188271488,-0.2549928705961034,-0.26061329476312645,-0.2660291808634236,-0.2712435348009658,-0.27625958847028004,-0.28108078587897983,-0.2857107688386041,-0.29015336226763316,-0.29441255913643755,-0.29849250507101704,-0.30239748265858946,-0.3061318955103839,-0.3097002520982851,-0.31310714935961415,-0.3163572561049782,-0.3194552962899041,-0.32240603216578545,-0.325214247296581,-0.3278847294821423,-0.33042225367971945,-0.33283156498748223,-0.33511736172498363,-0.33728427868228633,-0.3393368706340077,-0.34127959616482945,-0.34311680181670884,-0.34485270661579054,-0.34649138708423394,-0.3480367628137118,-0.34949258264448796,-0.35086241152135905,-0.35214961811602646,-0.35335736325763484,-0.3544885891760308,-0.3555460095969092,-0.35653210075596276,-0.3574490933561174,-0.3582989654554196,-0.35908343630940026,-0.3598039612285458,-0.36046172748319477,-0.36105765125614414,-0.36159237566760777,-0.3620662699299337,-0.3624794296786071,-0.36283167850198045,-0.36312257068920695,-0.3633513952067582,-0.36351718087680096,-0.36361870270467245,-0.3636544893192464,-0.3636228315161443,-0.36352179189364664,-0.3633492155573079,-0.36310274186295555,-0.3627798171659018,-0.3623777085379638,-0.3618935184040937,-0.36132420004187527,-0.3606665738838304,-0.35991734456357527,-0.3590731186435181,-0.3581304229509125,-0.3570857234448281,-0.35593544454606624,-0.3546759888652206,-0.353303757247791,-0.35181516904134175,-0.35020668249560644,-0.3484748152125691,-0.346616164556121,-0.34462742793756207,-0.34250542292780906,-0.34024710716389306,-0.33784959798547565,-0.3353101917029351,-0.33262638240365794,-0.32979588021654105,-0.32681662894846086,-0.3236868230185783,-0.3204049236679656,-0.3169696744489361,-0.31338011595889914,-0.30963559974772736,-0.3057358013523339,-0.3016807324368289,-0.297470751987146,-0.2931065764806975,-0.2885892889748187,-0.283920347082949,-0.2791015897918921,-0.2741352430697844,-0.269023924261286,-0.2637706452979794,-0.2583788147194034,-0.25285223847374694,-0.24719511950321968,-0.24141205614966407,-0.2355080393828464,-0.22948844881957478,-0.22335904752394756,-0.21712597560589877,-0.21079574262281703,-0.20437521879849924,-0.1978716251432116,-0.19129252259713875,-0.18464580026343008,-0.17793966274011347,-0.17118261658320172,-0.16438345596301923,-0.1575512475420424,-0.1506953145695253,-0.1438252202158211,-0.1369507501982817,-0.1300818947288422,-0.12322882980116964,-0.11640189787988961,-0.10961158808608604,-0.10286851593564936,-0.09618340264562461,-0.0895670540392994,-0.08303033910429944,-0.07658416824221935,-0.07023947124091766,-0.0640071750394907,-0.05789818138263001,-0.05192334442844315,-0.046093448335627785,-0.040419184863705826,-0.03491113103755586,-0.029579726915254054,-0.02443525348409077,-0.019487810722515625,-0.014747295880616433,-0.01022338202581366,-0.00592549690014437,-0.0018628021601412852,0.0019558269145108537,0.0055218211790959365,0.008826936813135377,0.011863273909710452,0.014623294427516675,0.017099839467828528,0.019286145828313974,0.021175861758033692,0.02276306182617349,0.024042260842031288,0.025008426790260663,0.02565699274299066,0.025983867704444108,0.025985446361207684,0.025658617736684278,0.025000772759507878,0.02400981075505021,0.022684144865056637,0.021022706392564938,0.019024948058372206,0.01669084615160475,0.014020901563871644,0.01101613969747482,0.007678109224762085,0.004008879670918944,1.1037812573832918e-05,-0.004312317092498289,-0.008957579224639918,-0.013920643251721345,-0.019196912479842853,-0.024781308058325086,-0.030668279176833655,-0.03685181418954374,-0.04332545261461654,-0.050082297983315954,-0.05711503153982542,-0.06441592679938232,-0.07197686495150142,-0.07978935107167202,-0.08784453110005654,-0.09613320954687023,-0.1046458678767232,-0.113372683517931,-0.12230354944703997,-0.13142809430227181,-0.14073570297051632,-0.15021553757552622,-0.15985655878118635,-0.16964754732233014,-0.1795771256906328,-0.18963377993099198,-0.19980588153247372,-0.21008170940649043,-0.22044947192597178,-0.23089732897726004,-0.24141341397248287,-0.25198585577316185,-0.26260280047090584,-0.2732524329632116,-0.28392299826041706,-0.2946028224628164,-0.30528033335351396,-0.31594408056869067,-0.3265827553307717,-0.3371852097395683,-0.34774047559884985,-0.35823778273107615,-0.36866657672309017,-0.3790165360481506,-0.38927758851505817,-0.3994399270002658,-0.40949402442377086,-0.4194306479342698,-0.42924087227606683,-0.4389160923267073,-0.44844803481844614,-0.4578287692665007,-0.46705071810826926,-0.4761066660265896,-0.48498976840955166,-0.4936935588987845,-0.5022119559947158,-0.5105392687073187,-0.5186702012526272,-0.5265998568000652,-0.5343237402773973,-0.5418377602371698,-0.5491382297817258,-0.5562218665435061,-0.5630857917245349,-0.5697275281905609,-0.5761449975846151,-0.5823365164152521,-0.5883007911123859,-0.5940369120805171,-0.5995443467756358,-0.604822931824798,-0.6098728642255016,-0.6146946916576796,-0.6192893018884549,-0.6236579112267875,-0.6278020520426782,-0.6317235594188945,-0.635424556983149,-0.638907441947478,-0.6421748694179242,-0.6452297360482354,-0.6480751630407152,-0.6507144784591944,-0.6531511988925353,-0.6553890105685723,-0.6574317499701837,-0.659283383965248,-0.660947989527387,-0.6624297331735806,-0.6637328501810572,-0.6648616235975023,-0.6658203631296227,-0.6666133840583444,-0.6672449862764089,-0.667719433494862,-0.6680409327188563,-0.6682136141268353,-0.6682415114045521,-0.6681285425263761,-0.667878491054213,-0.6674949881079402,-0.6669814951290969,-0.6663412875113799,-0.665577439203971,-0.6646928084142154,-0.6636900244664099,-0.6625714758189478,-0.6613392992881066,-0.6599953705692481,-0.6585412960956529,-0.6569784062264854,-0.655307749794964,-0.6535300900936893,-0.6516459023459107,-0.6496553726721817,-0.6475583985770225,-0.6453545910015034,-0.6430432779635712,-0.6406235097761698,-0.6380940658316752,-0.6354534629339772,-0.6326999651179455,-0.6298315948656745,-0.626846145647641,-0.6237411957464069,-0.6205141233192654,-0.617162122640241,-0.6136822214567029,-0.6100712993965604,-0.6063261073567604,-0.6024432877937141,-0.59841939582637,-0.5942509210544497,-0.5899343099877296,-0.5854659889770931,-0.5808423875369685,-0.5760599619592376,-0.5711152191386965,-0.566004740536148,-0.5607252061881962,-0.5552734186679198,-0.5496463269275862,-0.5438410499684372,-0.5378549002515548,-0.5316854067338749,-0.5253303374241501,-0.5187877213683877,-0.5120558699612182,-0.5051333974794682,-0.49801924077458487,-0.49071267808542535,-0.483213346901925,-0.47552126078129303,-0.46763682504052845,-0.4595608512727897,-0.4512945706198297,-0.4428396457354593,-0.4341981814334208,-0.42537273404789855,-0.4163663194874005,-0.4071824199084206,-0.39782498894521695,-0.3882984554574544,-0.3786077257499438,-0.3687581842301874,-0.35875569253449563,-0.34860658719173027,-0.33831767584845773,-0.32789623203205587,-0.3173499884505798,-0.3066871288578973,-0.29591627849260793,-0.2850464930924024,-0.27408724653979544,-0.2630484172318217,-0.25194027322579654,-0.2407734561765445,-0.2295589641151839,-0.2183081331522026,-0.2070326181518646,-0.19574437238493206,-0.18445562618453973,-0.1731788646565823,-0.16192680448432506,-0.15071236986738112,-0.13954866768492058,-0.12844896200471967,-0.11742664802263816,-0.10649522547738824,-0.0956682716022649,-0.0849594136984618,-0.07438230138494101,-0.06395057851481223,-0.05367785469537601,-0.043577676347819845,-0.033663497302366535,-0.02394864900693236,-0.01444631048641562,-0.005169478206889691,0.003869064016545599,0.012656774940084952,0.02118138549630397,0.029430927932645717,0.03739376435716792,0.045058614591737066,0.052414583231368654,0.059451185804205935,0.06615837394501205,0.07252655951680158,0.07854663761923363,0.08421000842109881,0.08950859776081524,0.09443487645976775,0.09898187828012026,0.10314321645436161,0.10691309873710513,0.11028634096564109,0.11325837914150409,0.11582528005139296,0.11798375043237101,0.11973114465993744,0.12106547091175339,0.12198539575520399,0.12249024712997388,0.12258001572184925,0.1222553547300665,0.12151757803167292,0.12036865675677563,0.11881121429386607,0.11684851973460672,0.11448447976423612,0.11172362902315695,0.10857111898683962,0.10503270541528036,0.10111473442225942,0.09682412722363919,0.09216836363637147,0.08715546440549747,0.08179397243626894,0.07609293300591741,0.07006187302261391,0.06371077938862646,0.05705007652081667,0.05009060308791951,0.042843588023989125,0.03532062586255979,0.027533651429473494,0.019494913952640226,0.011216950678884,0.002712560108718834,-0.0060052250385666086,-0.014923165032299329,-0.02402784043585719,-0.03330567945507027,-0.04274298528126672,-0.05232596337329307,-0.06204074861218856,-0.07187343225846855,-0.08181008864410778,-0.09183680153478492,-0.10193969010133914,-0.11210493444270449,-0.12231880060583313,-0.1325676650538378,-0.14283803854892277,-0.1531165894398068,-0.16339016635231998,-0.1736458202637098,-0.18387082591600148,-0.19405270251342546,-0.2041792336511589,-0.2142384864277135,-0.2242188296982002,-0.2341089514304138,-0.24389787513021657,-0.2535749753070604,-0.26312999195468034,-0.2725530440260202,-0.28183464188532015,-0.2909656987251887,-0.29993754094574093,-0.30874191750565644,-0.3173710082610521,-0.32581743130132795,-0.33407424928099955,-0.3421349747432025,-0.34999357443297335,-0.3576444726033999,-0.3650825533276845,-0.37230316184410644,-0.3793021049670971,-0.3860756505916122,-0.39262052631707356,-0.39893391723134164,-0.4050134629027574,-0.410857253610793,-0.4164638258170596,-0.4218321568596441,-0.42696165885309195,-0.43185217179200286,-0.4365039558792895,-0.44091768311960056,-0.4450944282250727,-0.4490356588729364,-0.4527432253433651,-0.4562193495615524,-0.45946661356926677,-0.4624879474523573,-0.46528661674713007,-0.4678662093410381,-0.4702306218819871,-0.4723840457206419,-0.47433095241871875,-0.4760760788540233,-0.47762441195125854,-0.4789811730756261,-0.48015180213223657,-0.48114194140908023,-0.48195741919758167,-0.4826042332316608,-0.48308853398779383,-0.48341660787484286,-0.4835948603351249,-0.4836297988883479,-0.48352801614291996,-0.4832961727588104,-0.48294098032889765,-0.482469184186395,-0.4818875461801814,-0.4812028274381723,-0.48042177112104584,-0.47955108520219275,-0.47859742532884036,-0.4775673777759742,-0.4764674424777607,-0.47530401616786205,-0.47408337569279085,-0.4728116615154376,-0.471494861393086,-0.4701387942664623,-0.46874909442954404,-0.4673311959868056,-0.46589031756259436,-0.4644314472963748,-0.462959328216244,-0.4614784440320618,-0.4599930053453964,-0.4585069363314919,-0.4570238619852824,-0.45554709594462056,-0.45407962884908776,-0.4526241172709383,-0.45118287332406204,-0.44975785499860244,-0.4483506572149579,-0.44696250365352963,-0.4455942394636505,-0.4442463248788555,-0.442918829705631,-0.4416114287228649,-0.4403233980906928,-0.43905361280300087,-0.4378005451592199,-0.43656226429211936,-0.4353364368434091,-0.43412032881855084,-0.4329108085953443,-0.4317043511106566,-0.4304970432899086,-0.4292845907167557,-0.42806232548364037,-0.4268252152179737,-0.4255678733329207,-0.4242845705064351,-0.422969247343179,-0.42161552820854753,-0.4202167362511052,-0.4187659095716437,-0.41725581844883874,-0.4156789835728794,-0.414027695277802,-0.41229403372046375,-0.4104698899126296,-0.40854698755091967,-0.4065169056404355,-0.404371101899777,-0.40210093690769766,-0.39969769895298096,-0.3971526295495004,-0.3944569495482379,-0.3916018857526577,-0.38857869795383804,-0.3853787063148565,-0.3819933190196475,-0.37841406008506595,-0.374632597242079,-0.37064076980377214,-0.36643061643299735,-0.36199440271341166,-0.35732464843116396,-0.35241415448746183,-0.3472560293734851,-0.3418437151393062,-0.33617101277852796,-0.33023210694807265,-0.3240215899562386,-0.3175344849586394,-0.31076626828826887,-0.30371289084505065,-0.29637079850012255,-0.2887369514859424,-0.28080884271393836,-0.27258451493303637,-0.2640625766545812,-0.25524221678522263,-0.24612321789648317,-0.2367059680557584,-0.2269914711768437,-0.21698135587143574,-0.2066778827622804,-0.19608395020654748,-0.18520309841400054,-0.17403951197130366,-0.16259802075570243,-0.15088409919423665,-0.13890386384762113,-0.12666406932301946,-0.11417210250738348,-0.10143597511864429,-0.08846431463197398,-0.07526635367353564,-0.06185191792918822,-0.04823141257388132,-0.03441580725810457,-0.020416619718582923,-0.006245898046665058,0.008083798384252204,0.022559419301589546,0.03716744516612548,0.05189391001737778,0.06672442551469243,0.08164420612281303,0.09663809536109064,0.11169059305793277,0.1267858835648707,0.14190786484045786,0.157040178282923,0.17216623922913232,0.1872692680823852,0.20233232202158236,0.21733832722260005,0.2322701115310001,0.24711043751554831,0.2618420357737671,0.27644763832935604,0.29091001200846817,0.3052119917278712,0.3193365136061776,0.3332666477855339,0.3469856308835261,0.36047689801702154,0.3737241142985691,0.3867112056780858,0.39942238904840405,0.4118422015775531,0.4239555292080818,0.43574763424007606,0.4472041819484039,0.45831126621271673,0.4690554341073055,0.47942370937308604,0.48940361473006594,0.49898319301923494,0.5081510271329364,0.516896258668589,0.5252086052787794,0.5330783767298068,0.5404964896645332,0.547454481045399,0.5539445202787292,0.5599594200467901,0.5654926458571243,0.570538324300722,0.5750912500277368,0.5791468914592222,0.58270139522303,0.585751589282125,N
2,0.44738487390172027,0.4565347168960496,0.4652766620070618,0.47360193638681114,0.4815022966665681,0.48897004055272975,0.4959980174081684,0.5025796377949159,0.5087088819978844,0.5143803075484192,0.5195890557527734,0.5243308572384366,0.5286020365296635,0.5323995156298102,0.5357208165687632,0.5385640629022669,0.5409279801783108,0.5428118953729285,0.5442157352834384,0.5451400238883489,0.5455858787051752,0.5455550061673139,0.545049696028851,0.5440728148185014,0.5426277983696135,0.5407186434289715,0.5383498983322759,0.5355266527589867,0.5322545266057003,0.5285396580108829,0.5243886905532394,0.5198087596588605,0.5148074782617562,0.5093929217458846,0.5035736121846499,0.4973585019104067,0.49075695646114686,0.4837787369386452,0.4764339818010929,0.4687331881294336,0.46068719242422235,0.45230715098396906,0.4436045199068736,0.43459103476554695,0.42527869001057306,0.41567971814748084,0.4058065687222133,0.39567188715755053,0.3852884934849189,0.37466936099722903,0.3638275948369555,0.35277641055087294,0.34152911266127284,0.3300990732982424,0.318499710928971,0.3067444692278493,0.29484679613670667,0.2828201231519147,0.2706778448650921,0.2584332987937243,0.2460997455464446,0.2336903493574542,0.2212181590151025,0.20869608921774155,0.19613690239643491,0.18355319103284864,0.17095736049104673,0.15836161239021357,0.14577792855263222,0.13321805555134741,0.12069348987274348,0.10821546371599072,0.09579493145593038,0.08344255678384555,0.07116870053092489,0.05898340918852162,0.04689640415082879,0.034917071702514506,0.02305445376677794,0.011317239427916478,-0.0002862427678321729,-0.011748031755164808,-0.023060540170781837,-0.0342165598680814,-0.045209266720286655,-0.05603222471092031,-0.06667938931892749,-0.07714511019576233,-0.08742413311562426,-0.09751160117530801,-0.10740305522500516,-0.11709443352015517,-0.12658207060039053,-0.1358626954233241,-0.1449334287908475,-0.15379178009339992,-0.16243564337941266,-0.1708632927503845,-0.17907337708498142,-0.18706491410145146,-0.19483728377694423,-0.2023902211543193,-0.2097238085729586,-0.21683846735176218,-0.22373494892937754,-0.23041432543977716,-0.23687797969599492,-0.24312759458185418,-0.24916514188271488,-0.2549928705961034,-0.26061329476312645,-0.2660291808634236,-0.2712435348009658,-0.27625958847028004,-0.28108078587897983,-0.2857107688386041,-0.29015336226763316,-0.29441255913643755,-0.29849250507101704,-0.30239748265858946,-0.3061318955103839,-0.3097002520982851,-0.31310714935961415,-0.3163572561049782,-0.3194552962899041,-0.32240603216578545,-0.325214247296581,-0.3278847294821423,-0.33042225367971945,-0.33283156498748223,-0.33511736172498363,-0.33728427868228633,-0.3393368706340077,-0.34127959616482945,-0.34311680181670884,-0.34485270661579054,-0.34649138708423394,-0.3480367628137118,-0.34949258264448796,-0.35086241152135905,-0.35214961811602646,-0.35335736325763484,-0.3544885891760308,-0.3555460095969092,-0.35653210075596276,-0.3574490933561174,-0.3582989654554196,-0.35908343630940026,-0.3598039612285458,-0.36046172748319477,-0.36105765125614414,-0.36159237566760777,-0.3620662699299337,-0.3624794296786071,-0.36283167850198045,-0.36312257068920695,-0.3633513952067582,-0.36351718087680096,-0.36361870270467245,-0.3636544893192464,-0.3636228315161443,-0.36352179189364664,-0.3633492155573079,-0.36310274186295555,-0.3627798171659018,-0.3623777085379638,-0.3618935184040937,-0.36132420004187527,-0.3606665738838304,-0.35991734456357527,-0.3590731186435181,-0.3581304229509125,-0.3570857234448281,-0.35593544454606624,-0.3546759888652206,-0.353303757247791,-0.35181516904134175,-0.35020668249560644,-0.3484748152125691,-0.346616164556121,-0.34462742793756207,-0.34250542292780906,-0.34024710716389306,-0.33784959798547565,-0.3353101917029351,-0.33262638240365794,-0.32979588021654105,-0.32681662894846086,-0.3236868230185783,-0.3204049236679656,-0.3169696744489361,-0.31338011595889914,-0.30963559974772736,-0.3057358013523339,-0.3016807324368289,-0.297470751987146,-0.2931065764806975,-0.2885892889748187,-0.283920347082949,-0.2791015897918921,-0.2741352430697844,-0.269023924261286,-0.2637706452979794,-0.2583788147194034,-0.25285223847374694,-0.24719511950321968,-0.24141205614966407,-0.2355080393828464,-0.22948844881957478,-0.22335904752394756,-0.21712597560589877,-0.21079574262281703,-0.20437521879849924,-0.1978716251432116,-0.19129252259713875,-0.18464580026343008,-0.17793966274011347,-0.17118261658320172,-0.16438345596301923,-0.1575512475420424,-0.1506953145695253,-0.1438252202158211,-0.1369507501982817,-0.1300818947288422,-0.12322882980116964,-0.11640189787988961,-0.10961158808608604,-0.10286851593564936,-0.09618340264562461,-0.0895670540392994,-0.08303033910429944,-0.07658416824221935,-0.07023947124091766,-0.0640071750394907,-0.05789818138263001,-0.05192334442844315,-0.046093448335627785,-0.040419184863705826,-0.03491113103755586,-0.029579726915254054,-0.02443525348409077,-0.019487810722515625,-0.014747295880616433,-0.01022338202581366,-0.00592549690014437,-0.0018628021601412852,0.0019558269145108537,0.0055218211790959365,0.008826936813135377,0.011863273909710452,0.014623294427516675,0.017099839467828528,0.019286145828313974,0.021175861758033692,0.02276306182617349,0.024042260842031288,0.025008426790260663,0.02565699274299066,0.025983867704444108,0.025985446361207684,0.025658617736684278,0.025000772759507878,0.02400981075505021,0.022684144865056637,0.021022706392564938,0.019024948058372206,0.01669084615160475,0.014020901563871644,0.01101613969747482,0.007678109224762085,0.004008879670918944,1.1037812573832918e-05,-0.004312317092498289,-0.008957579224639918,-0.013920643251721345,-0.019196912479842853,-0.024781308058325086,-0.030668279176833655,-0.03685181418954374,-0.04332545261461654,-0.050082297983315954,-0.05711503153982542,-0.06441592679938232,-0.07197686495150142,-0.07978935107167202,-0.08784453110005654,-0.09613320954687023,-0.1046458678767232,-0.113372683517931,-0.12230354944703997,-0.13142809430227181,-0.14073570297051632,-0.15021553757552622,-0.15985655878118635,-0.16964754732233014,-0.1795771256906328,-0.18963377993099198,-0.19980588153247372,-0.21008170940649043,-0.22044947192597178,-0.23089732897726004,-0.24141341397248287,-0.25198585577316185,-0.26260280047090584,-0.2732524329632116,-0.28392299826041706,-0.2946028224628164,-0.30528033335351396,-0.31594408056869067,-0.3265827553307717,-0.3371852097395683,-0.34774047559884985,-0.35823778273107615,-0.36866657672309017,-0.3790165360481506,-0.38927758851505817,-0.3994399270002658,-0.40949402442377086,-0.4194306479342698,-0.42924087227606683,-0.4389160923267073,-0.44844803481844614,-0.4578287692665007,-0.46705071810826926,-0.4761066660265896,-0.48498976840955166,-0.4936935588987845,-0.5022119559947158,-0.5105392687073187,-0.5186702012526272,-0.5265998568000652,-0.5343237402773973,-0.5418377602371698,-0.5491382297817258,-0.5562218665435061,-0.5630857917245349,-0.5697275281905609,-0.5761449975846151,-0.5823365164152521,-0.5883007911123859,-0.5940369120805171,-0.5995443467756358,-0.604822931824798,-0.6098728642255016,-0.6146946916576796,-0.6192893018884549,-0.6236579112267875,-0.6278020520426782,-0.6317235594188945,-0.635424556983149,-0.638907441947478,-0.6421748694179242,-0.6452297360482354,-0.6480751630407152,-0.6507144784591944,-0.6531511988925353,-0.6553890105685723,-0.6574317499701837,-0.659283383965248,-0.660947989527387,-0.6624297331735806,-0.6637328501810572,-0.6648616235975023,-0.6658203631296227,-0.6666133840583444,-0.6672449862764089,-0.667719433494862,-0.6680409327188563,-0.6682136141268353,-0.6682415114045521,-0.6681285425263761,-0.667878491054213,-0.6674949881079402,-0.6669814951290969,-0.6663412875113799,-0.665577439203971,-0.6646928084142154,-0.6636900244664099,-0.6625714758189478,-0.6613392992881066,-0.6599953705692481,-0.6585412960956529,-0.6569784062264854,-0.655307749794964,-0.6535300900936893,-0.6516459023459107,-0.6496553726721817,-0.6475583985770225,-0.6453545910015034,-0.6430432779635712,-0.6406235097761698,-0.6380940658316752,-0.6354534629339772,-0.6326999651179455,-0.6298315948656745,-0.626846145647641,-0.6237411957464069,-0.6205141233192654,-0.617162122640241,-0.6136822214567029,-0.6100712993965604,-0.6063261073567604,-0.6024432877937141,-0.59841939582637,-0.5942509210544497,-0.5899343099877296,-0.5854659889770931,-0.5808423875369685,-0.5760599619592376,-0.5711152191386965,-0.566004740536148,-0.5607252061881962,-0.5552734186679198,-0.5496463269275862,-0.5438410499684372,-0.5378549002515548,-0.5316854067338749,-0.5253303374241501,-0.5187877213683877,-0.5120558699612182,-0.5051333974794682,-0.49801924077458487,-0.49071267808542535,-0.483213346901925,-0.47552126078129303,-0.46763682504052845,-0.4595608512727897,-0.4512945706198297,-0.4428396457354593,-0.4341981814334208,-0.42537273404789855,-0.4163663194874005,-0.4071824199084206,-0.39782498894521695,-0.3882984554574544,-0.3786077257499438,-0.3687581842301874,-0.35875569253449563,-0.34860658719173027,-0.33831767584845773,-0.32789623203205587,-0.3173499884505798,-0.3066871288578973,-0.29591627849260793,-0.2850464930924024,-0.27408724653979544,-0.2630484172318217,-0.25194027322579654,-0.2407734561765445,-0.2295589641151839,-0.2183081331522026,-0.2070326181518646,-0.19574437238493206,-0.18445562618453973,-0.1731788646565823,-0.16192680448432506,-0.15071236986738112,-0.13954866768492058,-0.12844896200471967,-0.11742664802263816,-0.10649522547738824,-0.0956682716022649,-0.0849594136984618,-0.07438230138494101,-0.06395057851481223,-0.05367785469537601,-0.043577676347819845,-0.033663497302366535,-0.02394864900693236,-0.01444631048641562,-0.005169478206889691,0.003869064016545599,0.012656774940084952,0.02118138549630397,0.029430927932645717,0.03739376435716792,0.045058614591737066,0.052414583231368654,0.059451185804205935,0.06615837394501205,0.07252655951680158,0.07854663761923363,0.08421000842109881,0.08950859776081524,0.09443487645976775,0.09898187828012026,0.10314321645436161,0.10691309873710513,0.11028634096564109,0.11325837914150409,0.11582528005139296,0.11798375043237101,0.11973114465993744,0.12106547091175339,0.12198539575520399,0.12249024712997388,0.12258001572184925,0.1222553547300665,0.12151757803167292,0.12036865675677563,0.11881121429386607,0.11684851973460672,0.11448447976423612,0.11172362902315695,0.10857111898683962,0.10503270541528036,0.10111473442225942,0.09682412722363919,0.09216836363637147,0.08715546440549747,0.08179397243626894,0.07609293300591741,0.07006187302261391,0.06371077938862646,0.05705007652081667,0.05009060308791951,0.042843588023989125,0.03532062586255979,0.027533651429473494,0.019494913952640226,0.011216950678884,0.002712560108718834,-0.0060052250385666086,-0.014923165032299329,-0.02402784043585719,-0.03330567945507027,-0.04274298528126672,-0.05232596337329307,-0.06204074861218856,-0.07187343225846855,-0.08181008864410778,-0.09183680153478492,-0.10193969010133914,-0.11210493444270449,-0.12231880060583313,-0.1325676650538378,-0.14283803854892277,-0.1531165894398068,-0.16339016635231998,-0.1736458202637098,-0.18387082591600148,-0.19405270251342546,-0.2041792336511589,-0.2142384864277135,-0.2242188296982002,-0.2341089514304138,-0.24389787513021657,-0.2535749753070604,-0.26312999195468034,-0.2725530440260202,-0.28183464188532015,-0.2909656987251887,-0.29993754094574093,-0.30874191750565644,-0.3173710082610521,-0.32581743130132795,-0.33407424928099955,-0.3421349747432025,-0.34999357443297335,-0.3576444726033999,-0.3650825533276845,-0.37230316184410644,-0.3793021049670971,-0.3860756505916122,-0.39262052631707356,-0.39893391723134164,-0.4050134629027574,-0.410857253610793,-0.4164638258170596,-0.4218321568596441,-0.42696165885309195,-0.43185217179200286,-0.4365039558792895,-0.44091768311960056,-0.4450944282250727,-0.4490356588729364,-0.4527432253433651,-0.4562193495615524,-0.45946661356926677,-0.4624879474523573,-0.46528661674713007,-0.4678662093410381,-0.4702306218819871,-0.4723840457206419,-0.47433095241871875,-0.4760760788540233,-0.47762441195125854,-0.4789811730756261,-0.48015180213223657,-0.48114194140908023,-0.48195741919758167,-0.4826042332316608,-0.48308853398779383,-0.48341660787484286,-0.4835948603351249,-0.4836297988883479,-0.48352801614291996,-0.4832961727588104,-0.48294098032889765,-0.482469184186395,-0.4818875461801814,-0.4812028274381723,-0.48042177112104584,-0.47955108520219275,-0.47859742532884036,-0.4775673777759742,-0.4764674424777607,-0.47530401616786205,-0.47408337569279085,-0.4728116615154376,-0.471494861393086,-0.4701387942664623,-0.46874909442954404,-0.4673311959868056,-0.46589031756259436,-0.4644314472963748,-0.462959328216244,-0.4614784440320618,-0.4599930053453964,-0.4585069363314919,-0.4570238619852824,-0.45554709594462056,-0.45407962884908776,-0.4526241172709383,-0.45118287332406204,-0.44975785499860244,-0.4483506572149579,-0.44696250365352963,-0.4455942394636505,-0.4442463248788555,-0.442918829705631,-0.4416114287228649,-0.4403233980906928,-0.43905361280300087,-0.4378005451592199,-0.43656226429211936,-0.4353364368434091,-0.43412032881855084,-0.4329108085953443,-0.4317043511106566,-0.4304970432899086,-0.4292845907167557,-0.42806232548364037,-0.4268252152179737,-0.4255678733329207,-0.4242845705064351,-0.422969247343179,-0.42161552820854753,-0.4202167362511052,-0.4187659095716437,-0.41725581844883874,-0.4156789835728794,-0.414027695277802,-0.41229403372046375,-0.4104698899126296,-0.40854698755091967,-0.4065169056404355,-0.404371101899777,-0.40210093690769766,-0.39969769895298096,-0.3971526295495004,-0.3944569495482379,-0.3916018857526577,-0.38857869795383804,-0.3853787063148565,-0.3819933190196475,-0.37841406008506595,-0.374632597242079,-0.37064076980377214,-0.36643061643299735,-0.36199440271341166,-0.35732464843116396,-0.35241415448746183,-0.3472560293734851,-0.3418437151393062,-0.33617101277852796,-0.33023210694807265,-0.3240215899562386,-0.3175344849586394,-0.31076626828826887,-0.30371289084505065,-0.29637079850012255,-0.2887369514859424,-0.28080884271393836,-0.27258451493303637,-0.2640625766545812,-0.25524221678522263,-0.24612321789648317,-0.2367059680557584,-0.2269914711768437,-0.21698135587143574,-0.2066778827622804,-0.19608395020654748,-0.18520309841400054,-0.17403951197130366,-0.16259802075570243,-0.15088409919423665,-0.13890386384762113,-0.12666406932301946,-0.11417210250738348,-0.10143597511864429,-0.08846431463197398,-0.07526635367353564,-0.06185191792918822,-0.04823141257388132,-0.03441580725810457,-0.020416619718582923,-0.006245898046665058,0.008083798384252204,0.022559419301589546,0.03716744516612548,0.05189391001737778,0.06672442551469243,0.08164420612281303,0.09663809536109064,0.11169059305793277,0.1267858835648707,0.14190786484045786,0.157040178282923,0.17216623922913232,0.1872692680823852,0.20233232202158236,0.21733832722260005,0.2322701115310001,0.24711043751554831,0.2618420357737671,0.27644763832935604,0.29091001200846817,0.3052119917278712,0.3193365136061776,0.3332666477855339,0.3469856308835261,0.36047689801702154,0.3737241142985691,0.3867112056780858,0.39942238904840405,0.4118422015775531,0.4239555292080818,0.43574763424007606,0.4472041819484039,0.45831126621271673,0.4690554341073055,0.47942370937308604,0.48940361473006594,0.49898319301923494,0.5081510271329364,0.516896258668589,0.5252086052787794,0.5330783767298068,0.5404964896645332,0.547454481045399,0.5539445202787292,0.5599594200467901,0.5654926458571243,0.570538324300722,0.5750912500277368,0.5791468914592222,0.58270139522303,0.585751589282125,0.5882949847565434,0.5903297764843797,0.5918548423766726,0.5928697416123955,0.5933747117164071,0.5933706645494602,0.5928591812063321,0.5918425058021054,0.5903235381534221,0.5883058254005668,0.5857935526323864,0.5827915325729146,0.5793051943787146,0.5753405715761022,0.5709042891395355,0.5660035497013824,0.5606461189022683,0.5548403099136326,0.5485949671660767,0.5419194493128133,0.5348236114623627,0.5273177867141204,0.5194127670146446,0.5111197833445916,0.502450485262759,0.4934169198518693,0.4840315101097056,0.47430703282440867,0.46425659598026203,0.4538936157472764,0.44323179310213123,0.43228509012257565,0.42106770600224636,0.4095940528314826,0.39787873117233913,0.38593650544723085,0.37378227917676277,0.3614310701158602,0.3488979853268822,0.3361981962198096,0.323346913604305,0.310359362810642,0.29725075892474706,0.28403628217273047,0.2707310535064753,0.2573501104659026,0.24390838340205875,0.23042067214059078,0.2169016231551191,0.20336570730008766,0.18982719812479168,0.17630015077784614,0.16279838152529752,0.1493354479163635,0.13592462961709945,0.12257890992144344,0.1093109579634215,0.09613311166665295,0.08305736145478904,0.07009533473514318,0.057258281179814845,0.04455705883893873,0.03200212110774963,0.01960350455732084,0.007370817647357625,-0.004686769659974668,-0.01656053539253886,-0.028242214190244228,-0.03972400505628324,-0.05099857820775517,-0.06205908099430366,-0.07289914286301362,-0.08351287934800347,-0.09389489506873319,-0.10404028574324917,-0.11394463923664386,-0.12360403565399272,-0.13301504647818588,-0.1421747327678398,-0.15108064244302147,-0.15973080667538495,-0.16812373539032507,-0.17625841190334632,-0.18413428672518792,-0.19175127055753344,-0.19910972648537456,-0.2062104613757177,-0.21305471650119717,-0.21964415740556803,-0.22598086302777726,-0.23206731411297626,-0.2379063809480801,-0.2435013104547248,-0.24885571266799758,-0.25397354663731014,-0.25885910579320687,-0.2635170028180372,-0.2679521540481909,-0.27216976343270677,-0.27617530607633906,-0.27997451139809465,-0.28357334593344324,-0.2869779958008564,-0.2901948488527965,-0.29323047654317697,-0.29609161555269264,-0.2987851492097115,-0.3013180887420616,-0.3036975544029616,-0.30593075651070806,-0.30802497641635845,-0.30998754740305173,-0.3118258355459876,-0.31354722057791645,-0.3151590767801536,-0.3166687539041418,-0.31808355815720246,-0.3194107332937154,-0.3206574417996636,-0.3218307461311253,-0.3229375900240534,-0.32398477993412733,-0.32497896661774317,-0.32592662683201934,-0.3268340451917899,-0.3277072962607101,-0.32855222688673974,-0.3293744387478658,-0.33017927115054935,-0.3309717841876598,-0.33175674230602703,-0.33253859828561816,-0.33332147769655446,-0.3341091639360036,-0.3349050838503315,-0.3357122938846117,-0.3365334667977825,-0.33737087906681806,-0.3382263990356448,-0.3391014758021288,-0.3399971289146332,-0.34091393901356637,-0.34185203947307274,-0.3428111090302325,-0.34379036546415415,-0.3447885604491561,-0.3458039756247551,-0.34683441985559843,-0.3478772277260582,-0.34892925937177854,-0.3499869016655086,-0.3510460707035492,-0.35210221561559757,-0.3531503237994101,-0.35418492762957215,-0.35520011262827095,-0.3561895271302245,-0.3571463935151274,-0.35806352102013644,-0.3589333200866683,-0.3597478182315274,-0.3604986774601217,-0.3611772131735111,-0.36177441446599373,-0.3622809657551783,-0.36268726973495047,-0.36298347160414124,-0.3631594844800373,-0.36320501593546634,-0.3631095956383566,-0.3628626040560419,-0.3624533021554171,-0.3618708620317582,-0.3611043983991119,-0.36014300084143913,-0.35897576669623577,-0.35759183445962883,-0.3559804176394782,-0.3541308390030119,-0.35203256515846515,-0.34967524138278405,-0.3470487265723755,-0.3441431281651942,-0.3409488368718011,-0.3374565610637218,-0.3336573606897476,-0.32954268061038106,-0.3251043832455044,-0.320334780423875,-0.3152266643342161,-0.30977333751560376,-0.3039686418412211,-0.2978069864148159,-0.2912833742656958,-0.2843934277395262,-0.2771334124984604,-0.26950026002907695,-0.261491588551026,-0.2531057222542778,-0.24434170881785447,-0.23519933514158423,-0.2256791412121895,-0.2157824320675963,-0.2055112878537946,-0.19486857193609977,-0.18385793699487077,-0.17248382906057927,-0.1607514894714859,-0.14866695472295927,-0.13623705417804227,-0.12346940566511816,-0.11037240902532491,-0.09695523763578942,-0.08322782790591973,-0.06920086678705098,-0.05488577737166375,-0.040294702618842215,-0.02544048719779146,-0.010336657459035394,0.005002600427982838,0.020562464142617046,0.036327500658432675,0.052281693390581675,0.06840847093555384,0.08469073731861818,0.10111090367370754,0.11765092122281953,0.13429231538520223,0.1510162208969604,0.1678034178699451,0.18463436868874336,0.20148925561353268,0.21834801899200806,0.23519039600769853,0.2519959598427314,0.26874415909805915,0.2854143573631061,0.3019858728726644,0.3184380181571092,0.33475013956115435,0.3509016565441393,N
3,-0.07023947124091766,-0.0640071750394907,-0.05789818138263001,-0.05192334442844315,-0.046093448335627785,-0.040419184863705826,-0.03491113103755586,-0.029579726915254054,-0.02443525348409077,-0.019487810722515625,-0.014747295880616433,-0.01022338202581366,-0.00592549690014437,-0.0018628021601412852,0.0019558269145108537,0.0055218211790959365,0.008826936813135377,0.011863273909710452,0.014623294427516675,0.017099839467828528,0.019286145828313974,0.021175861758033692,0.02276306182617349,0.024042260842031288,0.025008426790260663,0.02565699274299066,0.025983867704444108,0.025985446361207684,0.025658617736684278,0.025000772759507878,0.02400981075505021,0.022684144865056637,0.021022706392564938,0.019024948058372206,0.01669084615160475,0.014020901563871644,0.01101613969747482,0.007678109224762085,0.004008879670918944,1.1037812573832918e-05,-0.004312317092498289,-0.008957579224639918,-0.013920643251721345,-0.019196912479842853,-0.024781308058325086,-0.030668279176833655,-0.03685181418954374,-0.04332545261461654,-0.050082297983315954,-0.05711503153982542,-0.06441592679938232,-0.07197686495150142,-0.07978935107167202,-0.08784453110005654,-0.09613320954687023,-0.1046458678767232,-0.113372683517931,-0.12230354944703997,-0.13142809430227181,-0.14073570297051632,-0.15021553757552622,-0.15985655878118635,-0.16964754732233014,-0.1795771256906328,-0.18963377993099198,-0.19980588153247372,-0.21008170940649043,-0.22044947192597178,-0.23089732897726004,-0.24141341397248287,-0.25198585577316185,-0.26260280047090584,-0.2732524329632116,-0.28392299826041706,-0.2946028224628164,-0.30528033335351396,-0.31594408056869067,-0.3265827553307717,-0.3371852097395683,-0.34774047559884985,-0.35823778273107615,-0.36866657672309017,-0.3790165360481506,-0.38927758851505817,-0.3994399270002658,-0.40949402442377086,-0.4194306479342698,-0.42924087227606683,-0.4389160923267073,-0.44844803481844614,-0.4578287692665007,-0.46705071810826926,-0.4761066660265896,-0.48498976840955166,-0.4936935588987845,-0.5022119559947158,-0.5105392687073187,-0.5186702012526272,-0.5265998568000652,-0.5343237402773973,-0.5418377602371698,-0.5491382297817258,-0.5562218665435061,-0.5630857917245349,-0.5697275281905609,-0.5761449975846151,-0.5823365164152521,-0.5883007911123859,-0.5940369120805171,-0.5995443467756358,-0.604822931824798,-0.6098728642255016,-0.6146946916576796,-0.6192893018884549,-0.6236579112267875,-0.6278020520426782,-0.6317235594188945,-0.635424556983149,-0.638907441947478,-0.6421748694179242,-0.6452297360482354,-0.6480751630407152,-0.6507144784591944,-0.6531511988925353,-0.6553890105685723,-0.6574317499701837,-0.659283383965248,-0.660947989527387,-0.6624297331735806,-0.6637328501810572,-0.6648616235975023,-0.6658203631296227,-0.6666133840583444,-0.6672449862764089,-0.667719433494862,-0.6680409327188563,-0.6682136141268353,-0.6682415114045521,-0.6681285425263761,-0.667878491054213,-0.6674949881079402,-0.6669814951290969,-0.6663412875113799,-0.665577439203971,-0.6646928084142154,-0.6636900244664099,-0.6625714758189478,-0.6613392992881066,-0.6599953705692481,-0.6585412960956529,-0.6569784062264854,-0.655307749794964,-0.6535300900936893,-0.6516459023459107,-0.6496553726721817,-0.6475583985770225,-0.6453545910015034,-0.6430432779635712,-0.6406235097761698,-0.6380940658316752,-0.6354534629339772,-0.6326999651179455,-0.6298315948656745,-0.626846145647641,-0.6237411957464069,-0.6205141233192654,-0.617162122640241,-0.6136822214567029,-0.6100712993965604,-0.6063261073567604,-0.6024432877937141,-0.59841939582637,-0.5942509210544497,-0.5899343099877296,-0.5854659889770931,-0.5808423875369685,-0.5760599619592376,-0.5711152191386965,-0.566004740536148,-0.5607252061881962,-0.5552734186679198,-0.5496463269275862,-0.5438410499684372,-0.5378549002515548,-0.5316854067338749,-0.5253303374241501,-0.5187877213683877,-0.5120558699612182,-0.5051333974794682,-0.49801924077458487,-0.49071267808542535,-0.483213346901925,-0.47552126078129303,-0.46763682504052845,-0.4595608512727897,-0.4512945706198297,-0.4428396457354593,-0.4341981814334208,-0.42537273404789855,-0.4163663194874005,-0.4071824199084206,-0.39782498894521695,-0.3882984554574544,-0.3786077257499438,-0.3687581842301874,-0.35875569253449563,-0.34860658719173027,-0.33831767584845773,-0.32789623203205587,-0.3173499884505798,-0.3066871288578973,-0.29591627849260793,-0.2850464930924024,-0.27408724653979544,-0.2630484172318217,-0.25194027322579654,-0.2407734561765445,-0.2295589641151839,-0.2183081331522026,-0.2070326181518646,-0.19574437238493206,-0.18445562618453973,-0.1731788646565823,-0.16192680448432506,-0.15071236986738112,-0.13954866768492058,-0.12844896200471967,-0.11742664802263816,-0.10649522547738824,-0.0956682716022649,-0.0849594136984618,-0.07438230138494101,-0.06395057851481223,-0.05367785469537601,-0.043577676347819845,-0.033663497302366535,-0.02394864900693236,-0.01444631048641562,-0.005169478206889691,0.003869064016545599,0.012656774940084952,0.02118138549630397,0.029430927932645717,0.03739376435716792,0.045058614591737066,0.052414583231368654,0.059451185804205935,0.06615837394501205,0.07252655951680158,0.07854663761923363,0.08421000842109881,0.08950859776081524,0.09443487645976775,0.09898187828012026,0.10314321645436161,0.10691309873710513,0.11028634096564109,0.11325837914150409,0.11582528005139296,0.11798375043237101,0.11973114465993744,0.12106547091175339,0.12198539575520399,0.12249024712997388,0.12258001572184925,0.1222553547300665,0.12151757803167292,0.12036865675677563,0.11881121429386607,0.11684851973460672,0.11448447976423612,0.11172362902315695,0.10857111898683962,0.10503270541528036,0.10111473442225942,0.09682412722363919,0.09216836363637147,0.08715546440549747,0.08179397243626894,0.07609293300591741,0.07006187302261391,0.06371077938862646,0.05705007652081667,0.05009060308791951,0.042843588023989125,0.03532062586255979,0.027533651429473494,0.019494913952640226,0.011216950678884,0.002712560108718834,-0.0060052250385666086,-0.014923165032299329,-0.02402784043585719,-0.03330567945507027,-0.04274298528126672,-0.05232596337329307,-0.06204074861218856,-0.07187343225846855,-0.08181008864410778,-0.09183680153478492,-0.10193969010133914,-0.11210493444270449,-0.12231880060583313,-0.1325676650538378,-0.14283803854892277,-0.1531165894398068,-0.16339016635231998,-0.1736458202637098,-0.18387082591600148,-0.19405270251342546,-0.2041792336511589,-0.2142384864277135,-0.2242188296982002,-0.2341089514304138,-0.24389787513021657,-0.2535749753070604,-0.26312999195468034,-0.2725530440260202,-0.28183464188532015,-0.2909656987251887,-0.29993754094574093,-0.30874191750565644,-0.3173710082610521,-0.32581743130132795,-0.33407424928099955,-0.3421349747432025,-0.34999357443297335,-0.3576444726033999,-0.3650825533276845,-0.37230316184410644,-0.3793021049670971,-0.3860756505916122,-0.39262052631707356,-0.39893391723134164,-0.4050134629027574,-0.410857253610793,-0.4164638258170596,-0.4218321568596441,-0.42696165885309195,-0.43185217179200286,-0.4365039558792895,-0.44091768311960056,-0.4450944282250727,-0.4490356588729364,-0.4527432253433651,-0.4562193495615524,-0.45946661356926677,-0.4624879474523573,-0.46528661674713007,-0.4678662093410381,-0.4702306218819871,-0.4723840457206419,-0.47433095241871875,-0.4760760788540233,-0.47762441195125854,-0.4789811730756261,-0.48015180213223657,-0.48114194140908023,-0.48195741919758167,-0.4826042332316608,-0.48308853398779383,-0.48341660787484286,-0.4835948603351249,-0.4836297988883479,-0.48352801614291996,-0.4832961727588104,-0.48294098032889765,-0.482469184186395,-0.4818875461801814,-0.4812028274381723,-0.48042177112104584,-0.47955108520219275,-0.47859742532884036,-0.4775673777759742,-0.4764674424777607,-0.47530401616786205,-0.47408337569279085,-0.4728116615154376,-0.471494861393086,-0.4701387942664623,-0.46874909442954404,-0.4673311959868056,-0.46589031756259436,-0.4644314472963748,-0.462959328216244,-0.4614784440320618,-0.4599930053453964,-0.4585069363314919,-0.4570238619852824,-0.45554709594462056,-0.45407962884908776,-0.4526241172709383,-0.45118287332406204,-0.44975785499860244,-0.4483506572149579,-0.44696250365352963,-0.4455942394636505,-0.4442463248788555,-0.442918829705631,-0.4416114287228649,-0.4403233980906928,-0.43905361280300087,-0.4378005451592199,-0.43656226429211936,-0.4353364368434091,-0.43412032881855084,-0.4329108085953443,-0.4317043511106566,-0.4304970432899086,-0.4292845907167557,-0.42806232548364037,-0.4268252152179737,-0.4255678733329207,-0.4242845705064351,-0.422969247343179,-0.42161552820854753,-0.4202167362511052,-0.4187659095716437,-0.41725581844883874,-0.4156789835728794,-0.414027695277802,-0.41229403372046375,-0.4104698899126296,-0.40854698755091967,-0.4065169056404355,-0.404371101899777,-0.40210093690769766,-0.39969769895298096,-0.3971526295495004,-0.3944569495482379,-0.3916018857526577,-0.38857869795383804,-0.3853787063148565,-0.3819933190196475,-0.37841406008506595,-0.374632597242079,-0.37064076980377214,-0.36643061643299735,-0.36199440271341166,-0.35732464843116396,-0.35241415448746183,-0.3472560293734851,-0.3418437151393062,-0.33617101277852796,-0.33023210694807265,-0.3240215899562386,-0.3175344849586394,-0.31076626828826887,-0.30371289084505065,-0.29637079850012255,-0.2887369514859424,-0.28080884271393836,-0.27258451493303637,-0.2640625766545812,-0.25524221678522263,-0.24612321789648317,-0.2367059680557584,-0.2269914711768437,-0.21698135587143574,-0.2066778827622804,-0.19608395020654748,-0.18520309841400054,-0.17403951197130366,-0.16259802075570243,-0.15088409919423665,-0.13890386384762113,-0.12666406932301946,-0.11417210250738348,-0.10143597511864429,-0.08846431463197398,-0.07526635367353564,-0.06185191792918822,-0.04823141257388132,-0.03441580725810457,-0.020416619718582923,-0.006245898046665058,0.008083798384252204,0.022559419301589546,0.03716744516612548,0.05189391001737778,0.06672442551469243,0.08164420612281303,0.09663809536109064,0.11169059305793277,0.1267858835648707,0.14190786484045786,0.157040178282923,0.17216623922913232,0.1872692680823852,0.20233232202158236,0.21733832722260005,0.2322701115310001,0.24711043751554831,0.2618420357737671,0.27644763832935604,0.29091001200846817,0.3052119917278712,0.3193365136061776,0.3332666477855339,0.3469856308835261,0.36047689801702154,0.3737241142985691,0.3867112056780858,0.39942238904840405,0.4118422015775531,0.4239555292080818,0.43574763424007606,0.4472041819484039,0.45831126621271673,0.4690554341073055,0.47942370937308604,0.48940361473006594,0.49898319301923494,0.5081510271329364,0.516896258668589,0.5252086052787794,0.5330783767298068,0.5404964896645332,0.547454481045399,0.5539445202787292,0.5599594200467901,0.5654926458571243,0.570538324300722,0.5750912500277368,0.5791468914592222,0.58270139522303,0.585751589282125,0.5882949847565434,0.5903297764843797,0.5918548423766726,0.5928697416123955,0.5933747117164071,0.5933706645494602,0.5928591812063321,0.5918425058021054,0.5903235381534221,0.5883058254005668,0.5857935526323864,0.5827915325729146,0.5793051943787146,0.5753405715761022,0.5709042891395355,0.5660035497013824,0.5606461189022683,0.5548403099136326,0.5485949671660767,0.5419194493128133,0.5348236114623627,0.5273177867141204,0.5194127670146446,0.5111197833445916,0.502450485262759,0.4934169198518693,0.4840315101097056,0.47430703282440867,0.46425659598026203,0.4538936157472764,0.44323179310213123,0.43228509012257565,0.42106770600224636,0.4095940528314826,0.39787873117233913,0.38593650544723085,0.37378227917676277,0.3614310701158602,0.3488979853268822,0.3361981962198096,0.323346913604305,0.310359362810642,0.29725075892474706,0.28403628217273047,0.2707310535064753,0.2573501104659026,0.24390838340205875,0.23042067214059078,0.2169016231551191,0.20336570730008766,0.18982719812479168,0.17630015077784614,0.16279838152529752,0.1493354479163635,0.13592462961709945,0.12257890992144344,0.1093109579634215,0.09613311166665295,0.08305736145478904,0.07009533473514318,0.057258281179814845,0.04455705883893873,0.03200212110774963,0.01960350455732084,0.007370817647357625,-0.004686769659974668,-0.01656053539253886,-0.028242214190244228,-0.03972400505628324,-0.05099857820775517,-0.06205908099430366,-0.07289914286301362,-0.08351287934800347,-0.09389489506873319,-0.10404028574324917,-0.11394463923664386,-0.12360403565399272,-0.13301504647818588,-0.1421747327678398,-0.15108064244302147,-0.15973080667538495,-0.16812373539032507,-0.17625841190334632,-0.18413428672518792,-0.19175127055753344,-0.19910972648537456,-0.2062104613757177,-0.21305471650119717,-0.21964415740556803,-0.22598086302777726,-0.23206731411297626,-0.2379063809480801,-0.2435013104547248,-0.24885571266799758,-0.25397354663731014,-0.25885910579320687,-0.2635170028180372,-0.2679521540481909,-0.27216976343270677,-0.27617530607633906,-0.27997451139809465,-0.28357334593344324,-0.2869779958008564,-0.2901948488527965,-0.29323047654317697,-0.29609161555269264,-0.2987851492097115,-0.3013180887420616,-0.3036975544029616,-0.30593075651070806,-0.30802497641635845,-0.30998754740305173,-0.3118258355459876,-0.31354722057791645,-0.3151590767801536,-0.3166687539041418,-0.31808355815720246,-0.3194107332937154,-0.3206574417996636,-0.3218307461311253,-0.3229375900240534,-0.32398477993412733,-0.32497896661774317,-0.32592662683201934,-0.3268340451917899,-0.3277072962607101,-0.32855222688673974,-0.3293744387478658,-0.33017927115054935,-0.3309717841876598,-0.33175674230602703,-0.33253859828561816,-0.33332147769655446,-0.3341091639360036,-0.3349050838503315,-0.3357122938846117,-0.3365334667977825,-0.33737087906681806,-0.3382263990356448,-0.3391014758021288,-0.3399971289146332,-0.34091393901356637,-0.34185203947307274,-0.3428111090302325,-0.34379036546415415,-0.3447885604491561,-0.3458039756247551,-0.34683441985559843,-0.3478772277260582,-0.34892925937177854,-0.3499869016655086,-0.3510460707035492,-0.35210221561559757,-0.3531503237994101,-0.35418492762957215,-0.35520011262827095,-0.3561895271302245,-0.3571463935151274,-0.35806352102013644,-0.3589333200866683,-0.3597478182315274,-0.3604986774601217,-0.3611772131735111,-0.36177441446599373,-0.3622809657551783,-0.36268726973495047,-0.36298347160414124,-0.3631594844800373,-0.36320501593546634,-0.3631095956383566,-0.3628626040560419,-0.3624533021554171,-0.3618708620317582,-0.3611043983991119,-0.36014300084143913,-0.35897576669623577,-0.35759183445962883,-0.3559804176394782,-0.3541308390030119,-0.35203256515846515,-0.34967524138278405,-0.3470487265723755,-0.3441431281651942,-0.3409488368718011,-0.3374565610637218,-0.3336573606897476,-0.32954268061038106,-0.3251043832455044,-0.320334780423875,-0.3152266643342161,-0.30977333751560376,-0.3039686418412211,-0.2978069864148159,-0.2912833742656958,-0.2843934277395262,-0.2771334124984604,-0.26950026002907695,-0.261491588551026,-0.2531057222542778,-0.24434170881785447,-0.23519933514158423,-0.2256791412121895,-0.2157824320675963,-0.2055112878537946,-0.19486857193609977,-0.18385793699487077,-0.17248382906057927,-0.1607514894714859,-0.14866695472295927,-0.13623705417804227,-0.12346940566511816,-0.11037240902532491,-0.09695523763578942,-0.08322782790591973,-0.06920086678705098,-0.05488577737166375,-0.040294702618842215,-0.02544048719779146,-0.010336657459035394,0.005002600427982838,0.020562464142617046,0.036327500658432675,0.052281693390581675,0.06840847093555384,0.08469073731861818,0.10111090367370754,0.11765092122281953,0.13429231538520223,0.1510162208969604,0.1678034178699451,0.18463436868874336,0.20148925561353268,0.21834801899200806,0.23519039600769853,0.2519959598427314,0.26874415909805915,0.2854143573631061,0.3019858728726644,0.3184380181571092,0.33475013956115435,0.3509016565441393,0.36687210070183485,0.3826411544024616,0.39818868889575765,0.4134948018052612,0.4285398539674411,0.4433045055613455,0.45776975144588483,0.47191695565067243,0.48572788498515235,0.49918474168685806,0.5122701949993068,0.5249674116151106,0.5372600849688709,0.5491324633510009,0.5605693767918383,0.5715562626884757,0.5820791901661956,0.5921248831392886,0.601680742013961,0.6107348640031957,0.6192760620519394,0.6272938823569111,0.6347786204485583,0.6417213358220598,0.6481138651268651,0.6539488339167606,0.6592196669503626,0.6639205970409422,0.6680466724616526,0.671593762897489,0.6745585639242747,0.6769386000097228,0.6787322260498796,0.6799386274535439,0.6805578187816248,0.6805906409523287,0.6800387570213956,0.6789046465295009,0.6771915984009788,0.6749037023955852,0.6720458391311038,0.6686236686875952,0.6646436177983247,0.6601128656482766,0.6550393283136622,0.6494316418650838,0.6432991441501252,0.6366518552883986,0.6295004569222973,0.6218562702479227,0.6137312328405613,0.6051378743168292,0.5960892909053408,0.5865991189962076,0.5766815077324199,0.566351090717617,0.5556229569182269,0.5445126208144249,0.5330359918412144,0.5212093431858718,0.5090492800342858,0.49657270735323444,0.4837967972854076,0.4707389562470116,0.45741679183366685,0.4438480796366168,0.4300507300621201,0.4160427552481765,0.401842236173152,0.38746729003965147,0.3729360380070564,0.35826657334684275,0.3434769300893926,0.32858505220974255,0.313608763387185,0.2985657373876606,0.28347346913528865,0.26834924653765174,0.2532101231212364,0.23807289153241687,0.22295405795179526,0.20786981744727043,0.19283603027836585,0.17786819917809432,0.16298144765514305,0.14819049935601464,0.1335096585180912,0.11895279154478153,0.10453330972738414,0.09026415311541877,0.07615777552402506,0.062226130682105585,0.04848065954323594,0.034932278779104375,0.021591370466667037,0.008467772979322085,-0.004429226919013425,-0.017090900808901056,-0.029509084226871648,-0.04167618117850914,-0.053585167554957715,-0.06522959346211865,-0.07660358448303176,-0.08770184188431374,-0.09851964177525369,-0.10905283325371079,-0.1192978355887771,-0.1292516344677091,-0.13891177730994747,-0.1482763676573829,-0.1573440586617893,-0.1661140456804129,-0.17458605797812046,-0.18276034954024137,-0.19063768901031622,-0.198219348767502,-0.20550709316470225,-0.21250316597035643,-0.21921027706963456,-0.22563158846843762,-0.23177069963402713,-0.2376316322206246,-0.2432188142396416,-0.24853706371983428,-0.253591571889312,-0.25838788592200207,-0.2629318913013616,-0.2672297938425968,-0.27128810140569104,-0.27511360534513807,-0.2787133617527656,-0.28209467253389453,-0.28526506633273374,-0.2882322793137587,-0.29100423580945234,-0.29358902885359434,-0.2959949006376755,-0.29823022295407636,-0.3003034777000187,-0.3022232374985189,-0.303998146471919,-0.3056369012024642,-0.30714823191871726,-0.30854088394045487,-0.30982359940939164,-0.3110050993393607,-0.31209406602455636,-0.313099125838586,-0.31402883245664803,-0.31489165054803947,-0.31569593999325685,-0.3164499406610706,-0.31716175775461064,-0.31783934772364053,-0.3184905047405526,-0.3191228477432159,-0.3197438080632519,-0.32036061768169305,-0.32098029816190315,-0.3216096502896602,-0.3222552444276752,-0.3229234115889655,-0.3236202352362834,-0.32435154380597303,-0.32512290394167526,-0.3259396144179412,-0.32680670073484347,-0.32772891036694524,-0.3287107086519057,-0.3297562753055892,-0.33086950155183553,-0.33205398785758816,-0.33331304227217534,-0.3346496793821208,-0.33606661989678016,-0.3375662908675883,-0.3391508265268364,-0.3408220697238267,-0.3425815739356269,-0.34443060583064816,-0.3463701483640967,-0.34840090438500654,-0.35052330073508414,-0.35273749281846195,-0.35504336961440736,-0.35744055909317446,-0.3599284339917053,-0.3625061179172275,-0.3651724917571088,-0.367926200370469,-0.3707656595340995,-0.37368906312361616,-0.3766943905177781,-0.3797794142088494,-0.3829417075976952,-0.3861786529558459,-0.3894874495241953,-0.3928651216814078,-0.39630852710110415,-0.39981436485203387,-0.4033791834246246,-0.40699938864914703,-0.410671251456833,-0.4143909154652414,-0.4181544043835832,-0.42195762919169577,-0.4257963950230359,-0.42966640772628373,-0.4335632800965221,-0.43748253769499423,-0.4414196241390813,-0.4453699058273981,-0.44932867613510497,-0.4532911590659283,-0.4572525123076232,-0.46120782970989954,-0.4651521432526812,-0.46908042449425275,-0.4729875854359033,-0.4768684788262373,-0.48071789798564823,-0.484530576133665,-0.4883011851362834,-0.4920243337007959,-0.4956945651363187,-0.4993063547114007,-0.5028541065693528,-0.5063321502673555,-0.5097347370939853,-0.5130560362305663,-0.5162901307456118,-0.5194310135080478,N
4,0.11881121429386607,0.11684851973460672,0.11448447976423612,0.11172362902315695,0.10857111898683962,0.10503270541528036,0.10111473442225942,0.09682412722363919,0.09216836363637147,0.08715546440549747,0.08179397243626894,0.07609293300591741,0.07006187302261391,0.06371077938862646,0.05705007652081667,0.05009060308791951,0.042843588023989125,0.03532062586255979,0.027533651429473494,0.019494913952640226,0.011216950678884,0.002712560108718834,-0.0060052250385666086,-0.014923165032299329,-0.02402784043585719,-0.03330567945507027,-0.04274298528126672,-0.05232596337329307,-0.06204074861218856,-0.07187343225846855,-0.08181008864410778,-0.09183680153478492,-0.10193969010133914,-0.11210493444270449,-0.12231880060583313,-0.1325676650538378,-0.14283803854892277,-0.1531165894398068,-0.16339016635231998,-0.1736458202637098,-0.18387082591600148,-0.19405270251342546,-0.2041792336511589,-0.2142384864277135,-0.2242188296982002,-0.2341089514304138,-0.24389787513021657,-0.2535749753070604,-0.26312999195468034,-0.2725530440260202,-0.28183464188532015,-0.2909656987251887,-0.29993754094574093,-0.30874191750565644,-0.3173710082610521,-0.32581743130132795,-0.33407424928099955,-0.3421349747432025,-0.34999357443297335,-0.3576444726033999,-0.3650825533276845,-0.37230316184410644,-0.3793021049670971,-0.3860756505916122,-0.39262052631707356,-0.39893391723134164,-0.4050134629027574,-0.410857253610793,-0.4164638258170596,-0.4218321568596441,-0.42696165885309195,-0.43185217179200286,-0.4365039558792895,-0.44091768311960056,-0.4450944282250727,-0.4490356588729364,-0.4527432253433651,-0.4562193495615524,-0.45946661356926677,-0.4624879474523573,-0.46528661674713007,-0.4678662093410381,-0.4702306218819871,-0.4723840457206419,-0.47433095241871875,-0.4760760788540233,-0.47762441195125854,-0.4789811730756261,-0.48015180213223657,-0.48114194140908023,-0.48195741919758167,-0.4826042332316608,-0.48308853398779383,-0.48341660787484286,-0.4835948603351249,-0.4836297988883479,-0.48352801614291996,-0.4832961727588104,-0.48294098032889765,-0.482469184186395,-0.4818875461801814,-0.4812028274381723,-0.48042177112104584,-0.47955108520219275,-0.47859742532884036,-0.4775673777759742,-0.4764674424777607,-0.47530401616786205,-0.47408337569279085,-0.4728116615154376,-0.471494861393086,-0.4701387942664623,-0.46874909442954404,-0.4673311959868056,-0.46589031756259436,-0.4644314472963748,-0.462959328216244,-0.4614784440320618,-0.4599930053453964,-0.4585069363314919,-0.4570238619852824,-0.45554709594462056,-0.45407962884908776,-0.4526241172709383,-0.45118287332406204,-0.44975785499860244,-0.4483506572149579,-0.44696250365352963,-0.4455942394636505,-0.4442463248788555,-0.442918829705631,-0.4416114287228649,-0.4403233980906928,-0.43905361280300087,-0.4378005451592199,-0.43656226429211936,-0.4353364368434091,-0.43412032881855084,-0.4329108085953443,-0.4317043511106566,-0.4304970432899086,-0.4292845907167557,-0.42806232548364037,-0.4268252152179737,-0.4255678733329207,-0.4242845705064351,-0.422969247343179,-0.42161552820854753,-0.4202167362511052,-0.4187659095716437,-0.41725581844883874,-0.4156789835728794,-0.414027695277802,-0.41229403372046375,-0.4104698899126296,-0.40854698755091967,-0.4065169056404355,-0.404371101899777,-0.40210093690769766,-0.39969769895298096,-0.3971526295495004,-0.3944569495482379,-0.3916018857526577,-0.38857869795383804,-0.3853787063148565,-0.3819933190196475,-0.37841406008506595,-0.374632597242079,-0.37064076980377214,-0.36643061643299735,-0.36199440271341166,-0.35732464843116396,-0.35241415448746183,-0.3472560293734851,-0.3418437151393062,-0.33617101277852796,-0.33023210694807265,-0.3240215899562386,-0.3175344849586394,-0.31076626828826887,-0.30371289084505065,-0.29637079850012255,-0.2887369514859424,-0.28080884271393836,-0.27258451493303637,-0.2640625766545812,-0.25524221678522263,-0.24612321789648317,-0.2367059680557584,-0.2269914711768437,-0.21698135587143574,-0.2066778827622804,-0.19608395020654748,-0.18520309841400054,-0.17403951197130366,-0.16259802075570243,-0.15088409919423665,-0.13890386384762113,-0.12666406932301946,-0.11417210250738348,-0.10143597511864429,-0.08846431463197398,-0.07526635367353564,-0.06185191792918822,-0.04823141257388132,-0.03441580725810457,-0.020416619718582923,-0.006245898046665058,0.008083798384252204,0.022559419301589546,0.03716744516612548,0.05189391001737778,0.06672442551469243,0.08164420612281303,0.09663809536109064,0.11169059305793277,0.1267858835648707,0.14190786484045786,0.157040178282923,0.17216623922913232,0.1872692680823852,0.20233232202158236,0.21733832722260005,0.2322701115310001,0.24711043751554831,0.2618420357737671,0.27644763832935604,0.29091001200846817,0.3052119917278712,0.3193365136061776,0.3332666477855339,0.3469856308835261,0.36047689801702154,0.3737241142985691,0.3867112056780858,0.39942238904840405,0.4118422015775531,0.4239555292080818,0.43574763424007606,0.4472041819484039,0.45831126621271673,0.4690554341073055,0.47942370937308604,0.48940361473006594,0.49898319301923494,0.5081510271329364,0.516896258668589,0.5252086052787794,0.5330783767298068,0.5404964896645332,0.547454481045399,0.5539445202787292,0.5599594200467901,0.5654926458571243,0.570538324300722,0.5750912500277368,0.5791468914592222,0.58270139522303,0.585751589282125,0.5882949847565434,0.5903297764843797,0.5918548423766726,0.5928697416123955,0.5933747117164071,0.5933706645494602,0.5928591812063321,0.5918425058021054,0.5903235381534221,0.5883058254005668,0.5857935526323864,0.5827915325729146,0.5793051943787146,0.5753405715761022,0.5709042891395355,0.5660035497013824,0.5606461189022683,0.5548403099136326,0.5485949671660767,0.5419194493128133,0.5348236114623627,0.5273177867141204,0.5194127670146446,0.5111197833445916,0.502450485262759,0.4934169198518693,0.4840315101097056,0.47430703282440867,0.46425659598026203,0.4538936157472764,0.44323179310213123,0.43228509012257565,0.42106770600224636,0.4095940528314826,0.39787873117233913,0.38593650544723085,0.37378227917676277,0.3614310701158602,0.3488979853268822,0.3361981962198096,0.323346913604305,0.310359362810642,0.29725075892474706,0.28403628217273047,0.2707310535064753,0.2573501104659026,0.24390838340205875,0.23042067214059078,0.2169016231551191,0.20336570730008766,0.18982719812479168,0.17630015077784614,0.16279838152529752,0.1493354479163635,0.13592462961709945,0.12257890992144344,0.1093109579634215,0.09613311166665295,0.08305736145478904,0.07009533473514318,0.057258281179814845,0.04455705883893873,0.03200212110774963,0.01960350455732084,0.007370817647357625,-0.004686769659974668,-0.01656053539253886,-0.028242214190244228,-0.03972400505628324,-0.05099857820775517,-0.06205908099430366,-0.07289914286301362,-0.08351287934800347,-0.09389489506873319,-0.10404028574324917,-0.11394463923664386,-0.12360403565399272,-0.13301504647818588,-0.1421747327678398,-0.15108064244302147,-0.15973080667538495,-0.16812373539032507,-0.17625841190334632,-0.18413428672518792,-0.19175127055753344,-0.19910972648537456,-0.2062104613757177,-0.21305471650119717,-0.21964415740556803,-0.22598086302777726,-0.23206731411297626,-0.2379063809480801,-0.2435013104547248,-0.24885571266799758,-0.25397354663731014,-0.25885910579320687,-0.2635170028180372,-0.2679521540481909,-0.27216976343270677,-0.27617530607633906,-0.27997451139809465,-0.28357334593344324,-0.2869779958008564,-0.2901948488527965,-0.29323047654317697,-0.29609161555269264,-0.2987851492097115,-0.3013180887420616,-0.3036975544029616,-0.30593075651070806,-0.30802497641635845,-0.30998754740305173,-0.3118258355459876,-0.31354722057791645,-0.3151590767801536,-0.3166687539041418,-0.31808355815720246,-0.3194107332937154,-0.3206574417996636,-0.3218307461311253,-0.3229375900240534,-0.32398477993412733,-0.32497896661774317,-0.32592662683201934,-0.3268340451917899,-0.3277072962607101,-0.32855222688673974,-0.3293744387478658,-0.33017927115054935,-0.3309717841876598,-0.33175674230602703,-0.33253859828561816,-0.33332147769655446,-0.3341091639360036,-0.3349050838503315,-0.3357122938846117,-0.3365334667977825,-0.33737087906681806,-0.3382263990356448,-0.3391014758021288,-0.3399971289146332,-0.34091393901356637,-0.34185203947307274,-0.3428111090302325,-0.34379036546415415,-0.3447885604491561,-0.3458039756247551,-0.34683441985559843,-0.3478772277260582,-0.34892925937177854,-0.3499869016655086,-0.3510460707035492,-0.35210221561559757,-0.3531503237994101,-0.35418492762957215,-0.35520011262827095,-0.3561895271302245,-0.3571463935151274,-0.35806352102013644,-0.3589333200866683,-0.3597478182315274,-0.3604986774601217,-0.3611772131735111,-0.36177441446599373,-0.3622809657551783,-0.36268726973495047,-0.36298347160414124,-0.3631594844800373,-0.36320501593546634,-0.3631095956383566,-0.3628626040560419,-0.3624533021554171,-0.3618708620317582,-0.3611043983991119,-0.36014300084143913,-0.35897576669623577,-0.35759183445962883,-0.3559804176394782,-0.3541308390030119,-0.35203256515846515,-0.34967524138278405,-0.3470487265723755,-0.3441431281651942,-0.3409488368718011,-0.3374565610637218,-0.3336573606897476,-0.32954268061038106,-0.3251043832455044,-0.320334780423875,-0.3152266643342161,-0.30977333751560376,-0.3039686418412211,-0.2978069864148159,-0.2912833742656958,-0.2843934277395262,-0.2771334124984604,-0.26950026002907695,-0.261491588551026,-0.2531057222542778,-0.24434170881785447,-0.23519933514158423,-0.2256791412121895,-0.2157824320675963,-0.2055112878537946,-0.19486857193609977,-0.18385793699487077,-0.17248382906057927,-0.1607514894714859,-0.14866695472295927,-0.13623705417804227,-0.12346940566511816,-0.11037240902532491,-0.09695523763578942,-0.08322782790591973,-0.06920086678705098,-0.05488577737166375,-0.040294702618842215,-0.02544048719779146,-0.010336657459035394,0.005002600427982838,0.020562464142617046,0.036327500658432675,0.052281693390581675,0.06840847093555384,0.08469073731861818,0.10111090367370754,0.11765092122281953,0.13429231538520223,0.1510162208969604,0.1678034178699451,0.18463436868874336,0.20148925561353268,0.21834801899200806,0.23519039600769853,0.2519959598427314,0.26874415909805915,0.2854143573631061,0.3019858728726644,0.3184380181571092,0.33475013956115435,0.3509016565441393,0.36687210070183485,0.3826411544024616,0.39818868889575765,0.4134948018052612,0.4285398539674411,0.4433045055613455,0.45776975144588483,0.47191695565067243,0.48572788498515235,0.49918474168685806,0.5122701949993068,0.5249674116151106,0.5372600849688709,0.5491324633510009,0.5605693767918383,0.5715562626884757,0.5820791901661956,0.5921248831392886,0.601680742013961,0.6107348640031957,0.6192760620519394,0.6272938823569111,0.6347786204485583,0.6417213358220598,0.6481138651268651,0.6539488339167606,0.6592196669503626,0.6639205970409422,0.6680466724616526,0.671593762897489,0.6745585639242747,0.6769386000097228,0.6787322260498796,0.6799386274535439,0.6805578187816248,0.6805906409523287,0.6800387570213956,0.6789046465295009,0.6771915984009788,0.6749037023955852,0.6720458391311038,0.6686236686875952,0.6646436177983247,0.6601128656482766,0.6550393283136622,0.6494316418650838,0.6432991441501252,0.6366518552883986,0.6295004569222973,0.6218562702479227,0.6137312328405613,0.6051378743168292,0.5960892909053408,0.5865991189962076,0.5766815077324199,0.566351090717617,0.5556229569182269,0.5445126208144249,0.5330359918412144,0.5212093431858718,0.5090492800342858,0.49657270735323444,0.4837967972854076,0.4707389562470116,0.45741679183366685,0.4438480796366168,0.4300507300621201,0.4160427552481765,0.401842236173152,0.38746729003965147,0.3729360380070564,0.35826657334684275,0.3434769300893926,0.32858505220974255,0.313608763387185,0.2985657373876606,0.28347346913528865,0.26834924653765174,0.2532101231212364,0.23807289153241687,0.22295405795179526,0.20786981744727043,0.19283603027836585,0.17786819917809432,0.16298144765514305,0.14819049935601464,0.1335096585180912,0.11895279154478153,0.10453330972738414,0.09026415311541877,0.07615777552402506,0.062226130682105585,0.04848065954323594,0.034932278779104375,0.021591370466667037,0.008467772979322085,-0.004429226919013425,-0.017090900808901056,-0.029509084226871648,-0.04167618117850914,-0.053585167554957715,-0.06522959346211865,-0.07660358448303176,-0.08770184188431374,-0.09851964177525369,-0.10905283325371079,-0.1192978355887771,-0.1292516344677091,-0.13891177730994747,-0.1482763676573829,-0.1573440586617893,-0.1661140456804129,-0.17458605797812046,-0.18276034954024137,-0.19063768901031622,-0.198219348767502,-0.20550709316470225,-0.21250316597035643,-0.21921027706963456,-0.22563158846843762,-0.23177069963402713,-0.2376316322206246,-0.2432188142396416,-0.24853706371983428,-0.253591571889312,-0.25838788592200207,-0.2629318913013616,-0.2672297938425968,-0.27128810140569104,-0.27511360534513807,-0.2787133617527656,-0.28209467253389453,-0.28526506633273374,-0.2882322793137587,-0.29100423580945234,-0.29358902885359434,-0.2959949006376755,-0.29823022295407636,-0.3003034777000187,-0.3022232374985189,-0.303998146471919,-0.3056369012024642,-0.30714823191871726,-0.30854088394045487,-0.30982359940939164,-0.3110050993393607,-0.31209406602455636,-0.313099125838586,-0.31402883245664803,-0.31489165054803947,-0.31569593999325685,-0.3164499406610706,-0.31716175775461064,-0.31783934772364053,-0.3184905047405526,-0.3191228477432159,-0.3197438080632519,-0.32036061768169305,-0.32098029816190315,-0.3216096502896602,-0.3222552444276752,-0.3229234115889655,-0.3236202352362834,-0.32435154380597303,-0.32512290394167526,-0.3259396144179412,-0.32680670073484347,-0.32772891036694524,-0.3287107086519057,-0.3297562753055892,-0.33086950155183553,-0.33205398785758816,-0.33331304227217534,-0.3346496793821208,-0.33606661989678016,-0.3375662908675883,-0.3391508265268364,-0.3408220697238267,-0.3425815739356269,-0.34443060583064816,-0.3463701483640967,-0.34840090438500654,-0.35052330073508414,-0.35273749281846195,-0.35504336961440736,-0.35744055909317446,-0.3599284339917053,-0.3625061179172275,-0.3651724917571088,-0.367926200370469,-0.3707656595340995,-0.37368906312361616,-0.3766943905177781,-0.3797794142088494,-0.3829417075976952,-0.3861786529558459,-0.3894874495241953,-0.3928651216814078,-0.39630852710110415,-0.39981436485203387,-0.4033791834246246,-0.40699938864914703,-0.410671251456833,-0.4143909154652414,-0.4181544043835832,-0.42195762919169577,-0.4257963950230359,-0.42966640772628373,-0.4335632800965221,-0.43748253769499423,-0.4414196241390813,-0.4453699058273981,-0.44932867613510497,-0.4532911590659283,-0.4572525123076232,-0.46120782970989954,-0.4651521432526812,-0.46908042449425275,-0.4729875854359033,-0.4768684788262373,-0.48071789798564823,-0.484530576133665,-0.4883011851362834,-0.4920243337007959,-0.4956945651363187,-0.4993063547114007,-0.5028541065693528,-0.5063321502673555,-0.5097347370939853,-0.5130560362305663,-0.5162901307456118,-0.5194310135080478,-0.5224725831834574,-0.5254086403803118,-0.5282328839320798,-0.5309389073950831,-0.5335201959183117,-0.535970123540802,-0.5382819508882407,-0.5404488233350453,-0.5424637697817352,-0.5443197021080384,-0.5460094152804753,-0.5475255881778609,-0.5488607852834044,-0.5500074593261299,-0.5509579548812717,-0.5517045129924476,-0.5522392769255151,-0.5525542990875301,-0.5526415490743015,-0.552492922859919,-0.5521002531878291,-0.5514553211571441,-0.5505498689357758,-0.5493756135800446,-0.5479242620010069,-0.5461875270916884,-0.5441571449844017,-0.5418248934158791,-0.5391826111825053,-0.5362222186162855,-0.5329357389700693,-0.5293153206231902,-0.5253532600441093,-0.5210420254185637,-0.5163742808215228,-0.5113429108293864,-0.5059410454943073,-0.5001620855917593,-0.4939997280334619,-0.48744799134285843,-0.4805012411004048,-0.4731542152583734,-0.46540204921369366,-0.45724030052826786,-0.44866497318778603,-0.4396725412814419,-0.43025997197888993,-0.42042474769057936,-0.41016488731783385,-0.3994789665169183,-0.388366136906221,-0.3768261441384217,-0.36485934475994236,-0.3524667217976995,-0.3396498990234375,-0.32641115383349734,-0.312753428677399,-0.2986803409925623,-0.28419619161865933,-0.2693059716472191,-0.25401536764907245,-0.23833076524463923,-0.22225925100120633,-0.205808612625585,-0.18898733740870752,-0.17180460890290924,-0.15427030183400256,-0.13639497524058744,-0.11818986384244237,-0.0996668676974786,-0.08083854023868539,-0.06171807473828039,-0.04231928920386163,-0.022656609736073478,-0.0027450524047288073,0.01739979632602866,0.03776180060727105,0.058324297584596424,0.07907012104818159,0.09998162629338986,0.12104071615957834,0.1422288681666889,0.1635271626331949,0.1849163117020714,0.20637668922563585,0.22788836139376795,0.24943111794688516,0.27098450388362344,0.29252785164196854,0.3140403137030848,0.33550089553072243,0.3568884887965778,0.3781819048566127,0.39935990836431695,0.4204012508581532,0.44128470423494515,0.4619890940935859,0.4824933328964788,0.5027764528552133,0.5228176384978436,0.5425962589180087,0.5620918996551099,0.5812843941116925,0.600153854466732,0.6186807020973502,0.636845697490309,0.6546299695881765,0.6720150445475445,0.6889828739140939,0.7055158621771472,0.7215968936305798,0.7372093585049387,0.7523371783820988,0.7669648308930302,0.7810773736749083,0.7946604675711283,0.8077003990541857,0.8201841018049086,0.8320991773529663,0.8434339147172438,0.854177309018084,0.8643190790133417,0.8738496834893477,0.8827603364651283,0.8910430211975745,0.8986905029626285,0.9056963405713935,0.9120548965954294,0.9177613462827239,0.9228116851150983,0.9272027349393657,0.9309321486327233,0.9339984132764894,0.9364008517703999,0.9381396227972854,0.9392157191017697,0.9396309641035719,0.9393880068597472,0.9384903153748493,0.936942168285586,0.9347486449653081,0.9319156140615416,0.9284497204586198,0.9243583706962175,0.9196497169121969,0.9143326393614961,0.9084167275445276,0.9019122600061188,0.894830182889185,0.8871820873031396,0.8789801855471643,0.8702372862557717,0.8609667685569262,0.851182555308424,0.8408990854579195,0.8301312856001808,0.8188945408339843,0.8072046650066544,0.7950778704165475,0.7825307370616277,0.7695801815428363,0.7562434257209176,0.7425379652102686,0.728481537798974,0.7140920918875604,0.6993877550201189,0.6843868025659583,0.6691076266172755,0.6535687051685837,0.6377885716163403,0.6217857845998556,0.6055788982255003,0.5891864327389019,0.572626845701068,0.5559185037112441,0.5390796547272241,0.5221284010352378,0.5050826728958158,0.48796020287524783,0.47077850089324,0.45355483004473884,0.43630618325497317,0.41904926081673965,0.40180044885535987,0.38457579875157294,0.3673910075172155,0.3502613991006444,0.33320190662252713,0.3162270555683455,0.2993509479571448,0.28258724749390307,0.2659491657214962,0.24944944919024695,0.23310036763787748,0.21691370315639028,0.2009007403411428,0.18507225743213696,0.16943851843761804,0.15400926621407407,0.13879371649754574,0.12380055290367914,0.10903792290504238,0.0945134347809296,0.08023415554263487,0.06620660983845474,0.05243677981686475,0.03893010590947862,0.025691488515038215,0.012725290586595434,3.534111455309249e-05,-0.012375060514772825,-0.024503139297469563,-0.036346638539438085,-0.04790381297304439,-0.059173421120214266,-0.07015471693595665,-0.0808474407402166,-0.091251809451729,-0.10136850614943471,-0.11119866897997845,-0.12074387943031013,-0.13000615001148472,-0.1389879114160277,-0.14769199918899012,-0.15612163992880723,-0.16428043704144157,-0.17217235608298842,-0.17980170971397788,-0.1871731422734226,-0.1942916139846735,-0.20116238481425006,-0.20779099800431666,-0.2141832633040336,-0.22034523994452326,-0.22628321941353347,-0.23200370807364884,-0.23751340965822437,-0.24281920769208393,-0.24792814789378098,-0.2528474205993508,-0.25758434322241014,-0.26214634275559306,-0.266540938321237,-0.2707757237846516,-0.27485835044799495,-0.2787965098468013,-0.28259791667459383,-0.2862702918624633,-0.28982134583623503,-0.2932587619648918,-0.2965901802120183,-0.29982318101143446,-0.3029652693905911,-0.3060238593510205,-0.3090062585088389,-0.3119196530127722,-0.31477109275504406,-0.3175674768528925,-0.3203155393620936,-0.32302183522513434,-0.32569272649265363,-0.3283343688377249,-0.3309526983653798,-0.3335534187527916,-0.3361419887827409,-0.33872361030754244,-0.3413032166590871,-0.343885461547862,N
5,0.5793051943787146,0.5753405715761022,0.5709042891395355,0.5660035497013824,0.5606461189022683,0.5548403099136326,0.5485949671660767,0.5419194493128133,0.5348236114623627,0.5273177867141204,0.5194127670146446,0.5111197833445916,0.502450485262759,0.4934169198518693,0.4840315101097056,0.47430703282440867,0.46425659598026203,0.4538936157472764,0.44323179310213123,0.43228509012257565,0.42106770600224636,0.4095940528314826,0.39787873117233913,0.38593650544723085,0.37378227917676277,0.3614310701158602,0.3488979853268822,0.3361981962198096,0.323346913604305,0.310359362810642,0.29725075892474706,0.28403628217273047,0.2707310535064753,0.2573501104659026,0.24390838340205875,0.23042067214059078,0.2169016231551191,0.20336570730008766,0.18982719812479168,0.17630015077784614,0.16279838152529752,0.1493354479163635,0.13592462961709945,0.12257890992144344,0.1093109579634215,0.09613311166665295,0.08305736145478904,0.07009533473514318,0.057258281179814845,0.04455705883893873,0.03200212110774963,0.01960350455732084,0.007370817647357625,-0.004686769659974668,-0.01656053539253886,-0.028242214190244228,-0.03972400505628324,-0.05099857820775517,-0.06205908099430366,-0.07289914286301362,-0.08351287934800347,-0.09389489506873319,-0.10404028574324917,-0.11394463923664386,-0.12360403565399272,-0.13301504647818588,-0.1421747327678398,-0.15108064244302147,-0.15973080667538495,-0.16812373539032507,-0.17625841190334632,-0.18413428672518792,-0.19175127055753344,-0.19910972648537456,-0.2062104613757177,-0.21305471650119717,-0.21964415740556803,-0.22598086302777726,-0.23206731411297626,-0.2379063809480801,-0.2435013104547248,-0.24885571266799758,-0.25397354663731014,-0.25885910579320687,-0.2635170028180372,-0.2679521540481909,-0.27216976343270677,-0.27617530607633906,-0.27997451139809465,-0.28357334593344324,-0.2869779958008564,-0.2901948488527965,-0.29323047654317697,-0.29609161555269264,-0.2987851492097115,-0.3013180887420616,-0.3036975544029616,-0.30593075651070806,-0.30802497641635845,-0.30998754740305173,-0.3118258355459876,-0.31354722057791645,-0.3151590767801536,-0.3166687539041418,-0.31808355815720246,-0.3194107332937154,-0.3206574417996636,-0.3218307461311253,-0.3229375900240534,-0.32398477993412733,-0.32497896661774317,-0.32592662683201934,-0.3268340451917899,-0.3277072962607101,-0.32855222688673974,-0.3293744387478658,-0.33017927115054935,-0.3309717841876598,-0.33175674230602703,-0.33253859828561816,-0.33332147769655446,-0.3341091639360036,-0.3349050838503315,-0.3357122938846117,-0.3365334667977825,-0.33737087906681806,-0.3382263990356448,-0.3391014758021288,-0.3399971289146332,-0.34091393901356637,-0.34185203947307274,-0.3428111090302325,-0.34379036546415415,-0.3447885604491561,-0.3458039756247551,-0.34683441985559843,-0.3478772277260582,-0.34892925937177854,-0.3499869016655086,-0.3510460707035492,-0.35210221561559757,-0.3531503237994101,-0.35418492762957215,-0.35520011262827095,-0.3561895271302245,-0.3571463935151274,-0.35806352102013644,-0.3589333200866683,-0.3597478182315274,-0.3604986774601217,-0.3611772131735111,-0.36177441446599373,-0.3622809657551783,-0.36268726973495047,-0.36298347160414124,-0.3631594844800373,-0.36320501593546634,-0.3631095956383566,-0.3628626040560419,-0.3624533021554171,-0.3618708620317582,-0.3611043983991119,-0.36014300084143913,-0.35897576669623577,-0.35759183445962883,-0.3559804176394782,-0.3541308390030119,-0.35203256515846515,-0.34967524138278405,-0.3470487265723755,-0.3441431281651942,-0.3409488368718011,-0.3374565610637218,-0.3336573606897476,-0.32954268061038106,-0.3251043832455044,-0.320334780423875,-0.3152266643342161,-0.30977333751560376,-0.3039686418412211,-0.2978069864148159,-0.2912833742656958,-0.2843934277395262,-0.2771334124984604,-0.26950026002907695,-0.261491588551026,-0.2531057222542778,-0.24434170881785447,-0.23519933514158423,-0.2256791412121895,-0.2157824320675963,-0.2055112878537946,-0.19486857193609977,-0.18385793699487077,-0.17248382906057927,-0.1607514894714859,-0.14866695472295927,-0.13623705417804227,-0.12346940566511816,-0.11037240902532491,-0.09695523763578942,-0.08322782790591973,-0.06920086678705098,-0.05488577737166375,-0.040294702618842215,-0.02544048719779146,-0.010336657459035394,0.005002600427982838,0.020562464142617046,0.036327500658432675,0.052281693390581675,0.06840847093555384,0.08469073731861818,0.10111090367370754,0.11765092122281953,0.13429231538520223,0.1510162208969604,0.1678034178699451,0.18463436868874336,0.20148925561353268,0.21834801899200806,0.23519039600769853,0.2519959598427314,0.26874415909805915,0.2854143573631061,0.3019858728726644,0.3184380181571092,0.33475013956115435,0.3509016565441393,0.36687210070183485,0.3826411544024616,0.39818868889575765,0.4134948018052612,0.4285398539674411,0.4433045055613455,0.45776975144588483,0.47191695565067243,0.48572788498515235,0.49918474168685806,0.5122701949993068,0.5249674116151106,0.5372600849688709,0.5491324633510009,0.5605693767918383,0.5715562626884757,0.5820791901661956,0.5921248831392886,0.601680742013961,0.6107348640031957,0.6192760620519394,0.6272938823569111,0.6347786204485583,0.6417213358220598,0.6481138651268651,0.6539488339167606,0.6592196669503626,0.6639205970409422,0.6680466724616526,0.671593762897489,0.6745585639242747,0.6769386000097228,0.6787322260498796,0.6799386274535439,0.6805578187816248,0.6805906409523287,0.6800387570213956,0.6789046465295009,0.6771915984009788,0.6749037023955852,0.6720458391311038,0.6686236686875952,0.6646436177983247,0.6601128656482766,0.6550393283136622,0.6494316418650838,0.6432991441501252,0.6366518552883986,0.6295004569222973,0.6218562702479227,0.6137312328405613,0.6051378743168292,0.5960892909053408,0.5865991189962076,0.5766815077324199,0.566351090717617,0.5556229569182269,0.5445126208144249,0.5330359918412144,0.5212093431858718,0.5090492800342858,0.49657270735323444,0.4837967972854076,0.4707389562470116,0.45741679183366685,0.4438480796366168,0.4300507300621201,0.4160427552481765,0.401842236173152,0.38746729003965147,0.3729360380070564,0.35826657334684275,0.3434769300893926,0.32858505220974255,0.313608763387185,0.2985657373876606,0.28347346913528865,0.26834924653765174,0.2532101231212364,0.23807289153241687,0.22295405795179526,0.20786981744727043,0.19283603027836585,0.17786819917809432,0.16298144765514305,0.14819049935601464,0.1335096585180912,0.11895279154478153,0.10453330972738414,0.09026415311541877,0.07615777552402506,0.062226130682105585,0.04848065954323594,0.034932278779104375,0.021591370466667037,0.008467772979322085,-0.004429226919013425,-0.017090900808901056,-0.029509084226871648,-0.04167618117850914,-0.053585167554957715,-0.06522959346211865,-0.07660358448303176,-0.08770184188431374,-0.09851964177525369,-0.10905283325371079,-0.1192978355887771,-0.1292516344677091,-0.13891177730994747,-0.1482763676573829,-0.1573440586617893,-0.1661140456804129,-0.17458605797812046,-0.18276034954024137,-0.19063768901031622,-0.198219348767502,-0.20550709316470225,-0.21250316597035643,-0.21921027706963456,-0.22563158846843762,-0.23177069963402713,-0.2376316322206246,-0.2432188142396416,-0.24853706371983428,-0.253591571889312,-0.25838788592200207,-0.2629318913013616,-0.2672297938425968,-0.27128810140569104,-0.27511360534513807,-0.2787133617527656,-0.28209467253389453,-0.28526506633273374,-0.2882322793137587,-0.29100423580945234,-0.29358902885359434,-0.2959949006376755,-0.29823022295407636,-0.3003034777000187,-0.3022232374985189,-0.303998146471919,-0.3056369012024642,-0.30714823191871726,-0.30854088394045487,-0.30982359940939164,-0.3110050993393607,-0.31209406602455636,-0.313099125838586,-0.31402883245664803,-0.31489165054803947,-0.31569593999325685,-0.3164499406610706,-0.31716175775461064,-0.31783934772364053,-0.3184905047405526,-0.3191228477432159,-0.3197438080632519,-0.32036061768169305,-0.32098029816190315,-0.3216096502896602,-0.3222552444276752,-0.3229234115889655,-0.3236202352362834,-0.32435154380597303,-0.32512290394167526,-0.3259396144179412,-0.32680670073484347,-0.32772891036694524,-0.3287107086519057,-0.3297562753055892,-0.33086950155183553,-0.33205398785758816,-0.33331304227217534,-0.3346496793821208,-0.33606661989678016,-0.3375662908675883,-0.3391508265268364,-0.3408220697238267,-0.3425815739356269,-0.34443060583064816,-0.3463701483640967,-0.34840090438500654,-0.35052330073508414,-0.35273749281846195,-0.35504336961440736,-0.35744055909317446,-0.3599284339917053,-0.3625061179172275,-0.3651724917571088,-0.367926200370469,-0.3707656595340995,-0.37368906312361616,-0.3766943905177781,-0.3797794142088494,-0.3829417075976952,-0.3861786529558459,-0.3894874495241953,-0.3928651216814078,-0.39630852710110415,-0.39981436485203387,-0.4033791834246246,-0.40699938864914703,-0.410671251456833,-0.4143909154652414,-0.4181544043835832,-0.42195762919169577,-0.4257963950230359,-0.42966640772628373,-0.4335632800965221,-0.43748253769499423,-0.4414196241390813,-0.4453699058273981,-0.44932867613510497,-0.4532911590659283,-0.4572525123076232,-0.46120782970989954,-0.4651521432526812,-0.46908042449425275,-0.4729875854359033,-0.4768684788262373,-0.48071789798564823,-0.484530576133665,-0.4883011851362834,-0.4920243337007959,-0.4956945651363187,-0.4993063547114007,-0.5028541065693528,-0.5063321502673555,-0.5097347370939853,-0.5130560362305663,-0.5162901307456118,-0.5194310135080478,-0.5224725831834574,-0.5254086403803118,-0.5282328839320798,-0.5309389073950831,-0.5335201959183117,-0.535970123540802,-0.5382819508882407,-0.5404488233350453,-0.5424637697817352,-0.5443197021080384,-0.5460094152804753,-0.5475255881778609,-0.5488607852834044,-0.5500074593261299,-0.5509579548812717,-0.5517045129924476,-0.5522392769255151,-0.5525542990875301,-0.5526415490743015,-0.552492922859919,-0.5521002531878291,-0.5514553211571441,-0.5505498689357758,-0.5493756135800446,-0.5479242620010069,-0.5461875270916884,-0.5441571449844017,-0.5418248934158791,-0.5391826111825053,-0.5362222186162855,-0.5329357389700693,-0.5293153206231902,-0.5253532600441093,-0.5210420254185637,-0.5163742808215228,-0.5113429108293864,-0.5059410454943073,-0.5001620855917593,-0.4939997280334619,-0.48744799134285843,-0.4805012411004048,-0.4731542152583734,-0.46540204921369366,-0.45724030052826786,-0.44866497318778603,-0.4396725412814419,-0.43025997197888993,-0.42042474769057936,-0.41016488731783385,-0.3994789665169183,-0.388366136906221,-0.3768261441384217,-0.36485934475994236,-0.3524667217976995,-0.3396498990234375,-0.32641115383349734,-0.312753428677399,-0.2986803409925623,-0.28419619161865933,-0.2693059716472191,-0.25401536764907245,-0.23833076524463923,-0.22225925100120633,-0.205808612625585,-0.18898733740870752,-0.17180460890290924,-0.15427030183400256,-0.13639497524058744,-0.11818986384244237,-0.0996668676974786,-0.08083854023868539,-0.06171807473828039,-0.04231928920386163,-0.022656609736073478,-0.0027450524047288073,0.01739979632602866,0.03776180060727105,0.058324297584596424,0.07907012104818159,0.09998162629338986,0.12104071615957834,0.1422288681666889,0.1635271626331949,0.1849163117020714,0.20637668922563585,0.22788836139376795,0.24943111794688516,0.27098450388362344,0.29252785164196854,0.3140403137030848,0.33550089553072243,0.3568884887965778,0.3781819048566127,0.39935990836431695,0.4204012508581532,0.44128470423494515,0.4619890940935859,0.4824933328964788,0.5027764528552133,0.5228176384978436,0.5425962589180087,0.5620918996551099,0.5812843941116925,0.600153854466732,0.6186807020973502,0.636845697490309,0.6546299695881765,0.6720150445475445,0.6889828739140939,0.7055158621771472,0.7215968936305798,0.7372093585049387,0.7523371783820988,0.7669648308930302,0.7810773736749083,0.7946604675711283,0.8077003990541857,0.8201841018049086,0.8320991773529663,0.8434339147172438,0.854177309018084,0.8643190790133417,0.8738496834893477,0.8827603364651283,0.8910430211975745,0.8986905029626285,0.9056963405713935,0.9120548965954294,0.9177613462827239,0.9228116851150983,0.9272027349393657,0.9309321486327233,0.9339984132764894,0.9364008517703999,0.9381396227972854,0.9392157191017697,0.9396309641035719,0.9393880068597472,0.9384903153748493,0.936942168285586,0.9347486449653081,0.9319156140615416,0.9284497204586198,0.9243583706962175,0.9196497169121969,0.9143326393614961,0.9084167275445276,0.9019122600061188,0.894830182889185,0.8871820873031396,0.8789801855471643,0.8702372862557717,0.8609667685569262,0.851182555308424,0.8408990854579195,0.8301312856001808,0.8188945408339843,0.8072046650066544,0.7950778704165475,0.7825307370616277,0.7695801815428363,0.7562434257209176,0.7425379652102686,0.728481537798974,0.7140920918875604,0.6993877550201189,0.6843868025659583,0.6691076266172755,0.6535687051685837,0.6377885716163403,0.6217857845998556,0.6055788982255003,0.5891864327389019,0.572626845701068,0.5559185037112441,0.5390796547272241,0.5221284010352378,0.5050826728958158,0.48796020287524783,0.47077850089324,0.45355483004473884,0.43630618325497317,0.41904926081673965,0.40180044885535987,0.38457579875157294,0.3673910075172155,0.3502613991006444,0.33320190662252713,0.3162270555683455,0.2993509479571448,0.28258724749390307,0.2659491657214962,0.24944944919024695,0.23310036763787748,0.21691370315639028,0.2009007403411428,0.18507225743213696,0.16943851843761804,0.15400926621407407,0.13879371649754574,0.12380055290367914,0.10903792290504238,0.0945134347809296,0.08023415554263487,0.06620660983845474,0.05243677981686475,0.03893010590947862,0.025691488515038215,0.012725290586595434,3.534111455309249e-05,-0.012375060514772825,-0.024503139297469563,-0.036346638539438085,-0.04790381297304439,-0.059173421120214266,-0.07015471693595665,-0.0808474407402166,-0.091251809451729,-0.10136850614943471,-0.11119866897997845,-0.12074387943031013,-0.13000615001148472,-0.1389879114160277,-0.14769199918899012,-0.15612163992880723,-0.16428043704144157,-0.17217235608298842,-0.17980170971397788,-0.1871731422734226,-0.1942916139846735,-0.20116238481425006,-0.20779099800431666,-0.2141832633040336,-0.22034523994452326,-0.22628321941353347,-0.23200370807364884,-0.23751340965822437,-0.24281920769208393,-0.24792814789378098,-0.2528474205993508,-0.25758434322241014,-0.26214634275559306,-0.266540938321237,-0.2707757237846516,-0.27485835044799495,-0.2787965098468013,-0.28259791667459383,-0.2862702918624633,-0.28982134583623503,-0.2932587619648918,-0.2965901802120183,-0.29982318101143446,-0.3029652693905911,-0.3060238593510205,-0.3090062585088389,-0.3119196530127722,-0.31477109275504406,-0.3175674768528925,-0.3203155393620936,-0.32302183522513434,-0.32569272649265363,-0.3283343688377249,-0.3309526983653798,-0.3335534187527916,-0.3361419887827409,-0.33872361030754244,-0.3413032166590871,-0.343885461547862,-0.3464747085071323,-0.34907502089263015,-0.35169015241869134,-0.3543235382523009,-0.3569782867097788,-0.35965717154442567,-0.3623626247768654,-0.3650967300793,-0.36786121677960293,-0.370657454515799,-0.37348644853609003,-0.37634883568184513,-0.37924488111998106,-0.3821744758342193,-0.3851371348423746,-0.3881319961608376,-0.39115782059118964,-0.39421299237132534,-0.39729552069583574,-0.40040304214132433,-0.4035328240522365,-0.406681768886855,-0.40984641948070616,-0.4130229652300449,-0.4162072492500225,-0.41939477654286683,-0.42258072317913287,-0.42575994651181903,-0.4289269964646346,-0.43207612791474104,-0.43520131416269037,-0.4382962614845577,-0.44135442476208364,-0.44436902415778856,-0.4473330627773112,-0.4502393452723167,-0.4530804973602395,-0.45584898624110515,-0.4585371418798093,-0.46113717910919516,-0.46364122050254974,-0.4660413199627722,-0.4683294869691059,-0.47049771140481256,-0.4725379888697734,-0.4744423463708525,-0.4762028682787982,-0.4778117224412247,-0.47926118635197856,-0.4805436732961704,-0.48165175839676844,-0.4825782044742851,-0.4833159876244152,-0.48385832243731286,-0.4841986867935927,-0.4843308461545615,-0.48424887725905125,-0.48394719117298873,-0.48342055565748604,-0.4826641167896432,-0.4816734197452954,-0.4804444286799658,-0.4789735456668411,-0.477257628622277,-0.47529400812677497,-0.47308050307936017,-0.47061543514926,-0.46789764196371214,-0.4649264889510309,-0.461701879790584,-0.4582242654495063,-0.4544946517638229,-0.4505146055084595,-0.4462862589425112,-0.4418123128477985,-0.43709603804815045,-0.4321412753689856,-0.4269524340271188,-0.42153448847039565,-0.4158929736638573,-0.41003397879977604,-0.4039641394415488,-0.397690628140885,-0.3912211435494376,-0.384563898041124,-0.37772760391373505,-0.37072145827264247,-0.3635551266581242,-0.3562387254356004,-0.34878280299068154,-0.34119831979841664,-0.33349662741211966,-0.32568944639634806,-0.3177888432595282,-0.30980720646918464,-0.3017572216088458,-0.2936518457120952,-0.28550428083223817,-0.27732794692957846,-0.2691364541421223,-0.26094357449699845,-0.25276321315571015,-0.2446093793111083,-0.23649615682159383,-0.22843767462597517,-0.22044807698023824,-0.21254149357095273,-0.2047320095588799,-0.1970336356109572,-0.18946027800573503,-0.18202570891390876,-0.17474353693888922,-0.167627177987962,-0.1606898265606862,-0.15394442755392845,-0.14740364866182656,-0.1410798534213015,-0.13498507494938441,-0.1291309904242224,-0.12352889636014647,-0.11818968473095887,-0.11312382001310167,-0.10834131722866264,-0.10385172105084478,-0.09966408601316606,-0.09578695785951047,-0.09222835607421492,-0.0889957576248182,-0.0860960819399707,-0.08353567714013771,-0.08132030753826969,-0.07945514242892397,-0.0779447461895779,-0.0767930697262799,-0.07600344329715202,-0.07557857073440144,-0.07552052506450668,-0.0758307455082391,-0.07651003583637928,-0.07755856406614074,-0.07897586350000084,-0.08076083512182834,-0.08291175136575217,-0.0854262612596494,-0.0883013969282682,-0.09153358143109051,-0.09511863790603496,-0.0990517999874954,-0.10332772346460632,-0.1079404991430452,-0.11288366687114558,-0.11815023068862239,-0.12373267505381934,-0.12962298210309509,-0.13581264989378228,-0.1422927115800957,-0.14905375546944322,-0.1560859459048145,-0.16337904491729993,-0.1709224345925109,-0.17870514009907748,-0.1867158533356376,-0.19494295715456503,-0.20337455010887284,-0.2119984716493174,-0.22080232768278663,-0.2297735163997605,-0.23889925429068706,-0.24816660229106127,-0.2575624920117549,-0.2670737520155492,-0.2766871340901611,-0.28638933944978207,-0.2961670447823397,-0.3060069280575055,-0.3158956940248035,-0.32582009935787776,-0.3357669774281378,-0.3457232626991818,-0.3556760147150236,-0.3656124416303797,-0.3755199232205338,-0.38538603330944127,-0.39519856155987765,-0.4049455345790547,-0.4146152363063711,-0.42419622765658116,-0.43367736538441576,-0.44304782012160643,-0.45229709352542075,-0.46141503447838056,-0.47039185429569147,-0.479218140925939,-0.48788487215986825,-0.49638342787214834,-0.5047056013043446,-0.5128436093740502,-0.520790101985695,-0.5285381703208146,-0.5360813540928184,-0.5434136477673732,-0.5505295057727073,-0.5574238467339567,-0.5640920567500118,-0.5705299917089222,-0.5767339786292305,-0.5827008160174874,-0.5884277732399522,-0.5939125889229463,-0.5991534684197898,-0.6041490803922488,-0.6088985525410322,-0.6134014665080574,-0.6176578519818123,-0.6216681800450183,-0.6254333557918252,-0.6289547102278596,-0.632233991468728,-0.6352733552588432,-0.6380753548294044,-0.6406429301121138,-0.6429793963331277,-0.6450884320185285,-0.646974066437697,-0.6486406665023235,-0.6500929231366698,-0.651335837138023,-0.6523747045517464,-0.6532151015948463,-0.6538628691747262,-0.6543240970555547,-0.6546051077173943,-0.6547124399423289,-0.6546528321575088,-0.6544332055662739,-0.6540606470995957,-0.6535423922162847,-0.6528858075725986,-0.6520983735803282,-0.6511876668832174,-0.6501613427953142,-0.6490271177513739,-0.6477927518198153,-0.6464660313251545,-0.6450547516140801,-0.6435666999791099,-0.6420096387465712,-0.6403912885526089,-0.6387193118504262,-0.6370012966943392,-0.6352447408423807,-0.6334570362234111,-0.6316454538217895,-0.629817129033867,-0.6279790475468305,-0.6261380317844311,-0.6243007279537686,-0.6224735937134395,-0.6206628864762175,-0.618874652363909,-0.6171147158354007,-0.6153886700018258,-0.6137018676365416,-0.6120594128892508,-0.6104661537051893,-0.6089266749241485,-0.6074452920220362,-0.6060260454788143,-0.6046726957743144,-0.6033887189995001,-0.602177303059165,N
