0,0.5367082773005639,0.5298240846140182,0.5228343754900325,0.5157475106879482,0.5085717439889672,0.5013152129477088,0.4939859300204508,0.48659177405691617,0.47914048215716687,0.4716396419066916,0.4640966839871,0.4565188751475052,0.4489133115375063,0.4412869124158136,0.4336464142335183,0.42599836507848127,0.41834911948327225,0.4107048336143144,0.40307146084853596,0.3954547477321886,0.387860230327948,0.38029323096575235,0.37275885539860326,0.3652619903525745,0.357807301471489,0.35039923166387743,0.3430419998418356,0.33573960002846326,0.3284958008272531,0.32131414526468366,0.3141979510101582,0.30715031096721684,0.30017409423708735,0.2932719474579801,0.2864462965042442,0.2796993485168732,0.27303309425296735,0.2664493107598887,0.2599495643750041,0.2535352140429095,0.2472074149472964,0.2409671224554201,0.23481509635531408,0.22875190535452142,0.2227779318232413,0.21689337677995707,0.21109826511175905,0.20539245101320908,0.1997756236338455,0.1942473129261605,0.18880689566894737,0.18345360163037416,0.17818651984971584,0.17300460503095666,0.16790668403364034,0.16289146243783997,0.1579575311708137,0.15310337319385361,0.1483273702412248,0.14362780959551572,0.13900289089017848,0.13445073293403265,0.12996938054086082,0.12555681133899588,0.12121094254577447,0.11692963770012776,0.1127107133373032,0.10855194558212578,0.10445107664705679,0.10040582122826992,0.09641387278118298,0.09247290964865597,0.08858060102888227,0.0847346127857107,0.08093261310224414,0.07717227797288179,0.07345129653444414,0.06976737624288447,0.06611824789736591,0.06250167050814175,0.058915436007868804,0.05535737380794009,0.05182535519420245,0.04831729755115993,0.04483116840951749,0.04136498931812999,0.03791683953844844,0.034484859555758675,0.031067254405718288,0.027662296821615147,0.024268330210068946,0.020883771461314975,0.01750711359829657,0.014136928268493163,0.010771868083456369,0.007410668810466348,0.004052151418156121,0.0006952239798477814,-0.0026611165533733283,-0.006017782695186038,-0.0093755948760414,-0.012735280000338259,-0.016097470089814964,-0.019462700987777144,-0.02283141111654919,-0.026203940294147098,-0.029580528604464827,-0.032961315307046705,-0.03634633778864379,-0.03973553056409506,-0.04312872430601094,-0.046525644867927755,-0.049925912295727126,-0.05332903984399756,-0.05673443298811365,-0.060141388404927776,-0.06354909292718298,-0.0669566224968607,-0.07036294110503512,-0.07376689968161422,-0.07716723494104386,-0.08056256822362132,-0.08395140433662249,-0.08733213037209772,-0.09070301452058473,-0.09406220493172775,-0.09740772863021026,-0.10073749046336973,-0.10404927210225495,-0.10734073115135861,-0.1106094003735561,-0.11385268700030488,-0.11706787214736122,-0.1202521103943904,-0.12340242953446276,-0.12651573045916462,-0.12958878720006115,-0.13261824719471124,-0.13560063179924783,-0.13853233702868203,-0.14140963455519714,-0.14422867303834372,-0.14698547981688367,-0.1496759629512515,-0.15229591365010173,-0.15484100916484486,-0.157306816214816,-0.1596887949724559,-0.16198230365039296,-0.16418260373071464,-0.16628486581599483,-0.16828417604167117,-0.170175543028674,-0.17195390538965216,-0.17361413976297935,-0.1751510693138958,-0.17655947267725883,-0.17783409334265946,-0.17896964943623608,-0.17996084381770652,-0.18080237445459774,-0.1814889450779163,-0.18201527609375617,-0.1823761156943498,-0.18256625114311936,-0.1825805202332968,-0.18241382288109959,-0.1820611327831247,-0.18151750910255138,-0.18077810818058349,-0.17983819523881261,-0.17869315600999425,-0.1773385082664731,-0.17576991324672028,-0.17398318695664192,-0.17197431129778049,-0.1697394449978178,-0.1672749343375377,-0.16457732363844968,-0.16164336545130198,-0.15847003041330074,-0.15505451676778012,-0.1513942595182348,-0.14748693916802055,-0.1433304900217768,-0.13892310805088084,-0.1342632583117707,-0.12934968188945187,-0.1241814023530454,-0.1187577317204693,-0.11307827590609262,-0.10714293960830698,-0.10095193061648759,-0.09450576354204336,-0.08780526297153372,-0.08085156602830672,-0.07364612434068732,-0.0661907054272732,-0.05848739350138252,-0.050538589687071506,-0.04234701164735669,-0.03391569263367845,-0.025247979957846316,-0.016347532880103776,-0.007218319914699686,0.002135384436900117,0.011709003519104633,0.021497662920729327,0.031496195432457734,0.041699146549069095,0.05210078050252307,0.06269508681475323,0.07347578735721662,0.08443634390052542,0.09556996613628051,0.10686962015412572,0.11832803735730411,0.12993772379667753,0.14169096989691962,0.1535798605467664,0.1655962855309862,0.17773195028511896,0.18997838694861674,0.20232696568883785,0.2147689062745185,0.22729528987835423,0.23989707107554947,0.25256508999875793,0.26529008462282416,0.2780627031615613,0.29087351654644383,0.30371303094897756,0.3165717003240138,0.3294399389635372,0.3423081340381815,0.3551666580942563,0.36800588148906666,0.3808161847577479,0.3935879708883213,0.4063116774700716,0.4189777886973785,0.4315768472206079,0.4440994658116589,0.45653633879683203,0.4688782532355376,0.48111609984504705,0.4932408836528493,0.5052437343428241,0.5171159162852859,0.5288488382594871,0.5404340628544775,0.5518633155168295,0.5631284932389518,0.5742216729013658,0.5851351192578367,0.5958612925333546,0.6063928556321669,0.6167226809763866,0.6268438569735211,0.6367496940921558,0.6464337305492138,0.6558897376295911,0.6651117246298115,0.6740939433959603,0.6828308924558887,0.6913173207718225,0.6995482311162479,0.70751888305326,0.7152247955338327,0.7226617491359328,0.7298257879560617,0.7367132211378364,0.7433206240476969,0.7496448391274143,0.7556829764263698,0.7614324137950513,0.7668907967473274,0.7720560380214271,0.7769263168451507,0.7815000778898621,0.7857760299226474,0.7897531441873032,0.7934306525208711,0.796808045191817,0.7998850684693758,0.8026617219523399,0.8051382556595602,0.8073151668635316,0.8091931966732319,0.8107733263916787,0.8120567736461298,0.813044988267459,0.8137396479241192,0.8141426535449288,0.8142561245485753,0.8140823938792678,0.8136240028662333,0.8128836959377773,0.8118644151938866,0.8105692948211928,0.809001655357812,0.8071649978366496,0.805062997815084,0.8026994992803879,0.8000785084413072,0.7972041874336963,0.7940808479458065,0.7907129447503104,0.7871050691515996,0.7832619423747463,0.7791884089005411,0.7748894297328018,0.7703700756058701,0.7656355201582884,0.7606910330768829,0.7555419731974283,0.7501937815699455,0.744651974514889,0.7389221366748093,0.733009914048115,0.7269210070136577,0.7206611633739289,0.7142361714243496,0.7076518530385801,0.7009140567806409,0.6940286510726146,0.6870015174268305,0.679838543734187,0.6725456176200006,0.6651286198957844,0.6575934181160032,0.6499458602320358,0.6421917683539131,0.6343369326448995,0.6263871053525694,0.6183479949628949,0.6102252604843931,0.6020245058884305,0.5937512747154804,0.5854110448414201,0.577009223414451,0.5685511419874805,0.5600420518531986,0.5514871195736479,0.5428914227111126,0.5342599457775037,0.5255975763973024,0.5169091016628065,0.5081992046808267,0.4994724613296517,0.4907333372313731,0.48198618493043094,0.47323524128389144,0.4644846250810258,0.4557383348923963,0.4470002471341475,0.43827411434767477,0.4295635637041105,0.42087209572078305,0.4122030831611046,0.403559770111,0.39494527124779316,0.3863625713083822,0.3778145247510662,0.3693038556168414,0.36083315760533685,0.3524048943649968,0.34402139998407144,0.3356848796807188,0.3273974106981685,0.31916094339201373,0.3109773024831046,0.3028481884667554,0.29477517918605894,0.28675973156673124,0.27880318349949845,0.2709067558672949,0.2630715547224745,0.255298573602639,0.2475886959612939,0.2399426977043597,0.23236124983660453,0.2248449212090595,0.21739418134702457,0.21000940335213952,0.20269086688489119,0.19543876122280995,0.18825318837899024,0.18113416627701004,0.17408163198848778,0.16709544502815818,0.16017539069121042,0.15332118342761325,0.1465324702544173,0.13980883419115986,0.13314979769248092,0.12655482606707977,0.12002333088609671,0.11355467337385958,0.10714816776420263,0.10080308461781395,0.09451865410696503,0.08829406926328187,0.08212848917467552,0.07602104212890985,0.06997082871209685,0.06397692486165289,0.058038384864589,0.05215424430064736,0.046323522936284944,0.04054522756386586,0.03481835477147974,0.029141893639500194,0.023514828369615427,0.017936140843046264,0.01240481309653008,0.006919829714458813,0.0014801801450941626,-0.003915139058297473,-0.009267122077806795,-0.014576751751734647,-0.01984499756809768,-0.02507281373024393,-0.030261137300792672,-0.03541088642261424,-0.040522958605290496,-0.045598229065254584,-0.05063754911186359,-0.055641744571959285,-0.06061161424519144,-0.06554792838568438,-0.07045142720916434,-0.07532281942479077,-0.08016278078974556,-0.08497195268507743,-0.08975094071309572,-0.09450031331696687,-0.09922060041742023,-0.10391229205073862,-0.10857583698968734,-0.11321164133965377,-0.11782006710590541,-0.12240143071347741,-0.12695600145504904,-0.131483999861424,-0.1359855960034554,-0.14046090772107966,-0.1449099987664315,-0.14933287686720734,-0.15372949172640896,-0.15809973294966742,-0.16244342787702296,-0.1667603393244317,-0.17105016325995762,-0.17531252641249964,-0.17954698379266046,-0.18375301613858977,-0.18793002732526334,-0.1920773417471953,-0.1961942016629801,-0.20027976452253743,-0.20433310031736934,-0.20835318895099258,-0.21233891759847595,-0.2162890780688463,-0.220202364219351,-0.22407736943092846,-0.22791258412330437,-0.23170639333358142,-0.23545707441908378,-0.23916279490402179,-0.242821610455733,-0.24643146301980062,-0.24999017917713046,-0.25349546873944934,-0.2569449235626711,-0.26033601660335876,-0.2636661012811458,-0.2669324111644464,-0.27013205995851436,-0.2732620418193895,-0.2763192320550857,-0.27930038823125425,-0.28220215165999984,-0.28502104929058397,-0.2877534960507934,-0.29039579763588613,-0.29294415370130217,-0.29539466146162063,-0.2977433197390592,-0.2999860334619254,-0.30211861857463307,-0.3041368073608603,-0.3060362542128509,-0.30781254183060586,-0.30946118779487847,-0.31097765150245604,-0.31235734149371996,-0.313595623165009,-0.31468782682202234,-0.3156292560661134,-0.3164151965365874,-0.3170409249929523,-0.31750171868617133,-0.317792865000923,-0.3179096713780261,-0.31784747548583986,-0.3176016555758297,-0.3171676409932679,-0.3165409228477941,-0.3157170648178734,-0.3146917140335058,-0.31346061201067843,-0.3120196056365767,-0.31036465817258185,-0.30849186021417885,-0.3063974405763067,-0.3040777771012818,-0.3015294073625082,-0.298749039213272,-0.29573356115274096,-0.2924800525003759,-0.28898579334235586,-0.2852482741909339,-0.2812652053235758,-0.27703452579398347,-0.2725544120881107,-0.2678232863793397,-0.2628398243579997,-0.257602962630187,-0.2521119056627792,-0.2463661322347712,-0.24036540137451803,-0.23410975778234347,-0.22759953672544245,-0.2208353683784399,-0.21381818159821434,-0.2065492071392794,-0.19902998030976352,-0.19126234305821202,-0.18324844548861952,-0.17499074680727378,-0.16649201569400862,-0.1577553300816389,-0.14878407633705734,-0.1395819478472485,-0.13015294300693522,-0.12050136259812134,-0.11063180656092853,-0.10054917016644904,-0.09025863960179092,-0.07976568697386144,-0.06907606474245775,-0.058195799600188385,-0.04713118581927716,-0.035888778084115634,-0.024475383827897223,-0.012898055096087917,-0.001164079967962636,0.010719026430325532,N,,,,,,,,,,,,,,,,,,,,,,,,,,,,,,,,,,,,,,,,,,,,,,,,,,,,,,,,,,,,,,,,,,,,,,,,,,,,,,,,,,,,,,,,,,,,,,,,,,,,,,,,,,,,,,,,,,,,,,,,,,,,,,,,,,,,,,,,,,,,,,,,,,,,,,,,,,,,,,,,,,,,,,,,,,,,,,,,,,,,,,,,,,,,,,,,,,,,,,,,,,,,,,,,,,,,,,,,,,,,,,,,,,,,,,,,,,,,,,,,,,,,,,,,,,,,,,,,,,,,,,,,,,,,,,,,,,,,,,,,,,,,,,,,,,,,,,,,,,,,,,,,,,,,,,,,,,,,,,,,,,,,,,,,,,,,,,,,,,,,,,,,,,,,,,,,,,,,,,,,,,,,,,,,,,,,,,,,,,,,,,,,,,,,,,,,,,,,,,,,,,,,,,,,,,,,,,,,,,,,,,,,,,,,,,,,,,,,,,,,
1,0.3327787579173872,0.3251253164942879,0.3173986333691935,0.309604978619669,0.3017505371433344,0.2938414027185094,0.2858835723113246,0.27788294062231533,0.2698452948841823,0.26177630990999834,0.2536815433787911,0.2455664313603855,0.23743628409310694,0.22929628201107435,0.22115147200447996,0.21300676391296972,0.20486692726746894,0.19673658828248589,0.1886202270884301,0.1805221752072257,0.1724466132858321,0.16439756908706904,0.15637891572442952,0.14839437014148726,0.14044749184800243,0.13254168190976845,0.12468018217667586,0.11686607474803387,0.10910228168825883,0.10139156499511046,0.09373652681139436,0.08613960988133004,0.07860309826051584,0.07112911827361204,0.06371963970217573,0.05637647719765332,0.04910129192628776,0.04189559344192542,0.03476074177230881,0.0276979497148089,0.020708285347437093,0.013792674751358487,0.006951904931667953,0.00018662693075189495,-0.006502640867263467,-0.013115509257417307,-0.019651714586923892,-0.026111114994046548,-0.03249368651369937,-0.03879951905831833,-0.04502881229097619,-0.051181871398543737,-0.057259102763740626,-0.06326100954251532,-0.0691881871609111,-0.07504131873906403,-0.08082117044593948,-0.08652858680002443,-0.09216448593939505,-0.09772985487424915,-0.10322574472496046,-0.10865326595531652,-0.11401358361740396,-0.11930791261725301,-0.12453751300554258,-0.1297036853085721,-0.1348077659222657,-0.1398511225815701,-0.14483514990949267,-0.14976126506017132,-0.1546309034779412,-0.15944551478207766,-0.16420655877450427,-0.16891550157305832,-0.1735738118793073,-0.17818295738172665,-0.18274440128686978,-0.18725959897664304,-0.19172999479573208,-0.19615701896760263,-0.2005420846328374,-0.20488658501060542,-0.20919189068988842,-0.21345934705065775,-0.21769027180847159,-0.22188595267992786,-0.22604764517108258,-0.2301765704866619,-0.23427391355299815,-0.23834082115040528,-0.24237840015443096,-0.24638771588310085,-0.2503697905440173,-0.25432560177661434,-0.25825608128748423,-0.26216211357517094,-0.2660445347341981,-0.2699041313200431,-0.27374163925577577,-0.27755774276971473,-0.2813530733594874,-0.285128208773545,-0.2888836719991282,-0.2926199302543519,-0.2963373939853399,-0.30003641585722546,-0.3037172897220796,-0.30738024956083476,-0.31102546840197587,-0.31465305719955705,-0.3182630636427658,-0.3218554708930331,-0.32543019626129654,-0.32898708981729563,-0.3325259329092173,-0.3360464365984534,-0.3395482400302556,-0.34303090873028447,-0.34649393279787927,-0.3499367250023326,-0.3533586188146857,-0.3567588663756313,-0.3601366363771418,-0.36349101187272104,-0.3668209880547222,-0.37012546999210416,-0.3734032702922585,-0.3766531067003361,-0.3798735996916152,-0.3830632700757855,-0.3862205366007439,-0.38934371358686776,-0.39243100865374897,-0.395480520551247,-0.3984902370696916,-0.4014580330549575,-0.40438166859683017,-0.40725878741443905,-0.41008691542438264,-0.41286345952398634,-0.41558570666055566,-0.4182508232098036,-0.42085585464652014,-0.42339772553514315,-0.4258732399016992,-0.4282790819943814,-0.43061181739733195,-0.43286789451293295,-0.4350436464750449,-0.43713529351510383,-0.43913894576320933,-0.4410506065047289,-0.4428661759435069,-0.44458145547323197,-0.44619215241751903,-0.4476938852402505,-0.449082189262663,-0.4503525228785947,-0.4515002742200664,-0.4525207682653456,-0.45340927441852785,-0.4541610145516881,-0.4547711714645575,-0.45523489774935355,-0.4555473250751706,-0.4557035738641796,-0.45569876329664327,-0.4555280216172567,-0.4551864967480782,-0.4546693671796641,-0.45397185308049803,-0.45308922759560466,-0.45201682833344337,-0.4507500690089652,-0.44928445118199467,-0.4476155760571862,-0.4457391563336723,-0.44365102805829476,-0.44134716240875566,-0.43882367736526845,-0.43607684926243534,-0.4331031241936926,-0.42989912921851475,-0.426461683344146,-0.4227878082737183,-0.4188747388905766,-0.41471993342845803,-0.41032108329744965,-0.40567612255478547,-0.40078323699092244,-0.39564087278409443,-0.3902477446954369,-0.3846028437955129,-0.3787054446989513,-0.3725551122697539,-0.3661517077755116,-0.35949539448418494,-0.35258664268502543,-0.34542623410348144,-0.338015265694077,-0.33035515281076966,-0.3224476317477344,-0.3142947616349606,-0.3058989256817567,-0.2972628317688296,-0.28838951237989907,-0.27928232385613716,-0.26994494496849564,-0.26038137481858503,-0.2505959300811007,-0.24059324159747206,-0.23037825033226678,-0.21995620270698157,-0.20933264532453288,-0.19851341909550724,-0.18750465277864278,-0.17631275595212612,-0.16494441143588454,-0.1534065671854676,-0.1417064276758748,-0.12985144479469687,-0.11784930827034798,-0.10570793566384393,-0.09343546194636915,-0.08104022868116784,-0.06853077283485215,-0.055915815247388596,-0.043204248783001234,-0.03040512618120171,-0.01752764763832075,-0.004581148156467514,0.008424915313913702,0.02148097691726425,0.034577375086176414,0.04770436583993471,0.060852136159696396,0.07401081742313245,0.08717049886575054,0.10032124102533471,0.11345308914488021,0.12655608652522465,0.1396202878045043,0.1526357721299164,0.16559265620405,0.1784811071986257,0.1912913555066857,0.20401370728972473,0.216638556799273,0.22915639847169864,0.24155783877700518,0.2538336077875445,0.26597457045473705,0.27797173760171334,0.2898162766235285,0.30149952187170237,0.3130129847171021,0.32434836329409417,0.33549755189960545,0.3464526500020885,0.3572059708436331,0.367750049641495,0.3780776513717075,0.3881817780987307,0.39805567584407603,0.40769284101310727,0.41708702637952894,0.4262322466087058,0.4351227833242484,0.44375318973963035,0.452118294849468,0.4602132071547023,0.4680333179235899,0.47557430401484974,0.48283213026737487,0.4898030514413532,0.49648361371980887,0.5028706557989727,0.508961309570435,0.514753000377613,0.5202434468544326,0.5254306603745615,0.5303129441136154,0.5348888917059813,0.5391573855053893,0.5431175944846274,0.5467689717913395,0.5501112519580103,0.5531444477837772,0.5558688469191351,0.5582850081561936,0.5603937574063491,0.5621961833738355,0.5636936329591867,0.5648877064089751,0.5657802522100305,0.5663733617454274,0.5666693637439453,0.5666708185298219,0.5663805120603302,0.5658014497612387,0.5649368501889718,0.5637901385257076,0.5623649398949409,0.5606650725082342,0.5586945406752112,0.5564575276904006,0.5539583885931182,0.5512016428156267,0.5481919667505862,0.5449341862477718,0.5414332690325238,0.5376943170582751,0.5337225588233341,0.5295233416641387,0.5251021240208471,0.5204644676878343,0.5156160300727883,0.5105625564632787,0.505309872281877,0.4998638753339174,0.4942305280718805,0.488415849880831,0.4824259093724811,0.4762668166972733,0.4699447159040622,0.46346577736028755,0.45683619022954375,0.4500621550207722,0.4431498762369306,0.43610555513020266,0.42893538255417996,0.4216455319228472,0.4142421523036324,0.4067313616548159,0.3991192402020441,0.391411823964496,0.3836150984509093,0.3757349925203,0.36777737238461744,0.3597480357544193,0.3516527061512364,0.34349702739494087,0.33528655825888015,0.3270267673038769,0.31872302792002616,0.31038061359120417,0.30200469338261504,0.2936003276639102,0.2851724640876526,0.27672593382016053,0.2682654480055652,0.25979559446300576,0.2513208346347529,0.2428455007884976,0.23437379346279769,0.22590977916016686,0.21745738830774364,0.20902041349358214,0.20060250797378287,0.19220718445545087,0.18383781416636752,0.17549762620319226,0.16718970713617148,0.15891700086375649,0.15068230872536403,0.14248828986890516,0.1343374618579355,0.12623220151472364,0.11817474600496597,0.11016719415582993,0.10221150798730166,0.09430951444854833,0.08646290735939198,0.07867324954081321,0.07094197510640242,0.0632703919025353,0.05565968410168381,0.04811091494593727,0.040625029628237684,0.033202858307508874,0.025845119260323922,0.018552422158686292,0.01132527145333114,0.004164069853134391,-0.0029308780981105124,-0.009959362355148963,-0.016921263631286484,-0.02381654959253814,-0.03064527098617741,-0.037407557714242506,-0.04410361487106529,-0.05073371875487629,-0.05729821285734266,-0.0637975038473689,-0.07023205757434606,-0.07660239510329464,-0.08290908878159037,-0.0891527583433287,-0.09533406706466929,-0.1014537179755318,-0.10751245012837467,-0.113511034937871,-0.11945027261396184,-0.12533098869751588,-0.13115403069395823,-0.1369202648050085,-0.1426305727653456,-0.1482858487839442,-0.15388699658529545,-0.15943492655690847,-0.1649305530173266,-0.170374791608257,-0.17576855680413253,-0.18111275953883202,-0.1864083049559431,-0.19165609028116457,-0.1968570028089521,-0.20201191800373106,-0.2071216977227944,-0.21218718855895857,-0.2172092202894531,-0.22218860441751875,-0.227126132797427,-0.23202257633372803,-0.23687868374912235,-0.2416951804272074,-0.24647276734271895,-0.25121212008242,-0.255913887945749,-0.2605786931088958,-0.2652071298377705,-0.26979976373822917,-0.27435713103316667,-0.27887973785594483,-0.2833680595510499,-0.2878225399760936,-0.2922435907973488,-0.296631590762141,-0.30098688492909637,-0.3053097838482089,-0.30960056268864095,-0.3138594603016936,-0.3180866782013608,-0.32228237945920407,-0.32644668751562117,-0.3305796848884262,-0.3346814117492907,-0.3387518643641031,-0.34279099341207797,-0.34679870217885844,-0.3507748446055564,-0.3547192232025045,-0.3586315868541703,-0.3625116285135792,-0.36635898276621437,-0.370173223275137,-0.37395386013745024,-0.3777003371418076,-0.38141202889157666,-0.3850882378038347,-0.3887281910323963,-0.3923310373306086,-0.39589584384265764,-0.3994215928525115,-0.4029071785482618,-0.4063514038144244,-0.409752977031891,-0.413110508911801,-0.41642250942473247,-0.41968738483856716,-0.4229034348417342,-0.4260688497795564,-0.4291817080748901,-0.4322399738608853,-0.4352414948158789,-0.4381840002356053,-0.44106509941357014,-0.4438822803504577,-0.44663290877281075,-0.4493142274874623,-0.4519233561347543,-0.45445729135164015,-0.4569129073135437,-0.4592869566728818,-0.4615760719564749,-0.46377676744120355,-0.46588544148692435,-0.467898379345664,-0.4698117564993847,-0.4716216425313127,-0.4733240054952755,-0.4749147167872656,-0.4763895565580021,-0.4777442196618411,-0.4789743220987748,-0.48007540794276404,-0.48104295677955533,-0.48187239163204576,-0.4825590873135124,-0.48309837918780874,-0.48348557235101275,-0.4837159512119893,-0.48378478941489167,-0.48368736008000923,-0.48341894636825977,-0.48297485233707704,-0.48235041402277024,-0.4815410107178957,-0.48054207644399605,-0.47934911159048466,-0.47795769466168614,-0.4763634941012229,-0.47456228018685587,-0.47254993695830616,-0.47032247411388695,-0.46787603883897194,-0.46520692755411325,-0.46231159754431456,-0.4591866784072524,-0.45582898328444404,-0.45223551986611105,-0.44840350114264554,-0.44433035585613295,-0.4400137386231511,-0.4354515397130112,-0.43064189443919565,-0.42558319210228035,-0.42027408444852876,-0.4147134936364313,-0.40890061969372804,-0.4028349474334937,-0.39651625281327885,-0.38994460873844883,-0.3831203903021283,-0.3760442794430121,-0.368717269011318,-0.3611406662409035,-0.3533160956132177,-0.3452455010888466,-0.33693114769416904,-0.3283756224628441,-0.3195818347253217,-0.310553015732461,-0.30129271760982435,-0.291804811654385,-0.2820934859893427,-0.2721632425900311,-0.2620188936933088,-0.2516655576038418,-0.24110865391032998,-0.23035389812324558,-0.2194072957446199,-0.20827513578113174,-0.1969639837139315,-0.18548067393929854,-0.1738323016922796,-0.16202621446543186,-0.15007000293908868,-0.13797149144198306,-0.1257387279586751,-0.1133799737031885,-0.10090369229104076,-0.08831853854771185,-0.07563334698077735,-0.06285711993599365,-0.04999901546889935,-0.03706833497079754,-0.02407451057510884,-0.011027092362101639,0.002064264604847921,0.015189813368530286,0.028339728266946182,0.041504118210657734,0.0546730400243297,0.0678365118178252,0.08098452636716438,0.09410706449465958,0.10719410841711649,0.12023565501753966,0.13322172901643464,0.14614239603402773,0.15898777551409032,0.17174805346511152,0.18441349499809515,0.19697445665924831,0.20942139853557587,0.2217448960953642,0.2339356517496499,0.24598450614222242,0.25788244915809183,0.26962063062433944,0.281190370697024,0.29258316994149736,0.30379071908808086,0.31480490842678654,0.3256178368294459,0.33622182040620185,0.34660940077732494,0.3567733529219629,0.36670669259353633,0.3764026833143315,0.3858548429366642,0.39505694973792643,0.40400304804617887,0.41268745342016827,0.42110475738801884,0.42924983172980186,0.43711783231203455,0.44470420250042814,0.4520046761521405,0.4590152801686708,0.4657323366151059,0.4721524644325468,0.47827258074786255,0.4840899017654044,0.48960194324867345,0.4948065206200215,0.49970174868428263,0.5042860409631228,0.5085581086490464,0.5125169592064126,0.5161618946239391,0.5194925093042019,0.5225086875982853,0.5252106010132694,0.5275987050989889,0.5296737360021911,0.5314367066978727,0.5328889029262631,0.5340318788433389,0.5348674523749819,0.5353977002852885,0.5356249529858315,0.5355517890901238,0.53518102969957,0.534515732429854,0.5335591852076464,0.5323148998501561,0.5307866054235673,0.528978241394928,0.5268939506074206,0.5245380720889794,0.5219151336876413,0.5190298445454886,0.5158870874363866,0.5124919109691113,0.5088495216400288,0.5049652757426423,0.5008446711613627,0.49649333905745624,0.4919170354383929,0.48712163262360947,0.4821131106391959,0.4768975485561054,0.4714811157702206,0.46587006324127544,0.46007071472241756,0.4540894579910425,0.4479327360746258,0.44160703848516564,0.43511889249100394,0.4284748544319497,0.4216815010660549,0.41474542096036043,0.40767320596325857,0.40047144278563634,0.3931467047035541,0.38570554340649305,0.37815448102026344,0.37050000230774044,0.36274854703311815,0.3549065024966646,0.34698019626734283,0.33897588912613913,0.33089976821800765,0.32275794042607786,0.31455642599604117,0.30630115242302147,0.2979979485987121,0.2896525392295426,0.281270539545897,0.2728574503026995,0.2644186530566035,0.25595940572158427,0.24748483841911717,0.23899994962303917,0.23050960258506847,0.22201852204259842,0.21353129122464598,0.20505234915766468,0.196585988259674,0.18813635222406194,0.17970743420435392,0.17130307529418604,0.16292696328318584,0.15458263168443723,0.14627345904228753,0.1380026685148457,0.12977332771281783,0.12158834879078512,0.11345048880169278,0.10536235031556324,0.09732638229246399,0.08934488120889814,0.08141999244424106,0.07355371192083546,0.06574788798046263,0.058004223489380606,0.05032427816991857,0.04270947114032566,0.035161083633167854,0.02768026187774104,0.020268020148048637,0.012925243971474513,0.005652693484487185,-0.0015489930701494113,-0.00867929570347763,-0.015737808907411076,-0.022724237767426048,-0.029638393970998576,-0.03648019171614034,-0.043249643537255855,-0.0499468560747619,-0.056572025803008165,-0.0631254347210253,-0.06960744602127841,-0.07601849976032535,-0.08235910854279682,-0.08862985321760258,-0.09483137859186441,-0.10096438917557704,-0.10702964496189184,-0.11302795724183741,-0.11896018446287356,-0.1248272281487079,-0.13063002888751796,-0.1363695623857405,-0.14204683559125342,-0.14766288289664553,-0.1532187624263299,-0.15871555240815835,-0.16415434764386502,-0.16953625610111908,-0.17486239563600564,-0.18013389083892978,-0.1853518699987517,-0.19051746218559135,-0.19563179444758874,-0.20069598911267975,-0.20571116119388325,-0.21067841590279449,-0.2155988462702243,-0.2204735308681427,-0.22530353163400996,-0.23008989180430772,-0.23483363395773144,-0.23953575816251765,-0.24419724022761152,-0.2488190300623933,-0.25340205014394057,-0.2579471940839876,-0.2624553252896126,-0.2669272757153386,-0.27136384470146724,-0.27576579788708444,-0.28013386618239244,-0.28446874478617135,-0.28877109223874015,-0.29304152950340595,-0.29728063906764285,-0.30148896405531606,-0.30566700734607477,-0.3098152306974089,-0.31393405385432227,-0.318023853627841,-0.32208496293606964,-0.3261176698087092,-0.33012221634375943,-0.33409879759865385,-0.33804756041491574,-0.34196860218686925,-0.3458619695700755,-0.3497276571157157,-0.35356560583519075,-0.35737570170550675,-0.3611577740953939,-0.3649115940759153,-0.36863687261329336,-0.3723332586695052,-0.37600033721382564,-0.37963762713072935,-0.3832445790398764,-0.38682057306300854,-0.3903649165360348,-0.39387684164050785,-0.39735550296797034,-0.40079997505926596,-0.40420924992201407,-0.4075822345013003,-0.4109177481226263,-0.41421451996062025,-0.41747118654668297,-0.4206862892971897,-0.4238582720877479,-0.42698547893052247,-0.43006615176198076,-0.4330984283118275,-0.4360803400750462,-0.43900981045125126,-0.4418846530699521,-0.44470257028214705,-0.44746115184705787,-0.45015787388262235,-0.45279009810052634,-0.45535507130637026,-0.4578499251918477,-0.46027167648241835,-0.46261722745207096,-0.46488336677459924,-0.4670667707300732,-0.46916400483038256,-0.47117152588625644,-0.4730856844982797,-0.47490272799240196,-0.4766188038486384,-0.4782299636181898,-0.4797321672820861,-0.48112128804956045,-0.48239311763416015,-0.48354337200187636,-0.48456769754609696,-0.48546167768480053,-0.48622083991213516,-0.486840663296359,-0.48731658637890607,-0.4876440154639931,-0.48781833331660834,-0.48783490824321113,-0.48768910349309674,-0.48737628695566665,-0.48689184116306145,-0.4862311735724379,-0.48538972706936173,-0.48436299066604643,-0.4831465103968972,-0.4817359003796193,-0.48012685397962945,-0.47831515504622585,-0.47629668921720997,-0.47406745525893385,-0.47162357638135294,-0.46896131149543113,-0.4660770664061224,-0.46296740490800675,-0.45962905972631524,-0.4560589432704976,-0.45225415818864106,-0.448212007684522,-0.4439300055366287,-0.4394058857853308,-0.43463761208376106,-0.42962338669574607,-0.42436165910726065,-0.418851134231948,-0.4130907802017566,-0.40707983571138706,-0.4008178168683866,-0.3943045235214033,-0.38754004506145545,-0.38052476568200033,-0.37325936907156754,-0.3657448425255138,-0.3579824804764266,-0.34997388743263363,-0.3417209803041669,-0.33322599010671583,-0.3244914630464455,-0.3155202609827479,-0.3063155612587296,-0.2968808558974721,-0.2872199501733142,-0.27733696056740503,-0.26723631211287097,-0.25692273513666275,-0.24640126140815363,-0.2356772197031851,-0.22475623078997928,-0.21364420184475913,-0.20234732030906427,-0.19087204720441203,-0.17922510992045132,-0.16741349449062887,-0.15544443737052832,-0.14332541674059635,-0.1310641433578103,-0.11866855097513906,-0.10614678634575736,-0.09350719883840264,-0.08075832969543012,-0.06790890095549601,-0.05496780405623853,-0.04194408814195095,-0.028846948107937507,-0.015685712402679953,-0.0024698306022829146,0.010791139215406824,0.024087543260896332,0.037409644963769716,0.05074763802609548,0.06409165956012224,0.07743180325980852,0.09075813257775851,0.10406069390026486,0.11732952970345235,0.13055469166267544,0.14372625370057535,0.1568343249640518,0.16986906269383817,0.18282068493463388,0.19567948305977143,0.2084358341082316,0.22108021291694677,0.2336032040169764,0.24599551328126681,0.25824797932287646,0.2703515846144613,0.2822974662814748,0.2940769265501819,0.3056814428562644,0.31710267759885435,0.3283324875068845,0.33936293261041045,0.3501862848303708,0.36079503617602976,0.37118190651999955,0.38133985094822453,0.39126206670925534,0.40094199977127476,0.4103733509779387,0.4195500818115458,0.4284664197823624,0.43711686343331685,0.4454961869288669,0.45359944422299237,0.46142197282176955,0.46895939712953816,0.47620763134725463,0.483162881921382,0.4898216495712673,0.4961807309073245,0.5022372196345037,0.5079885073545346,0.5134322839947779,0.5185665378665744,0.5233895553366389,0.5278999201177201,0.5320965122042971,0.5359785064578515,0.5395453708279672,0.5427968642169998,0.5457330340139581,0.5483542133013257,0.5506610177204112,0.5526543420028039,0.5543353561945238,0.5557055015791504,0.5567664862887202,0.5575202806119848,0.5579691120269643,0.5581154599637206,0.5579620502858964,0.5575118495001481,0.5567680587177468,0.5557341073678328,0.5544136466434282,0.5528105426871363,0.5509288695484381,0.5487729019291564,0.5463471077174772,0.5436561403286406,0.540704830882389,0.5374981802217915,0.5340413507597384,0.5303396581638307,0.5263985629134997,0.5222236617469216,0.5178206789990121,0.5131954578504158,0.5083539515234728,0.5033022144423674,0.49804639335828754,0.49259271845742836,0.48694749448169095,0.4811170918684837,0.4751079378986329,0.46892650786279927,0.4625793162739226,0.45607290813134255,0.44941385022480435,0.4426087224902936,N
2,0.3836150984509093,0.3757349925203,0.36777737238461744,0.3597480357544193,0.3516527061512364,0.34349702739494087,0.33528655825888015,0.3270267673038769,0.31872302792002616,0.31038061359120417,0.30200469338261504,0.2936003276639102,0.2851724640876526,0.27672593382016053,0.2682654480055652,0.25979559446300576,0.2513208346347529,0.2428455007884976,0.23437379346279769,0.22590977916016686,0.21745738830774364,0.20902041349358214,0.20060250797378287,0.19220718445545087,0.18383781416636752,0.17549762620319226,0.16718970713617148,0.15891700086375649,0.15068230872536403,0.14248828986890516,0.1343374618579355,0.12623220151472364,0.11817474600496597,0.11016719415582993,0.10221150798730166,0.09430951444854833,0.08646290735939198,0.07867324954081321,0.07094197510640242,0.0632703919025353,0.05565968410168381,0.04811091494593727,0.040625029628237684,0.033202858307508874,0.025845119260323922,0.018552422158686292,0.01132527145333114,0.004164069853134391,-0.0029308780981105124,-0.009959362355148963,-0.016921263631286484,-0.02381654959253814,-0.03064527098617741,-0.037407557714242506,-0.04410361487106529,-0.05073371875487629,-0.05729821285734266,-0.0637975038473689,-0.07023205757434606,-0.07660239510329464,-0.08290908878159037,-0.0891527583433287,-0.09533406706466929,-0.1014537179755318,-0.10751245012837467,-0.113511034937871,-0.11945027261396184,-0.12533098869751588,-0.13115403069395823,-0.1369202648050085,-0.1426305727653456,-0.1482858487839442,-0.15388699658529545,-0.15943492655690847,-0.1649305530173266,-0.170374791608257,-0.17576855680413253,-0.18111275953883202,-0.1864083049559431,-0.19165609028116457,-0.1968570028089521,-0.20201191800373106,-0.2071216977227944,-0.21218718855895857,-0.2172092202894531,-0.22218860441751875,-0.227126132797427,-0.23202257633372803,-0.23687868374912235,-0.2416951804272074,-0.24647276734271895,-0.25121212008242,-0.255913887945749,-0.2605786931088958,-0.2652071298377705,-0.26979976373822917,-0.27435713103316667,-0.27887973785594483,-0.2833680595510499,-0.2878225399760936,-0.2922435907973488,-0.296631590762141,-0.30098688492909637,-0.3053097838482089,-0.30960056268864095,-0.3138594603016936,-0.3180866782013608,-0.32228237945920407,-0.32644668751562117,-0.3305796848884262,-0.3346814117492907,-0.3387518643641031,-0.34279099341207797,-0.34679870217885844,-0.3507748446055564,-0.3547192232025045,-0.3586315868541703,-0.3625116285135792,-0.36635898276621437,-0.370173223275137,-0.37395386013745024,-0.3777003371418076,-0.38141202889157666,-0.3850882378038347,-0.3887281910323963,-0.3923310373306086,-0.39589584384265764,-0.3994215928525115,-0.4029071785482618,-0.4063514038144244,-0.409752977031891,-0.413110508911801,-0.41642250942473247,-0.41968738483856716,-0.4229034348417342,-0.4260688497795564,-0.4291817080748901,-0.4322399738608853,-0.4352414948158789,-0.4381840002356053,-0.44106509941357014,-0.4438822803504577,-0.44663290877281075,-0.4493142274874623,-0.4519233561347543,-0.45445729135164015,-0.4569129073135437,-0.4592869566728818,-0.4615760719564749,-0.46377676744120355,-0.46588544148692435,-0.467898379345664,-0.4698117564993847,-0.4716216425313127,-0.4733240054952755,-0.4749147167872656,-0.4763895565580021,-0.4777442196618411,-0.4789743220987748,-0.48007540794276404,-0.48104295677955533,-0.48187239163204576,-0.4825590873135124,-0.48309837918780874,-0.48348557235101275,-0.4837159512119893,-0.48378478941489167,-0.48368736008000923,-0.48341894636825977,-0.48297485233707704,-0.48235041402277024,-0.4815410107178957,-0.48054207644399605,-0.47934911159048466,-0.47795769466168614,-0.4763634941012229,-0.47456228018685587,-0.47254993695830616,-0.47032247411388695,-0.46787603883897194,-0.46520692755411325,-0.46231159754431456,-0.4591866784072524,-0.45582898328444404,-0.45223551986611105,-0.44840350114264554,-0.44433035585613295,-0.4400137386231511,-0.4354515397130112,-0.43064189443919565,-0.42558319210228035,-0.42027408444852876,-0.4147134936364313,-0.40890061969372804,-0.4028349474334937,-0.39651625281327885,-0.38994460873844883,-0.3831203903021283,-0.3760442794430121,-0.368717269011318,-0.3611406662409035,-0.3533160956132177,-0.3452455010888466,-0.33693114769416904,-0.3283756224628441,-0.3195818347253217,-0.310553015732461,-0.30129271760982435,-0.291804811654385,-0.2820934859893427,-0.2721632425900311,-0.2620188936933088,-0.2516655576038418,-0.24110865391032998,-0.23035389812324558,-0.2194072957446199,-0.20827513578113174,-0.1969639837139315,-0.18548067393929854,-0.1738323016922796,-0.16202621446543186,-0.15007000293908868,-0.13797149144198306,-0.1257387279586751,-0.1133799737031885,-0.10090369229104076,-0.08831853854771185,-0.07563334698077735,-0.06285711993599365,-0.04999901546889935,-0.03706833497079754,-0.02407451057510884,-0.011027092362101639,0.002064264604847921,0.015189813368530286,0.028339728266946182,0.041504118210657734,0.0546730400243297,0.0678365118178252,0.08098452636716438,0.09410706449465958,0.10719410841711649,0.12023565501753966,0.13322172901643464,0.14614239603402773,0.15898777551409032,0.17174805346511152,0.18441349499809515,0.19697445665924831,0.20942139853557587,0.2217448960953642,0.2339356517496499,0.24598450614222242,0.25788244915809183,0.26962063062433944,0.281190370697024,0.29258316994149736,0.30379071908808086,0.31480490842678654,0.3256178368294459,0.33622182040620185,0.34660940077732494,0.3567733529219629,0.36670669259353633,0.3764026833143315,0.3858548429366642,0.39505694973792643,0.40400304804617887,0.41268745342016827,0.42110475738801884,0.42924983172980186,0.43711783231203455,0.44470420250042814,0.4520046761521405,0.4590152801686708,0.4657323366151059,0.4721524644325468,0.47827258074786255,0.4840899017654044,0.48960194324867345,0.4948065206200215,0.49970174868428263,0.5042860409631228,0.5085581086490464,0.5125169592064126,0.5161618946239391,0.5194925093042019,0.5225086875982853,0.5252106010132694,0.5275987050989889,0.5296737360021911,0.5314367066978727,0.5328889029262631,0.5340318788433389,0.5348674523749819,0.5353977002852885,0.5356249529858315,0.5355517890901238,0.53518102969957,0.534515732429854,0.5335591852076464,0.5323148998501561,0.5307866054235673,0.528978241394928,0.5268939506074206,0.5245380720889794,0.5219151336876413,0.5190298445454886,0.5158870874363866,0.5124919109691113,0.5088495216400288,0.5049652757426423,0.5008446711613627,0.49649333905745624,0.4919170354383929,0.48712163262360947,0.4821131106391959,0.4768975485561054,0.4714811157702206,0.46587006324127544,0.46007071472241756,0.4540894579910425,0.4479327360746258,0.44160703848516564,0.43511889249100394,0.4284748544319497,0.4216815010660549,0.41474542096036043,0.40767320596325857,0.40047144278563634,0.3931467047035541,0.38570554340649305,0.37815448102026344,0.37050000230774044,0.36274854703311815,0.3549065024966646,0.34698019626734283,0.33897588912613913,0.33089976821800765,0.32275794042607786,0.31455642599604117,0.30630115242302147,0.2979979485987121,0.2896525392295426,0.281270539545897,0.2728574503026995,0.2644186530566035,0.25595940572158427,0.24748483841911717,0.23899994962303917,0.23050960258506847,0.22201852204259842,0.21353129122464598,0.20505234915766468,0.196585988259674,0.18813635222406194,0.17970743420435392,0.17130307529418604,0.16292696328318584,0.15458263168443723,0.14627345904228753,0.1380026685148457,0.12977332771281783,0.12158834879078512,0.11345048880169278,0.10536235031556324,0.09732638229246399,0.08934488120889814,0.08141999244424106,0.07355371192083546,0.06574788798046263,0.058004223489380606,0.05032427816991857,0.04270947114032566,0.035161083633167854,0.02768026187774104,0.020268020148048637,0.012925243971474513,0.005652693484487185,-0.0015489930701494113,-0.00867929570347763,-0.015737808907411076,-0.022724237767426048,-0.029638393970998576,-0.03648019171614034,-0.043249643537255855,-0.0499468560747619,-0.056572025803008165,-0.0631254347210253,-0.06960744602127841,-0.07601849976032535,-0.08235910854279682,-0.08862985321760258,-0.09483137859186441,-0.10096438917557704,-0.10702964496189184,-0.11302795724183741,-0.11896018446287356,-0.1248272281487079,-0.13063002888751796,-0.1363695623857405,-0.14204683559125342,-0.14766288289664553,-0.1532187624263299,-0.15871555240815835,-0.16415434764386502,-0.16953625610111908,-0.17486239563600564,-0.18013389083892978,-0.1853518699987517,-0.19051746218559135,-0.19563179444758874,-0.20069598911267975,-0.20571116119388325,-0.21067841590279449,-0.2155988462702243,-0.2204735308681427,-0.22530353163400996,-0.23008989180430772,-0.23483363395773144,-0.23953575816251765,-0.24419724022761152,-0.2488190300623933,-0.25340205014394057,-0.2579471940839876,-0.2624553252896126,-0.2669272757153386,-0.27136384470146724,-0.27576579788708444,-0.28013386618239244,-0.28446874478617135,-0.28877109223874015,-0.29304152950340595,-0.29728063906764285,-0.30148896405531606,-0.30566700734607477,-0.3098152306974089,-0.31393405385432227,-0.318023853627841,-0.32208496293606964,-0.3261176698087092,-0.33012221634375943,-0.33409879759865385,-0.33804756041491574,-0.34196860218686925,-0.3458619695700755,-0.3497276571157157,-0.35356560583519075,-0.35737570170550675,-0.3611577740953939,-0.3649115940759153,-0.36863687261329336,-0.3723332586695052,-0.37600033721382564,-0.37963762713072935,-0.3832445790398764,-0.38682057306300854,-0.3903649165360348,-0.39387684164050785,-0.39735550296797034,-0.40079997505926596,-0.40420924992201407,-0.4075822345013003,-0.4109177481226263,-0.41421451996062025,-0.41747118654668297,-0.4206862892971897,-0.4238582720877479,-0.42698547893052247,-0.43006615176198076,-0.4330984283118275,-0.4360803400750462,-0.43900981045125126,-0.4418846530699521,-0.44470257028214705,-0.44746115184705787,-0.45015787388262235,-0.45279009810052634,-0.45535507130637026,-0.4578499251918477,-0.46027167648241835,-0.46261722745207096,-0.46488336677459924,-0.4670667707300732,-0.46916400483038256,-0.47117152588625644,-0.4730856844982797,-0.47490272799240196,-0.4766188038486384,-0.4782299636181898,-0.4797321672820861,-0.48112128804956045,-0.48239311763416015,-0.48354337200187636,-0.48456769754609696,-0.48546167768480053,-0.48622083991213516,-0.486840663296359,-0.48731658637890607,-0.4876440154639931,-0.48781833331660834,-0.48783490824321113,-0.48768910349309674,-0.48737628695566665,-0.48689184116306145,-0.4862311735724379,-0.48538972706936173,-0.48436299066604643,-0.4831465103968972,-0.4817359003796193,-0.48012685397962945,-0.47831515504622585,-0.47629668921720997,-0.47406745525893385,-0.47162357638135294,-0.46896131149543113,-0.4660770664061224,-0.46296740490800675,-0.45962905972631524,-0.4560589432704976,-0.45225415818864106,-0.448212007684522,-0.4439300055366287,-0.4394058857853308,-0.43463761208376106,-0.42962338669574607,-0.42436165910726065,-0.418851134231948,-0.4130907802017566,-0.40707983571138706,-0.4008178168683866,-0.3943045235214033,-0.38754004506145545,-0.38052476568200033,-0.37325936907156754,-0.3657448425255138,-0.3579824804764266,-0.34997388743263363,-0.3417209803041669,-0.33322599010671583,-0.3244914630464455,-0.3155202609827479,-0.3063155612587296,-0.2968808558974721,-0.2872199501733142,-0.27733696056740503,-0.26723631211287097,-0.25692273513666275,-0.24640126140815363,-0.2356772197031851,-0.22475623078997928,-0.21364420184475913,-0.20234732030906427,-0.19087204720441203,-0.17922510992045132,-0.16741349449062887,-0.15544443737052832,-0.14332541674059635,-0.1310641433578103,-0.11866855097513906,-0.10614678634575736,-0.09350719883840264,-0.08075832969543012,-0.06790890095549601,-0.05496780405623853,-0.04194408814195095,-0.028846948107937507,-0.015685712402679953,-0.0024698306022829146,0.010791139215406824,0.024087543260896332,0.037409644963769716,0.05074763802609548,0.06409165956012224,0.07743180325980852,0.09075813257775851,0.10406069390026486,0.11732952970345235,0.13055469166267544,0.14372625370057535,0.1568343249640518,0.16986906269383817,0.18282068493463388,0.19567948305977143,0.2084358341082316,0.22108021291694677,0.2336032040169764,0.24599551328126681,0.25824797932287646,0.2703515846144613,0.2822974662814748,0.2940769265501819,0.3056814428562644,0.31710267759885435,0.3283324875068845,0.33936293261041045,0.3501862848303708,0.36079503617602976,0.37118190651999955,0.38133985094822453,0.39126206670925534,0.40094199977127476,0.4103733509779387,0.4195500818115458,0.4284664197823624,0.43711686343331685,0.4454961869288669,0.45359944422299237,0.46142197282176955,0.46895939712953816,0.47620763134725463,0.483162881921382,0.4898216495712673,0.4961807309073245,0.5022372196345037,0.5079885073545346,0.5134322839947779,0.5185665378665744,0.5233895553366389,0.5278999201177201,0.5320965122042971,0.5359785064578515,0.5395453708279672,0.5427968642169998,0.5457330340139581,0.5483542133013257,0.5506610177204112,0.5526543420028039,0.5543353561945238,0.5557055015791504,0.5567664862887202,0.5575202806119848,0.5579691120269643,0.5581154599637206,0.5579620502858964,0.5575118495001481,0.5567680587177468,0.5557341073678328,0.5544136466434282,0.5528105426871363,0.5509288695484381,0.5487729019291564,0.5463471077174772,0.5436561403286406,0.540704830882389,0.5374981802217915,0.5340413507597384,0.5303396581638307,0.5263985629134997,0.5222236617469216,0.5178206789990121,0.5131954578504158,0.5083539515234728,0.5033022144423674,0.49804639335828754,0.49259271845742836,0.48694749448169095,0.4811170918684837,0.4751079378986329,0.46892650786279927,0.4625793162739226,0.45607290813134255,0.44941385022480435,0.4426087224902936,0.4356641094540964,0.4285865917896129,0.4213827379965983,0.4140590962249875,0.40662218627154,0.39907849175113563,0.3914344524266924,0.38369645670420804,0.37587083432152557,0.36796384924563563,0.3599816927783035,0.35193047688510737,0.3438162277761775,0.33564487974974677,0.3274222692944887,0.31915412946030697,0.31084608451575335,0.30250364488725323,0.29413220235893733,0.28573702553272146,0.27732325556964504,0.2688959022224742,0.26045984015614826,0.2520198055648149,0.243580393104107,0.23514605314081521,0.2267210893082537,0.2183096563685181,0.2099157583934315,0.20154324726012354,0.1931958214439329,0.18487702510512735,0.17659024747868887,0.16833872256372537,0.16012552909706876,0.15195359080720236,0.14382567695487433,0.13574440315401123,0.12771223245520189,0.11973147668431146,0.11180429803525989,0.10393271089890095,0.0961185838978585,0.08836364211331782,0.08066946950732218,0.07303751153822147,0.06546907795783119,0.05796534578620713,0.050527362464602016,0.04315604917328533,0.03585220429075589,0.02861650698141762,0.021449520905579493,0.014351698030266596,0.007323382508772561,0.0003648146131776334,-0.00652386527751558,-0.013342612634060272,-0.02009147468628708,-0.02677058628736448,-0.03338016573346696,-0.03992051055413842,-0.04639199329812135,-0.05279505732739521,-0.0591302126220453,-0.06539803160914082,-0.07159914503744214,-0.0777342379077157,-0.08380404545831092,-0.08980934921622073,-0.09575097313250912,-0.10162977980796278,-0.10744666679985282,-0.11320256300327974,-0.1188984251069059,-0.12453523411920453,-0.13011399196176543,-0.13563571814082653,-0.14110144651683254,-0.14651222217959115,-0.15186909842360063,-0.15717313382227804,-0.16242538940599438,-0.16762692594254686,-0.17277880131416817,-0.17788206799434597,-0.1829377706346173,-0.1879469437630257,-0.19291060958748,-0.1978297759024892,-0.20270543410346112,-0.20753855730659157,-0.21233009856590337,-0.21708098918319588,-0.22179213711156334,-0.2264644254488967,-0.23109871101226567,-0.23569582298570527,-0.2402565616374234,-0.2447816971020281,-0.24927196822376815,-0.2537280814619119,-0.25815070986296546,-0.26254049210039704,-0.26689803157375386,-0.2712238955518837,-0.27551861434466457,-0.2797826804942474,-0.2840165479818067,-0.2882206314439533,-0.29239530539224906,-0.2965409034342288,-0.30065771749246073,-0.30474599700387484,-0.3088059480761327,-0.31283773259368497,-0.31684146727755114,-0.3208172226914038,-0.3247650221792774,-0.3286848407363586,-0.3325766038210839,-0.3364401860926437,-0.34027541004508965,-0.3440820445361673,-0.3478598032268706,-0.3516083429212499,-0.3553272617790896,-0.3590160974066463,-0.36267432485314166,-0.36630135450846724,-0.36989652987577926,-0.3734591252308387,-0.3769883432077067,-0.3804833123135697,-0.38394308434907487,-0.38736663175263614,-0.3907528449173812,-0.3941005294856666,-0.3974084035945749,-0.40067509509447535,-0.403899138803074,-0.4070789738170824,-0.41021294086993004,-0.4132992797682955,-0.4163361269726802,-0.41932151333618584,-0.4222533619770992,-0.4251294863117936,-0.42794758831778656,-0.4307052570519154,-0.4333999674094988,-0.43602907915648903,-0.43858983630577797,-0.4410793668630274,-0.44349468292740346,-0.44583268117379465,-0.4480901437726727,-0.4502637397473947,-0.4523500267256481,-0.4543454530925401,-0.45624636060007945,-0.458048987447426,-0.4597494718066983,-0.4613438558079236,-0.4628280900283498,-0.4641980384834318,-0.465449484076519,-0.4665781345041813,-0.46757962864752844,-0.46844954343428524,-0.4691834011174838,-0.4697766769571453,-0.4702248073287433,-0.47052319824478006,-0.47066723424023393,-0.47065228760598743,-0.4704737279824377,-0.47012693228516167,-0.46960729490013586,-0.46891023812040195,-0.4680312228265768,-0.4669657593781668,-0.46570941865110144,-0.4642578431899863,-0.46260675847581034,-0.4607519842826774,-0.45868944606970674,-0.45641518637948275,-0.4539253762360764,-0.45121632650527177,-0.44828449915381485,-0.44512651837163775,-0.4417391815471343,-0.43811947006310703,-0.43426455985909973,-0.4301718317283931,-0.4258388813389488,-0.42126352894639635,-0.4164438287477565,-0.411378077846094,-0.4060648248185214,-0.4005028778659578,-0.39469131250753414,-0.3886294787978535,-0.38231700805967384,-0.37575381910953265,-0.36894012394028897,-0.3618764328394093,-0.3545635589352254,-0.34700262214969824,-0.33919505252459414,-0.33114259290450004,-0.32284730097968867,-0.31431155068933975,-0.30553803297833465,-0.29652975590798053,-0.28729004412991027,-0.277822537729102,-0.26813119043670103,-0.2582202672166867,-0.2480943412334758,-0.23775829020219513,-0.2272172921192273,-0.21647682037674093,-0.20554263827439417,-0.19442079294542453,-0.18311760871377786,-0.17163967989829285,-0.15999386308231786,-0.14818726887196207,-0.13622725316757264,-0.12412140796849744,-0.11187755172891253,-0.09950371928753862,-0.08700815139701132,-0.07439928387372684,-0.061685736389063425,-0.04887630093525179,-0.03597993000532966,-0.023005724514313375,-0.009962921478492565,0.003139118522352262,0.016290924068409925,0.029482925787216206,0.04270546938640049,0.055948828794837535,0.06920321936484464,0.08245881110667802,0.09570574194215842,0.10893413095136417,0.12213409157568156,0.13529574475625458,0.1484092319945882,0.16146472829726286,0.17445245495182413,0.18736269210749443,0.20018579115868182,0.2129121869148108,0.22553240952600925,0.23803709615446375,0.2504170023967536,0.26266301344127974,0.27476615492871526,0.2867176035053004,0.29850869707501204,0.31013094473268266,0.32157603634241194,0.3328358517512386,0.34390246965010735,0.35476817607369243,0.3654254725129992,0.375867083637557,0.3860859646410341,0.39607530819809383,0.4058285510008654,0.4153393798700026,0.4246017374568355,0.4336098275281687,0.4423581198053562,0.4508413543571781,0.4590545455713382,0.4669929857088493,0.4746522480264417,0.4820281894757671,0.4891169530097973,0.49591496950719927,0.502418959307024,0.5086259333647231,0.51453319405257,0.5201383355987449,0.5254392441389267,0.5304340973814005,0.5351213639127589,0.5394998021540981,0.5435684589598929,0.5473266678710771,0.5507740470478568,0.5539104968819433,0.5567361972685609,0.5592516045432149,0.5614574481107867,0.5633547267758293,0.5649447047653627,0.5662289074556609,0.5672091168306269,0.5678873666766208,0.5682659375004636,0.5683473511795105,0.5681343653718383,0.5676299676944163,0.5668373696597264,0.5657600003823373,0.5644015000851397,0.5627657134152977,0.5608566825629917,0.5586786401955204,0.5562360022341883,0.5535333604783521,0.550575475063299,0.5473672667625447,0.5439138091704849,0.5402203207909333,0.536292157042803,0.5321348022053245,0.5277538613288533,0.5231550521090025,0.5183441967038869,0.5133272134985408,0.5081101088442707,0.5026989687869995,0.4970999507838333,0.4913192754229963,0.48536321817206934,0.47923810115421844,0.47295028493464436,0.46650616032362835,N
3,0.33089976821800765,0.32275794042607786,0.31455642599604117,0.30630115242302147,0.2979979485987121,0.2896525392295426,0.281270539545897,0.2728574503026995,0.2644186530566035,0.25595940572158427,0.24748483841911717,0.23899994962303917,0.23050960258506847,0.22201852204259842,0.21353129122464598,0.20505234915766468,0.196585988259674,0.18813635222406194,0.17970743420435392,0.17130307529418604,0.16292696328318584,0.15458263168443723,0.14627345904228753,0.1380026685148457,0.12977332771281783,0.12158834879078512,0.11345048880169278,0.10536235031556324,0.09732638229246399,0.08934488120889814,0.08141999244424106,0.07355371192083546,0.06574788798046263,0.058004223489380606,0.05032427816991857,0.04270947114032566,0.035161083633167854,0.02768026187774104,0.020268020148048637,0.012925243971474513,0.005652693484487185,-0.0015489930701494113,-0.00867929570347763,-0.015737808907411076,-0.022724237767426048,-0.029638393970998576,-0.03648019171614034,-0.043249643537255855,-0.0499468560747619,-0.056572025803008165,-0.0631254347210253,-0.06960744602127841,-0.07601849976032535,-0.08235910854279682,-0.08862985321760258,-0.09483137859186441,-0.10096438917557704,-0.10702964496189184,-0.11302795724183741,-0.11896018446287356,-0.1248272281487079,-0.13063002888751796,-0.1363695623857405,-0.14204683559125342,-0.14766288289664553,-0.1532187624263299,-0.15871555240815835,-0.16415434764386502,-0.16953625610111908,-0.17486239563600564,-0.18013389083892978,-0.1853518699987517,-0.19051746218559135,-0.19563179444758874,-0.20069598911267975,-0.20571116119388325,-0.21067841590279449,-0.2155988462702243,-0.2204735308681427,-0.22530353163400996,-0.23008989180430772,-0.23483363395773144,-0.23953575816251765,-0.24419724022761152,-0.2488190300623933,-0.25340205014394057,-0.2579471940839876,-0.2624553252896126,-0.2669272757153386,-0.27136384470146724,-0.27576579788708444,-0.28013386618239244,-0.28446874478617135,-0.28877109223874015,-0.29304152950340595,-0.29728063906764285,-0.30148896405531606,-0.30566700734607477,-0.3098152306974089,-0.31393405385432227,-0.318023853627841,-0.32208496293606964,-0.3261176698087092,-0.33012221634375943,-0.33409879759865385,-0.33804756041491574,-0.34196860218686925,-0.3458619695700755,-0.3497276571157157,-0.35356560583519075,-0.35737570170550675,-0.3611577740953939,-0.3649115940759153,-0.36863687261329336,-0.3723332586695052,-0.37600033721382564,-0.37963762713072935,-0.3832445790398764,-0.38682057306300854,-0.3903649165360348,-0.39387684164050785,-0.39735550296797034,-0.40079997505926596,-0.40420924992201407,-0.4075822345013003,-0.4109177481226263,-0.41421451996062025,-0.41747118654668297,-0.4206862892971897,-0.4238582720877479,-0.42698547893052247,-0.43006615176198076,-0.4330984283118275,-0.4360803400750462,-0.43900981045125126,-0.4418846530699521,-0.44470257028214705,-0.44746115184705787,-0.45015787388262235,-0.45279009810052634,-0.45535507130637026,-0.4578499251918477,-0.46027167648241835,-0.46261722745207096,-0.46488336677459924,-0.4670667707300732,-0.46916400483038256,-0.47117152588625644,-0.4730856844982797,-0.47490272799240196,-0.4766188038486384,-0.4782299636181898,-0.4797321672820861,-0.48112128804956045,-0.48239311763416015,-0.48354337200187636,-0.48456769754609696,-0.48546167768480053,-0.48622083991213516,-0.486840663296359,-0.48731658637890607,-0.4876440154639931,-0.48781833331660834,-0.48783490824321113,-0.48768910349309674,-0.48737628695566665,-0.48689184116306145,-0.4862311735724379,-0.48538972706936173,-0.48436299066604643,-0.4831465103968972,-0.4817359003796193,-0.48012685397962945,-0.47831515504622585,-0.47629668921720997,-0.47406745525893385,-0.47162357638135294,-0.46896131149543113,-0.4660770664061224,-0.46296740490800675,-0.45962905972631524,-0.4560589432704976,-0.45225415818864106,-0.448212007684522,-0.4439300055366287,-0.4394058857853308,-0.43463761208376106,-0.42962338669574607,-0.42436165910726065,-0.418851134231948,-0.4130907802017566,-0.40707983571138706,-0.4008178168683866,-0.3943045235214033,-0.38754004506145545,-0.38052476568200033,-0.37325936907156754,-0.3657448425255138,-0.3579824804764266,-0.34997388743263363,-0.3417209803041669,-0.33322599010671583,-0.3244914630464455,-0.3155202609827479,-0.3063155612587296,-0.2968808558974721,-0.2872199501733142,-0.27733696056740503,-0.26723631211287097,-0.25692273513666275,-0.24640126140815363,-0.2356772197031851,-0.22475623078997928,-0.21364420184475913,-0.20234732030906427,-0.19087204720441203,-0.17922510992045132,-0.16741349449062887,-0.15544443737052832,-0.14332541674059635,-0.1310641433578103,-0.11866855097513906,-0.10614678634575736,-0.09350719883840264,-0.08075832969543012,-0.06790890095549601,-0.05496780405623853,-0.04194408814195095,-0.028846948107937507,-0.015685712402679953,-0.0024698306022829146,0.010791139215406824,0.024087543260896332,0.037409644963769716,0.05074763802609548,0.06409165956012224,0.07743180325980852,0.09075813257775851,0.10406069390026486,0.11732952970345235,0.13055469166267544,0.14372625370057535,0.1568343249640518,0.16986906269383817,0.18282068493463388,0.19567948305977143,0.2084358341082316,0.22108021291694677,0.2336032040169764,0.24599551328126681,0.25824797932287646,0.2703515846144613,0.2822974662814748,0.2940769265501819,0.3056814428562644,0.31710267759885435,0.3283324875068845,0.33936293261041045,0.3501862848303708,0.36079503617602976,0.37118190651999955,0.38133985094822453,0.39126206670925534,0.40094199977127476,0.4103733509779387,0.4195500818115458,0.4284664197823624,0.43711686343331685,0.4454961869288669,0.45359944422299237,0.46142197282176955,0.46895939712953816,0.47620763134725463,0.483162881921382,0.4898216495712673,0.4961807309073245,0.5022372196345037,0.5079885073545346,0.5134322839947779,0.5185665378665744,0.5233895553366389,0.5278999201177201,0.5320965122042971,0.5359785064578515,0.5395453708279672,0.5427968642169998,0.5457330340139581,0.5483542133013257,0.5506610177204112,0.5526543420028039,0.5543353561945238,0.5557055015791504,0.5567664862887202,0.5575202806119848,0.5579691120269643,0.5581154599637206,0.5579620502858964,0.5575118495001481,0.5567680587177468,0.5557341073678328,0.5544136466434282,0.5528105426871363,0.5509288695484381,0.5487729019291564,0.5463471077174772,0.5436561403286406,0.540704830882389,0.5374981802217915,0.5340413507597384,0.5303396581638307,0.5263985629134997,0.5222236617469216,0.5178206789990121,0.5131954578504158,0.5083539515234728,0.5033022144423674,0.49804639335828754,0.49259271845742836,0.48694749448169095,0.4811170918684837,0.4751079378986329,0.46892650786279927,0.4625793162739226,0.45607290813134255,0.44941385022480435,0.4426087224902936,0.4356641094540964,0.4285865917896129,0.4213827379965983,0.4140590962249875,0.40662218627154,0.39907849175113563,0.3914344524266924,0.38369645670420804,0.37587083432152557,0.36796384924563563,0.3599816927783035,0.35193047688510737,0.3438162277761775,0.33564487974974677,0.3274222692944887,0.31915412946030697,0.31084608451575335,0.30250364488725323,0.29413220235893733,0.28573702553272146,0.27732325556964504,0.2688959022224742,0.26045984015614826,0.2520198055648149,0.243580393104107,0.23514605314081521,0.2267210893082537,0.2183096563685181,0.2099157583934315,0.20154324726012354,0.1931958214439329,0.18487702510512735,0.17659024747868887,0.16833872256372537,0.16012552909706876,0.15195359080720236,0.14382567695487433,0.13574440315401123,0.12771223245520189,0.11973147668431146,0.11180429803525989,0.10393271089890095,0.0961185838978585,0.08836364211331782,0.08066946950732218,0.07303751153822147,0.06546907795783119,0.05796534578620713,0.050527362464602016,0.04315604917328533,0.03585220429075589,0.02861650698141762,0.021449520905579493,0.014351698030266596,0.007323382508772561,0.0003648146131776334,-0.00652386527751558,-0.013342612634060272,-0.02009147468628708,-0.02677058628736448,-0.03338016573346696,-0.03992051055413842,-0.04639199329812135,-0.05279505732739521,-0.0591302126220453,-0.06539803160914082,-0.07159914503744214,-0.0777342379077157,-0.08380404545831092,-0.08980934921622073,-0.09575097313250912,-0.10162977980796278,-0.10744666679985282,-0.11320256300327974,-0.1188984251069059,-0.12453523411920453,-0.13011399196176543,-0.13563571814082653,-0.14110144651683254,-0.14651222217959115,-0.15186909842360063,-0.15717313382227804,-0.16242538940599438,-0.16762692594254686,-0.17277880131416817,-0.17788206799434597,-0.1829377706346173,-0.1879469437630257,-0.19291060958748,-0.1978297759024892,-0.20270543410346112,-0.20753855730659157,-0.21233009856590337,-0.21708098918319588,-0.22179213711156334,-0.2264644254488967,-0.23109871101226567,-0.23569582298570527,-0.2402565616374234,-0.2447816971020281,-0.24927196822376815,-0.2537280814619119,-0.25815070986296546,-0.26254049210039704,-0.26689803157375386,-0.2712238955518837,-0.27551861434466457,-0.2797826804942474,-0.2840165479818067,-0.2882206314439533,-0.29239530539224906,-0.2965409034342288,-0.30065771749246073,-0.30474599700387484,-0.3088059480761327,-0.31283773259368497,-0.31684146727755114,-0.3208172226914038,-0.3247650221792774,-0.3286848407363586,-0.3325766038210839,-0.3364401860926437,-0.34027541004508965,-0.3440820445361673,-0.3478598032268706,-0.3516083429212499,-0.3553272617790896,-0.3590160974066463,-0.36267432485314166,-0.36630135450846724,-0.36989652987577926,-0.3734591252308387,-0.3769883432077067,-0.3804833123135697,-0.38394308434907487,-0.38736663175263614,-0.3907528449173812,-0.3941005294856666,-0.3974084035945749,-0.40067509509447535,-0.403899138803074,-0.4070789738170824,-0.41021294086993004,-0.4132992797682955,-0.4163361269726802,-0.41932151333618584,-0.4222533619770992,-0.4251294863117936,-0.42794758831778656,-0.4307052570519154,-0.4333999674094988,-0.43602907915648903,-0.43858983630577797,-0.4410793668630274,-0.44349468292740346,-0.44583268117379465,-0.4480901437726727,-0.4502637397473947,-0.4523500267256481,-0.4543454530925401,-0.45624636060007945,-0.458048987447426,-0.4597494718066983,-0.4613438558079236,-0.4628280900283498,-0.4641980384834318,-0.465449484076519,-0.4665781345041813,-0.46757962864752844,-0.46844954343428524,-0.4691834011174838,-0.4697766769571453,-0.4702248073287433,-0.47052319824478006,-0.47066723424023393,-0.47065228760598743,-0.4704737279824377,-0.47012693228516167,-0.46960729490013586,-0.46891023812040195,-0.4680312228265768,-0.4669657593781668,-0.46570941865110144,-0.4642578431899863,-0.46260675847581034,-0.4607519842826774,-0.45868944606970674,-0.45641518637948275,-0.4539253762360764,-0.45121632650527177,-0.44828449915381485,-0.44512651837163775,-0.4417391815471343,-0.43811947006310703,-0.43426455985909973,-0.4301718317283931,-0.4258388813389488,-0.42126352894639635,-0.4164438287477565,-0.411378077846094,-0.4060648248185214,-0.4005028778659578,-0.39469131250753414,-0.3886294787978535,-0.38231700805967384,-0.37575381910953265,-0.36894012394028897,-0.3618764328394093,-0.3545635589352254,-0.34700262214969824,-0.33919505252459414,-0.33114259290450004,-0.32284730097968867,-0.31431155068933975,-0.30553803297833465,-0.29652975590798053,-0.28729004412991027,-0.277822537729102,-0.26813119043670103,-0.2582202672166867,-0.2480943412334758,-0.23775829020219513,-0.2272172921192273,-0.21647682037674093,-0.20554263827439417,-0.19442079294542453,-0.18311760871377786,-0.17163967989829285,-0.15999386308231786,-0.14818726887196207,-0.13622725316757264,-0.12412140796849744,-0.11187755172891253,-0.09950371928753862,-0.08700815139701132,-0.07439928387372684,-0.061685736389063425,-0.04887630093525179,-0.03597993000532966,-0.023005724514313375,-0.009962921478492565,0.003139118522352262,0.016290924068409925,0.029482925787216206,0.04270546938640049,0.055948828794837535,0.06920321936484464,0.08245881110667802,0.09570574194215842,0.10893413095136417,0.12213409157568156,0.13529574475625458,0.1484092319945882,0.16146472829726286,0.17445245495182413,0.18736269210749443,0.20018579115868182,0.2129121869148108,0.22553240952600925,0.23803709615446375,0.2504170023967536,0.26266301344127974,0.27476615492871526,0.2867176035053004,0.29850869707501204,0.31013094473268266,0.32157603634241194,0.3328358517512386,0.34390246965010735,0.35476817607369243,0.3654254725129992,0.375867083637557,0.3860859646410341,0.39607530819809383,0.4058285510008654,0.4153393798700026,0.4246017374568355,0.4336098275281687,0.4423581198053562,0.4508413543571781,0.4590545455713382,0.4669929857088493,0.4746522480264417,0.4820281894757671,0.4891169530097973,0.49591496950719927,0.502418959307024,0.5086259333647231,0.51453319405257,0.5201383355987449,0.5254392441389267,0.5304340973814005,0.5351213639127589,0.5394998021540981,0.5435684589598929,0.5473266678710771,0.5507740470478568,0.5539104968819433,0.5567361972685609,0.5592516045432149,0.5614574481107867,0.5633547267758293,0.5649447047653627,0.5662289074556609,0.5672091168306269,0.5678873666766208,0.5682659375004636,0.5683473511795105,0.5681343653718383,0.5676299676944163,0.5668373696597264,0.5657600003823373,0.5644015000851397,0.5627657134152977,0.5608566825629917,0.5586786401955204,0.5562360022341883,0.5535333604783521,0.550575475063299,0.5473672667625447,0.5439138091704849,0.5402203207909333,0.536292157042803,0.5321348022053245,0.5277538613288533,0.5231550521090025,0.5183441967038869,0.5133272134985408,0.5081101088442707,0.5026989687869995,0.4970999507838333,0.4913192754229963,0.48536321817206934,0.47923810115421844,0.47295028493464436,0.46650616032362835,0.4599121402260814,0.45317465155362224,0.44630012720018,0.43929499809850037,0.4321656853877529,0.4249185927023025,0.41756009857559717,0.4100965489708786,0.402534249963759,0.3948794605800326,0.3871383857754445,0.379317169565609,0.3714218883354645,0.3634585443444571,0.35543305942909065,0.34735126891794493,0.33921891578255153,0.33104164502430516,0.3228249982809956,0.3145744086566737,0.3062951957972914,0.2979925612193352,0.2896715838838632,0.28133721602421874,0.2729942792494076,0.26464746092841535,0.2563013108460291,0.24796023813530726,0.23962850850314182,0.2313102417466873,0.22300940954352538,0.2147298335153072,0.20647518358059472,0.19824897659918286,0.19005457529682548,0.1818951874720849,0.17377386549751553,0.16569350611143654,0.15765685048319414,0.14966648454801287,0.14172483961775237,0.13383419325709697,0.12599667040142679,0.1182142447074994,0.11048874013976205,0.1028218327782555,0.09521505282079566,0.08766978676960487,0.08018727981118463,0.07276863839042742,0.06541483296925883,0.058126700968954226,0.05090494990181482,0.04375016068345439,0.03666279110558496,0.02964317946085839,0.022691548323021605,0.015808008476890015,0.008992562983247594,0.002245111371081827,-0.004434546047125014,-0.01104670375761696,-0.017591746556351665,-0.024070145005554048,-0.030482450837782758,-0.03682929231614519,-0.043111369567559135,-0.049329449897128425,-0.05548436308434665,-0.061576996672067424,-0.06760829126762483,-0.07357923586658259,-0.07949086320414549,-0.08534424515301385,-0.09114048819565217,-0.09688072898422369,-0.10256612998430527,-0.1081978751999061,-0.11377716598330175,-0.11930521692919868,-0.12478325185217684,-0.13021249985947433,-0.13559419153923155,-0.14092955527380455,-0.14621981367888157,-0.15146618017798527,-0.15666985572914802,-0.16183202570968883,-0.16695385695451717,-0.17203649494957665,-0.17708106118848146,-0.18208865069256686,-0.18706032968868658,-0.19199713344844183,-0.19690006429951756,-0.20177008980949118,-0.20660814113044745,-0.21141511149434322,-0.21619185485388148,-0.22093918465973136,-0.22565787275905,-0.23034864840096966,-0.23501219733819342,-0.23964916101484737,-0.24426013583170372,-0.24884567248352366,-0.2534062753663621,-0.25794240205155283,-0.2624544628181442,-0.26694282023021354,-0.2714077887453201,-0.2758496343456939,-0.28026857418361517,-0.2846647762223443,-0.2890383588506368,-0.29338939046140944,-0.29771788899103646,-0.3020238214011971,-0.30630710307821374,-0.3105675971443895,-0.314805113689651,-0.31901940891623054,-0.32321018417914343,-0.32737708492593826,-0.3315196995491076,-0.3356375581355466,-0.33973013108119726,-0.3437968275718702,-0.3478369939553863,-0.35184991200205956,-0.35583479703080717,-0.3597907959134323,-0.36371698499425453,-0.36761236792625174,-0.37147587339986976,-0.37530635278135277,-0.3791025777065367,-0.38286323763412505,-0.38658693733248245,-0.39027219432087734,-0.39391743632364795,-0.3975209987545578,-0.40108112221559455,-0.4045959500404864,-0.40806352594981515,-0.41148179183970784,-0.4148485856898439,-0.41816163962244113,-0.42141857818028716,-0.42461691684399383,-0.42775406076983946,-0.43082730377585,-0.433833827639753,-0.4367707017207726,-0.43963488287598007,-0.44242321569113613,-0.44513243308711453,-0.44775915731421706,-0.4502999013050267,-0.45275107040387563,-0.4551089645332923,-0.45736978081392043,-0.45952961661393965,-0.46158447304394634,-0.4635302589458322,-0.465362795375697,-0.467077820540036,-0.46867099518544353,-0.47013790847704784,-0.4714740843558596,-0.47267498832603816,-0.47373603466278064,-0.47465259406687316,-0.4754200017513706,-0.4760335659090685,-0.47648857654569526,-0.47678031469763643,-0.47690406201806806,-0.4768551106819084,-0.47662877358967953,-0.4762203948754496,-0.4756253606866994,-0.47483911017213726,-0.47385714664392947,-0.4726750489054166,-0.4712884826979285,-0.469693212190016,-0.46788511146762407,-0.4658601760185956,-0.46361453418077286,-0.4611444584975281,-0.45844637695036977,-0.45551688406185803,-0.45235275183607665,-0.4489509404804218,-0.44530860887779444,-0.4414231248056175,-0.43729207488339683,-0.43291327421224524,-0.42828477568381235,-0.4234048789451496,-0.4182721389797734,-0.4128853742464939,-0.4072436743418826,-0.4013464071803461,-0.39519322568008475,-0.3887840739311801,-0.3821191928321913,-0.3751991251902901,-0.36802472026561184,-0.3605971377289211,-0.3529178510152868,-0.34498865007221985,-0.3368116434964103,-0.32838926004580243,-0.3197242495208486,-0.3108196830163468,-0.30167895253959603,-0.2923057699848522,-0.28270416546037624,-0.2728784849706515,-0.2628333874517127,-0.2525738411533808,-0.2421051193696994,-0.23143279553022525,-0.22056273766974646,-0.2095011022935135,-0.19825432765482592,-0.18682912646653144,-0.17523247807675918,-0.16347162014173727,-0.1515540398194134,-0.13948746449804084,-0.12727985207360903,-0.11493938079202515,-0.10247443867029628,-0.08989361251524176,-0.07720567657283091,-0.06441958084789574,-0.051544439122430175,-0.03858951669380645,-0.025564217867571796,-0.012478073247765818,0.0006592731476529141,0.013838076930119712,0.027048506512725015,0.04028065637171269,0.05352456037418681,0.06677020516286443,0.08000754357566799,0.09322650806708933,0.10641702411222387,0.11956902357985844,0.13267245803499506,0.14571731191595816,0.15869361555735606,0.1715914580527571,0.1844009999337214,0.1971124856269595,0.2097162556739073,0.22220275871374953,0.23456256320743332,0.246786368862874,0.258865017747343,0.27078950509455163,0.28255098979235876,0.2941408045191691,0.30555046552152415,0.31677168204438283,0.32779636540052376,0.33861663764614053,0.3492248398561627,0.3596135400142243,0.36977554050709516,0.379703885193312,0.3893918660431409,0.39883302937051235,0.40802118165418244,0.41695039492529673,0.425615011723312,0.4340096496401416,0.4421292054423576,0.4499688587392184,0.4575240751953864,0.46479060931655103,0.4717645068162579,0.47844210655225594,0.48482004204424023,0.4908952426050651,0.49666493409397117,0.5021266392800877,0.5072781778267786,0.5121176659252132,0.5166435155801029,0.5208544335301145,0.5247494198096258,0.5283277659785931,0.5315890530231374,0.5345331489094326,0.537160205798344,0.5394706569509975,0.5414652133354767,0.5431448599261792,0.5445108517079743,0.5455647094137347,0.5463082149999697,0.5467434068462126,0.5468725746865485,0.5466982543012965,0.5462232219756976,0.545450488714247,0.5443832942208697,0.5430251006730975,0.5413795862965385,0.5394506387278359,0.5372423481766622,0.5347590004179477,0.5320050696279153,0.5289852110607685,0.5257042535811758,0.5221671920828586,0.518379179803429,0.5143455205288698,0.5100716606990233,0.5055631814370177,0.500825790499141,0.4958653141233079,0.4906876887811414,0.48529895286725117,0.4797052383495726,0.4739127623902713,0.46792781895950075,0.46175677047137065,0.45540603944661184,0.44888210018920305,0.44219147048491897,0.43534070334701064,0.428336378814502,N
4,0.36796384924563563,0.3599816927783035,0.35193047688510737,0.3438162277761775,0.33564487974974677,0.3274222692944887,0.31915412946030697,0.31084608451575335,0.30250364488725323,0.29413220235893733,0.28573702553272146,0.27732325556964504,0.2688959022224742,0.26045984015614826,0.2520198055648149,0.243580393104107,0.23514605314081521,0.2267210893082537,0.2183096563685181,0.2099157583934315,0.20154324726012354,0.1931958214439329,0.18487702510512735,0.17659024747868887,0.16833872256372537,0.16012552909706876,0.15195359080720236,0.14382567695487433,0.13574440315401123,0.12771223245520189,0.11973147668431146,0.11180429803525989,0.10393271089890095,0.0961185838978585,0.08836364211331782,0.08066946950732218,0.07303751153822147,0.06546907795783119,0.05796534578620713,0.050527362464602016,0.04315604917328533,0.03585220429075589,0.02861650698141762,0.021449520905579493,0.014351698030266596,0.007323382508772561,0.0003648146131776334,-0.00652386527751558,-0.013342612634060272,-0.02009147468628708,-0.02677058628736448,-0.03338016573346696,-0.03992051055413842,-0.04639199329812135,-0.05279505732739521,-0.0591302126220453,-0.06539803160914082,-0.07159914503744214,-0.0777342379077157,-0.08380404545831092,-0.08980934921622073,-0.09575097313250912,-0.10162977980796278,-0.10744666679985282,-0.11320256300327974,-0.1188984251069059,-0.12453523411920453,-0.13011399196176543,-0.13563571814082653,-0.14110144651683254,-0.14651222217959115,-0.15186909842360063,-0.15717313382227804,-0.16242538940599438,-0.16762692594254686,-0.17277880131416817,-0.17788206799434597,-0.1829377706346173,-0.1879469437630257,-0.19291060958748,-0.1978297759024892,-0.20270543410346112,-0.20753855730659157,-0.21233009856590337,-0.21708098918319588,-0.22179213711156334,-0.2264644254488967,-0.23109871101226567,-0.23569582298570527,-0.2402565616374234,-0.2447816971020281,-0.24927196822376815,-0.2537280814619119,-0.25815070986296546,-0.26254049210039704,-0.26689803157375386,-0.2712238955518837,-0.27551861434466457,-0.2797826804942474,-0.2840165479818067,-0.2882206314439533,-0.29239530539224906,-0.2965409034342288,-0.30065771749246073,-0.30474599700387484,-0.3088059480761327,-0.31283773259368497,-0.31684146727755114,-0.3208172226914038,-0.3247650221792774,-0.3286848407363586,-0.3325766038210839,-0.3364401860926437,-0.34027541004508965,-0.3440820445361673,-0.3478598032268706,-0.3516083429212499,-0.3553272617790896,-0.3590160974066463,-0.36267432485314166,-0.36630135450846724,-0.36989652987577926,-0.3734591252308387,-0.3769883432077067,-0.3804833123135697,-0.38394308434907487,-0.38736663175263614,-0.3907528449173812,-0.3941005294856666,-0.3974084035945749,-0.40067509509447535,-0.403899138803074,-0.4070789738170824,-0.41021294086993004,-0.4132992797682955,-0.4163361269726802,-0.41932151333618584,-0.4222533619770992,-0.4251294863117936,-0.42794758831778656,-0.4307052570519154,-0.4333999674094988,-0.43602907915648903,-0.43858983630577797,-0.4410793668630274,-0.44349468292740346,-0.44583268117379465,-0.4480901437726727,-0.4502637397473947,-0.4523500267256481,-0.4543454530925401,-0.45624636060007945,-0.458048987447426,-0.4597494718066983,-0.4613438558079236,-0.4628280900283498,-0.4641980384834318,-0.465449484076519,-0.4665781345041813,-0.46757962864752844,-0.46844954343428524,-0.4691834011174838,-0.4697766769571453,-0.4702248073287433,-0.47052319824478006,-0.47066723424023393,-0.47065228760598743,-0.4704737279824377,-0.47012693228516167,-0.46960729490013586,-0.46891023812040195,-0.4680312228265768,-0.4669657593781668,-0.46570941865110144,-0.4642578431899863,-0.46260675847581034,-0.4607519842826774,-0.45868944606970674,-0.45641518637948275,-0.4539253762360764,-0.45121632650527177,-0.44828449915381485,-0.44512651837163775,-0.4417391815471343,-0.43811947006310703,-0.43426455985909973,-0.4301718317283931,-0.4258388813389488,-0.42126352894639635,-0.4164438287477565,-0.411378077846094,-0.4060648248185214,-0.4005028778659578,-0.39469131250753414,-0.3886294787978535,-0.38231700805967384,-0.37575381910953265,-0.36894012394028897,-0.3618764328394093,-0.3545635589352254,-0.34700262214969824,-0.33919505252459414,-0.33114259290450004,-0.32284730097968867,-0.31431155068933975,-0.30553803297833465,-0.29652975590798053,-0.28729004412991027,-0.277822537729102,-0.26813119043670103,-0.2582202672166867,-0.2480943412334758,-0.23775829020219513,-0.2272172921192273,-0.21647682037674093,-0.20554263827439417,-0.19442079294542453,-0.18311760871377786,-0.17163967989829285,-0.15999386308231786,-0.14818726887196207,-0.13622725316757264,-0.12412140796849744,-0.11187755172891253,-0.09950371928753862,-0.08700815139701132,-0.07439928387372684,-0.061685736389063425,-0.04887630093525179,-0.03597993000532966,-0.023005724514313375,-0.009962921478492565,0.003139118522352262,0.016290924068409925,0.029482925787216206,0.04270546938640049,0.055948828794837535,0.06920321936484464,0.08245881110667802,0.09570574194215842,0.10893413095136417,0.12213409157568156,0.13529574475625458,0.1484092319945882,0.16146472829726286,0.17445245495182413,0.18736269210749443,0.20018579115868182,0.2129121869148108,0.22553240952600925,0.23803709615446375,0.2504170023967536,0.26266301344127974,0.27476615492871526,0.2867176035053004,0.29850869707501204,0.31013094473268266,0.32157603634241194,0.3328358517512386,0.34390246965010735,0.35476817607369243,0.3654254725129992,0.375867083637557,0.3860859646410341,0.39607530819809383,0.4058285510008654,0.4153393798700026,0.4246017374568355,0.4336098275281687,0.4423581198053562,0.4508413543571781,0.4590545455713382,0.4669929857088493,0.4746522480264417,0.4820281894757671,0.4891169530097973,0.49591496950719927,0.502418959307024,0.5086259333647231,0.51453319405257,0.5201383355987449,0.5254392441389267,0.5304340973814005,0.5351213639127589,0.5394998021540981,0.5435684589598929,0.5473266678710771,0.5507740470478568,0.5539104968819433,0.5567361972685609,0.5592516045432149,0.5614574481107867,0.5633547267758293,0.5649447047653627,0.5662289074556609,0.5672091168306269,0.5678873666766208,0.5682659375004636,0.5683473511795105,0.5681343653718383,0.5676299676944163,0.5668373696597264,0.5657600003823373,0.5644015000851397,0.5627657134152977,0.5608566825629917,0.5586786401955204,0.5562360022341883,0.5535333604783521,0.550575475063299,0.5473672667625447,0.5439138091704849,0.5402203207909333,0.536292157042803,0.5321348022053245,0.5277538613288533,0.5231550521090025,0.5183441967038869,0.5133272134985408,0.5081101088442707,0.5026989687869995,0.4970999507838333,0.4913192754229963,0.48536321817206934,0.47923810115421844,0.47295028493464436,0.46650616032362835,0.4599121402260814,0.45317465155362224,0.44630012720018,0.43929499809850037,0.4321656853877529,0.4249185927023025,0.41756009857559717,0.4100965489708786,0.402534249963759,0.3948794605800326,0.3871383857754445,0.379317169565609,0.3714218883354645,0.3634585443444571,0.35543305942909065,0.34735126891794493,0.33921891578255153,0.33104164502430516,0.3228249982809956,0.3145744086566737,0.3062951957972914,0.2979925612193352,0.2896715838838632,0.28133721602421874,0.2729942792494076,0.26464746092841535,0.2563013108460291,0.24796023813530726,0.23962850850314182,0.2313102417466873,0.22300940954352538,0.2147298335153072,0.20647518358059472,0.19824897659918286,0.19005457529682548,0.1818951874720849,0.17377386549751553,0.16569350611143654,0.15765685048319414,0.14966648454801287,0.14172483961775237,0.13383419325709697,0.12599667040142679,0.1182142447074994,0.11048874013976205,0.1028218327782555,0.09521505282079566,0.08766978676960487,0.08018727981118463,0.07276863839042742,0.06541483296925883,0.058126700968954226,0.05090494990181482,0.04375016068345439,0.03666279110558496,0.02964317946085839,0.022691548323021605,0.015808008476890015,0.008992562983247594,0.002245111371081827,-0.004434546047125014,-0.01104670375761696,-0.017591746556351665,-0.024070145005554048,-0.030482450837782758,-0.03682929231614519,-0.043111369567559135,-0.049329449897128425,-0.05548436308434665,-0.061576996672067424,-0.06760829126762483,-0.07357923586658259,-0.07949086320414549,-0.08534424515301385,-0.09114048819565217,-0.09688072898422369,-0.10256612998430527,-0.1081978751999061,-0.11377716598330175,-0.11930521692919868,-0.12478325185217684,-0.13021249985947433,-0.13559419153923155,-0.14092955527380455,-0.14621981367888157,-0.15146618017798527,-0.15666985572914802,-0.16183202570968883,-0.16695385695451717,-0.17203649494957665,-0.17708106118848146,-0.18208865069256686,-0.18706032968868658,-0.19199713344844183,-0.19690006429951756,-0.20177008980949118,-0.20660814113044745,-0.21141511149434322,-0.21619185485388148,-0.22093918465973136,-0.22565787275905,-0.23034864840096966,-0.23501219733819342,-0.23964916101484737,-0.24426013583170372,-0.24884567248352366,-0.2534062753663621,-0.25794240205155283,-0.2624544628181442,-0.26694282023021354,-0.2714077887453201,-0.2758496343456939,-0.28026857418361517,-0.2846647762223443,-0.2890383588506368,-0.29338939046140944,-0.29771788899103646,-0.3020238214011971,-0.30630710307821374,-0.3105675971443895,-0.314805113689651,-0.31901940891623054,-0.32321018417914343,-0.32737708492593826,-0.3315196995491076,-0.3356375581355466,-0.33973013108119726,-0.3437968275718702,-0.3478369939553863,-0.35184991200205956,-0.35583479703080717,-0.3597907959134323,-0.36371698499425453,-0.36761236792625174,-0.37147587339986976,-0.37530635278135277,-0.3791025777065367,-0.38286323763412505,-0.38658693733248245,-0.39027219432087734,-0.39391743632364795,-0.3975209987545578,-0.40108112221559455,-0.4045959500404864,-0.40806352594981515,-0.41148179183970784,-0.4148485856898439,-0.41816163962244113,-0.42141857818028716,-0.42461691684399383,-0.42775406076983946,-0.43082730377585,-0.433833827639753,-0.4367707017207726,-0.43963488287598007,-0.44242321569113613,-0.44513243308711453,-0.44775915731421706,-0.4502999013050267,-0.45275107040387563,-0.4551089645332923,-0.45736978081392043,-0.45952961661393965,-0.46158447304394634,-0.4635302589458322,-0.465362795375697,-0.467077820540036,-0.46867099518544353,-0.47013790847704784,-0.4714740843558596,-0.47267498832603816,-0.47373603466278064,-0.47465259406687316,-0.4754200017513706,-0.4760335659090685,-0.47648857654569526,-0.47678031469763643,-0.47690406201806806,-0.4768551106819084,-0.47662877358967953,-0.4762203948754496,-0.4756253606866994,-0.47483911017213726,-0.47385714664392947,-0.4726750489054166,-0.4712884826979285,-0.469693212190016,-0.46788511146762407,-0.4658601760185956,-0.46361453418077286,-0.4611444584975281,-0.45844637695036977,-0.45551688406185803,-0.45235275183607665,-0.4489509404804218,-0.44530860887779444,-0.4414231248056175,-0.43729207488339683,-0.43291327421224524,-0.42828477568381235,-0.4234048789451496,-0.4182721389797734,-0.4128853742464939,-0.4072436743418826,-0.4013464071803461,-0.39519322568008475,-0.3887840739311801,-0.3821191928321913,-0.3751991251902901,-0.36802472026561184,-0.3605971377289211,-0.3529178510152868,-0.34498865007221985,-0.3368116434964103,-0.32838926004580243,-0.3197242495208486,-0.3108196830163468,-0.30167895253959603,-0.2923057699848522,-0.28270416546037624,-0.2728784849706515,-0.2628333874517127,-0.2525738411533808,-0.2421051193696994,-0.23143279553022525,-0.22056273766974646,-0.2095011022935135,-0.19825432765482592,-0.18682912646653144,-0.17523247807675918,-0.16347162014173727,-0.1515540398194134,-0.13948746449804084,-0.12727985207360903,-0.11493938079202515,-0.10247443867029628,-0.08989361251524176,-0.07720567657283091,-0.06441958084789574,-0.051544439122430175,-0.03858951669380645,-0.025564217867571796,-0.012478073247765818,0.0006592731476529141,0.013838076930119712,0.027048506512725015,0.04028065637171269,0.05352456037418681,0.06677020516286443,0.08000754357566799,0.09322650806708933,0.10641702411222387,0.11956902357985844,0.13267245803499506,0.14571731191595816,0.15869361555735606,0.1715914580527571,0.1844009999337214,0.1971124856269595,0.2097162556739073,0.22220275871374953,0.23456256320743332,0.246786368862874,0.258865017747343,0.27078950509455163,0.28255098979235876,0.2941408045191691,0.30555046552152415,0.31677168204438283,0.32779636540052376,0.33861663764614053,0.3492248398561627,0.3596135400142243,0.36977554050709516,0.379703885193312,0.3893918660431409,0.39883302937051235,0.40802118165418244,0.41695039492529673,0.425615011723312,0.4340096496401416,0.4421292054423576,0.4499688587392184,0.4575240751953864,0.46479060931655103,0.4717645068162579,0.47844210655225594,0.48482004204424023,0.4908952426050651,0.49666493409397117,0.5021266392800877,0.5072781778267786,0.5121176659252132,0.5166435155801029,0.5208544335301145,0.5247494198096258,0.5283277659785931,0.5315890530231374,0.5345331489094326,0.537160205798344,0.5394706569509975,0.5414652133354767,0.5431448599261792,0.5445108517079743,0.5455647094137347,0.5463082149999697,0.5467434068462126,0.5468725746865485,0.5466982543012965,0.5462232219756976,0.545450488714247,0.5443832942208697,0.5430251006730975,0.5413795862965385,0.5394506387278359,0.5372423481766622,0.5347590004179477,0.5320050696279153,0.5289852110607685,0.5257042535811758,0.5221671920828586,0.518379179803429,0.5143455205288698,0.5100716606990233,0.5055631814370177,0.500825790499141,0.4958653141233079,0.4906876887811414,0.48529895286725117,0.4797052383495726,0.4739127623902713,0.46792781895950075,0.46175677047137065,0.45540603944661184,0.44888210018920305,0.44219147048491897,0.43534070334701064,0.428336378814502,0.42118509579224267,0.4138934639429168,0.40646809566074715,0.3989155981407626,0.39124256554218273,0.3834555712614812,0.37556116034606724,0.3675658420635187,0.35947608262649344,0.35129829808758933,0.343038847428688,0.3347040258491118,0.32630005824145386,0.3178330928615684,0.30930919521449013,0.3007343421613688,0.2921144162378963,0.2834552001909688,0.2747623717537683,0.26604149866190674,0.2572980338986445,0.24853731117412703,0.23976454065961617,0.23098480498429097,0.22220305548887198,0.21342410874313864,0.20465264334491104,0.1958931970021107,0.187150163886145,0.1784277922583738,0.16973018238322202,0.1610612847273406,0.1524248984316725,0.14382467005594762,0.13526409260624522,0.12674650484289712,0.1182750908541302,0.10985287989255267,0.10148274648124124,0.09316741078232411,0.08490943920939638,0.07671124527712296,0.06857509069067068,0.06050308666282587,0.052497195435082446,0.04455923199293625,0.03669086597792322,0.028893623786674077,0.021168890836401343,0.013517913989554988,0.005941804144158598,-0.0015584610113776585,-0.008982034089408696,-0.016328194942708023,-0.023596347448685617,-0.030786016145290414,-0.037896842734951315,-0.04492858246458219,-0.051881100384120624,-0.05875436749914391,-0.06554845684252243,-0.07226353947785373,-0.07889988043515021,-0.08545783458607119,-0.09193784247369084,-0.09834042610386906,-0.10466618469937461,-0.1109157904286362,-0.11708998412915839,-0.1231895710354645,-0.12921541651154414,-0.13516844179452794,-0.14104961976325062,-0.1468599707381399,-0.1526005583141849,-0.15827248523976206,-0.1638768893617744,-0.16941493964676002,-0.17488783227717686,-0.18029678682830974,-0.18564304253773056,-0.1909278546709416,-0.19615249097853288,-0.2013182282455504,-0.2064263489395895,-0.2114781379588994,-0.21647487947945346,-0.22141785391088056,-0.2263083349780667,-0.23114758693481852,-0.2359368619051636,-0.24067739735176574,-0.24537041367619028,-0.2500171119493688,-0.25461867176394026,-0.25917624920416693,-0.26369097493386073,-0.2681639523985386,-0.2725962561331991,-0.2769889301699712,-0.281342986543684,-0.2856594038911655,-0.28993912613690864,-0.29418306125926375,-0.29839208013401786,-0.3025670154511261,-0.30670866069545,-0.3108177691770634,-0.3148950530965785,-0.3189411826365138,-0.32295678507047126,-0.326942443873208,-0.3308986978118377,-0.33482604000859306,-0.3387249169648109,-0.34259572751242884,-0.34643882164995665,-0.3502544992484771,-0.3540430086401259,-0.35780454509410303,-0.3615392491765284,-0.3652472050084733,-0.3689284384460535,-0.37258291518175823,-0.37621053875125143,-0.37981114845579117,-0.38338451722658956,-0.3869303494273751,-0.39044827857208647,-0.39393786496815997,-0.39739859331975214,-0.40082987029199724,-0.40423102201398886,-0.4076012915357511,-0.410939836280272,-0.4142457254904469,-0.41751793764209155,-0.42075535783963586,-0.42395677524749814,-0.42712088057074066,-0.43024626356713996,-0.4333314106167451,-0.43637470240722126,-0.43937441174485786,-0.44232870146484976,-0.44523562246428394,-0.4480931119224163,-0.45089899172761205,-0.45365096709242714,-0.45634662538522436,-0.4589834352439239,-0.4615587459875207,-0.4640697873004597,-0.46651366921338794,-0.4688873824449417,-0.4711877991224435,-0.4734116738586344,-0.4755556452062966,-0.4776162375505855,-0.4795898634521312,-0.48147282641319117,-0.483261324081089,-0.4849514519388347,-0.48653920748688306,-0.48802049487993604,-0.48939113002222373,-0.4906468461570636,-0.491783299939301,-0.4927960779396458,-0.4936807035710172,-0.49443264446353413,-0.49504732027385573,-0.495520110877491,-0.49584636492976275,-0.4960214088143099,-0.4960405559598159,-0.49589911647089935,-0.49559240705304874,-0.49511576124351764,-0.4944645399278008,-0.4936341420901206,-0.4926200157744244,-0.4914176692582458,-0.4900226824112578,-0.48843071818212047,-0.4866375341821139,-0.4846389943546992,-0.4824310806882622,-0.4800099049029292,-0.4773717200700617,-0.47451293214764656,-0.47143011138775004,-0.46812000354863514,-0.4645795408722597,-0.4608058528169543,-0.45679627651853916,-0.45254836693410927,-0.4480599066415152,-0.44332891528475815,-0.43835365863593867,-0.43313265722704375,-0.4276646945234824,-0.4219488246284531,-0.415984379490479,-0.40977097557154357,-0.4033085199519594,-0.3965972158681029,-0.38963756767018654,-0.3824303851759906,-0.37497678740891305,-0.36727820572204684,-0.3593363863022795,-0.3511533920395459,-0.34273160375531425,-0.3340737207934911,-0.3251827609698063,-0.3160620598687784,-0.3067152694855562,-0.2971463562184458,-0.2873595982130753,-0.2773595820540849,-0.2671511988082927,-0.25673963943572514,-0.24613038958998898,-0.23532922382835095,-0.22434219925038934,-0.21317564858566485,-0.201836172754984,-0.19033063293059416,-0.17866614211556944,-0.1668500562598824,-0.15488996493527932,-0.1427936815936586,-0.13056923342806487,-0.11822485085360773,-0.10576895663510527,-0.09321015469345845,-0.08055721861349306,-0.06781907987107348,-0.05500481580957526,-0.04212363740326273,-0.02918487683186294,-0.016197974880977187,-0.00317246819540797,0.009882023578562384,0.02295581073994938,0.03603914655585688,0.0491222403301642,0.062195270476615175,0.07524839757306077,0.08827177738746898,0.10125557384926163,0.114189971926814,0.12706519039146077,0.1398714944632576,0.1525992083148304,0.1652387273953779,0.17778053055751655,0.19021519198414852,0.2025333928892387,0.2147259329499235,0.22678374145273233,0.238697888157903,0.25045959386530964,0.26206024064862193,0.27349138174820836,0.28474475113185777,0.2958122727083548,0.30668606916044966,0.31735847038942383,0.32782202158351387,0.338069490896957,0.3480938767067398,0.35788841444223507,0.3674465830077146,0.3767621107961071,0.38582898127307164,0.3946414381353464,0.40319399006935924,0.41148141511479114,0.419498764618678,0.4272413667872145,0.4347048298589528,0.4418850448972657,0.4487781881799015,0.45538072318811784,0.4616894022184318,0.46770126761622965,0.47341365261078094,0.47882418175649893,0.4839307710090626,0.4887316274465568,0.4932252486276683,0.4974104215983038,0.5012862215726451,0.5048520102900148,0.5081074340298614,0.5110524212899422,0.5136871801517694,0.5160121953350484,0.5180282249243707,0.5197362967750364,0.5211377046272786,0.5222340039413153,0.5230270074488933,0.5235187804347392,0.5237116357746934,0.5236081287343297,0.5232110515142074,0.5225234275494604,0.5215485055907725,0.5202897535758022,0.5187508522838407,0.5169356887850426,0.5148483497096589,0.512493114340376,0.509874447513795,0.506996992339487,0.503865562766483,0.5004851360121227,0.4968608448530371,0.49299796979438154,0.48890193114562835,0.4845782810099823,0.4800326951782478,0.475270964937616,0.47029898882220367,0.4651227643130861,0.45974837947975,0.45418200457453206,0.448429883607952,0.4424983259137204,0.4363936976963364,0.4301224135740999,0.423690928148267,N
5,0.379317169565609,0.3714218883354645,0.3634585443444571,0.35543305942909065,0.34735126891794493,0.33921891578255153,0.33104164502430516,0.3228249982809956,0.3145744086566737,0.3062951957972914,0.2979925612193352,0.2896715838838632,0.28133721602421874,0.2729942792494076,0.26464746092841535,0.2563013108460291,0.24796023813530726,0.23962850850314182,0.2313102417466873,0.22300940954352538,0.2147298335153072,0.20647518358059472,0.19824897659918286,0.19005457529682548,0.1818951874720849,0.17377386549751553,0.16569350611143654,0.15765685048319414,0.14966648454801287,0.14172483961775237,0.13383419325709697,0.12599667040142679,0.1182142447074994,0.11048874013976205,0.1028218327782555,0.09521505282079566,0.08766978676960487,0.08018727981118463,0.07276863839042742,0.06541483296925883,0.058126700968954226,0.05090494990181482,0.04375016068345439,0.03666279110558496,0.02964317946085839,0.022691548323021605,0.015808008476890015,0.008992562983247594,0.002245111371081827,-0.004434546047125014,-0.01104670375761696,-0.017591746556351665,-0.024070145005554048,-0.030482450837782758,-0.03682929231614519,-0.043111369567559135,-0.049329449897128425,-0.05548436308434665,-0.061576996672067424,-0.06760829126762483,-0.07357923586658259,-0.07949086320414549,-0.08534424515301385,-0.09114048819565217,-0.09688072898422369,-0.10256612998430527,-0.1081978751999061,-0.11377716598330175,-0.11930521692919868,-0.12478325185217684,-0.13021249985947433,-0.13559419153923155,-0.14092955527380455,-0.14621981367888157,-0.15146618017798527,-0.15666985572914802,-0.16183202570968883,-0.16695385695451717,-0.17203649494957665,-0.17708106118848146,-0.18208865069256686,-0.18706032968868658,-0.19199713344844183,-0.19690006429951756,-0.20177008980949118,-0.20660814113044745,-0.21141511149434322,-0.21619185485388148,-0.22093918465973136,-0.22565787275905,-0.23034864840096966,-0.23501219733819342,-0.23964916101484737,-0.24426013583170372,-0.24884567248352366,-0.2534062753663621,-0.25794240205155283,-0.2624544628181442,-0.26694282023021354,-0.2714077887453201,-0.2758496343456939,-0.28026857418361517,-0.2846647762223443,-0.2890383588506368,-0.29338939046140944,-0.29771788899103646,-0.3020238214011971,-0.30630710307821374,-0.3105675971443895,-0.314805113689651,-0.31901940891623054,-0.32321018417914343,-0.32737708492593826,-0.3315196995491076,-0.3356375581355466,-0.33973013108119726,-0.3437968275718702,-0.3478369939553863,-0.35184991200205956,-0.35583479703080717,-0.3597907959134323,-0.36371698499425453,-0.36761236792625174,-0.37147587339986976,-0.37530635278135277,-0.3791025777065367,-0.38286323763412505,-0.38658693733248245,-0.39027219432087734,-0.39391743632364795,-0.3975209987545578,-0.40108112221559455,-0.4045959500404864,-0.40806352594981515,-0.41148179183970784,-0.4148485856898439,-0.41816163962244113,-0.42141857818028716,-0.42461691684399383,-0.42775406076983946,-0.43082730377585,-0.433833827639753,-0.4367707017207726,-0.43963488287598007,-0.44242321569113613,-0.44513243308711453,-0.44775915731421706,-0.4502999013050267,-0.45275107040387563,-0.4551089645332923,-0.45736978081392043,-0.45952961661393965,-0.46158447304394634,-0.4635302589458322,-0.465362795375697,-0.467077820540036,-0.46867099518544353,-0.47013790847704784,-0.4714740843558596,-0.47267498832603816,-0.47373603466278064,-0.47465259406687316,-0.4754200017513706,-0.4760335659090685,-0.47648857654569526,-0.47678031469763643,-0.47690406201806806,-0.4768551106819084,-0.47662877358967953,-0.4762203948754496,-0.4756253606866994,-0.47483911017213726,-0.47385714664392947,-0.4726750489054166,-0.4712884826979285,-0.469693212190016,-0.46788511146762407,-0.4658601760185956,-0.46361453418077286,-0.4611444584975281,-0.45844637695036977,-0.45551688406185803,-0.45235275183607665,-0.4489509404804218,-0.44530860887779444,-0.4414231248056175,-0.43729207488339683,-0.43291327421224524,-0.42828477568381235,-0.4234048789451496,-0.4182721389797734,-0.4128853742464939,-0.4072436743418826,-0.4013464071803461,-0.39519322568008475,-0.3887840739311801,-0.3821191928321913,-0.3751991251902901,-0.36802472026561184,-0.3605971377289211,-0.3529178510152868,-0.34498865007221985,-0.3368116434964103,-0.32838926004580243,-0.3197242495208486,-0.3108196830163468,-0.30167895253959603,-0.2923057699848522,-0.28270416546037624,-0.2728784849706515,-0.2628333874517127,-0.2525738411533808,-0.2421051193696994,-0.23143279553022525,-0.22056273766974646,-0.2095011022935135,-0.19825432765482592,-0.18682912646653144,-0.17523247807675918,-0.16347162014173727,-0.1515540398194134,-0.13948746449804084,-0.12727985207360903,-0.11493938079202515,-0.10247443867029628,-0.08989361251524176,-0.07720567657283091,-0.06441958084789574,-0.051544439122430175,-0.03858951669380645,-0.025564217867571796,-0.012478073247765818,0.0006592731476529141,0.013838076930119712,0.027048506512725015,0.04028065637171269,0.05352456037418681,0.06677020516286443,0.08000754357566799,0.09322650806708933,0.10641702411222387,0.11956902357985844,0.13267245803499506,0.14571731191595816,0.15869361555735606,0.1715914580527571,0.1844009999337214,0.1971124856269595,0.2097162556739073,0.22220275871374953,0.23456256320743332,0.246786368862874,0.258865017747343,0.27078950509455163,0.28255098979235876,0.2941408045191691,0.30555046552152415,0.31677168204438283,0.32779636540052376,0.33861663764614053,0.3492248398561627,0.3596135400142243,0.36977554050709516,0.379703885193312,0.3893918660431409,0.39883302937051235,0.40802118165418244,0.41695039492529673,0.425615011723312,0.4340096496401416,0.4421292054423576,0.4499688587392184,0.4575240751953864,0.46479060931655103,0.4717645068162579,0.47844210655225594,0.48482004204424023,0.4908952426050651,0.49666493409397117,0.5021266392800877,0.5072781778267786,0.5121176659252132,0.5166435155801029,0.5208544335301145,0.5247494198096258,0.5283277659785931,0.5315890530231374,0.5345331489094326,0.537160205798344,0.5394706569509975,0.5414652133354767,0.5431448599261792,0.5445108517079743,0.5455647094137347,0.5463082149999697,0.5467434068462126,0.5468725746865485,0.5466982543012965,0.5462232219756976,0.545450488714247,0.5443832942208697,0.5430251006730975,0.5413795862965385,0.5394506387278359,0.5372423481766622,0.5347590004179477,0.5320050696279153,0.5289852110607685,0.5257042535811758,0.5221671920828586,0.518379179803429,0.5143455205288698,0.5100716606990233,0.5055631814370177,0.500825790499141,0.4958653141233079,0.4906876887811414,0.48529895286725117,0.4797052383495726,0.4739127623902713,0.46792781895950075,0.46175677047137065,0.45540603944661184,0.44888210018920305,0.44219147048491897,0.43534070334701064,0.428336378814502,0.42118509579224267,0.4138934639429168,0.40646809566074715,0.3989155981407626,0.39124256554218273,0.3834555712614812,0.37556116034606724,0.3675658420635187,0.35947608262649344,0.35129829808758933,0.343038847428688,0.3347040258491118,0.32630005824145386,0.3178330928615684,0.30930919521449013,0.3007343421613688,0.2921144162378963,0.2834552001909688,0.2747623717537683,0.26604149866190674,0.2572980338986445,0.24853731117412703,0.23976454065961617,0.23098480498429097,0.22220305548887198,0.21342410874313864,0.20465264334491104,0.1958931970021107,0.187150163886145,0.1784277922583738,0.16973018238322202,0.1610612847273406,0.1524248984316725,0.14382467005594762,0.13526409260624522,0.12674650484289712,0.1182750908541302,0.10985287989255267,0.10148274648124124,0.09316741078232411,0.08490943920939638,0.07671124527712296,0.06857509069067068,0.06050308666282587,0.052497195435082446,0.04455923199293625,0.03669086597792322,0.028893623786674077,0.021168890836401343,0.013517913989554988,0.005941804144158598,-0.0015584610113776585,-0.008982034089408696,-0.016328194942708023,-0.023596347448685617,-0.030786016145290414,-0.037896842734951315,-0.04492858246458219,-0.051881100384120624,-0.05875436749914391,-0.06554845684252243,-0.07226353947785373,-0.07889988043515021,-0.08545783458607119,-0.09193784247369084,-0.09834042610386906,-0.10466618469937461,-0.1109157904286362,-0.11708998412915839,-0.1231895710354645,-0.12921541651154414,-0.13516844179452794,-0.14104961976325062,-0.1468599707381399,-0.1526005583141849,-0.15827248523976206,-0.1638768893617744,-0.16941493964676002,-0.17488783227717686,-0.18029678682830974,-0.18564304253773056,-0.1909278546709416,-0.19615249097853288,-0.2013182282455504,-0.2064263489395895,-0.2114781379588994,-0.21647487947945346,-0.22141785391088056,-0.2263083349780667,-0.23114758693481852,-0.2359368619051636,-0.24067739735176574,-0.24537041367619028,-0.2500171119493688,-0.25461867176394026,-0.25917624920416693,-0.26369097493386073,-0.2681639523985386,-0.2725962561331991,-0.2769889301699712,-0.281342986543684,-0.2856594038911655,-0.28993912613690864,-0.29418306125926375,-0.29839208013401786,-0.3025670154511261,-0.30670866069545,-0.3108177691770634,-0.3148950530965785,-0.3189411826365138,-0.32295678507047126,-0.326942443873208,-0.3308986978118377,-0.33482604000859306,-0.3387249169648109,-0.34259572751242884,-0.34643882164995665,-0.3502544992484771,-0.3540430086401259,-0.35780454509410303,-0.3615392491765284,-0.3652472050084733,-0.3689284384460535,-0.37258291518175823,-0.37621053875125143,-0.37981114845579117,-0.38338451722658956,-0.3869303494273751,-0.39044827857208647,-0.39393786496815997,-0.39739859331975214,-0.40082987029199724,-0.40423102201398886,-0.4076012915357511,-0.410939836280272,-0.4142457254904469,-0.41751793764209155,-0.42075535783963586,-0.42395677524749814,-0.42712088057074066,-0.43024626356713996,-0.4333314106167451,-0.43637470240722126,-0.43937441174485786,-0.44232870146484976,-0.44523562246428394,-0.4480931119224163,-0.45089899172761205,-0.45365096709242714,-0.45634662538522436,-0.4589834352439239,-0.4615587459875207,-0.4640697873004597,-0.46651366921338794,-0.4688873824449417,-0.4711877991224435,-0.4734116738586344,-0.4755556452062966,-0.4776162375505855,-0.4795898634521312,-0.48147282641319117,-0.483261324081089,-0.4849514519388347,-0.48653920748688306,-0.48802049487993604,-0.48939113002222373,-0.4906468461570636,-0.491783299939301,-0.4927960779396458,-0.4936807035710172,-0.49443264446353413,-0.49504732027385573,-0.495520110877491,-0.49584636492976275,-0.4960214088143099,-0.4960405559598159,-0.49589911647089935,-0.49559240705304874,-0.49511576124351764,-0.4944645399278008,-0.4936341420901206,-0.4926200157744244,-0.4914176692582458,-0.4900226824112578,-0.48843071818212047,-0.4866375341821139,-0.4846389943546992,-0.4824310806882622,-0.4800099049029292,-0.4773717200700617,-0.47451293214764656,-0.47143011138775004,-0.46812000354863514,-0.4645795408722597,-0.4608058528169543,-0.45679627651853916,-0.45254836693410927,-0.4480599066415152,-0.44332891528475815,-0.43835365863593867,-0.43313265722704375,-0.4276646945234824,-0.4219488246284531,-0.415984379490479,-0.40977097557154357,-0.4033085199519594,-0.3965972158681029,-0.38963756767018654,-0.3824303851759906,-0.37497678740891305,-0.36727820572204684,-0.3593363863022795,-0.3511533920395459,-0.34273160375531425,-0.3340737207934911,-0.3251827609698063,-0.3160620598687784,-0.3067152694855562,-0.2971463562184458,-0.2873595982130753,-0.2773595820540849,-0.2671511988082927,-0.25673963943572514,-0.24613038958998898,-0.23532922382835095,-0.22434219925038934,-0.21317564858566485,-0.201836172754984,-0.19033063293059416,-0.17866614211556944,-0.1668500562598824,-0.15488996493527932,-0.1427936815936586,-0.13056923342806487,-0.11822485085360773,-0.10576895663510527,-0.09321015469345845,-0.08055721861349306,-0.06781907987107348,-0.05500481580957526,-0.04212363740326273,-0.02918487683186294,-0.016197974880977187,-0.00317246819540797,0.009882023578562384,0.02295581073994938,0.03603914655585688,0.0491222403301642,0.062195270476615175,0.07524839757306077,0.08827177738746898,0.10125557384926163,0.114189971926814,0.12706519039146077,0.1398714944632576,0.1525992083148304,0.1652387273953779,0.17778053055751655,0.19021519198414852,0.2025333928892387,0.2147259329499235,0.22678374145273233,0.238697888157903,0.25045959386530964,0.26206024064862193,0.27349138174820836,0.28474475113185777,0.2958122727083548,0.30668606916044966,0.31735847038942383,0.32782202158351387,0.338069490896957,0.3480938767067398,0.35788841444223507,0.3674465830077146,0.3767621107961071,0.38582898127307164,0.3946414381353464,0.40319399006935924,0.41148141511479114,0.419498764618678,0.4272413667872145,0.4347048298589528,0.4418850448972657,0.4487781881799015,0.45538072318811784,0.4616894022184318,0.46770126761622965,0.47341365261078094,0.47882418175649893,0.4839307710090626,0.4887316274465568,0.4932252486276683,0.4974104215983038,0.5012862215726451,0.5048520102900148,0.5081074340298614,0.5110524212899422,0.5136871801517694,0.5160121953350484,0.5180282249243707,0.5197362967750364,0.5211377046272786,0.5222340039413153,0.5230270074488933,0.5235187804347392,0.5237116357746934,0.5236081287343297,0.5232110515142074,0.5225234275494604,0.5215485055907725,0.5202897535758022,0.5187508522838407,0.5169356887850426,0.5148483497096589,0.512493114340376,0.509874447513795,0.506996992339487,0.503865562766483,0.5004851360121227,0.4968608448530371,0.49299796979438154,0.48890193114562835,0.4845782810099823,0.4800326951782478,0.475270964937616,0.47029898882220367,0.4651227643130861,0.45974837947975,0.45418200457453206,0.448429883607952,0.4424983259137204,0.4363936976963364,0.4301224135740999,0.423690928148267,0.41710572761253023,0.41037332140184296,0.40350023389592,0.39649299620353,0.38935813802992786,0.3821021796128166,0.37473162373503277,0.3672529478438421,0.35967259629197634,0.35199697270045405,0.34423243245989105,0.336385275400717,0.3284617386439725,0.3204679896286701,0.3124101193285631,0.3042941356850526,0.29612595726438684,0.2879114071317632,0.27965620695227933,0.27136597134432183,0.26304620249519217,0.25470228503413017,0.24633948117251175,0.23796292613298126,0.22957762387181352,0.22118844308415847,0.2128001134971558,0.2044172224698753,0.19604421190458224,0.18768537546029343,0.1793448560723998,0.1710266437926281,0.16273457394765345,0.15447232560130386,0.146243420318474,0.13805122123904653,0.12989893245329007,0.12178959865687285,0.11372610507946977,0.10571117769745252,0.09774738373224999,0.08983713242499923,0.08198267608672798,0.0741861114289699,0.06644938116387082,0.05877427585100935,0.05116243598081478,0.043615354296330136,0.036134378344434656,0.02872071323740151,0.021375424616552223,0.014099441821481493,0.006893561261594524,-0.00024155002174166298,-0.007305350608643258,-0.014297420772844583,-0.021217458388054247,-0.02806527469300588,-0.03484078993068009,-0.04154402887097935,-0.048175116238600456,-0.054734272076683375,-0.06122180706421107,-0.0676381177931504,-0.07398368201897568,-0.0802590539058369,-0.08646485927801731,-0.09260179088191714,-0.09867060367357819,-0.10467211015489866,-0.11060717576989594,-0.11647671436041947,-0.12228168368639576,-0.12802308102241072,-0.13370193883520218,-0.13931932054194016,-0.14487631636019158,-0.15037403926813572,-0.1558136210829622,-0.16119620865574485,-0.16652296018866036,-0.17179504168730336,-0.17701362355131162,-0.18217987729716184,-0.18729497241282517,-0.1923600733501562,-0.19737633665458684,-0.2023449082284637,-0.2072669207359142,-0.21214349116454354,-0.21697571854806608,-0.22176468184319043,-0.22651143796003548,-0.23121701995161348,-0.23588243535876313,-0.2405086646952314,-0.245096660057531,-0.24964734384838433,-0.254161607602114,-0.2586403109014596,-0.2630842803831314,-0.2674943088345853,-0.27187115437960885,-0.2762155397435375,-0.28052815158882094,-0.28480963991440644,-0.2890606175117344,-0.29328165946562434,-0.297473302683405,-0.3016360454358721,-0.30577034689988225,-0.30987662669505767,-0.3139552644013366,-0.3180065990423049,-0.3220309285281971,-0.3260285090546698,-0.329999554439203,-0.3339442353709386,-0.3378626785673922,-0.34175496584299353,-0.3456211330790305,-0.3494611690754857,-0.35327501428641606,-0.3570625594542278,-0.36082364413706625,-0.3645580551103009,-0.36826552464911333,-0.3719457287168777,-0.3755982850579658,-0.3792227511762172,-0.38281862221017227,-0.38638532873359954,-0.3899222344720278,-0.3934286339023413,-0.39690374974497056,-0.4003467303936328,-0.4037566472970353,-0.40713249228154935,-0.410473174841472,-0.4137775194498336,-0.4170442628997015,-0.4202720516549094,-0.4234594392330099,-0.4266048836754798,-0.42970674511322315,-0.43276328340038683,-0.4357726558393857,-0.4387329150626222,-0.44164200709508633,-0.4444977695859877,-0.44729793024155196,-0.45004010552584395,-0.4527217996485112,-0.4553404038194312,-0.45789319579489385,-0.4603773397738843,-0.4627898866503578,-0.46512777458603327,-0.46738782991859146,-0.4695667684663552,-0.4716611972499554,-0.47366761661241413,-0.47558242275828577,-0.4774019107637829,-0.4791222780609238,-0.48073962835830375,-0.4822499760020595,-0.483649250813515,-0.48493330339126167,-0.4860979108252907,-0.48713878281454875,-0.48805156821872336,-0.4888318620345033,-0.48947521274908173,-0.48997713006189814,-0.4903330930010922,-0.4905385584247569,-0.49058896986235057,-0.49047976668309706,-0.49020639360537727,-0.48976431052338615,-0.4891490025943898,-0.48835599056118734,-0.48738084131225284,-0.48621917864846614,-0.4848666941953141,-0.48331915842935086,-0.48157243181592785,-0.4796224760274695,-0.47746536518509514,-0.47509729709179216,-0.4725146044485451,-0.4697137660184707,-0.4666914176801711,-0.4634443633353326,-0.45996958565693075,-0.45626425664005027,-0.4523257478959885,-0.4481516406544516,-0.44373973546308115,-0.43908806155726204,-0.4341948858557633,-0.42905872155576696,-0.42367833631809926,-0.4180527600174043,-0.4121812920168856,-0.4060635079433002,-0.39969926595226674,-0.3930887124583003,-0.38623228729071785,-0.3791307282542479,-0.37178507509304903,-0.3641966728511744,-0.3563671746133149,-0.34829854361966195,-0.33999305476071595,-0.33145329545373925,-0.32268216589592624,-0.313682878694651,-0.3044589578818295,-0.29501423731635285,-0.2853528584741771,-0.27547926762909924,-0.26539821243241357,-0.2551147378994124,-0.2446341818087002,-0.23396216952177834,-0.22310460823456663,-0.21206768067623777,-0.20085783827128417,-0.18948179377881355,-0.17794651342505483,-0.16625920855297302,-0.1544273268161501,-0.14245854293733573,-0.1303607490499491,-0.11814204465204659,-0.10581072620820242,-0.09337527642263692,-0.08084435319758375,-0.06822677830022748,-0.05553152576868729,-0.04276771007580945,-0.029944574060583307,-0.017071476648077056,-0.004157880387415731,0.008786661173144628,0.021752516257504403,0.03472998773974209,0.047709326076362274,0.06068074226315392,0.07363442080823031,0.08656053270114895,0.09944924834625636,0.11229075044468284,0.12507524682018034,0.13779298316295152,0.15043425565092616,0.1629894234283773,0.1754489209354324,0.18780327005738795,0.2000430920458629,0.21215911919108948,0.2241422062501524,0.23598334162041495,0.24767365823170256,0.2592044441501674,0.27056715289874667,0.28175341347098637,0.29275503999588015,0.3035640410388034,0.3141726285459039,0.3245732264150232,0.33475847865689246,0.3447212571389358,0.3544546689305877,0.36395206325022605,0.3732070379954527,0.3822134458603224,0.3909654000599006,0.3994572796569263,0.4076837344654954,0.4156396895320116,0.4233203492167752,0.4307212008799197,0.43783801815699763,0.4446668638299969,0.4512040923145342,0.4574463517575802,0.46339058572029557,0.46903403444652875,0.47437423574258847,0.47940902547723346,0.48413653769352233,0.48855520434248595,0.4926637546617379,0.49646121419696204,0.4999469034454474,0.5031204361247462,0.50598171709221,0.5085309399245778,0.5107685841502901,0.5126954121451959,0.5143124657159228,0.5156210623724393,0.5166227912739003,0.5173195088536461,0.5177133341487755,0.5178066438419299,0.517602067006847,0.51710247956833,0.5163109985031819,0.5152309757891939,0.5138659920931766,0.5122198502079444,0.5102965682619293,0.508100372701897,0.5056356910321717,0.502907144317628,0.499919539479709,0.4966778613983086,0.49318726481671404,0.48945306606605615,0.4854807346417152,0.48127588464470233,0.4768442660849062,0.47219175606295277,0.46732434986594745,0.46224815199700725,0.4569693671435951,0.451494291104643,0.4458293017060938,0.43998084971112583,0.4339554497146897,0.4277596710336894,0.4214001286249166,0.41488347404869585,0.4082163864816172,N
