0,-0.4260347120090194,-0.42712548982170256,-0.4282465591250029,-0.4293999830543172,-0.43058763000129613,-0.4318111747443774,-0.4330721000027651,-0.43437169840692014,-0.43571107488690264,-0.4370911494837586,-0.4385126605760574,-0.43997616849582966,-0.4414820595001474,-0.4430305500649012,-0.44462169146949626,-0.44625537464319653,-0.44793133524569995,-0.44964915895624036,-0.4514082869487876,-0.4532080215405196,-0.45504753201547116,-0.4569258606304833,-0.45884192879765523,-0.46079454341982856,-0.46278240334781934,-0.4648041059286307,-0.46685815361711125,-0.4689429606298252,-0.47105685962866906,-0.473198108425704,-0.4753648966954489,-0.4775553526732028,-0.4797675498151479,-0.48199951339726166,-0.4842492270330561,-0.4865146390962423,-0.48879366904297555,-0.4910842136320755,-0.4933841530353642,-0.4956913568183423,-0.49800368976175324,-0.50031901749372,-0.5026352119128653,-0.5049501564022033,-0.5072617508531084,-0.5095679165244574,-0.5118666007478582,-0.5141557814677445,-0.5164334715902524,-0.5186977231129825,-0.5209466310177008,-0.5231783369233965,-0.5253910325099939,-0.5275829627268661,-0.5297524287931924,-0.531897790984465,-0.534017471189015,-0.5361099552168281,-0.53817379485211,-0.5402076096557079,-0.5422100885356974,-0.5441799911076491,-0.5461161488575281,-0.5480174661028054,-0.5498829207296883,-0.5517115646802799,-0.5535025241783802,-0.5552549997021243,-0.5569682657211437,-0.5586416702169461,-0.5602746340042337,-0.5618666498699323,-0.5634172815458047,-0.5649261625296553,-0.5663929947693003,-0.5678175472226865,-0.5691996543067819,-0.570539214247133,-0.5718361873384471,-0.5730905941218215,-0.5743025134769238,-0.5754720806248325,-0.5765994850437138,-0.5776849683083375,-0.5787288218683097,-0.5797313847796092,-0.5806930414010816,-0.5816142190582363,-0.5824953856622186,-0.5833370472668171,-0.5841397455594788,-0.5849040553001308,-0.5856305817295644,-0.5863199579687361,-0.5869728424263698,-0.587589916221968,-0.5881718806159735,-0.5887194544329826,-0.589233371474406,-0.5897143779251421,-0.5901632297514219,-0.590580690081631,-0.5909675265728953,-0.5913245087760666,-0.59165240550563,-0.5919519822152639,-0.5922239983858629,-0.5924692049277177,-0.5926883415706555,-0.5928821342034082,-0.5930512921492802,-0.5931965053836231,-0.5933184416768101,-0.5934177436320728,-0.593495025616055,-0.5935508705971194,-0.5935858268733499,-0.5936004046519502,-0.593595072479027,-0.5935702535399098,-0.593526321803454,-0.5934635979557942,-0.5933823451211815,-0.5932827644005054,-0.5931649902001763,-0.5930290852875122,-0.5928750355787693,-0.5927027447252142,-0.5925120285159726,-0.5923026090770571,-0.5920741089075672,-0.5918260448410226,-0.5915578219591184,-0.5912687274387358,-0.5909579243782549,-0.5906244457003723,-0.5902671881644347,-0.5898849064703625,-0.5894762075023171,-0.589039544810635,-0.5885732133587834,-0.5880753445061632,-0.5875439012700443,-0.5869766739736504,-0.5863712763264715,-0.585725141927395,-0.5850355212422363,-0.5842994791563813,-0.5835138931334439,-0.5826754519527352,-0.5817806550616116,-0.5808258126372994,-0.5798070463967726,-0.5787202911388649,-0.5775612970543842,-0.5763256328926387,-0.5750086900293268,-0.5736056874323741,-0.5721116775539449,-0.5705215532053013,-0.5688300554220488,-0.5670317822820111,-0.5651211986675754,-0.5630926469914878,-0.5609403588620442,-0.5586584676237544,-0.5562410217387389,-0.5536819990073233,-0.5509753216014205,-0.5481148718534256,-0.5450945087580397,-0.5419080851602549,-0.538549465577294,-0.5350125445767635,-0.5312912656466513,-0.5273796405106057,-0.5232717688293405,-0.5189618582116431,-0.5144442444636492,-0.5097134120128632,-0.5047640144330379,-0.4995908949842652,-0.49418910708684977,-0.4885539346548892,-0.48268091221185666,-0.47656584470458724,-0.4702048269362903,-0.4635942625535273,-0.4567308825378865,-0.4496117631563651,-0.442234343309733,-0.43459644119969754,-0.42669627022803025,-0.41853245404233774,-0.41010404065067907,-0.40141051554816953,-0.39245181383055505,-0.38322833128315614,-0.37374093441475553,-0.3639909693916552,-0.35398026984384057,-0.343711163529115,-0.3331864778242645,-0.3224095439978338,-0.3113842002352533,-0.30011479340280006,-0.2886061795265425,-0.27686372295954614,-0.26489329423975333,-0.2527012666611271,-0.24029451156214163,-0.22768039232374124,-0.2148667570977781,-0.20186193030879482,-0.1886747029508349,-0.17531432169067787,-0.1617904768284504,-0.14811328919284775,-0.13429329601313014,-0.12034143577778858,-0.10626903211446906,-0.09208777675009375,-0.07780971158661351,-0.06344720991952804,-0.04901295687815229,-0.034519929198642406,-0.01998137439137925,-0.005410789308948914,0.009178101869473959,0.023771370198692715,0.03835490504952951,0.05291443769075151,0.06743556529949896,0.08190377529772822,0.0963044699511014,0.11062299120194133,0.12484464567853745,0.13895472979604392,0.15293855489821395,0.16678147242224184,0.18046889904522312,0.19398634174613494,0.2073194227417229,0.2204539042743067,0.2333757131988077,0.24607096529158692,0.25852598923105585,0.27072735022229866,0.2826618732083015,0.29431666558677017,0.30567913938255104,0.31673703285588245,0.3274784315070864,0.3378917884181753,0.34796594389679697,0.35769014441502683,0.3670540608233898,0.3760478058043794,0.384661950543061,0.39288754060155767,0.40071611096147824,0.4081397001819002,0.4151508636410651,0.4217426858495269,0.4279087918085317,0.4336433573742219,0.43894111860606505,0.44379738009386954,0.448208022243539,0.45216950748974255,0.45567888542220336,0.45873379683159676,0.46133247667365085,0.46347375594087925,0.465157062443766,0.466382420513918,0.4671504496305501,0.46746236196285085,0.4673199588335163,0.4667256261164122,0.46568232856439884,0.4641936030533155,0.46226355074939296,0.4598968282290029,0.457098637574228,0.4538747154601973,0.45023132126465487,0.44617522424597084,0.4417136898320288,0.4368544650560024,0.431605763181736,0.42597624756373936,0.419975014771859,0.41361157700194456,0.40689584380814,0.399838103204559,0.3924490021739397,0.38473952661261274,0.3767209807547014,0.36840496612920526,0.3598033600915096,0.35092829396158565,0.34179213081567017,0.33240744299099045,0.3227869893525597,0.3129436923615694,0.30289061499806197,0.2926409376047448,0.28220793471329314,0.2716049519061761,0.26084538277189145,0.24994264601246494,0.23891016274623686,0.22776133403830376,0.21650951870237137,0.20516801142970323,0.1937500212940604,0.18226865067277667,0.17073687462921833,0.15916752080503288,0.14757324985850534,0.13596653647561624,0.12435965098645478,0.11276464162161985,0.10119331742688235,0.08965723184329409,0.07816766697248873,0.06673561856049692,0.05537178172728208,0.044086537460300446,0.03288993989619075,0.021791704422456124,0.010801196626697655,-7.257788658450058e-05,-0.01082098279415261,-0.02143575945906592,-0.031909034456210524,-0.04223332624329763,-0.052401550988798035,-0.06240702755377023,-0.07224348162973013,-0.08190504904269327,-0.09138627822764946,-0.10068213187313098,-0.10978798774561678,-0.11869963871213392,-0.127413291972323,-0.135925567502186,-0.14423349571475166,-0.15233451434915138,-0.16022646460018297,-0.16790758650527782,-0.17537651362086248,-0.1826322670285816,-0.18967424870268806,-0.19650223426160623,-0.20311636513409942,-0.2095171401773312,-0.2157054067761724,-0.22168235144583687,-0.22744948996685804,-0.2330086570878656,-0.238361995825891,-0.2435119463932057,-0.24846123479531665,-0.2532128611534022,-0.25777008778739324,-0.2621364270713667,-0.2663156290628475,-0.27031166890974206,-0.2741287340395421,-0.2777712111216485,-0.2812436727678783,-0.28455086393066076,-0.2876976879936796,-0.29068919260063514,-0.2935305553011846,-0.29622706909920143,-0.29878412797459,-0.301207212434925,-0.30350187514969273,-0.305673726719214,-0.30772842162228775,-0.30967164437608674,-0.3115090959361708,-0.3132464803629198,-0.3148894917816811,-0.3164438016712409,-0.3179150465276603,-0.31930881595343846,-0.32063064120843776,-0.32188598424717874,-0.32308022727039376,-0.32421866282094747,-0.32530648444112925,-0.3263487778936484,-0.3273505129464153,-0.32831653572253633,-0.3292515616119507,-0.3301601687368443,-0.3310467919660949,-0.3319157174764702,-0.3327710778542538,-0.33361684773086847,-0.33445683995599723,-0.33529470231628394,-0.336133914795051,-0.33697778735098866,-0.3378294581860645,-0.33869189247344983,-0.3395678815201288,-0.34046004234831057,-0.34137081769372263,-0.3423024764241686,-0.3432571143706153,-0.3442366555475917,-0.3452428537329945,-0.3462772943781311,-0.3473413968220241,-0.34843641679021636,-0.34956344916695353,-0.3507234310333856,-0.3519171449598443,-0.3531452225364119,-0.35440814812959986,-0.35570626285592943,-0.3570397687588467,-0.358408733171782,-0.3598130932539758,-0.3612526606888735,-0.3627271265290394,-0.3642360661599636,-0.36577894434575897,-0.36735512031912554,-0.3689638528880468,-0.3706043055471533,-0.37227555159464987,-0.3739765792596057,-0.37570629683885304,-0.3774635378373582,-0.37924706610752856,-0.38105558098489467,-0.3828877224132653,-0.38474207604614097,-0.38661717830873765,-0.38851152140581025,-0.39042355826368175,-0.39235170740443964,-0.39429435776494076,-0.3962498734784426,-0.39821659862371256,-0.4001928619287463,-0.40217698140836117,-0.40416726891539595,-0.40616203458926736,-0.40815959119594347,-0.4101582583687844,-0.4121563667655439,-0.41415226214448153,-0.41614430934539626,-0.41813089615407306,-0.4201104370296005,-0.4220813766785038,-0.4240421934703757,-0.4259914027054749,-0.4279275597509668,-0.4298492630504635,-0.4317551569946811,-0.4336439346339764,-0.43551434021473273,-0.43736517152541543,-0.43919528204496805,-0.4410035828954748,-0.4427890446053655,-0.44455069868457064,-0.4462876390056514,-0.4479990229823443,-0.44968407253841125,-0.45134207486194766,-0.4529723829423751,-0.4545744158892244,-0.4561476590335287,-0.4576916638148673,-0.4592060474617485,-0.46069049247961064,-0.4621447459634191,-0.4635686187464989,-0.46496198438734515,-0.4663247779880124,-0.46765699483656586,-0.46895868887352393,-0.47022997099398206,-0.47147100720686747,-0.47268201667528426,-0.47386326965632025,-0.4750150853511654,-0.4761378296727902,-0.47723191293813966,-0.47829778749154483,-0.4793359452631458,-0.4803469152610327,-0.4813312609944145,-0.482289577830886,-0.4832224902984201,-0.4841306493462465,-0.48501472957888847,-0.48587542647608023,-0.48671345360650337,-0.48752953983587893,-0.4883244265272521,-0.48909886473593844,-0.48985361240212133,-0.4905894315344119,-0.4913070853732109,-0.4920073355327972,-0.49269093912620043,-0.493358645864312,-0.4940111951138437,-0.4946493129147306,-0.4952737089716731,-0.4958850736265369,-0.4964840748110345,-0.49707135498943433,-0.49764752809945634,-0.49821317646910357,-0.49876884767252694,-0.49931505131648884,-0.4998522557655452,-0.5003808847812284,-0.5009013140312434,-0.5014138674657511,-0.5019188135929564,-0.5024163616617687,-0.5029066577384427,-0.503389780696619,-0.5038657381543412,-0.504334462337517,-0.504795805817736,-0.5052495371280639,-0.5056953363036518,-0.5061327903476713,-0.5065613885882381,-0.506980517947423,-0.5073894581794084,-0.5077873770687885,-0.508173325535675,-0.508546232667478,-0.5089049007615428,-0.5092480004131484,-0.5095740656384294,-0.5098814890802169,-0.5101685173827432,-0.5104332467426517,-0.5106736185886561,-0.5108874154205815,-0.5110722569101661,-0.511225596311801,-0.5113447171788393,-0.511426730442879,-0.511468571969955,-0.5114670006532791,-0.511418597049804,-0.5113197626153314,-0.5111667196291754,-0.5109555118323945,-0.5106820057491228,-0.5103418927162041,-0.5099306917039336,-0.5094437529715267,-0.5088762625548552,-0.5082232476150416,-0.5074795827011497,-0.5066399969260093,-0.5056990820082975,-0.5046513011705974,-0.5034909989202957,-0.5022124117041017,-0.5008096793886915,N,,,,,,,,,,,,,,,,,,,,,,,,,,,,,,,,,,,,,,,,,,,,,,,,,,,,,,,,,,,,,,,,,,,,,,,,,,,,,,,,,,,,,,,,,,,,,,,,,,,,,,,,,,,,,,,,,,,,,,,,,,,,,,,,,,,,,,,,,,,,,,,,,,,,,,,,,,,,,,,,,,,,,,,,,,,,,,,,,,,,,,,,,,,,,,,,,,,,,,,,,,,,,,,,,,,,,,,,,,,,,,,,,,,,,,,,,,,,,,,,,,,,,,,,,,,,,,,,,,,,,,,,,,,,,,,,,,,,,,,,,,,,,,,,,,,,,,,,,,,,,,,,,,,,,,,,,,,,,,,,,,,,,,,,,,,,,,,,,,,,,,,,,,,,,,,,,,,,,,,,,,,,,,,,,,,,,,,,,,,,,,,,,,,,,,,,,,,,,,,,,,,,,,,,,,,,,,,,,,,,,,
1,-0.01154623191500314,-0.012366612312727537,-0.01313848501152401,-0.013861309495955224,-0.014534669401779651,-0.015158270358402101,-0.015731937612525768,-0.016255613443622488,-0.01672935438204526,-0.017153328240785318,-0.017527810972025548,-0.017853183359762964,-0.018129927559865977,-0.01835862349899743,-0.018539945143872694,-0.01867465665233381,-0.018763608417706565,-0.018807733017867742,-0.01880804108038578,-0.018765617075010288,-0.018681615044674818,-0.018557254286043975,-0.018393814990481344,-0.018192633856139354,-0.017955099681677147,-0.017682648951898805,-0.017376761425372533,-0.017038955733842995,-0.016670785002984218,-0.01627383250376116,-0.015849707343374472,-0.015400040204456483,-0.014926479140868046,-0.014430685438116403,-0.013914329546074689,-0.01337908709133527,-0.012826634976172688,-0.012258647570728545,-0.01167679300466129,-0.011082729564129312,-0.01047810219959723,-0.009864539149573526,-0.009243648685003839,-0.008617015978659125,-0.007986200103472292,-0.007352731163391871,-0.006718107559937583,-0.006083793397261068,-0.005451216028136481,-0.004821763905967223,-0.004196785692626803,-0.0035775928612231025,-0.0029654684158492064,-0.0023616829802442494,-0.0017675176378982413,-0.0011842919544069641,-0.0006133955439035131,-5.632178457810613e-05,0.0004852974922532566,0.0010096574218879403,0.0015147466239022846,0.0019983156079040757,0.0024578476750959383,0.002890532862373738,0.0032932454199601034,0.003662525164119504,0.003994562919386006,0.004285190253864296,0.0045298736912700805,0.004723713454668168,0.004861446688172194,0.004937455117886058,0.004945777119955966,0.004880124053362129,0.004733900618921062,0.004500229033974022,0.004171976837562936,0.0037417880577560654,0.0032021174107390916,0.0025452672634074026,0.0017634271366690861,0.0008487154426847106,-0.00020677692322210287,-0.0014109414577974547,-0.0027716056601697274,-0.00429648570977074,-0.005993138598908626,-0.007868914041124591,-0.009930906415366769,-0.012185907057048409,-0.014640357249014717,-0.01730030219475013,-0.02017134619139576,-0.02325860926122728,-0.02656668552835684,-0.0300996035452919,-0.03386078870539981,-0.03785302792642472,-0.04207843684150019,-0.04653842968201501,-0.05123369197632787,-0.05616415620739807,-0.061328980578223315,-0.06672653095136487,-0.07235436596445209,-0.07820922536517953,-0.08428702165916994,-0.09058283512920555,-0.09709091223485165,-0.10380466740663383,-0.11071668824059491,-0.11781874402405776,-0.1251017974698346,-0.13255601956998497,-0.14017080750997668,-0.14793480553416516,-0.15583592860839823,-0.16386138875755243,-0.1719977239817634,-0.18023082960527184,-0.18854599187007529,-0.1969279236211165,-0.20536080195229317,-0.21382830762448662,-0.2223136660251524,-0.23079968948686422,-0.23926882081114972,-0.24770317777427972,-0.25608459834670105,-0.2643946864311363,-0.2726148579866755,-0.28072638735291144,-0.28871045354524416,-0.29654818636484526,-0.30422071222949076,-0.3117091995797471,-0.31899490367181504,-0.32605921063301807,-0.3328836806952454,-0.33945009043654434,-0.34574047380783784,-0.3517371618212089,-0.35742282087201543,-0.3627804896245351,-0.36779361434486996,-0.3724460826345625,-0.37672225556965316,-0.3806069981741517,-0.38408570810256454,-0.3871443424925017,-0.3897694430279271,-0.39194815920043086,-0.393668269705505,-0.3949182019811211,-0.39568704995546994,-0.39596459000812506,-0.3957412950966462,-0.3950083470713546,-0.3937576472682423,-0.3919818254223058,-0.3896742468958248,-0.3868290182816539,-0.38344099154320804,-0.37950576688807375,-0.3750196945515792,-0.36997987563532303,-0.3643841621176039,-0.35823115612770257,-0.3515202085538472,-0.34425141703523937,-0.33642562337155263,-0.32804441036865556,-0.3191100981267903,-0.30962573976689073,-0.29959511658199506,-0.2890227325936559,-0.277913808487726,-0.26627427489977334,-0.25411076501752433,-0.2414306064660306,-0.22824181244058545,-0.21455307205267787,-0.20037373985535584,-0.18571382451618484,-0.17058397660844132,-0.1549954754941874,-0.13896021527635322,-0.12249068980083005,-0.1055999766937828,-0.08830172042385681,-0.07061011438362336,-0.052539881989420396,-0.03410625680365099,-0.01532496168855033,0.003787812994618704,0.023215432122074085,0.04294083945603038,0.06294658217680726,0.08321483626554099,0.10372743270010298,0.12446588442261725,0.14541141403297103,0.16654498215894936,0.18784731645011027,0.20929894113926767,0.23088020711247187,0.25257132242568575,0.2743523832039529,0.29620340485674895,0.31810435354140226,0.34003517780496256,0.36197584033369296,0.383906349738454,0.4058067923036394,0.42765736362700596,0.44943840007770736,0.47113041000009365,0.49271410459135695,0.5141704283818919,0.5354805892482811,0.556626087890098,0.5775887467032407,0.5983507379842573,0.6188946114020754,0.6392033206756979,0.6592602493987779,0.6790492359544921,0.6985545974668127,0.7177611527371056,0.7366542441179341,0.7552197582790315,0.7734441458235898,0.7913144397162967,0.8088182724879177,0.8259438921846481,0.8426801770339495,0.8590166488021135,0.8749434848223562,0.8904515286758207,0.9055322995114509,0.9201779999942762,0.9343815228752052,0.9481364561789599,0.9614370870102761,0.9742784039819355,0.9866560982715852,0.9985665633176165,1.0100068931676291,1.0209748794961582,1.0314690073114139,1.0414884493737524,1.0510330593514625,1.0601033637421995,1.0687005525910347,1.0768264690386047,1.0844835977352243,1.0916750521590826,1.0984045608787596,1.1046764528022803,1.1104956414567588,1.1158676083443824,1.120798385422029,1.1252945367532206,1.1293631393823664,1.1330117634823587,1.1362484518275398,1.1390816986448742,1.1415204278968198,1.1435739710499202,1.1452520443437701,1.1465647253838482,1.1475224285674197,1.148135878758231,1.1484160828656307,1.1483742989872547,1.1480220022637437,1.1473708463895276,1.1464326203600754,1.1452192006147668,1.1437424985314897,1.1420144030287196,1.1400467185255154,1.1378510989695378,1.1354389784169436,1.132821498412027,1.1300094327814123,1.1270131108206969,1.1238423396476906,1.1205063262567818,1.1170136002386863,1.1133719393404027,1.1095883014468573,1.1056687668134204,1.1016184928443193,1.097441681744245,1.093141560368733,1.0887203714157438,1.084179375114906,1.0795188605868828,1.0747381660631143,1.06983570717557,1.0648090125469896,1.059654765934221,1.0543688542005416,1.0489464204171188,1.0433819214189155,1.0376691891662109,1.031801495289396,1.0257716182216887,1.0195719123517861,1.0131943786561086,1.0066307362981233,0.9998724947101474,0.9929110257009466,0.9857376351602714,0.9783436339591427,0.9707204076721263,0.9628594847749659,0.9547526029977087,0.9463917735397951,0.9377693428794398,0.9288780519349658,0.9197110923605063,0.9102621597826284,0.9005255038079145,0.8904959746543373,0.8801690662813355,0.8695409559148288,0.8586085398839742,0.8473694657062332,0.8358221603762805,0.8239658548324336,0.8118006045915838,0.7993273065600812,0.7865477120436406,0.7734644359941054,0.7600809625448193,0.7464016468994155,0.7324317136510503,0.7181772516204736,0.7036452053118687,0.688843363095101,0.673780342231904,0.6584655708716154,0.6429092671493706,0.6271224155261819,0.6111167405160969,0.5949046779506455,0.5784993439350825,0.5619145016545302,0.5451645261910381,0.5282643675148284,0.5112295118146108,0.49407594133284993,0.47682009287227745,0.45947881513978084,0.4420693250930987,0.42460916345453503,0.40711614955418707,0.3896083356630049,0.37210396097337783,0.354621405381903,0.3371791432255611,0.3197956971187308,0.3024895920343387,0.28527930976799065,0.26818324391919224,0.25121965551876246,0.2344066294263032,0.2177620316161255,0.20130346746438477,0.18504824114435658,0.16901331623082094,0.15321527760843312,0.1376702947727706,0.122394086606475,0.10740188770657921,0.0927084163327414,0.07832784403971971,0.06427376705103238,0.050559179424375766,0.03719644805303496,0.024197289541235345,0.011572748985163972,-0.0006668193147474633,-0.01251176919072686,-0.023953177980132162,-0.034982859925673876,-0.04559337760124696,-0.055778051366753956,-0.06553096686066862,-0.07484698054428918,-0.08372172331665423,-0.09215160222393326,-0.10013380029175067,-0.1076662745133502,-0.1147477520307496,-0.12137772455006768,-0.12755644103602337,-0.13328489873420557,-0.13856483257308794,-0.14339870300091495,-0.1477896823155107,-0.15174163954775854,-0.15525912396196795,-0.15834734723858535,-0.1610121644067174,-0.1632600535957197,-0.16509809467666392,-0.16653394686583167,-0.1675758253635008,-0.1682324771021868,-0.1685131556791888,-0.1684275955487634,-0.16798598554952104,-0.16719894184270756,-0.16607748033690917,-0.16463298867440324,-0.16287719785387922,-0.16082215356357665,-0.15848018729803903,-0.1558638873306708,-0.15298606961311367,-0.14985974867113805,-0.1464981085652809,-0.14291447398286095,-0.1391222815262737,-0.13513505126061875,-0.13096635858174976,-0.12662980646376953,-0.12213899814282692,-0.11750751029181716,-0.11274886673825069,-0.10787651277514465,-0.10290379011231487,-0.09784391251291136,-0.0927099421574541,-0.08751476677499781,-0.08227107757839003,-0.07699134803789492,-0.07168781352474268,-0.06637245185343754,-0.061056964748925024,-0.055752760261985335,-0.05047093615349413,-0.045222264265478984,-0.040017175894207,-0.03486574817787064,-0.029777691508802467,-0.024762337977550397,-0.019828630853587353,-0.014985115104919497,-0.010239928956399497,-0.0056007964841506,-0.0010750212411676507,0.0033305190931128877,0.007609377048686918,0.011755538697845923,0.01576342599863083,0.019627898164454982,0.023344252077369856,0.026908221764257778,0.03031597695696006,0.033564120758984295,0.03664968644297956,0.03957013340462143,0.04232334229990861,0.04490760939413885,0.047321640152003186,0.049564542099313325,0.051635816987857186,0.053535352295762784,0.05526341209654001,0.056820627330664564,0.05820798551416867,0.05942681991921023,0.06047879826200686,0.06136591093384508,0.06209045881110836,0.06265504068041389,0.06306254031500713,0.0633161132385387,0.06341917321224033,0.06337537848132985,0.06318861781620916,0.0628629963836797,0.06240282148298576,0.06181258818101293,0.06109696488041855,0.06026077885385561,0.05930900177677556,0.05824673529056018,0.05707919662694283,0.05581170432383675,0.05444966406179663,0.05299855464940234,0.05146391418487373,0.0498513264202064,0.04816640735306327,0.04641479207056837,0.044602121868032196,0.04273403166449402,0.04081613773580017,0.03885402578475072,0.036853239366644,0.0348192686873319,0.03275753978967216,0.030673404143029936,0.02857212864924244,0.02645888607722091,0.024338745937125816,0.022216665803817426,0.02009748309805684,0.017985907332715392,0.01588651283004515,0.013803731914872872,0.011741848587406109,0.009704992678185989,0.007697134486588403,0.005722079903165922,0.0037834660150389138,0.0018847571924877349,2.924165387032003e-05,-0.0017799714950073662,-0.0035399547519051637,-0.005247964245314967,-0.006901441304443555,-0.008498013579536029,-0.010035495720886543,-0.011511889625667432,-0.01292538426245314,-0.014274355084020932,-0.015557363039675337,-0.016773153198967328,-0.017920652999261794,-0.018998970130147688,-0.02000739006818386,-0.02094537327593035,-0.02181255207962926,-0.022608727240271853,-0.02333386423311898,-0.023988089251030686,-0.024571684947208405,-0.02508508593315978,-0.02552887404786236,-0.025903773414228864,-0.026210645299063973,-0.026450482792751584,-0.0266244053249228,-0.026733653032329774,-0.026779580995089175,-0.026763653357363415,-0.02668743734841808,-0.026552597219831914,-0.02636088811444215,-0.02611414988238389,-0.02581430085932937,-0.025463331621752183,-0.025063298733734418,-0.024616318499502132,-0.02412456073551847,-0.023590242575585202,-0.02301562232200388,-0.02240299335542853,-0.021754678115604276,-0.02107302216473214,-0.020360388344730668,-0.01961915103918145,-0.01885169055024967,-0.01806038760036345,-0.01724761796791914,-0.0164157472657544,-0.015567125870599025,-0.014704084011175803,-0.013828927022081938,-0.012943930770036971,-0.012051337258536812,-0.011153350416406943,-0.010252132075202147,-0.00934979813985657,-0.008448414956447652,-0.00754999588040161,-0.006656498047937866,-0.005769819353026097,-0.004891795631613398,-0.004024198054371476,-0.0031687307287157317,-0.002327028510360457,-0.0015006550241979284,-0.0006911008938247868,0.00010021782141249151,0.0008719609834193232,0.0016228655283921757,0.0023517464182945588,0.003057497393563098,0.0037390915302149552,0.004395581604889554,0.0050261002717025514,0.005629860055117876,0.006206153163354142,0.006754351127134503,0.007273904268863887,0.007764341007574289,0.008225267005217342,0.008656364160103548,0.009057389453489342,0.009428173655496593,0.009768619896714181,0.010078702111978068,0.01035846336295488,0.010608014046264644,0.010827529993971033,0.011017250473342677,0.011177476092846889,0.011308566621377955,0.011410938727746178,0.011485063647461491,0.011531464783837209,0.011550715250415539,0.011543435361677373,0.011510290078945162,0.011451986418319682,0.011369270827409864,0.011262926537519882,0.011133770897850157,0.010982652698149242,0.010810449486122364,0.010618064885760128,0.010406425922598328,0.010176480361757397,0.009929194064438464,0.0096655483683728,0.009386537497533334,0.009093166006221412,0.008786446262439782,0.008467395975254456,0.008137035770634307,0.00779638682003856,0.007446468525799381,0.007088296267120153,0.006722879210280322,0.006351218186405494,0.0059743036399274654,0.005593113650623503,0.005208612031888063,0.004821746507653792,0.004433446970142661,0.004044623820392935,0.0036561663932739054,0.003268941468468369,0.002883791868673241,0.0025015351460418687,0.002122962357668059,0.0017488369306919004,0.0013798936173915928,0.0010168375404141002,0.0006603433280908321,0.0003110543395831492,-3.0418020593458517e-05,-0.0003634948993078143,-0.0006876305036394672,-0.001002312522796128,-0.0013070624642962962,-0.0016014359057555374,-0.001885022663772138,-0.002157446881557926,-0.0024183670371027473,-0.0026674758737962826,-0.002904500255558438,-0.003129200948649373,-0.003341372332442253,-0.003540842041545953,-0.0037274705417611673,-0.0039011506424416753,-0.00406180694791285,-0.004209395250671925,-0.004343901869159037,-0.004465342932944715,-0.00457376361822839,-0.004669237336583646,-0.0047518648799194756,-0.004821773524652868,-0.0048791160981067234,-0.004924070010158526,-0.004956836253169516,-0.004977638373221557,-0.004986721415679518,-0.004984350848081114,-0.004970811463333884,-0.00494640626617052,-0.004911455345779404,-0.004866294737487054,-0.004811275276323617,-0.004746761445251643,-0.004673130220782529,-0.004590769918644318,-0.004500079042099415,-0.00440146513544128,-0.0042953436451258105,-0.004182136790915905,-0.004062272449337094,-0.003936183051658257,-0.0038043044985246917,-0.003667075093281326,-0.003524934495932039,-0.003378322699587044,-0.0032276790311544235,-0.003073441177934417,-0.0029160442416762515,-0.002755919821557342,-0.0025934951274439316,-0.0024291921246908568,-0.002263426711636384,-0.0020966079308462077,-0.001929137215058949,-0.001761407668684106,-0.001593803385602546,-0.0014266988039195808,-0.0012604580982215636,-0.0010954346097890501,-0.00093197031512301,-0.0007703953330455999,-0.0006110274705437464,-0.0004541718074324284,-0.00030012031982525056,-0.0001491515423128096,-1.5302686646075092e-06,0.00014249270921198905,0.0002826808244018959,0.00041881192062464233,0.0005506784008860576,0.0006780873397076522,0.0008008605595701806,0.000918834672272926,0.0010318610859721298,0.0011398059787206434,0.0012425502393862507,0.0013399893768781534,0.0014320333986597867,0.0015186066595714257,0.0015996476820279212,0.0016751089486953547,0.0017449566687854426,0.0018091705191381237,0.0018677433612909727,0.0019206809357589037,0.0019680015347690732,0.002009735654714023,0.0020459256296009413,0.002076625246786536,0.0021018993462954116,0.0021218234050251403,0.0021364831071434293,0.002145973901982026,0.002150400550728307,0.00214987666320896,0.0021445242260508934,0.002134473123492537,0.0021198606521041982,0.002100831030659101,0.0020775349063773575,0.002050128858743448,0.002018774902073951,0.001983639987986346,0.001944895508891844,0.0019027168036054847,0.0018572826661352737,0.0018087748586790523,0.0017573776298232188,0.0017032772389014243,0.0016466614874341094,0.0015877192585313279,0.001526640065101819,0.0014636135454329398,0.0013988285449578108,0.0013324709306747737,0.001264719138307113,0.0011957371271308214,0.001125665862692472,0.0010546160129341405,0.000982664926734412,0.0009098596795857132,0.0008362265570352737,0.0007617871008612473,0.0006865809444251853,0.0006106951100793902,0.0005342986655733326,0.0004576813158168742,0.0003812945703065945,0.0003057942748877265,0.00023208343534429274,0.0001613543899855722,9.512950931892341e-05,3.5299713447563094e-05,-1.583979762292729e-05,-5.5557108684171983e-05,-8.065486733825698e-05,-8.744561097976744e-05,-7.173140237416313e-05,-2.8787963737466798e-05,4.66465645058516e-05,0.00016037817214458128,0.0003187588192729067,0.0005286836000579404,0.0007975833048565435,0.0011334124934439462,0.0015446332258812001,0.0020401946272366085,0.0026295084882272434,0.003322421126091538,0.004129181748865636,0.00506040758192968,0.006127046028422663,0.007340334145095321,0.008711755722571785,0.010252996264006903,0.011975896158934535,0.013892402349873125,0.016014518788151477,0.018354255972596555,0.02092357986033606,0.023734360433154644,0.026798320195740907,0.03012698287390347,0.03373162257154277,0.037623213634959594,0.04181238146207444,0.046309354482430364,0.051123917521558614,0.05626536675049556,0.061742466408043754,0.06756340746985412,0.07373576842465157,0.08026647830400863,0.08716178209806225,0.0944272086755345,0.1020675413124204,0.11008679091980472,0.11848817204751644,0.12727408172677507,0.13644608120167417,0.14600488058632527,0.1559503264717878,0.16628139249457324,0.17699617286656716,0.1880918788546882,0.19956483818752307,0.21141049735556577,0.2236234267615646,0.2361973286678582,0.24912504787847917,0.2623985850852281,0.27600911279888435,0.28994699377922645,0.30420180187059337,0.3187623451433225,0.33361669123556265,0.3487521947846692,0.36415552683264546,0.3798127060858933,0.3957091319058749,0.4118296189041503,0.4281584330126386,0.4446793288978445,0.4613755885861803,0.4782300611663885,0.4952252034344166,0.5123431213459001,0.5295656121416498,0.5468742070122105,0.564250214168634,0.5816747621880803,0.5991288435047012,0.616593357918458,0.6340491559970644,0.6514770822490924,0.668858017949436,0.6861729235017521,0.703402880226193,0.720529131464677,0.7375331229000978,0.75439654199023,0.7711013564216295,0.7876298514935268,0.8039646663465648,0.8200888289562013,0.8359857898156863,0.8516394542386957,0.8670342132169481,0.8821549727734356,0.8969871817572411,0.9115168580312766,0.9257306130096442,0.9396156745066909,0.9531599078651537,0.9663518353361026,0.9791806536886242,0.9916362500323782,1.0037092158412653,1.015390859171459,1.026673215071973,1.0375490541907302,1.0480118895837955,1.0580559817399722,1.0676763418373791,1.0768687332528966,1.0856296713494709,1.0939564215702189,1.1018469958720452,1.109300147535097,1.1163153643878052,1.122892860490502,1.1290335663236586,1.1347391175296522,1.1400118422596444,1.144854747179634,1.1492715021920208,1.1532664239311037,1.1568444580928332,1.1600111606608177,1.162772678092075,1.165135726527322,1.1671075700916986,1.168695998352734,1.169909303003079,1.1707562538360736,1.1712460740825648,1.1713884151775653,1.1711933310253444,1.1706712518313667,1.1698329575691593,1.1686895511496889,1.1672524313601735,1.165533265638447,1.1635439627480382,1.1612966454180442,1.1588036230106427,1.1560773642777489,1.1531304702668572,1.1499756474345195,1.1466256810242157,1.143093408763592,1.1393916949341525,1.1355334048645254,1.1315313798963753,1.1273984128699073,1.1231472241737295,1.118790438401591,1.114340561656215,1.1098099595381077,1.1052108358548434,1.100555212083911,1.0958549076197766,1.0911215208333507,1.0863664109695932,1.0816006809065077,1.076835160796313,1.0720803926071072,1.0673466155808906,1.062643752621369,1.057981397622554,1.0533688037467834,1.0488148726584352,1.0443281447172958,1.039916790133266,1.0355886010818638,1.0313509847778153,1.0272109575019008,1.0231751395741664,1.0192497512646097,1.0154406096305226,1.0117531262678037,1.0081923059617661,1.0047627462212485,1.0014686376781865,0.9983137653332458,0.9953015106266309,0.9924348543117848,0.9897163801083698,0.9871482791096909,0.9847323549185673,0.9824700294845933,0.9803623496147594,0.9784099941285064,0.9766132816274787,0.9749721788495288,0.9734863095758884,0.9721549640598767,0.9709771089450469,0.9699513976402981,0.9690761811191854,0.9683495191104413,0.9677691916465913,0.9673327109374817,0.9670373335355743,0.9668800727599406,0.9668577113460662,0.9669668142888096,0.9672037418461686,0.9675646626718836,N
2,-0.16653394686583167,-0.1675758253635008,-0.1682324771021868,-0.1685131556791888,-0.1684275955487634,-0.16798598554952104,-0.16719894184270756,-0.16607748033690917,-0.16463298867440324,-0.16287719785387922,-0.16082215356357665,-0.15848018729803903,-0.1558638873306708,-0.15298606961311367,-0.14985974867113805,-0.1464981085652809,-0.14291447398286095,-0.1391222815262737,-0.13513505126061875,-0.13096635858174976,-0.12662980646376953,-0.12213899814282692,-0.11750751029181716,-0.11274886673825069,-0.10787651277514465,-0.10290379011231487,-0.09784391251291136,-0.0927099421574541,-0.08751476677499781,-0.08227107757839003,-0.07699134803789492,-0.07168781352474268,-0.06637245185343754,-0.061056964748925024,-0.055752760261985335,-0.05047093615349413,-0.045222264265478984,-0.040017175894207,-0.03486574817787064,-0.029777691508802467,-0.024762337977550397,-0.019828630853587353,-0.014985115104919497,-0.010239928956399497,-0.0056007964841506,-0.0010750212411676507,0.0033305190931128877,0.007609377048686918,0.011755538697845923,0.01576342599863083,0.019627898164454982,0.023344252077369856,0.026908221764257778,0.03031597695696006,0.033564120758984295,0.03664968644297956,0.03957013340462143,0.04232334229990861,0.04490760939413885,0.047321640152003186,0.049564542099313325,0.051635816987857186,0.053535352295762784,0.05526341209654001,0.056820627330664564,0.05820798551416867,0.05942681991921023,0.06047879826200686,0.06136591093384508,0.06209045881110836,0.06265504068041389,0.06306254031500713,0.0633161132385387,0.06341917321224033,0.06337537848132985,0.06318861781620916,0.0628629963836797,0.06240282148298576,0.06181258818101293,0.06109696488041855,0.06026077885385561,0.05930900177677556,0.05824673529056018,0.05707919662694283,0.05581170432383675,0.05444966406179663,0.05299855464940234,0.05146391418487373,0.0498513264202064,0.04816640735306327,0.04641479207056837,0.044602121868032196,0.04273403166449402,0.04081613773580017,0.03885402578475072,0.036853239366644,0.0348192686873319,0.03275753978967216,0.030673404143029936,0.02857212864924244,0.02645888607722091,0.024338745937125816,0.022216665803817426,0.02009748309805684,0.017985907332715392,0.01588651283004515,0.013803731914872872,0.011741848587406109,0.009704992678185989,0.007697134486588403,0.005722079903165922,0.0037834660150389138,0.0018847571924877349,2.924165387032003e-05,-0.0017799714950073662,-0.0035399547519051637,-0.005247964245314967,-0.006901441304443555,-0.008498013579536029,-0.010035495720886543,-0.011511889625667432,-0.01292538426245314,-0.014274355084020932,-0.015557363039675337,-0.016773153198967328,-0.017920652999261794,-0.018998970130147688,-0.02000739006818386,-0.02094537327593035,-0.02181255207962926,-0.022608727240271853,-0.02333386423311898,-0.023988089251030686,-0.024571684947208405,-0.02508508593315978,-0.02552887404786236,-0.025903773414228864,-0.026210645299063973,-0.026450482792751584,-0.0266244053249228,-0.026733653032329774,-0.026779580995089175,-0.026763653357363415,-0.02668743734841808,-0.026552597219831914,-0.02636088811444215,-0.02611414988238389,-0.02581430085932937,-0.025463331621752183,-0.025063298733734418,-0.024616318499502132,-0.02412456073551847,-0.023590242575585202,-0.02301562232200388,-0.02240299335542853,-0.021754678115604276,-0.02107302216473214,-0.020360388344730668,-0.01961915103918145,-0.01885169055024967,-0.01806038760036345,-0.01724761796791914,-0.0164157472657544,-0.015567125870599025,-0.014704084011175803,-0.013828927022081938,-0.012943930770036971,-0.012051337258536812,-0.011153350416406943,-0.010252132075202147,-0.00934979813985657,-0.008448414956447652,-0.00754999588040161,-0.006656498047937866,-0.005769819353026097,-0.004891795631613398,-0.004024198054371476,-0.0031687307287157317,-0.002327028510360457,-0.0015006550241979284,-0.0006911008938247868,0.00010021782141249151,0.0008719609834193232,0.0016228655283921757,0.0023517464182945588,0.003057497393563098,0.0037390915302149552,0.004395581604889554,0.0050261002717025514,0.005629860055117876,0.006206153163354142,0.006754351127134503,0.007273904268863887,0.007764341007574289,0.008225267005217342,0.008656364160103548,0.009057389453489342,0.009428173655496593,0.009768619896714181,0.010078702111978068,0.01035846336295488,0.010608014046264644,0.010827529993971033,0.011017250473342677,0.011177476092846889,0.011308566621377955,0.011410938727746178,0.011485063647461491,0.011531464783837209,0.011550715250415539,0.011543435361677373,0.011510290078945162,0.011451986418319682,0.011369270827409864,0.011262926537519882,0.011133770897850157,0.010982652698149242,0.010810449486122364,0.010618064885760128,0.010406425922598328,0.010176480361757397,0.009929194064438464,0.0096655483683728,0.009386537497533334,0.009093166006221412,0.008786446262439782,0.008467395975254456,0.008137035770634307,0.00779638682003856,0.007446468525799381,0.007088296267120153,0.006722879210280322,0.006351218186405494,0.0059743036399274654,0.005593113650623503,0.005208612031888063,0.004821746507653792,0.004433446970142661,0.004044623820392935,0.0036561663932739054,0.003268941468468369,0.002883791868673241,0.0025015351460418687,0.002122962357668059,0.0017488369306919004,0.0013798936173915928,0.0010168375404141002,0.0006603433280908321,0.0003110543395831492,-3.0418020593458517e-05,-0.0003634948993078143,-0.0006876305036394672,-0.001002312522796128,-0.0013070624642962962,-0.0016014359057555374,-0.001885022663772138,-0.002157446881557926,-0.0024183670371027473,-0.0026674758737962826,-0.002904500255558438,-0.003129200948649373,-0.003341372332442253,-0.003540842041545953,-0.0037274705417611673,-0.0039011506424416753,-0.00406180694791285,-0.004209395250671925,-0.004343901869159037,-0.004465342932944715,-0.00457376361822839,-0.004669237336583646,-0.0047518648799194756,-0.004821773524652868,-0.0048791160981067234,-0.004924070010158526,-0.004956836253169516,-0.004977638373221557,-0.004986721415679518,-0.004984350848081114,-0.004970811463333884,-0.00494640626617052,-0.004911455345779404,-0.004866294737487054,-0.004811275276323617,-0.004746761445251643,-0.004673130220782529,-0.004590769918644318,-0.004500079042099415,-0.00440146513544128,-0.0042953436451258105,-0.004182136790915905,-0.004062272449337094,-0.003936183051658257,-0.0038043044985246917,-0.003667075093281326,-0.003524934495932039,-0.003378322699587044,-0.0032276790311544235,-0.003073441177934417,-0.0029160442416762515,-0.002755919821557342,-0.0025934951274439316,-0.0024291921246908568,-0.002263426711636384,-0.0020966079308462077,-0.001929137215058949,-0.001761407668684106,-0.001593803385602546,-0.0014266988039195808,-0.0012604580982215636,-0.0010954346097890501,-0.00093197031512301,-0.0007703953330455999,-0.0006110274705437464,-0.0004541718074324284,-0.00030012031982525056,-0.0001491515423128096,-1.5302686646075092e-06,0.00014249270921198905,0.0002826808244018959,0.00041881192062464233,0.0005506784008860576,0.0006780873397076522,0.0008008605595701806,0.000918834672272926,0.0010318610859721298,0.0011398059787206434,0.0012425502393862507,0.0013399893768781534,0.0014320333986597867,0.0015186066595714257,0.0015996476820279212,0.0016751089486953547,0.0017449566687854426,0.0018091705191381237,0.0018677433612909727,0.0019206809357589037,0.0019680015347690732,0.002009735654714023,0.0020459256296009413,0.002076625246786536,0.0021018993462954116,0.0021218234050251403,0.0021364831071434293,0.002145973901982026,0.002150400550728307,0.00214987666320896,0.0021445242260508934,0.002134473123492537,0.0021198606521041982,0.002100831030659101,0.0020775349063773575,0.002050128858743448,0.002018774902073951,0.001983639987986346,0.001944895508891844,0.0019027168036054847,0.0018572826661352737,0.0018087748586790523,0.0017573776298232188,0.0017032772389014243,0.0016466614874341094,0.0015877192585313279,0.001526640065101819,0.0014636135454329398,0.0013988285449578108,0.0013324709306747737,0.001264719138307113,0.0011957371271308214,0.001125665862692472,0.0010546160129341405,0.000982664926734412,0.0009098596795857132,0.0008362265570352737,0.0007617871008612473,0.0006865809444251853,0.0006106951100793902,0.0005342986655733326,0.0004576813158168742,0.0003812945703065945,0.0003057942748877265,0.00023208343534429274,0.0001613543899855722,9.512950931892341e-05,3.5299713447563094e-05,-1.583979762292729e-05,-5.5557108684171983e-05,-8.065486733825698e-05,-8.744561097976744e-05,-7.173140237416313e-05,-2.8787963737466798e-05,4.66465645058516e-05,0.00016037817214458128,0.0003187588192729067,0.0005286836000579404,0.0007975833048565435,0.0011334124934439462,0.0015446332258812001,0.0020401946272366085,0.0026295084882272434,0.003322421126091538,0.004129181748865636,0.00506040758192968,0.006127046028422663,0.007340334145095321,0.008711755722571785,0.010252996264006903,0.011975896158934535,0.013892402349873125,0.016014518788151477,0.018354255972596555,0.02092357986033606,0.023734360433154644,0.026798320195740907,0.03012698287390347,0.03373162257154277,0.037623213634959594,0.04181238146207444,0.046309354482430364,0.051123917521558614,0.05626536675049556,0.061742466408043754,0.06756340746985412,0.07373576842465157,0.08026647830400863,0.08716178209806225,0.0944272086755345,0.1020675413124204,0.11008679091980472,0.11848817204751644,0.12727408172677507,0.13644608120167417,0.14600488058632527,0.1559503264717878,0.16628139249457324,0.17699617286656716,0.1880918788546882,0.19956483818752307,0.21141049735556577,0.2236234267615646,0.2361973286678582,0.24912504787847917,0.2623985850852281,0.27600911279888435,0.28994699377922645,0.30420180187059337,0.3187623451433225,0.33361669123556265,0.3487521947846692,0.36415552683264546,0.3798127060858933,0.3957091319058749,0.4118296189041503,0.4281584330126386,0.4446793288978445,0.4613755885861803,0.4782300611663885,0.4952252034344166,0.5123431213459001,0.5295656121416498,0.5468742070122105,0.564250214168634,0.5816747621880803,0.5991288435047012,0.616593357918458,0.6340491559970644,0.6514770822490924,0.668858017949436,0.6861729235017521,0.703402880226193,0.720529131464677,0.7375331229000978,0.75439654199023,0.7711013564216295,0.7876298514935268,0.8039646663465648,0.8200888289562013,0.8359857898156863,0.8516394542386957,0.8670342132169481,0.8821549727734356,0.8969871817572411,0.9115168580312766,0.9257306130096442,0.9396156745066909,0.9531599078651537,0.9663518353361026,0.9791806536886242,0.9916362500323782,1.0037092158412653,1.015390859171459,1.026673215071973,1.0375490541907302,1.0480118895837955,1.0580559817399722,1.0676763418373791,1.0768687332528966,1.0856296713494709,1.0939564215702189,1.1018469958720452,1.109300147535097,1.1163153643878052,1.122892860490502,1.1290335663236586,1.1347391175296522,1.1400118422596444,1.144854747179634,1.1492715021920208,1.1532664239311037,1.1568444580928332,1.1600111606608177,1.162772678092075,1.165135726527322,1.1671075700916986,1.168695998352734,1.169909303003079,1.1707562538360736,1.1712460740825648,1.1713884151775653,1.1711933310253444,1.1706712518313667,1.1698329575691593,1.1686895511496889,1.1672524313601735,1.165533265638447,1.1635439627480382,1.1612966454180442,1.1588036230106427,1.1560773642777489,1.1531304702668572,1.1499756474345195,1.1466256810242157,1.143093408763592,1.1393916949341525,1.1355334048645254,1.1315313798963753,1.1273984128699073,1.1231472241737295,1.118790438401591,1.114340561656215,1.1098099595381077,1.1052108358548434,1.100555212083911,1.0958549076197766,1.0911215208333507,1.0863664109695932,1.0816006809065077,1.076835160796313,1.0720803926071072,1.0673466155808906,1.062643752621369,1.057981397622554,1.0533688037467834,1.0488148726584352,1.0443281447172958,1.039916790133266,1.0355886010818638,1.0313509847778153,1.0272109575019008,1.0231751395741664,1.0192497512646097,1.0154406096305226,1.0117531262678037,1.0081923059617661,1.0047627462212485,1.0014686376781865,0.9983137653332458,0.9953015106266309,0.9924348543117848,0.9897163801083698,0.9871482791096909,0.9847323549185673,0.9824700294845933,0.9803623496147594,0.9784099941285064,0.9766132816274787,0.9749721788495288,0.9734863095758884,0.9721549640598767,0.9709771089450469,0.9699513976402981,0.9690761811191854,0.9683495191104413,0.9677691916465913,0.9673327109374817,0.9670373335355743,0.9668800727599406,0.9668577113460662,0.9669668142888096,0.9672037418461686,0.9675646626718836,0.9680455670453411,0.9686422801677438,0.9693504754940655,0.9701656880709321,0.9710833278512322,0.9720986929569794,0.9732069828627129,0.974403311472536,0.9756827200647408,0.9770401900788596,0.9784706557209178,0.9799690163636147,0.981530148719156,0.9831489187634844,0.9848201933916855,0.9865388517854164,0.9882997964742911,0.9900979640742454,0.9919283356870224,0.993785946946035,0.9956658976949934,0.9975633612868103,0.9994735934914344,1.0013919410023975,1.0033138495329845,1.0052348714940578,1.007150673246685,1.0090570419238218,1.0109498918163868,1.0128252703201477,1.0146793634408933,1.0165085008564068,1.0183091605347687,1.0200779729095177,1.0218117246131617,1.0235073617714796,1.025161992861969,1.0267728911406857,1.0283374966425762,1.029853417761229,1.0313184324147586,1.0327304888053008,1.0340877057803197,1.0353883728046138,1.0366309495525632,1.0378140651307752,1.0389365169418594,1.0399972692006034,1.0409954511143285,1.0419303547396639,1.0428014325284047,1.0436082945755032,1.0443507055825954,1.0450285815507738,1.0456419862165889,1.0461911272454942,1.0466763521971554,1.0470981442771918,1.0474571178900518,1.047754014007802,1.0479896953696757,1.0481651415272315,1.0482814437499683,1.0483397998061859,1.0483415086338084,1.0482879649157713,1.0481806535744294,1.0480211441992828,1.0478110854221094,1.0475521992533714,1.047246275393517,1.0468951655325218,1.0465007776507116,1.0460650703335925,1.0455900471130712,1.0450777508470892,1.0445302581493168,1.04394967388016,1.0433381257099164,1.0426977587644977,1.0420307303636889,1.0413392048614758,1.0406253485975012,1.0398913249682458,1.0391392896260505,1.038371385813616,1.0375897398411211,1.0367964567126087,1.0359936159077943,1.0351832673249548,1.034367427390056,1.0335480753367736,1.0327271496615686,1.0319065447574853,1.0310881077298475,1.0302736353965478,1.0294648714751415,1.0286635039584853,1.0278711626801937,1.027089417070728,1.0263197741044878,1.025563676437837,1.0248225007375706,1.0240975561989127,1.0233900832517324,1.0227012524532728,1.0220321635653133,1.021383844813317,1.020757252324772,1.0201532697436029,1.0195727080171986,1.0190163053523127,1.018484727335793,1.017978567215837,1.0174983463392058,1.0170445147395986,1.016617451872161,1.0162174674888964,1.0158448026495612,1.0154996308624502,1.015182059349329,1.0148921304286256,1.0146298230108746,1.0143950542003004,1.0141876809963362,1.014007502088807,1.013854259740447,1.0137276417503729,1.013627283492119,1.0135527700198181,1.0135036382361242,1.013479379115484,1.0134794399764064,1.0135032267964135,1.0135501065634125,1.01361940965731,1.0137104322557666,1.0138224387580903,1.0139546642213648,1.014106316803035,1.0142765802042886,1.014464616108717,1.0146695666108856,1.0148905566295914,1.0151266963007488,1.0153770833450169,1.0156408054054527,1.015916942350662,1.0162045685391072,1.0165027550404229,1.0168105718097926,1.0171270898116374,1.0174513830890743,1.0177825307758146,1.0181196190473745,1.0184617430086929,1.0188080085154583,1.019157533926666,1.0195094517861436,1.0198629104309933,1.020217075525118,1.0205711315162087,1.0209242830147855,1.021275756094094,1.02162479950986,1.0219706858391218,1.0223127125375464,1.022650202914846,1.0229825070281,1.0233090024929765,1.0236290952130316,1.0239422200274475,1.0242478412777503,1.024545453294207,1.0248345808027695,1.025114779253588,1.0253856350722772,1.025646765835251,1.0258978203705922,1.0261384787860501,1.0263684524258838,1.0265874837583835,1.0267953461960182,1.0269918438502612,1.027176811223243,1.0273501128384674,1.0275116428129134,1.027661324372916,1.0277991093162953,1.0279249774232564,1.0280389358186406,1.0281410182881483,1.0282312845512036,1.0283098194931533,1.0283767323595236,1.0284321559150802,1.0284762455704397,1.0285091784789964,1.0285311526069207,1.0285423857789844,1.0285431147029527,1.0285335939752673,1.0285140950707123,1.0284849053187297,1.0284463268690185,1.0283986756490069,1.028342280315745,1.0282774812047142,1.0282046292780007,1.0281240850742133,1.0280362176624693,1.0279414036027086,1.0278400259145213,1.0277324730566046,1.0276191379188855,1.0275004168292703,1.0273767085769012,1.0272484134537165,1.0271159323160253,1.0269796656677215,1.0268400127666737,1.0266973707557383,1.0265521338197556,1.026404692369791,1.0262554322557935,1.0261047340087532,1.0259529721133391,1.0258005143119175,1.0256477209407506,1.0254949442990824,1.0253425280517312,1.0251908066657192,1.025040104881376,1.0248907372182632,1.0247430075161839,1.024597208511454,1.02445362144853,1.024312515727005,1.0241741485839035,1.024038764811127,1.0239065965078262,1.023777862867404,1.023652769998791,1.0235315107815548,1.0234142647543416,1.0233011980360913,1.0231924632794038,1.0230881996553733,1.0229885328691573,1.0228935751804664,1.0228034252825766,1.0227181676954211,1.0226378712694328,1.0225625865702301,1.0224923420237448,1.0224271385560282,1.0223669423858606,1.0223116758614301,1.0222612064332868,1.022215333748182,1.022173774757933,1.0221361469382555,1.0221019498844268,1.0220705454238037,1.0220411362757047,1.0220127434649526,1.021984182849941,1.0219540409965526,1.0219206505101999,1.0218820650834963,1.0218360346427555,1.0217799808388308,1.021710973003026,1.0216257048163515,1.021520472060143,1.0213911516971825,1.0212331824128882,1.0210415468383858,1.0208107557576585,1.0205348344737761,1.0202073113924082,1.0198212089639425,1.019369037202071,1.0188427898850838,1.0182339434391805,1.017533458572595,1.016731784797012,1.0158188678780193,1.0147841601618246,1.0136166337780976,1.0123047967682475,1.0108367121004076,1.0092000194490034,1.0073819596638136,1.0053694018970638,1.0031488732794231,1.0007065909639612,0.9980284964034312,0.9951002917721621,0.9919074783831932,0.9884353968922588,0.9846692691194415,0.9805942413539092,0.9761954289481442,0.9714579619574345,0.9663670316255693,0.9609079375607661,0.9550661354013799,0.9488272847302262,0.9421772970395235,0.9351023835882983,0.9275891029549157,0.9196244080535683,0.9111956926009688,0.9022908378938865,0.8928982620944987,0.8830069745995743,0.872606636681363,0.8616876277483163,0.8502411157057619,0.8382591298508606,0.8257346348812753,0.8126616047348403,0.799035095108346,0.7848513136275184,0.7701076867575738,0.7548029226545703,0.7389370692623158,0.7225115670580431,0.7055292959425916,0.6879946158576518,0.6699134007938827,0.6512930659296194,0.6321425877105997,0.6124725167468563,0.5922949834638049,0.5716236965007919,0.5504739337313077,0.5288625250039517,0.5068078243953692,0.48432966940409033,0.46144932598425453,0.4381894203053232,0.41457385914414974,0.39062774091129776,0.3663772590880153,0.34184959965821254,0.31707283406150083,0.29207580911483105,0.2668880351385129,0.24153957335043497,0.21606092358646223,0.19048291336873968,0.16483658913026783,0.13915311022595572,0.11346364638137779,0.08779927922811409,0.0621909083754567,0.036669162309874256,0.011264314479200526,-0.013993795048922631,-0.039075832166644904,-0.06395303552623541,-0.08859727746781706,-0.11298111892491466,-0.13707785834087852,-0.1608615747845237,-0.18430716536023875,-0.20739037693158427,-0.23008783233853322,-0.2523770514218349,-0.27423646705417176,-0.2956454362847503,-0.31658424685258885,-0.3370341194440281,-0.3569772059400676,-0.3763965837930597,-0.3952762468183497,-0.41360109281724666,-0.4313569083335804,-0.44853035073823877,-0.46510892795314873,-0.4810809762277385,-0.49643563625942544,-0.5111628278391794,-0.5252532233040207,-0.5386982201619922,-0.5514899131282153,-0.5636210656997495,-0.5750850814951739,-0.5858759756745814,-0.5959883466474089,-0.6054173481718307,-0.614158662027917,-0.6222084715133444,-0.6295634358981487,-0.63622066587518,-0.6421777001221732,-0.6474324831732571,-0.6519833447207412,-0.6558289803830702,-0.6589684340366783,-0.6614010819199313,-0.6631266187432122,-0.6641450459940649,-0.6644566625687623,-0.6640620578098558,-0.6629621069828632,-0.6611579691839439,N
3,0.018354255972596555,0.02092357986033606,0.023734360433154644,0.026798320195740907,0.03012698287390347,0.03373162257154277,0.037623213634959594,0.04181238146207444,0.046309354482430364,0.051123917521558614,0.05626536675049556,0.061742466408043754,0.06756340746985412,0.07373576842465157,0.08026647830400863,0.08716178209806225,0.0944272086755345,0.1020675413124204,0.11008679091980472,0.11848817204751644,0.12727408172677507,0.13644608120167417,0.14600488058632527,0.1559503264717878,0.16628139249457324,0.17699617286656716,0.1880918788546882,0.19956483818752307,0.21141049735556577,0.2236234267615646,0.2361973286678582,0.24912504787847917,0.2623985850852281,0.27600911279888435,0.28994699377922645,0.30420180187059337,0.3187623451433225,0.33361669123556265,0.3487521947846692,0.36415552683264546,0.3798127060858933,0.3957091319058749,0.4118296189041503,0.4281584330126386,0.4446793288978445,0.4613755885861803,0.4782300611663885,0.4952252034344166,0.5123431213459001,0.5295656121416498,0.5468742070122105,0.564250214168634,0.5816747621880803,0.5991288435047012,0.616593357918458,0.6340491559970644,0.6514770822490924,0.668858017949436,0.6861729235017521,0.703402880226193,0.720529131464677,0.7375331229000978,0.75439654199023,0.7711013564216295,0.7876298514935268,0.8039646663465648,0.8200888289562013,0.8359857898156863,0.8516394542386957,0.8670342132169481,0.8821549727734356,0.8969871817572411,0.9115168580312766,0.9257306130096442,0.9396156745066909,0.9531599078651537,0.9663518353361026,0.9791806536886242,0.9916362500323782,1.0037092158412653,1.015390859171459,1.026673215071973,1.0375490541907302,1.0480118895837955,1.0580559817399722,1.0676763418373791,1.0768687332528966,1.0856296713494709,1.0939564215702189,1.1018469958720452,1.109300147535097,1.1163153643878052,1.122892860490502,1.1290335663236586,1.1347391175296522,1.1400118422596444,1.144854747179634,1.1492715021920208,1.1532664239311037,1.1568444580928332,1.1600111606608177,1.162772678092075,1.165135726527322,1.1671075700916986,1.168695998352734,1.169909303003079,1.1707562538360736,1.1712460740825648,1.1713884151775653,1.1711933310253444,1.1706712518313667,1.1698329575691593,1.1686895511496889,1.1672524313601735,1.165533265638447,1.1635439627480382,1.1612966454180442,1.1588036230106427,1.1560773642777489,1.1531304702668572,1.1499756474345195,1.1466256810242157,1.143093408763592,1.1393916949341525,1.1355334048645254,1.1315313798963753,1.1273984128699073,1.1231472241737295,1.118790438401591,1.114340561656215,1.1098099595381077,1.1052108358548434,1.100555212083911,1.0958549076197766,1.0911215208333507,1.0863664109695932,1.0816006809065077,1.076835160796313,1.0720803926071072,1.0673466155808906,1.062643752621369,1.057981397622554,1.0533688037467834,1.0488148726584352,1.0443281447172958,1.039916790133266,1.0355886010818638,1.0313509847778153,1.0272109575019008,1.0231751395741664,1.0192497512646097,1.0154406096305226,1.0117531262678037,1.0081923059617661,1.0047627462212485,1.0014686376781865,0.9983137653332458,0.9953015106266309,0.9924348543117848,0.9897163801083698,0.9871482791096909,0.9847323549185673,0.9824700294845933,0.9803623496147594,0.9784099941285064,0.9766132816274787,0.9749721788495288,0.9734863095758884,0.9721549640598767,0.9709771089450469,0.9699513976402981,0.9690761811191854,0.9683495191104413,0.9677691916465913,0.9673327109374817,0.9670373335355743,0.9668800727599406,0.9668577113460662,0.9669668142888096,0.9672037418461686,0.9675646626718836,0.9680455670453411,0.9686422801677438,0.9693504754940655,0.9701656880709321,0.9710833278512322,0.9720986929569794,0.9732069828627129,0.974403311472536,0.9756827200647408,0.9770401900788596,0.9784706557209178,0.9799690163636147,0.981530148719156,0.9831489187634844,0.9848201933916855,0.9865388517854164,0.9882997964742911,0.9900979640742454,0.9919283356870224,0.993785946946035,0.9956658976949934,0.9975633612868103,0.9994735934914344,1.0013919410023975,1.0033138495329845,1.0052348714940578,1.007150673246685,1.0090570419238218,1.0109498918163868,1.0128252703201477,1.0146793634408933,1.0165085008564068,1.0183091605347687,1.0200779729095177,1.0218117246131617,1.0235073617714796,1.025161992861969,1.0267728911406857,1.0283374966425762,1.029853417761229,1.0313184324147586,1.0327304888053008,1.0340877057803197,1.0353883728046138,1.0366309495525632,1.0378140651307752,1.0389365169418594,1.0399972692006034,1.0409954511143285,1.0419303547396639,1.0428014325284047,1.0436082945755032,1.0443507055825954,1.0450285815507738,1.0456419862165889,1.0461911272454942,1.0466763521971554,1.0470981442771918,1.0474571178900518,1.047754014007802,1.0479896953696757,1.0481651415272315,1.0482814437499683,1.0483397998061859,1.0483415086338084,1.0482879649157713,1.0481806535744294,1.0480211441992828,1.0478110854221094,1.0475521992533714,1.047246275393517,1.0468951655325218,1.0465007776507116,1.0460650703335925,1.0455900471130712,1.0450777508470892,1.0445302581493168,1.04394967388016,1.0433381257099164,1.0426977587644977,1.0420307303636889,1.0413392048614758,1.0406253485975012,1.0398913249682458,1.0391392896260505,1.038371385813616,1.0375897398411211,1.0367964567126087,1.0359936159077943,1.0351832673249548,1.034367427390056,1.0335480753367736,1.0327271496615686,1.0319065447574853,1.0310881077298475,1.0302736353965478,1.0294648714751415,1.0286635039584853,1.0278711626801937,1.027089417070728,1.0263197741044878,1.025563676437837,1.0248225007375706,1.0240975561989127,1.0233900832517324,1.0227012524532728,1.0220321635653133,1.021383844813317,1.020757252324772,1.0201532697436029,1.0195727080171986,1.0190163053523127,1.018484727335793,1.017978567215837,1.0174983463392058,1.0170445147395986,1.016617451872161,1.0162174674888964,1.0158448026495612,1.0154996308624502,1.015182059349329,1.0148921304286256,1.0146298230108746,1.0143950542003004,1.0141876809963362,1.014007502088807,1.013854259740447,1.0137276417503729,1.013627283492119,1.0135527700198181,1.0135036382361242,1.013479379115484,1.0134794399764064,1.0135032267964135,1.0135501065634125,1.01361940965731,1.0137104322557666,1.0138224387580903,1.0139546642213648,1.014106316803035,1.0142765802042886,1.014464616108717,1.0146695666108856,1.0148905566295914,1.0151266963007488,1.0153770833450169,1.0156408054054527,1.015916942350662,1.0162045685391072,1.0165027550404229,1.0168105718097926,1.0171270898116374,1.0174513830890743,1.0177825307758146,1.0181196190473745,1.0184617430086929,1.0188080085154583,1.019157533926666,1.0195094517861436,1.0198629104309933,1.020217075525118,1.0205711315162087,1.0209242830147855,1.021275756094094,1.02162479950986,1.0219706858391218,1.0223127125375464,1.022650202914846,1.0229825070281,1.0233090024929765,1.0236290952130316,1.0239422200274475,1.0242478412777503,1.024545453294207,1.0248345808027695,1.025114779253588,1.0253856350722772,1.025646765835251,1.0258978203705922,1.0261384787860501,1.0263684524258838,1.0265874837583835,1.0267953461960182,1.0269918438502612,1.027176811223243,1.0273501128384674,1.0275116428129134,1.027661324372916,1.0277991093162953,1.0279249774232564,1.0280389358186406,1.0281410182881483,1.0282312845512036,1.0283098194931533,1.0283767323595236,1.0284321559150802,1.0284762455704397,1.0285091784789964,1.0285311526069207,1.0285423857789844,1.0285431147029527,1.0285335939752673,1.0285140950707123,1.0284849053187297,1.0284463268690185,1.0283986756490069,1.028342280315745,1.0282774812047142,1.0282046292780007,1.0281240850742133,1.0280362176624693,1.0279414036027086,1.0278400259145213,1.0277324730566046,1.0276191379188855,1.0275004168292703,1.0273767085769012,1.0272484134537165,1.0271159323160253,1.0269796656677215,1.0268400127666737,1.0266973707557383,1.0265521338197556,1.026404692369791,1.0262554322557935,1.0261047340087532,1.0259529721133391,1.0258005143119175,1.0256477209407506,1.0254949442990824,1.0253425280517312,1.0251908066657192,1.025040104881376,1.0248907372182632,1.0247430075161839,1.024597208511454,1.02445362144853,1.024312515727005,1.0241741485839035,1.024038764811127,1.0239065965078262,1.023777862867404,1.023652769998791,1.0235315107815548,1.0234142647543416,1.0233011980360913,1.0231924632794038,1.0230881996553733,1.0229885328691573,1.0228935751804664,1.0228034252825766,1.0227181676954211,1.0226378712694328,1.0225625865702301,1.0224923420237448,1.0224271385560282,1.0223669423858606,1.0223116758614301,1.0222612064332868,1.022215333748182,1.022173774757933,1.0221361469382555,1.0221019498844268,1.0220705454238037,1.0220411362757047,1.0220127434649526,1.021984182849941,1.0219540409965526,1.0219206505101999,1.0218820650834963,1.0218360346427555,1.0217799808388308,1.021710973003026,1.0216257048163515,1.021520472060143,1.0213911516971825,1.0212331824128882,1.0210415468383858,1.0208107557576585,1.0205348344737761,1.0202073113924082,1.0198212089639425,1.019369037202071,1.0188427898850838,1.0182339434391805,1.017533458572595,1.016731784797012,1.0158188678780193,1.0147841601618246,1.0136166337780976,1.0123047967682475,1.0108367121004076,1.0092000194490034,1.0073819596638136,1.0053694018970638,1.0031488732794231,1.0007065909639612,0.9980284964034312,0.9951002917721621,0.9919074783831932,0.9884353968922588,0.9846692691194415,0.9805942413539092,0.9761954289481442,0.9714579619574345,0.9663670316255693,0.9609079375607661,0.9550661354013799,0.9488272847302262,0.9421772970395235,0.9351023835882983,0.9275891029549157,0.9196244080535683,0.9111956926009688,0.9022908378938865,0.8928982620944987,0.8830069745995743,0.872606636681363,0.8616876277483163,0.8502411157057619,0.8382591298508606,0.8257346348812753,0.8126616047348403,0.799035095108346,0.7848513136275184,0.7701076867575738,0.7548029226545703,0.7389370692623158,0.7225115670580431,0.7055292959425916,0.6879946158576518,0.6699134007938827,0.6512930659296194,0.6321425877105997,0.6124725167468563,0.5922949834638049,0.5716236965007919,0.5504739337313077,0.5288625250039517,0.5068078243953692,0.48432966940409033,0.46144932598425453,0.4381894203053232,0.41457385914414974,0.39062774091129776,0.3663772590880153,0.34184959965821254,0.31707283406150083,0.29207580911483105,0.2668880351385129,0.24153957335043497,0.21606092358646223,0.19048291336873968,0.16483658913026783,0.13915311022595572,0.11346364638137779,0.08779927922811409,0.0621909083754567,0.036669162309874256,0.011264314479200526,-0.013993795048922631,-0.039075832166644904,-0.06395303552623541,-0.08859727746781706,-0.11298111892491466,-0.13707785834087852,-0.1608615747845237,-0.18430716536023875,-0.20739037693158427,-0.23008783233853322,-0.2523770514218349,-0.27423646705417176,-0.2956454362847503,-0.31658424685258885,-0.3370341194440281,-0.3569772059400676,-0.3763965837930597,-0.3952762468183497,-0.41360109281724666,-0.4313569083335804,-0.44853035073823877,-0.46510892795314873,-0.4810809762277385,-0.49643563625942544,-0.5111628278391794,-0.5252532233040207,-0.5386982201619922,-0.5514899131282153,-0.5636210656997495,-0.5750850814951739,-0.5858759756745814,-0.5959883466474089,-0.6054173481718307,-0.614158662027917,-0.6222084715133444,-0.6295634358981487,-0.63622066587518,-0.6421777001221732,-0.6474324831732571,-0.6519833447207412,-0.6558289803830702,-0.6589684340366783,-0.6614010819199313,-0.6631266187432122,-0.6641450459940649,-0.6644566625687623,-0.6640620578098558,-0.6629621069828632,-0.6611579691839439,-0.6586510876338812,-0.6554431922816278,-0.6515363046128052,-0.6469327445345957,-0.641635139188156,-0.6356464335227677,-0.628969902452177,-0.621609164402717,-0.6135681960546527,-0.6048513480725023,-0.5954633616166739,-0.5854093854274266,-0.5746949932727191,-0.5633262015537855,-0.5513094868660934,-0.5386518033185442,-0.5253605994202187,-0.5114438343514974,-0.49690999344487646,-0.4817681027101098,-0.46602774224832927,-0.4496990584104042,-0.4327927745658993,-0.4153202003604693,-0.3972932393512985,-0.3787243949221735,-0.359626774391866,-0.34001409124164433,-0.3199006653998469,-0.29930142153347644,-0.27823188530864834,-0.25670817759339976,-0.23474700658778153,-0.2123656578772724,-0.18958198241633323,-0.16641438245932022,-0.14288179546596785,-0.11900367601820677,-0.0947999757941746,-0.07029112165388601,-0.0454979918991349,-0.020441890777791214,0.00485547869028224,0.030372043481943552,0.05608539084438479,0.08197279997847842,0.10801127503180424,0.13417757929696444,0.16044827050699778,0.18679973711644665,0.21320823545390494,0.2396499276296717,0.26610092008044445,0.29253730263179584,0.3189351879584756,0.345270751322352,0.37152027046803554,0.39766016555689826,0.42366703902129926,0.4495177152223248,0.4751892797962431,0.5006591185771306,0.5259049559857322,0.5509048927775512,0.5756374430464085,0.6000815703832362,0.624216723093666,0.6480228683820136,0.6714805254135198,0.6945707971711804,0.7172754010281427,0.739576697961455,0.7614577203379082,0.7829021982077761,0.8038945840474364,0.824420075897106,0.8444646388452407,0.8640150248165087,0.8830587906256296,0.9015843142647683,0.9195808093975512,0.9370383380381352,0.9539478213990723,0.9703010488969742,0.9860906853101726,1.0013102760876718,1.0159542508137027,1.030017924837084,1.0434974990793664,1.0563900580403842,1.0686935660243326,1.0804068616138351,1.0915296504236485,1.1020624961696706,1.1120068100927554,1.1213648387804909,1.1301396504335581,1.1383351196265667,1.1459559106163295,1.1530074592534028,1.1594959535553853,1.1654283130029286,1.1708121666216396,1.1756558299151034,1.1799682807042289,1.1837591338727163,1.187038614926203,1.1898175322459879,1.1921072480011605,1.1939196477350937,1.1952671085733209,1.19616246596398,1.1966189789727673,1.1966502942480415,1.1962704087172162,1.1954936310312463,1.1943345418706586,1.1928079533037903,1.1909288673151068,1.1887124335643606,1.186173906532671,1.1833286022970106,1.180191855110954,1.1767789739086403,1.1731051989228982,1.1691856586717826,1.1650353274951986,1.16066898375776,1.1561011688995624,1.1513461475798294,1.1464178690995581,1.1413299302270499,1.1360955395940415,1.130727483874236,1.1252380959020538,1.1196392248316451,1.1139422084607669,1.1081578478620344,1.1022963843988614,1.0963674791471043,1.0903801947751097,1.0843429799701199,1.0782636564594246,1.0721494086288177,1.066006775756797,1.0598416469051555,1.0536592584781637,1.047464194426128,1.0412603890700352,1.035051132529322,1.0288390787098285,1.0226262557807955,1.016414079065657,1.0102033662677516,1.0039943549271937,0.9977867219833161,0.9915796053214654,0.9853716271965476,0.9791609194265349,0.9729451502393169,0.9667215526453867,0.9604869541998313,0.9542378080097931,0.9479702248378874,0.9416800061487186,0.9353626779469052,0.9290135252601804,0.922627627122777,0.9161998919079836,0.9097250928511017,0.9031979036022334,0.8966129336515446,0.889964763475402,0.8832479792613617,0.8764572070827175,0.8695871464018055,0.8626326027802839,0.8555885196684078,0.8484500091417527,0.8412123814594022,0.8338711733325004,0.8264221748061418,0.8188614546640933,0.8111853842728618,0.8033906597947938,0.7954743227082811,0.787433778570736,0.779266813963651,0.7709716115780799,0.7625467634100377,0.7539912820249465,0.7453046098492909,0.7364866264760899,0.7275376539916971,0.7184584603187654,0.7092502605650255,0.6999147163991876,0.6904539334958523,0.6808704570672294,0.6711672654873441,0.6613477620569808,0.651415764997167,0.6413754957467344,0.6312315656262601,0.6209889609621958,0.6106530267946267,0.6002294492777575,0.589724236866645,0.5791437004050419,0.5684944322465315,0.5577832845196109,0.5470173466290029,0.5362039221044645,0.5253505049208622,0.5144647553849488,0.5035544756629673,0.4926275850480905,0.48169209509288796,0.47075608471818237,0.4598276753911205,0.4489150064778807,0.4380262108933491,0.42716939116183356,0.4163525959872379,0.4055837974276023,0.3948708687607224,0.38422156310200417,0.3736434928176874,0.3631441097855028,0.35273068656889794,0.3424102985673829,0.3321898071940321,0.3220758441246708,0.31207479665354115,0.30219279417114603,0.29243569576686973,0.2828090789645667,0.2733182296135565,0.2639681329651153,0.2547634659597881,0.24570859073577028,0.23680754935190923,0.22806405970782467,0.2194815126374316,0.21106297014750036,0.20281116476876,0.1947284999834094,0.18681705168971902,0.17907857066249835,0.17151448596993038,0.16412590931199225,0.15691364024605506,0.14987817225862338,0.14301969963997246,0.13633812512672722,0.12983306828077895,0.12350387456131132,0.11734962503769589,0.11136914669786338,0.10556102331181563,0.09992360679890508,0.0944550290378158,0.08915321406466739,0.08401589061100148,0.07904060492551514,0.0742247338171841,0.069565497866252,0.065059974757279,0.06070511268246012,0.056497743762237124,0.052434597446612746,0.048512313871054064,0.04472745712870154,0.041076528411458806,0.03755597898638096,0.0341622229849022,0.030891649970857346,0.027740637247338593,0.024705561883003227,0.02178281245233986,0.018968800466485518,0.016259971455865697,0.013652815681446934,0.01114387846527975,0.008729770115101659,0.0064071754022143705,0.004172862563923314,0.002023691815078225,-4.3376654850606906e-05,-0.0020312752228963207,-0.003942821907547016,-0.005780713955771427,-0.007547521944647305,-0.009245684432958938,-0.010877503203718221,-0.01244513912947653,-0.013950608689025548,-0.015395781161263104,-0.016782376511432683,-0.018111963974828706,-0.01938596134156296,-0.02060563494759731,-0.02177210037462409,-0.022886323855246075,-0.023949124373472207,-0.024961176444781984,-0.025923013554884737,-0.026835032231773852,-0.02769749672357647,-0.02851054426023137,-0.029274190888817837,-0.029988337874277078,-0.030652778642307386,-0.031267206231215115,-0.03183122122866954,-0.03234434017397699,-0.03280600438907478,-0.03321558918691523,-0.03357241341431636,-0.03387574929343141,-0.034124832510047484,-0.034318872477840476,-0.03445706270664871,-0.03453859120869417,-0.03456265087541505,-0.034528449756537495,-0.034435221180356225,-0.03428223366167652,-0.034068800543282964,-0.03379428931362025,-0.033458130544899746,-0.03305982640131944,-0.03259895867056493,-0.03207519626461417,-0.03148830212005566,-0.030838139427068905,-0.03012467713952536,-0.0293479947330283,-0.028508286162814513,-0.027605862968332874,-0.02664115649918717,-0.025614719243007268,-0.024527225189531952,-0.023379469146679814,-0.02217236498263396,-0.020906942804149453,-0.019584345028253902,-0.018205821275578904,-0.016772722089776326,-0.015286491541095371,-0.013748658708798553,-0.012160827996464599,-0.010524668319945892,-0.008841901262792143,-0.007114288203556886,-0.005343616362369945,-0.0035316838233194823,-0.001680283669654222,0.00020881272875408955,0.002133873305838837,0.004093223678284531,0.006085266131000206,0.008108499132940188,0.010161537388263024,0.012243132307118583,0.014352192692068609,0.016487805564365764,0.018649257149598857,0.020836053903309587,0.02304794333105438,0.02528493445504472,0.027547317873822155,0.029835685239676165,0.03215094781862004,0.034494353796913894,0.03686750406359548,0.039272366198112994,0.0417112863635452,0.044186998820848665,0.046702632830842215,0.04926171676675247,0.05186817931139428,0.05452634765969613,0.05724094268954571,0.06001707110205911,0.06286021456659513,0.0657762159363634,0.06877126262752276,0.07185186727843867,0.0750248458264629,0.0782972931574043,0.08167655649796124,0.08517020673395731,0.08878600784743462,0.09253188467367529,0.09641588918519733,0.10044616551385838,0.10463091392454132,0.10897835395463079,0.113496686932748,0.11819405808812294,0.12307851845866652,0.1281579868013773,0.13344021170328796,0.1389327340848297,0.14464285028036933,0.15057757587284853,0.15674361045101687,0.16314730344878542,0.16979462121681782,N
4,1.0258005143119175,1.0256477209407506,1.0254949442990824,1.0253425280517312,1.0251908066657192,1.025040104881376,1.0248907372182632,1.0247430075161839,1.024597208511454,1.02445362144853,1.024312515727005,1.0241741485839035,1.024038764811127,1.0239065965078262,1.023777862867404,1.023652769998791,1.0235315107815548,1.0234142647543416,1.0233011980360913,1.0231924632794038,1.0230881996553733,1.0229885328691573,1.0228935751804664,1.0228034252825766,1.0227181676954211,1.0226378712694328,1.0225625865702301,1.0224923420237448,1.0224271385560282,1.0223669423858606,1.0223116758614301,1.0222612064332868,1.022215333748182,1.022173774757933,1.0221361469382555,1.0221019498844268,1.0220705454238037,1.0220411362757047,1.0220127434649526,1.021984182849941,1.0219540409965526,1.0219206505101999,1.0218820650834963,1.0218360346427555,1.0217799808388308,1.021710973003026,1.0216257048163515,1.021520472060143,1.0213911516971825,1.0212331824128882,1.0210415468383858,1.0208107557576585,1.0205348344737761,1.0202073113924082,1.0198212089639425,1.019369037202071,1.0188427898850838,1.0182339434391805,1.017533458572595,1.016731784797012,1.0158188678780193,1.0147841601618246,1.0136166337780976,1.0123047967682475,1.0108367121004076,1.0092000194490034,1.0073819596638136,1.0053694018970638,1.0031488732794231,1.0007065909639612,0.9980284964034312,0.9951002917721621,0.9919074783831932,0.9884353968922588,0.9846692691194415,0.9805942413539092,0.9761954289481442,0.9714579619574345,0.9663670316255693,0.9609079375607661,0.9550661354013799,0.9488272847302262,0.9421772970395235,0.9351023835882983,0.9275891029549157,0.9196244080535683,0.9111956926009688,0.9022908378938865,0.8928982620944987,0.8830069745995743,0.872606636681363,0.8616876277483163,0.8502411157057619,0.8382591298508606,0.8257346348812753,0.8126616047348403,0.799035095108346,0.7848513136275184,0.7701076867575738,0.7548029226545703,0.7389370692623158,0.7225115670580431,0.7055292959425916,0.6879946158576518,0.6699134007938827,0.6512930659296194,0.6321425877105997,0.6124725167468563,0.5922949834638049,0.5716236965007919,0.5504739337313077,0.5288625250039517,0.5068078243953692,0.48432966940409033,0.46144932598425453,0.4381894203053232,0.41457385914414974,0.39062774091129776,0.3663772590880153,0.34184959965821254,0.31707283406150083,0.29207580911483105,0.2668880351385129,0.24153957335043497,0.21606092358646223,0.19048291336873968,0.16483658913026783,0.13915311022595572,0.11346364638137779,0.08779927922811409,0.0621909083754567,0.036669162309874256,0.011264314479200526,-0.013993795048922631,-0.039075832166644904,-0.06395303552623541,-0.08859727746781706,-0.11298111892491466,-0.13707785834087852,-0.1608615747845237,-0.18430716536023875,-0.20739037693158427,-0.23008783233853322,-0.2523770514218349,-0.27423646705417176,-0.2956454362847503,-0.31658424685258885,-0.3370341194440281,-0.3569772059400676,-0.3763965837930597,-0.3952762468183497,-0.41360109281724666,-0.4313569083335804,-0.44853035073823877,-0.46510892795314873,-0.4810809762277385,-0.49643563625942544,-0.5111628278391794,-0.5252532233040207,-0.5386982201619922,-0.5514899131282153,-0.5636210656997495,-0.5750850814951739,-0.5858759756745814,-0.5959883466474089,-0.6054173481718307,-0.614158662027917,-0.6222084715133444,-0.6295634358981487,-0.63622066587518,-0.6421777001221732,-0.6474324831732571,-0.6519833447207412,-0.6558289803830702,-0.6589684340366783,-0.6614010819199313,-0.6631266187432122,-0.6641450459940649,-0.6644566625687623,-0.6640620578098558,-0.6629621069828632,-0.6611579691839439,-0.6586510876338812,-0.6554431922816278,-0.6515363046128052,-0.6469327445345957,-0.641635139188156,-0.6356464335227677,-0.628969902452177,-0.621609164402717,-0.6135681960546527,-0.6048513480725023,-0.5954633616166739,-0.5854093854274266,-0.5746949932727191,-0.5633262015537855,-0.5513094868660934,-0.5386518033185442,-0.5253605994202187,-0.5114438343514974,-0.49690999344487646,-0.4817681027101098,-0.46602774224832927,-0.4496990584104042,-0.4327927745658993,-0.4153202003604693,-0.3972932393512985,-0.3787243949221735,-0.359626774391866,-0.34001409124164433,-0.3199006653998469,-0.29930142153347644,-0.27823188530864834,-0.25670817759339976,-0.23474700658778153,-0.2123656578772724,-0.18958198241633323,-0.16641438245932022,-0.14288179546596785,-0.11900367601820677,-0.0947999757941746,-0.07029112165388601,-0.0454979918991349,-0.020441890777791214,0.00485547869028224,0.030372043481943552,0.05608539084438479,0.08197279997847842,0.10801127503180424,0.13417757929696444,0.16044827050699778,0.18679973711644665,0.21320823545390494,0.2396499276296717,0.26610092008044445,0.29253730263179584,0.3189351879584756,0.345270751322352,0.37152027046803554,0.39766016555689826,0.42366703902129926,0.4495177152223248,0.4751892797962431,0.5006591185771306,0.5259049559857322,0.5509048927775512,0.5756374430464085,0.6000815703832362,0.624216723093666,0.6480228683820136,0.6714805254135198,0.6945707971711804,0.7172754010281427,0.739576697961455,0.7614577203379082,0.7829021982077761,0.8038945840474364,0.824420075897106,0.8444646388452407,0.8640150248165087,0.8830587906256296,0.9015843142647683,0.9195808093975512,0.9370383380381352,0.9539478213990723,0.9703010488969742,0.9860906853101726,1.0013102760876718,1.0159542508137027,1.030017924837084,1.0434974990793664,1.0563900580403842,1.0686935660243326,1.0804068616138351,1.0915296504236485,1.1020624961696706,1.1120068100927554,1.1213648387804909,1.1301396504335581,1.1383351196265667,1.1459559106163295,1.1530074592534028,1.1594959535553853,1.1654283130029286,1.1708121666216396,1.1756558299151034,1.1799682807042289,1.1837591338727163,1.187038614926203,1.1898175322459879,1.1921072480011605,1.1939196477350937,1.1952671085733209,1.19616246596398,1.1966189789727673,1.1966502942480415,1.1962704087172162,1.1954936310312463,1.1943345418706586,1.1928079533037903,1.1909288673151068,1.1887124335643606,1.186173906532671,1.1833286022970106,1.180191855110954,1.1767789739086403,1.1731051989228982,1.1691856586717826,1.1650353274951986,1.16066898375776,1.1561011688995624,1.1513461475798294,1.1464178690995581,1.1413299302270499,1.1360955395940415,1.130727483874236,1.1252380959020538,1.1196392248316451,1.1139422084607669,1.1081578478620344,1.1022963843988614,1.0963674791471043,1.0903801947751097,1.0843429799701199,1.0782636564594246,1.0721494086288177,1.066006775756797,1.0598416469051555,1.0536592584781637,1.047464194426128,1.0412603890700352,1.035051132529322,1.0288390787098285,1.0226262557807955,1.016414079065657,1.0102033662677516,1.0039943549271937,0.9977867219833161,0.9915796053214654,0.9853716271965476,0.9791609194265349,0.9729451502393169,0.9667215526453867,0.9604869541998313,0.9542378080097931,0.9479702248378874,0.9416800061487186,0.9353626779469052,0.9290135252601804,0.922627627122777,0.9161998919079836,0.9097250928511017,0.9031979036022334,0.8966129336515446,0.889964763475402,0.8832479792613617,0.8764572070827175,0.8695871464018055,0.8626326027802839,0.8555885196684078,0.8484500091417527,0.8412123814594022,0.8338711733325004,0.8264221748061418,0.8188614546640933,0.8111853842728618,0.8033906597947938,0.7954743227082811,0.787433778570736,0.779266813963651,0.7709716115780799,0.7625467634100377,0.7539912820249465,0.7453046098492909,0.7364866264760899,0.7275376539916971,0.7184584603187654,0.7092502605650255,0.6999147163991876,0.6904539334958523,0.6808704570672294,0.6711672654873441,0.6613477620569808,0.651415764997167,0.6413754957467344,0.6312315656262601,0.6209889609621958,0.6106530267946267,0.6002294492777575,0.589724236866645,0.5791437004050419,0.5684944322465315,0.5577832845196109,0.5470173466290029,0.5362039221044645,0.5253505049208622,0.5144647553849488,0.5035544756629673,0.4926275850480905,0.48169209509288796,0.47075608471818237,0.4598276753911205,0.4489150064778807,0.4380262108933491,0.42716939116183356,0.4163525959872379,0.4055837974276023,0.3948708687607224,0.38422156310200417,0.3736434928176874,0.3631441097855028,0.35273068656889794,0.3424102985673829,0.3321898071940321,0.3220758441246708,0.31207479665354115,0.30219279417114603,0.29243569576686973,0.2828090789645667,0.2733182296135565,0.2639681329651153,0.2547634659597881,0.24570859073577028,0.23680754935190923,0.22806405970782467,0.2194815126374316,0.21106297014750036,0.20281116476876,0.1947284999834094,0.18681705168971902,0.17907857066249835,0.17151448596993038,0.16412590931199225,0.15691364024605506,0.14987817225862338,0.14301969963997246,0.13633812512672722,0.12983306828077895,0.12350387456131132,0.11734962503769589,0.11136914669786338,0.10556102331181563,0.09992360679890508,0.0944550290378158,0.08915321406466739,0.08401589061100148,0.07904060492551514,0.0742247338171841,0.069565497866252,0.065059974757279,0.06070511268246012,0.056497743762237124,0.052434597446612746,0.048512313871054064,0.04472745712870154,0.041076528411458806,0.03755597898638096,0.0341622229849022,0.030891649970857346,0.027740637247338593,0.024705561883003227,0.02178281245233986,0.018968800466485518,0.016259971455865697,0.013652815681446934,0.01114387846527975,0.008729770115101659,0.0064071754022143705,0.004172862563923314,0.002023691815078225,-4.3376654850606906e-05,-0.0020312752228963207,-0.003942821907547016,-0.005780713955771427,-0.007547521944647305,-0.009245684432958938,-0.010877503203718221,-0.01244513912947653,-0.013950608689025548,-0.015395781161263104,-0.016782376511432683,-0.018111963974828706,-0.01938596134156296,-0.02060563494759731,-0.02177210037462409,-0.022886323855246075,-0.023949124373472207,-0.024961176444781984,-0.025923013554884737,-0.026835032231773852,-0.02769749672357647,-0.02851054426023137,-0.029274190888817837,-0.029988337874277078,-0.030652778642307386,-0.031267206231215115,-0.03183122122866954,-0.03234434017397699,-0.03280600438907478,-0.03321558918691523,-0.03357241341431636,-0.03387574929343141,-0.034124832510047484,-0.034318872477840476,-0.03445706270664871,-0.03453859120869417,-0.03456265087541505,-0.034528449756537495,-0.034435221180356225,-0.03428223366167652,-0.034068800543282964,-0.03379428931362025,-0.033458130544899746,-0.03305982640131944,-0.03259895867056493,-0.03207519626461417,-0.03148830212005566,-0.030838139427068905,-0.03012467713952536,-0.0293479947330283,-0.028508286162814513,-0.027605862968332874,-0.02664115649918717,-0.025614719243007268,-0.024527225189531952,-0.023379469146679814,-0.02217236498263396,-0.020906942804149453,-0.019584345028253902,-0.018205821275578904,-0.016772722089776326,-0.015286491541095371,-0.013748658708798553,-0.012160827996464599,-0.010524668319945892,-0.008841901262792143,-0.007114288203556886,-0.005343616362369945,-0.0035316838233194823,-0.001680283669654222,0.00020881272875408955,0.002133873305838837,0.004093223678284531,0.006085266131000206,0.008108499132940188,0.010161537388263024,0.012243132307118583,0.014352192692068609,0.016487805564365764,0.018649257149598857,0.020836053903309587,0.02304794333105438,0.02528493445504472,0.027547317873822155,0.029835685239676165,0.03215094781862004,0.034494353796913894,0.03686750406359548,0.039272366198112994,0.0417112863635452,0.044186998820848665,0.046702632830842215,0.04926171676675247,0.05186817931139428,0.05452634765969613,0.05724094268954571,0.06001707110205911,0.06286021456659513,0.0657762159363634,0.06877126262752276,0.07185186727843867,0.0750248458264629,0.0782972931574043,0.08167655649796124,0.08517020673395731,0.08878600784743462,0.09253188467367529,0.09641588918519733,0.10044616551385838,0.10463091392454132,0.10897835395463079,0.113496686932748,0.11819405808812294,0.12307851845866652,0.1281579868013773,0.13344021170328796,0.1389327340848297,0.14464285028036933,0.15057757587284853,0.15674361045101687,0.16314730344878542,0.16979462121681782,0.17669111546669442,0.18384189321790695,0.19125158836763295,0.19892433499276257,0.20686374248306888,0.2150728725937781,0.2235542184951635,0.2323096858862021,0.24134057622884425,0.25064757214908967,0.2602307250408861,0.2700894448988928,0.280222492396422,0.29062797321541084,0.30130333462611153,0.31224536430534283,0.3234501913736462,0.334913289623544,0.34662948290333223,0.3585929526134623,0.3707972472655882,0.3832352940477916,0.39589941233335074,0.40878132906469683,0.4218721959389044,0.43516260831619985,0.4486426257685367,0.46230179418128275,0.476129169317488,0.4901133417510512,0.5042424630723673,0.5185042732677184,0.5328861291717547,0.5473750338908935,0.5619576670943341,0.5766204160686353,0.5913494074314146,0.6061305393997009,0.6209495145087841,0.6357918726780537,0.6506430245212754,0.6654882848000235,0.6803129059205394,0.6951021113761181,0.7098411290392136,0.7245152242097884,0.7391097323289962,0.7536100912700651,0.7680018731212274,0.7822708153787069,0.7964028514711009,0.810384140539982,0.8242010964051621,0.8378404156468108,0.8512891047404697,0.8645345061849549,0.8775643235671607,0.8903666455118723,0.9029299684688313,0.9152432182934792,0.9272957705820023,0.9390774697255223,0.9505786466524834,0.961790135232493,0.9727032873190421,0.9833099864126714,0.9936026599302444,1.0035742900700242,1.0132184232662185,1.0225291782305514,1.0315012525822327,1.0401299280714127,1.0484110744048285,1.0563411516858527,1.063917211484555,1.07113689655666,1.0779984392334352,1.084500658507557,1.0906429558428863,1.0964253097388317,1.1018482690825635,1.1069129453248034,1.111621003517208,1.1159746522515215,1.119976632542661,1.1236302056997427,1.1269391402307407,1.1299076978280025,1.132540618483217,1.1348431047816436,1.1368208054264748,1.13847979804511,1.1398265713298785,1.1408680065663537,1.1416113586028531,1.1420642363150326,1.1422345826196556,1.142130654091641,1.1417610002383876,1.1411344424851328,1.140260052924736,1.139147132884778,1.137805191364256,1.1362439233914194,1.1344731883534613,1.1325029883478208,1.1303434466038131,1.1280047860221492,1.1254973078786719,1.1228313707373132,1.1200173696158735,1.1170657154467498,1.1139868148731897,1.1107910504200367,1.107488761076256,1.104090223324812,1.1006056326536953,1.0970450855800837,1.093418562217768,1.0897359094160943,1.0860068244967704,1.0822408396129475,1.0784473067530544,1.074635383409898,1.0708140189335873,1.066991941584879,1.0631776463035905,1.059379383204768,1.0556051468133691,1.0518626660463004,1.0481593949487535,1.0445025041899185,1.040898873321307,1.0373550837991166,1.0338774127702928,1.0304718276202205,1.0271439812782892,1.0238992082759315,1.0207425215501498,1.0176786099840027,1.0147118366740375,1.0118462379132225,1.0090855228765674,1.0064330739953105,1.0038919480043027,1.0014648776460298,0.9991542740135936,0.9969622295139239,0.9948905214315001,0.9929406160719468,0.9911136734640152,0.9894105525976761,0.9878318171753359,0.9863777418525445,0.9850483189439855,0.9838432655700263,0.9827620312186719,0.9818038056973887,0.9809675274489585,0.9802518922052853,0.979655361952895,0.9791761741837647,0.9788123514050652,0.9785617108814147,0.9784218745833103,0.9783902793155331,0.9784641869995122,0.9786406950838688,0.978916747057658,0.9792891430411746,0.9797545504295805,0.9803095145650543,0.9809504694136507,0.9816737482235794,0.9824755941421893,0.9833521707695475,0.9842995726271481,0.9853138355209629,0.9863909467787565,0.9875268553423201,0.9887174816960466,0.9899587276140617,0.9912464857089308,0.992576648765788,0.9939451188465874,0.9953478161500332,0.996780687613621,0.9982397152451098,0.9997209241716304,1.0012203903955414,1.0027342482438282,1.0042586974832701,1.005790010049086,1.007324536328112,1.0088587109591136,1.0103890581200046,1.0119121962411881,1.0134248420715417,1.0149238140660788,1.016406035100563,1.0178685345001417,1.0193084493545796,1.0207230251302837,1.0221096156209473,1.0234656822561303,1.0247887927685972,1.0260766192534123,1.0273269356718102,1.0285376148137364,1.0297066247074986,1.030832024510992,1.031911959967386,1.0329446584955684,1.0339284239644075,1.0348616312211316,1.0357427204604077,1.036570191490612,1.0373425979288298,1.0380585413779304,1.0387166656538627,1.0393156510967234,1.0398542089726952,1.0403310760023454,1.0407450090779764,1.0410947802097472,1.0413791717165028,1.0415969716955829,1.0417469698157849,1.04182795343978,1.0418387040552783,1.0417779940233922,1.041644583677284,1.0414372187746075,1.0411546282817303,1.040795522497055,1.040358591552263,1.039842504314413,1.0392459076905376,1.0385674263493143,1.0378056628805339,1.0369591983796596,1.0360265934208612,1.0350063894041865,1.033897110276872,1.0326972645943544,1.03140534786216,1.0300198451322438,1.0285392338584691,1.0269619869954154,1.0252865763035317,1.0235114758474297,1.0216351656944889,1.019656135796218,1.0175728900135705,1.0153839502711621,1.0130878608477643,1.0106831927908377,1.00816854842377,1.0055425659324877,1.0028039240296653,0.9999513466655577,0.9969836077338553,0.9938995357471745,0.9906980184788221,0.9873780075437155,0.9839385228718536,0.9803786570532278,0.9766975795511028,0.9728945407502314,0.9689688757851611,0.9649200081263566,0.9607474529293051,0.9564508201258234,0.9520298172155613,0.9474842517474834,0.9428140335077922,0.9380191764040918,0.9330998000136653,0.9280561307948697,0.9228885029867023,0.9175973591943157,0.9121832506357678,0.9066468370558594,0.9009888863384352,0.8952102738207433,0.8893119812904755,0.8832950956752088,0.8771608074541561,0.8709104087859132,0.8645452913201244,0.8580669436991688,0.8514769487919296,0.8447769806784378,0.8379688013807212,0.831054257364529,0.8240352758642333,0.8169138610602571,0.8096920901156464,0.802372109101518,0.7949561288634194,0.7874464208599486,0.7798453129840216,0.7721551853924746,0.7643784663760076,0.7565176282650101,0.7485751833427015,0.7405536797676917,0.7324556975390357,0.7242838445201971,0.7160407525188694,0.7077290734381645,0.6993514755278687,0.6909106397364413,0.6824092561431447,0.6738500204740939,0.6652356307289594,0.65656878392584,0.6478521729530012,0.6390884835343436,0.6302803913270612,0.6214305591407252,0.6125416342462324,0.6036162457690393,0.5946570021827895,0.5856664888952714,0.5766472658986654,0.5676018654826568,0.5585327900345439,0.5494425099327932,0.5403334615223073,0.5312080451809164,0.5220686235115585,0.5129175196870698,0.5037570159603116,0.4945893523587207,0.48541672558726157,0.47624128814704425,0.4670651476627147,0.4578903664227484,0.44871896115587384,0.43955290307205075,0.4303941181899592,0.42124448796700176,0.4121058502525098,0.40298000059827943,0.39386869396073176,0.3847736468089495,0.3756965396497584,0.366639020012349,0.35760270594564386,0.34858919003876015,0.33960004394597704,0.3306368234293902,0.3217010739505866,0.3127943367945434,0.30391815568203495,0.29507408388155376,0.2862636918628556,0.2774885754680493,0.2687503645342345,0.26005073197128314,0.2513914033418766,0.2427741669063235,0.23420088403153197,0.22567349993691613,0.21719405480327028,0.20876469518198096,0.20038768557922895,0.19206542018231912,0.18380043476118882,0.17559541867631925,0.16745322684607059,0.15937689162343663,0.15136963460700595,0.14343487830357124,0.1355762574686343,0.12779763004123476,0.12010308766823138,0.11249696571793401,0.10498385260448308,0.0975685983421445,0.09025632233198495,0.08305242029257481,0.07596257016969571,0.06899273695610414,0.06214917643651252,0.05543843778772729,0.04886736488722794,0.042443096269503475,0.03617306375020975,0.03006498966758612,0.024126882630195474,0.018367031748619582,0.012793999407298327,0.007416612554951486,0.0022439523822893282,-0.0027146577461818035,-0.007449666190715138,-0.01195130883859365,-0.01620962689083241,-0.020214486697251125,-0.02395560166711196,-0.02742255624433188,-0.030604831902294242,-0.03349183508325496,-0.03607292698102758,-0.038337455042809644,-0.040274786046460044,N
5,0.3220758441246708,0.31207479665354115,0.30219279417114603,0.29243569576686973,0.2828090789645667,0.2733182296135565,0.2639681329651153,0.2547634659597881,0.24570859073577028,0.23680754935190923,0.22806405970782467,0.2194815126374316,0.21106297014750036,0.20281116476876,0.1947284999834094,0.18681705168971902,0.17907857066249835,0.17151448596993038,0.16412590931199225,0.15691364024605506,0.14987817225862338,0.14301969963997246,0.13633812512672722,0.12983306828077895,0.12350387456131132,0.11734962503769589,0.11136914669786338,0.10556102331181563,0.09992360679890508,0.0944550290378158,0.08915321406466739,0.08401589061100148,0.07904060492551514,0.0742247338171841,0.069565497866252,0.065059974757279,0.06070511268246012,0.056497743762237124,0.052434597446612746,0.048512313871054064,0.04472745712870154,0.041076528411458806,0.03755597898638096,0.0341622229849022,0.030891649970857346,0.027740637247338593,0.024705561883003227,0.02178281245233986,0.018968800466485518,0.016259971455865697,0.013652815681446934,0.01114387846527975,0.008729770115101659,0.0064071754022143705,0.004172862563923314,0.002023691815078225,-4.3376654850606906e-05,-0.0020312752228963207,-0.003942821907547016,-0.005780713955771427,-0.007547521944647305,-0.009245684432958938,-0.010877503203718221,-0.01244513912947653,-0.013950608689025548,-0.015395781161263104,-0.016782376511432683,-0.018111963974828706,-0.01938596134156296,-0.02060563494759731,-0.02177210037462409,-0.022886323855246075,-0.023949124373472207,-0.024961176444781984,-0.025923013554884737,-0.026835032231773852,-0.02769749672357647,-0.02851054426023137,-0.029274190888817837,-0.029988337874277078,-0.030652778642307386,-0.031267206231215115,-0.03183122122866954,-0.03234434017397699,-0.03280600438907478,-0.03321558918691523,-0.03357241341431636,-0.03387574929343141,-0.034124832510047484,-0.034318872477840476,-0.03445706270664871,-0.03453859120869417,-0.03456265087541505,-0.034528449756537495,-0.034435221180356225,-0.03428223366167652,-0.034068800543282964,-0.03379428931362025,-0.033458130544899746,-0.03305982640131944,-0.03259895867056493,-0.03207519626461417,-0.03148830212005566,-0.030838139427068905,-0.03012467713952536,-0.0293479947330283,-0.028508286162814513,-0.027605862968332874,-0.02664115649918717,-0.025614719243007268,-0.024527225189531952,-0.023379469146679814,-0.02217236498263396,-0.020906942804149453,-0.019584345028253902,-0.018205821275578904,-0.016772722089776326,-0.015286491541095371,-0.013748658708798553,-0.012160827996464599,-0.010524668319945892,-0.008841901262792143,-0.007114288203556886,-0.005343616362369945,-0.0035316838233194823,-0.001680283669654222,0.00020881272875408955,0.002133873305838837,0.004093223678284531,0.006085266131000206,0.008108499132940188,0.010161537388263024,0.012243132307118583,0.014352192692068609,0.016487805564365764,0.018649257149598857,0.020836053903309587,0.02304794333105438,0.02528493445504472,0.027547317873822155,0.029835685239676165,0.03215094781862004,0.034494353796913894,0.03686750406359548,0.039272366198112994,0.0417112863635452,0.044186998820848665,0.046702632830842215,0.04926171676675247,0.05186817931139428,0.05452634765969613,0.05724094268954571,0.06001707110205911,0.06286021456659513,0.0657762159363634,0.06877126262752276,0.07185186727843867,0.0750248458264629,0.0782972931574043,0.08167655649796124,0.08517020673395731,0.08878600784743462,0.09253188467367529,0.09641588918519733,0.10044616551385838,0.10463091392454132,0.10897835395463079,0.113496686932748,0.11819405808812294,0.12307851845866652,0.1281579868013773,0.13344021170328796,0.1389327340848297,0.14464285028036933,0.15057757587284853,0.15674361045101687,0.16314730344878542,0.16979462121681782,0.17669111546669442,0.18384189321790695,0.19125158836763295,0.19892433499276257,0.20686374248306888,0.2150728725937781,0.2235542184951635,0.2323096858862021,0.24134057622884425,0.25064757214908967,0.2602307250408861,0.2700894448988928,0.280222492396422,0.29062797321541084,0.30130333462611153,0.31224536430534283,0.3234501913736462,0.334913289623544,0.34662948290333223,0.3585929526134623,0.3707972472655882,0.3832352940477916,0.39589941233335074,0.40878132906469683,0.4218721959389044,0.43516260831619985,0.4486426257685367,0.46230179418128275,0.476129169317488,0.4901133417510512,0.5042424630723673,0.5185042732677184,0.5328861291717547,0.5473750338908935,0.5619576670943341,0.5766204160686353,0.5913494074314146,0.6061305393997009,0.6209495145087841,0.6357918726780537,0.6506430245212754,0.6654882848000235,0.6803129059205394,0.6951021113761181,0.7098411290392136,0.7245152242097884,0.7391097323289962,0.7536100912700651,0.7680018731212274,0.7822708153787069,0.7964028514711009,0.810384140539982,0.8242010964051621,0.8378404156468108,0.8512891047404697,0.8645345061849549,0.8775643235671607,0.8903666455118723,0.9029299684688313,0.9152432182934792,0.9272957705820023,0.9390774697255223,0.9505786466524834,0.961790135232493,0.9727032873190421,0.9833099864126714,0.9936026599302444,1.0035742900700242,1.0132184232662185,1.0225291782305514,1.0315012525822327,1.0401299280714127,1.0484110744048285,1.0563411516858527,1.063917211484555,1.07113689655666,1.0779984392334352,1.084500658507557,1.0906429558428863,1.0964253097388317,1.1018482690825635,1.1069129453248034,1.111621003517208,1.1159746522515215,1.119976632542661,1.1236302056997427,1.1269391402307407,1.1299076978280025,1.132540618483217,1.1348431047816436,1.1368208054264748,1.13847979804511,1.1398265713298785,1.1408680065663537,1.1416113586028531,1.1420642363150326,1.1422345826196556,1.142130654091641,1.1417610002383876,1.1411344424851328,1.140260052924736,1.139147132884778,1.137805191364256,1.1362439233914194,1.1344731883534613,1.1325029883478208,1.1303434466038131,1.1280047860221492,1.1254973078786719,1.1228313707373132,1.1200173696158735,1.1170657154467498,1.1139868148731897,1.1107910504200367,1.107488761076256,1.104090223324812,1.1006056326536953,1.0970450855800837,1.093418562217768,1.0897359094160943,1.0860068244967704,1.0822408396129475,1.0784473067530544,1.074635383409898,1.0708140189335873,1.066991941584879,1.0631776463035905,1.059379383204768,1.0556051468133691,1.0518626660463004,1.0481593949487535,1.0445025041899185,1.040898873321307,1.0373550837991166,1.0338774127702928,1.0304718276202205,1.0271439812782892,1.0238992082759315,1.0207425215501498,1.0176786099840027,1.0147118366740375,1.0118462379132225,1.0090855228765674,1.0064330739953105,1.0038919480043027,1.0014648776460298,0.9991542740135936,0.9969622295139239,0.9948905214315001,0.9929406160719468,0.9911136734640152,0.9894105525976761,0.9878318171753359,0.9863777418525445,0.9850483189439855,0.9838432655700263,0.9827620312186719,0.9818038056973887,0.9809675274489585,0.9802518922052853,0.979655361952895,0.9791761741837647,0.9788123514050652,0.9785617108814147,0.9784218745833103,0.9783902793155331,0.9784641869995122,0.9786406950838688,0.978916747057658,0.9792891430411746,0.9797545504295805,0.9803095145650543,0.9809504694136507,0.9816737482235794,0.9824755941421893,0.9833521707695475,0.9842995726271481,0.9853138355209629,0.9863909467787565,0.9875268553423201,0.9887174816960466,0.9899587276140617,0.9912464857089308,0.992576648765788,0.9939451188465874,0.9953478161500332,0.996780687613621,0.9982397152451098,0.9997209241716304,1.0012203903955414,1.0027342482438282,1.0042586974832701,1.005790010049086,1.007324536328112,1.0088587109591136,1.0103890581200046,1.0119121962411881,1.0134248420715417,1.0149238140660788,1.016406035100563,1.0178685345001417,1.0193084493545796,1.0207230251302837,1.0221096156209473,1.0234656822561303,1.0247887927685972,1.0260766192534123,1.0273269356718102,1.0285376148137364,1.0297066247074986,1.030832024510992,1.031911959967386,1.0329446584955684,1.0339284239644075,1.0348616312211316,1.0357427204604077,1.036570191490612,1.0373425979288298,1.0380585413779304,1.0387166656538627,1.0393156510967234,1.0398542089726952,1.0403310760023454,1.0407450090779764,1.0410947802097472,1.0413791717165028,1.0415969716955829,1.0417469698157849,1.04182795343978,1.0418387040552783,1.0417779940233922,1.041644583677284,1.0414372187746075,1.0411546282817303,1.040795522497055,1.040358591552263,1.039842504314413,1.0392459076905376,1.0385674263493143,1.0378056628805339,1.0369591983796596,1.0360265934208612,1.0350063894041865,1.033897110276872,1.0326972645943544,1.03140534786216,1.0300198451322438,1.0285392338584691,1.0269619869954154,1.0252865763035317,1.0235114758474297,1.0216351656944889,1.019656135796218,1.0175728900135705,1.0153839502711621,1.0130878608477643,1.0106831927908377,1.00816854842377,1.0055425659324877,1.0028039240296653,0.9999513466655577,0.9969836077338553,0.9938995357471745,0.9906980184788221,0.9873780075437155,0.9839385228718536,0.9803786570532278,0.9766975795511028,0.9728945407502314,0.9689688757851611,0.9649200081263566,0.9607474529293051,0.9564508201258234,0.9520298172155613,0.9474842517474834,0.9428140335077922,0.9380191764040918,0.9330998000136653,0.9280561307948697,0.9228885029867023,0.9175973591943157,0.9121832506357678,0.9066468370558594,0.9009888863384352,0.8952102738207433,0.8893119812904755,0.8832950956752088,0.8771608074541561,0.8709104087859132,0.8645452913201244,0.8580669436991688,0.8514769487919296,0.8447769806784378,0.8379688013807212,0.831054257364529,0.8240352758642333,0.8169138610602571,0.8096920901156464,0.802372109101518,0.7949561288634194,0.7874464208599486,0.7798453129840216,0.7721551853924746,0.7643784663760076,0.7565176282650101,0.7485751833427015,0.7405536797676917,0.7324556975390357,0.7242838445201971,0.7160407525188694,0.7077290734381645,0.6993514755278687,0.6909106397364413,0.6824092561431447,0.6738500204740939,0.6652356307289594,0.65656878392584,0.6478521729530012,0.6390884835343436,0.6302803913270612,0.6214305591407252,0.6125416342462324,0.6036162457690393,0.5946570021827895,0.5856664888952714,0.5766472658986654,0.5676018654826568,0.5585327900345439,0.5494425099327932,0.5403334615223073,0.5312080451809164,0.5220686235115585,0.5129175196870698,0.5037570159603116,0.4945893523587207,0.48541672558726157,0.47624128814704425,0.4670651476627147,0.4578903664227484,0.44871896115587384,0.43955290307205075,0.4303941181899592,0.42124448796700176,0.4121058502525098,0.40298000059827943,0.39386869396073176,0.3847736468089495,0.3756965396497584,0.366639020012349,0.35760270594564386,0.34858919003876015,0.33960004394597704,0.3306368234293902,0.3217010739505866,0.3127943367945434,0.30391815568203495,0.29507408388155376,0.2862636918628556,0.2774885754680493,0.2687503645342345,0.26005073197128314,0.2513914033418766,0.2427741669063235,0.23420088403153197,0.22567349993691613,0.21719405480327028,0.20876469518198096,0.20038768557922895,0.19206542018231912,0.18380043476118882,0.17559541867631925,0.16745322684607059,0.15937689162343663,0.15136963460700595,0.14343487830357124,0.1355762574686343,0.12779763004123476,0.12010308766823138,0.11249696571793401,0.10498385260448308,0.0975685983421445,0.09025632233198495,0.08305242029257481,0.07596257016969571,0.06899273695610414,0.06214917643651252,0.05543843778772729,0.04886736488722794,0.042443096269503475,0.03617306375020975,0.03006498966758612,0.024126882630195474,0.018367031748619582,0.012793999407298327,0.007416612554951486,0.0022439523822893282,-0.0027146577461818035,-0.007449666190715138,-0.01195130883859365,-0.01620962689083241,-0.020214486697251125,-0.02395560166711196,-0.02742255624433188,-0.030604831902294242,-0.03349183508325496,-0.03607292698102758,-0.038337455042809644,-0.040274786046460044,-0.04187434059304005,-0.04312562884078636,-0.04401828729569494,-0.04454211646537146,-0.04468711917656585,-0.04444353935268101,-0.04380190104536267,-0.04275304751387791,-0.04128818014722211,-0.039398897026611764,-0.03707723093008362,-0.03431568658619719,-0.031107276990200054,-0.027445558603343138,-0.023324665264212927,-0.01873934064986921,-0.013684969134139028,-0.008157604900521396,-0.002153999177712221,0.004328374523322502,0.011291297280595974,0.01873578383913607,0.026662063982729325,0.03506956627468704,0.04395690423133355,0.05332186498035637,0.06316140044470422,0.07347162108142219,0.08424779219371853,0.09548433282370733,0.10717481722270233,0.1193119788856864,0.13188771712667707,0.14489310616218137,0.1583184066608055,0.17215307970838062,0.18638580312970104,0.20100449010016358,0.2159963099732614,0.23134771124302927,0.24704444655417118,0.2630715996667298,0.2794136142767873,0.29605432458981634,0.3129769875389338,0.3301643165364387,0.3475985166436459,0.3652613210411452,0.3831340286792175,0.4011975429862182,0.4194324115080732,0.43781886633555644,0.45633686515004945,0.4749661327108059,0.49368620262075874,0.5124764591815018,0.5313161790628739,0.5501845724841671,0.5690608236990715,0.5879241306615297,0.6067537437210317,0.625529003170679,0.6442293755501659,0.6628344886755145,0.6813241653310605,0.6996784555273049,0.7178776672933481,0.7359023960220291,0.7537335523295171,0.7713523883504972,0.7887405224625893,0.8058799624964624,0.8227531274390815,0.8393428675950408,0.8556324832350429,0.8716057418146076,0.887246893792108,0.9025406870296687,0.9174723798222474,0.9320277526581603,0.9461931187706892,0.9599553334968637,0.9733018025056523,0.9862204889956034,0.9986999199083231,1.0107291911591565,1.0222979719350442,1.0333965081569134,1.0440156251656807,1.054146729650969,1.0637818108752812,1.0729134412730348,1.0815347764552605,1.089639554610664,1.0972220953303398,1.1042772979101676,1.110800639132678,1.116788170490164,1.1222365148589546,1.1271428626855817,1.1315049677207414,1.1353211423049983,1.1385902522347464,1.1413117112502265,1.1434854751356525,1.145112035385467,1.1461924124338172,1.1467281484864398,1.1467212999657737,1.1461744295504153,1.1450905978212482,1.1434733545532056,1.1413267296571705,1.1386552237472936,1.1354637983395643,1.1317578657089453,1.127543278390482,1.1228263182794822,1.1176136853273977,1.111912485869676,1.1057302205957045,1.0990747721446394,1.0919543923413644,1.0843776891075285,1.0763536130407918,1.0678914436258158,1.0590007750818469,1.0496915018871151,1.0399738039865776,1.0298581316611761,1.0193551900777544,1.0084759235797964,0.9972314997573165,0.9856332933091582,0.9736928697354952,0.9614219689111405,0.9488324885443931,0.93593646749578,0.9227460689730959,0.9092735636583492,0.8955313127948702,0.8815317512359978,0.8672873704884604,0.8528107018064394,0.8381142993519849,0.8232107234074374,0.8081125236640598,0.7928322226424831,0.7773822992632573,0.7617751725555089,0.7460231855326722,0.7301385893056673,0.7141335274813938,0.6980200208677727,0.6818099525294943,0.6655150532504441,0.6491468874124378,0.6327168392681104,0.6162360996246464,0.5997156529905959,0.5831662652080424,0.5665984715638074,0.5500225654033903,0.5334485872919277,0.516886314723368,0.5003452523472676,0.48383462272142325,0.4673633576313803,0.4509400899815624,0.43457314623178883,0.41827053939027264,0.4020399626077063,0.3858887833845895,0.3698240383739358,0.3538524287921421,0.33798031647323007,0.3222137205600433,0.30655831479396084,0.2910194254030483,0.275602029627021,0.2603107548930504,0.2451498786289388,0.2301233287225438,0.2152346846477012,0.20048717923020773,0.18588370099540605,0.17142679707830422,0.15711867671596014,0.14296121531731232,0.12895595907883184,0.11510413013920477,0.10140663228053474,0.0878640571387566,0.07447669085495771,0.06124452114050424,0.04816724477333703,0.03524427552704293,0.022474752510632412,0.009857548916607287,-0.0026087188091353485,-0.014925681391338716,-0.027095206783733162,-0.03911938988124686,-0.051000541891846427,-0.06274117940799882,-0.07434401324265062,-0.0858119370643424,-0.0971480158373704,-0.1083554740946607,-0.11943768409244812,-0.13039815387217638,-0.14124051523530037,-0.15196851166245987,-0.16258598622978662,-0.17309686955036116,-0.1835051677481094,-0.19381495049630157,-0.20403033917326605,-0.21415549516071986,-0.22419460828053872,-0.23415188537664056,-0.2440315390645439,-0.2538377766583457,-0.26357478927762323,-0.2732467411626822,-0.28285775924447765,-0.29241192299195307,-0.3019132545322585,-0.3113657090445241,-0.32077316543974055,-0.33013941715711326,-0.3394681620644917,-0.34876298909236136,-0.3580273588348377,-0.3672645767819267,-0.37647775974859243,-0.38566979696182724,-0.3948433073118274,-0.40400059412201816,-0.41314359865033046,-0.42227385340046286,-0.431392436196532,-0.4404999258571909,-0.44959636019565963,-0.4586811969698519,-0.46775327831158986,-0.4768107990754782,-0.48585127946606477,-0.49487154222616825,-0.5038676945994212,-0.5128351152158981,-0.5217684459909036,-0.5306615890733344,-0.5395077088312497,-0.5482992388181431,-0.5570278936236814,-0.5656846854771191,-0.5742599454400081,-0.582743348996964,-0.5911239458289361,-0.5993901935324439,-0.6075299950303954,-0.615530739405203,-0.6233793458727814,-0.6310623106064686,-0.6385657561127842,-0.6458754828560695,-0.652977022826275,-0.659855694743329,-0.666496660592478,-0.6728849831876009,-0.6790056844636254,-0.6848438042046925,-0.6903844589214798,-0.695612900599011,-0.7005145750452133,-0.705075179580338,-0.7092807198180173,-0.7131175653000987,-0.7165725037593802,-0.7196327937968725,-0.7222862157731598,-0.7245211207267195,-0.7263264771456353,-0.7276919154329136,-0.7286077699195239,-0.7290651182932626,-0.7290558183255298,-0.7285725417920501,-0.7276088054974021,-0.7261589993269109,-0.7242184112629477,-0.7217832493159264,-0.7188506603332572,-0.7154187456621726,-0.7114865736546427,-0.7070541890145261,-0.7021226189986178,-0.6966938764943453,-0.6907709600074989,-0.6843578506035541,-0.6774595058558202,-0.6700818508628306,-0.6622317664060593,-0.6539170743271923,-0.6451465202118034,-0.6359297534733699,-0.626277304938109,-0.6162005620371249,-0.6057117417178293,-0.5948238611915344,-0.583550706638531,-0.5719067999958316,-0.559907363956127,-0.5475682853093491,-0.5349060767605782,-0.5219378373598853,-0.508681211681071,-0.4951543478871683,-0.48137585482102097,-0.4673647582592575,-0.4531404564675565,-0.4387226751942732,-0.4241314222382653,-0.40938694172515566,-0.39450966822430145,-0.3795201808364288,-0.3644391573792589,-0.3492873287955076,-0.3340854339044097,-0.31885417461441445,-0.30361417171094396,-0.2883859213291169,-0.27318975221713826,-0.25804578389165456,-0.24297388578179802,-0.22799363745390555,-0.21312429000402,-0.19838472887041872,-0.18379343913261806,-0.16936847570392946,-0.15512744121941205,-0.1410874729929358,-0.12726523849328722,-0.11367693784367654,-0.10033831178762735,-0.0872646537625474,-0.07447082489645841,-0.06197127084029442,-0.04978003945065008,-0.0379107985056058,-0.026376852774083803,-0.015191159800309386,-0.004366343823047029,0.006085292593415687,0.016151759508079514,0.025821373412430716,0.035082754157408684,0.0439248251196633,0.05233681662775282,0.060308272710850395,0.0678290612462369,0.07488938744013254,0.08147981046344935,0.08759126312284574,0.09321507448717506,0.09834299525870194,0.10296722557549992,0.10708044501428743,0.1106758446259603,0.11374716071508764,0.11628870998343369,0.11829542576594246,0.11976289517105135,0.12068739681522452,0.12106593874182021,0.1208962962243247,0.120177049248765,0.11890761936245021,0.11708830548997452,0.1147203184387411,0.11180581392051626,0.10834792381525236,0.1043507853203922,0.09981956774984867,0.09476049685459152,0.08918087644481773,0.08308910700763042,0.07649470111595189,0.06940829552688091,0.061841659803987106,0.053807701245139686,0.04532046600891272,0.03639513643310581,0.027048024478063183,0.01729656117359194,0.007159282047371449,-0.0033441913948970637,-0.014193174122283192,-0.02536594400270589,-0.036839772155661595,-0.048590957110088144,-0.06059486268482376,-0.07282595954704363,-0.08525787032781335,-0.09786341810260007,-0.11061467808470164,-0.12348303242307777,-0.13643922794294694,-0.14945343661059873,-0.16249531852978485,-0.17553408730061662,-0.1885385775173997,-0.20147731413368045,N
