0,-0.012868637416837424,-0.015541838943179762,-0.018188379081447183,-0.020808914148597226,-0.023404117621298442,-0.02597467799454468,-0.028521296666463466,-0.031044685854791403,-0.03354556656878753,-0.036024666668452124,-0.038482719024623094,-0.040920459767919595,-0.04333862660351441,-0.045737957170065444,-0.048119187426146334,-0.050483050056016596,-0.05283027289785451,-0.05516157740288162,-0.05747767712881337,-0.05977927626620984,-0.06206706819974407,-0.06434173410993478,-0.066603941618176,-0.068854343479668,-0.07109357634108975,-0.07332225958570719,-0.07554099427602648,-0.0777503621887082,-0.07995092493384962,-0.0821432231533937,-0.08432777579161986,-0.08650507942992867,-0.08867560768370202,-0.090839810662988,-0.09299811449423183,-0.09515092089314563,-0.09729860677640294,-0.09944152390140563,-0.10157999852669847,-0.10371433109255612,-0.10584479593112461,-0.10797164101949741,-0.11009508778291817,-0.11221533094935494,-0.11433253845914922,-0.11644685143608365,-0.11855838422083971,-0.12066722445991802,-0.12277343323998376,-0.12487704525852546,-0.12697806902446682,-0.12907648708880412,-0.1311722563147367,-0.13326530820034618,-0.13535554926033094,-0.1374428614670395,-0.13952710275323227,-0.14160810758140924,-0.14368568757981895,-0.14575963224127766,-0.14782970968437784,-0.14989566747948171,-0.1519572335382175,-0.15401411706547236,-0.15606600958320221,-0.158112586040361,-0.16015350601186254,-0.16218841497649109,-0.16421694566306902,-0.16623871945714155,-0.1682533478570012,-0.17026043396510548,-0.17225957400554426,-0.17425035886211548,-0.17623237562638042,-0.17820520913409424,-0.18016844345957386,-0.18212166333743388,-0.1840644554916403,-0.18599640986768462,-0.18791712077696954,-0.18982618796668393,-0.1917232176224507,-0.19360782330257897,-0.19547962679914932,-0.19733825892165113,-0.199183360199402,-0.20101458149611887,-0.20283158452440267,-0.2046340422468649,-0.20642163915934775,-0.20819407146586244,-0.20995104716659319,-0.21169228608304003,-0.21341751983448462,-0.21512649175803342,-0.2168189567396542,-0.218494680917067,-0.22015344123597427,-0.22179502486544503,-0.22341922848501608,-0.2250258574548605,-0.22661472488253373,-0.22818565059407434,-0.229738459998264,-0.23127298282480976,-0.2327890517344781,-0.23428650081375593,-0.23576516395702232,-0.23722487313135013,-0.23866545653372945,-0.2400867366600113,-0.2414885282882791,-0.24287063636837974,-0.24423285382807405,-0.24557495932116627,-0.24689671492738288,-0.24819786380147638,-0.24947812778756884,-0.2507372050300585,-0.25197476759636217,-0.2531904591132883,-0.25438389243441734,-0.25555464736188244,-0.25670226841547455,-0.2578262626236037,-0.25892609734031286,-0.260001198120618,-0.26105094667081014,-0.26207467887376573,-0.2630716829098994,-0.26404119751122784,-0.2649824103642638,-0.26589445665911243,-0.2667764178022497,-0.26762732032755265,-0.2684461350192594,-0.26923177624218486,-0.26998310149170385,-0.27069891118526296,-0.2713779486858415,-0.27201890052646244,-0.2726203968321213,-0.2731810119587795,-0.27369926534536343,-0.2741736225542311,-0.2746024965024023,-0.2749842489154275,-0.2753171920251969,-0.27559959051622607,-0.2758296637338927,-0.2760055881669631,-0.2761255001801698,-0.2761874989504173,-0.27618964958872455,-0.27612998645853043,-0.27600651668573833,-0.2758172238382887,-0.27556007177184555,-0.2752330086563321,-0.274833971181543,-0.2743608889233841,-0.27381168886533375,-0.2731843000770005,-0.2724766585256038,-0.27168671197803,-0.27081242497243235,-0.26985178385616243,-0.26880280186627975,-0.26766352421195333,-0.266432033142308,-0.2651064530143217,-0.26368495537643843,-0.26216576407317604,-0.2605471603760341,-0.25882748813828194,-0.25700515894361575,-0.2550786572034134,-0.2530465451762565,-0.25090746790276214,-0.2486601580397983,-0.24630344056742343,-0.24383623735421892,-0.24125757157772945,-0.23856657198488332,-0.23576247696688737,-0.23284463843558484,-0.22981252550150638,-0.2266657279472179,-0.22340395948140984,-0.22002706076594716,-0.216535002210454,-0.2129278865127802,-0.20920595091393548,-0.20536956915368634,-0.20141925313876255,-0.19735565434609695,-0.19317956498112934,-0.18889191890456233,-0.18449379232850513,-0.1799864042658533,-0.17537111670961866,-0.17064943453034628,-0.16582300509631162,-0.1608936176282347,-0.15586320229927816,-0.15073382908854713,-0.1455077063941783,-0.1401871794103575,-0.13477472827120404,-0.12927296596439272,-0.12368463602147436,-0.11801260999934157,-0.11225988476936297,-0.10642957962283696,-0.10052493319350654,-0.09454930019818276,-0.0885061479982502,-0.08239905298061091,-0.0762316967505819,-0.07000786212722172,-0.06373142893289753,-0.05740636957185828,-0.051036744398711184,-0.04462669688638875,-0.038180448607116266,-0.03170229403741962,-0.02519659520365642,-0.0186677762032545,-0.012120317644614027,-0.00555875103008446,0.0010123469132706747,0.0075883599491188124,0.014164638082318382,0.020736503342094603,0.02729925560561781,0.0338481784668702,0.040378545150403455,0.04688562447178644,0.05336468684544635,0.05981101032866446,0.0662198866832399,0.07258662744444173,0.0789065699929108,0.08517508361587396,0.09138757553700912,0.09753949690383014,0.10362634873007533,0.10964368778341978,0.11558713240219272,0.12145236823255644,0.12723515388338447,0.13293132648658124,0.13853680714342265,0.144047606246095,0.149459828668112,0.15476967880343748,0.15997346542555077,0.1650676063535872,0.1700486329328177,0.1749131943397806,0.17965806171793608,0.1842801321490825,0.1887764324576608,0.19314412282410348,0.19738050017370917,0.2014830013245004,0.2054492058959582,0.20927683897825392,0.21296377355567267,0.21650803268462035,0.21990779142814318,0.2231613785325862,0.2262672778227913,0.2292241293078346,0.23203073000316837,0.2346860344656006,0.23718915502918564,0.23953936174443316,0.2417360820386373,0.24377890011087802,0.24566755606824678,0.24740194481572494,0.24898211471290496,0.25040826599370786,0.2516807489353314,0.252800061778447,0.2537668484179774,0.2545818958804474,0.2552461315969666,0.2557606204874889,0.2561265618766894,0.2563452862513195,0.25641825186083506,0.2563470411700174,0.25613335717197094,0.25577901954863147,0.25528596065467635,0.25465622132202337,0.25389194650612623,0.25299538079413386,0.2519688637878026,0.2508148253814112,0.24953578096089282,0.24813432654020864,0.24661313384240105,0.24497494533983769,0.243222569271231,0.24135887463782338,0.2393867861712672,0.23730927927957987,0.23512937499247008,0.23285013492260573,0.23047465625191885,0.22800606675744642,0.2254475198914956,0.22280218991341497,0.2200732670598662,0.21726395275581142,0.21437745488527957,0.2114169831371787,0.20838574443402832,0.2052869384577895,0.2021237532920353,0.1988993611901198,0.19561691447090018,0.19227954155119217,0.18889034313372774,0.18545238856690957,0.18196871238693899,0.17844231105284014,0.17487613988058315,0.17127311016793367,0.1676360864936597,0.1639678841841701,0.16027126694856922,0.15654894467473704,0.15280357137214576,0.1490377432566132,0.1452539969807984,0.1414548080070913,0.13764258911293045,0.133819689026554,0.12998839119780864,0.12615091270050244,0.12230940325602684,0.11846594437582887,0.11462254862616934,0.11078115900916603,0.10694364844700084,0.10311181936563543,0.09928740338294975,0.09547206109902426,0.09166738197962362,0.08787488433186166,0.08409601537759367,0.0803321514218868,0.0765845981071003,0.07285459075090517,0.06914329477236586,0.06545180620071178,0.06178115225424597,0.05813229198624505,0.05450611700321774,0.050903452253640694,0.047325056878574454,0.043771625123433466,0.040243787316703666,0.03674211091316035,0.03326710159227922,0.029819204411307674,0.026398805023108905,0.023006230967391936,0.01964175303911896,0.016305586738651266,0.012997893804631207,0.009718783816714887,0.006468315847907756,0.0032465001572941563,5.3299927277174966e-05,-0.0031113669504184375,-0.006247626039801319,-0.009355644475099897,-0.01243562902532801,-0.015487824121680174,-0.018512509867060264,-0.02151000003720323,-0.02448064007185852,-0.027424805056258637,-0.03034289769730582,-0.033235346294778326,-0.03610260270378847,-0.038945140288891664,-0.04176345187443438,-0.044558047692598086,-0.047329453328022915,-0.05007820766259075,-0.052804860827851414,-0.055509972169160135,-0.058194108223415295,-0.06085784071793092,-0.06350174460192219,-0.06612639611659196,-0.06873237090382298,-0.07132024215529523,-0.07389057880670649,-0.07644394377919465,-0.07898089226857934,-0.08150197008790443,-0.08400771207206058,-0.08649864054911521,-0.08897526388013088,-0.09143807507429691,-0.09388755048960318,-0.09632414862348311,-0.09874830899225868,-0.10116045110099998,-0.10356097350834388,-0.10595025298486105,-0.10832864375182671,-0.11069647677766314,-0.11305405910844835,-0.11540167321968672,-0.11773957639655849,-0.12006800017047645,-0.12238714984566343,-0.12469720413520229,-0.12699831490973684,-0.129290607059178,-0.13157417846940228,-0.13384910011143084,-0.13611541623679305,-0.13837314467641673,-0.1406222772433732,-0.14286278023543617,-0.14509459502975972,-0.1473176387657444,-0.1495318051152714,-0.15173696513523588,-0.1539329681937766,-0.1561196429654758,-0.1582967984940266,-0.16046422531587884,-0.16262169663087117,-0.16476896950314862,-0.16690578607699497,-0.16903187479520046,-0.17114695161361196,-0.17325072121397758,-0.17534287822079622,-0.1774231084239892,-0.1794910900092934,-0.1815464948084244,-0.18358898958588107,-0.18561823736789848,-0.18763389880674228,-0.1896356335741531,-0.19162310178099437,-0.19359596541335808,-0.19555388976169905,-0.19749654480850018,-0.19942360653939636,-0.20133475815493249,-0.20322969117882114,-0.20510810647421748,-0.20696971518429083,-0.20881423960595577,-0.21064141399528521,-0.2124509852986378,-0.2142427138039775,-0.21601637370837265,-0.21777175359901954,-0.21950865684635576,-0.22122690190891678,-0.22292632254953967,-0.22460676795848486,-0.22626810277176343,-0.22791020697121864,-0.22953297566106257,-0.23113631872320994,-0.2327201603527328,-0.23428443847332436,-0.23582910403733431,-0.23735412021548735,-0.23885946147174003,-0.24034511251427765,-0.24181106712375072,-0.2432573268649882,-0.244683899675826,-0.24609079831984543,-0.24747803870546203,-0.24884563808627336,-0.2501936131469089,-0.25152197797053466,-0.25283074189999405,-0.25411990731974893,-0.2553894673785298,-0.2566394036643807,-0.2578696838516144,-0.2590802593360549,-0.26027106284513396,-0.26144200599441386,-0.2625929767892878,-0.26372383709405794,-0.26483442007403796,-0.26592452760193835,-0.26699392764294994,-0.2680423516514404,-0.26906949199132335,-0.27007499937541424,N,,,,,,,,,,,,,,,,,,,,,,,,,,,,,,,,,,,,,,,,,,,,,,,,,,,,,,,,,,,,,,,,,,,,,,,,,,,,,,,,,,,,,,,,,,,,,,,,,,,,,,,,,,,,,,,,,,,,,,,,,,,,,,,,,,,,,,,,,,,,,,,,,,,,,,,,,,,,,,,,,,,,,,,,,,,,,,,,,,,,,,,,,,,,,,,,,,,,,,,,,,,,,,,,,,,,,,,,,,,,,,,,,,,,,,,,,,,,,,,,,,,,,,,,,,,,,,,,,,,,,,,,,,,,,,,,,,,,,,,,,,,,,,,,,,,,,,,,,,,,,,,,,,,,,,,,,,,,,,,,,,,,,,,,,,,,,,,,,,,,,,,,,,,,,,,,,,,,,,,,,,,,,,,,,,,,,,,,,,,,,,,,,,,,,,,,,,,,,,,,,,,,,,,,,,,,,,,,,,,,,,,,,,,,,,,,,,,,,,,,,,,,,,,,,,,,,,,,,,,,,,,,,,,,,,,,,,,,,,,,,,,,,,,,,,
1,-0.027570186455230634,-0.030690224392472903,-0.03379225783221651,-0.03687677665668784,-0.0399442550467381,-0.04299514991967828,-0.046029899481187735,-0.04904892188995907,-0.052052614037143945,-0.05504135043882054,-0.05801548223648832,-0.06097533630471906,-0.06392121446848824,-0.0668533928288495,-0.06977212119304776,-0.07267762261048039,-0.07557009301958051,-0.0784497010043016,-0.08131658764945948,-0.08417086648051514,-0.08701262347455424,-0.08984191713238426,-0.09265877860847904,-0.09546321190523921,-0.09825519414193817,-0.10103467590262649,-0.10380158166207615,-0.1065558102926018,-0.1092972356576114,-0.1120257072917967,-0.11474105116218167,-0.11744307050696798,-0.12013154675202706,-0.12280624050080555,-0.1254668925906781,-0.1281132252139828,-0.1307449431055729,-0.1333617347941603,-0.13596327391427993,-0.13854922058679914,-0.14111922288152784,-0.14367291836142101,-0.14620993568524374,-0.14872989623107222,-0.1512324157022805,-0.15371710568876956,-0.15618357517260156,-0.15863143198100987,-0.1610602841944298,-0.1634697415135186,-0.16585941659006845,-0.16822892633823197,-0.17057789324772035,-0.17290594670770587,-0.17521272433516277,-0.1774978732997775,-0.1797610516403566,-0.18200192956443806,-0.18422019072089946,-0.18641553344133166,-0.1885876719502798,-0.19073633753872798,-0.19286127968644873,-0.19496226711582987,-0.1970390887616188,-0.19909155464483452,-0.20111949664654083,-0.20312276918753058,-0.20510124982447264,-0.2070548397675598,-0.208983464320067,-0.21088707324452552,-0.2127656410637512,-0.21461916729951633,-0.21644767664643047,-0.21825121908176068,-0.22002986991524606,-0.2217837297782532,-0.22351292454436208,-0.22521760517097864,-0.2268979474530883,-0.22855415168256885,-0.23018644220856618,-0.23179506689631887,-0.23338029648350342,-0.23494242383383393,-0.23648176308491356,-0.23799864868182322,-0.23949343428697448,-0.24096649156264693,-0.2424182088229866,-0.24384898954122558,-0.24525925069383503,-0.24664942093800282,-0.24801993863196062,-0.24937124970309113,-0.2507038053643727,-0.2520180596909864,-0.25331446707830046,-0.2545934795952351,-0.2558555442409824,-0.25710110012298315,-0.25833057558221373,-0.25954438528348744,-0.2607429272814027,-0.26192658007951297,-0.26309569969780355,-0.26425061673836714,-0.2653916334266151,-0.2665190206297379,-0.267633014879253,-0.26873381541870517,-0.26982158128784023,-0.27089642846567846,-0.27195842709915835,-0.27300759882082154,-0.2740439141444561,-0.2750672899482207,-0.2760775870724921,-0.27707460804358996,-0.2780580949203326,-0.2790277272772153,-0.2799831203477455,-0.2809238233253711,-0.2818493178018174,-0.28275901634821066,-0.2836522612695892,-0.28452832355004565,-0.28538640199025933,-0.28622562255292555,-0.2870450379345814,-0.28784362734654584,-0.28862029646621096,-0.28937387755162414,-0.2901031297427519,-0.29080673955574565,-0.29148332155807055,-0.29213141923311164,-0.2927495060564979,-0.29333598677596523,-0.29388919886464765,-0.29440741414595084,-0.2948888406142659,-0.2953316244550187,-0.29573385224735727,-0.29609355335582144,-0.2964087025409622,-0.29667722280335573,-0.2968969884573617,-0.29706582844246554,-0.2971815298817807,-0.2972418418610997,-0.29724447937937193,-0.29718712744961956,-0.29706744535211466,-0.29688307101502603,-0.29663162547644556,-0.2963107174125393,-0.2959179477497041,-0.2954509143671345,-0.29490721687891247,-0.2942844614987229,-0.29358026599828524,-0.29279226474232767,-0.29191811376284493,-0.2909554958577684,-0.2899021257178251,-0.2887557550627246,-0.28751417774908566,-0.2861752348362441,-0.28473681961993114,-0.2831968826295008,-0.28155343656832277,-0.27980456119437325,-0.2779484081598732,-0.2759832058241828,-0.2739072640424619,-0.27171897893380675,-0.26941683762587293,-0.2669994229449448,-0.2644654180048131,-0.26181361066789355,-0.259042897872373,-0.25615228980969273,-0.25314091392555416,-0.25000801873188494,-0.24675297743324243,-0.24337529136541147,-0.23987459323511628,-0.23625065015539373,-0.23250336647183936,-0.22863278635658948,-0.22463909613605196,-0.22052262633579148,-0.21628385344818138,-0.2119234014313073,-0.20744204294247673,-0.20284070031083795,-0.19812044625117536,-0.19328250430745214,-0.18832824900708273,-0.1832592057175721,-0.1780770502096462,-0.17278360792994468,-0.1673808529821716,-0.16187090682057487,-0.1562560366679076,-0.15053865367281544,-0.14472131081977252,-0.13880670060311412,-0.13279765247942604,-0.12669713011878442,-0.12050822847627601,-0.1142341706964938,-0.10787830485567909,-0.10144410054699052,-0.09493514531575911,-0.08835514094631805,-0.08170789959838473,-0.07499733979556986,-0.06822748227182782,-0.06140244567696246,-0.05452644214190144,-0.047603772715757,-0.040638822692672105,-0.03363605683370047,-0.026600014470984173,-0.019535304474329496,-0.012446600062249513,-0.005338633445377272,0.0017838096971430693,0.008915895889447328,0.01605274965242045,0.023189459402894644,0.03032108345143497,0.037442656083907455,0.044549193705669704,0.051635701036777656,0.0586971773538527,0.06572862276459361,0.07272504449358445,0.07968146316867171,0.08659291910668228,0.09345447858943375,0.10026124011377109,0.10700834060731214,0.11369096160477311,0.12030433536404718,0.12684375089170488,0.13330455986420134,0.13968218245174815,0.14597211305388838,0.15216992595050718,0.15827128087197043,0.1642719284844071,0.1701677157641245,0.17595459122453996,0.1816286099765308,0.18718593862194205,0.19262285997664214,0.1979357776126564,0.20312122021699958,0.20817584577085774,0.2130964455421091,0.21787994787603854,0.22252342177825712,0.22702408028880716,0.23137928363161164,0.23558654211404118,0.23964351876696643,0.2435480317315143,0.24729805639292024,0.2508917272543495,0.2543273395531882,0.25760335063100603,0.2607183810599407,0.26367121552056205,0.2664608034337094,0.26908625935094727,0.2715468630911246,0.27384205960059077,0.2759714585320081,0.27793483355609516,0.27973212141839987,0.2813634207465394,0.2828289906190061,0.28412924890655866,0.28526477037883546,0.286236284558521,0.28704467332244127,0.28769096826737367,0.28817634785460916,0.2885021343400683,0.28866979050467884,0.28868091620622177,0.2885372447641949,0.28824063918117687,0.2877930882104064,0.2871967022763492,0.28645370922961655,0.28556644990503666,0.2845373734779285,0.283369032647247,0.2820640786823697,0.2806252563651518,0.2790553988586735,0.27735742253021245,0.2755343217409345,0.2735891636055945,0.2715250827336767,0.26934527597010083,0.26705299714412456,0.2646515518271356,0.2621442921083899,0.2595346114046578,0.25682593931043135,0.2540217364875799,0.25112548960168773,0.24814070631853596,0.2450709103636693,0.2419196366399326,0.23869042640602467,0.235386822519157,0.23201236472196174,0.2285705849418641,0.2250650025951311,0.22149911991544904,0.21787641732735866,0.2142003488776212,0.21047433774548824,0.2067017718632304,0.20288599967566495,0.19903032606077448,0.1951380084322141,0.19121225303835923,0.18725621145567586,0.18327297726490124,0.17926558290852662,0.17523699673705967,0.1711901202433012,0.1671277854763084,0.1630527526352281,0.15896770785021383,0.1548752611484415,0.15077794459556268,0.14667821061051733,0.14257843045385077,0.13848089287252896,0.1343878028742559,0.1303012806214038,0.12622336045308205,0.1221559900400854,0.11810102967015038,0.11406025166873951,0.11003533996693099,0.10602788981816275,0.10203940765731995,0.09807131110455386,0.09412492912689868,0.09020150236785357,0.08630218364905368,0.08242803864938927,0.07858004676437955,0.0747591021348196,0.07096601482568168,0.06720151214547698,0.06346624010399665,0.05976076499780469,0.056085575105805356,0.052441082487248596,0.048827624886293435,0.0452454677453643,0.04169480632444577,0.03817576792559287,0.03468841422022364,0.031232743663760682,0.027808693974889654,0.024416144667462406,0.021054919635501046,0.017724789790501017,0.014425475745726833,0.011156650546729012,0.00791794245506292,0.0047089377943725415,0.0015291838655081393,-0.0016218080676549905,-0.004744559731106437,-0.007839622757666075,-0.010907575599617433,-0.0139490204574837,-0.016964580233225484,-0.01995489551675615,-0.02292062161780668,-0.025862425651213557,-0.028780983684384205,-0.03167697796833393,-0.034551094279824716,-0.03740401938837211,-0.040236438645467096,-0.043049033691217334,-0.04584248027660949,-0.04861744619650425,-0.05137458932595286,-0.05411455575718134,-0.056837978038563094,-0.05954547351457994,-0.062237642768567684,-0.06491506818381121,-0.06757831264498809,-0.0702279183884752,-0.0728644059945533,-0.07548827351387954,-0.07809999572414478,-0.08070002350951186,-0.08328878335609455,-0.08586667696882191,-0.08843408102154285,-0.09099134703978032,-0.09353880139766904,-0.0960767454033852,-0.09860545544913693,-0.10112518320643973,-0.10363615585559546,-0.10613857634931254,-0.10863262371549007,-0.11111845340002752,-0.11359619765040302,-0.11606596595212354,-0.11852784553598777,-0.12098190196103781,-0.12342817975962633,-0.12586670312327458,-0.1282974766092711,-0.1307204858520057,-0.13313569827000696,-0.13554306376896433,-0.1379425154453693,-0.14033397029133843,-0.1427173298977774,-0.14509248115701423,-0.1474592969693025,-0.14981763695364292,-0.15216734816073618,-0.1545082657911523,-0.1568402139254429,-0.15916300626753999,-0.16147644689826124,-0.16378033104012246,-0.16607444583825692,-0.16835857115599684,-0.17063248037441003,-0.1728959411815838,-0.1751487163387967,-0.17739056441203782,-0.17962124045455485,-0.18184049661998525,-0.18404808268494144,-0.18624374647090158,-0.18842723417273477,-0.19059829061568723,-0.19275665946632137,-0.19490208341528256,-0.19703430434250988,-0.19915306347676673,-0.20125810156291588,-0.20334915904399584,-0.20542597625635647,-0.20748829363218876,-0.20953585190398058,-0.21156839230752952,-0.2135856567859957,-0.21558738820635878,-0.21757333060278314,-0.21954322945174776,-0.22149683196416736,-0.22343388736022407,-0.22535414708843404,-0.2272573649680729,-0.22914329725991786,-0.2310117026876741,-0.23286234243580892,-0.23469498013993476,-0.23650938186752793,-0.23830531606817054,-0.2400825534675284,-0.24184086689232623,-0.24358003102739637,-0.24529982210659365,-0.24700001753730064,-0.24868039546235296,-0.2503407342598788,-0.25198081196395405,-0.2536004055814619,-0.2551992902981281,-0.2567772385815554,-0.2583340191797882,-0.25986939600636977,-0.2613831269172993,-0.2628749623926397,-0.2643446441151896,-0.2657919034267258,-0.2672164596663694,-0.26861801842046795,-0.26999626970736157,-0.27135088611043956,-0.27268152088314046,-0.27398780605038053,-0.2752693505022158,-0.27652573805929925,-0.27775652551483215,-0.2789612406779804,-0.280139380423094,-0.2812904087326146,-0.28241375474723296,-0.2835088108621586,-0.28457493089505403,-0.28561142833571074,-0.28661757470246435,-0.28759259803899545,-0.2885356815586752,-0.28944596242482795,-0.2903225306761707,-0.2911644283198191,-0.29197064858417526,-0.2927401353031193,-0.2934717824324533,-0.2941644337274212,-0.29481688259153294,-0.2954278720878303,-0.29599609512410135,-0.2965201948368305,-0.2969987651679415,-0.2974303516061813,-0.2978134520923318,-0.2981465181100652,-0.29842795595795446,-0.29865612817619647,-0.2988293551282756,-0.2989459167598282,-0.2990040545301441,-0.2990019734893413,-0.29893784450239175,-0.29880980665184537,-0.2986159698387229,-0.2983544175828034,-0.2980232100341623,-0.29762038720879,-0.2971439724242587,-0.29659197588830655,-0.2959623984218411,-0.29525323532511777,-0.2944624803768851,-0.293588129937061,-0.292628187145971,-0.2915806662364883,-0.2904435969611709,-0.2892150291196322,-0.2878930371842448,-0.2864757250313988,-0.28496123076299035,-0.2833477315854012,-0.28163344872979207,-0.27981665240862325,-0.27789566677856287,-0.27586887486231376,-0.27373472340583815,-0.27149172767096064,-0.2691384761495753,-0.26667363517093057,-0.2640959533914495,-0.261404266175605,-0.25859749986627206,-0.2556746759304282,-0.2526349149752026,-0.2494774406321008,-0.24620158328313752,-0.24280678358763114,-0.2392925957908851,-0.235658690823046,-0.23190485919579437,-0.22803101369573683,-0.22403719187891558,-0.21992355837538058,-0.21569040700149322,-0.21133816266827232,-0.20686738308153638,-0.202278760236531,-0.19757312170125527,-0.19275143167508088,-0.18781479181820956,-0.1827644418618319,-0.17760176001388214,-0.1723282631725089,-0.16694560695336558,-0.16145558552431305,-0.1558601312234168,-0.15016131392926224,-0.14436134016607882,-0.13846255194518875,-0.13246742535278033,-0.1263785688935951,-0.12019872159790156,-0.11393075089730319,-0.10757765027346232,-0.10114253668267702,-0.094628647758399,-0.08803933879319352,-0.0813780795012901,-0.07464845056273016,-0.06785413995201875,-0.060998939063348544,-0.054086738659521315,-0.04712152467652649,-0.04010737390166082,-0.03304844952717666,-0.025948996579164264,-0.01881333722368785,-0.011645865950354646,-0.004451044639566247,0.002766602460974691,0.010002493816540482,0.017251995727087698,0.024510427497406766,0.03177306666619181,0.03903515430033201,0.04629190036258236,0.053538489158640935,0.06077008485611549,0.06798183705991438,0.0751688864377756,0.08232637039719905,0.08944942880624109,0.09653320974323877,0.10357287526847188,0.11056360721392057,0.11750061297151028,0.12437913125063739,0.1311944377912554,0.13794185103445367,0.14461673774636274,0.15121451858336443,0.15773067359582763,0.16416074767585845,0.17050035594564286,0.17674518907477846,0.18289101852209874,0.18893370169994902,0.19486918704254472,0.2006935189500023,0.20640284259410693,0.21199340858403906,0.2174615774786838,0.22280382412263192,0.22801674179785297,0.2330970461988467,0.23804157923380315,0.24284731264644527,0.24751135145975042,0.252030937244051,0.2564034511940745,0.2606264169888264,0.2646975034247837,0.26861452683084874,0.2723754532694028,0.27597840052026423,0.2794216398520178,0.28270359759150027,0.2858228564924397,0.28877815689610614,0.2915683976840588,0.29419263702505,0.2966500929008446,0.2989401433856626,0.3010623266710842,0.30301634084677126,0.30480204344374645,0.30641945073989213,0.3078687368345711,0.30915023250189905,0.3102644238160694,0.3112119505323118,0.31199360422346156,0.31261032619265705,0.3130632051846963,0.3133534749132688,0.313482511421445,0.3134518302860141,0.3132630836556689,0.3129180571029406,0.3124186662850027,0.31176695342066074,0.3109650835787049,0.3100153407636165,0.30892012380258055,0.3076819420609392,0.30630341101737685,0.3047872477251499,0.30313626618499584,0.30135337265046885,0.29944156087136026,0.2974039072723917,0.29524356607338864,0.2929637643646631,0.2905677971426087,0.2880590223032905,0.2854408556008423,0.2827167655850058,0.2798902685234099,0.276964923306948,0.2739443263445952,0.2708321064566076,0.26763191975823564,0.264347444516407,0.26098237597922297,0.25754042119677606,0.2540252938482311,0.2504407090829868,0.24679037839185158,0.243078004531463,0.23930727651678863,0.23548186468874477,0.2316054158714972,0.22768154864281953,0.22371384873708255,0.21970586459431451,0.21566110306822422,0.21158302529460843,0.2074750426930671,0.20334051306251205,0.1991827367566161,0.1950049529584714,0.19081033608276707,0.1866019923294195,0.18238295641130306,0.1781561884725716,0.17392457119716184,0.1696909070977267,0.1654579159846814,0.16122823262150932,0.15700440456013076,0.15278889014128472,0.14858405665851418,0.1443921787017696,0.14021543669799177,0.13605591566074007,0.13191560416049303,0.12779639352255318,0.12370007724454528,0.11962835061714454,0.11558281054094133,0.1115649555407423,0.10757618597125462,0.10361780440129631,0.09969101617113461,0.09579693012238415,0.09193655948893369,0.08811082292968146,0.08432054569457925,0.08056646092579556,0.07684921108937876,0.07316934952607951,0.06952734211852415,0.06592356908236166,0.06235832688731711,0.05883183030909698,0.0553442146137177,0.05189553787214308,0.04848578338913168,0.045114862222750664,0.04178261578097248,0.03848881849016315,0.03523318052234984,0.0320153505616809,0.028834918601228426,0.025691418774336904,0.022584332224613545,0.01951309001436485,0.01647707607237028,0.013475630178626654,0.010508050970110979,0.007573598944534323,0.004671499450206963,0.0018009456629146776,-0.0010388984502359287,-0.003848895184265964,-0.0066299301673870105,-0.009382909446093927,-0.01210875658501245,-0.014808409786535904,-0.01748281903225525,-0.020132943245695062,-0.022759747480628742,-0.025364200143198443,-0.027947270251668307,-0.030509924730593094,-0.03305312573380968,-0.03557782799221128,-0.038084976185371884,-0.040575502342136534,-0.043050323283691024,-0.045510338126074724,-0.047956425854309856,-0.0503894429768585,-0.05281022127356934,-0.055219565653109134,-0.05761825212969312,-0.060007025923621775,-0.06238659969374404,-0.06475765191281312,-0.06712082538972229,-0.06947672593263153,-0.07182592114279694,-0.0741689393295905,-0.07650626853972105,-0.07883835569921722,-0.0811656058747124,-0.08348838166367818,-0.08580700271801937,-0.08812174540095884,-0.09043284258010696,-0.09274048356195562,-0.09504481416805616,-0.09734593694890575,-0.09964391153477742,-0.10193875512531564,-0.10423044311514414,-0.10651890984954206,-0.10880404950902041,-0.11108571712483424,-0.11336372972152878,-0.11563786757694874,-0.11790787559290009,-0.1201734647726164,-0.12243431379716634,-0.12469007069028464,-0.12694035456639943,-0.12918475746032568,-0.1314228462307844,-0.13365416452061588,-0.1358782347530544,-0.13809456014481683,-0.1403026267199966,-0.1425019053150245,-0.1446918535736561,-0.1468719179347726,-0.14904153561227693,-0.15120013656747863,-0.15334714548605285,-0.1554819837770793,-0.1576040715980732,-0.15971282989103283,-0.1618076824064166,-0.1638880576929523,-0.1659533910360242,-0.16800312633908937,-0.1700367179598195,-0.1720536325193575,-0.17405335069056696,-0.17603536895655106,-0.1779992013294909,-0.17994438102300817,-0.18187046206735927,-0.18377702085028827,-0.18566365756461647,-0.18752999754587732,-0.18937569248713515,-0.1912004215249351,-0.1930038921995233,-0.19478584129674326,-0.19654603557489445,-0.1982842723764153,-0.2000003801282295,-0.20169421873789736,-0.2033656798877965,-0.20501468722210167,-0.2066411964186596,-0.20824519513920278,-0.20982670285450752,-0.21138577054792937,-0.21292248031052005,-0.2144369448448806,-0.2159293068878507,-0.21739973855212155,-0.2188484405826576,-0.2202756415245126,-0.22168159679933971,-0.2230665876845561,-0.22443092018247143,-0.2257749237655233,-0.22709894999158167,-0.22840337098731214,-0.2296885777902873,-0.2309549785374703,-0.23220299649954929,-0.23343306796997293,-0.23464564001117222,-0.23584116805599015,-0.23702011337407392,-0.23818294042346544,-0.23933011410201166,-0.2404620969078266,-0.24157934602678335,-0.24268231037150004,-0.24377142758724593,-0.2448471210332598,-0.2459097967554029,-0.24695984046468575,-0.24799761451262678,-0.24902345484248853,-0.2500376679176249,-0.25104052764674584,-0.25203227231141884,-0.2530131014891293,-0.2539831729854247,-0.25494259980606504,-0.2558914471851217,-0.25682972967168305,-0.25775740829406146,-0.25867438782962826,-0.2595805141832319,-0.2604755718602867,-0.26135928154626736,-0.2622312978329831,-0.2630912071261287,-0.263938525755737,-0.26477269831716116,-0.2655930962638879,-0.26639901673532757,-0.2671896815819849,-0.2679642365805132,-0.2687217508596151,-0.26946121654109895,-0.27018154858300364,-0.2708815848330298,-0.27156008631801687,-0.2722157377726985,-0.27284714839206303,-0.27345285281170195,-0.2740313123336042,-0.27458091638537385,-0.27509998417972303,-0.275586766568018,-0.2760394481039778,-0.27645614930847356,-0.27683492910541924,-0.27717378742490945,-0.2774706679914119,-0.2777234612890725,-0.27793000767471404,-0.27808810063651335,-0.27819549022574763,-0.278249886676302,-0.2782489642088538,-0.27819036502806527,-0.278071703523465,-0.2778905706496859,-0.27764453843948944,-0.2773311646308216,-0.27694799741572157,-0.27649258030073603,-0.27596245704992634,-0.27535517670118026,-0.2746682986594019,-0.27389939784065687,-0.2730460698203917,-0.2721059359686333,-0.27107664859008707,-0.26995589608256787,-0.2687414081129187,-0.26743096081628304,-0.2660223820231107,-0.26451355648698427,-0.2629024310673025,-0.2611870198437604,-0.25936540915880973,-0.2574357625636598,-0.25539632562646924,-0.2532454305864084,-0.2509815008663669,-0.24860305545257816,-0.24610871313734667,-0.2434971966280557,-0.24076733652656834,-0.23791807515871577,-0.23494847021822118,-0.23185769820808605,-0.2286450576782178,-0.22530997224140165,-0.22185199333610922,-0.21827080272561783,-0.21456621474867188,-0.21073817833648711,-0.20678677880221985,-0.20271223941306651,-0.1985149227577057,-0.1941953319095258,-0.18975411137656065,-0.18519204783737137,-0.18051007067312647,-0.17570925230434203,N
2,-0.028780983684384205,-0.03167697796833393,-0.034551094279824716,-0.03740401938837211,-0.040236438645467096,-0.043049033691217334,-0.04584248027660949,-0.04861744619650425,-0.05137458932595286,-0.05411455575718134,-0.056837978038563094,-0.05954547351457994,-0.062237642768567684,-0.06491506818381121,-0.06757831264498809,-0.0702279183884752,-0.0728644059945533,-0.07548827351387954,-0.07809999572414478,-0.08070002350951186,-0.08328878335609455,-0.08586667696882191,-0.08843408102154285,-0.09099134703978032,-0.09353880139766904,-0.0960767454033852,-0.09860545544913693,-0.10112518320643973,-0.10363615585559546,-0.10613857634931254,-0.10863262371549007,-0.11111845340002752,-0.11359619765040302,-0.11606596595212354,-0.11852784553598777,-0.12098190196103781,-0.12342817975962633,-0.12586670312327458,-0.1282974766092711,-0.1307204858520057,-0.13313569827000696,-0.13554306376896433,-0.1379425154453693,-0.14033397029133843,-0.1427173298977774,-0.14509248115701423,-0.1474592969693025,-0.14981763695364292,-0.15216734816073618,-0.1545082657911523,-0.1568402139254429,-0.15916300626753999,-0.16147644689826124,-0.16378033104012246,-0.16607444583825692,-0.16835857115599684,-0.17063248037441003,-0.1728959411815838,-0.1751487163387967,-0.17739056441203782,-0.17962124045455485,-0.18184049661998525,-0.18404808268494144,-0.18624374647090158,-0.18842723417273477,-0.19059829061568723,-0.19275665946632137,-0.19490208341528256,-0.19703430434250988,-0.19915306347676673,-0.20125810156291588,-0.20334915904399584,-0.20542597625635647,-0.20748829363218876,-0.20953585190398058,-0.21156839230752952,-0.2135856567859957,-0.21558738820635878,-0.21757333060278314,-0.21954322945174776,-0.22149683196416736,-0.22343388736022407,-0.22535414708843404,-0.2272573649680729,-0.22914329725991786,-0.2310117026876741,-0.23286234243580892,-0.23469498013993476,-0.23650938186752793,-0.23830531606817054,-0.2400825534675284,-0.24184086689232623,-0.24358003102739637,-0.24529982210659365,-0.24700001753730064,-0.24868039546235296,-0.2503407342598788,-0.25198081196395405,-0.2536004055814619,-0.2551992902981281,-0.2567772385815554,-0.2583340191797882,-0.25986939600636977,-0.2613831269172993,-0.2628749623926397,-0.2643446441151896,-0.2657919034267258,-0.2672164596663694,-0.26861801842046795,-0.26999626970736157,-0.27135088611043956,-0.27268152088314046,-0.27398780605038053,-0.2752693505022158,-0.27652573805929925,-0.27775652551483215,-0.2789612406779804,-0.280139380423094,-0.2812904087326146,-0.28241375474723296,-0.2835088108621586,-0.28457493089505403,-0.28561142833571074,-0.28661757470246435,-0.28759259803899545,-0.2885356815586752,-0.28944596242482795,-0.2903225306761707,-0.2911644283198191,-0.29197064858417526,-0.2927401353031193,-0.2934717824324533,-0.2941644337274212,-0.29481688259153294,-0.2954278720878303,-0.29599609512410135,-0.2965201948368305,-0.2969987651679415,-0.2974303516061813,-0.2978134520923318,-0.2981465181100652,-0.29842795595795446,-0.29865612817619647,-0.2988293551282756,-0.2989459167598282,-0.2990040545301441,-0.2990019734893413,-0.29893784450239175,-0.29880980665184537,-0.2986159698387229,-0.2983544175828034,-0.2980232100341623,-0.29762038720879,-0.2971439724242587,-0.29659197588830655,-0.2959623984218411,-0.29525323532511777,-0.2944624803768851,-0.293588129937061,-0.292628187145971,-0.2915806662364883,-0.2904435969611709,-0.2892150291196322,-0.2878930371842448,-0.2864757250313988,-0.28496123076299035,-0.2833477315854012,-0.28163344872979207,-0.27981665240862325,-0.27789566677856287,-0.27586887486231376,-0.27373472340583815,-0.27149172767096064,-0.2691384761495753,-0.26667363517093057,-0.2640959533914495,-0.261404266175605,-0.25859749986627206,-0.2556746759304282,-0.2526349149752026,-0.2494774406321008,-0.24620158328313752,-0.24280678358763114,-0.2392925957908851,-0.235658690823046,-0.23190485919579437,-0.22803101369573683,-0.22403719187891558,-0.21992355837538058,-0.21569040700149322,-0.21133816266827232,-0.20686738308153638,-0.202278760236531,-0.19757312170125527,-0.19275143167508088,-0.18781479181820956,-0.1827644418618319,-0.17760176001388214,-0.1723282631725089,-0.16694560695336558,-0.16145558552431305,-0.1558601312234168,-0.15016131392926224,-0.14436134016607882,-0.13846255194518875,-0.13246742535278033,-0.1263785688935951,-0.12019872159790156,-0.11393075089730319,-0.10757765027346232,-0.10114253668267702,-0.094628647758399,-0.08803933879319352,-0.0813780795012901,-0.07464845056273016,-0.06785413995201875,-0.060998939063348544,-0.054086738659521315,-0.04712152467652649,-0.04010737390166082,-0.03304844952717666,-0.025948996579164264,-0.01881333722368785,-0.011645865950354646,-0.004451044639566247,0.002766602460974691,0.010002493816540482,0.017251995727087698,0.024510427497406766,0.03177306666619181,0.03903515430033201,0.04629190036258236,0.053538489158640935,0.06077008485611549,0.06798183705991438,0.0751688864377756,0.08232637039719905,0.08944942880624109,0.09653320974323877,0.10357287526847188,0.11056360721392057,0.11750061297151028,0.12437913125063739,0.1311944377912554,0.13794185103445367,0.14461673774636274,0.15121451858336443,0.15773067359582763,0.16416074767585845,0.17050035594564286,0.17674518907477846,0.18289101852209874,0.18893370169994902,0.19486918704254472,0.2006935189500023,0.20640284259410693,0.21199340858403906,0.2174615774786838,0.22280382412263192,0.22801674179785297,0.2330970461988467,0.23804157923380315,0.24284731264644527,0.24751135145975042,0.252030937244051,0.2564034511940745,0.2606264169888264,0.2646975034247837,0.26861452683084874,0.2723754532694028,0.27597840052026423,0.2794216398520178,0.28270359759150027,0.2858228564924397,0.28877815689610614,0.2915683976840588,0.29419263702505,0.2966500929008446,0.2989401433856626,0.3010623266710842,0.30301634084677126,0.30480204344374645,0.30641945073989213,0.3078687368345711,0.30915023250189905,0.3102644238160694,0.3112119505323118,0.31199360422346156,0.31261032619265705,0.3130632051846963,0.3133534749132688,0.313482511421445,0.3134518302860141,0.3132630836556689,0.3129180571029406,0.3124186662850027,0.31176695342066074,0.3109650835787049,0.3100153407636165,0.30892012380258055,0.3076819420609392,0.30630341101737685,0.3047872477251499,0.30313626618499584,0.30135337265046885,0.29944156087136026,0.2974039072723917,0.29524356607338864,0.2929637643646631,0.2905677971426087,0.2880590223032905,0.2854408556008423,0.2827167655850058,0.2798902685234099,0.276964923306948,0.2739443263445952,0.2708321064566076,0.26763191975823564,0.264347444516407,0.26098237597922297,0.25754042119677606,0.2540252938482311,0.2504407090829868,0.24679037839185158,0.243078004531463,0.23930727651678863,0.23548186468874477,0.2316054158714972,0.22768154864281953,0.22371384873708255,0.21970586459431451,0.21566110306822422,0.21158302529460843,0.2074750426930671,0.20334051306251205,0.1991827367566161,0.1950049529584714,0.19081033608276707,0.1866019923294195,0.18238295641130306,0.1781561884725716,0.17392457119716184,0.1696909070977267,0.1654579159846814,0.16122823262150932,0.15700440456013076,0.15278889014128472,0.14858405665851418,0.1443921787017696,0.14021543669799177,0.13605591566074007,0.13191560416049303,0.12779639352255318,0.12370007724454528,0.11962835061714454,0.11558281054094133,0.1115649555407423,0.10757618597125462,0.10361780440129631,0.09969101617113461,0.09579693012238415,0.09193655948893369,0.08811082292968146,0.08432054569457925,0.08056646092579556,0.07684921108937876,0.07316934952607951,0.06952734211852415,0.06592356908236166,0.06235832688731711,0.05883183030909698,0.0553442146137177,0.05189553787214308,0.04848578338913168,0.045114862222750664,0.04178261578097248,0.03848881849016315,0.03523318052234984,0.0320153505616809,0.028834918601228426,0.025691418774336904,0.022584332224613545,0.01951309001436485,0.01647707607237028,0.013475630178626654,0.010508050970110979,0.007573598944534323,0.004671499450206963,0.0018009456629146776,-0.0010388984502359287,-0.003848895184265964,-0.0066299301673870105,-0.009382909446093927,-0.01210875658501245,-0.014808409786535904,-0.01748281903225525,-0.020132943245695062,-0.022759747480628742,-0.025364200143198443,-0.027947270251668307,-0.030509924730593094,-0.03305312573380968,-0.03557782799221128,-0.038084976185371884,-0.040575502342136534,-0.043050323283691024,-0.045510338126074724,-0.047956425854309856,-0.0503894429768585,-0.05281022127356934,-0.055219565653109134,-0.05761825212969312,-0.060007025923621775,-0.06238659969374404,-0.06475765191281312,-0.06712082538972229,-0.06947672593263153,-0.07182592114279694,-0.0741689393295905,-0.07650626853972105,-0.07883835569921722,-0.0811656058747124,-0.08348838166367818,-0.08580700271801937,-0.08812174540095884,-0.09043284258010696,-0.09274048356195562,-0.09504481416805616,-0.09734593694890575,-0.09964391153477742,-0.10193875512531564,-0.10423044311514414,-0.10651890984954206,-0.10880404950902041,-0.11108571712483424,-0.11336372972152878,-0.11563786757694874,-0.11790787559290009,-0.1201734647726164,-0.12243431379716634,-0.12469007069028464,-0.12694035456639943,-0.12918475746032568,-0.1314228462307844,-0.13365416452061588,-0.1358782347530544,-0.13809456014481683,-0.1403026267199966,-0.1425019053150245,-0.1446918535736561,-0.1468719179347726,-0.14904153561227693,-0.15120013656747863,-0.15334714548605285,-0.1554819837770793,-0.1576040715980732,-0.15971282989103283,-0.1618076824064166,-0.1638880576929523,-0.1659533910360242,-0.16800312633908937,-0.1700367179598195,-0.1720536325193575,-0.17405335069056696,-0.17603536895655106,-0.1779992013294909,-0.17994438102300817,-0.18187046206735927,-0.18377702085028827,-0.18566365756461647,-0.18752999754587732,-0.18937569248713515,-0.1912004215249351,-0.1930038921995233,-0.19478584129674326,-0.19654603557489445,-0.1982842723764153,-0.2000003801282295,-0.20169421873789736,-0.2033656798877965,-0.20501468722210167,-0.2066411964186596,-0.20824519513920278,-0.20982670285450752,-0.21138577054792937,-0.21292248031052005,-0.2144369448448806,-0.2159293068878507,-0.21739973855212155,-0.2188484405826576,-0.2202756415245126,-0.22168159679933971,-0.2230665876845561,-0.22443092018247143,-0.2257749237655233,-0.22709894999158167,-0.22840337098731214,-0.2296885777902873,-0.2309549785374703,-0.23220299649954929,-0.23343306796997293,-0.23464564001117222,-0.23584116805599015,-0.23702011337407392,-0.23818294042346544,-0.23933011410201166,-0.2404620969078266,-0.24157934602678335,-0.24268231037150004,-0.24377142758724593,-0.2448471210332598,-0.2459097967554029,-0.24695984046468575,-0.24799761451262678,-0.24902345484248853,-0.2500376679176249,-0.25104052764674584,-0.25203227231141884,-0.2530131014891293,-0.2539831729854247,-0.25494259980606504,-0.2558914471851217,-0.25682972967168305,-0.25775740829406146,-0.25867438782962826,-0.2595805141832319,-0.2604755718602867,-0.26135928154626736,-0.2622312978329831,-0.2630912071261287,-0.263938525755737,-0.26477269831716116,-0.2655930962638879,-0.26639901673532757,-0.2671896815819849,-0.2679642365805132,-0.2687217508596151,-0.26946121654109895,-0.27018154858300364,-0.2708815848330298,-0.27156008631801687,-0.2722157377726985,-0.27284714839206303,-0.27345285281170195,-0.2740313123336042,-0.27458091638537385,-0.27509998417972303,-0.275586766568018,-0.2760394481039778,-0.27645614930847356,-0.27683492910541924,-0.27717378742490945,-0.2774706679914119,-0.2777234612890725,-0.27793000767471404,-0.27808810063651335,-0.27819549022574763,-0.278249886676302,-0.2782489642088538,-0.27819036502806527,-0.278071703523465,-0.2778905706496859,-0.27764453843948944,-0.2773311646308216,-0.27694799741572157,-0.27649258030073603,-0.27596245704992634,-0.27535517670118026,-0.2746682986594019,-0.27389939784065687,-0.2730460698203917,-0.2721059359686333,-0.27107664859008707,-0.26995589608256787,-0.2687414081129187,-0.26743096081628304,-0.2660223820231107,-0.26451355648698427,-0.2629024310673025,-0.2611870198437604,-0.25936540915880973,-0.2574357625636598,-0.25539632562646924,-0.2532454305864084,-0.2509815008663669,-0.24860305545257816,-0.24610871313734667,-0.2434971966280557,-0.24076733652656834,-0.23791807515871577,-0.23494847021822118,-0.23185769820808605,-0.2286450576782178,-0.22530997224140165,-0.22185199333610922,-0.21827080272561783,-0.21456621474867188,-0.21073817833648711,-0.20678677880221985,-0.20271223941306651,-0.1985149227577057,-0.1941953319095258,-0.18975411137656065,-0.18519204783737137,-0.18051007067312647,-0.17570925230434203,-0.17079080833509336,-0.16575609750837778,-0.16060662147632726,-0.15534402438151967,-0.14997009224021557,-0.1444867521224885,-0.1388960711284751,-0.13320025515615438,-0.1274016474523658,-0.12150272694336282,-0.11550610634855706,-0.10941453008390077,-0.10323087196031143,-0.09695813268170722,-0.0905994371499626,-0.0841580315897637,-0.07763728050759705,-0.0710406634934482,-0.06437177187312329,-0.057634305229369825,-0.050832067814274934,-0.043968964860985255,-0.03704899878331369,-0.03007626524331611,-0.023054949067736395,-0.015989319999900456,-0.008883728289561339,-0.0017426001473984988,0.005429566900068876,0.012628208738481816,0.0198486994833188,0.027086356399053373,0.03433644492800846,0.04159418383773512,0.048854750491872136,0.05611328623512508,0.06336490187509794,0.0706046832531032,0.07782769690381108,0.08502899579494921,0.09220362513100355,0.09934662821292008,0.10645305234904402,0.11351795479683509,0.12053640870535061,0.12750350904502522,0.13441437853183685,0.14126417355488746,0.14804809011095538,0.15476136974968863,0.16139930552685772,0.16795724794351813,0.17443061083889527,0.1808148772182579,0.1871056050070105,0.19329843270885688,0.19938908493631796,0.20537337779882983,0.21124722415260014,0.2170066387137364,0.22264774302908477,0.228166770304488,0.2335600700897273,0.2388241128006951,0.24395549404873335,0.24895093876402052,0.25380730511888094,0.25852158825428817,0.26309092380584653,0.26751259123090876,0.27178401693816123,0.2759027772024206,0.27986660083691095,0.2836733716115388,0.28732113042075025,0.29080807719541146,0.2941325725443248,0.2972931391254062,0.30028846276469323,0.30311739334201204,0.3057789454563561,0.3082722988839712,0.31059679883516916,0.312751955995151,0.3147374463239134,0.31655311060646574,0.3181989537616249,0.31967514391353,0.32098201122323966,0.3221200464863232,0.3230898995094875,0.323892377270232,0.32452844185605323,0.3249992081868691,0.3253059415235837,0.3254500547435255,0.3254331053522572,0.32525679222435977,0.32492295209208855,0.32443355580093514,0.3237907043443843,0.3229966246979172,0.32205366547932396,0.3209642924537794,0.3197310838941793,0.31835672581297053,0.31684400708232713,0.3151958144423406,0.3134151273868225,0.31150501293076344,0.30946862027494365,0.3073091753703187,0.3050299753749132,0.30263438301220985,0.3001258208576468,0.2975077655753174,0.29478374211897634,0.2919573179187817,0.28903209708178784,0.2860117146251601,0.2828998307527077,0.27970012519149307,0.2764162916095548,0.27305203212488355,0.26961105190731277,0.26609705388217597,0.2625137335471027,0.2588647738970248,0.2551538404424173,0.2513845763200609,0.24756059750686957,0.24368548813426252,0.2397627958904698,0.23579602751540418,0.23178864441586422,0.227744058433487,0.22366562779247234,0.21955665325105564,0.2154203744723678,0.21125996661227595,0.20707853711219246,0.2028791226938981,0.19866468655824945,0.1944381157746319,0.19020221883839886,0.1859597233891941,0.1817132741002161,0.17746543074497634,0.17321866644098582,0.1689753660761947,0.16473782492849967,0.16050824747793793,0.15628874640289928,0.15208134176092497,0.14788796036631552,0.14371043537535994,0.13955050608449798,0.13540981794482942,0.13128992278312712,0.12719227919024634,0.12311825302548407,0.11906911801125152,0.11504605642506004,0.11105015990386856,0.1070824303714195,0.10314378110001715,0.0992350379159232,0.09535694054458504,0.09151014408379815,0.08769522060027632,0.08391266085052909,0.08016287611713221,0.07644620014402911,0.07276289116537774,0.06911313403893546,0.06549704250096564,0.06191466155681,0.058365970014833624,0.05485088315838388,0.051369255532023594,0.047920883810673,0.044505509732066885,0.04112282308697108,0.03777246476242908,0.03445402982990559,0.03116707067228909,0.0279111001420672,0.024685594731490665,0.021489997729571136,0.018323722351163137,0.015186154834910825,0.012076657505603338,0.008994571792769235,0.0059392212017779,0.0029099142374245635,-9.405272509626019e-05,-0.0030733926310984364,-0.00602882500353255,-0.00896107326585564,-0.01187086213362763,-0.014758915081352023,-0.01762595188733522,-0.02047268625619547,-0.023299823522820076,-0.026108058444984192,-0.02889807308780954,-0.03167053479983357,-0.034426094284388815,-0.037165383773193485,-0.03988901530398293,-0.042597579096363754,-0.04529164201716474,-0.04797174612764352,-0.050638407307778896,-0.05329211395939322,-0.05593332579929243,-0.05856247275721731,-0.061179953987854876,-0.06378613700474707,-0.06638135695408794,-0.06896591605111714,-0.07154008318855491,-0.07410409371118258,-0.0766581493487191,-0.07920241830158646,-0.08173703546956461,-0.08426210280618045,-0.08677768977927157,-0.0892838339197629,-0.09178054144391573,-0.09426778794053386,-0.09674551912324453,-0.09921365165170976,-0.10167207402015505,-0.10412064750363265,-0.1065592071492793,-0.10898756280072869,-0.11140550014557143,-0.11381278177731619,-0.11620914826470402,-0.1185943192224796,-0.12096799437883327,-0.12332985463571261,-0.12567956311906642,-0.1280167662168386,-0.1303410946031845,-0.1326521642479424,-0.13494957741087138,-0.13723292362056422,-0.13950178063658206,-0.14175571538547752,-0.143994284848202,-0.14621703687257084,-0.1484235108986414,-0.15061323860366485,-0.1527857444821016,-0.15494054637658208,-0.15707715597564778,-0.15919507929994017,-0.16129381720912075,-0.16337286596403025,-0.1654317178646452,-0.1674698619663139,-0.16948678486768845,-0.17148197156233871,-0.17345490634640917,-0.17540507377503392,-0.1773319596605585,-0.17923505210593363,-0.18111384256694676,-0.1829678269372446,-0.18479650665037498,-0.18659938979333915,-0.1883759922263997,-0.19012583870413494,-0.19184846399296854,-0.19354341398063382,-0.19521024677427182,-0.19684853378896985,-0.1984578608367891,-0.2000378292289278,-0.20158805689543072,-0.20310817951581675,-0.2045978516489189,-0.20605674785019382,-0.20748456376672408,-0.2088810172052682,-0.21024584917640476,-0.2115788249207522,-0.2128797349179473,-0.21414839587461162,-0.2153846516906178,-0.21658837440550446,-0.21775946512132402,-0.2188978548902177,-0.22000350555190437,-0.22107641050728008,-0.22211659541537743,-0.22312411879863325,-0.22409907253637518,-0.22504158222598591,-0.2259518073996687,-0.2268299415954269,-0.22767621228649237,-0.22849088067475942,-0.2292742413548919,-0.23002662186006737,-0.23074838210720058,-0.23143991376163106,-0.23210163953265175,-0.2327340123938341,-0.23333751470438716,-0.23391265720364998,-0.23445997786465447,-0.23498004060725367,-0.23547343387272038,-0.23594076906030406,-0.23638267883212874,-0.2367998152957377,-0.23719284806588084,-0.23756246220288127,-0.23790935603222996,-0.23823423884811035,-0.23853782848176197,-0.23882084870606113,-0.23908402647272803,-0.23932808900710872,-0.23955376078807616,-0.23976176043509473,-0.23995279752958115,-0.2401275693942408,-0.24028675783000714,-0.24043102579781345,-0.24056101405275424,-0.24067733775515113,-0.24078058306850672,-0.2408713037422411,-0.24095001769497368,-0.24101720362616905,-0.2410732976625691,-0.241118690030768,-0.24115372176934766,-0.24117868151157204,-0.24119380234937768,-0.24119925877314694,-0.24119516370392194,-0.2411815656536517,-0.24115844602980877,-0.24112571658380003,-0.2410832170230684,-0.24103071282688632,-0.2409678932914759,-0.24089436981431095,-0.24080967443913684,-0.24071325868779184,-0.24060449267637,-0.24048266449416003,-0.2403469798453144,-0.24019656196892591,-0.24003045182730776,-0.2398476085327732,-0.2396469100082344,-0.23942715389699437,-0.23918705871211593,-0.2389252651956258,-0.23864033788433664,-0.23833076690440297,-0.23799496999871445,-0.2376312947726164,-0.23723802116334478,-0.23681336415888374,-0.23635547677710686,-0.2358624532992389,-0.23533233276271384,-0.23476310272394688,-0.23415270327516416,-0.23349903128082908,-0.23279994481847813,-0.23205326782408545,-0.2312567949200142,-0.23040829638600194,-0.2295055232546767,-0.2285462125306416,-0.22752809251133738,-0.22644888817066472,-0.22530632658943942,-0.22409814244343088,-0.22282208355380054,-0.22147591649207624,-0.22005743223771673,-0.21856445188359525,-0.2169948323545588,-0.21534647208688457,-0.21361731664071024,N
3,-0.055219565653109134,-0.05761825212969312,-0.060007025923621775,-0.06238659969374404,-0.06475765191281312,-0.06712082538972229,-0.06947672593263153,-0.07182592114279694,-0.0741689393295905,-0.07650626853972105,-0.07883835569921722,-0.0811656058747124,-0.08348838166367818,-0.08580700271801937,-0.08812174540095884,-0.09043284258010696,-0.09274048356195562,-0.09504481416805616,-0.09734593694890575,-0.09964391153477742,-0.10193875512531564,-0.10423044311514414,-0.10651890984954206,-0.10880404950902041,-0.11108571712483424,-0.11336372972152878,-0.11563786757694874,-0.11790787559290009,-0.1201734647726164,-0.12243431379716634,-0.12469007069028464,-0.12694035456639943,-0.12918475746032568,-0.1314228462307844,-0.13365416452061588,-0.1358782347530544,-0.13809456014481683,-0.1403026267199966,-0.1425019053150245,-0.1446918535736561,-0.1468719179347726,-0.14904153561227693,-0.15120013656747863,-0.15334714548605285,-0.1554819837770793,-0.1576040715980732,-0.15971282989103283,-0.1618076824064166,-0.1638880576929523,-0.1659533910360242,-0.16800312633908937,-0.1700367179598195,-0.1720536325193575,-0.17405335069056696,-0.17603536895655106,-0.1779992013294909,-0.17994438102300817,-0.18187046206735927,-0.18377702085028827,-0.18566365756461647,-0.18752999754587732,-0.18937569248713515,-0.1912004215249351,-0.1930038921995233,-0.19478584129674326,-0.19654603557489445,-0.1982842723764153,-0.2000003801282295,-0.20169421873789736,-0.2033656798877965,-0.20501468722210167,-0.2066411964186596,-0.20824519513920278,-0.20982670285450752,-0.21138577054792937,-0.21292248031052005,-0.2144369448448806,-0.2159293068878507,-0.21739973855212155,-0.2188484405826576,-0.2202756415245126,-0.22168159679933971,-0.2230665876845561,-0.22443092018247143,-0.2257749237655233,-0.22709894999158167,-0.22840337098731214,-0.2296885777902873,-0.2309549785374703,-0.23220299649954929,-0.23343306796997293,-0.23464564001117222,-0.23584116805599015,-0.23702011337407392,-0.23818294042346544,-0.23933011410201166,-0.2404620969078266,-0.24157934602678335,-0.24268231037150004,-0.24377142758724593,-0.2448471210332598,-0.2459097967554029,-0.24695984046468575,-0.24799761451262678,-0.24902345484248853,-0.2500376679176249,-0.25104052764674584,-0.25203227231141884,-0.2530131014891293,-0.2539831729854247,-0.25494259980606504,-0.2558914471851217,-0.25682972967168305,-0.25775740829406146,-0.25867438782962826,-0.2595805141832319,-0.2604755718602867,-0.26135928154626736,-0.2622312978329831,-0.2630912071261287,-0.263938525755737,-0.26477269831716116,-0.2655930962638879,-0.26639901673532757,-0.2671896815819849,-0.2679642365805132,-0.2687217508596151,-0.26946121654109895,-0.27018154858300364,-0.2708815848330298,-0.27156008631801687,-0.2722157377726985,-0.27284714839206303,-0.27345285281170195,-0.2740313123336042,-0.27458091638537385,-0.27509998417972303,-0.275586766568018,-0.2760394481039778,-0.27645614930847356,-0.27683492910541924,-0.27717378742490945,-0.2774706679914119,-0.2777234612890725,-0.27793000767471404,-0.27808810063651335,-0.27819549022574763,-0.278249886676302,-0.2782489642088538,-0.27819036502806527,-0.278071703523465,-0.2778905706496859,-0.27764453843948944,-0.2773311646308216,-0.27694799741572157,-0.27649258030073603,-0.27596245704992634,-0.27535517670118026,-0.2746682986594019,-0.27389939784065687,-0.2730460698203917,-0.2721059359686333,-0.27107664859008707,-0.26995589608256787,-0.2687414081129187,-0.26743096081628304,-0.2660223820231107,-0.26451355648698427,-0.2629024310673025,-0.2611870198437604,-0.25936540915880973,-0.2574357625636598,-0.25539632562646924,-0.2532454305864084,-0.2509815008663669,-0.24860305545257816,-0.24610871313734667,-0.2434971966280557,-0.24076733652656834,-0.23791807515871577,-0.23494847021822118,-0.23185769820808605,-0.2286450576782178,-0.22530997224140165,-0.22185199333610922,-0.21827080272561783,-0.21456621474867188,-0.21073817833648711,-0.20678677880221985,-0.20271223941306651,-0.1985149227577057,-0.1941953319095258,-0.18975411137656065,-0.18519204783737137,-0.18051007067312647,-0.17570925230434203,-0.17079080833509336,-0.16575609750837778,-0.16060662147632726,-0.15534402438151967,-0.14997009224021557,-0.1444867521224885,-0.1388960711284751,-0.13320025515615438,-0.1274016474523658,-0.12150272694336282,-0.11550610634855706,-0.10941453008390077,-0.10323087196031143,-0.09695813268170722,-0.0905994371499626,-0.0841580315897637,-0.07763728050759705,-0.0710406634934482,-0.06437177187312329,-0.057634305229369825,-0.050832067814274934,-0.043968964860985255,-0.03704899878331369,-0.03007626524331611,-0.023054949067736395,-0.015989319999900456,-0.008883728289561339,-0.0017426001473984988,0.005429566900068876,0.012628208738481816,0.0198486994833188,0.027086356399053373,0.03433644492800846,0.04159418383773512,0.048854750491872136,0.05611328623512508,0.06336490187509794,0.0706046832531032,0.07782769690381108,0.08502899579494921,0.09220362513100355,0.09934662821292008,0.10645305234904402,0.11351795479683509,0.12053640870535061,0.12750350904502522,0.13441437853183685,0.14126417355488746,0.14804809011095538,0.15476136974968863,0.16139930552685772,0.16795724794351813,0.17443061083889527,0.1808148772182579,0.1871056050070105,0.19329843270885688,0.19938908493631796,0.20537337779882983,0.21124722415260014,0.2170066387137364,0.22264774302908477,0.228166770304488,0.2335600700897273,0.2388241128006951,0.24395549404873335,0.24895093876402052,0.25380730511888094,0.25852158825428817,0.26309092380584653,0.26751259123090876,0.27178401693816123,0.2759027772024206,0.27986660083691095,0.2836733716115388,0.28732113042075025,0.29080807719541146,0.2941325725443248,0.2972931391254062,0.30028846276469323,0.30311739334201204,0.3057789454563561,0.3082722988839712,0.31059679883516916,0.312751955995151,0.3147374463239134,0.31655311060646574,0.3181989537616249,0.31967514391353,0.32098201122323966,0.3221200464863232,0.3230898995094875,0.323892377270232,0.32452844185605323,0.3249992081868691,0.3253059415235837,0.3254500547435255,0.3254331053522572,0.32525679222435977,0.32492295209208855,0.32443355580093514,0.3237907043443843,0.3229966246979172,0.32205366547932396,0.3209642924537794,0.3197310838941793,0.31835672581297053,0.31684400708232713,0.3151958144423406,0.3134151273868225,0.31150501293076344,0.30946862027494365,0.3073091753703187,0.3050299753749132,0.30263438301220985,0.3001258208576468,0.2975077655753174,0.29478374211897634,0.2919573179187817,0.28903209708178784,0.2860117146251601,0.2828998307527077,0.27970012519149307,0.2764162916095548,0.27305203212488355,0.26961105190731277,0.26609705388217597,0.2625137335471027,0.2588647738970248,0.2551538404424173,0.2513845763200609,0.24756059750686957,0.24368548813426252,0.2397627958904698,0.23579602751540418,0.23178864441586422,0.227744058433487,0.22366562779247234,0.21955665325105564,0.2154203744723678,0.21125996661227595,0.20707853711219246,0.2028791226938981,0.19866468655824945,0.1944381157746319,0.19020221883839886,0.1859597233891941,0.1817132741002161,0.17746543074497634,0.17321866644098582,0.1689753660761947,0.16473782492849967,0.16050824747793793,0.15628874640289928,0.15208134176092497,0.14788796036631552,0.14371043537535994,0.13955050608449798,0.13540981794482942,0.13128992278312712,0.12719227919024634,0.12311825302548407,0.11906911801125152,0.11504605642506004,0.11105015990386856,0.1070824303714195,0.10314378110001715,0.0992350379159232,0.09535694054458504,0.09151014408379815,0.08769522060027632,0.08391266085052909,0.08016287611713221,0.07644620014402911,0.07276289116537774,0.06911313403893546,0.06549704250096564,0.06191466155681,0.058365970014833624,0.05485088315838388,0.051369255532023594,0.047920883810673,0.044505509732066885,0.04112282308697108,0.03777246476242908,0.03445402982990559,0.03116707067228909,0.0279111001420672,0.024685594731490665,0.021489997729571136,0.018323722351163137,0.015186154834910825,0.012076657505603338,0.008994571792769235,0.0059392212017779,0.0029099142374245635,-9.405272509626019e-05,-0.0030733926310984364,-0.00602882500353255,-0.00896107326585564,-0.01187086213362763,-0.014758915081352023,-0.01762595188733522,-0.02047268625619547,-0.023299823522820076,-0.026108058444984192,-0.02889807308780954,-0.03167053479983357,-0.034426094284388815,-0.037165383773193485,-0.03988901530398293,-0.042597579096363754,-0.04529164201716474,-0.04797174612764352,-0.050638407307778896,-0.05329211395939322,-0.05593332579929243,-0.05856247275721731,-0.061179953987854876,-0.06378613700474707,-0.06638135695408794,-0.06896591605111714,-0.07154008318855491,-0.07410409371118258,-0.0766581493487191,-0.07920241830158646,-0.08173703546956461,-0.08426210280618045,-0.08677768977927157,-0.0892838339197629,-0.09178054144391573,-0.09426778794053386,-0.09674551912324453,-0.09921365165170976,-0.10167207402015505,-0.10412064750363265,-0.1065592071492793,-0.10898756280072869,-0.11140550014557143,-0.11381278177731619,-0.11620914826470402,-0.1185943192224796,-0.12096799437883327,-0.12332985463571261,-0.12567956311906642,-0.1280167662168386,-0.1303410946031845,-0.1326521642479424,-0.13494957741087138,-0.13723292362056422,-0.13950178063658206,-0.14175571538547752,-0.143994284848202,-0.14621703687257084,-0.1484235108986414,-0.15061323860366485,-0.1527857444821016,-0.15494054637658208,-0.15707715597564778,-0.15919507929994017,-0.16129381720912075,-0.16337286596403025,-0.1654317178646452,-0.1674698619663139,-0.16948678486768845,-0.17148197156233871,-0.17345490634640917,-0.17540507377503392,-0.1773319596605585,-0.17923505210593363,-0.18111384256694676,-0.1829678269372446,-0.18479650665037498,-0.18659938979333915,-0.1883759922263997,-0.19012583870413494,-0.19184846399296854,-0.19354341398063382,-0.19521024677427182,-0.19684853378896985,-0.1984578608367891,-0.2000378292289278,-0.20158805689543072,-0.20310817951581675,-0.2045978516489189,-0.20605674785019382,-0.20748456376672408,-0.2088810172052682,-0.21024584917640476,-0.2115788249207522,-0.2128797349179473,-0.21414839587461162,-0.2153846516906178,-0.21658837440550446,-0.21775946512132402,-0.2188978548902177,-0.22000350555190437,-0.22107641050728008,-0.22211659541537743,-0.22312411879863325,-0.22409907253637518,-0.22504158222598591,-0.2259518073996687,-0.2268299415954269,-0.22767621228649237,-0.22849088067475942,-0.2292742413548919,-0.23002662186006737,-0.23074838210720058,-0.23143991376163106,-0.23210163953265175,-0.2327340123938341,-0.23333751470438716,-0.23391265720364998,-0.23445997786465447,-0.23498004060725367,-0.23547343387272038,-0.23594076906030406,-0.23638267883212874,-0.2367998152957377,-0.23719284806588084,-0.23756246220288127,-0.23790935603222996,-0.23823423884811035,-0.23853782848176197,-0.23882084870606113,-0.23908402647272803,-0.23932808900710872,-0.23955376078807616,-0.23976176043509473,-0.23995279752958115,-0.2401275693942408,-0.24028675783000714,-0.24043102579781345,-0.24056101405275424,-0.24067733775515113,-0.24078058306850672,-0.2408713037422411,-0.24095001769497368,-0.24101720362616905,-0.2410732976625691,-0.241118690030768,-0.24115372176934766,-0.24117868151157204,-0.24119380234937768,-0.24119925877314694,-0.24119516370392194,-0.2411815656536517,-0.24115844602980877,-0.24112571658380003,-0.2410832170230684,-0.24103071282688632,-0.2409678932914759,-0.24089436981431095,-0.24080967443913684,-0.24071325868779184,-0.24060449267637,-0.24048266449416003,-0.2403469798453144,-0.24019656196892591,-0.24003045182730776,-0.2398476085327732,-0.2396469100082344,-0.23942715389699437,-0.23918705871211593,-0.2389252651956258,-0.23864033788433664,-0.23833076690440297,-0.23799496999871445,-0.2376312947726164,-0.23723802116334478,-0.23681336415888374,-0.23635547677710686,-0.2358624532992389,-0.23533233276271384,-0.23476310272394688,-0.23415270327516416,-0.23349903128082908,-0.23279994481847813,-0.23205326782408545,-0.2312567949200142,-0.23040829638600194,-0.2295055232546767,-0.2285462125306416,-0.22752809251133738,-0.22644888817066472,-0.22530632658943942,-0.22409814244343088,-0.22282208355380054,-0.22147591649207624,-0.22005743223771673,-0.21856445188359525,-0.2169948323545588,-0.21534647208688457,-0.21361731664071024,-0.21180536424201077,-0.20990867123984566,-0.20792535745159577,-0.20585361138510885,-0.20369169534290923,-0.20143795040257864,-0.19909080125550097,-0.19664876089756944,-0.19411043517562332,-0.19147452718071323,-0.1887398414681345,-0.18590528809508228,-0.18296988647526052,-0.1799327690358115,-0.17679318465117994,-0.17355050184278356,-0.17020421174944714,-0.16675393086926518,-0.16319940356592602,-0.159540504339662,-0.15577723987232023,-0.15190975085352948,-0.14793831358936899,-0.14386334139453785,-0.13968538576192538,-0.13540513728417194,-0.1310234262929614,-0.12654122319956376,-0.12195963854544616,-0.11727992278264525,-0.11250346580230212,-0.10763179622597512,-0.10266658047107273,-0.0976096215989503,-0.09246285795185087,-0.08722836158206133,-0.08190833647098412,-0.07650511652786919,-0.07102116335499838,-0.06545906377330489,-0.0598215271154031,-0.05411138230386468,-0.04833157473472814,-0.04248516297855885,-0.03657531530157289,-0.030605306004678683,-0.024578511577989497,-0.01849840667169712,-0.012368559897282898,-0.0061926294940322195,2.5641097253993013e-05,0.0062824277307332995,0.012573830122593837,0.01889587649464003,0.02524452829790772,0.031615685021873834,0.03800518909292155,0.04440883085378466,0.05082235360912545,0.05724145873122529,0.06366181082637436,0.07007904295367491,0.07648876188124716,0.08288655337454046,0.08926798752014306,0.09562862408130077,0.10196401787460926,0.10826972416426091,0.11454130407249731,0.1207743299897598,0.1269643909589098,0.13310709802238466,0.13919808953595816,0.14523303644731125,0.15120764753026775,0.15711767457382309,0.16295891753253744,0.1687272296366078,0.17441852245227885,0.18002877088940847,0.18555401815465242,0.19099038063307813,0.19633405267151713,0.20158131125118384,0.20672852055171254,0.21177213640320514,0.21670871061551322,0.2215348951814562,0.22624744635415794,0.23084322858390327,0.2353192182904822,0.23967250746212168,0.24390030709154945,0.24799995046216497,0.25196889629229874,0.25580473174441654,0.25950517529757877,0.2630680794601101,0.2664914332894244,0.2697733647028033,0.2729121425819287,0.27590617867281714,0.27875402927709997,0.2814543967357331,0.2840061307057636,0.28640822921350445,0.2886598394581304,0.2907602583560886,0.292708932833952,0.29450545987337934,0.29614958630520655,0.2976412083564939,0.2989803709526129,0.30016726675276484,0.3012022348855281,0.30208575937556065,0.3028184672814254,0.3034011265667274,0.30383464372032104,0.30412006114743606,0.3042585543584627,0.30425142897242174,0.30410011754394517,0.30380617622846884,0.3033712813017474,0.3027972255339483,0.3020859144089053,0.30123936219334707,0.300259687876208,0.2991491109937709,0.29790994734927784,0.2965446046424167,0.2950555780296118,0.293445445626902,0.2917168639595147,0.28987256336858613,0.2879153433873194,0.2858480680833926,0.2836736613550983,0.2813951021832251,0.2790154198562485,0.27653768918226823,0.27396502569421016,0.2713005808617445,0.2685475373290304,0.2657091041883574,0.2627885122921633,0.25978900961231266,0.2567138566573982,0.25356632194337336,0.25034967750349224,0.247067194438054,0.24372213851997745,0.24031776586806328,0.2368573186928322,0.2333440211275487,0.2297810751667012,0.22617165673178719,0.22251891187856743,0.21882595316008466,0.21509585615623436,0.21133165616742075,0.20753634506220028,0.20371286827782142,0.19986412198343328,0.19599295041444054,0.1921021433818485,0.18819443396070898,0.18427249635511275,0.18033894391808156,0.17639632729588392,0.17244713268223127,0.16849378018465105,0.1645386223023781,0.16058394250926117,0.156631953943942,0.15268479822018363,0.1487445443686861,0.14481318791685546,0.14089265011387,0.1369847773055655,0.13309134045103502,0.12921403476578022,0.12535447948493592,0.12151421774735903,0.11769471659382146,0.11389736706632035,0.11012348440402558,0.10637430833848366,0.10265100348298578,0.09895465980462864,0.09528629317595871,0.09164684601005474,0.08803718797506382,0.08445811677770648,0.08091035901351575,0.07739457108843469,0.07391134020845865,0.07046118542741821,0.06704455875116402,0.0636618463031958,0.060313369548768786,0.056999386567855664,0.05372009337629324,0.05047562530524308,0.047266058447727244,0.044091411176290174,0.04095164573686828,0.037846669921274986,0.03477633880822244,0.0317404565558813,0.02873877823864292,0.025771011732219646,0.022836819650484248,0.019935821333335938,0.017067594887318703,0.014231679282643052,0.01142757650496095,0.008654753755776061,0.00591264569843186,0.003200656749128521,0.0005181634076632436,-0.0021354833813697757,-0.004760955842648563,-0.0073589469622407505,-0.009930168064894464,-0.01247534638720679,-0.014995222653488125,-0.01749054865786761,-0.019962084860234118,-0.022410598006914105,-0.024836858782853577,-0.027241639498572792,-0.029625711819007652,-0.03198984454447497,-0.034334801449700365,-0.036661339183203086,-0.03897020523304876,-0.04126213596799214,-0.04353785475863676,-0.045798070179511687,-0.04804347429661363,-0.05027474104791794,-0.05249252471992322,-0.054697458519535086,-0.05689015324422084,-0.059071196056309644,-0.06124114936287122,-0.06340054979885207,-0.06554990731478727,-0.06768970437336913,-0.06982039525473878,-0.07194240546664556,-0.07405613125929668,-0.07616193924772559,-0.07826016614013985,-0.08035111856703929,-0.08243507300962764,-0.08451227582910452,-0.0865829433941175,-0.0886472623000469,-0.09070538967759197,-0.09275745359125827,-0.09480355352410533,-0.09684376094157435,-0.09887811993108112,-0.10090664791725837,-0.10292933644856017,-0.10494615204747054,-0.10695703712049126,-0.10896191092735036,-0.1109606706047678,-0.11295319223670977,-0.11493933196705988,-0.1169189271539646,-0.11889179756022031,-0.12085774656665096,-0.12281656239279184,-0.12476801931059037,-0.1267118788407276,-0.12864789093130974,-0.1305757951338719,-0.1324953217972537,-0.13440619328815254,-0.13630812523381866,-0.13820082778142398,-0.14008400687127723,-0.14195736551732974,-0.14382060508536865,-0.14567342656363347,-0.14751553182424693,-0.14934662486927097,-0.1511664130480732,-0.15297460823033293,-0.15477092792067237,-0.15655509630419004,-0.1583268452184768,-0.1600859150564122,-0.16183205560786548,-0.163565026843895,-0.165284599643233,-0.1669905564644663,-0.16868269197030233,-0.17036081360593472,-0.1720247421298701,-0.1736743120993415,-0.1753093723155458,-0.17692978622884828,-0.1785354322964884,-0.1801262042825064,-0.18170201149083623,-0.18326277892370585,-0.18480844735525942,-0.18633897330529742,-0.1878543288975399,-0.18935450159435183,-0.19083949380635698,-0.1923093223741302,-0.19376401791828965,-0.1952036240622254,-0.1966281965451085,-0.198037802253823,-0.19943251820450497,-0.20081243049468156,-0.20217763322853655,-0.20352822739910237,-0.20486431970607089,-0.20618602130014546,-0.20749344645526563,-0.20878671116524533,-0.21006593165754578,-0.21133122282748942,-0.21258269660509513,-0.21382046026049575,-0.2150446146487545,-0.2162552524025592,-0.2174524560808673,-0.21863629626092854,-0.21980682955102407,-0.22096409652296026,-0.2221081195849484,-0.22323890080960743,-0.2243564197234529,-0.22546063107590725,-0.22655146261203235,-0.2276288128543686,-0.22869254888701013,-0.22974250415212571,-0.230778476279891,-0.23180022495106423,-0.2328074697768372,-0.23379988820429676,-0.2347771134788842,-0.23573873268355727,-0.23668428486100745,-0.23761325923864715,-0.23852509358014892,-0.23941917265651189,-0.2402948268108863,-0.2411513306201838,-0.24198790168717865,-0.24280369958796832,-0.2435978249851296,-0.24436931892998262,-0.24511716238781425,-0.24584027600090588,-0.24653752008804455,-0.24720769489184777,-0.24784954109203647,-0.2484617405775482,-0.24904291745269422,-0.2495916392718806,-0.25010641850999765,-0.25058571424853987,-0.25102793403852947,-0.2514314359290873,-0.25179453068036356,-0.25211548417009283,-0.25239251998808215,-0.2526238222257633,-0.2528075384782804,-0.2529417830576244,-0.25302464039933414,-0.2530541686582308,-0.25302840349585476,-0.2529453620375266,-0.2528030469598448,-0.2525994506910935,-0.2523325597284844,-0.2520003590632642,-0.25160083669053085,-0.2511319881943148,-0.2505918214064369,-0.2499783611136361,-0.2492896537710607,-0.24852377220256383,-0.24767882029035715,-0.2467529376443206,-0.24574430422769178,-0.24465114493099963,-0.24347173409869075,-0.2422043999960968,-0.2408475291904784,-0.23939957083566304,-0.23785904086297854,-0.2362245260649382,-0.23449468804474666,-0.23266826702180246,-0.2307440855010753,-0.22872105180509164,N
4,-0.0766581493487191,-0.07920241830158646,-0.08173703546956461,-0.08426210280618045,-0.08677768977927157,-0.0892838339197629,-0.09178054144391573,-0.09426778794053386,-0.09674551912324453,-0.09921365165170976,-0.10167207402015505,-0.10412064750363265,-0.1065592071492793,-0.10898756280072869,-0.11140550014557143,-0.11381278177731619,-0.11620914826470402,-0.1185943192224796,-0.12096799437883327,-0.12332985463571261,-0.12567956311906642,-0.1280167662168386,-0.1303410946031845,-0.1326521642479424,-0.13494957741087138,-0.13723292362056422,-0.13950178063658206,-0.14175571538547752,-0.143994284848202,-0.14621703687257084,-0.1484235108986414,-0.15061323860366485,-0.1527857444821016,-0.15494054637658208,-0.15707715597564778,-0.15919507929994017,-0.16129381720912075,-0.16337286596403025,-0.1654317178646452,-0.1674698619663139,-0.16948678486768845,-0.17148197156233871,-0.17345490634640917,-0.17540507377503392,-0.1773319596605585,-0.17923505210593363,-0.18111384256694676,-0.1829678269372446,-0.18479650665037498,-0.18659938979333915,-0.1883759922263997,-0.19012583870413494,-0.19184846399296854,-0.19354341398063382,-0.19521024677427182,-0.19684853378896985,-0.1984578608367891,-0.2000378292289278,-0.20158805689543072,-0.20310817951581675,-0.2045978516489189,-0.20605674785019382,-0.20748456376672408,-0.2088810172052682,-0.21024584917640476,-0.2115788249207522,-0.2128797349179473,-0.21414839587461162,-0.2153846516906178,-0.21658837440550446,-0.21775946512132402,-0.2188978548902177,-0.22000350555190437,-0.22107641050728008,-0.22211659541537743,-0.22312411879863325,-0.22409907253637518,-0.22504158222598591,-0.2259518073996687,-0.2268299415954269,-0.22767621228649237,-0.22849088067475942,-0.2292742413548919,-0.23002662186006737,-0.23074838210720058,-0.23143991376163106,-0.23210163953265175,-0.2327340123938341,-0.23333751470438716,-0.23391265720364998,-0.23445997786465447,-0.23498004060725367,-0.23547343387272038,-0.23594076906030406,-0.23638267883212874,-0.2367998152957377,-0.23719284806588084,-0.23756246220288127,-0.23790935603222996,-0.23823423884811035,-0.23853782848176197,-0.23882084870606113,-0.23908402647272803,-0.23932808900710872,-0.23955376078807616,-0.23976176043509473,-0.23995279752958115,-0.2401275693942408,-0.24028675783000714,-0.24043102579781345,-0.24056101405275424,-0.24067733775515113,-0.24078058306850672,-0.2408713037422411,-0.24095001769497368,-0.24101720362616905,-0.2410732976625691,-0.241118690030768,-0.24115372176934766,-0.24117868151157204,-0.24119380234937768,-0.24119925877314694,-0.24119516370392194,-0.2411815656536517,-0.24115844602980877,-0.24112571658380003,-0.2410832170230684,-0.24103071282688632,-0.2409678932914759,-0.24089436981431095,-0.24080967443913684,-0.24071325868779184,-0.24060449267637,-0.24048266449416003,-0.2403469798453144,-0.24019656196892591,-0.24003045182730776,-0.2398476085327732,-0.2396469100082344,-0.23942715389699437,-0.23918705871211593,-0.2389252651956258,-0.23864033788433664,-0.23833076690440297,-0.23799496999871445,-0.2376312947726164,-0.23723802116334478,-0.23681336415888374,-0.23635547677710686,-0.2358624532992389,-0.23533233276271384,-0.23476310272394688,-0.23415270327516416,-0.23349903128082908,-0.23279994481847813,-0.23205326782408545,-0.2312567949200142,-0.23040829638600194,-0.2295055232546767,-0.2285462125306416,-0.22752809251133738,-0.22644888817066472,-0.22530632658943942,-0.22409814244343088,-0.22282208355380054,-0.22147591649207624,-0.22005743223771673,-0.21856445188359525,-0.2169948323545588,-0.21534647208688457,-0.21361731664071024,-0.21180536424201077,-0.20990867123984566,-0.20792535745159577,-0.20585361138510885,-0.20369169534290923,-0.20143795040257864,-0.19909080125550097,-0.19664876089756944,-0.19411043517562332,-0.19147452718071323,-0.1887398414681345,-0.18590528809508228,-0.18296988647526052,-0.1799327690358115,-0.17679318465117994,-0.17355050184278356,-0.17020421174944714,-0.16675393086926518,-0.16319940356592602,-0.159540504339662,-0.15577723987232023,-0.15190975085352948,-0.14793831358936899,-0.14386334139453785,-0.13968538576192538,-0.13540513728417194,-0.1310234262929614,-0.12654122319956376,-0.12195963854544616,-0.11727992278264525,-0.11250346580230212,-0.10763179622597512,-0.10266658047107273,-0.0976096215989503,-0.09246285795185087,-0.08722836158206133,-0.08190833647098412,-0.07650511652786919,-0.07102116335499838,-0.06545906377330489,-0.0598215271154031,-0.05411138230386468,-0.04833157473472814,-0.04248516297855885,-0.03657531530157289,-0.030605306004678683,-0.024578511577989497,-0.01849840667169712,-0.012368559897282898,-0.0061926294940322195,2.5641097253993013e-05,0.0062824277307332995,0.012573830122593837,0.01889587649464003,0.02524452829790772,0.031615685021873834,0.03800518909292155,0.04440883085378466,0.05082235360912545,0.05724145873122529,0.06366181082637436,0.07007904295367491,0.07648876188124716,0.08288655337454046,0.08926798752014306,0.09562862408130077,0.10196401787460926,0.10826972416426091,0.11454130407249731,0.1207743299897598,0.1269643909589098,0.13310709802238466,0.13919808953595816,0.14523303644731125,0.15120764753026775,0.15711767457382309,0.16295891753253744,0.1687272296366078,0.17441852245227885,0.18002877088940847,0.18555401815465242,0.19099038063307813,0.19633405267151713,0.20158131125118384,0.20672852055171254,0.21177213640320514,0.21670871061551322,0.2215348951814562,0.22624744635415794,0.23084322858390327,0.2353192182904822,0.23967250746212168,0.24390030709154945,0.24799995046216497,0.25196889629229874,0.25580473174441654,0.25950517529757877,0.2630680794601101,0.2664914332894244,0.2697733647028033,0.2729121425819287,0.27590617867281714,0.27875402927709997,0.2814543967357331,0.2840061307057636,0.28640822921350445,0.2886598394581304,0.2907602583560886,0.292708932833952,0.29450545987337934,0.29614958630520655,0.2976412083564939,0.2989803709526129,0.30016726675276484,0.3012022348855281,0.30208575937556065,0.3028184672814254,0.3034011265667274,0.30383464372032104,0.30412006114743606,0.3042585543584627,0.30425142897242174,0.30410011754394517,0.30380617622846884,0.3033712813017474,0.3027972255339483,0.3020859144089053,0.30123936219334707,0.300259687876208,0.2991491109937709,0.29790994734927784,0.2965446046424167,0.2950555780296118,0.293445445626902,0.2917168639595147,0.28987256336858613,0.2879153433873194,0.2858480680833926,0.2836736613550983,0.2813951021832251,0.2790154198562485,0.27653768918226823,0.27396502569421016,0.2713005808617445,0.2685475373290304,0.2657091041883574,0.2627885122921633,0.25978900961231266,0.2567138566573982,0.25356632194337336,0.25034967750349224,0.247067194438054,0.24372213851997745,0.24031776586806328,0.2368573186928322,0.2333440211275487,0.2297810751667012,0.22617165673178719,0.22251891187856743,0.21882595316008466,0.21509585615623436,0.21133165616742075,0.20753634506220028,0.20371286827782142,0.19986412198343328,0.19599295041444054,0.1921021433818485,0.18819443396070898,0.18427249635511275,0.18033894391808156,0.17639632729588392,0.17244713268223127,0.16849378018465105,0.1645386223023781,0.16058394250926117,0.156631953943942,0.15268479822018363,0.1487445443686861,0.14481318791685546,0.14089265011387,0.1369847773055655,0.13309134045103502,0.12921403476578022,0.12535447948493592,0.12151421774735903,0.11769471659382146,0.11389736706632035,0.11012348440402558,0.10637430833848366,0.10265100348298578,0.09895465980462864,0.09528629317595871,0.09164684601005474,0.08803718797506382,0.08445811677770648,0.08091035901351575,0.07739457108843469,0.07391134020845865,0.07046118542741821,0.06704455875116402,0.0636618463031958,0.060313369548768786,0.056999386567855664,0.05372009337629324,0.05047562530524308,0.047266058447727244,0.044091411176290174,0.04095164573686828,0.037846669921274986,0.03477633880822244,0.0317404565558813,0.02873877823864292,0.025771011732219646,0.022836819650484248,0.019935821333335938,0.017067594887318703,0.014231679282643052,0.01142757650496095,0.008654753755776061,0.00591264569843186,0.003200656749128521,0.0005181634076632436,-0.0021354833813697757,-0.004760955842648563,-0.0073589469622407505,-0.009930168064894464,-0.01247534638720679,-0.014995222653488125,-0.01749054865786761,-0.019962084860234118,-0.022410598006914105,-0.024836858782853577,-0.027241639498572792,-0.029625711819007652,-0.03198984454447497,-0.034334801449700365,-0.036661339183203086,-0.03897020523304876,-0.04126213596799214,-0.04353785475863676,-0.045798070179511687,-0.04804347429661363,-0.05027474104791794,-0.05249252471992322,-0.054697458519535086,-0.05689015324422084,-0.059071196056309644,-0.06124114936287122,-0.06340054979885207,-0.06554990731478727,-0.06768970437336913,-0.06982039525473878,-0.07194240546664556,-0.07405613125929668,-0.07616193924772559,-0.07826016614013985,-0.08035111856703929,-0.08243507300962764,-0.08451227582910452,-0.0865829433941175,-0.0886472623000469,-0.09070538967759197,-0.09275745359125827,-0.09480355352410533,-0.09684376094157435,-0.09887811993108112,-0.10090664791725837,-0.10292933644856017,-0.10494615204747054,-0.10695703712049126,-0.10896191092735036,-0.1109606706047678,-0.11295319223670977,-0.11493933196705988,-0.1169189271539646,-0.11889179756022031,-0.12085774656665096,-0.12281656239279184,-0.12476801931059037,-0.1267118788407276,-0.12864789093130974,-0.1305757951338719,-0.1324953217972537,-0.13440619328815254,-0.13630812523381866,-0.13820082778142398,-0.14008400687127723,-0.14195736551732974,-0.14382060508536865,-0.14567342656363347,-0.14751553182424693,-0.14934662486927097,-0.1511664130480732,-0.15297460823033293,-0.15477092792067237,-0.15655509630419004,-0.1583268452184768,-0.1600859150564122,-0.16183205560786548,-0.163565026843895,-0.165284599643233,-0.1669905564644663,-0.16868269197030233,-0.17036081360593472,-0.1720247421298701,-0.1736743120993415,-0.1753093723155458,-0.17692978622884828,-0.1785354322964884,-0.1801262042825064,-0.18170201149083623,-0.18326277892370585,-0.18480844735525942,-0.18633897330529742,-0.1878543288975399,-0.18935450159435183,-0.19083949380635698,-0.1923093223741302,-0.19376401791828965,-0.1952036240622254,-0.1966281965451085,-0.198037802253823,-0.19943251820450497,-0.20081243049468156,-0.20217763322853655,-0.20352822739910237,-0.20486431970607089,-0.20618602130014546,-0.20749344645526563,-0.20878671116524533,-0.21006593165754578,-0.21133122282748942,-0.21258269660509513,-0.21382046026049575,-0.2150446146487545,-0.2162552524025592,-0.2174524560808673,-0.21863629626092854,-0.21980682955102407,-0.22096409652296026,-0.2221081195849484,-0.22323890080960743,-0.2243564197234529,-0.22546063107590725,-0.22655146261203235,-0.2276288128543686,-0.22869254888701013,-0.22974250415212571,-0.230778476279891,-0.23180022495106423,-0.2328074697768372,-0.23379988820429676,-0.2347771134788842,-0.23573873268355727,-0.23668428486100745,-0.23761325923864715,-0.23852509358014892,-0.23941917265651189,-0.2402948268108863,-0.2411513306201838,-0.24198790168717865,-0.24280369958796832,-0.2435978249851296,-0.24436931892998262,-0.24511716238781425,-0.24584027600090588,-0.24653752008804455,-0.24720769489184777,-0.24784954109203647,-0.2484617405775482,-0.24904291745269422,-0.2495916392718806,-0.25010641850999765,-0.25058571424853987,-0.25102793403852947,-0.2514314359290873,-0.25179453068036356,-0.25211548417009283,-0.25239251998808215,-0.2526238222257633,-0.2528075384782804,-0.2529417830576244,-0.25302464039933414,-0.2530541686582308,-0.25302840349585476,-0.2529453620375266,-0.2528030469598448,-0.2525994506910935,-0.2523325597284844,-0.2520003590632642,-0.25160083669053085,-0.2511319881943148,-0.2505918214064369,-0.2499783611136361,-0.2492896537710607,-0.24852377220256383,-0.24767882029035715,-0.2467529376443206,-0.24574430422769178,-0.24465114493099963,-0.24347173409869075,-0.2422043999960968,-0.2408475291904784,-0.23939957083566304,-0.23785904086297854,-0.2362245260649382,-0.23449468804474666,-0.23266826702180246,-0.2307440855010753,-0.22872105180509164,-0.2265981634562372,-0.2243745104074996,-0.22204927812841505,-0.2196217505397217,-0.21709131277924767,-0.21445745379381506,-0.21171976876556917,-0.20887796137541256,-0.2059318458980108,-0.20288134912875913,-0.19972651214800366,-0.196467491918263,-0.19310456270231116,-0.1896381172971463,-0.18606866808491296,-0.18239684789334187,-0.1786234106513388,-0.1747492318333827,-0.17077530869322027,-0.16670276027954473,-0.16253282722004542,-0.15826687126964964,-0.1539063746301714,-0.14945293904790266,-0.14490828469174274,-0.1402742488180214,-0.1355527842345334,-0.13074595757812843,-0.12585594741822156,-0.12088504219685664,-0.11583563801782876,-0.11071023630221516,-0.1055114413281249,-0.10024195766420568,-0.0949045874961077,-0.08950222783997214,-0.08403786763629911,-0.07851458472053198,-0.07293554267947978,-0.06730398762343905,-0.06162324491060196,-0.05589671584090448,-0.0501278743133227,-0.04432026343504789,-0.0384774920733321,-0.03260323133789773,-0.026701210979664717,-0.02077521569685534,-0.014829081344202874,-0.008866691039144262,-0.00289197116095718,0.003091112749109325,0.009078560171963507,0.01506633987319741,0.021050394245482412,0.027026643724698596,0.032990991267278155,0.038939326884506464,0.044867532236310514,0.05077148527898212,0.0566470649544884,0.062490155916936,0.06829665329824866,0.07406246750679482,0.07978352904571354,0.08545579334545288,0.0910752456114192,0.09663790567924017,0.10213983286311772,0.10757713079134942,0.1129459522335711,0.11824250392260963,0.12346305136886018,0.12860392366590276,0.1336615182832059,0.1386323058291243,0.14351283476036067,0.1482997360211129,0.1529897275943476,0.15757961892684413,0.1620663151796221,0.16644682127899993,0.1707182457736889,0.17487780451139037,0.17892282414468622,0.18285074547615585,0.18665912664919435,0.1903456461778383,0.19390810580139958,0.19734443315633776,0.20065268425664962,0.20383104575292532,0.20687783692989314,0.20979151142479907,0.21257065867481756,0.21521400510284977,0.21772041504521084,0.22008889143171353,0.22231857623440768,0.22440875069231772,0.22635883531207615,0.22816838965008016,0.22983711187979886,0.2313648381259337,0.23275154153605573,0.2339973310821596,0.2351024501097546,0.236067274652643,0.23689231152507928,0.23757819621029033,0.23812569057362,0.23853568042582543,0.23880917295610618,0.2389472940543683,0.23895128553855746,0.23882250228952637,0.23856240928819425,0.2381725785570362,0.23765468601065817,0.2370105082055701,0.23624191897071797,0.23535088591560696,0.23433946682909892,0.23320980597849142,0.23196413031218258,0.2306047455767406,0.2291340323653943,0.22755444210643505,0.22586849299290224,0.22407876586262493,0.2221879000440577,0.22019858917497476,0.21811357699410344,0.21593565311359864,0.21366764878673516,0.21131243267691124,0.20887290662716007,0.2063520014372577,0.20375267266204974,0.20107789643639037,0.19833066532523233,0.19551398420448657,0.19263086618076014,0.18968432854318157,0.18667738873169465,0.18361306032117153,0.18049434903663075,0.17732424881103503,0.17410573789049388,0.1708417749980059,0.16753529556863545,0.1641892080534304,0.1608063902799053,0.15738968587126995,0.15394190074193986,0.15046579968250978,0.1469641030402145,0.14343948350673436,0.13989456302652076,0.13633190982281657,0.13275403552868198,0.12916339242434227,0.12556237079720478,0.12195329643624386,0.11833842826502472,0.1147199561249194,0.11109999872931146,0.10748060180676793,0.10386373644509954,0.10025129764800954,0.09664510311219747,0.0930468922192264,0.0894583252285505,0.08588098266600452,0.0823163649086156,0.07876589195840461,0.07523090339103755,0.07171265847401978,0.0682123364598353,0.06473103705800196,0.06126978108526502,0.05782951129416612,0.054411093377555717,0.051015317134154345,0.0476428977733893,0.04429447734745264,0.040970626310068196,0.03767184520080313,0.03439856644974023,0.03115115629902324,0.027929916835752997,0.024735088118841234,0.02156685037609853,0.01842532625806178,0.015310583147079027,0.012222635519952113,0.009161447358817744,0.0061269346078563205,0.0031189676757909985,0.000137373979263065,-0.002818059481894654,-0.005747583523868286,-0.008651484160142617,-0.011530079983540808,-0.014383719573342014,-0.017212778940922727,-0.020017659014768235,-0.022798783165384487,-0.025556594773778307,-0.028291554842139917,-0.031004139634456175,-0.03369483832593626,-0.03636415063991542,-0.039012584462453134,-0.04164065344618299,-0.0442488746373582,-0.046837766166691205,-0.04940784502922775,-0.05195962496060223,-0.054493614413518174,-0.057010314640042456,-0.05951021788021592,-0.06199380564983474,-0.064461547117364,-0.06691389756105552,-0.06935129690008174,-0.07177416829924471,-0.07418291685498096,-0.07657792837365451,-0.07895956824821733,-0.08132818043578123,-0.08368408654307087,-0.08602758502957765,-0.08835895053261762,-0.09067843331572602,-0.09298625884957203,-0.0952826275387726,-0.09756771459780965,-0.0998416700679348,-0.10210461896702254,-0.10435666156712224,-0.1065978737906695,-0.1088283077132038,-0.11104799216470991,-0.11325693342528172,-0.11545511600530843,-0.11764250348911041,-0.11981903941183246,-0.121984648138997,-0.12413923572922339,-0.12628269078029578,-0.12841488527850378,-0.13053567547713132,-0.13264490281757435,-0.13474239489262152,-0.13682796644993367,-0.1389014204358684,-0.14096254907557002,-0.14301113498173643,-0.14504695228838302,-0.14706976780917944,-0.1490793422149845,-0.1510754312177389,-0.15305778674520418,-0.15502615809240702,-0.1569802930386754,-0.15891993892521966,-0.16084484369671387,-0.16275475691396507,-0.16464943074005534,-0.1665286208983826,-0.16839208760451596,-0.17023959647664422,-0.1720709194240787,-0.17388583550546188,-0.17568413174534137,-0.1774656038988388,-0.1792300571568932,-0.1809773067903628,-0.18270717873952955,-0.1844195101589565,-0.1861141499218881,-0.18779095908015672,-0.1894498112721774,-0.19109059307231632,-0.19271320427648073,-0.194317558120189,-0.1959035814266523,-0.1974712146835391,-0.19902041204811047,-0.20055114128131477,-0.20206338361222428,-0.20355713353488933,-0.2050323985394401,-0.20648919877570704,-0.20792756664137368,-0.20934754628504681,-0.21074919302110823,-0.21213257265873725,-0.2134977607453727,-0.21484484172320667,-0.21617390800363795,-0.21748505897328302,-0.21877839994885212,-0.22005404109771315,-0.22131209633698648,-0.22255268221041616,-0.22377591672087563,-0.22498191808913873,-0.22617080342776408,-0.22734268733775753,-0.22849768043441343,-0.22963588780431632,-0.23075740740289297,-0.23186232840126964,-0.23295072947033868,-0.23402267697967327,-0.2350782231113175,-0.2361174039140099,-0.23714023732407893,-0.23814672117276633,-0.23913683120445753,-0.2401105191278479,-0.24106771070014157,-0.24200830383229113,-0.24293216672054566,-0.2438391360232374,-0.24472901508648062,-0.2456015722104409,-0.24645653896440575,-0.24729360856921231,-0.2481124343434806,-0.24891262819519186,-0.24969375916359937,-0.2504553520393106,-0.25119688607853996,-0.25191779381406987,-0.25261745997891927,-0.2532952205635688,-0.25395036199812515,-0.25458212043249207,-0.25518968111439033,-0.25577217789070295,-0.2563286928426607,-0.25685825604935264,-0.2573598454913601,-0.2578323871164107,-0.2582747550603967,-0.25868577199742976,-0.25906420961818516,-0.2594087892569967,-0.25971818266480445,-0.2599910129055831,-0.26022585537869697,-0.2604212389908203,-0.26057564747829126,-0.2606875208610285,-0.2607552570333192,-0.2607772135221034,-0.260751709429991,-0.26067702756326444,-0.26055141675651966,-0.2603730944092812,-0.26014024921871143,-0.2598510440720085,-0.259503619086808,-0.25909609481182655,-0.25862657558362295,-0.2580931530182133,-0.2574939096342711,-0.25682692262147777,-0.2560902677507072,-0.25528202340647865,-0.25440027473606575,-0.2534431179190798,-0.25240866453844657,-0.251295046016743,-0.2501004181017581,-0.24882296540443916,-0.2474609059784112,-0.2460124959158947,-0.24447603394964995,-0.24284986606353992,-0.24113239009847148,-0.23932206032665465,-0.23741739198107475,-0.2354169657373713,-0.2333194321267103,-0.2311235158443064,-0.22882801993703047,-0.2264318298740464,-0.22393391749764355,-0.22133334484100928,-0.2186292678095745,-0.21582093973346697,-0.21290771479123619,-0.20988905129609606,-0.20676451484142552,-0.20353378130681296,-0.20019663971608945,-0.19675299493068074,-0.1932028701685949,-0.18954640934528227,-0.18578387922402734,-0.18191567135656944,-0.17794230380268905,-0.17386442262436996,-0.16968280314243156,-0.16539835093733513,-0.16101210258628884,-0.15652522614440634,-0.1519390213838704,-0.1472549198033063,-0.1424744844163155,-0.13759940932534853,-0.1326315190847711,-0.127572767855061,-0.12242523834852936,-0.11719114056575652,N
5,-0.022410598006914105,-0.024836858782853577,-0.027241639498572792,-0.029625711819007652,-0.03198984454447497,-0.034334801449700365,-0.036661339183203086,-0.03897020523304876,-0.04126213596799214,-0.04353785475863676,-0.045798070179511687,-0.04804347429661363,-0.05027474104791794,-0.05249252471992322,-0.054697458519535086,-0.05689015324422084,-0.059071196056309644,-0.06124114936287122,-0.06340054979885207,-0.06554990731478727,-0.06768970437336913,-0.06982039525473878,-0.07194240546664556,-0.07405613125929668,-0.07616193924772559,-0.07826016614013985,-0.08035111856703929,-0.08243507300962764,-0.08451227582910452,-0.0865829433941175,-0.0886472623000469,-0.09070538967759197,-0.09275745359125827,-0.09480355352410533,-0.09684376094157435,-0.09887811993108112,-0.10090664791725837,-0.10292933644856017,-0.10494615204747054,-0.10695703712049126,-0.10896191092735036,-0.1109606706047678,-0.11295319223670977,-0.11493933196705988,-0.1169189271539646,-0.11889179756022031,-0.12085774656665096,-0.12281656239279184,-0.12476801931059037,-0.1267118788407276,-0.12864789093130974,-0.1305757951338719,-0.1324953217972537,-0.13440619328815254,-0.13630812523381866,-0.13820082778142398,-0.14008400687127723,-0.14195736551732974,-0.14382060508536865,-0.14567342656363347,-0.14751553182424693,-0.14934662486927097,-0.1511664130480732,-0.15297460823033293,-0.15477092792067237,-0.15655509630419004,-0.1583268452184768,-0.1600859150564122,-0.16183205560786548,-0.163565026843895,-0.165284599643233,-0.1669905564644663,-0.16868269197030233,-0.17036081360593472,-0.1720247421298701,-0.1736743120993415,-0.1753093723155458,-0.17692978622884828,-0.1785354322964884,-0.1801262042825064,-0.18170201149083623,-0.18326277892370585,-0.18480844735525942,-0.18633897330529742,-0.1878543288975399,-0.18935450159435183,-0.19083949380635698,-0.1923093223741302,-0.19376401791828965,-0.1952036240622254,-0.1966281965451085,-0.198037802253823,-0.19943251820450497,-0.20081243049468156,-0.20217763322853655,-0.20352822739910237,-0.20486431970607089,-0.20618602130014546,-0.20749344645526563,-0.20878671116524533,-0.21006593165754578,-0.21133122282748942,-0.21258269660509513,-0.21382046026049575,-0.2150446146487545,-0.2162552524025592,-0.2174524560808673,-0.21863629626092854,-0.21980682955102407,-0.22096409652296026,-0.2221081195849484,-0.22323890080960743,-0.2243564197234529,-0.22546063107590725,-0.22655146261203235,-0.2276288128543686,-0.22869254888701013,-0.22974250415212571,-0.230778476279891,-0.23180022495106423,-0.2328074697768372,-0.23379988820429676,-0.2347771134788842,-0.23573873268355727,-0.23668428486100745,-0.23761325923864715,-0.23852509358014892,-0.23941917265651189,-0.2402948268108863,-0.2411513306201838,-0.24198790168717865,-0.24280369958796832,-0.2435978249851296,-0.24436931892998262,-0.24511716238781425,-0.24584027600090588,-0.24653752008804455,-0.24720769489184777,-0.24784954109203647,-0.2484617405775482,-0.24904291745269422,-0.2495916392718806,-0.25010641850999765,-0.25058571424853987,-0.25102793403852947,-0.2514314359290873,-0.25179453068036356,-0.25211548417009283,-0.25239251998808215,-0.2526238222257633,-0.2528075384782804,-0.2529417830576244,-0.25302464039933414,-0.2530541686582308,-0.25302840349585476,-0.2529453620375266,-0.2528030469598448,-0.2525994506910935,-0.2523325597284844,-0.2520003590632642,-0.25160083669053085,-0.2511319881943148,-0.2505918214064369,-0.2499783611136361,-0.2492896537710607,-0.24852377220256383,-0.24767882029035715,-0.2467529376443206,-0.24574430422769178,-0.24465114493099963,-0.24347173409869075,-0.2422043999960968,-0.2408475291904784,-0.23939957083566304,-0.23785904086297854,-0.2362245260649382,-0.23449468804474666,-0.23266826702180246,-0.2307440855010753,-0.22872105180509164,-0.2265981634562372,-0.2243745104074996,-0.22204927812841505,-0.2196217505397217,-0.21709131277924767,-0.21445745379381506,-0.21171976876556917,-0.20887796137541256,-0.2059318458980108,-0.20288134912875913,-0.19972651214800366,-0.196467491918263,-0.19310456270231116,-0.1896381172971463,-0.18606866808491296,-0.18239684789334187,-0.1786234106513388,-0.1747492318333827,-0.17077530869322027,-0.16670276027954473,-0.16253282722004542,-0.15826687126964964,-0.1539063746301714,-0.14945293904790266,-0.14490828469174274,-0.1402742488180214,-0.1355527842345334,-0.13074595757812843,-0.12585594741822156,-0.12088504219685664,-0.11583563801782876,-0.11071023630221516,-0.1055114413281249,-0.10024195766420568,-0.0949045874961077,-0.08950222783997214,-0.08403786763629911,-0.07851458472053198,-0.07293554267947978,-0.06730398762343905,-0.06162324491060196,-0.05589671584090448,-0.0501278743133227,-0.04432026343504789,-0.0384774920733321,-0.03260323133789773,-0.026701210979664717,-0.02077521569685534,-0.014829081344202874,-0.008866691039144262,-0.00289197116095718,0.003091112749109325,0.009078560171963507,0.01506633987319741,0.021050394245482412,0.027026643724698596,0.032990991267278155,0.038939326884506464,0.044867532236310514,0.05077148527898212,0.0566470649544884,0.062490155916936,0.06829665329824866,0.07406246750679482,0.07978352904571354,0.08545579334545288,0.0910752456114192,0.09663790567924017,0.10213983286311772,0.10757713079134942,0.1129459522335711,0.11824250392260963,0.12346305136886018,0.12860392366590276,0.1336615182832059,0.1386323058291243,0.14351283476036067,0.1482997360211129,0.1529897275943476,0.15757961892684413,0.1620663151796221,0.16644682127899993,0.1707182457736889,0.17487780451139037,0.17892282414468622,0.18285074547615585,0.18665912664919435,0.1903456461778383,0.19390810580139958,0.19734443315633776,0.20065268425664962,0.20383104575292532,0.20687783692989314,0.20979151142479907,0.21257065867481756,0.21521400510284977,0.21772041504521084,0.22008889143171353,0.22231857623440768,0.22440875069231772,0.22635883531207615,0.22816838965008016,0.22983711187979886,0.2313648381259337,0.23275154153605573,0.2339973310821596,0.2351024501097546,0.236067274652643,0.23689231152507928,0.23757819621029033,0.23812569057362,0.23853568042582543,0.23880917295610618,0.2389472940543683,0.23895128553855746,0.23882250228952637,0.23856240928819425,0.2381725785570362,0.23765468601065817,0.2370105082055701,0.23624191897071797,0.23535088591560696,0.23433946682909892,0.23320980597849142,0.23196413031218258,0.2306047455767406,0.2291340323653943,0.22755444210643505,0.22586849299290224,0.22407876586262493,0.2221879000440577,0.22019858917497476,0.21811357699410344,0.21593565311359864,0.21366764878673516,0.21131243267691124,0.20887290662716007,0.2063520014372577,0.20375267266204974,0.20107789643639037,0.19833066532523233,0.19551398420448657,0.19263086618076014,0.18968432854318157,0.18667738873169465,0.18361306032117153,0.18049434903663075,0.17732424881103503,0.17410573789049388,0.1708417749980059,0.16753529556863545,0.1641892080534304,0.1608063902799053,0.15738968587126995,0.15394190074193986,0.15046579968250978,0.1469641030402145,0.14343948350673436,0.13989456302652076,0.13633190982281657,0.13275403552868198,0.12916339242434227,0.12556237079720478,0.12195329643624386,0.11833842826502472,0.1147199561249194,0.11109999872931146,0.10748060180676793,0.10386373644509954,0.10025129764800954,0.09664510311219747,0.0930468922192264,0.0894583252285505,0.08588098266600452,0.0823163649086156,0.07876589195840461,0.07523090339103755,0.07171265847401978,0.0682123364598353,0.06473103705800196,0.06126978108526502,0.05782951129416612,0.054411093377555717,0.051015317134154345,0.0476428977733893,0.04429447734745264,0.040970626310068196,0.03767184520080313,0.03439856644974023,0.03115115629902324,0.027929916835752997,0.024735088118841234,0.02156685037609853,0.01842532625806178,0.015310583147079027,0.012222635519952113,0.009161447358817744,0.0061269346078563205,0.0031189676757909985,0.000137373979263065,-0.002818059481894654,-0.005747583523868286,-0.008651484160142617,-0.011530079983540808,-0.014383719573342014,-0.017212778940922727,-0.020017659014768235,-0.022798783165384487,-0.025556594773778307,-0.028291554842139917,-0.031004139634456175,-0.03369483832593626,-0.03636415063991542,-0.039012584462453134,-0.04164065344618299,-0.0442488746373582,-0.046837766166691205,-0.04940784502922775,-0.05195962496060223,-0.054493614413518174,-0.057010314640042456,-0.05951021788021592,-0.06199380564983474,-0.064461547117364,-0.06691389756105552,-0.06935129690008174,-0.07177416829924471,-0.07418291685498096,-0.07657792837365451,-0.07895956824821733,-0.08132818043578123,-0.08368408654307087,-0.08602758502957765,-0.08835895053261762,-0.09067843331572602,-0.09298625884957203,-0.0952826275387726,-0.09756771459780965,-0.0998416700679348,-0.10210461896702254,-0.10435666156712224,-0.1065978737906695,-0.1088283077132038,-0.11104799216470991,-0.11325693342528172,-0.11545511600530843,-0.11764250348911041,-0.11981903941183246,-0.121984648138997,-0.12413923572922339,-0.12628269078029578,-0.12841488527850378,-0.13053567547713132,-0.13264490281757435,-0.13474239489262152,-0.13682796644993367,-0.1389014204358684,-0.14096254907557002,-0.14301113498173643,-0.14504695228838302,-0.14706976780917944,-0.1490793422149845,-0.1510754312177389,-0.15305778674520418,-0.15502615809240702,-0.1569802930386754,-0.15891993892521966,-0.16084484369671387,-0.16275475691396507,-0.16464943074005534,-0.1665286208983826,-0.16839208760451596,-0.17023959647664422,-0.1720709194240787,-0.17388583550546188,-0.17568413174534137,-0.1774656038988388,-0.1792300571568932,-0.1809773067903628,-0.18270717873952955,-0.1844195101589565,-0.1861141499218881,-0.18779095908015672,-0.1894498112721774,-0.19109059307231632,-0.19271320427648073,-0.194317558120189,-0.1959035814266523,-0.1974712146835391,-0.19902041204811047,-0.20055114128131477,-0.20206338361222428,-0.20355713353488933,-0.2050323985394401,-0.20648919877570704,-0.20792756664137368,-0.20934754628504681,-0.21074919302110823,-0.21213257265873725,-0.2134977607453727,-0.21484484172320667,-0.21617390800363795,-0.21748505897328302,-0.21877839994885212,-0.22005404109771315,-0.22131209633698648,-0.22255268221041616,-0.22377591672087563,-0.22498191808913873,-0.22617080342776408,-0.22734268733775753,-0.22849768043441343,-0.22963588780431632,-0.23075740740289297,-0.23186232840126964,-0.23295072947033868,-0.23402267697967327,-0.2350782231113175,-0.2361174039140099,-0.23714023732407893,-0.23814672117276633,-0.23913683120445753,-0.2401105191278479,-0.24106771070014157,-0.24200830383229113,-0.24293216672054566,-0.2438391360232374,-0.24472901508648062,-0.2456015722104409,-0.24645653896440575,-0.24729360856921231,-0.2481124343434806,-0.24891262819519186,-0.24969375916359937,-0.2504553520393106,-0.25119688607853996,-0.25191779381406987,-0.25261745997891927,-0.2532952205635688,-0.25395036199812515,-0.25458212043249207,-0.25518968111439033,-0.25577217789070295,-0.2563286928426607,-0.25685825604935264,-0.2573598454913601,-0.2578323871164107,-0.2582747550603967,-0.25868577199742976,-0.25906420961818516,-0.2594087892569967,-0.25971818266480445,-0.2599910129055831,-0.26022585537869697,-0.2604212389908203,-0.26057564747829126,-0.2606875208610285,-0.2607552570333192,-0.2607772135221034,-0.260751709429991,-0.26067702756326444,-0.26055141675651966,-0.2603730944092812,-0.26014024921871143,-0.2598510440720085,-0.259503619086808,-0.25909609481182655,-0.25862657558362295,-0.2580931530182133,-0.2574939096342711,-0.25682692262147777,-0.2560902677507072,-0.25528202340647865,-0.25440027473606575,-0.2534431179190798,-0.25240866453844657,-0.251295046016743,-0.2501004181017581,-0.24882296540443916,-0.2474609059784112,-0.2460124959158947,-0.24447603394964995,-0.24284986606353992,-0.24113239009847148,-0.23932206032665465,-0.23741739198107475,-0.2354169657373713,-0.2333194321267103,-0.2311235158443064,-0.22882801993703047,-0.2264318298740464,-0.22393391749764355,-0.22133334484100928,-0.2186292678095745,-0.21582093973346697,-0.21290771479123619,-0.20988905129609606,-0.20676451484142552,-0.20353378130681296,-0.20019663971608945,-0.19675299493068074,-0.1932028701685949,-0.18954640934528227,-0.18578387922402734,-0.18191567135656944,-0.17794230380268905,-0.17386442262436996,-0.16968280314243156,-0.16539835093733513,-0.16101210258628884,-0.15652522614440634,-0.1519390213838704,-0.1472549198033063,-0.1424744844163155,-0.13759940932534853,-0.1326315190847711,-0.127572767855061,-0.12242523834852936,-0.11719114056575652,-0.11187281032103646,-0.10647270755450833,-0.10099341442828647,-0.09543763320375787,-0.08980818389727152,-0.08410800171167532,-0.07834013424255404,-0.07250773846342407,-0.06661407750279608,-0.06066251722912564,-0.05465652265354955,-0.048599654157255215,-0.042495563558000535,-0.03634799003458712,-0.030160755918157457,-0.023937762348234755,-0.01768298479197767,-0.011400468428476718,-0.005094323397610739,0.0012312800853677918,0.0075721167366599494,0.01392391131297366,0.020282343812845566,0.0266430547679249,0.033001650614601086,0.03935370913024562,0.04569478492702386,0.05202041500406723,0.05832612435226853,0.06460743159976626,0.07085985469287663,0.07707891661202325,0.08326015111317019,0.08939910847838504,0.09549136126704495,0.10153251006503979,0.10751818921984709,0.11344407254216494,0.11930587896349602,0.1250993781442992,0.13082039601469211,0.13646482022135112,0.14202860546942667,0.147507778770442,0.1528984446158085,0.1581967900928947,0.1633990899530288,0.1685017116240777,0.1735011201361283,0.17839388291922934,0.1831766744480532,0.18784628072388698,0.19239960357910024,0.1968336647829989,0.20114560993846,0.20533271216624163,0.209392375562538,0.21332213840749906,0.2171196761170657,0.22078280394887415,0.2243094794752942,0.22769780483232302,0.23094602875288012,0.23405254838602224,0.23701591088421575,0.23983481473176121,0.24250811080409326,0.2450348031685071,0.24741404964057087,0.24964516210665852,0.25172760662315136,0.2536610032960938,0.2554451259259463,0.2570799013932475,0.2585654087771357,0.25990187821641425,0.2610896895213393,0.2621293705390107,0.26302159528125046,0.26376718182547054,0.26436708998479297,0.26482241873543755,0.2651344034041919,0.2653044126373084,0.2653339451745683,0.26522462644795397,0.26497820502419434,0.26459654890338247,0.26408164166640324,0.26343557845474497,0.2626605617827414,0.26175889720292506,0.26073298884865054,0.2595853348740587,0.258318522811441,0.25693522485978665,0.2554381931001363,0.2538302546245505,0.2521143065803319,0.25029331114901526,0.248370290480814,0.24634832160059567,0.2442305313029086,0.24202009104921615,0.23972021186323786,0.237334139211529,0.23486514787127133,0.2323165368057749,0.2296916240705449,0.22699374176838583,0.22422623107257406,0.22139243733398645,0.21849570527513068,0.21553937426664854,0.21252677369040268,0.20946121840102633,0.20634600429128752,0.2031844039604766,0.19997966249181132,0.19673499334976396,0.19345357439930955,0.19013854404235975,0.18679299747484798,0.18341998307472182,0.18002249892307873,0.1766034894539905,0.17316584223661116,0.16971238489981413,0.16624588220145067,0.16276903323750772,0.15928446879437871,0.15579474885400654,0.15230236025340557,0.14880971449316846,0.14531914569674065,0.14183290872546073,0.13835317744069742,0.13488204309586294,0.1314215128545164,0.1279735084446951,0.12453986495477949,0.12112232976936473,0.11772256165162354,0.11434212998855187,0.11098251421327421,0.10764510341307332,0.10433119613208247,0.1010420003741877,0.09777863379852636,0.09454212409241247,0.09133340951575405,0.08815333962275232,0.08500267616675053,0.08188209418989315,0.07879218329898366,0.07573344912448335,0.0727063149463276,0.06971112346337585,0.06674813869322689,0.06381754800084345,0.06091946425392709,0.05805392809909211,0.055220910355538985,0.05242031452505745,0.049651979412084365,0.046915681843262794,0.04421113947919069,0.04153801371373091,0.03889591265166647,0.036284394151688736,0.03370296892455257,0.03115110367526136,0.028628224267255975,0.02613371888115626,0.023666941151832335,0.02122721328117262,0.01881382912573243,0.016426057255859938,0.014063143984974802,0.01172431636869587,0.009408785168228946,0.007115747768743809,0.004844391046596516,0.002593894178527936,0.0003634313752929239,-0.001847825483069767,-0.00404070432105973,-0.0062160304443919295,-0.008374624206025525,-0.01051729874896591,-0.012644857816763923,-0.014758093629082966,-0.01685778482850426,-0.01894469450859277,-0.02101956832953455,-0.023083132727851657,-0.025136093236900216,-0.027179132939674246,-0.0292129110636769,-0.031238061713572404,-0.03325519273512381,-0.03526488470618258,-0.03726769004815205,-0.03926413225011687,-0.04125470520296103,-0.04323987264437373,-0.04522006771245699,-0.04719569260635912,-0.04916711836305979,-0.051134684764740125,-0.05309870038005666,-0.05505944272986963,-0.057017158567557354,-0.0589720642671463,-0.06092434630916113,-0.06287416185140729,-0.06482163937654942,-0.06676687941227125,-0.06870995531629875,-0.07065091411570917,-0.07258977739444222,-0.07452654222670718,-0.07646118215016999,-0.07839364816900517,-0.08032386977993587,-0.08225175601765593,-0.0841771965136941,-0.08610006256157587,-0.08802020818630774,-0.08993747121983742,-0.09185167438034426,-0.09376262635073791,-0.09567012285717409,-0.09757394775219981,-0.09947387409988767,-0.1013696652461834,-0.1032610758461775,-0.1051478528189963,-0.10702973621282232,-0.10890645998081662,-0.1107777526839502,-0.11264333814110562,-0.11450293604051544,-0.11635626252320587,-0.1182030307562857,-0.12004295151758039,-0.12187573380244386,-0.12370108545180623,-0.12551871380017451,-0.12732832634470911,-0.12912963143151032,-0.1309223389477405,-0.13270616100549112,-0.13448081260462627,-0.1362460122656586,-0.13800148263379922,-0.13974695107046056,-0.14148215025405722,-0.1432068187999815,-0.14492070189543202,-0.1466235519424642,-0.14831512920484044,-0.1499952024503787,-0.1516635495719653,-0.15331995816354718,-0.1549642260275075,-0.15659616159841003,-0.1582155842809255,-0.15982232471050714,-0.16141622494883442,-0.1629971386206586,-0.16456493098872985,-0.16611947895530302,-0.1676606709775558,-0.16918840689098882,-0.17070259764335063,-0.17220316494601065,-0.17369004085061004,-0.17516316725631556,-0.17662249534075938,-0.17806798488760436,-0.17949960347758845,-0.18091732553017223,-0.18232113120756374,-0.18371100520051206,-0.18508693541400265,-0.18644891157131852,-0.18779692374692794,-0.18913096081842842,-0.19045100881934543,-0.19175704919116318,-0.19304905694489657,-0.19432699872875012,-0.1955908307892029,-0.19684049683177876,-0.1980759258035724,-0.1992970296068656,-0.2005037007425922,-0.2016958098984831,-0.20287320350596047,-0.2040357012675301,-0.20518309364203344,-0.20631513929850373,-0.2074315625694738,-0.208532050917805,-0.20961625241637535,-0.21068377325912663,-0.2117341753336623,-0.21276697385839455,-0.21378163506871267,-0.2147775739634987,-0.21575415214690327,-0.2167106757801864,-0.21764639364015823,-0.21856049530454735,-0.21945210950952176,-0.22032030271210268,-0.22116407787385894,-0.22198237349252126,-0.22277406291007362,-0.22353795389374387,-0.22427278846558196,-0.22497724297989197,-0.22564992846657228,-0.22628939123368186,-0.2268941137025835,-0.22746251547273724,-0.22799295463011385,-0.22848372928355357,-0.22893307929150544,-0.22933918817300922,-0.22970018523299215,-0.23001414792556338,-0.23027910446294383,-0.2304930366852856,-0.23065388320503094,-0.23075954280448446,-0.2308078780436698,-0.23079671906144442,-0.23072386757844734,-0.23058710109482175,-0.23038417725843188,-0.23011283839653965,-0.22977081621809384,-0.22935583667272622,-0.22886562493497345,-0.22829791050184522,-0.22765043241417482,-0.22692094460393086,-0.22610722135640238,-0.22520706288227552,-0.22421830099340065,-0.22313880484845458,-0.22196648671809235,-0.2206993077414203,-0.21933528367041674,-0.2178724905930016,-0.21630907061437174,-0.2146432374860613,-0.21287328218101342,-0.2109975784005106,-0.20901458798782058,-0.20692286623309827,-0.20472106706154156,-0.20240794808336046,-0.19998237547381456,-0.19744332866469777,-0.19478990484314457,-0.19202132324875826,-0.18913692925269615,-0.18613619820927377,-0.1830187390771895,-0.1797842978000687,-0.17643276042932957,-0.17296415597805406,-0.16937865899539964,-0.16567659183574682,-0.16185842658853003,-0.15792478665145465,-0.153876447950882,-0.1497143398172331,-0.1454395455198913,-0.14105330246757888,-0.13655700207809243,-0.13195218930948618,-0.127240561838648,-0.12242396888541628,-0.11750440970090979,-0.1124840317523381,-0.1073651286374082,-0.10215013775081284,-0.0968416377094903,-0.09144234553025989,-0.08595511354958398,-0.08038292608248808,-0.07472889583073271,-0.06899626006123664,-0.06318837657792813,-0.0573087195016916,-0.05136087485919118,-0.0453485359699768,N
