0,-0.4338392767266662,-0.4352173526708504,-0.4362366063294606,-0.43690351318530196,-0.43722502825718845,-0.43720857026950066,-0.43686200514368184,-0.4361936288330373,-0.43521214953690396,-0.43392666934196217,-0.432346665326349,-0.4304819701523108,-0.42834275218684725,-0.4259394952012965,-0.42328297768829504,-0.42038425182287964,-0.4172546221053638,-0.4139056237341071,-0.41034900074667663,-0.40659668396132026,-0.40266076876564655,-0.39855349281042046,-0.3942872136531031,-0.38987438638394073,-0.3853275412786146,-0.3806592615313327,-0.3758821611096841,-0.37100886276064005,-0.3660519762061347,-0.3610240765754069,-0.3559376831110223,-0.3508052381768036,-0.3456390866062133,-0.34045145543808947,-0.33525443407543815,-0.3300599548927538,-0.3248797743256355,-0.3197254544837797,-0.31460834531752674,-0.3095395673567662,-0.3045299950456461,-0.2995902407021979,-0.29473063912470615,-0.2899612328603524,-0.2852917581584304,-0.28073163163575837,-0.2762899376734195,-0.2719754165552285,-0.2677964533616882,-0.2637610676370704,-0.2598769038408145,-0.25615122258810985,-0.2525908926878474,-0.24920238398927663,-0.2459917610428388,-0.24296467757480042,-0.2401263717776609,-0.23748166242065769,-0.2350349457795361,-0.23279019337950302,-0.2307509505467854,-0.22892033576587878,-0.2273010408352346,-0.2258953318095943,-0.22470505071793723,-0.22373161804708752,-0.22297603597760404,-0.22243889235483924,-0.2221203653781527,-0.22202022899184112,-0.22213785895875124,-0.22247223959385917,-0.22302197113327413,-0.22378527771386555,-0.2247600159387437,-0.22594368400375894,-0.22733343136003412,-0.22892606888732844,-0.23071807955242363,-0.2327056295247848,-0.23488457971873633,-0.23725049773024287,-0.2397986701378273,-0.24252411513566152,-0.24542159546025533,-0.2484856315695344,-0.25171051503874126,-0.2550903221376925,-0.2586189275413195,-0.2622900181200504,-0.26609710676953563,-0.2700335462428622,-0.2740925429266949,-0.27826717049283184,-0.2825503833817276,-0.28693503008845817,-0.2914138661935955,-0.2959795670664172,-0.3006247402026369,-0.3053419371761749,-0.31012366513973316,-0.31496239778501084,-0.31985058572726754,-0.3247806663143722,-0.3297450728083373,-0.33473624285523784,-0.33974662622607066,-0.3447686918557391,-0.34979493414097895,-0.3548178784154441,-0.35983008560225077,-0.3648241561043389,-0.36979273291882114,-0.3747285039094153,-0.3796242032630637,-0.38447261222891527,-0.3892665591596076,-0.39399891881480675,-0.3986626109809767,-0.4032505985366814,-0.4077558850092284,-0.4121715116016244,-0.416490553762818,-0.4207061174538635,-0.4248113351815647,-0.42879936180102657,-0.4326633701735149,-0.43639654683571133,-0.4399920877488201,-0.4434431941222267,-0.44674306839295347,-0.4498849105298784,-0.4528619147754876,-0.45566726687239695,-0.45829414187500456,-0.4607357027017959,-0.4629850995300901,-0.46503547007531537,-0.4668799408299841,-0.4685116293766448,-0.469923647848589,-0.47110910756273217,-0.4720611248632299,-0.4727728282372306,-0.47323736673697187,-0.4734479197050672,-0.4733977077983475,-0.47308000531516087,-0.4724881538184162,-0.47161557702252094,-0.4704557968974229,-0.46900245093977133,-0.46724931056105523,-0.46519030053139987,-0.46281951939347865,-0.46013126074796074,-0.457120035321939,-0.45378059373245316,-0.45010794982898805,-0.446097404482397,-0.44174456970981846,-0.43704539303711487,-0.43199618196839645,-0.4265936284124761,-0.42083483294891383,-0.414717328838272,-0.4082391056448287,-0.40139863231293416,-0.3941948795735357,-0.3866273415860213,-0.3786960566872385,-0.3704016270961127,-0.36174523746572673,-0.352728672209632,-0.34335433149514144,-0.3336252457704307,-0.32354508873720816,-0.313118188719059,-0.3023495383436673,-0.29124480243303086,-0.27981032404362705,-0.2680531286392346,-0.2559809263477913,-0.24360211222995923,-0.23092576453647087,-0.21796164097321372,-0.2047201729605773,-0.191212457846725,-0.17745024908039028,-0.16344594438969126,-0.14921257198344803,-0.1347637747671254,-0.1201137926112554,-0.1052774427499675,-0.0902700983572116,-0.07510766532356848,-0.059806557300315574,-0.04438366911523982,-0.028856348634229933,-0.013242367117979588,0.0024401118341400045,0.018172564625078613,0.033936141191292644,0.04971169965953604,0.06547984202943753,0.08122095074986092,0.09691522608662666,0.11254272420304261,0.12808339583663886,0.14351712542476303,0.1588237705655906,0.17398320173095638,0.18897534211530254,0.20378020747742542,0.21837794586516251,0.23274887714284115,0.24687353221196945,0.260732691790513,0.27430742464888686,0.28757912522939383,0.300529550547819,0.31314085625269567,0.32539563175129366,0.33727693434142486,0.3487683222634877,0.3598538865661621,0.3705182817115075,0.3807467548736498,0.39052517386133684,0.3998400535750181,0.40867858094195886,0.4170286383038304,0.424878825212758,0.43221847857457685,0.43903769110699675,0.4453273281086231,0.45107904252011133,0.4562852882438312,0.4609393317118362,0.4650352617141087,0.46856799748470146,0.47153329503006947,0.4739277517049752,0.47574880906220757,0.47699475399160357,0.47766471815273653,0.47775867572350017,0.47727743950757806,0.4762226554409461,0.4745967955300323,0.4724031492628368,0.4696458135458591,0.46632968121855234,0.4624604281921517,0.45804449926247204,0.4530890926521055,0.4476021433389975,0.44159230522633985,0.43506893220676834,0.428042058174375,0.42052237604061105,0.41252121581032275,0.4040505217711432,0.3951228288524602,0.3857512382221864,0.37594939219397094,0.3657314485046795,0.3551120540112485,0.3441063178620772,0.33272978420313676,0.3209984044690053,0.30892850930415294,0.2965367801741079,0.28384022073450255,0.27085612801034065,0.2576020634253996,0.24409582373377925,0.23035541191488684,0.2163990080772556,0.20224494040265256,0.1879116561728214,0.1734176929309144,0.1587816498158952,0.14402215909605948,0.1291578579388774,0.11420736046421937,0.09918923011540544,0.08412195236998278,0.06902390782014613,0.05391334566144336,0.038808357619475764,0.02372685233552072,0.008686530239704867,-0.0062951410519028654,-0.021200950787158987,-0.036013968553004996,-0.050717567148239745,-0.06529544481995955,-0.07973164683605041,-0.09401058637489876,-0.10811706471337032,-0.12203629069067048,-0.1357538994265124,-0.14925597027417736,-0.16252904398826118,-0.1755601390850462,-0.18833676737397045,-0.20084694864272182,-0.21307922448408603,-0.2250226712540885,-0.23666691214635907,-0.24800212836540095,-0.2590190693866374,-0.26970906229432073,-0.2800640201835006,-0.290076449611215,-0.2997394570924104,-0.30904675464223025,-0.31799266435754675,-0.32657212202432845,-0.3347806797468806,-0.3426145076025195,-0.35007039431670095,-0.35714574694693346,-0.36383858957368287,-0.37014756100512014,-0.37607191149553215,-0.3816114984731855,-0.3867667812868742,-0.3915388149905869,-0.3959292431768615,-0.39994028986377206,-0.403574750455268,-0.4068359818058216,-0.4097278914095224,-0.4122549257264379,-0.4144220576750686,-0.416234773331903,-0.417699057865554,-0.4188213807206052,-0.41960868007811897,-0.4200683466312248,-0.4202082067040578,-0.42003650473482224,-0.41956188515888626,-0.41879337373988634,-0.4177403583850147,-0.4164125694709901,-0.41482005972112196,-0.41297318368553054,-0.41088257686434465,-0.4085591345029153,-0.40601399010031963,-0.40325849368331873,-0.4003041898867121,-0.3971627958717079,-0.3938461791266157,-0.3903663352046549,-0.3867353654416708,-0.3829654546858124,-0.37906884908197364,-0.3750578339632947,-0.3709447118906757,-0.36674178087100295,-0.36246131279452265,-0.35811553214038905,-0.3537165949886345,-0.34927656836696364,-0.3448074099694318,-0.3403209482917122,-0.3358288632174008,-0.33134266708035287,-0.32687368623561375,-0.3224330431782044,-0.31803163923930416,-0.31368013788032406,-0.3093889486118751,-0.3051682115704238,-0.30102778277595016,-0.2969772200837066,-0.29302576984600454,-0.2891823543041014,-0.28545555972644,-0.28185362531413716,-0.27838443291566917,-0.27505549760131787,-0.27187395912421,-0.2688465742656102,-0.26597971005456367,-0.2632793378543673,-0.26075102830390523,-0.25839994709672337,-0.25623085158315334,-0.25424808818409034,-0.2524555906025485,-0.2508568788169385,-0.24945505884351982,-0.24825282325824483,-0.24725245246437946,-0.246455816686907,-0.24586437867354807,-0.24547919708320812,-0.24530093054270807,-0.24532984235326905,-0.24556580583064802,-0.24600831026400494,-0.2466564674765047,-0.2475090189687695,-0.24856434362729493,-0.24982046598061278,-0.2512750649831527,-0.2529254833022309,-0.25476873708044007,-0.2568015261451048,-0.259020244637642,-0.26142099203594765,-0.2639995845411179,-0.2667515667989922,-0.26967222392872614,-0.2727565938300156,-0.27599947973540195,-0.2793954629719182,-0.28293891590129894,-0.2866240150095032,-0.29044475410819115,-0.29439495760699796,-0.29846829382359885,-0.3026582882981116,-0.3069583370586272,-0.3113617197762507,-0.3158616127691898,-0.3204511018273912,-0.32512319480632734,-0.3298708339262699,-0.33468690774217813,-0.3395642627629656,-0.34449571466053874,-0.34947405898889206,-0.3544920813790744,-0.3595425672035857,-0.3646183106554326,-0.3697121231588092,-0.3748168410891799,-0.3799253328216936,-0.38503050506850456,-0.3901253084282479,-0.3952027421443993,-0.40025585812081776,-0.40527776417248584,-0.4102616264420844,-0.4152006709991599,-0.42008818470324194,-0.4249175153348236,-0.42968207094175936,-0.434375318442144,-0.4389907815985273,-0.44352203839652177,-0.44796271779703517,-0.4523064959270828,-0.4565470918554306,-0.46067826302115095,-0.46469380031561264,-0.46858752290515543,-0.4723532729563295,-0.4759849103468147,-0.4794763073752541,-0.48282134356182255,-0.48601390070425815,-0.4890478582857299,-0.4919170892637426,-0.49461545633126025,-0.4971368088026725,-0.4994749802194559,-0.5016237867089325,-0.5035770261724672,-0.5053284784262306,-0.5068719063720892,-0.5082010582234178,-0.5093096708347984,-0.5101914742171361,-0.5108401972896592,-0.5112495748790824,-0.5114133559807942,-0.5113253133120396,-0.510979254170035,-0.5103690325792701,-0.5094885627013311,-0.5083318334805008,-0.5068929244924193,-0.5051660229468627,-0.5031454417755741,-0.5008256387275749,-0.4982012364010974,-0.49526704313754494,-0.4920180746758356,-0.4884495764497614,-0.4845570464279896,-0.4803362584037969,-0.4757832856111537,-0.4708945245250855,-0.4656667187322525,-0.4600969827754744,-0.45418282584170966,-0.4479221751389152,-0.44131339884075216,-0.4343553285036693,-0.42704728082709487,-0.4193890786027681,-0.4113810707380945,-0.4030241512700945,-0.3943197772543453,-0.3852699853902165,-0.3758774072881693,-0.36614528332138396,-0.35607747497147896,-0.3456784755534172,-0.33495341925065086,-0.32390808843069524,-0.3125489191800087,-0.3008830049733574,-0.2889180984409033,-0.2766626112370524,-0.2641256119829939,-0.25131682222765683,-0.23824661041549378,-0.2249259838893164,-0.21136657892884703,-0.1975806488047942,-0.18358104987561918,-0.16938122579398374,-0.15499518985924765,-0.14043750552592726,-0.12572326511908893,-0.11086806684473205,-0.09588799015519962,-0.08079956950647,-0.0656197665849363,-0.05036594111640842,-0.035055820341447344,-0.019707467218447672,-0.004339247456657649,0.011030204485300094,0.026382020332883352,0.04169713378866017,0.05695631708023024,0.07214021812882418,0.08722939823378645,0.10220437019273881,0.11704563674333018,0.13173372918464654,0.14624924606835518,0.16057289187737098,0.17468551557948472,0.18856814891805782,0.20220204433480993,0.21556871244908105,0.22864995899117135,0.24142792106445266,0.25388510264276704,0.2660044092368325,0.2777691816363194,0.28916322861263816,0.3001708585013674,0.310776909614332,0.3209667794095994,0.33072645232840725,0.34004252623943904,0.3489022374605097,0.35729348430951696,0.36520484911944145,0.37262561867900973,0.37954580308371527,0.385956152960964,0.3918481750165527,0.3972141458787054,0.40204712424488054,0.4063409613245298,0.41009030955755,0.413290629610187,0.41593819567243945,0.4180300990707399,0.419564250198241,0.4205393787815764,0.42095503251922334,0.4208115741166803,0.4201101767338196,0.4188528178746859,0.4170422717682211,0.41468210028744096,0.41177664244854045,0.4083310025369537,0.40435103691557867,0.39984333956980217,0.39481522644017136,0.3892747185945977,0.38323052429634274,0.3766920200270334,0.3696692305230582,0.3621728078804157,0.3542140097844607,0.3458046769289217,0.3369572096909753,0.3276845441196638,0.31800012728902954,0.30791789207531667,0.2974522314220948,0.2866179721458389,0.27543034832708374,0.2639049743430964,0.2520578176048765,0.23990517104765807,0.2274636254140603,0.21475004138109433,0.2017815215908101,0.18857538262942505,0.175149126987984,0.1615204150502448,0.1477070371632396,0.13372688583047201,0.11959792805411519,0.105338177863751,0.09096566907913352,0.07649842834104444,0.06195444843313637,0.04735166193016278,0.032707915218326986,0.018040942919333492,0.0033683427345242733,-0.011292449268720915,-0.02592418289786688,-0.04050981758050413,-0.055032545598765005,-0.06947581479028409,-0.0838233506856601,-0.09805917805865588,-0.11216764187267653,-0.1261334276029496,-0.1399415809084154,N,,,,,,,,,,,,,,,,,,,,,,,,,,,,,,,,,,,,,,,,,,,,,,,,,,,,,,,,,,,,,,,,,,,,,,,,,,,,,,,,,,,,,,,,,,,,,,,,,,,,,,,,,,,,,,,,,,,,,,,,,,,,,,,,,,,,,,,,,,,,,,,,,,,,,,,,,,,,,,,,,,,,,,,,,,,,,,,,,,,,,,,,,,,,,,,,,,,,,,,,,,,,,,,,,,,,,,,,,,,,,,,,,,,,,,,,,,,,,,,,,,,,,,,,,,,,,,,,,,,,,,,,,,,,,,,,,,,,,,,,,,,,,,,,,,,,,,,,,,,,,,,,,,,,,,,,,,,,,,,,,,,,,,,,,,,,,,,,,,,,,,,,,,,,,,,,,,,,,,,,,,
1,-0.4388051067596361,-0.4414414379222919,-0.44371965707397626,-0.44564522575733684,-0.44722410963505127,-0.44846276307477123,-0.4493681130083053,-0.4499475420972553,-0.45020887122943554,-0.4501603413851786,-0.44981059492436326,-0.4491686563327165,-0.4482439124551748,-0.44704609225639935,-0.44558524615955053,-0.44387172500321137,-0.44191615864642486,-0.4397294342634117,-0.4373226743799008,-0.43470721469272167,-0.43189458170577477,-0.42889647022747546,-0.4257247207846667,-0.4223912969970473,-0.41890826294696354,-0.41528776059074274,-0.41154198726700625,-0.4076831733456555,-0.40372356005060117,-0.39967537749870263,-0.39555082300567246,-0.3913620396984698,-0.38712109546279766,-0.382839962261408,-0.37853049586596516,-0.3742044160360193,-0.36987328717007906,-0.3655484994607453,-0.3612412505920847,-0.35696252800884737,-0.3527230917797258,-0.3485334580840261,-0.34440388335676403,-0.3403443491173941,-0.3363645474968717,-0.3324738674803105,-0.3286813818863972,-0.3249958350986652,-0.3214256315584007,-0.31797882503377844,-0.3146631086835158,-0.3114858059261847,-0.30845386211870385,-0.3055738370490866,-0.3028518982508899,-0.30029381514219233,-0.2979049539884788,-0.2956902736931293,-0.293654322421784,-0.2918012350597987,-0.29013473149377966,-0.28865811570723254,-0.28737427568137996,-0.28628568408942984,-0.28539439977073283,-0.28470206997427566,-0.28420993336252515,-0.2839188237617283,-0.2838291746391042,-0.2839410242865521,-0.2842540216910281,-0.2847674330696518,-0.2854801490457263,-0.2863906924428866,-0.2874972266753185,-0.28879756470973866,-0.29028917857284203,-0.291969209378891,-0.2938344778528256,-0.29588149532119495,-0.2981064751372042,-0.30050534450053895,-0.303073756631456,-0.30580710326222244,-0.30870052741006954,-0.3117489363907641,-0.3149470150299389,-0.3182892390350686,-0.3217698884898654,-0.32538306141797463,-0.32912268735705646,-0.33298254090010043,-0.3369562551669046,-0.34103733514632056,-0.3452191708394761,-0.3494950501609961,-0.3538581715679689,-0.3583016563520722,-0.3628185605128626,-0.3674018861723912,-0.3720445925162682,-0.37673960620114,-0.3814798311429358,-0.386258157657663,-0.3910674709642231,-0.3959006590023221,-0.40075061948359403,-0.4056102661658297,-0.4104725343910914,-0.4153303858624669,-0.4201768125897201,-0.42500484001667266,-0.42980752940347916,-0.4345779794601273,-0.4393093271731004,-0.4439947478598206,-0.44862745455800856,-0.4532006967763901,-0.45770775857104684,-0.4621419560069005,-0.46649663414139014,-0.4707651635842794,-0.4749409366194864,-0.47901736296786607,-0.4829878653506146,-0.48684587493465853,-0.4905848266713176,-0.4941981546217867,-0.49767928743832385,-0.5010216440989879,-0.5042186299251019,-0.5072636329766875,-0.5101500209846348,-0.5128711389155516,-0.5154203072010186,-0.5177908207120127,-0.5199759486104732,-0.5219689351592586,-0.5237630015153861,-0.5253513485620318,-0.5267271608712969,-0.5278836118520842,-0.5288138700913008,-0.5295111069097189,-0.5299685051760143,-0.5301792693990415,-0.5301366370843377,-0.5298338913383469,-0.5292643747133872,-0.5284215042786806,-0.5272987878821442,-0.5258898415495924,-0.5241884079603144,-0.5221883759376656,-0.5198838008842411,-0.5172689260682386,-0.5143382046564855,-0.5110863224034006,-0.5075082209083943,-0.5035991213253121,-0.499354548390625,-0.494770354661602,-0.48984274486973267,-0.48456830026124115,-0.4789440027736372,-0.47296725892819996,-0.4666359233408817,-0.4599483217206081,-0.4529032732007296,-0.4455001118879522,-0.4377387075430352,-0.4296194852734692,-0.42114344409356846,-0.41231217425040306,-0.4031278732492141,-0.39359336047818644,-0.3837120903060495,-0.3734881635698312,-0.3629263374082165,-0.35203203336524896,-0.3408113436653167,-0.3292710356064062,-0.31741855405853975,-0.3052620220251988,-0.29281023920364946,-0.28007267852824447,-0.26705948072158925,-0.25378144684781084,-0.24025002883674113,-0.22647731799215737,-0.21247603153671962,-0.19825949721805908,-0.18384163597889985,-0.16923694274065387,-0.1544604653888761,-0.1395277820172344,-0.12445497645837991,-0.10925861216877866,-0.09395570457015914,-0.07856369192249596,-0.06310040478098622,-0.047584034129935,-0.03203309832044567,-0.01646640890849452,-0.0009030354643000564,0.014637730539341573,0.030136412620826464,0.045573386857878664,0.06092892004833918,0.07618320834643137,0.09131641622814572,0.10630871567295207,0.12114032547801788,0.13579155058903164,0.15024282130491212,0.16447473224805786,0.17846808102230516,0.1922039064521781,0.20566352627255924,0.21882857417147378,0.23168103611864227,0.244203285886249,0.25637811964599505,0.26818878955882086,0.27961903630134133,0.2906531204463958,0.3012758525938659,0.3114726221821398,0.32122942494197315,0.33053288893301125,0.33937029908419736,0.3477296201908695,0.35559951835113224,0.3629693808059813,0.3698293341306471,0.37617026075215587,0.38198381379443413,0.3872624302366595,0.3919993423555136,0.39618858744577634,0.39982501583749197,0.40290429721622434,0.40542292524031465,0.407378220467742,0.40876833162461906,0.40959223523871463,0.4098497336512245,0.40954145143394993,0.40866883025509204,0.40723412223278843,0.40524038180830657,0.4026914561785461,0.3995919743375837,0.3959473347753521,0.39176369187694887,0.38704794106941126,0.38180770276981996,0.37605130519181224,0.3697877660662266,0.3630267733289979,0.35577866483071985,0.34805440712816627,0.3398655734195254,0.3312243206777875,0.32214336603270344,0.3126359624586189,0.30271587382915854,0.292397349390674,0.2816950977015716,0.27062426009561996,0.2592003837336781,0.247439394295419,0.23535756835325544,0.22297150548193018,0.21029810016516365,0.1973545135464843,0.18415814505948042,0.17072660398327327,0.15707768097776903,0.14322931964021823,0.1291995881144583,0.11500665079688943,0.10066874019303518,0.0862041289641237,0.0716311021890703,0.05696792987534198,0.04223283976097868,0.027443990440150622,0.01261944483641229,-0.0022228559413086002,-0.017065118315964894,-0.03188972149971707,-0.04667924226930106,-0.06141647923103338,-0.07608447653976633,-0.09066654704392865,-0.105146294838081,-0.11950763720127652,-0.13373482589422267,-0.14781246779174398,-0.16172554483140725,-0.17545943325607807,-0.18899992212437236,-0.20233323106575443,-0.21544602726224296,-0.2283254416404437,-0.2409590842565086,-0.25333505885551955,-0.2654419765874435,-0.2772689688639277,-0.2888056993408342,-0.30004237500964476,-0.31096975638171814,-0.3215791667551426,-0.3318625005569393,-0.3418122307493466,-0.35142141528791565,-0.3606837026274839,-0.3695933362772615,-0.37814515839977947,-0.3863346124447473,-0.3941577448183884,-0.40161120559569397,-0.408692248275268,-0.41539872857101906,-0.4217291022451349,-0.42768242199491385,-0.43325833339832065,-0.43845706991846867,-0.44327944698007005,-0.44772685514052646,-0.45180125236859386,-0.45550515543579423,-0.45884163043737497,-0.4618142824696105,-0.4644272444814845,-0.46668516531319776,-0.4685931969486798,-0.47015698102040376,-0.47138263459347723,-0.4722767352467964,-0.47284630548210077,-0.47309879650281167,-0.473042071393456,-0.4726843877214568,-0.4720343795962121,-0.4711010392314514,-0.46989369804590425,-0.4684220073290081,-0.46669591851271147,-0.46472566310169156,-0.46252173230136906,-0.46009485637101566,-0.4574559837397123,-0.45461625993300947,-0.45158700634797344,-0.4483796989065414,-0.44500594663040016,-0.441477470190885,-0.4378060804750389,-0.4340036571979097,-0.430082127601633,-0.426053445291101,-0.4219295692442976,-0.4177224430241383,-0.4134439742269064,-0.40910601421045933,-0.4047203381359189,-0.40029862534852534,-0.39585244013283527,-0.39139321288511353,-0.38693222173519565,-0.38248057463970736,-0.37804919197466474,-0.37364878966171206,-0.3692898628538943,-0.3649826701996668,-0.360737218711229,-0.35656324926911287,-0.3524702227855239,-0.3484673070394331,-0.34456336420051087,-0.34076693906348404,-0.3370862480072061,-0.3335291686857136,-0.3301032304626599,-0.32681560560433964,-0.3236731012398604,-0.32068215209051854,-0.31784881397361864,-0.31517875808902507,-0.3126772660908047,-0.31034922594043335,-0.30819912854038256,-0.3062310651492678,-0.3044487255746269,-0.30285539713421383,-0.3014539643782812,-0.3002469095670921,-0.29923631389368915,-0.29842385943754374,-0.2978108318356166,-0.2973981236586037,-0.2971862384770643,-0.2971752955993839,-0.29736503546515297,-0.29775482567871686,-0.298343667665029,-0.29913020393029494,-0.30011272591675947,-0.3012891824436858,-0.3026571887167805,-0.3042140358738611,-0.30595670102592154,-0.3078818577517962,-0.30998588700789037,-0.31226488841594396,-0.31471469188911055,-0.3173308695559331,-0.32010874794582705,-0.3230434203977823,-0.32612975964180463,-0.32936243049832087,-0.3327359026536172,-0.33624446347365833,-0.3398822307995022,-0.3436431656590273,-0.3475210848525376,-0.351509673379847,-0.35560249664594007,-0.3597930123673056,-0.3640745821384748,-0.3684404826406132,-0.37288391643474555,-0.37739802226001,-0.3819758848072738,-0.38661054396848277,-0.3912950035075195,-0.3960222390662573,-0.40078520548687,-0.40557684347738066,-0.41039008558281365,-0.4152178613824694,-0.42005310191514655,-0.42488874339419813,-0.4297177302021107,-0.4345330171031325,-0.4393275707017641,-0.44409437024265763,-0.4488264077663131,-0.45351668757464036,-0.45815822505611786,-0.46274404499702776,-0.4672671794216106,-0.4717206649370472,-0.4760975396544923,-0.4803908398381481,-0.4845935963528477,-0.4886988309101302,-0.492699552200178,-0.4965887520740635,-0.5003594018631761,-0.5040044488515725,-0.5075168129924924,-0.5108893840304721,-0.5141150191211105,-0.5171865409724258,-0.5200967365916546,-0.5228383567816969,-0.5254041164747189,-0.5277866959291387,-0.529978742856534,-0.5319728755902694,-0.533761687364212,-0.5353377517182044,-0.536693629067266,-0.537821874498842,-0.5387150468301664,-0.5393657189169972,-0.5397664892103943,-0.539909994573511,-0.53978892435301,-0.5393960356716355,-0.5387241698999692,-0.5377662702681885,-0.5365154005745427,-0.5349647649320552,-0.5331077284756484,-0.530937838944192,-0.5284488490594862,-0.525634739621243,-0.5224897432108576,-0.5190083683818015,-0.5151854242322115,-0.5110160452634408,-0.5064957163985803,-0.5016202980169552,-0.4963860508892887,-0.4907896609166557,-0.4848282635427566,-0.4784994676855588,-0.4718013790684659,-0.4647326228572893,-0.45729236547601876,-0.4494803354501868,-0.44129684316593937,-0.4327427994650523,-0.42381973296454745,-0.4145298059676621,-0.40487582887908746,-0.3948612730746164,-0.3844902821417313,-0.37376768138140104,-0.36269898550667534,-0.3512904045129863,-0.3395488476639322,-0.3274819255121167,-0.3150979499216207,-0.30240593209932204,-0.2894155786119638,-0.2761372853415331,-0.26258212937756337,-0.24876185888534014,-0.23468888095978926,-0.22037624745120002,-0.20583763879397635,-0.19108734590888035,-0.1761402502202076,-0.16101180180555993,-0.14571799573913521,-0.1302753467269225,-0.11470086210271242,-0.09901201322935234,-0.08322670539064454,-0.06736324629451791,-0.05144031327779579,-0.035476919277376326,-0.019492377671057475,-0.0035062661240220622,0.012461610454478175,0.028391257767170868,0.044262530686029686,0.06005517236935247,0.07574885382797807,0.09132321385505719,0.10675789919836291,0.12203260482580029,0.1371271141695317,0.15202133926490444,0.16669536067057597,0.1811294670307206,0.19530419417403858,0.20920036367375874,0.22279912076414934,0.23608197148530333,0.2490308189625572,0.26162799875848286,0.27385631321127724,0.28569906465209294,0.29714008742558273,0.3081637786651277,0.3187551277485834,0.3288997443399877,0.33858388495677033,0.34779447803530944,0.35651914745115415,0.3647462344331804,0.3724648178375985,0.37966473277131235,0.38633658753425,0.3924717788338728,0.398062505252623,0.4031017789767919,0.4075834357835375,0.41150214326954204,0.41485340732559356,0.4176335768826282,0.41983984694498505,0.42147025991557524,0.4225237052336703,0.4229999173638436,0.42289947216934215,0.4222237816950389,0.4209750873950579,0.4191564518528132,0.41677174903968933,0.4138256531534534,0.4103236260814298,0.40627190354034814,0.4016774799458762,0.3965480920624862,0.39089220148399983,0.3847189759991171,0.37803826990231626,0.37086060331150306,0.36319714054747043,0.35505966762774166,0.3464605689348591,0.3374128031226701,0.3279298783146122,0.3180258266421271,0.30771517818077354,0.29701293434739606,0.2859345408103074,0.27449585995768994,0.2627131429828649,0.250603001653442,0.2381823798155683,0.22546852467064568,0.21247895787151413,0.19923144649378907,0.18574397392516917,0.17203471070554477,0.15812198536359012,0.14402425530550844,0.129760077798053,0.11534808107734616,0.10080693562866626,0.08615532569295413,0.07141192104046411,0.05659534903646122,0.041724167031413,0.02681683511713221,0.011891689280772307,-0.0030330850193724516,-0.01793947882122841,-0.03280968512530304,-0.04762612382715049,-0.06237146609658546,-0.07702865818193137,-0.0915809446115378,-0.10601189076830636,-0.12030540481592605,-0.13444575894853233,-0.14841760992984582,-0.1622060188937283,-0.17579647038657728,-0.18917489063304835,-0.20232766500421026,-0.21524165466779432,-0.22790421240288095,-0.24030319756309315,-0.25242699017194625,-0.2642645041325044,-0.27580519953453536,-0.2870390940468734,-0.2979567733846535,-0.30854940083734766,-0.3188087258420948,-0.32872709159274643,-0.33829744167893433,-0.34751332574501487,-0.3563689041574431,-0.3648589516786164,-0.37297886015138876,-0.3807246401914675,-0.38809292188081185,-0.39508095446573704,-0.4016866050712056,-0.40790835643442397,-0.41374530365496504,-0.41919714996979157,-0.4242642015705043,-0.4289473614703981,-0.4332481224171541,-0.437168558850019,-0.44071131790749934,-0.44387960949251665,-0.44667719540936074,-0.4491083776075871,-0.4511779855793561,-0.4528913629441346,-0.45425435324370395,-0.4552732849812468,-0.4559549559481459,-0.4563066168719153,-0.45633595441173014,-0.4560510735428237,-0.45546047938204726,-0.45457305849395496,-0.4533980597060983,-0.45194507447522764,-0.45022401685695007,-0.4482451031186241,-0.44601883102469553,-0.4435559588367284,-0.44086748408122545,-0.43796462212516435,-0.4348587845868615,-0.4315615576200052,-0.42808468011856343,-0.42444002187970437,-0.42063956175306355,-0.41669536581642047,-0.41261956562751084,-0.40842433659036403,-0.4041218764643414,-0.399724384053857,-0.39524403812545283,-0.39069297658857954,-0.3860832759683656,-0.3814269312101514,-0.37673583586418763,-0.37202176268601633,-0.36729634467505484,-0.3625710565799212,-0.35785719690588197,-0.35316587045061193,-0.34850797138592754,-0.3438941669101602,-0.3393348815021066,-0.33484028179864517,-0.3304202621091484,-0.3260844305844098,-0.3218420960627491,-0.31770225560942206,-0.31367358276044915,-0.3097644164891092,-0.30598275091826294,-0.30233622579246694,-0.29883211771382584,-0.2954773321471554,-0.29227839620316837,-0.2892414522030838,-0.28637225202338895,-0.2836761522235212,-0.2811581099623142,-0.27882267970280483,-0.2766740106981722,-0.27471584525248494,-0.2729515177518218,-0.27138395445756974,-0.27001567405035337,-0.2688487889155004,-0.2678850071627545,-0.26712563536859285,-0.2665715820249887,-0.2662233616792797,-0.2660810997509772,-0.26614453800805915,-0.26641304068170446,-0.2668856011987111,-0.26756084951162107,-0.2684370600040387,-0.26951215994437666,-0.2707837384583623,-0.2722490559902551,-0.27390505422360767,-0.27574836643043277,-0.2777753282119886,-0.2799819885925374,-0.28236412143233425,-0.28491723712556194,-0.28763659453712154,-0.2905172131274514,-0.293553885226785,-0.29674118842395264,-0.30007349801514743,-0.3035449994490545,-0.3071497007269245,-0.31088144472492696,-0.3147339213738324,-0.3187006796152626,-0.32277513909219685,-0.32695060155524963,-0.3312202619275079,-0.33557721894825326,-0.3400144853652164,-0.3445249976738246,-0.34910162534558375,-0.3537371794549008,-0.35842442068211194,-0.36315606671798567,-0.36792479903096736,-0.3727232689163847,-0.37754410282760614,-0.38237990704805763,-0.3872232716891671,-0.3920667739474826,-0.3969029806446649,-0.40172445014345426,-0.4065237336522518,-0.4112933758705224,-0.4160259150224383,-0.4207138824018685,-0.4253498014666239,-0.4299261864523513,-0.4344355405730387,-0.4388703539575969,-0.44322310139124776,-0.44748623985991576,-0.4516522059831674,-0.4557134134989547,-0.4596622508870348,-0.4634910791470859,-0.46719222982170444,-0.4707580034235253,-0.47418066835674716,-0.4774524603555553,-0.4805655825207598,-0.4835122060954185,-0.4862844720641369,-0.48887449359999274,-0.4912743594222644,-0.49347613817186065,-0.49547188386735397,-0.4972536424531053,-0.49881345947173217,-0.5001433889209721,-0.5012355033231788,-0.5020819049952945,-0.5026747385131253,-0.503006204380248,-0.5030685738962247,-0.5028542051914792,-0.5023555603866161,-0.5015652238352091,-0.5004759214044092,-0.49908054073277813,-0.49737215238570354,-0.49534403182065345,-0.4929896820810846,-0.4903028571348451,-0.487277585748384,-0.4839081957753153,-0.48018933875680614,-0.47611601473976806,-0.471683597188838,-0.46688785784860176,-0.46172499143860213,-0.456191640081391,-0.4502849173331712,-0.4440024316668937,-0.43734230929359763,-0.43030321623401646,-0.4228843795189188,-0.41508560737218225,-0.4069073082696648,-0.39835050879881995,-0.38941687021167226,-0.3801087035392017,-0.3704289831771199,-0.3603813588888436,-0.3499701661418822,-0.339200434673024,-0.32807789522547576,-0.3166089844403737,-0.3048008478533165,-0.2926613409217692,-0.280199028055624,-0.26742317966331186,-0.25434376719504237,-0.24097145613993742,-0.2273175969794301,-0.21339421413925153,-0.19921399295273676,-0.18479026462418655,-0.1701369892257205,-0.15526873680000627,-0.1402006666117572,-0.1249485045660252,-0.10952851885297206,-0.09395749391563275,-0.07825270280905883,-0.062431877997232155,-0.046513180677133836,-0.030515168754848887,-0.014456763566556112,0.001642784590419146,0.017763932014044886,0.033886878106575084,0.04999160273270618,0.06605790435104374,0.08206543880863663,0.09799375865849096,0.11382235289075027,0.1295306869933497,0.14509824322254783,0.16050456093543408,0.17572927687111017,0.19075216529720962,0.20555317790729177,0.2201124833287379,0.23441050613618297,0.2484279652976653,0.2621459119542038,0.275545766410185,0.28860935424478323,0.3013189414833624,0.31365726874131444,0.3256075842309168,0.337153675555273,0.34827990024410005,0.35897121496404905,0.3692132033166845,0.37899210216803336,0.38829482648138613,0.3971089926039282,0.4054229399397138,0.41322575097147424,0.4205072696228708,0.42725811793751206,0.43346971103565374,0.43913427033405583,0.4442448350382754,0.44879527190299673,0.45278028324252795,0.4561954131945472,0.4590370522615839,0.46130244014507676,0.46298966687592374,0.4640976722615609,0.4646262436875453,0.4645760123064578,0.4639484476389076,0.46274585062143864,0.4609713451488667,0.45862886815712894,0.45572315828764914,0.45225974317974055,0.448244925451827,0.4436857674454426,0.4385900748072244,0.4329663789710066,0.42682391858843044,0.42017261995333227,0.4130230764654264,0.40538652717512264,0.39727483445119643,0.3887004608212847,0.3796764450394509,0.3702163774279964,0.36033437453834904,0.35004505318829826,0.33936350393978365,0.32830526406897687,0.31688629007141456,0.30512292975658595,0.2930318939946862,0.28063022816452105,0.2679352833408382,0.25496468727161253,0.2417363152053034,0.22826826061382893,0.21457880584447114,0.20068639274468386,0.18660959331342192,0.17236708042019447,0.15797759862207386,0.14345993511957858,0.12883289090192354,0.11411525212099202,0.09932576172343752,0.08448309138045204,0.06960581376379624,0.05471237520642273,0.0398210687767405,0.02495000780481322,0.01011709990703597,-0.004659978454655061,-0.01936380685590353,-0.03397724521076967,-0.048483457460376814,-0.0628659346224349,-0.07710851717793432,-0.0911954167665942,-0.1051112371582027,-0.11884099447097685,-0.1323701366149827,-0.14568456194115492,-0.158770637075271,-0.17161521391490533,-0.18420564576784673,-0.1965298026124296,-0.20857608546074238,-0.22033343980381956,-0.231791368118724,-0.24293994142315808,-0.2537698098662575,-0.26427221234005305,-0.2744389850943253,-0.28426256934464955,-0.2937360178682914,-0.3028530005774798,-0.31160780905707414,-0.3199953600628526,-0.32801119798332373,-0.3356514962619617,-0.3429130577748954,-0.3497933141728769,-0.35629032420541057,-0.3624027710345125,-0.3681299585379391,-0.37347180661412754,-0.3784288455110533,-0.3830022091903956,-0.3871936277291056,-0.39100541877154626,-0.39444047805565463,-0.3975022690281284,N
2,-0.45884163043737497,-0.4618142824696105,-0.4644272444814845,-0.46668516531319776,-0.4685931969486798,-0.47015698102040376,-0.47138263459347723,-0.4722767352467964,-0.47284630548210077,-0.47309879650281167,-0.473042071393456,-0.4726843877214568,-0.4720343795962121,-0.4711010392314514,-0.46989369804590425,-0.4684220073290081,-0.46669591851271147,-0.46472566310169156,-0.46252173230136906,-0.46009485637101566,-0.4574559837397123,-0.45461625993300947,-0.45158700634797344,-0.4483796989065414,-0.44500594663040016,-0.441477470190885,-0.4378060804750389,-0.4340036571979097,-0.430082127601633,-0.426053445291101,-0.4219295692442976,-0.4177224430241383,-0.4134439742269064,-0.40910601421045933,-0.4047203381359189,-0.40029862534852534,-0.39585244013283527,-0.39139321288511353,-0.38693222173519565,-0.38248057463970736,-0.37804919197466474,-0.37364878966171206,-0.3692898628538943,-0.3649826701996668,-0.360737218711229,-0.35656324926911287,-0.3524702227855239,-0.3484673070394331,-0.34456336420051087,-0.34076693906348404,-0.3370862480072061,-0.3335291686857136,-0.3301032304626599,-0.32681560560433964,-0.3236731012398604,-0.32068215209051854,-0.31784881397361864,-0.31517875808902507,-0.3126772660908047,-0.31034922594043335,-0.30819912854038256,-0.3062310651492678,-0.3044487255746269,-0.30285539713421383,-0.3014539643782812,-0.3002469095670921,-0.29923631389368915,-0.29842385943754374,-0.2978108318356166,-0.2973981236586037,-0.2971862384770643,-0.2971752955993839,-0.29736503546515297,-0.29775482567871686,-0.298343667665029,-0.29913020393029494,-0.30011272591675947,-0.3012891824436858,-0.3026571887167805,-0.3042140358738611,-0.30595670102592154,-0.3078818577517962,-0.30998588700789037,-0.31226488841594396,-0.31471469188911055,-0.3173308695559331,-0.32010874794582705,-0.3230434203977823,-0.32612975964180463,-0.32936243049832087,-0.3327359026536172,-0.33624446347365833,-0.3398822307995022,-0.3436431656590273,-0.3475210848525376,-0.351509673379847,-0.35560249664594007,-0.3597930123673056,-0.3640745821384748,-0.3684404826406132,-0.37288391643474555,-0.37739802226001,-0.3819758848072738,-0.38661054396848277,-0.3912950035075195,-0.3960222390662573,-0.40078520548687,-0.40557684347738066,-0.41039008558281365,-0.4152178613824694,-0.42005310191514655,-0.42488874339419813,-0.4297177302021107,-0.4345330171031325,-0.4393275707017641,-0.44409437024265763,-0.4488264077663131,-0.45351668757464036,-0.45815822505611786,-0.46274404499702776,-0.4672671794216106,-0.4717206649370472,-0.4760975396544923,-0.4803908398381481,-0.4845935963528477,-0.4886988309101302,-0.492699552200178,-0.4965887520740635,-0.5003594018631761,-0.5040044488515725,-0.5075168129924924,-0.5108893840304721,-0.5141150191211105,-0.5171865409724258,-0.5200967365916546,-0.5228383567816969,-0.5254041164747189,-0.5277866959291387,-0.529978742856534,-0.5319728755902694,-0.533761687364212,-0.5353377517182044,-0.536693629067266,-0.537821874498842,-0.5387150468301664,-0.5393657189169972,-0.5397664892103943,-0.539909994573511,-0.53978892435301,-0.5393960356716355,-0.5387241698999692,-0.5377662702681885,-0.5365154005745427,-0.5349647649320552,-0.5331077284756484,-0.530937838944192,-0.5284488490594862,-0.525634739621243,-0.5224897432108576,-0.5190083683818015,-0.5151854242322115,-0.5110160452634408,-0.5064957163985803,-0.5016202980169552,-0.4963860508892887,-0.4907896609166557,-0.4848282635427566,-0.4784994676855588,-0.4718013790684659,-0.4647326228572893,-0.45729236547601876,-0.4494803354501868,-0.44129684316593937,-0.4327427994650523,-0.42381973296454745,-0.4145298059676621,-0.40487582887908746,-0.3948612730746164,-0.3844902821417313,-0.37376768138140104,-0.36269898550667534,-0.3512904045129863,-0.3395488476639322,-0.3274819255121167,-0.3150979499216207,-0.30240593209932204,-0.2894155786119638,-0.2761372853415331,-0.26258212937756337,-0.24876185888534014,-0.23468888095978926,-0.22037624745120002,-0.20583763879397635,-0.19108734590888035,-0.1761402502202076,-0.16101180180555993,-0.14571799573913521,-0.1302753467269225,-0.11470086210271242,-0.09901201322935234,-0.08322670539064454,-0.06736324629451791,-0.05144031327779579,-0.035476919277376326,-0.019492377671057475,-0.0035062661240220622,0.012461610454478175,0.028391257767170868,0.044262530686029686,0.06005517236935247,0.07574885382797807,0.09132321385505719,0.10675789919836291,0.12203260482580029,0.1371271141695317,0.15202133926490444,0.16669536067057597,0.1811294670307206,0.19530419417403858,0.20920036367375874,0.22279912076414934,0.23608197148530333,0.2490308189625572,0.26162799875848286,0.27385631321127724,0.28569906465209294,0.29714008742558273,0.3081637786651277,0.3187551277485834,0.3288997443399877,0.33858388495677033,0.34779447803530944,0.35651914745115415,0.3647462344331804,0.3724648178375985,0.37966473277131235,0.38633658753425,0.3924717788338728,0.398062505252623,0.4031017789767919,0.4075834357835375,0.41150214326954204,0.41485340732559356,0.4176335768826282,0.41983984694498505,0.42147025991557524,0.4225237052336703,0.4229999173638436,0.42289947216934215,0.4222237816950389,0.4209750873950579,0.4191564518528132,0.41677174903968933,0.4138256531534534,0.4103236260814298,0.40627190354034814,0.4016774799458762,0.3965480920624862,0.39089220148399983,0.3847189759991171,0.37803826990231626,0.37086060331150306,0.36319714054747043,0.35505966762774166,0.3464605689348591,0.3374128031226701,0.3279298783146122,0.3180258266421271,0.30771517818077354,0.29701293434739606,0.2859345408103074,0.27449585995768994,0.2627131429828649,0.250603001653442,0.2381823798155683,0.22546852467064568,0.21247895787151413,0.19923144649378907,0.18574397392516917,0.17203471070554477,0.15812198536359012,0.14402425530550844,0.129760077798053,0.11534808107734616,0.10080693562866626,0.08615532569295413,0.07141192104046411,0.05659534903646122,0.041724167031413,0.02681683511713221,0.011891689280772307,-0.0030330850193724516,-0.01793947882122841,-0.03280968512530304,-0.04762612382715049,-0.06237146609658546,-0.07702865818193137,-0.0915809446115378,-0.10601189076830636,-0.12030540481592605,-0.13444575894853233,-0.14841760992984582,-0.1622060188937283,-0.17579647038657728,-0.18917489063304835,-0.20232766500421026,-0.21524165466779432,-0.22790421240288095,-0.24030319756309315,-0.25242699017194625,-0.2642645041325044,-0.27580519953453536,-0.2870390940468734,-0.2979567733846535,-0.30854940083734766,-0.3188087258420948,-0.32872709159274643,-0.33829744167893433,-0.34751332574501487,-0.3563689041574431,-0.3648589516786164,-0.37297886015138876,-0.3807246401914675,-0.38809292188081185,-0.39508095446573704,-0.4016866050712056,-0.40790835643442397,-0.41374530365496504,-0.41919714996979157,-0.4242642015705043,-0.4289473614703981,-0.4332481224171541,-0.437168558850019,-0.44071131790749934,-0.44387960949251665,-0.44667719540936074,-0.4491083776075871,-0.4511779855793561,-0.4528913629441346,-0.45425435324370395,-0.4552732849812468,-0.4559549559481459,-0.4563066168719153,-0.45633595441173014,-0.4560510735428237,-0.45546047938204726,-0.45457305849395496,-0.4533980597060983,-0.45194507447522764,-0.45022401685695007,-0.4482451031186241,-0.44601883102469553,-0.4435559588367284,-0.44086748408122545,-0.43796462212516435,-0.4348587845868615,-0.4315615576200052,-0.42808468011856343,-0.42444002187970437,-0.42063956175306355,-0.41669536581642047,-0.41261956562751084,-0.40842433659036403,-0.4041218764643414,-0.399724384053857,-0.39524403812545283,-0.39069297658857954,-0.3860832759683656,-0.3814269312101514,-0.37673583586418763,-0.37202176268601633,-0.36729634467505484,-0.3625710565799212,-0.35785719690588197,-0.35316587045061193,-0.34850797138592754,-0.3438941669101602,-0.3393348815021066,-0.33484028179864517,-0.3304202621091484,-0.3260844305844098,-0.3218420960627491,-0.31770225560942206,-0.31367358276044915,-0.3097644164891092,-0.30598275091826294,-0.30233622579246694,-0.29883211771382584,-0.2954773321471554,-0.29227839620316837,-0.2892414522030838,-0.28637225202338895,-0.2836761522235212,-0.2811581099623142,-0.27882267970280483,-0.2766740106981722,-0.27471584525248494,-0.2729515177518218,-0.27138395445756974,-0.27001567405035337,-0.2688487889155004,-0.2678850071627545,-0.26712563536859285,-0.2665715820249887,-0.2662233616792797,-0.2660810997509772,-0.26614453800805915,-0.26641304068170446,-0.2668856011987111,-0.26756084951162107,-0.2684370600040387,-0.26951215994437666,-0.2707837384583623,-0.2722490559902551,-0.27390505422360767,-0.27574836643043277,-0.2777753282119886,-0.2799819885925374,-0.28236412143233425,-0.28491723712556194,-0.28763659453712154,-0.2905172131274514,-0.293553885226785,-0.29674118842395264,-0.30007349801514743,-0.3035449994490545,-0.3071497007269245,-0.31088144472492696,-0.3147339213738324,-0.3187006796152626,-0.32277513909219685,-0.32695060155524963,-0.3312202619275079,-0.33557721894825326,-0.3400144853652164,-0.3445249976738246,-0.34910162534558375,-0.3537371794549008,-0.35842442068211194,-0.36315606671798567,-0.36792479903096736,-0.3727232689163847,-0.37754410282760614,-0.38237990704805763,-0.3872232716891671,-0.3920667739474826,-0.3969029806446649,-0.40172445014345426,-0.4065237336522518,-0.4112933758705224,-0.4160259150224383,-0.4207138824018685,-0.4253498014666239,-0.4299261864523513,-0.4344355405730387,-0.4388703539575969,-0.44322310139124776,-0.44748623985991576,-0.4516522059831674,-0.4557134134989547,-0.4596622508870348,-0.4634910791470859,-0.46719222982170444,-0.4707580034235253,-0.47418066835674716,-0.4774524603555553,-0.4805655825207598,-0.4835122060954185,-0.4862844720641369,-0.48887449359999274,-0.4912743594222644,-0.49347613817186065,-0.49547188386735397,-0.4972536424531053,-0.49881345947173217,-0.5001433889209721,-0.5012355033231788,-0.5020819049952945,-0.5026747385131253,-0.503006204380248,-0.5030685738962247,-0.5028542051914792,-0.5023555603866161,-0.5015652238352091,-0.5004759214044092,-0.49908054073277813,-0.49737215238570354,-0.49534403182065345,-0.4929896820810846,-0.4903028571348451,-0.487277585748384,-0.4839081957753153,-0.48018933875680614,-0.47611601473976806,-0.471683597188838,-0.46688785784860176,-0.46172499143860213,-0.456191640081391,-0.4502849173331712,-0.4440024316668937,-0.43734230929359763,-0.43030321623401646,-0.4228843795189188,-0.41508560737218225,-0.4069073082696648,-0.39835050879881995,-0.38941687021167226,-0.3801087035392017,-0.3704289831771199,-0.3603813588888436,-0.3499701661418822,-0.339200434673024,-0.32807789522547576,-0.3166089844403737,-0.3048008478533165,-0.2926613409217692,-0.280199028055624,-0.26742317966331186,-0.25434376719504237,-0.24097145613993742,-0.2273175969794301,-0.21339421413925153,-0.19921399295273676,-0.18479026462418655,-0.1701369892257205,-0.15526873680000627,-0.1402006666117572,-0.1249485045660252,-0.10952851885297206,-0.09395749391563275,-0.07825270280905883,-0.062431877997232155,-0.046513180677133836,-0.030515168754848887,-0.014456763566556112,0.001642784590419146,0.017763932014044886,0.033886878106575084,0.04999160273270618,0.06605790435104374,0.08206543880863663,0.09799375865849096,0.11382235289075027,0.1295306869933497,0.14509824322254783,0.16050456093543408,0.17572927687111017,0.19075216529720962,0.20555317790729177,0.2201124833287379,0.23441050613618297,0.2484279652976653,0.2621459119542038,0.275545766410185,0.28860935424478323,0.3013189414833624,0.31365726874131444,0.3256075842309168,0.337153675555273,0.34827990024410005,0.35897121496404905,0.3692132033166845,0.37899210216803336,0.38829482648138613,0.3971089926039282,0.4054229399397138,0.41322575097147424,0.4205072696228708,0.42725811793751206,0.43346971103565374,0.43913427033405583,0.4442448350382754,0.44879527190299673,0.45278028324252795,0.4561954131945472,0.4590370522615839,0.46130244014507676,0.46298966687592374,0.4640976722615609,0.4646262436875453,0.4645760123064578,0.4639484476389076,0.46274585062143864,0.4609713451488667,0.45862886815712894,0.45572315828764914,0.45225974317974055,0.448244925451827,0.4436857674454426,0.4385900748072244,0.4329663789710066,0.42682391858843044,0.42017261995333227,0.4130230764654264,0.40538652717512264,0.39727483445119643,0.3887004608212847,0.3796764450394509,0.3702163774279964,0.36033437453834904,0.35004505318829826,0.33936350393978365,0.32830526406897687,0.31688629007141456,0.30512292975658595,0.2930318939946862,0.28063022816452105,0.2679352833408382,0.25496468727161253,0.2417363152053034,0.22826826061382893,0.21457880584447114,0.20068639274468386,0.18660959331342192,0.17236708042019447,0.15797759862207386,0.14345993511957858,0.12883289090192354,0.11411525212099202,0.09932576172343752,0.08448309138045204,0.06960581376379624,0.05471237520642273,0.0398210687767405,0.02495000780481322,0.01011709990703597,-0.004659978454655061,-0.01936380685590353,-0.03397724521076967,-0.048483457460376814,-0.0628659346224349,-0.07710851717793432,-0.0911954167665942,-0.1051112371582027,-0.11884099447097685,-0.1323701366149827,-0.14568456194115492,-0.158770637075271,-0.17161521391490533,-0.18420564576784673,-0.1965298026124296,-0.20857608546074238,-0.22033343980381956,-0.231791368118724,-0.24293994142315808,-0.2537698098662575,-0.26427221234005305,-0.2744389850943253,-0.28426256934464955,-0.2937360178682914,-0.3028530005774798,-0.31160780905707414,-0.3199953600628526,-0.32801119798332373,-0.3356514962619617,-0.3429130577748954,-0.3497933141728769,-0.35629032420541057,-0.3624027710345125,-0.3681299585379391,-0.37347180661412754,-0.3784288455110533,-0.3830022091903956,-0.3871936277291056,-0.39100541877154626,-0.39444047805565463,-0.3975022690281284,-0.4001948115576916,-0.40252266976933265,-0.4044909390335624,-0.4061052321353996,-0.4073716646416917,-0.4082968395010268,-0.4088878309223415,-0.4091521675661998,-0.4090978150728258,-0.40873315796474646,-0.4080669809735001,-0.4071084498274801,-0.4058670915264759,-0.40435277413951937,-0.40257568617334444,-0.4005463155493746,-0.39827542822081863,-0.3957740464766929,-0.39305342699087464,-0.39012503866112586,-0.38700054027068304,-0.3836917580151768,-0.38021066294742106,-0.3765693483817617,-0.37278000728991867,-0.36885490973049173,-0.36480638036338864,-0.36064677609014606,-0.35638846385175504,-0.35204379862473345,-0.3476251016642976,-0.34314463903367365,-0.3386146004495656,-0.3340470784817775,-0.32945404815208024,-0.324847346968065,-0.3202386554190277,-0.31563947796776176,-0.3110611245782277,-0.3065146928102042,-0.30201105050368743,-0.29756081908153525,-0.2931743575039906,-0.28886174690039157,-0.284632775895459,-0.2804969266522439,-0.27646336165807095,-0.2725409112721037,-0.2687380620457395,-0.26506294583077333,-0.261523329693726,-0.258126606647553,-0.25487978720429966,-0.25178949175379445,-0.24886194377581553,-0.2461029638881828,-0.24351796472812465,-0.24111194666588992,-0.2388894943513326,-0.23685477409009914,-0.2350115320423688,-0.23336309323921978,-0.23191236141317206,-0.23066181963461482,-0.22961353174017637,-0.2287691445382609,-0.22812989077744336,-0.22769659286139363,-0.22746966729280224,-0.2274491298309904,-0.22763460134881638,-0.22802531437061593,-0.22862012026881343,-0.22941749709666806,-0.23041555803500383,-0.23161206042788984,-0.2330044153776939,-0.23458969786678396,-0.23636465737257362,-0.23832572894332896,-0.24046904470006927,-0.242790445724159,-0.24528549428828808,-0.2479494863935891,-0.25077746457592703,-0.253764230933968,-0.25690436032735947,-0.26019221370393225,-0.2636219515151316,-0.2671875471557709,-0.2708828003544847,-0.27470135046723965,-0.27863668964233346,-0.2826821758004504,-0.28683104535951454,-0.291076425666738,-0.2954113471158029,-0.29982875488356614,-0.3043215201977148,-0.30888245109888407,-0.31350430269534896,-0.3181797868589393,-0.322901581280218,-0.3276623378645464,-0.3324546904926961,-0.3372712621052056,-0.3421046710286301,-0.34694753654109345,-0.3517924837322488,-0.3566321476406913,-0.36145917660154825,-0.3662662348260091,-0.3710460043028235,-0.37579118603316647,-0.3804945005514105,-0.385148687778343,-0.38974650632877283,-0.39428073231347005,-0.3987441576098516,-0.40312958766978696,-0.40742983901324564,-0.4116377364780846,-0.4157461102276759,-0.4197477926027821,-0.42363561497895236,-0.42740240471540564,-0.4310409822121512,-0.43454415816494063,-0.4379047311749896,-0.441115485802127,-0.44416919108356423,-0.4470585995992838,-0.44977644722454097,-0.45231545365535203,-0.4546683237333476,-0.4568277496353205,-0.4587864140363122,-0.4605369943123038,-0.4620721677981913,-0.46338461813699167,-0.4644670427836182,-0.4653121616957681,-0.46591272720492044,-0.46626153506575696,-0.4663514366982465,-0.4661753526218547,-0.46572628705471797,-0.464997343640069,-0.46398174226194105,-0.46267283690691646,-0.4610641345139291,-0.4591493147359256,-0.4569222505318018,-0.454377029517812,-0.4515079760060232,-0.4483096736290844,-0.4447769884338822,-0.4409050923456291,-0.4366894869131029,-0.4321260272135174,-0.42721094577338675,-0.4219408763877039,-0.4163128777380222,-0.41032445667840817,-0.40397359103711056,-0.39725875181720843,-0.3901789247060084,-0.3827336307701706,-0.37492294619106575,-0.3667475209369178,-0.35820859630122387,-0.34930802120218707,-0.34004826711057357,-0.33043244151505347,-0.3204642998703313,-0.31014825594275713,-0.2994893904457319,-0.28849345790440545,-0.2771668917286328,-0.26551680744158207,-0.25355100398609215,-0.24127796307625776,-0.22870684660167168,-0.21584749206289158,-0.20271040599556658,-0.18930675538996902,-0.17564835715358476,-0.16174766563195497,-0.1476177581751541,-0.1332723187801519,-0.11872561987809437,-0.10399250230660169,-0.08908835348413864,-0.07402908384801622,-0.05883110165536011,-0.04351128621523717,-0.028086959592874664,-0.012575856865568839,0.003003904955409417,0.01863385925109591,0.03429522330542349,0.04996893289421185,0.06563567781297337,0.08127593823817514,0.09687002184709492,0.11239810158747288,0.12784025395802867,0.143176497692819,0.15838683276914742,0.1734512796239743,0.188349918435284,0.20306292835927164,0.21757062664465188,0.23185350751528444,0.24589228068650038,0.25966790941372686,0.27316164799957887,0.2863550786539757,0.29923014757705024,0.31176920017145393,0.3239550153241356,0.33577083867242996,0.34720041474708785,0.3582280179192611,0.3688384821105532,0.37901722920359954,0.38875029607070094,0.39802436016810316,0.4068267636699633,0.4151455360931212,0.4229694153448861,0.4302878671568508,0.437091102897537,0.4433700957405679,0.449116595148973,0.4543231396613894,0.458983067989547,0.4630905284205553,0.46664048650291146,0.46962873101809327,0.47205187826266254,0.4739073746548232,0.4751934976673495,0.47590935510690846,0.4760548827800575,0.4756308405808931,0.4746388070264551,0.473081172276293,0.47096112968484827,0.46828266593139534,0.4650505497658358,0.46127031941439733,0.4569482686976766,0.45209143191309475,0.44670756753024354,0.44080514074899846,0.434393304975644,0.42748188227677286,0.42008134287040166,0.4122027837092257,0.40385790621060247,0.3950589931950561,0.3858188850976174,0.3761509555069417,0.3660690860806996,0.3555876408926368,0.3447214402710534,0.33348573417859756,0.3218961751771257,0.30996879103194913,0.2977199570164775,0.2851663679657181,0.27232501011731686,0.2592131327891007,0.24584821994989942,0.23224796172797768,0.21843022589239636,0.20441302935554495,0.19021450975438092,0.1758528971528795,0.16134648589361206,0.14671360663401783,0.1319725986113472,0.11714178216970929,0.10223943157255545,0.0872837481319353,0.07229283369390495,0.05728466451115785,0.042277065525686025,0.02728768509104906,0.012333970170802646,-0.0025668579568775014,-0.017397827465171812,-0.03214223918681691,-0.046783689230571815,-0.061306090977343644,-0.07569369643464795,-0.08993111692740345,-0.10400334309985919,-0.11789576420481744,-0.13159418665962266,-0.14508485184922107,-0.15835445315538568,-0.1713901521905323,-0.1841795942169074,-0.1967109227367901,-0.20897279324083148,-0.2209543860972832,-0.2326454185628247,-0.24403615590106584,-0.2551174215981614,-0.2658806066598686,-0.2763176779718201,-0.2864211857125309,-0.2961842698140595,-0.30560066545917086,-0.314664707600535,-0.32337133449738154,-0.33171609027224835,-0.339695126483191,-0.34730520270252796,-0.3545436861050083,-0.3614085500771015,-0.3678983718502658,-0.3740123291547633,-0.37975019590278986,-0.3851123369195129,-0.3900997017315824,-0.3947138174169103,-0.39895678053415057,-0.4028312481614263,-0.406340428062586,-0.40948806799022514,N
3,-0.4332481224171541,-0.437168558850019,-0.44071131790749934,-0.44387960949251665,-0.44667719540936074,-0.4491083776075871,-0.4511779855793561,-0.4528913629441346,-0.45425435324370395,-0.4552732849812468,-0.4559549559481459,-0.4563066168719153,-0.45633595441173014,-0.4560510735428237,-0.45546047938204726,-0.45457305849395496,-0.4533980597060983,-0.45194507447522764,-0.45022401685695007,-0.4482451031186241,-0.44601883102469553,-0.4435559588367284,-0.44086748408122545,-0.43796462212516435,-0.4348587845868615,-0.4315615576200052,-0.42808468011856343,-0.42444002187970437,-0.42063956175306355,-0.41669536581642047,-0.41261956562751084,-0.40842433659036403,-0.4041218764643414,-0.399724384053857,-0.39524403812545283,-0.39069297658857954,-0.3860832759683656,-0.3814269312101514,-0.37673583586418763,-0.37202176268601633,-0.36729634467505484,-0.3625710565799212,-0.35785719690588197,-0.35316587045061193,-0.34850797138592754,-0.3438941669101602,-0.3393348815021066,-0.33484028179864517,-0.3304202621091484,-0.3260844305844098,-0.3218420960627491,-0.31770225560942206,-0.31367358276044915,-0.3097644164891092,-0.30598275091826294,-0.30233622579246694,-0.29883211771382584,-0.2954773321471554,-0.29227839620316837,-0.2892414522030838,-0.28637225202338895,-0.2836761522235212,-0.2811581099623142,-0.27882267970280483,-0.2766740106981722,-0.27471584525248494,-0.2729515177518218,-0.27138395445756974,-0.27001567405035337,-0.2688487889155004,-0.2678850071627545,-0.26712563536859285,-0.2665715820249887,-0.2662233616792797,-0.2660810997509772,-0.26614453800805915,-0.26641304068170446,-0.2668856011987111,-0.26756084951162107,-0.2684370600040387,-0.26951215994437666,-0.2707837384583623,-0.2722490559902551,-0.27390505422360767,-0.27574836643043277,-0.2777753282119886,-0.2799819885925374,-0.28236412143233425,-0.28491723712556194,-0.28763659453712154,-0.2905172131274514,-0.293553885226785,-0.29674118842395264,-0.30007349801514743,-0.3035449994490545,-0.3071497007269245,-0.31088144472492696,-0.3147339213738324,-0.3187006796152626,-0.32277513909219685,-0.32695060155524963,-0.3312202619275079,-0.33557721894825326,-0.3400144853652164,-0.3445249976738246,-0.34910162534558375,-0.3537371794549008,-0.35842442068211194,-0.36315606671798567,-0.36792479903096736,-0.3727232689163847,-0.37754410282760614,-0.38237990704805763,-0.3872232716891671,-0.3920667739474826,-0.3969029806446649,-0.40172445014345426,-0.4065237336522518,-0.4112933758705224,-0.4160259150224383,-0.4207138824018685,-0.4253498014666239,-0.4299261864523513,-0.4344355405730387,-0.4388703539575969,-0.44322310139124776,-0.44748623985991576,-0.4516522059831674,-0.4557134134989547,-0.4596622508870348,-0.4634910791470859,-0.46719222982170444,-0.4707580034235253,-0.47418066835674716,-0.4774524603555553,-0.4805655825207598,-0.4835122060954185,-0.4862844720641369,-0.48887449359999274,-0.4912743594222644,-0.49347613817186065,-0.49547188386735397,-0.4972536424531053,-0.49881345947173217,-0.5001433889209721,-0.5012355033231788,-0.5020819049952945,-0.5026747385131253,-0.503006204380248,-0.5030685738962247,-0.5028542051914792,-0.5023555603866161,-0.5015652238352091,-0.5004759214044092,-0.49908054073277813,-0.49737215238570354,-0.49534403182065345,-0.4929896820810846,-0.4903028571348451,-0.487277585748384,-0.4839081957753153,-0.48018933875680614,-0.47611601473976806,-0.471683597188838,-0.46688785784860176,-0.46172499143860213,-0.456191640081391,-0.4502849173331712,-0.4440024316668937,-0.43734230929359763,-0.43030321623401646,-0.4228843795189188,-0.41508560737218225,-0.4069073082696648,-0.39835050879881995,-0.38941687021167226,-0.3801087035392017,-0.3704289831771199,-0.3603813588888436,-0.3499701661418822,-0.339200434673024,-0.32807789522547576,-0.3166089844403737,-0.3048008478533165,-0.2926613409217692,-0.280199028055624,-0.26742317966331186,-0.25434376719504237,-0.24097145613993742,-0.2273175969794301,-0.21339421413925153,-0.19921399295273676,-0.18479026462418655,-0.1701369892257205,-0.15526873680000627,-0.1402006666117572,-0.1249485045660252,-0.10952851885297206,-0.09395749391563275,-0.07825270280905883,-0.062431877997232155,-0.046513180677133836,-0.030515168754848887,-0.014456763566556112,0.001642784590419146,0.017763932014044886,0.033886878106575084,0.04999160273270618,0.06605790435104374,0.08206543880863663,0.09799375865849096,0.11382235289075027,0.1295306869933497,0.14509824322254783,0.16050456093543408,0.17572927687111017,0.19075216529720962,0.20555317790729177,0.2201124833287379,0.23441050613618297,0.2484279652976653,0.2621459119542038,0.275545766410185,0.28860935424478323,0.3013189414833624,0.31365726874131444,0.3256075842309168,0.337153675555273,0.34827990024410005,0.35897121496404905,0.3692132033166845,0.37899210216803336,0.38829482648138613,0.3971089926039282,0.4054229399397138,0.41322575097147424,0.4205072696228708,0.42725811793751206,0.43346971103565374,0.43913427033405583,0.4442448350382754,0.44879527190299673,0.45278028324252795,0.4561954131945472,0.4590370522615839,0.46130244014507676,0.46298966687592374,0.4640976722615609,0.4646262436875453,0.4645760123064578,0.4639484476389076,0.46274585062143864,0.4609713451488667,0.45862886815712894,0.45572315828764914,0.45225974317974055,0.448244925451827,0.4436857674454426,0.4385900748072244,0.4329663789710066,0.42682391858843044,0.42017261995333227,0.4130230764654264,0.40538652717512264,0.39727483445119643,0.3887004608212847,0.3796764450394509,0.3702163774279964,0.36033437453834904,0.35004505318829826,0.33936350393978365,0.32830526406897687,0.31688629007141456,0.30512292975658595,0.2930318939946862,0.28063022816452105,0.2679352833408382,0.25496468727161253,0.2417363152053034,0.22826826061382893,0.21457880584447114,0.20068639274468386,0.18660959331342192,0.17236708042019447,0.15797759862207386,0.14345993511957858,0.12883289090192354,0.11411525212099202,0.09932576172343752,0.08448309138045204,0.06960581376379624,0.05471237520642273,0.0398210687767405,0.02495000780481322,0.01011709990703597,-0.004659978454655061,-0.01936380685590353,-0.03397724521076967,-0.048483457460376814,-0.0628659346224349,-0.07710851717793432,-0.0911954167665942,-0.1051112371582027,-0.11884099447097685,-0.1323701366149827,-0.14568456194115492,-0.158770637075271,-0.17161521391490533,-0.18420564576784673,-0.1965298026124296,-0.20857608546074238,-0.22033343980381956,-0.231791368118724,-0.24293994142315808,-0.2537698098662575,-0.26427221234005305,-0.2744389850943253,-0.28426256934464955,-0.2937360178682914,-0.3028530005774798,-0.31160780905707414,-0.3199953600628526,-0.32801119798332373,-0.3356514962619617,-0.3429130577748954,-0.3497933141728769,-0.35629032420541057,-0.3624027710345125,-0.3681299585379391,-0.37347180661412754,-0.3784288455110533,-0.3830022091903956,-0.3871936277291056,-0.39100541877154626,-0.39444047805565463,-0.3975022690281284,-0.4001948115576916,-0.40252266976933265,-0.4044909390335624,-0.4061052321353996,-0.4073716646416917,-0.4082968395010268,-0.4088878309223415,-0.4091521675661998,-0.4090978150728258,-0.40873315796474646,-0.4080669809735001,-0.4071084498274801,-0.4058670915264759,-0.40435277413951937,-0.40257568617334444,-0.4005463155493746,-0.39827542822081863,-0.3957740464766929,-0.39305342699087464,-0.39012503866112586,-0.38700054027068304,-0.3836917580151768,-0.38021066294742106,-0.3765693483817617,-0.37278000728991867,-0.36885490973049173,-0.36480638036338864,-0.36064677609014606,-0.35638846385175504,-0.35204379862473345,-0.3476251016642976,-0.34314463903367365,-0.3386146004495656,-0.3340470784817775,-0.32945404815208024,-0.324847346968065,-0.3202386554190277,-0.31563947796776176,-0.3110611245782277,-0.3065146928102042,-0.30201105050368743,-0.29756081908153525,-0.2931743575039906,-0.28886174690039157,-0.284632775895459,-0.2804969266522439,-0.27646336165807095,-0.2725409112721037,-0.2687380620457395,-0.26506294583077333,-0.261523329693726,-0.258126606647553,-0.25487978720429966,-0.25178949175379445,-0.24886194377581553,-0.2461029638881828,-0.24351796472812465,-0.24111194666588992,-0.2388894943513326,-0.23685477409009914,-0.2350115320423688,-0.23336309323921978,-0.23191236141317206,-0.23066181963461482,-0.22961353174017637,-0.2287691445382609,-0.22812989077744336,-0.22769659286139363,-0.22746966729280224,-0.2274491298309904,-0.22763460134881638,-0.22802531437061593,-0.22862012026881343,-0.22941749709666806,-0.23041555803500383,-0.23161206042788984,-0.2330044153776939,-0.23458969786678396,-0.23636465737257362,-0.23832572894332896,-0.24046904470006927,-0.242790445724159,-0.24528549428828808,-0.2479494863935891,-0.25077746457592703,-0.253764230933968,-0.25690436032735947,-0.26019221370393225,-0.2636219515151316,-0.2671875471557709,-0.2708828003544847,-0.27470135046723965,-0.27863668964233346,-0.2826821758004504,-0.28683104535951454,-0.291076425666738,-0.2954113471158029,-0.29982875488356614,-0.3043215201977148,-0.30888245109888407,-0.31350430269534896,-0.3181797868589393,-0.322901581280218,-0.3276623378645464,-0.3324546904926961,-0.3372712621052056,-0.3421046710286301,-0.34694753654109345,-0.3517924837322488,-0.3566321476406913,-0.36145917660154825,-0.3662662348260091,-0.3710460043028235,-0.37579118603316647,-0.3804945005514105,-0.385148687778343,-0.38974650632877283,-0.39428073231347005,-0.3987441576098516,-0.40312958766978696,-0.40742983901324564,-0.4116377364780846,-0.4157461102276759,-0.4197477926027821,-0.42363561497895236,-0.42740240471540564,-0.4310409822121512,-0.43454415816494063,-0.4379047311749896,-0.441115485802127,-0.44416919108356423,-0.4470585995992838,-0.44977644722454097,-0.45231545365535203,-0.4546683237333476,-0.4568277496353205,-0.4587864140363122,-0.4605369943123038,-0.4620721677981913,-0.46338461813699167,-0.4644670427836182,-0.4653121616957681,-0.46591272720492044,-0.46626153506575696,-0.4663514366982465,-0.4661753526218547,-0.46572628705471797,-0.464997343640069,-0.46398174226194105,-0.46267283690691646,-0.4610641345139291,-0.4591493147359256,-0.4569222505318018,-0.454377029517812,-0.4515079760060232,-0.4483096736290844,-0.4447769884338822,-0.4409050923456291,-0.4366894869131029,-0.4321260272135174,-0.42721094577338675,-0.4219408763877039,-0.4163128777380222,-0.41032445667840817,-0.40397359103711056,-0.39725875181720843,-0.3901789247060084,-0.3827336307701706,-0.37492294619106575,-0.3667475209369178,-0.35820859630122387,-0.34930802120218707,-0.34004826711057357,-0.33043244151505347,-0.3204642998703313,-0.31014825594275713,-0.2994893904457319,-0.28849345790440545,-0.2771668917286328,-0.26551680744158207,-0.25355100398609215,-0.24127796307625776,-0.22870684660167168,-0.21584749206289158,-0.20271040599556658,-0.18930675538996902,-0.17564835715358476,-0.16174766563195497,-0.1476177581751541,-0.1332723187801519,-0.11872561987809437,-0.10399250230660169,-0.08908835348413864,-0.07402908384801622,-0.05883110165536011,-0.04351128621523717,-0.028086959592874664,-0.012575856865568839,0.003003904955409417,0.01863385925109591,0.03429522330542349,0.04996893289421185,0.06563567781297337,0.08127593823817514,0.09687002184709492,0.11239810158747288,0.12784025395802867,0.143176497692819,0.15838683276914742,0.1734512796239743,0.188349918435284,0.20306292835927164,0.21757062664465188,0.23185350751528444,0.24589228068650038,0.25966790941372686,0.27316164799957887,0.2863550786539757,0.29923014757705024,0.31176920017145393,0.3239550153241356,0.33577083867242996,0.34720041474708785,0.3582280179192611,0.3688384821105532,0.37901722920359954,0.38875029607070094,0.39802436016810316,0.4068267636699633,0.4151455360931212,0.4229694153448861,0.4302878671568508,0.437091102897537,0.4433700957405679,0.449116595148973,0.4543231396613894,0.458983067989547,0.4630905284205553,0.46664048650291146,0.46962873101809327,0.47205187826266254,0.4739073746548232,0.4751934976673495,0.47590935510690846,0.4760548827800575,0.4756308405808931,0.4746388070264551,0.473081172276293,0.47096112968484827,0.46828266593139534,0.4650505497658358,0.46127031941439733,0.4569482686976766,0.45209143191309475,0.44670756753024354,0.44080514074899846,0.434393304975644,0.42748188227677286,0.42008134287040166,0.4122027837092257,0.40385790621060247,0.3950589931950561,0.3858188850976174,0.3761509555069417,0.3660690860806996,0.3555876408926368,0.3447214402710534,0.33348573417859756,0.3218961751771257,0.30996879103194913,0.2977199570164775,0.2851663679657181,0.27232501011731686,0.2592131327891007,0.24584821994989942,0.23224796172797768,0.21843022589239636,0.20441302935554495,0.19021450975438092,0.1758528971528795,0.16134648589361206,0.14671360663401783,0.1319725986113472,0.11714178216970929,0.10223943157255545,0.0872837481319353,0.07229283369390495,0.05728466451115785,0.042277065525686025,0.02728768509104906,0.012333970170802646,-0.0025668579568775014,-0.017397827465171812,-0.03214223918681691,-0.046783689230571815,-0.061306090977343644,-0.07569369643464795,-0.08993111692740345,-0.10400334309985919,-0.11789576420481744,-0.13159418665962266,-0.14508485184922107,-0.15835445315538568,-0.1713901521905323,-0.1841795942169074,-0.1967109227367901,-0.20897279324083148,-0.2209543860972832,-0.2326454185628247,-0.24403615590106584,-0.2551174215981614,-0.2658806066598686,-0.2763176779718201,-0.2864211857125309,-0.2961842698140595,-0.30560066545917086,-0.314664707600535,-0.32337133449738154,-0.33171609027224835,-0.339695126483191,-0.34730520270252796,-0.3545436861050083,-0.3614085500771015,-0.3678983718502658,-0.3740123291547633,-0.37975019590278986,-0.3851123369195129,-0.3900997017315824,-0.3947138174169103,-0.39895678053415057,-0.4028312481614263,-0.406340428062586,-0.40948806799022514,-0.4122784441479564,-0.4147163488457229,-0.416807077370839,-0.41855641408716204,-0.419970617785669,-0.4210564063204356,-0.42182094055635727,-0.4222718076509124,-0.4224170037088963,-0.42226491586096565,-0.4218243038043385,-0.4211042808330378,-0.4201142943972051,-0.41886410624186915,-0.41736377216437215,-0.41562362142042786,-0.41365423582162086,-0.41146642857783444,-0.4090712229261641,-0.4064798305765908,-0.4037036300144023,-0.40075414470877985,-0.397643021267557,-0.39438200757096764,-0.39098293092953984,-0.3874576763207287,-0.3838181647471152,-0.3800763317483659,-0.3762441061085426,-0.3723333888086468,-0.3683560322630677,-0.36432381986771456,-0.3602484458947346,-0.3561414957757958,-0.3520144268069262,-0.34787854930019957,-0.343745008215916,-0.3396247653155938,-0.3355285818659953,-0.33146700191437073,-0.32745033616012587,-0.3234886464533838,-0.319591730942739,-0.31576910988607204,-0.31203001214194265,-0.30838336236321334,-0.30483776890852354,-0.30140151248194313,-0.2980825355159906,-0.2948884323169296,-0.2918264399843138,-0.2889034301099802,-0.28612590126462023,-0.2834999722828604,-0.28103137635162373,-0.27872545590043823,-0.27658715829449415,-0.27462103233342156,-0.27283122555329214,-0.27122148232317295,-0.26979514272764465,-0.2685551422279087,-0.267504012090983,-0.26664388057300153,-0.26597647484295045,-0.2655031236339311,-0.2652247606070994,-0.26514192841230594,-0.26525478343172976,-0.2655631011937864,-0.2660662824405931,-0.2667633598273989,-0.267653005230909,-0.2687335376434466,-0.2700029316286086,-0.27145882631223023,-0.2730985348815496,-0.2749190545653238,-0.2769170770668039,-0.27908899941736376,-0.2814309352118116,-0.2839387261843296,-0.2866079540890486,-0.28943395284956075,-0.29241182093124307,-0.2955364338859875,-0.298802457030178,-0.30220435822029695,-0.30573642067275936,-0.30939275576642716,-0.31316731578641177,-0.3170539065755035,-0.3210462000298141,-0.3251377463608015,-0.3293219860809891,-0.3335922616910881,-0.3379418290080694,-0.34236386805245905,-0.3468514934627846,-0.3513977644416512,-0.35599569419808214,-0.36063825882381056,-0.3653184055931016,-0.3700290607030752,-0.3747631364023367,-0.3795135374156149,-0.38427316665072786,-0.3890349302314987,-0.39379174183068166,-0.3985365262288446,-0.40326222211321483,-0.40796178419738094,-0.4126281846651255,-0.41725441388444195,-0.4218334804320713,-0.4263584105446378,-0.430822247032204,-0.4352180476260678,-0.4395388828262315,-0.44377783339274895,-0.4479279875455254,-0.45198243786902653,-0.45593427800510894,-0.459776599293171,-0.46350248744051886,-0.4671050192365686,-0.47057725940063705,-0.4739122577245701,-0.47710304660527575,-0.480142638996131,-0.4830240268647864,-0.485740180303465,-0.4882840473817561,-0.49064855477185054,-0.4928266092159991,-0.4948110999495291,-0.4965949021479591,-0.49817088141536925,-0.49953189935369224,-0.5006708202825051,-0.5015805191481212,-0.502253890620514,-0.5026838593824383,-0.5028633916314167,-0.5027855077993486,-0.5024432964668852,-0.5018299294397931,-0.5009386779553991,-0.4997629299821275,-0.4982962085597495,-0.49653219110862934,-0.4944647296284794,-0.4920878717145334,-0.4893958823159543,-0.48638326613500826,-0.4830447905511761,-0.47937550897321923,-0.47537078453054304,-0.47102631398375916,-0.4663381517141758,-0.4613027336794384,-0.45591690124061524,-0.45017792473225493,-0.4440835266232629,-0.4376319041503508,-0.4308217513317115,-0.42365228023506685,-0.4161232413497955,-0.4082349429519305,-0.3999882693826997,-0.39138469812911203,-0.38242631557131945,-0.37311583130473025,-0.3634565909810399,-0.35345258758114373,-0.3431084710093363,-0.33242955594372303,-0.32142182791655427,-0.31009194756777836,-0.2984472529914828,-0.2864957601409752,-0.27424616129810686,-0.26170782158297434,-0.24889077345714827,-0.23580570922002442,-0.2224639715378497,-0.20887754201503564,-0.19505902779240705,-0.181021646200253,-0.16677920753247635,-0.15234609598011845,-0.137737248740272,-0.12296813336020014,-0.10805472341369456,-0.09301347257698289,-0.07786128714746071,-0.06261549709049852,-0.04729382573491491,-0.03191435820539864,-0.016495508650935735,-0.0010559863629735705,0.014385239091150581,0.02980897362244939,0.0451958351879837,0.060526291060197024,0.07578069565560894,0.09093932881310704,0.105982434440026,0.12089025941113066,0.13564309257784243,0.15022130377815654,0.16460538276569223,0.17877597794420483,0.19271393476782292,0.20640033370271024,0.21981652767801338,0.23294417892747973,0.2457652950997837,0.2582622645485792,0.2704178907427914,0.2822154257124487,0.2936386024238175,0.3046716660092609,0.3152994038043623,0.3255071741191288,0.33528093364959954,0.34460726347000786,0.3534733935780196,0.3618672259475905,0.3697773560264101,0.3771930926428316,0.3841044763125124,0.3905022959158591,0.3963781037008656,0.40172422859302476,0.40653378782062793,0.41080069685040727,0.4145196776145808,0.4176862650321499,0.42029681184937273,0.4223484918138741,0.4238393011852263,0.4247680586015548,0.4251344033394651,0.42493879199721524,0.42418249362188637,0.4228675833134584,0.4209969343538841,0.4185742089077954,0.41560384733567257,0.4120910561650328,0.4080417947733685,0.40346276083801075,0.3983613746052736,0.39274576202998895,0.38662473683830884,0.3800077815695468,0.3729050276525578,0.36532723456789007,0.3572857681461853,0.3487925780595321,0.33986017456493955,0.3305016045519527,0.3207304269445915,0.31056068751985394,0.30000689321085844,0.289083985948692,0.27780731608533427,0.26619261544800676,0.25425597008191647,0.2420137927264847,0.22948279506166114,0.21667995977296606,0.20362251249252705,0.19032789366005728,0.17681373033799738,0.16309780802873827,0.14919804255178767,0.13513245202306276,0.12091912896404798,0.1065762125783568,0.09212186124273468,0.07757422524697147,0.06295141980539068,0.04827149837188791,0.033552426299601264,0.018812054875972508,0.0040680957533416285,-0.0106619041978998,-0.025360587578786387,-0.0400108106662435,-0.054595667112900106,-0.06909851111767655,-0.08350298003644112,-0.09779301640651733,-0.11195288936465436,-0.125967215435478,-0.13982097866330917,-0.1534995500623593,-0.1669887063642426,-0.18027464804173102,-0.19334401658575953,-0.20618391101262398,-0.21878190358049607,-0.23112605469707023,-0.24320492700054994,-0.2550075985938367,-0.2665236754114604,-0.2777433027028824,-0.28865717561813065,-0.29925654887884867,-0.3095332455184977,-0.3194796646844801,-0.32908878850000434,-0.338354187976918,-0.3472700279676097,-0.35583107115474316,-0.36403268108468806,-0.3718708242412095,-0.37934207114859136,-0.386443596502605,-0.3931731783357955,-0.39952919621617283,-0.4055106284747018,-0.41111704847134395,-0.41634861991962663,-0.42120609127894415,-0.4256907892151949,-0.4298046111426723,-0.4335500168707207,-0.4369300193689043,N
4,-0.39444047805565463,-0.3975022690281284,-0.4001948115576916,-0.40252266976933265,-0.4044909390335624,-0.4061052321353996,-0.4073716646416917,-0.4082968395010268,-0.4088878309223415,-0.4091521675661998,-0.4090978150728258,-0.40873315796474646,-0.4080669809735001,-0.4071084498274801,-0.4058670915264759,-0.40435277413951937,-0.40257568617334444,-0.4005463155493746,-0.39827542822081863,-0.3957740464766929,-0.39305342699087464,-0.39012503866112586,-0.38700054027068304,-0.3836917580151768,-0.38021066294742106,-0.3765693483817617,-0.37278000728991867,-0.36885490973049173,-0.36480638036338864,-0.36064677609014606,-0.35638846385175504,-0.35204379862473345,-0.3476251016642976,-0.34314463903367365,-0.3386146004495656,-0.3340470784817775,-0.32945404815208024,-0.324847346968065,-0.3202386554190277,-0.31563947796776176,-0.3110611245782277,-0.3065146928102042,-0.30201105050368743,-0.29756081908153525,-0.2931743575039906,-0.28886174690039157,-0.284632775895459,-0.2804969266522439,-0.27646336165807095,-0.2725409112721037,-0.2687380620457395,-0.26506294583077333,-0.261523329693726,-0.258126606647553,-0.25487978720429966,-0.25178949175379445,-0.24886194377581553,-0.2461029638881828,-0.24351796472812465,-0.24111194666588992,-0.2388894943513326,-0.23685477409009914,-0.2350115320423688,-0.23336309323921978,-0.23191236141317206,-0.23066181963461482,-0.22961353174017637,-0.2287691445382609,-0.22812989077744336,-0.22769659286139363,-0.22746966729280224,-0.2274491298309904,-0.22763460134881638,-0.22802531437061593,-0.22862012026881343,-0.22941749709666806,-0.23041555803500383,-0.23161206042788984,-0.2330044153776939,-0.23458969786678396,-0.23636465737257362,-0.23832572894332896,-0.24046904470006927,-0.242790445724159,-0.24528549428828808,-0.2479494863935891,-0.25077746457592703,-0.253764230933968,-0.25690436032735947,-0.26019221370393225,-0.2636219515151316,-0.2671875471557709,-0.2708828003544847,-0.27470135046723965,-0.27863668964233346,-0.2826821758004504,-0.28683104535951454,-0.291076425666738,-0.2954113471158029,-0.29982875488356614,-0.3043215201977148,-0.30888245109888407,-0.31350430269534896,-0.3181797868589393,-0.322901581280218,-0.3276623378645464,-0.3324546904926961,-0.3372712621052056,-0.3421046710286301,-0.34694753654109345,-0.3517924837322488,-0.3566321476406913,-0.36145917660154825,-0.3662662348260091,-0.3710460043028235,-0.37579118603316647,-0.3804945005514105,-0.385148687778343,-0.38974650632877283,-0.39428073231347005,-0.3987441576098516,-0.40312958766978696,-0.40742983901324564,-0.4116377364780846,-0.4157461102276759,-0.4197477926027821,-0.42363561497895236,-0.42740240471540564,-0.4310409822121512,-0.43454415816494063,-0.4379047311749896,-0.441115485802127,-0.44416919108356423,-0.4470585995992838,-0.44977644722454097,-0.45231545365535203,-0.4546683237333476,-0.4568277496353205,-0.4587864140363122,-0.4605369943123038,-0.4620721677981913,-0.46338461813699167,-0.4644670427836182,-0.4653121616957681,-0.46591272720492044,-0.46626153506575696,-0.4663514366982465,-0.4661753526218547,-0.46572628705471797,-0.464997343640069,-0.46398174226194105,-0.46267283690691646,-0.4610641345139291,-0.4591493147359256,-0.4569222505318018,-0.454377029517812,-0.4515079760060232,-0.4483096736290844,-0.4447769884338822,-0.4409050923456291,-0.4366894869131029,-0.4321260272135174,-0.42721094577338675,-0.4219408763877039,-0.4163128777380222,-0.41032445667840817,-0.40397359103711056,-0.39725875181720843,-0.3901789247060084,-0.3827336307701706,-0.37492294619106575,-0.3667475209369178,-0.35820859630122387,-0.34930802120218707,-0.34004826711057357,-0.33043244151505347,-0.3204642998703313,-0.31014825594275713,-0.2994893904457319,-0.28849345790440545,-0.2771668917286328,-0.26551680744158207,-0.25355100398609215,-0.24127796307625776,-0.22870684660167168,-0.21584749206289158,-0.20271040599556658,-0.18930675538996902,-0.17564835715358476,-0.16174766563195497,-0.1476177581751541,-0.1332723187801519,-0.11872561987809437,-0.10399250230660169,-0.08908835348413864,-0.07402908384801622,-0.05883110165536011,-0.04351128621523717,-0.028086959592874664,-0.012575856865568839,0.003003904955409417,0.01863385925109591,0.03429522330542349,0.04996893289421185,0.06563567781297337,0.08127593823817514,0.09687002184709492,0.11239810158747288,0.12784025395802867,0.143176497692819,0.15838683276914742,0.1734512796239743,0.188349918435284,0.20306292835927164,0.21757062664465188,0.23185350751528444,0.24589228068650038,0.25966790941372686,0.27316164799957887,0.2863550786539757,0.29923014757705024,0.31176920017145393,0.3239550153241356,0.33577083867242996,0.34720041474708785,0.3582280179192611,0.3688384821105532,0.37901722920359954,0.38875029607070094,0.39802436016810316,0.4068267636699633,0.4151455360931212,0.4229694153448861,0.4302878671568508,0.437091102897537,0.4433700957405679,0.449116595148973,0.4543231396613894,0.458983067989547,0.4630905284205553,0.46664048650291146,0.46962873101809327,0.47205187826266254,0.4739073746548232,0.4751934976673495,0.47590935510690846,0.4760548827800575,0.4756308405808931,0.4746388070264551,0.473081172276293,0.47096112968484827,0.46828266593139534,0.4650505497658358,0.46127031941439733,0.4569482686976766,0.45209143191309475,0.44670756753024354,0.44080514074899846,0.434393304975644,0.42748188227677286,0.42008134287040166,0.4122027837092257,0.40385790621060247,0.3950589931950561,0.3858188850976174,0.3761509555069417,0.3660690860806996,0.3555876408926368,0.3447214402710534,0.33348573417859756,0.3218961751771257,0.30996879103194913,0.2977199570164775,0.2851663679657181,0.27232501011731686,0.2592131327891007,0.24584821994989942,0.23224796172797768,0.21843022589239636,0.20441302935554495,0.19021450975438092,0.1758528971528795,0.16134648589361206,0.14671360663401783,0.1319725986113472,0.11714178216970929,0.10223943157255545,0.0872837481319353,0.07229283369390495,0.05728466451115785,0.042277065525686025,0.02728768509104906,0.012333970170802646,-0.0025668579568775014,-0.017397827465171812,-0.03214223918681691,-0.046783689230571815,-0.061306090977343644,-0.07569369643464795,-0.08993111692740345,-0.10400334309985919,-0.11789576420481744,-0.13159418665962266,-0.14508485184922107,-0.15835445315538568,-0.1713901521905323,-0.1841795942169074,-0.1967109227367901,-0.20897279324083148,-0.2209543860972832,-0.2326454185628247,-0.24403615590106584,-0.2551174215981614,-0.2658806066598686,-0.2763176779718201,-0.2864211857125309,-0.2961842698140595,-0.30560066545917086,-0.314664707600535,-0.32337133449738154,-0.33171609027224835,-0.339695126483191,-0.34730520270252796,-0.3545436861050083,-0.3614085500771015,-0.3678983718502658,-0.3740123291547633,-0.37975019590278986,-0.3851123369195129,-0.3900997017315824,-0.3947138174169103,-0.39895678053415057,-0.4028312481614263,-0.406340428062586,-0.40948806799022514,-0.4122784441479564,-0.4147163488457229,-0.416807077370839,-0.41855641408716204,-0.419970617785669,-0.4210564063204356,-0.42182094055635727,-0.4222718076509124,-0.4224170037088963,-0.42226491586096565,-0.4218243038043385,-0.4211042808330378,-0.4201142943972051,-0.41886410624186915,-0.41736377216437215,-0.41562362142042786,-0.41365423582162086,-0.41146642857783444,-0.4090712229261641,-0.4064798305765908,-0.4037036300144023,-0.40075414470877985,-0.397643021267557,-0.39438200757096764,-0.39098293092953984,-0.3874576763207287,-0.3838181647471152,-0.3800763317483659,-0.3762441061085426,-0.3723333888086468,-0.3683560322630677,-0.36432381986771456,-0.3602484458947346,-0.3561414957757958,-0.3520144268069262,-0.34787854930019957,-0.343745008215916,-0.3396247653155938,-0.3355285818659953,-0.33146700191437073,-0.32745033616012587,-0.3234886464533838,-0.319591730942739,-0.31576910988607204,-0.31203001214194265,-0.30838336236321334,-0.30483776890852354,-0.30140151248194313,-0.2980825355159906,-0.2948884323169296,-0.2918264399843138,-0.2889034301099802,-0.28612590126462023,-0.2834999722828604,-0.28103137635162373,-0.27872545590043823,-0.27658715829449415,-0.27462103233342156,-0.27283122555329214,-0.27122148232317295,-0.26979514272764465,-0.2685551422279087,-0.267504012090983,-0.26664388057300153,-0.26597647484295045,-0.2655031236339311,-0.2652247606070994,-0.26514192841230594,-0.26525478343172976,-0.2655631011937864,-0.2660662824405931,-0.2667633598273989,-0.267653005230909,-0.2687335376434466,-0.2700029316286086,-0.27145882631223023,-0.2730985348815496,-0.2749190545653238,-0.2769170770668039,-0.27908899941736376,-0.2814309352118116,-0.2839387261843296,-0.2866079540890486,-0.28943395284956075,-0.29241182093124307,-0.2955364338859875,-0.298802457030178,-0.30220435822029695,-0.30573642067275936,-0.30939275576642716,-0.31316731578641177,-0.3170539065755035,-0.3210462000298141,-0.3251377463608015,-0.3293219860809891,-0.3335922616910881,-0.3379418290080694,-0.34236386805245905,-0.3468514934627846,-0.3513977644416512,-0.35599569419808214,-0.36063825882381056,-0.3653184055931016,-0.3700290607030752,-0.3747631364023367,-0.3795135374156149,-0.38427316665072786,-0.3890349302314987,-0.39379174183068166,-0.3985365262288446,-0.40326222211321483,-0.40796178419738094,-0.4126281846651255,-0.41725441388444195,-0.4218334804320713,-0.4263584105446378,-0.430822247032204,-0.4352180476260678,-0.4395388828262315,-0.44377783339274895,-0.4479279875455254,-0.45198243786902653,-0.45593427800510894,-0.459776599293171,-0.46350248744051886,-0.4671050192365686,-0.47057725940063705,-0.4739122577245701,-0.47710304660527575,-0.480142638996131,-0.4830240268647864,-0.485740180303465,-0.4882840473817561,-0.49064855477185054,-0.4928266092159991,-0.4948110999495291,-0.4965949021479591,-0.49817088141536925,-0.49953189935369224,-0.5006708202825051,-0.5015805191481212,-0.502253890620514,-0.5026838593824383,-0.5028633916314167,-0.5027855077993486,-0.5024432964668852,-0.5018299294397931,-0.5009386779553991,-0.4997629299821275,-0.4982962085597495,-0.49653219110862934,-0.4944647296284794,-0.4920878717145334,-0.4893958823159543,-0.48638326613500826,-0.4830447905511761,-0.47937550897321923,-0.47537078453054304,-0.47102631398375916,-0.4663381517141758,-0.4613027336794384,-0.45591690124061524,-0.45017792473225493,-0.4440835266232629,-0.4376319041503508,-0.4308217513317115,-0.42365228023506685,-0.4161232413497955,-0.4082349429519305,-0.3999882693826997,-0.39138469812911203,-0.38242631557131945,-0.37311583130473025,-0.3634565909810399,-0.35345258758114373,-0.3431084710093363,-0.33242955594372303,-0.32142182791655427,-0.31009194756777836,-0.2984472529914828,-0.2864957601409752,-0.27424616129810686,-0.26170782158297434,-0.24889077345714827,-0.23580570922002442,-0.2224639715378497,-0.20887754201503564,-0.19505902779240705,-0.181021646200253,-0.16677920753247635,-0.15234609598011845,-0.137737248740272,-0.12296813336020014,-0.10805472341369456,-0.09301347257698289,-0.07786128714746071,-0.06261549709049852,-0.04729382573491491,-0.03191435820539864,-0.016495508650935735,-0.0010559863629735705,0.014385239091150581,0.02980897362244939,0.0451958351879837,0.060526291060197024,0.07578069565560894,0.09093932881310704,0.105982434440026,0.12089025941113066,0.13564309257784243,0.15022130377815654,0.16460538276569223,0.17877597794420483,0.19271393476782292,0.20640033370271024,0.21981652767801338,0.23294417892747973,0.2457652950997837,0.2582622645485792,0.2704178907427914,0.2822154257124487,0.2936386024238175,0.3046716660092609,0.3152994038043623,0.3255071741191288,0.33528093364959954,0.34460726347000786,0.3534733935780196,0.3618672259475905,0.3697773560264101,0.3771930926428316,0.3841044763125124,0.3905022959158591,0.3963781037008656,0.40172422859302476,0.40653378782062793,0.41080069685040727,0.4145196776145808,0.4176862650321499,0.42029681184937273,0.4223484918138741,0.4238393011852263,0.4247680586015548,0.4251344033394651,0.42493879199721524,0.42418249362188637,0.4228675833134584,0.4209969343538841,0.4185742089077954,0.41560384733567257,0.4120910561650328,0.4080417947733685,0.40346276083801075,0.3983613746052736,0.39274576202998895,0.38662473683830884,0.3800077815695468,0.3729050276525578,0.36532723456789007,0.3572857681461853,0.3487925780595321,0.33986017456493955,0.3305016045519527,0.3207304269445915,0.31056068751985394,0.30000689321085844,0.289083985948692,0.27780731608533427,0.26619261544800676,0.25425597008191647,0.2420137927264847,0.22948279506166114,0.21667995977296606,0.20362251249252705,0.19032789366005728,0.17681373033799738,0.16309780802873827,0.14919804255178767,0.13513245202306276,0.12091912896404798,0.1065762125783568,0.09212186124273468,0.07757422524697147,0.06295141980539068,0.04827149837188791,0.033552426299601264,0.018812054875972508,0.0040680957533416285,-0.0106619041978998,-0.025360587578786387,-0.0400108106662435,-0.054595667112900106,-0.06909851111767655,-0.08350298003644112,-0.09779301640651733,-0.11195288936465436,-0.125967215435478,-0.13982097866330917,-0.1534995500623593,-0.1669887063642426,-0.18027464804173102,-0.19334401658575953,-0.20618391101262398,-0.21878190358049607,-0.23112605469707023,-0.24320492700054994,-0.2550075985938367,-0.2665236754114604,-0.2777433027028824,-0.28865717561813065,-0.29925654887884867,-0.3095332455184977,-0.3194796646844801,-0.32908878850000434,-0.338354187976918,-0.3472700279676097,-0.35583107115474316,-0.36403268108468806,-0.3718708242412095,-0.37934207114859136,-0.386443596502605,-0.3931731783357955,-0.39952919621617283,-0.4055106284747018,-0.41111704847134395,-0.41634861991962663,-0.42120609127894415,-0.4256907892151949,-0.4298046111426723,-0.4335500168707207,-0.4369300193689043,-0.4399481746573757,-0.4426085708433758,-0.44491581633627475,-0.44687502726277867,-0.44849181409527544,-0.44977226751985505,-0.45072294358208836,-0.4513508481382204,-0.45166342063170156,-0.45166851722990903,-0.45137439336781665,-0.4507896857332674,-0.44992339371791656,-0.4487848603704161,-0.44738375289961985,-0.44573004276473704,-0.4438339853804594,-0.44170609947822537,-0.43935714617575905,-0.4367981077955397,-0.4340401664626575,-0.43109468252381516,-0.4279731728393013,-0.4246872889896773,-0.421248795432511,-0.41766954766016456,-0.4139614704204166,-0.41013653604603906,-0.4062067429235018,-0.4021840941380147,-0.3980805763405576,-0.39390813887203574,-0.3896786731694654,-0.3854039924868226,-0.3810958119708307,-0.3767657291234912,-0.37242520467594137,-0.3680855439070179,-0.36375787844697577,-0.35945314859724875,-0.355182086188246,-0.3509551980038328,-0.3467827498070739,-0.3426747509928061,-0.3386409398841417,-0.3346907696956245,-0.33083339519080646,-0.3270776600534468,-0.3234320849827483,-0.31990485652636064,-0.3165038166687206,-0.3132364531858242,-0.3101098907711847,-0.307130882941037,-0.30430580472999774,-0.30164064618253295,-0.29914100663974486,-0.2968120898233575,-0.2946586997211522,-0.2926852372731438,-0.29089569785338465,-0.2892936695451588,-0.28788233220942583,-0.28666445734067436,-0.2856424086979702,-0.28481814369890757,-0.2841932155652588,-0.2837687762060662,-0.2835455798211871,-0.2835239872099228,-0.28370397077051346,-0.2840851201727796,-0.2846666486824185,-0.28544740011558417,-0.2864258564030146,-0.2876001457406395,-0.28896805130086933,-0.2905270204784439,-0.2922741746450538,-0.2942063193854536,-0.2963199551844651,-0.2986112885308274,-0.3010762434030869,-0.30371047310453003,-0.30650937241235965,-0.30946808999883213,-0.312581541079468,-0.31584442025038423,-0.3192512144766883,-0.32279621617846116,-0.3264735363546309,-0.33027711770164414,-0.33420074768994357,-0.33823807153692065,-0.3423826050036536,-0.34662774697200416,-0.35096679177477774,-0.35539294121875054,-0.359899316222727,-0.36447896803434393,-0.36912488901373336,-0.37383002292645734,-0.3785872746620245,-0.38338951935107957,-0.3882296108908009,-0.3931003898298949,-0.39799469052884395,-0.40290534758372376,-0.4078252015535334,-0.41274710396419556,-0.4176639215172583,-0.4225685395149129,-0.4274538645747744,-0.4323128266315842,-0.4371383801683316,-0.4419235047115379,-0.4466612046975737,-0.45134450873581095,-0.4559664682319568,-0.46052015542998676,-0.46499866100922055,-0.4693950912910643,-0.4737025650420959,-0.47791420995178924,-0.482023158942708,-0.4860225463930228,-0.48990550428138513,-0.49366515834527835,-0.4972946244183364,-0.5007870050416227,-0.5041353863756536,-0.5073328355048731,-0.5103723982881946,-0.5132470978457774,-0.515949933708204,-0.5184738817040042,-0.5208118947146998,-0.5229569043788738,-0.5249018237715726,-0.5266395511134678,-0.5281629745973315,-0.5294649783802752,-0.5305384497443166,-0.5313762874418952,-0.5319714112673501,-0.5323167728751421,-0.5324053678328429,-0.5322302488917487,-0.5317845404625929,-0.5310614542721206,-0.5300543061552063,-0.5287565339228202,-0.5271617162436621,-0.5252635924806692,-0.5230560834155642,-0.5205333127708028,-0.5176896294270964,-0.5145196302504579,-0.5110181834468762,-0.507180452331308,-0.5030019193773027,-0.49847841043660307,-0.4936061190322462,-0.48838163059594863,-0.4828019464989518,-0.4768645077582282,-0.47056721832333614,-0.46390846781448875,-0.45688715355682047,-0.44950270179249446,-0.44175508798207713,-0.43364485607433645,-0.42517313660107003,-0.4163416634977595,-0.40715278958639,-0.3976095006231074,-0.3877154277870619,-0.37747485853070073,-0.36689274574994324,-0.35597471520232166,-0.3447270710790105,-0.33315679968538264,-0.3212715712254373,-0.309079739653318,-0.2965903405286458,-0.2838130868574004,-0.2707583629403513,-0.25743721622220855,-0.24386134711212723,-0.23004309679293397,-0.21599543307653088,-0.2017319343331532,-0.18726677149786422,-0.17261468820196793,-0.15779097911547948,-0.1428114665567304,-0.12769247539967957,-0.11245080635045317,-0.09710370770071201,-0.08166884563634817,-0.06616427315636296,-0.05060839769756563,-0.035019947594938414,-0.019417937475810602,-0.0038216326584518336,0.011749487338423452,0.027275766037538035,0.042737407889500076,0.05811451672208755,0.07338713463373055,0.08853528118288363,0.10353899276021243,0.11837836206292522,0.1330335775620011,0.14748496282703807,0.16171301560481366,0.17569844657424538,0.18942221766994016,0.2028655798418485,0.21601011015212035,0.22883774813958357,0.24133083135489541,0.2534721299468068,0.2652448802142019,0.27663281706989007,0.2876202053391882,0.29819186979606094,0.308333223870975,0.31803029699223256,0.32726976049928796,0.33603895204742334,0.34432589845537054,0.3521193369791604,0.359408734980309,0.36618430794048007,0.3724370357998786,0.3781586776202373,0.38334178455740814,0.387979711114026,0.3920666246657342,0.395597513277633,0.3985681918167702,0.40097530635462214,0.4028163368714663,0.4040895982933887,0.4047942398849142,0.40493024301082786,0.40449841729414066,0.4035003952134291,0.4019386251809281,0.39981636313669605,0.39713766269977596,0.39390736392489484,0.390131080711608,0.3858151869089063,0.38096680116106496,0.3755937705470842,0.369704653070297,0.3633086990542207,0.3564158314974945,0.34903662544153663,0.34118228641138776,0.3328646279924807,0.3240960485980823,0.31488950747757827,0.3052585000235698,0.29521703244018516,0.28477959582505924,0.27396113971122255,0.2627770451256615,0.25124309722797894,0.2393754575803648,0.22719063609195864,0.21470546269365773,0.20193705880808463,0.18890280866404371,0.17562033049128697,0.16210744764130455,0.14838215968875076,0.13446261355505248,0.12036707468422454,0.10611389831113989,0.09172150087169646,0.07720833159304867,0.06259284429270527,0.047893469426591055,0.03312858643551458,0.01831649642792403,0.0034753952264804503,-0.0113766531842864,-0.026221742763291506,-0.041042151036358214,-0.055820364215079445,-0.07053910178341273,-0.08518134051758715,-0.09973033791127874,-0.11416965498475291,-0.12848317845145393,-0.14265514220993145,-0.15667014813436939,-0.17051318614431718,-0.18416965353362666,-0.19762537353549467,-0.21086661310182356,-0.22388009987773463,-0.23665303835170806,-0.24917312516036375,-0.26142856352779215,-0.27340807682372986,-0.2851009212307735,-0.2964968975125037,-0.30758636186985006,-0.31836023587017653,-0.32881001543760263,-0.3389277788960486,-0.34870619405280145,-0.3581385243097198,-0.3672186337978237,-0.3759409915364563,-0.38430067461214,-0.39229337036959167,-0.3999153776184341,-0.4071636068665996,-0.41403557958242027,-0.42052942648026753,-0.42664388483404,-0.4323782948310207,-0.43773259497135103,-0.44270731651475054,-0.44730357699050155,-0.4515230727969401,-0.45536807090571163,-0.4588413996765698,-0.4619464387993656,N
5,-0.406340428062586,-0.40948806799022514,-0.4122784441479564,-0.4147163488457229,-0.416807077370839,-0.41855641408716204,-0.419970617785669,-0.4210564063204356,-0.42182094055635727,-0.4222718076509124,-0.4224170037088963,-0.42226491586096565,-0.4218243038043385,-0.4211042808330378,-0.4201142943972051,-0.41886410624186915,-0.41736377216437215,-0.41562362142042786,-0.41365423582162086,-0.41146642857783444,-0.4090712229261641,-0.4064798305765908,-0.4037036300144023,-0.40075414470877985,-0.397643021267557,-0.39438200757096764,-0.39098293092953984,-0.3874576763207287,-0.3838181647471152,-0.3800763317483659,-0.3762441061085426,-0.3723333888086468,-0.3683560322630677,-0.36432381986771456,-0.3602484458947346,-0.3561414957757958,-0.3520144268069262,-0.34787854930019957,-0.343745008215916,-0.3396247653155938,-0.3355285818659953,-0.33146700191437073,-0.32745033616012587,-0.3234886464533838,-0.319591730942739,-0.31576910988607204,-0.31203001214194265,-0.30838336236321334,-0.30483776890852354,-0.30140151248194313,-0.2980825355159906,-0.2948884323169296,-0.2918264399843138,-0.2889034301099802,-0.28612590126462023,-0.2834999722828604,-0.28103137635162373,-0.27872545590043823,-0.27658715829449415,-0.27462103233342156,-0.27283122555329214,-0.27122148232317295,-0.26979514272764465,-0.2685551422279087,-0.267504012090983,-0.26664388057300153,-0.26597647484295045,-0.2655031236339311,-0.2652247606070994,-0.26514192841230594,-0.26525478343172976,-0.2655631011937864,-0.2660662824405931,-0.2667633598273989,-0.267653005230909,-0.2687335376434466,-0.2700029316286086,-0.27145882631223023,-0.2730985348815496,-0.2749190545653238,-0.2769170770668039,-0.27908899941736376,-0.2814309352118116,-0.2839387261843296,-0.2866079540890486,-0.28943395284956075,-0.29241182093124307,-0.2955364338859875,-0.298802457030178,-0.30220435822029695,-0.30573642067275936,-0.30939275576642716,-0.31316731578641177,-0.3170539065755035,-0.3210462000298141,-0.3251377463608015,-0.3293219860809891,-0.3335922616910881,-0.3379418290080694,-0.34236386805245905,-0.3468514934627846,-0.3513977644416512,-0.35599569419808214,-0.36063825882381056,-0.3653184055931016,-0.3700290607030752,-0.3747631364023367,-0.3795135374156149,-0.38427316665072786,-0.3890349302314987,-0.39379174183068166,-0.3985365262288446,-0.40326222211321483,-0.40796178419738094,-0.4126281846651255,-0.41725441388444195,-0.4218334804320713,-0.4263584105446378,-0.430822247032204,-0.4352180476260678,-0.4395388828262315,-0.44377783339274895,-0.4479279875455254,-0.45198243786902653,-0.45593427800510894,-0.459776599293171,-0.46350248744051886,-0.4671050192365686,-0.47057725940063705,-0.4739122577245701,-0.47710304660527575,-0.480142638996131,-0.4830240268647864,-0.485740180303465,-0.4882840473817561,-0.49064855477185054,-0.4928266092159991,-0.4948110999495291,-0.4965949021479591,-0.49817088141536925,-0.49953189935369224,-0.5006708202825051,-0.5015805191481212,-0.502253890620514,-0.5026838593824383,-0.5028633916314167,-0.5027855077993486,-0.5024432964668852,-0.5018299294397931,-0.5009386779553991,-0.4997629299821275,-0.4982962085597495,-0.49653219110862934,-0.4944647296284794,-0.4920878717145334,-0.4893958823159543,-0.48638326613500826,-0.4830447905511761,-0.47937550897321923,-0.47537078453054304,-0.47102631398375916,-0.4663381517141758,-0.4613027336794384,-0.45591690124061524,-0.45017792473225493,-0.4440835266232629,-0.4376319041503508,-0.4308217513317115,-0.42365228023506685,-0.4161232413497955,-0.4082349429519305,-0.3999882693826997,-0.39138469812911203,-0.38242631557131945,-0.37311583130473025,-0.3634565909810399,-0.35345258758114373,-0.3431084710093363,-0.33242955594372303,-0.32142182791655427,-0.31009194756777836,-0.2984472529914828,-0.2864957601409752,-0.27424616129810686,-0.26170782158297434,-0.24889077345714827,-0.23580570922002442,-0.2224639715378497,-0.20887754201503564,-0.19505902779240705,-0.181021646200253,-0.16677920753247635,-0.15234609598011845,-0.137737248740272,-0.12296813336020014,-0.10805472341369456,-0.09301347257698289,-0.07786128714746071,-0.06261549709049852,-0.04729382573491491,-0.03191435820539864,-0.016495508650935735,-0.0010559863629735705,0.014385239091150581,0.02980897362244939,0.0451958351879837,0.060526291060197024,0.07578069565560894,0.09093932881310704,0.105982434440026,0.12089025941113066,0.13564309257784243,0.15022130377815654,0.16460538276569223,0.17877597794420483,0.19271393476782292,0.20640033370271024,0.21981652767801338,0.23294417892747973,0.2457652950997837,0.2582622645485792,0.2704178907427914,0.2822154257124487,0.2936386024238175,0.3046716660092609,0.3152994038043623,0.3255071741191288,0.33528093364959954,0.34460726347000786,0.3534733935780196,0.3618672259475905,0.3697773560264101,0.3771930926428316,0.3841044763125124,0.3905022959158591,0.3963781037008656,0.40172422859302476,0.40653378782062793,0.41080069685040727,0.4145196776145808,0.4176862650321499,0.42029681184937273,0.4223484918138741,0.4238393011852263,0.4247680586015548,0.4251344033394651,0.42493879199721524,0.42418249362188637,0.4228675833134584,0.4209969343538841,0.4185742089077954,0.41560384733567257,0.4120910561650328,0.4080417947733685,0.40346276083801075,0.3983613746052736,0.39274576202998895,0.38662473683830884,0.3800077815695468,0.3729050276525578,0.36532723456789007,0.3572857681461853,0.3487925780595321,0.33986017456493955,0.3305016045519527,0.3207304269445915,0.31056068751985394,0.30000689321085844,0.289083985948692,0.27780731608533427,0.26619261544800676,0.25425597008191647,0.2420137927264847,0.22948279506166114,0.21667995977296606,0.20362251249252705,0.19032789366005728,0.17681373033799738,0.16309780802873827,0.14919804255178767,0.13513245202306276,0.12091912896404798,0.1065762125783568,0.09212186124273468,0.07757422524697147,0.06295141980539068,0.04827149837188791,0.033552426299601264,0.018812054875972508,0.0040680957533416285,-0.0106619041978998,-0.025360587578786387,-0.0400108106662435,-0.054595667112900106,-0.06909851111767655,-0.08350298003644112,-0.09779301640651733,-0.11195288936465436,-0.125967215435478,-0.13982097866330917,-0.1534995500623593,-0.1669887063642426,-0.18027464804173102,-0.19334401658575953,-0.20618391101262398,-0.21878190358049607,-0.23112605469707023,-0.24320492700054994,-0.2550075985938367,-0.2665236754114604,-0.2777433027028824,-0.28865717561813065,-0.29925654887884867,-0.3095332455184977,-0.3194796646844801,-0.32908878850000434,-0.338354187976918,-0.3472700279676097,-0.35583107115474316,-0.36403268108468806,-0.3718708242412095,-0.37934207114859136,-0.386443596502605,-0.3931731783357955,-0.39952919621617283,-0.4055106284747018,-0.41111704847134395,-0.41634861991962663,-0.42120609127894415,-0.4256907892151949,-0.4298046111426723,-0.4335500168707207,-0.4369300193689043,-0.4399481746573757,-0.4426085708433758,-0.44491581633627475,-0.44687502726277867,-0.44849181409527544,-0.44977226751985505,-0.45072294358208836,-0.4513508481382204,-0.45166342063170156,-0.45166851722990903,-0.45137439336781665,-0.4507896857332674,-0.44992339371791656,-0.4487848603704161,-0.44738375289961985,-0.44573004276473704,-0.4438339853804594,-0.44170609947822537,-0.43935714617575905,-0.4367981077955397,-0.4340401664626575,-0.43109468252381516,-0.4279731728393013,-0.4246872889896773,-0.421248795432511,-0.41766954766016456,-0.4139614704204166,-0.41013653604603906,-0.4062067429235018,-0.4021840941380147,-0.3980805763405576,-0.39390813887203574,-0.3896786731694654,-0.3854039924868226,-0.3810958119708307,-0.3767657291234912,-0.37242520467594137,-0.3680855439070179,-0.36375787844697577,-0.35945314859724875,-0.355182086188246,-0.3509551980038328,-0.3467827498070739,-0.3426747509928061,-0.3386409398841417,-0.3346907696956245,-0.33083339519080646,-0.3270776600534468,-0.3234320849827483,-0.31990485652636064,-0.3165038166687206,-0.3132364531858242,-0.3101098907711847,-0.307130882941037,-0.30430580472999774,-0.30164064618253295,-0.29914100663974486,-0.2968120898233575,-0.2946586997211522,-0.2926852372731438,-0.29089569785338465,-0.2892936695451588,-0.28788233220942583,-0.28666445734067436,-0.2856424086979702,-0.28481814369890757,-0.2841932155652588,-0.2837687762060662,-0.2835455798211871,-0.2835239872099228,-0.28370397077051346,-0.2840851201727796,-0.2846666486824185,-0.28544740011558417,-0.2864258564030146,-0.2876001457406395,-0.28896805130086933,-0.2905270204784439,-0.2922741746450538,-0.2942063193854536,-0.2963199551844651,-0.2986112885308274,-0.3010762434030869,-0.30371047310453003,-0.30650937241235965,-0.30946808999883213,-0.312581541079468,-0.31584442025038423,-0.3192512144766883,-0.32279621617846116,-0.3264735363546309,-0.33027711770164414,-0.33420074768994357,-0.33823807153692065,-0.3423826050036536,-0.34662774697200416,-0.35096679177477774,-0.35539294121875054,-0.359899316222727,-0.36447896803434393,-0.36912488901373336,-0.37383002292645734,-0.3785872746620245,-0.38338951935107957,-0.3882296108908009,-0.3931003898298949,-0.39799469052884395,-0.40290534758372376,-0.4078252015535334,-0.41274710396419556,-0.4176639215172583,-0.4225685395149129,-0.4274538645747744,-0.4323128266315842,-0.4371383801683316,-0.4419235047115379,-0.4466612046975737,-0.45134450873581095,-0.4559664682319568,-0.46052015542998676,-0.46499866100922055,-0.4693950912910643,-0.4737025650420959,-0.47791420995178924,-0.482023158942708,-0.4860225463930228,-0.48990550428138513,-0.49366515834527835,-0.4972946244183364,-0.5007870050416227,-0.5041353863756536,-0.5073328355048731,-0.5103723982881946,-0.5132470978457774,-0.515949933708204,-0.5184738817040042,-0.5208118947146998,-0.5229569043788738,-0.5249018237715726,-0.5266395511134678,-0.5281629745973315,-0.5294649783802752,-0.5305384497443166,-0.5313762874418952,-0.5319714112673501,-0.5323167728751421,-0.5324053678328429,-0.5322302488917487,-0.5317845404625929,-0.5310614542721206,-0.5300543061552063,-0.5287565339228202,-0.5271617162436621,-0.5252635924806692,-0.5230560834155642,-0.5205333127708028,-0.5176896294270964,-0.5145196302504579,-0.5110181834468762,-0.507180452331308,-0.5030019193773027,-0.49847841043660307,-0.4936061190322462,-0.48838163059594863,-0.4828019464989518,-0.4768645077582282,-0.47056721832333614,-0.46390846781448875,-0.45688715355682047,-0.44950270179249446,-0.44175508798207713,-0.43364485607433645,-0.42517313660107003,-0.4163416634977595,-0.40715278958639,-0.3976095006231074,-0.3877154277870619,-0.37747485853070073,-0.36689274574994324,-0.35597471520232166,-0.3447270710790105,-0.33315679968538264,-0.3212715712254373,-0.309079739653318,-0.2965903405286458,-0.2838130868574004,-0.2707583629403513,-0.25743721622220855,-0.24386134711212723,-0.23004309679293397,-0.21599543307653088,-0.2017319343331532,-0.18726677149786422,-0.17261468820196793,-0.15779097911547948,-0.1428114665567304,-0.12769247539967957,-0.11245080635045317,-0.09710370770071201,-0.08166884563634817,-0.06616427315636296,-0.05060839769756563,-0.035019947594938414,-0.019417937475810602,-0.0038216326584518336,0.011749487338423452,0.027275766037538035,0.042737407889500076,0.05811451672208755,0.07338713463373055,0.08853528118288363,0.10353899276021243,0.11837836206292522,0.1330335775620011,0.14748496282703807,0.16171301560481366,0.17569844657424538,0.18942221766994016,0.2028655798418485,0.21601011015212035,0.22883774813958357,0.24133083135489541,0.2534721299468068,0.2652448802142019,0.27663281706989007,0.2876202053391882,0.29819186979606094,0.308333223870975,0.31803029699223256,0.32726976049928796,0.33603895204742334,0.34432589845537054,0.3521193369791604,0.359408734980309,0.36618430794048007,0.3724370357998786,0.3781586776202373,0.38334178455740814,0.387979711114026,0.3920666246657342,0.395597513277633,0.3985681918167702,0.40097530635462214,0.4028163368714663,0.4040895982933887,0.4047942398849142,0.40493024301082786,0.40449841729414066,0.4035003952134291,0.4019386251809281,0.39981636313669605,0.39713766269977596,0.39390736392489484,0.390131080711608,0.3858151869089063,0.38096680116106496,0.3755937705470842,0.369704653070297,0.3633086990542207,0.3564158314974945,0.34903662544153663,0.34118228641138776,0.3328646279924807,0.3240960485980823,0.31488950747757827,0.3052585000235698,0.29521703244018516,0.28477959582505924,0.27396113971122255,0.2627770451256615,0.25124309722797894,0.2393754575803648,0.22719063609195864,0.21470546269365773,0.20193705880808463,0.18890280866404371,0.17562033049128697,0.16210744764130455,0.14838215968875076,0.13446261355505248,0.12036707468422454,0.10611389831113989,0.09172150087169646,0.07720833159304867,0.06259284429270527,0.047893469426591055,0.03312858643551458,0.01831649642792403,0.0034753952264804503,-0.0113766531842864,-0.026221742763291506,-0.041042151036358214,-0.055820364215079445,-0.07053910178341273,-0.08518134051758715,-0.09973033791127874,-0.11416965498475291,-0.12848317845145393,-0.14265514220993145,-0.15667014813436939,-0.17051318614431718,-0.18416965353362666,-0.19762537353549467,-0.21086661310182356,-0.22388009987773463,-0.23665303835170806,-0.24917312516036375,-0.26142856352779215,-0.27340807682372986,-0.2851009212307735,-0.2964968975125037,-0.30758636186985006,-0.31836023587017653,-0.32881001543760263,-0.3389277788960486,-0.34870619405280145,-0.3581385243097198,-0.3672186337978237,-0.3759409915364563,-0.38430067461214,-0.39229337036959167,-0.3999153776184341,-0.4071636068665996,-0.41403557958242027,-0.42052942648026753,-0.42664388483404,-0.4323782948310207,-0.43773259497135103,-0.44270731651475054,-0.44730357699050155,-0.4515230727969401,-0.45536807090571163,-0.4588413996765698,-0.4619464387993656,-0.4646871083899443,-0.46706785725832384,-0.46909365036296996,-0.47076995548125017,-0.4721027291378393,-0.4730984018202627,-0.47376386249983377,-0.4741064424885187,-0.4741338986733586,-0.4738543961593924,-0.4732764903440152,-0.4724091084603612,-0.47126153063891674,-0.46984337052416514,-0.46816455547218405,-0.4662353063673117,-0.46406611710690004,-0.4616677337920201,-0.45905113365277006,-0.45622750374967747,-0.4532082195033522,-0.4500048230931068,-0.446629001756396,-0.44309256603461916,-0.43940742802140903,-0.43558557965585126,-0.4316390710902101,-0.4275799891713777,-0.42342043608452046,-0.4191725081958578,-0.4148482751204268,-0.4104597590490811,-0.406018914377178,-0.40153760766805263,-0.3970275979764362,-0.3925005175665531,-0.38796785306736387,-0.3834409270970673,-0.37893088037943506,-0.37444865438206104,-0.37000497451325515,-0.3656103339045607,-0.3612749777968061,-0.35700888855410634,-0.3528217713360227,-0.34872304044863167,-0.3447218063850621,-0.34082686356892955,-0.33704667881828576,-0.3333893805422514,-0.3298627486790633,-0.3264742053920109,-0.32323080654445624,-0.3201392339653891,-0.31720578850581116,-0.3144363838862335,-0.3118365413380527,-0.3094113850372661,-0.3071656383251788,-0.3051036207141668,-0.3032292456791436,-0.30154601923027,-0.3000570392572707,-0.2987649956373134,-0.29767217110017696,-0.29678044284038757,-0.29609128486241737,-0.29560577104728264,-0.29532457893051683,-0.2952479941766703,-0.29537591572923966,-0.29570786161300194,-0.296242975366066,-0.2969800330784576,-0.29791745101422823,-0.2990532937961488,-0.3003852831329657,-0.30191080706658996,-0.3036269297129582,-0.3055304014685732,-0.3076176696546194,-0.30988488956975374,-0.31232793591794544,-0.3149424145698226,-0.31772367461367074,-0.3206668206586927,-0.3237667253546399,-0.3270180420811768,-0.33041521775582483,-0.3339525057214398,-0.3376239786771091,-0.3414235415953994,-0.3453449445595462,-0.3493817954780213,-0.3535275726454562,-0.35777563708893656,-0.3621192446234224,-0.36655155757688523,-0.371065656166874,-0.37565454946926163,-0.3803111858970292,-0.3850284631576696,-0.3897992376878293,-0.39461633350719383,-0.39947255040058305,-0.40436067140743337,-0.409273469648853,-0.4142037144620062,-0.4191441767703826,-0.42408763369616115,-0.4290268724751029,-0.43395469365736367,-0.4388639135252072,-0.44374736575034174,-0.4485979023834444,-0.45340839418636497,-0.45817173025649366,-0.46288081699081135,-0.46752857651658236,-0.4721079446322169,-0.4766118682343949,-0.48103330230380115,-0.4853652066040315,-0.48960054216721316,-0.4937322675690865,-0.497753335083385,-0.5016566868828242,-0.5054352513773935,-0.5090819397095748,-0.5125896425002328,-0.5159512270086011,-0.5191595348019642,-0.5222073799630631,-0.5250875479206626,-0.5277927950469431,-0.5303158491095953,-0.5326494106059502,-0.5347861550439683,-0.5367187362751227,-0.5384397909366565,-0.5399419440084383,-0.5412178155138603,-0.5422600284283432,-0.5430612178330836,-0.5436140413126556,-0.5439111905967949,-0.5439454044581767,-0.5437094828608388,-0.5431963023266678,-0.5423988324766544,-0.541310153703247,-0.5399234759248166,-0.5382321583584597,-0.5362297302288374,-0.5339099123237804,-0.5312666393155795,-0.5282940827645634,-0.5249866746962182,-0.5213391316303126,-0.5173464789614064,-0.5130040755995671,-0.5083076387479628,-0.5032532686726299,-0.4978374733469835,-0.4920571928723039,-0.4859098235424236,-0.4793932413978933,-0.47250582514950434,-0.46524647837760524,-0.4576146508807706,-0.44961035902353386,-0.4412342049725333,-0.4324873947428256,-0.42337175494444623,-0.4138897480959802,-0.4040444864155728,-0.3938397440363901,-0.3832799675630438,-0.3723702848638863,-0.3611165120425794,-0.34952515857218497,-0.3376034305420417,-0.3253592319405217,-0.31280116394126983,-0.2999385222004561,-0.28678129214354015,-0.27334014219745634,-0.25962641497092326,-0.24565211642584844,-0.2314299030534682,-0.21697306704575844,-0.2022955194987429,-0.187411771723713,-0.17233691471149945,-0.15708659676820755,-0.1416769993816058,-0.12612481141413587,-0.11044720169035167,-0.0946617900238977,-0.07878661677089178,-0.06284011103175897,-0.04684105759300604,-0.03080856267468447,-0.014762018587478899,0.0012789325640747992,0.017294436027420167,0.03326446231970341,0.04916884580597346,0.06498732379672527,0.08069957605455212,0.09628526462491581,0.1117240738707596,0.12699575056249793,0.14208014390979914,0.15695724545246467,0.171607228698023,0.18601048836824394,0.20014767915087336,0.2139997538832525,0.2275480010672188,0.24077408159139743,0.25366006457006374,0.2661884622366948,0.27834226380403515,0.29010496818081544,0.30146061546874503,0.31239381719344783,0.322889785199738,0.33293435912181,0.34251403237122946,0.3516159766153668,0.3602280646987934,0.36833889194221725,0.3759377957832731,0.38301487375170745,0.38956099975479336,0.3955678386329365,0.40102785897131965,0.40593434417903396,0.4102814018342711,0.41406397128064176,0.4172778294805787,0.41991959515377764,0.42198673122011343,0.42347754555573724,0.4243911900854133,0.42472765824922093,0.42448778087419264,0.42367322047282013,0.42228646400178355,0.42033081412885237,0.41781037905532886,0.41473006093635484,0.41109554294540035,0.4069132750368371,0.4021904584628299,0.39693502909870654,0.39115563962915445,0.3848616406495755,0.3780630607420381,0.3707705855861203,0.36299553615868235,0.3547498460741741,0.3460460381246236,0.3368972000819815,0.32731695981615755,0.31731945977705894,0.30691933089974727,0.2961316659980399,0.28497199269892715,0.2734562459607519,0.26160074022933877,0.2494221412941988,0.23693743789288182,0.22416391310053943,0.2111191155537452,0.19782083056687774,0.1842870511852277,0.1705359492079116,0.15658584622695193,0.14245518473919538,0.12816249937274032,0.11372638825637,0.09916548457202319,0.08449842834057732,0.06974383847788132,0.05492028514618399,0.0400462624374189,0.025140161434847923,0.010220243686718878,-0.0046953848885210895,-0.019588799640582712,-0.034442282336510976,-0.049238345794142185,-0.06395975797847175,-0.07858956553026875,-0.09311111668864591,-0.10750808357757577,-0.12176448383676072,-0.1358647015757872,-0.1497935076259331,-0.16353607906677559,-0.17707801800921175,-0.19040536961556154,-0.2035046393347245,-0.21636280933100666,-0.228967354088001,-0.2413062551707132,-0.25336801512877977,-0.2651416705222033,-0.2766168040521385,-0.2877835557838483,-0.29863263345096314,-0.30915532182667493,-0.3193434911469264,-0.32918960457797697,-0.3386867247250549,-0.3478285191728244,-0.3566092650444491,-0.3650238525733397,-0.3730677876874332,-0.3807371936004564,-0.3880288114025809,-0.3949399996545066,-0.4014687329969732,-0.4076135997793249,-0.4133737987048387,-0.4187491345016672,-0.4237400126371773,-0.42834743308506257,-0.43257298314934683,-0.4364188293631029,-0.43988770849004905,N
