0,-0.3997865836764508,-0.39917764539453937,-0.3985493069356002,-0.39790621086386946,-0.3972528014764839,-0.3965933217322112,-0.39593181082779505,-0.3952721024070732,-0.39461782338778784,-0.3939723933876288,-0.39333902473018456,-0.3927207230167705,-0.39212028825232126,-0.3915403165075681,-0.39098320209870824,-0.3904511402770096,-0.389946130425804,-0.3894699797485282,-0.38902430741848676,-0.38861054916513643,-0.38822996227645895,-0.38788363098818257,-0.38757247222537416,-0.3872972416732765,-0.3870585401616584,-0.38685682033470076,-0.38669239356764856,-0.386565437099651,-0.386476001359837,-0.38642401745449245,-0.3864093047777924,-0.3864315787226014,-0.3864904584776126,-0.3865854748835129,-0.38671607830635835,-0.3868816464916176,-0.38708149237048084,-0.3873148717842092,-0.3875809910871666,-0.3878790145982498,-0.38820807187903417,-0.38856726481135206,-0.3889556744386864,-0.3893723675374843,-0.38981640289053443,-0.39028683723548907,-0.39078273085680193,-0.3913031527839306,-0.39184718556096065,-0.39241392956341575,-0.3930025068406802,-0.3936120644503896,-0.3942417772487002,-0.39489085012019576,-0.39555851963886357,-0.3962440551273858,-0.39694675907231436,-0.3976659668869159,-0.39840104603516846,-0.39915139450076,-0.3999164385685924,-0.4006956299281397,-0.4014884421311602,-0.40229436638804605,-0.4031129066601249,-0.40394357406540776,-0.40478588065907467,-0.4056393325996545,-0.40650342267738243,-0.4073776222462483,-0.40826137264536844,-0.4091540761279734,-0.4100550862709601,-0.41096369791751297,-0.41187913677078625,-0.4128005486957155,-0.4137269887358769,-0.4146574099240292,-0.41559065201460865,-0.4165254301818686,-0.4174603236663754,-0.41839376443951454,-0.4193240260294468,-0.42024921257962083,-0.4211672481480308,-0.4220758663330234,-0.4229726003763087,-0.4238547738170605,-0.42471949170473866,-0.42556363244993334,-0.42638384045087474,-0.4271765195523153,-0.42793782732507746,-0.42866367022814367,-0.4293496997886008,-0.42999130987962464,-0.4305836351155159,-0.43112155042858497,-0.4315996719324144,-0.4320123591098776,-0.4323537183043746,-0.43261760753748413,-0.43279764272286525,-0.4328872053002748,-0.4328794512629306,-0.4327673215796933,-0.43254355404448136,-0.43220069654625887,-0.43173112171030065,-0.43112704287972703,-0.4303805314306218,-0.42948353538885364,-0.4284278992845231,-0.42720538518639634,-0.42580769487346964,-0.4242264930884589,-0.4224534317968102,-0.42048017536892485,-0.41829842660277644,-0.41589995349455816,-0.4132766166521897,-0.4104203972420529,-0.4073234253686874,-0.4039780088038786,-0.4003766619825161,-0.3965121351587869,-0.3923774435981725,-0.3879658966893723,-0.38327112686676423,-0.3782871182172012,-0.3730082346393684,-0.3674292474522485,-0.36154536236615353,-0.35535224570354457,-0.3488460497368305,-0.34202343703513877,-0.3348816037332612,-0.32741830161523516,-0.3196318588946458,-0.3115211996128408,-0.30308586160459455,-0.29432601295227057,-0.2852424668265775,-0.2758366946455456,-0.2661108375133846,-0.2560677158782425,-0.24571083733533272,-0.2350444025480931,-0.2240733092949374,-0.21280315461870092,-0.20124023503386057,-0.18939154479156117,-0.17726477223891057,-0.16486829427677874,-0.15221116889870623,-0.13930312584470472,-0.1261545554430049,-0.11277649567224798,-0.09918061744101744,-0.0853792081224509,-0.07138515341919546,-0.05721191760102655,-0.042873522135609785,-0.028384522786955347,-0.013759985296718114,0.0009845402799602953,0.01583304654811905,0.03076909697320455,0.04577585518558511,0.06083611531208249,0.07593233330048998,0.09104665916837806,0.10616097007215602,0.12125690412469496,0.13631589491435225,0.15131920663231468,0.1662479696790442,0.18108321666087923,0.19580591872747832,0.21039702217165246,0.22483748518274638,0.23910831467555585,0.25319060314918257,0.2670655655080098,0.28071457575164066,0.29411920346015646,0.307261250017355,0.3201227844860996,0.3326861790265298,0.3449341437731861,0.35684976111670696,0.3684165193265829,0.37961834543592543,0.39043963732167475,0.40086529492915157,0.4108807505819454,0.4204719983071772,0.4296256221142247,0.4383288231783089,0.44656944588163094,0.4543360026601415,0.461617697603262,0.46840444875384857,0.4746869090522783,0.48045648586648926,0.4857053590523804,0.49042649748934625,0.4946136740302614,0.4982614788045739,0.5013653308252176,0.5039214878659876,0.5059270545855304,0.5073799888782026,0.5082791064351898,0.508624083502842,0.5084154578290744,0.5076546277928781,0.5063438497153981,0.5044862333507608,0.5020857355515552,0.49914715210632626,0.4956761077582495,0.491679044422976,0.4871632076217543,0.48213663114741495,0.4766081199950848,0.47058723159953,0.46408425541522613,0.45711019087399996,0.44967672377289236,0.4417962011590094,0.43348160477139375,0.42474652309627936,0.41560512211015305,0.40607211479976496,0.39616272953963255,0.3858926774013684,0.3752781184851408,0.36433562737288794,0.35308215778484797,0.34153500651017676,0.32971177670607293,0.3176303406855088,0.3053088023108191,0.2927654591014118,0.2800187641711574,0.2670872881130642,0.25398968092885293,0.24074463408731878,0.22737084280866549,0.2138869686817927,0.20031160270383064,0.1866632288165898,0.17296018802906554,0.15922064323119822,0.14546254479543785,0.13170359704974632,0.11796122570794003,0.10425254633945584,0.0905943339354837,0.0770029936115718,0.06349453249923981,0.05008453288876707,0.036788126666702496,0.023619971075464923,0.010594225835347509,-0.0022754683160071706,-0.01497600962134063,-0.027494853807200178,-0.03982003105876063,-0.051940161430369114,-0.0638444686722158,-0.07552279246771257,-0.08696559907370545,-0.09816399035973507,-0.10910971126830833,-0.11979515573447598,-0.13021337108641176,-0.14035806092781192,-0.15022358650591697,-0.1598049665795971,-0.1690978758010623,-0.17809864162466263,-0.1868042397690133,-0.19521228826979822,-0.2033210401580217,-0.21112937479673258,-0.2186367879204171,-0.2258433804308321,-0.23274984599795948,-0.2393574575066905,-0.24566805239160297,-0.25168401690804315,-0.2574082693897876,-0.2628442425454875,-0.2679958648519391,-0.272867541107165,-0.2774641322058226,-0.2817909341970241,-0.2858536566846627,-0.28965840063237164,-0.29321163563737523,-0.2965201767391516,-0.2995911608300416,-0.30243202273573616,-0.30505047103398114,-0.30745446367988366,-0.30965218350591023,-0.311652013664061,-0.31346251307579415,-0.3150923919492245,-0.31655048741368724,-0.3178457393177409,-0.3189871662427876,-0.31998384179127165,-0.3208448712075051,-0.32157936838588336,-0.3221964333210813,-0.3227051300521203,-0.32311446514333475,-0.3234333667394921,-0.3236706642367836,-0.3238350686186863,-0.32393515350705104,-0.32397933697512593,-0.3239758641634548,-0.323932790730069,-0.3238579671538456,-0.32375902390313327,-0.3236433574918536,-0.3235181174809132,-0.3233901945308799,-0.3232662096221901,-0.32315250450476385,-0.32305513336646197,-0.32297985567078813,-0.32293213010765376,-0.32291710960631237,-0.3229396373641835,-0.3230042438452214,-0.3231151447016025,-0.3232762395773554,-0.3234911117587429,-0.3237630286393529,-0.3240949429684339,-0.3244894948509687,-0.3249490144679341,-0.32547552548514824,-0.32607074911906797,-0.3267361088288876,-0.32747273560916246,-0.32828147386521556,-0.3291628878559987,-0.33011726868136443,-0.3311446417828012,-0.33224477492686616,-0.33341718664204584,-0.33466115507625854,-0.3359757272406842,-0.3373597286111682,-0.3388117730617152,-0.34033027309947894,-0.341913450369148,-0.3435593464042753,-0.34526583360834173,-0.3470306264371682,-0.34885129274029014,-0.3507252652163292,-0.3526498529403198,-0.35462225292233385,-0.3566395616643102,-0.3586987866986534,-0.360796858099906,-0.36293063994832775,-0.3650969417098403,-0.36729252949732916,-0.3695141371831122,-0.37175847732854284,-0.3740222518898145,-0.37630216265785166,-0.3785949213937908,-0.38089725962610965,-0.38320593807974046,-0.3855177557115207,-0.3878295583300938,-0.3901382467803759,-0.39244078466866517,-0.3947342055955042,-0.39701561986268696,-0.39928222063190505,-0.40153128951150213,-0.40376020152456954,-0.40596642940414535,-0.4081475471911105,-0.41030123312920713,-0.4124252718272113,-0.41451755564572773,-0.41657608530435003,-0.41859896973132277,-0.42058442514660727,-0.4225307733501317,-0.424436439231071,-0.42629994754230294,-0.42811991893941126,-0.42989506525588517,-0.4316241840416009,-0.43330615243000953,-0.43493992034584444,-0.43652450302928664,-0.4380589729170488,-0.4395424509658857,-0.44097409743880506,-0.44235310212926066,-0.4436786740751819,-0.444950030877022,-0.4461663876725195,-0.4473269457709892,-0.4484308810217808,-0.44947733204538515,-0.450465388379999,-0.4513940785385853,-0.45226235805005005,-0.4530690976235577,-0.4538130715038731,-0.4544929460250969,-0.45510726844300137,-0.4556544561857881,-0.456132786587552,-0.4565403871050265,-0.45687522608990344,-0.4571351042536436,-0.45731764689617554,-0.45742029690801506,-0.4574403086134274,-0.4573747425712305,-0.4572204613794267,-0.45697412646804075,-0.4566321959209143,-0.456190923419612,-0.4556463583439203,-0.45499434700654384,-0.45423053504552996,-0.4533503710430317,-0.45234911138924966,-0.45122182635956815,-0.44996340740735846,-0.44856857571122705,-0.44703189197557963,-0.4453477674401754,-0.44351047607670985,-0.4415141679742067,-0.43935288387994514,-0.4370205708265646,-0.43451109879423466,-0.43181827838220466,-0.4289358794476765,-0.4258576506447693,-0.42257733979974277,-0.41908871506785084,-0.4153855868053713,-0.41146183007342674,-0.40731140768808927,-0.4029283937356023,-0.39830699746905895,-0.39344158749477365,-0.3883267161505859,-0.38295714398184644,-0.37732786423225106,-0.37143412726831637,-0.3652714648413568,-0.3588357140857396,-0.35212304117169396,-0.34512996454088823,-0.3378533776303548,-0.3302905709730071,-0.3224392535801906,-0.3142975735263214,-0.30586413763991577,-0.29713803020353574,-0.28811883060627114,-0.27880662991713984,-0.269202046314169,-0.2593062392742628,-0.2491209224545622,-0.23864837522125437,-0.22789145276009726,-0.21685359469301502,-0.20553883217126456,-0.19395179344826152,-0.18209770790156055,-0.16998240844665935,-0.1576123323241313,-0.1449945202749705,-0.1321366140878777,-0.11904685247746383,-0.10573406529291862,-0.09220766609148734,-0.07847764308224851,-0.06455454842748186,-0.0504494859394438,-0.03617409724830527,-0.021740546477768234,-0.00716150343024214,0.007549874677762587,0.022379962853700044,0.03731468929676883,0.05233955767603879,0.06743967065311246,0.08259975454652702,0.09780418507423,0.11303701414869388,0.1282819976684622,0.14352262421770184,0.1587421446134804,0.1739236022674952,0.18904986429913723,0.204103653307471,0.21906757973190005,0.2339241747501397,0.24865592363055544,0.2632452994289498,0.2776747969457201,0.29192696688896685,0.30598445017552584,0.31983001228231106,0.3334465775730048,0.3468172635397423,0.3599254148857137,0.37275463735921377,0.3852888312590569,0.39751222454409085,0.4094094054734071,0.42096535469427165,0.43216547669863953,0.44299563057412866,0.45344215996912357,0.46349192218577645,0.47313231632136316,0.48235131039152596,0.4911374673777084,0.4994799701421561,0.5073686451490727,0.5147939849252283,0.5217471691918278,0.5282200846012073,0.5342053430161228,0.5396962982786621,0.5446870614292402,0.5491725143434173,0.5531483217492902,0.5566109415802739,0.5595576336173732,0.5619864663804145,0.5638963222349376,0.5652869006900123,0.5661587198718694,0.5665131161659502,0.5663522420231762,0.5656790619251838,0.5644973465014663,0.5628116647957898,0.5606273746912198,0.5579506115107351,0.5547882748076016,0.5511480133618243,0.5470382084157539,0.5424679551947287,0.537447042754444,0.5319859321961149,0.5260957333085936,0.5197881797109059,0.5130756025620062,0.5059709029008634,0.4984875226974382,0.4906394147072111,0.48244101120906274,0.47390719169859846,0.4650532496281829,0.45589485829622384,0.44644803596705146,0.4367291102900112,0.4267546821137038,0.41654158881865944,0.4061068672834576,0.3954677165871858,0.3846414605601252,0.3736455102811643,0.3624973265628882,0.3512143824381689,0.33981412571667685,0.32831394174476575,0.3167311165085204,0.30508280020416007,0.29338597140823053,0.2816574019862159,0.269913622855422,0.25817089069706944,0.24644515572012154,0.23475203058643018,0.22310676058749174,0.2115241951437406,0.20001876070076544,0.18860443509646466,0.17729472344787992,0.16610263558647367,0.15504066508101041,0.14412076990097675,0.13335435476406685,0.12275225519617136,0.11232472332974155,0.10208141545917163,0.09203138134725389,0.08218305525972011,0.07254424871447539,0.0631221449455943,0.053923295076933206,0.04495361598896978,0.03621838985904818,0.027722265346277974,0.019469260369474994,0.011462766412722813,0.003705554304148619,-0.00380021857411423,-0.011052999693786284,-0.01805183146458324,-0.024796340048384526,-0.03128672295344289,-0.0375237354693194,-0.0435086760121764,-0.04924337044440247,-0.05473015542986309,-0.05997186089942602,-0.06497179171028272,-0.06973370857082091,-0.07426180829009273,-0.07856070341519263,-0.0826354013259847,-0.08649128285063623,-0.09013408046296023,-0.0935698561352376,-0.09680497892761541,-0.0998461023820199,-0.10270014177515395,-0.1053742512893696,-0.10787580116542754,-0.1102123548920405,-0.11239164647918763,-0.11442155786890539,-0.11631009654247425,-0.11806537337306787,-0.11969558076368557,-0.1212089711150932,-0.12261383567288218,-0.12391848379409069,-0.12513122266692703,-0.12626033752394963,-0.12731407239361295,-0.1283006114244613,-0.1292280608063227,-0.13010443131715727,-0.13093762152808147,-0.13173540168879844,-0.13250539830269464,-0.13325507939802145,-0.1339917405031264,-0.13472249133293854,-0.13545424319781937,-0.13619369715766047,-0.1369473329486743,-0.13772139869712416,-0.1385219014160751,-0.1393545982727514,-0.14022498861374785,-0.14113830673773042,-0.14209951541122667,-0.14311330013194135,-0.14418406414698204,-0.14531592422527762,-0.14651270717237097,-0.14777794707045144,-0.1491148832260628,-0.15052645880969642,-0.15201532017759148,-0.1535838168756797,-0.15523400232850484,-0.1569676352060793,-0.15878618144840054,-0.16069081692097267,-0.16268243067410684,-0.1647616287806732,-0.16692873873327338,-0.16918381439165506,-0.17152664147437077,-0.17395674357914634,-0.1764733887035563,-0.17907559623163413,-0.1817621443519126,-0.1845315778745886,-0.18738221642148042,-0.190312162971475,-0.19331931274747613,-0.19640136242328185,-0.19955581961838062,-0.202780012644133,-0.20607110046528307,-0.20942608284353226,-0.21284181063712604,-0.21631499624120887,-0.21984222415785581,-0.22341996167546616,-0.2270445696220806,-0.23071231314686888,-0.23441937248332098,-0.23816185365549544,-0.24193579909825666,-0.24573719816794323,-0.24956199752196404,-0.25340611134600194,-0.25726543140377717,-0.2611358368774161,-0.2650132039651722,-0.268893415211057,-0.2727723685450654,-0.2766459860055844,-0.28051022211281157,-0.28436107187172305,-0.2881945783807595,-0.2920068399965258,-0.2957940169949957,-0.2995523377002065,-0.30327810407610745,-0.30696769676153557,-0.3106175795171906,-0.314224303081406,-0.3177845084476895,-0.321294929545292,-0.3247523952857991,-0.32815383097714823,-0.3314962591307241,-0.33477679964653373,-0.3379926693364864,-0.34114118079484834,-0.3442197406566676,-0.34722584723280137,-0.35015708747701724,-0.3530111333021531,-0.35578573730371216,-0.358478727885333,-0.3610880037382905,-0.36361152770355765,-0.3660473201060508,-0.3683934515898344,-0.3706480354354038,-0.3728092194136454,-0.3748751772832313,-0.37684409995811685,-0.3787141863142012,-0.380483633690855,-0.3821506282148408,-0.3837133350012132,-0.38516988822480336,-0.3865183811371796,-0.38775685617156375,-0.38888329520199194,-0.3898956099582479,-0.3907916326740496,-0.3915691071074868,-0.39222567999127633,-0.3927588929025271,-0.39316617461871933,-0.39344483409703285,-0.39359205414668436,-0.3936048857990792,-0.39348024344284044,-0.39321490084930005,-0.3928054881520749,-0.39224848978317756,-0.39154024341520877,-0.39067693999894393,-0.38965462491845837,-0.3884692002268729,-0.3871164279758397,-0.38559193470795355,-0.3838912171453393,-0.38200964906064444,-0.3799424893397468,-0.37768489127148835,-0.3752319130627629,-0.37257852953714626,-0.3697196449890671,-0.3666501071808221,-0.36336472243731704,-0.35985827176101565,-0.3561255279037123,-0.3521612733559538,-0.34796031920790216,-0.3435175248160569,-0.3388278182052704,-0.33388621713580724,-0.3286878507564057,-0.32322798175214906,-0.3175020288915575,-0.3115055898847254,-0.30523446447742625,-0.29868467770618795,-0.29185250322017586,-0.2847344865642375,-0.27732746833020305,-0.26962860709057923,-0.2616354020102306,-0.253345715024487,-0.24475779250033428,-0.23587028631402687,-0.22668227425169876,-0.21719327962366222,-0.20740329001716387,-0.19731277513614834,-0.18692270364413258,-0.17623455890044085,-0.1652503535115977,-0.1539726426471524,-0.14240453604340153,-0.13054970860584236,-0.11841240957122699,-0.10599747022525029,-0.09331031013450981,-0.08035694182548987,-0.06714397389379324,-0.05367861256569081,-0.03996866169232188,-0.026022521127304684,-0.011849183494010675,0.002541770608339963,0.017140178958974253,0.03193530567143007,0.046915850745544226,0.06206996116761713,0.07738524354964031,0.0928487783222796,0.10844713543006489,0.12416639142911033,N,,,,,,,,,,,,,,,,,,,,,,,,,,,,,,,,,,,,,,,,,,,,,,,,,,,,,,,,,,,,,,,,,,,,,,,,,,,,,,,,,,,,,,,,,,,,,,,,,,,,,,,,,,,,,,,,,,,,,,,,,,,,,,,,,,,,,,,,,,,,,,,,,,,,,,,,,,,,,,,
1,-0.08803059438858232,-0.09185812506663907,-0.09573129624602295,-0.09964558546773866,-0.10359624429901199,-0.10757829647148193,-0.11158653654433855,-0.11561552918704972,-0.11965960911537228,-0.12371288166217005,-0.12776922402092694,-0.13182228725050626,-0.13586549907599188,-0.13989206746999305,-0.14389498504431086,-0.14786703431730674,-0.15180079385946244,-0.1556886452679519,-0.15952278097299252,-0.1632952129312953,-0.16699778222210945,-0.17062216951697903,-0.17415990642749785,-0.17760238776733833,-0.1809408847235801,-0.1841665588916817,-0.1872704771551433,-0.19024362741774156,-0.19307693516182164,-0.19576128077138363,-0.1982875175801786,-0.200646490629803,-0.20282905609983237,-0.20482610134492474,-0.20662856548629968,-0.2082274605224745,-0.20961389291032426,-0.2107790855482102,-0.21171440009690534,-0.21241135958401114,-0.212861671232071,-0.21305724943911653,-0.21299023883767973,-0.21265303736297167,-0.2120383192649243,-0.21113905799544405,-0.20994854889201345,-0.20846043157406305,-0.20666871197528283,-0.20456778393774924,-0.20215245028245246,-0.19941794326350396,-0.19635994432303996,-0.19297460307143058,-0.18925855540998332,-0.18520894071627797,-0.18082341804011398,-0.1761001812737641,-0.17103797324063358,-0.16563609863639656,-0.15989443578730972,-0.1538134472111357,-0.14739418893893175,-0.1406383185335608,-0.13354810176607823,-0.12612641793384471,-0.11837676378336197,-0.11030325598997874,-0.10191063218626999,-0.09320425055923269,-0.08419008800693295,-0.0748747368242792,-0.06526539992689973,-0.055369884652782475,-0.04519659514875237,-0.03475452332458789,-0.024053238398823028,-0.013102875093173894,-0.0019141204981118186,0.009501800392448443,0.02113314043306676,0.032967647285478366,0.04499258154434405,0.05719473602181386,0.06956045613749876,0.08207566132391367,0.09472586739887481,0.10749620988837069,0.12037146823543385,0.13333609079250616,0.14637422053990085,0.15946972151026012,0.17260620585334913,0.18576706143754368,0.1989354799300958,0.21209448534018666,0.2252269629711206,0.2383156886924101,0.2513433584803881,0.2642926182093052,0.2771460936362226,0.2898864204887139,0.30249627459989986,0.3149584020668164,0.32725564937216617,0.3393709933775915,0.3512875711311653,0.3629887094666772,0.37445795434738,0.38567909987998544,0.39663621694958057,0.4073136814509167,0.41769620206850383,0.4277688475347879,0.43751707331577927,0.4469267476930975,0.4559841771910599,0.4646761312780864,0.4729898662901935,0.4809131485434937,0.48843427658820643,0.49554210254170045,0.5022260524535219,0.5084761456727437,0.51428301317968,0.5196379148334899,0.5245327554968505,0.5289601000067873,0.5329131869481868,0.5363859411774746,0.5393729850579968,0.5418696483817868,0.5438719769443537,0.5453767397325785,0.5463814346999436,0.5468842931152385,0.5468842824618683,0.5463811078589729,0.545375211991478,0.5438677735475922,0.5418607041494709,0.5393566437558283,0.536358954537732,0.5328717132510602,0.5288997021251617,0.5244483982819351,0.5195239617145008,0.514133221863592,0.508283662813349,0.5019834071193253,0.49524119830431934,0.48806638207652775,0.4804688863114458,0.4724591998292832,0.4640483500231177,0.4552478794162505,0.4460698212201564,0.436526673955239,0.42663137521065697,0.4163972746284512,0.4058381061787675,0.3949679597804261,0.3838012523410297,0.3723526983113792,0.36063727984131244,0.34867021661331554,0.33646693544003975,0.32404303971823917,0.3114142788147542,0.2985965174471414,0.28560570513389877,0.27245784579910454,0.25916896760089686,0.24575509304001592,0.23223220941810074,0.21861623973290623,0.20492301409507874,0.19116824174141211,0.17736748371793473,0.16353612630204092,0.1496893552171404,0.13584213068162718,0.12200916333782366,0.10820489110917933,0.09444345702198034,0.08073868801729603,0.06710407478409737,0.05355275265166704,0.040097483574559396,0.026750639235282852,0.013524185288493626,0.000429666768737278,-0.012521805325064314,-0.025319566263051402,-0.03795340863016152,-0.050413592176719736,-0.06269085247019707,-0.07477640835010349,-0.08666196819143551,-0.09833973498741616,-0.10980241027178111,-0.1210431969069749,-0.1320558007620656,-0.14283443130022414,-0.15337380109732016,-0.16366912431688777,-0.17371611416796864,-0.18351097937425534,-0.19305041968810469,-0.20233162048669387,-0.2113522464866488,-0.22011043461342178,-0.2286047860664358,-0.23683435762425292,-0.24479865223088187,-0.252497608901003,-0.25993159198384747,-0.26710137982773446,-0.27400815288466923,-0.2806534812901594,-0.28703931195190774,-0.2931679551818412,-0.299042070907449,-0.3046646545009805,-0.3100390222684643,-0.31516879664184744,-0.3200578911186431,-0.3247104950070078,-0.3291310580605184,-0.3333242750950504,-0.3372950706502936,-0.3410485837173375,-0.3445901525323368,-0.3479252994342489,-0.3510597157901606,-0.35399924699786955,-0.3567498775792458,-0.35931771637980103,-0.36170898188978473,-0.3639299876966322,-0.36598712806868905,-0.36788686366755874,-0.3696357073980958,-0.3712402104202961,-0.3727069483544567,-0.3740425077112213,-0.37525347257634517,-0.3763464115768966,-0.3773278651513971,-0.37820433314404295,-0.3789822627443639,-0.379668036795804,-0.3802679624968312,-0.3807882605166168,-0.3812350545457055,-0.3816143613017893,-0.38193208101145837,-0.38219398838771346,-0.38240572411886453,-0.3825727868813191,-0.38270052588923753,-0.38279413399340956,-0.38285864133644104,-0.38289890956598743,-0.38291962660648166,-0.3829253019891881,-0.3829202627386678,-0.38290864981816547,-0.3828944151486144,-0.3828813192194946,-0.38287292929505357,-0.3828726182040637,-0.38288356370055465,-0.3829087483848984,-0.38295096016775837,-0.38301279325564247,-0.38309664964513696,-0.383204741117635,-0.3833390917160317,-0.3835015406761714,-0.3836937457921931,-0.3839171872001634,-0.38417317155424896,-0.384462836557906,-0.3847871558131544,-0.3851469439551221,-0.3855428620370811,-0.38597542313117006,-0.3864449981183544,-0.38695182164692654,-0.3874959982335587,-0.38807750847533923,-0.3886962153449725,-0.3893518705460282,-0.39004412090278795,-0.39077251475752306,-0.3915365083536516,-0.3923354721880933,-0.3931686973118796,-0.39403540154798794,-0.3949347355873792,-0.3958657889248954,-0.3968275956054236,-0.39781913975509975,-0.3988393608662447,-0.3998871588036056,-0.40096139851234686,-0.4020609144146379,-0.4031845144690998,-0.4043309838622285,-0.4054990883196508,-0.4066875770336416,-0.40789518518033235,-0.4091206359890612,-0.4103626423563137,-0.41161990801604487,-0.4128911282504689,-0.41417499010909686,-0.4154701721420808,-0.41677534368340785,-0.41808916369113813,-0.4194102791313621,-0.42073732293028543,-0.4220689115422148,-0.42340364213678094,-0.4247400893803136,-0.42607680183642194,-0.42741229804925596,-0.4287450623292771,-0.4300735402286052,-0.4313961337445744,-0.4327111963281456,-0.43401702772146455,-0.43531186861007987,-0.4365938951328533,-0.4378612133401586,-0.4391118536415165,-0.4403437652423622,-0.4415548106232457,-0.4427427601581065,-0.4439052869143841,-0.4450399616330845,-0.44614424793959595,-0.4472154978798334,-0.44825094782264696,-0.4492477147234749,-0.4502027927941466,-0.45111305066582724,-0.45197522907898985,-0.4527859390880445,-0.453541660815482,-0.4542387428322302,-0.45487340219232053,-0.4554417251053279,-0.4559396682725832,-0.4563630609564571,-0.45670760781673564,-0.4569688925088536,-0.45714238206457336,-0.45722343209753136,-0.45720729283329875,-0.45708911592590773,-0.4568639620504331,-0.45652680928896694,-0.4560725622965094,-0.455496062201594,-0.4547920972181135,-0.45395541397108247,-0.4529807295213973,-0.45186274405044596,-0.45059615417285376,-0.4491756668527162,-0.4475960138755581,-0.44585196680745537,-0.4439383523838304,-0.4418500682856995,-0.43958209925263436,-0.43712953346842653,-0.4344875791597663,-0.4316515813593763,-0.4286170387868059,-0.4253796207940629,-0.4219351843167866,-0.41827979076783345,-0.4144097228086067,-0.41032150093119263,-0.4060118997813969,-0.40147796415694065,-0.3967170246278611,-0.3917267127310898,-0.3865049756804007,-0.38105009052925737,-0.3753606777413279,-0.36943571413350523,-0.36327454514045315,-0.35687689634124814,-0.3502428842108963,-0.3433730260744508,-0.33626824922226317,-0.3289298991357198,-0.32135974680463064,-0.31355999513824717,-0.3055332844431694,-0.29728269691815556,-0.28881176014221277,-0.28012444955497384,-0.2712251899040946,-0.26211885561976433,-0.25281077011472275,-0.24330670403583285,-0.23361287246109091,-0.2237359310098686,-0.2136829708677322,-0.2034615127557287,-0.19307949984522596,-0.18254528960155555,-0.17186764458543122,-0.16105572227406736,-0.15011906392401314,-0.1390675824616044,-0.12791154941952015,-0.11666158096898999,-0.10532862306529224,-0.09392393569623993,-0.08245907625735212,-0.07094588210830367,-0.05939645233794975,-0.04782312874510145,-0.03623847608253317,-0.0246552616434608,-0.01308643423535499,-0.0015451025502096444,0.009955487037748519,0.02140197318977136,0.03278090279882975,0.04407875464660285,0.05528196347800049,0.06637694442579747,0.07735011773508117,0.08818793375124719,0.0988768981086481,0.10940359703487003,0.11975472270633562,0.12991709861166015,0.1398777048617368,0.1496237033677459,0.15914246282555303,0.168421583464938,0.1774489215129247,0.18621261330753794,0.1947010990063165,0.20290314583878988,0.21080787083406782,0.21840476294224953,0.22568370448468722,0.23263499188638093,0.23924935563903327,0.24551797943578058,0.2514325184272487,0.2569851165522897,0.262168422880135,0.2669756068918442,0.27140037264823214,0.2754369718090741,0.27908021546005424,0.28232548469718055,0.28516873993599057,0.287606528925638,0.2896359934335526,0.29125487455807475,0.2924615166501732,0.29325486984728993,0.2936344912141054,0.29360054447755385,0.29315379836280714,0.2922956235510172,0.2910279882633586,0.2893534524658605,0.2872751607139042,0.284796833676158,0.281922758364287,0.27865777708413836,0.27500727513967005,0.27097716730458143,0.26657388300295615,0.26180435011076353,0.256675977374196,0.2511966355439479,0.24537463735122533,0.23921871644100157,0.23273800538735398,0.22594201291999513,0.21884060046399065,0.2114439580742686,0.20376257986329274,0.19580723903702138,0.1875889626382137,0.1791190060786936,0.17040882755186976,0.161470062423491,0.15231449767692656,0.14295404647131688,0.13340072288357874,0.12366661691787706,0.11376386985148434,0.10370464997035944,0.09350112875497472,0.08316545758092479,0.072709744978435,0.06214603447879401,0.05148628308848098,0.04074234044863735,0.02992592873318441,0.01904862332772621,0.008121834330062293,-0.002843211090672438,-0.013835485455914986,-0.024844176852604042,-0.03585870390721798,-0.04686872983645441,-0.05786417555636648,-0.0688352318399292,-0.07977237051364025,-0.09066635468136405,-0.10150824796554928,-0.11228942276146162,-0.12300156750547112,-0.13363669296130967,-0.14418713752897197,-0.1546455715839982,-0.16500500086287676,-0.17525876891925687,-0.18540055868121377,-0.1954243931424509,-0.20532463522067096,-0.21509598681122682,-0.22473348705457202,-0.23423250983369942,-0.24358876052844305,-0.25279827206319627,-0.2618574002824654,-0.2707628186862163,-0.2795115125635694,-0.28810077256609085,-0.2965281877518455,-0.3047916381256974,-0.3128892867119295,-0.32081957120261406,-0.32858119521483387,-0.33617311918254256,-0.3435945509207337,-0.35084493590930427,-0.35792394733415317,-0.3648314759146632,-0.3715676195575728,-0.3781326728873502,-0.3845271166948847,-0.3907516073376951,-0.39680696613130734,-0.40269416877373326,-0.4084143348288453,-0.41396871728351464,-0.4193586922060489,-0.42458574854711345,-0.42965147811824417,-0.4345575657741752,-0.4393057798289874,-0.4438979627340662,-0.44833602202550055,-0.4526219215362472,-0.4567576728835876,-0.46074532725960937,-0.464586967548029,-0.4682847007818447,-0.47184065096050537,-0.4752569522463515,-0.47853574254498904,-0.48167915746352025,-0.4846893246505155,-0.48756835853306124,-0.4903183554611201,-0.49294138926146913,-0.49543950720624835,-0.4978147264018014,-0.5000690305915256,-0.5022043673577032,-0.5042226457147132,-0.5061257340954448,-0.5079154587301367,-0.5095936024110594,-0.5111619036368694,-0.5126220561285814,-0.5139757086985829,-0.5152244654473895,-0.5163698862700398,-0.5174134876654378,-0.518356743845852,-0.5192010881413732,-0.5199479146900722,-0.5205985803990275,-0.5211544071546842,-0.5216166842574931,-0.5219866710585587,-0.5222655997824727,-0.522454678525866,-0.5225550944215099,-0.5225680169532188,-0.5224946014043319,-0.5223359924259328,-0.5220933277123996,-0.5217677417667804,-0.521360369737672,-0.5208723513188261,-0.5203048347071894,-0.519658980604797,-0.5189359662434424,-0.5181369894213311,-0.517263272547439,-0.5163160666770041,-0.5152966555134761,-0.5142063593653425,-0.5130465390551535,-0.511818599764051,-0.5105239947869633,-0.509164229192155,-0.5077408633908338,-0.5062555166030571,-0.5047098701901085,-0.5031056708389476,-0.501444733597332,-0.4997289447400651,-0.49796026442997304,-0.49614072915013324,-0.4942724538970387,-0.4923576341121832,-0.490398547321852,-0.4883975544754396,-0.4863571009879302,-0.4842797174743407,-0.4821680201426552,-0.48002471081643344,-0.47785257656956176,-0.4756544889513097,-0.47343340277282175,-0.4711923544319103,-0.46893445976255244,-0.46666291139657184,-0.46438097561972297,-0.4620919887007395,-0.4597993526764483,-0.45750653058635277,-0.4552170411484859,-0.45293445285012063,-0.45066237742363463,-0.44840446270564954,-0.44616438489467986,-0.4439458402020688,-0.4417525358815812,-0.4395881806574939,-0.4374564745907165,-0.4353610983876534,-0.433305702137785,-0.4312938935128452,-0.42932922549240127,-0.42741518363873077,-0.42555517291697953,-0.4237525041115961,-0.4220103799311358,-0.42033188084661005,-0.4187199506743859,-0.4171773819715938,-0.4157068013523262,-0.41431065477348983,-0.4129911927964489,-0.41175045589559356,-0.4105902599365323,-0.40951218188735083,-0.4085175457786514,-0.4076074089928062,-0.4067825490192412,-0.4060434507582123,-0.4053902944059112,-0.404822944006519,-0.40434093679611444,-0.40394347339463726,-0.40362940884740756,-0.4033972445770863,-0.4032451213606378,-0.40317081339100785,-0.40317172343091084,-0.403244879113552,-0.4033869304865868,-0.40359414883938494,-0.4038624268022054,-0.40418727974826896,-0.40456384856908423,-0.40498690384430647,-0.40545085137988346,-0.40594973912319693,-0.4064772654998922,-0.4070267891788772,-0.407591340230766,-0.4081636326677316,-0.40873607837658477,-0.4093008024231055,-0.4098496596704104,-0.41037425267064187,-0.41086595080962807,-0.41131591066138273,-0.41171509748211077,-0.4120543077799549,-0.41232419290302913,-0.412515283563165,-0.4126180151903528,-0.41262275402380516,-0.4125198238601317,-0.4122995333680732,-0.41195220386471115,-0.4114681974542395,-0.41083794544256474,-0.41005197694045065,-0.40910094756089305,-0.4079756681148116,-0.4066671332143396,-0.40516654969975446,-0.40346536480599265,-0.4015552939757286,-0.3994283482205215,-0.39707686093723266,-0.39449351409107153,-0.39167136367003724,-0.38860386431235655,-0.38528489301916075,-0.38170877187316105,-0.37787028968046116,-0.3737647224595431,-0.369387852730611,-0.3647359875746264,-0.3598059754143661,-0.354595221465994,-0.3491017018480067,-0.3433239763572653,-0.3372611998876526,-0.33091313243576603,-0.32428014766006863,-0.317363239982554,-0.3101640301993483,-0.30268476955026574,-0.2949283422297451,-0.2868982663481577,-0.2785986933296768,-0.27003440571833204,-0.26121081340244723,-0.25213394829711644,-0.24281045749575333,-0.23324759487943866,-0.22345321120888792,-0.21343574275389496,-0.20320419848637628,-0.1927681458413154,-0.182137695088323,-0.17132348238764805,-0.16033665157289828,-0.14918883467566119,-0.13789213124117555,-0.1264590865142829,-0.11490266854461398,-0.10323624422919056,-0.09147355433405038,-0.0796286875627207,-0.0677160537211582,-0.05575035601483637,-0.04374656254544747,-0.03171987710070527,-0.019685709307728085,-0.0076596441974609,0.00434258875179098,0.016305147002254602,0.02821210670444664,0.04004749475345391,0.051795321089069216,0.06343961115846965,0.07496443847026772,0.08635395718059678,0.09759243464061694,0.10866428382213177,0.1195540955450014,0.13024667043812377,0.14072705055707668,0.15098055057260562,0.1609927884509642,0.17074971555598062,0.1802376460996742,0.1894432858635119,0.19835376011704942,0.2069566406672353,0.2152399719715986,0.22319229624712345,0.23080267750990216,0.23806072448483942,0.2449566123255398,0.2514811030853757,0.25762556488520644,0.26338198972917853,0.2687430099244957,0.2737019130642622,0.2782526555343578,0.2823898745023447,0.28610889833956604,0.28940575542852515,0.292277181321866,0.29472062423224277,0.2967342488333288,0.2983169383540657,0.299468294961198,0.30018863843481824,0.30047900313769516,0.3003411332788579,0.2997774764879033,0.2987911757299342,0.29738605958730036,0.29556663093261926,0.29333805403216534,0.29070614012673085,0.28767733152324954,0.2842586842244577,0.2804578491459386,0.2762830519860799,0.271743071799815,0.2668472183180614,0.26160530808014276,0.25602763946922463,0.25012496672987145,0.2439084730364704,0.23738974269993843,0.23058073261150738,0.22349374299907346,0.21614138755630977,0.2085365630296578,0.2006924183682048,0.19262232352027617,0.18433983794341444,0.17585867891787438,0.16719268977152796,0.15835580809888122,0.1493620340369219,0.1402253986855555,0.13095993278403995,0.12157963573629858,0.11209844505842913,0.1025302063380765,0.09288864380876347,0.08318733161915495,0.07343966585647929,0.06365883739812486,0.05385780567820361,0.0440492734342188,0.03424566247872024,0.02445909055260674,0.014701349324969373,0.004983883579694065,-0.004682228391560045,-0.014286293155367337,-0.02381801920975244,-0.03326753272539652,-0.04262539193243248,-0.051882600126573815,-0.061030617267346134,-0.07006137016297409,-0.0789672612538953,-0.08774117599776038,-0.09637648884908656,-0.10486706783974986,-0.11320727778064821,-0.12139198209997594,-0.12941654332933006,-0.1372768222628924,-0.14496917582769497,-0.1524904536967482,-0.1598379936679212,-0.16700961583675136,-0.17400361560025537,-0.1808187555300959,-0.18745425615753203,-0.19390978572703393,-0.2001854489847678,-0.2062817750598664,-0.21219970448270503,-0.21794057537995043,-0.22350610888944572,-0.2288983938426144,-0.2341198707660091,-0.23917331525694713,-0.24406182079090138,-0.24878878101964383,-0.25335787161672707,-0.25777303172138133,-0.26203844503065343,-0.2661585205961309,-0.2701378733868355,-0.2739813046771774,-0.2776937823163429,-0.28128042093938294,-0.28474646218111405,-0.28809725494543686,-0.29133823577731427,-0.29447490939125726,-0.29751282941525864,-0.30045757940199963,-0.30331475415278647,-0.3060899414044707,-0.30878870393174035,-0.3114165621061811,-0.3139789769452746,-0.3164813336909926,-0.31892892596187833,-0.3213269405112104,-0.3236804426146684,-0.32599436211849075,-0.3282734801869337,-0.3305224167808173,-0.3327456188904764,-0.3349473495491948,-0.3371316776549118,-0.3393024686179278,-0.3414633758434338,-0.34361783306118715,-0.3457690475190797,-0.3479199940516126,-0.3500734100269342,-0.35223179117711395,-0.35439738832205964,-0.35657220500026127,-0.3587579960157187,-0.36095626690061183,-0.3631682742825159,-0.36539502713761846,-0.36763728890697517,-0.36989558045108895,-0.3721701838231447,-0.3744611468518516,-0.37676828852637667,-0.3790912051606611,-0.3814292772987157,-0.3837816773201531,-0.38614737770590446,-0.38852515991831355,-0.3909136238497815,-0.39331119780700924,-0.3957161490037114,-0.39812659452051097,-0.40054051267893026,-0.4029557547843727,-0.4053700571997125,-0.40778105369911166,-0.41018628804191104,-0.4125832267163009,-0.4149692718109387,-0.4173417739626327,-0.4196980453215525,-0.4220353724893243,-0.42435102939587643,-0.42664229006849785,-0.42890644123394184,-0.4311407947021215,-0.4333426994896201,-0.4355095536353472,-0.43763881565566737,-0.4397280155970679,-0.44177476565461377,-0.4437767703183006,-0.445731835998137,-0.4476378800769753,-0.4494929393462567,-0.45129517778630324,-0.45304289365422723,-0.4547345258398139,-0.45636865945312644,-0.4579440306199512,-0.45945953046413807,-0.460914208241513,-0.46230727358725093,-0.4636380978636311,-0.4649062146106352,-0.46611131908356696,-0.46725326685368007,-0.46833207147894756,-0.4693479012685106,-0.47030107513036307,-0.47119205747468945,-0.4720214521909957,-0.4727899957476895,-0.4734985494219865,-0.47414809064302527,-0.4747397034871016,-0.4752745684075156,-0.4757539512396459,-0.47617919149073507,-0.4765516899775998,-0.47687289590727666,N
2,-0.45111305066582724,-0.45197522907898985,-0.4527859390880445,-0.453541660815482,-0.4542387428322302,-0.45487340219232053,-0.4554417251053279,-0.4559396682725832,-0.4563630609564571,-0.45670760781673564,-0.4569688925088536,-0.45714238206457336,-0.45722343209753136,-0.45720729283329875,-0.45708911592590773,-0.4568639620504331,-0.45652680928896694,-0.4560725622965094,-0.455496062201594,-0.4547920972181135,-0.45395541397108247,-0.4529807295213973,-0.45186274405044596,-0.45059615417285376,-0.4491756668527162,-0.4475960138755581,-0.44585196680745537,-0.4439383523838304,-0.4418500682856995,-0.43958209925263436,-0.43712953346842653,-0.4344875791597663,-0.4316515813593763,-0.4286170387868059,-0.4253796207940629,-0.4219351843167866,-0.41827979076783345,-0.4144097228086067,-0.41032150093119263,-0.4060118997813969,-0.40147796415694065,-0.3967170246278611,-0.3917267127310898,-0.3865049756804007,-0.38105009052925737,-0.3753606777413279,-0.36943571413350523,-0.36327454514045315,-0.35687689634124814,-0.3502428842108963,-0.3433730260744508,-0.33626824922226317,-0.3289298991357198,-0.32135974680463064,-0.31355999513824717,-0.3055332844431694,-0.29728269691815556,-0.28881176014221277,-0.28012444955497384,-0.2712251899040946,-0.26211885561976433,-0.25281077011472275,-0.24330670403583285,-0.23361287246109091,-0.2237359310098686,-0.2136829708677322,-0.2034615127557287,-0.19307949984522596,-0.18254528960155555,-0.17186764458543122,-0.16105572227406736,-0.15011906392401314,-0.1390675824616044,-0.12791154941952015,-0.11666158096898999,-0.10532862306529224,-0.09392393569623993,-0.08245907625735212,-0.07094588210830367,-0.05939645233794975,-0.04782312874510145,-0.03623847608253317,-0.0246552616434608,-0.01308643423535499,-0.0015451025502096444,0.009955487037748519,0.02140197318977136,0.03278090279882975,0.04407875464660285,0.05528196347800049,0.06637694442579747,0.07735011773508117,0.08818793375124719,0.0988768981086481,0.10940359703487003,0.11975472270633562,0.12991709861166015,0.1398777048617368,0.1496237033677459,0.15914246282555303,0.168421583464938,0.1774489215129247,0.18621261330753794,0.1947010990063165,0.20290314583878988,0.21080787083406782,0.21840476294224953,0.22568370448468722,0.23263499188638093,0.23924935563903327,0.24551797943578058,0.2514325184272487,0.2569851165522897,0.262168422880135,0.2669756068918442,0.27140037264823214,0.2754369718090741,0.27908021546005424,0.28232548469718055,0.28516873993599057,0.287606528925638,0.2896359934335526,0.29125487455807475,0.2924615166501732,0.29325486984728993,0.2936344912141054,0.29360054447755385,0.29315379836280714,0.2922956235510172,0.2910279882633586,0.2893534524658605,0.2872751607139042,0.284796833676158,0.281922758364287,0.27865777708413836,0.27500727513967005,0.27097716730458143,0.26657388300295615,0.26180435011076353,0.256675977374196,0.2511966355439479,0.24537463735122533,0.23921871644100157,0.23273800538735398,0.22594201291999513,0.21884060046399065,0.2114439580742686,0.20376257986329274,0.19580723903702138,0.1875889626382137,0.1791190060786936,0.17040882755186976,0.161470062423491,0.15231449767692656,0.14295404647131688,0.13340072288357874,0.12366661691787706,0.11376386985148434,0.10370464997035944,0.09350112875497472,0.08316545758092479,0.072709744978435,0.06214603447879401,0.05148628308848098,0.04074234044863735,0.02992592873318441,0.01904862332772621,0.008121834330062293,-0.002843211090672438,-0.013835485455914986,-0.024844176852604042,-0.03585870390721798,-0.04686872983645441,-0.05786417555636648,-0.0688352318399292,-0.07977237051364025,-0.09066635468136405,-0.10150824796554928,-0.11228942276146162,-0.12300156750547112,-0.13363669296130967,-0.14418713752897197,-0.1546455715839982,-0.16500500086287676,-0.17525876891925687,-0.18540055868121377,-0.1954243931424509,-0.20532463522067096,-0.21509598681122682,-0.22473348705457202,-0.23423250983369942,-0.24358876052844305,-0.25279827206319627,-0.2618574002824654,-0.2707628186862163,-0.2795115125635694,-0.28810077256609085,-0.2965281877518455,-0.3047916381256974,-0.3128892867119295,-0.32081957120261406,-0.32858119521483387,-0.33617311918254256,-0.3435945509207337,-0.35084493590930427,-0.35792394733415317,-0.3648314759146632,-0.3715676195575728,-0.3781326728873502,-0.3845271166948847,-0.3907516073376951,-0.39680696613130734,-0.40269416877373326,-0.4084143348288453,-0.41396871728351464,-0.4193586922060489,-0.42458574854711345,-0.42965147811824417,-0.4345575657741752,-0.4393057798289874,-0.4438979627340662,-0.44833602202550055,-0.4526219215362472,-0.4567576728835876,-0.46074532725960937,-0.464586967548029,-0.4682847007818447,-0.47184065096050537,-0.4752569522463515,-0.47853574254498904,-0.48167915746352025,-0.4846893246505155,-0.48756835853306124,-0.4903183554611201,-0.49294138926146913,-0.49543950720624835,-0.4978147264018014,-0.5000690305915256,-0.5022043673577032,-0.5042226457147132,-0.5061257340954448,-0.5079154587301367,-0.5095936024110594,-0.5111619036368694,-0.5126220561285814,-0.5139757086985829,-0.5152244654473895,-0.5163698862700398,-0.5174134876654378,-0.518356743845852,-0.5192010881413732,-0.5199479146900722,-0.5205985803990275,-0.5211544071546842,-0.5216166842574931,-0.5219866710585587,-0.5222655997824727,-0.522454678525866,-0.5225550944215099,-0.5225680169532188,-0.5224946014043319,-0.5223359924259328,-0.5220933277123996,-0.5217677417667804,-0.521360369737672,-0.5208723513188261,-0.5203048347071894,-0.519658980604797,-0.5189359662434424,-0.5181369894213311,-0.517263272547439,-0.5163160666770041,-0.5152966555134761,-0.5142063593653425,-0.5130465390551535,-0.511818599764051,-0.5105239947869633,-0.509164229192155,-0.5077408633908338,-0.5062555166030571,-0.5047098701901085,-0.5031056708389476,-0.501444733597332,-0.4997289447400651,-0.49796026442997304,-0.49614072915013324,-0.4942724538970387,-0.4923576341121832,-0.490398547321852,-0.4883975544754396,-0.4863571009879302,-0.4842797174743407,-0.4821680201426552,-0.48002471081643344,-0.47785257656956176,-0.4756544889513097,-0.47343340277282175,-0.4711923544319103,-0.46893445976255244,-0.46666291139657184,-0.46438097561972297,-0.4620919887007395,-0.4597993526764483,-0.45750653058635277,-0.4552170411484859,-0.45293445285012063,-0.45066237742363463,-0.44840446270564954,-0.44616438489467986,-0.4439458402020688,-0.4417525358815812,-0.4395881806574939,-0.4374564745907165,-0.4353610983876534,-0.433305702137785,-0.4312938935128452,-0.42932922549240127,-0.42741518363873077,-0.42555517291697953,-0.4237525041115961,-0.4220103799311358,-0.42033188084661005,-0.4187199506743859,-0.4171773819715938,-0.4157068013523262,-0.41431065477348983,-0.4129911927964489,-0.41175045589559356,-0.4105902599365323,-0.40951218188735083,-0.4085175457786514,-0.4076074089928062,-0.4067825490192412,-0.4060434507582123,-0.4053902944059112,-0.404822944006519,-0.40434093679611444,-0.40394347339463726,-0.40362940884740756,-0.4033972445770863,-0.4032451213606378,-0.40317081339100785,-0.40317172343091084,-0.403244879113552,-0.4033869304865868,-0.40359414883938494,-0.4038624268022054,-0.40418727974826896,-0.40456384856908423,-0.40498690384430647,-0.40545085137988346,-0.40594973912319693,-0.4064772654998922,-0.4070267891788772,-0.407591340230766,-0.4081636326677316,-0.40873607837658477,-0.4093008024231055,-0.4098496596704104,-0.41037425267064187,-0.41086595080962807,-0.41131591066138273,-0.41171509748211077,-0.4120543077799549,-0.41232419290302913,-0.412515283563165,-0.4126180151903528,-0.41262275402380516,-0.4125198238601317,-0.4122995333680732,-0.41195220386471115,-0.4114681974542395,-0.41083794544256474,-0.41005197694045065,-0.40910094756089305,-0.4079756681148116,-0.4066671332143396,-0.40516654969975446,-0.40346536480599265,-0.4015552939757286,-0.3994283482205215,-0.39707686093723266,-0.39449351409107153,-0.39167136367003724,-0.38860386431235655,-0.38528489301916075,-0.38170877187316105,-0.37787028968046116,-0.3737647224595431,-0.369387852730611,-0.3647359875746264,-0.3598059754143661,-0.354595221465994,-0.3491017018480067,-0.3433239763572653,-0.3372611998876526,-0.33091313243576603,-0.32428014766006863,-0.317363239982554,-0.3101640301993483,-0.30268476955026574,-0.2949283422297451,-0.2868982663481577,-0.2785986933296768,-0.27003440571833204,-0.26121081340244723,-0.25213394829711644,-0.24281045749575333,-0.23324759487943866,-0.22345321120888792,-0.21343574275389496,-0.20320419848637628,-0.1927681458413154,-0.182137695088323,-0.17132348238764805,-0.16033665157289828,-0.14918883467566119,-0.13789213124117555,-0.1264590865142829,-0.11490266854461398,-0.10323624422919056,-0.09147355433405038,-0.0796286875627207,-0.0677160537211582,-0.05575035601483637,-0.04374656254544747,-0.03171987710070527,-0.019685709307728085,-0.0076596441974609,0.00434258875179098,0.016305147002254602,0.02821210670444664,0.04004749475345391,0.051795321089069216,0.06343961115846965,0.07496443847026772,0.08635395718059678,0.09759243464061694,0.10866428382213177,0.1195540955450014,0.13024667043812377,0.14072705055707668,0.15098055057260562,0.1609927884509642,0.17074971555598062,0.1802376460996742,0.1894432858635119,0.19835376011704942,0.2069566406672353,0.2152399719715986,0.22319229624712345,0.23080267750990216,0.23806072448483942,0.2449566123255398,0.2514811030853757,0.25762556488520644,0.26338198972917853,0.2687430099244957,0.2737019130642622,0.2782526555343578,0.2823898745023447,0.28610889833956604,0.28940575542852515,0.292277181321866,0.29472062423224277,0.2967342488333288,0.2983169383540657,0.299468294961198,0.30018863843481824,0.30047900313769516,0.3003411332788579,0.2997774764879033,0.2987911757299342,0.29738605958730036,0.29556663093261926,0.29333805403216534,0.29070614012673085,0.28767733152324954,0.2842586842244577,0.2804578491459386,0.2762830519860799,0.271743071799815,0.2668472183180614,0.26160530808014276,0.25602763946922463,0.25012496672987145,0.2439084730364704,0.23738974269993843,0.23058073261150738,0.22349374299907346,0.21614138755630977,0.2085365630296578,0.2006924183682048,0.19262232352027617,0.18433983794341444,0.17585867891787438,0.16719268977152796,0.15835580809888122,0.1493620340369219,0.1402253986855555,0.13095993278403995,0.12157963573629858,0.11209844505842913,0.1025302063380765,0.09288864380876347,0.08318733161915495,0.07343966585647929,0.06365883739812486,0.05385780567820361,0.0440492734342188,0.03424566247872024,0.02445909055260674,0.014701349324969373,0.004983883579694065,-0.004682228391560045,-0.014286293155367337,-0.02381801920975244,-0.03326753272539652,-0.04262539193243248,-0.051882600126573815,-0.061030617267346134,-0.07006137016297409,-0.0789672612538953,-0.08774117599776038,-0.09637648884908656,-0.10486706783974986,-0.11320727778064821,-0.12139198209997594,-0.12941654332933006,-0.1372768222628924,-0.14496917582769497,-0.1524904536967482,-0.1598379936679212,-0.16700961583675136,-0.17400361560025537,-0.1808187555300959,-0.18745425615753203,-0.19390978572703393,-0.2001854489847678,-0.2062817750598664,-0.21219970448270503,-0.21794057537995043,-0.22350610888944572,-0.2288983938426144,-0.2341198707660091,-0.23917331525694713,-0.24406182079090138,-0.24878878101964383,-0.25335787161672707,-0.25777303172138133,-0.26203844503065343,-0.2661585205961309,-0.2701378733868355,-0.2739813046771774,-0.2776937823163429,-0.28128042093938294,-0.28474646218111405,-0.28809725494543686,-0.29133823577731427,-0.29447490939125726,-0.29751282941525864,-0.30045757940199963,-0.30331475415278647,-0.3060899414044707,-0.30878870393174035,-0.3114165621061811,-0.3139789769452746,-0.3164813336909926,-0.31892892596187833,-0.3213269405112104,-0.3236804426146684,-0.32599436211849075,-0.3282734801869337,-0.3305224167808173,-0.3327456188904764,-0.3349473495491948,-0.3371316776549118,-0.3393024686179278,-0.3414633758434338,-0.34361783306118715,-0.3457690475190797,-0.3479199940516126,-0.3500734100269342,-0.35223179117711395,-0.35439738832205964,-0.35657220500026127,-0.3587579960157187,-0.36095626690061183,-0.3631682742825159,-0.36539502713761846,-0.36763728890697517,-0.36989558045108895,-0.3721701838231447,-0.3744611468518516,-0.37676828852637667,-0.3790912051606611,-0.3814292772987157,-0.3837816773201531,-0.38614737770590446,-0.38852515991831355,-0.3909136238497815,-0.39331119780700924,-0.3957161490037114,-0.39812659452051097,-0.40054051267893026,-0.4029557547843727,-0.4053700571997125,-0.40778105369911166,-0.41018628804191104,-0.4125832267163009,-0.4149692718109387,-0.4173417739626327,-0.4196980453215525,-0.4220353724893243,-0.42435102939587643,-0.42664229006849785,-0.42890644123394184,-0.4311407947021215,-0.4333426994896201,-0.4355095536353472,-0.43763881565566737,-0.4397280155970679,-0.44177476565461377,-0.4437767703183006,-0.445731835998137,-0.4476378800769753,-0.4494929393462567,-0.45129517778630324,-0.45304289365422723,-0.4547345258398139,-0.45636865945312644,-0.4579440306199512,-0.45945953046413807,-0.460914208241513,-0.46230727358725093,-0.4636380978636311,-0.4649062146106352,-0.46611131908356696,-0.46725326685368007,-0.46833207147894756,-0.4693479012685106,-0.47030107513036307,-0.47119205747468945,-0.4720214521909957,-0.4727899957476895,-0.4734985494219865,-0.47414809064302527,-0.4747397034871016,-0.4752745684075156,-0.4757539512396459,-0.47617919149073507,-0.4765516899775998,-0.47687289590727666,-0.47714429342745135,-0.47736738763017084,-0.47754369006722214,-0.4776747038964951,-0.47776190872009244,-0.47780674512748905,-0.4778105990277718,-0.4777747859119358,-0.47770053512113153,-0.47758897414344104,-0.4774411130294677,-0.4772578290690913,-0.4770398517976039,-0.4767877483404933,-0.4765019091779122,-0.4761825344712894,-0.4758296210272442,-0.4754429499142295,-0.47502207481111147,-0.47456631122140613,-0.47407472661907224,-0.47354613153141123,-0.4729790716233345,-0.47237182090151164,-0.47172237609825773,-0.4710284522380054,-0.4702874794360161,-0.46949660102390567,-0.46865267304439184,-0.4677522651053172,-0.4667916626181686,-0.46576687048026433,-0.46467361821227027,-0.4635073665157782,-0.4622633152441573,-0.4609364128105595,-0.45952136702125945,-0.4580126572835359,-0.4564045481560519,-0.4546911042338426,-0.45286620633684405,-0.4509235689411504,-0.4488567587981912,-0.44665921469610004,-0.44432426829655347,-0.4418451659576884,-0.4392150914591018,-0.436427189559397,-0.43347459031553975,-0.4303504340817999,-0.42704789709771374,-0.4235602175723264,-0.41988072217228856,-0.4160028528170433,-0.41192019367404686,-0.40762649824293495,-0.40311571642561717,-0.3983820214824725,-0.3934198367634884,-0.3882238620999811,-0.3827890997611116,-0.3771108798901816,-0.3711848853185648,-0.36500717564322377,-0.35857421047218935,-0.3518828717574198,-0.34493048512014973,-0.33771484006723734,-0.3302342090254384,-0.3224873651412021,-0.3144735987735603,-0.30619273259024116,-0.29764513519874836,-0.28883173326551703,-0.27975402206369937,-0.2704140743831285,-0.26081454776629887,-0.25095869005859406,-0.24085034324600085,-0.23049394554568792,-0.21989453174962248,-0.20905773184789822,-0.19798976793607262,-0.1866974493897912,-0.17518816631376702,-0.16346988129639542,-0.15155111948678482,-0.13944095700126005,-0.12714900769737084,-0.11468540837858344,-0.10206080247470288,-0.08928632222933279,-0.07637356945507233,-0.06333459494137682,-0.050181876579310704,-0.036928296249932914,-0.023587115549104844,-0.01017195044412778,0.003303255063921207,0.016824256220708458,0.030376535674147075,0.04394533241831008,0.05751567145237596,0.07107239409269456,0.084600188856155,0.09808362281578703,0.11150717334404842,0.12485526017277732,0.13811227768289475,0.1512626273225725,0.1642907500683358,0.1771811588643902,0.1899184709745043,0.202487440172582,0.21487298870125723,0.22706023893408375,0.23903454467478066,0.2507815220220685,0.2622870797282564,0.2735374489804965,0.28451921253130363,0.2952193331028601,0.30562518099257846,0.3157245608165777,0.3255057373393026,0.33495746034148527,0.34406898847255746,0.3528301120338662,0.36123117465407223,0.3692630938263158,0.37691738026328425,0.3841861560137213,0.39106217129123666,0.3975388199752278,0.40361015373788606,0.4092708947486768,0.4145164469227965,0.4193429056921905,0.4237470662705569,0.4277264303787154,0.43127921141116166,0.43440433803752065,0.43710145622580576,0.43937092966692726,0.4412138385896429,0.4426319769669447,0.44362784811336603,0.444204658669666,0.44436631097932994,0.44411739387163346,0.4434631718690086,0.442409572838425,0.4409631741144138,0.4391311871300541,0.4369214405953988,0.43434236226201245,0.43140295931230327,0.42811279741708846,0.42448197851501407,0.4205211173784416,0.41624131703785766,0.41165414314123266,0.4067715973266608,0.40160608968287304,0.3961704103638197,0.390477700422198,0.38454142193813234,0.3783753275287064,0.37199342932100243,0.36540996746868204,0.3586393783001934,0.3516962621911142,0.34459535124360535,0.3373514768497979,0.3299795372265277,0.32249446501925666,0.3149111950682177,0.30724463242318517,0.2995096206970024,0.2917209108483819,0.28389313047120746,0.2760407536579291,0.2681780715116788,0.26031916338756805,0.2524778689334379,0.24466776099042548,0.2369021194175099,0.22919390590386887,0.2215557398155362,0.21399987511050975,0.20653817836584265,0.19918210796940716,0.19194269451884227,0.18483052245892195,0.17785571299258557,0.17102790830207032,0.16435625710049734,0.15784940152158394,0.15151546536187052,0.14536204369411695,0.13939619385504906,0.13362442779788705,0.12805270580786746,0.12268643158354457,0.11753044866951538,0.11258903821289405,0.10786591802654687,0.10336424295056988,0.09908660648831623,0.09503504368030084,0.0912110351899955,0.08761551258406274,0.0842488647745253,0.08111094557756697,0.07820108235457274,0.07551808570982615,0.0730602602045442,0.07082541603448178,0.0688108816292987,0.0670135171394786,0.06542972875961954,0.06405548382413799,0.06288632662602749,0.06191739492278796,0.06114343708162305,0.06055882980462472,0.06015759638616701,0.05993342546226592,0.05987969019414112,0.05998946781585539,0.06025555949275251,0.06067051045361876,0.06122663034922248,0.06191601377942312,0.06273056094411329,0.06366199838559601,0.06470189977990289,0.06584170672492175,0.06707274948424699,0.068386267655666,0.0697734307232464,0.07122535844321545,0.07273314102462519,0.07428785907633356,0.07588060328441432,0.07750249377678148,0.07914469914077121,0.08079845506777378,0.0824550825918623,0.0841060058829991,0.0857427695657103,0.08735705555038435,0.0889406993718047,0.09048570602819504,0.09198426530798286,0.09342876657971604,0.0948118130056163,0.09612623513409728,0.09736510383730082,0.09852174257116483,0.09958973893528786,0.10056295550802272,0.1014355399392923,0.1022019342919088,0.10285688362326648,0.10339544379844587,0.10381298852810916,0.10410521562344693,0.10426815245242155,0.10429816057878077,0.104191939576116,0.10394653002205606,0.10355931568118198,0.1030280248850109,0.10235073112117926,0.10152585284934429,0.10055215256391298,0.09942873512393963,0.09815504536930969,0.09673086503738493,0.09515630898633243,0.09343182072916201,0.09155816729020914,0.08953643340252003,0.08736801506227664,0.08505461245472944,0.08259822227262074,0.0800011294516708,0.0772658983406858,0.07439536332030926,0.07139261889366372,0.06826100927661127,0.06500411750365365,0.06162575405944965,0.05812994506093843,0.054520920027052715,0.05080309926336234,0.04698108088178964,0.04305962749044169,0.0390436526016948,0.03493820679773445,0.030748463684570838,0.026479705677385005,0.022137309669059583,0.017726732621282996,0.013253497107764526,0.008723176852020984,0.00414138231540059,-0.0004862536160834996,-0.005154089806552587,-0.0098564908598833,-0.014587840868371236,-0.01934255686932997,-0.02411510196638435,-0.028899998069974047,-0.03369183820219385,-0.038485298304076265,-0.04327514848665473,-0.0480562636795915,-0.05282363363691769,-0.05757237225148123,-0.062297726129462876,-0.06699508239490792,-0.0716599757003194,-0.0762880943960777,-0.08087528580339376,-0.08541756056887917,-0.08991109609528036,-0.0943522390058707,-0.09873750658265806,-0.10306358717006023,-0.10732733956995286,-0.11152579140981386,-0.11565613643953851,-0.11971573077673713,-0.12370208817234894,-0.12761287432692445,-0.13144590025592848,-0.13519911476101346,-0.1388705961015181,-0.14245854289284612,-0.14596126421416958,-0.1493771689851652,-0.15270475473712045,-0.15594259584903916,-0.15908933127228822,-0.16214365183332907,N
3,-0.4417525358815812,-0.4395881806574939,-0.4374564745907165,-0.4353610983876534,-0.433305702137785,-0.4312938935128452,-0.42932922549240127,-0.42741518363873077,-0.42555517291697953,-0.4237525041115961,-0.4220103799311358,-0.42033188084661005,-0.4187199506743859,-0.4171773819715938,-0.4157068013523262,-0.41431065477348983,-0.4129911927964489,-0.41175045589559356,-0.4105902599365323,-0.40951218188735083,-0.4085175457786514,-0.4076074089928062,-0.4067825490192412,-0.4060434507582123,-0.4053902944059112,-0.404822944006519,-0.40434093679611444,-0.40394347339463726,-0.40362940884740756,-0.4033972445770863,-0.4032451213606378,-0.40317081339100785,-0.40317172343091084,-0.403244879113552,-0.4033869304865868,-0.40359414883938494,-0.4038624268022054,-0.40418727974826896,-0.40456384856908423,-0.40498690384430647,-0.40545085137988346,-0.40594973912319693,-0.4064772654998922,-0.4070267891788772,-0.407591340230766,-0.4081636326677316,-0.40873607837658477,-0.4093008024231055,-0.4098496596704104,-0.41037425267064187,-0.41086595080962807,-0.41131591066138273,-0.41171509748211077,-0.4120543077799549,-0.41232419290302913,-0.412515283563165,-0.4126180151903528,-0.41262275402380516,-0.4125198238601317,-0.4122995333680732,-0.41195220386471115,-0.4114681974542395,-0.41083794544256474,-0.41005197694045065,-0.40910094756089305,-0.4079756681148116,-0.4066671332143396,-0.40516654969975446,-0.40346536480599265,-0.4015552939757286,-0.3994283482205215,-0.39707686093723266,-0.39449351409107153,-0.39167136367003724,-0.38860386431235655,-0.38528489301916075,-0.38170877187316105,-0.37787028968046116,-0.3737647224595431,-0.369387852730611,-0.3647359875746264,-0.3598059754143661,-0.354595221465994,-0.3491017018480067,-0.3433239763572653,-0.3372611998876526,-0.33091313243576603,-0.32428014766006863,-0.317363239982554,-0.3101640301993483,-0.30268476955026574,-0.2949283422297451,-0.2868982663481577,-0.2785986933296768,-0.27003440571833204,-0.26121081340244723,-0.25213394829711644,-0.24281045749575333,-0.23324759487943866,-0.22345321120888792,-0.21343574275389496,-0.20320419848637628,-0.1927681458413154,-0.182137695088323,-0.17132348238764805,-0.16033665157289828,-0.14918883467566119,-0.13789213124117555,-0.1264590865142829,-0.11490266854461398,-0.10323624422919056,-0.09147355433405038,-0.0796286875627207,-0.0677160537211582,-0.05575035601483637,-0.04374656254544747,-0.03171987710070527,-0.019685709307728085,-0.0076596441974609,0.00434258875179098,0.016305147002254602,0.02821210670444664,0.04004749475345391,0.051795321089069216,0.06343961115846965,0.07496443847026772,0.08635395718059678,0.09759243464061694,0.10866428382213177,0.1195540955450014,0.13024667043812377,0.14072705055707668,0.15098055057260562,0.1609927884509642,0.17074971555598062,0.1802376460996742,0.1894432858635119,0.19835376011704942,0.2069566406672353,0.2152399719715986,0.22319229624712345,0.23080267750990216,0.23806072448483942,0.2449566123255398,0.2514811030853757,0.25762556488520644,0.26338198972917853,0.2687430099244957,0.2737019130642622,0.2782526555343578,0.2823898745023447,0.28610889833956604,0.28940575542852515,0.292277181321866,0.29472062423224277,0.2967342488333288,0.2983169383540657,0.299468294961198,0.30018863843481824,0.30047900313769516,0.3003411332788579,0.2997774764879033,0.2987911757299342,0.29738605958730036,0.29556663093261926,0.29333805403216534,0.29070614012673085,0.28767733152324954,0.2842586842244577,0.2804578491459386,0.2762830519860799,0.271743071799815,0.2668472183180614,0.26160530808014276,0.25602763946922463,0.25012496672987145,0.2439084730364704,0.23738974269993843,0.23058073261150738,0.22349374299907346,0.21614138755630977,0.2085365630296578,0.2006924183682048,0.19262232352027617,0.18433983794341444,0.17585867891787438,0.16719268977152796,0.15835580809888122,0.1493620340369219,0.1402253986855555,0.13095993278403995,0.12157963573629858,0.11209844505842913,0.1025302063380765,0.09288864380876347,0.08318733161915495,0.07343966585647929,0.06365883739812486,0.05385780567820361,0.0440492734342188,0.03424566247872024,0.02445909055260674,0.014701349324969373,0.004983883579694065,-0.004682228391560045,-0.014286293155367337,-0.02381801920975244,-0.03326753272539652,-0.04262539193243248,-0.051882600126573815,-0.061030617267346134,-0.07006137016297409,-0.0789672612538953,-0.08774117599776038,-0.09637648884908656,-0.10486706783974986,-0.11320727778064821,-0.12139198209997594,-0.12941654332933006,-0.1372768222628924,-0.14496917582769497,-0.1524904536967482,-0.1598379936679212,-0.16700961583675136,-0.17400361560025537,-0.1808187555300959,-0.18745425615753203,-0.19390978572703393,-0.2001854489847678,-0.2062817750598664,-0.21219970448270503,-0.21794057537995043,-0.22350610888944572,-0.2288983938426144,-0.2341198707660091,-0.23917331525694713,-0.24406182079090138,-0.24878878101964383,-0.25335787161672707,-0.25777303172138133,-0.26203844503065343,-0.2661585205961309,-0.2701378733868355,-0.2739813046771774,-0.2776937823163429,-0.28128042093938294,-0.28474646218111405,-0.28809725494543686,-0.29133823577731427,-0.29447490939125726,-0.29751282941525864,-0.30045757940199963,-0.30331475415278647,-0.3060899414044707,-0.30878870393174035,-0.3114165621061811,-0.3139789769452746,-0.3164813336909926,-0.31892892596187833,-0.3213269405112104,-0.3236804426146684,-0.32599436211849075,-0.3282734801869337,-0.3305224167808173,-0.3327456188904764,-0.3349473495491948,-0.3371316776549118,-0.3393024686179278,-0.3414633758434338,-0.34361783306118715,-0.3457690475190797,-0.3479199940516126,-0.3500734100269342,-0.35223179117711395,-0.35439738832205964,-0.35657220500026127,-0.3587579960157187,-0.36095626690061183,-0.3631682742825159,-0.36539502713761846,-0.36763728890697517,-0.36989558045108895,-0.3721701838231447,-0.3744611468518516,-0.37676828852637667,-0.3790912051606611,-0.3814292772987157,-0.3837816773201531,-0.38614737770590446,-0.38852515991831355,-0.3909136238497815,-0.39331119780700924,-0.3957161490037114,-0.39812659452051097,-0.40054051267893026,-0.4029557547843727,-0.4053700571997125,-0.40778105369911166,-0.41018628804191104,-0.4125832267163009,-0.4149692718109387,-0.4173417739626327,-0.4196980453215525,-0.4220353724893243,-0.42435102939587643,-0.42664229006849785,-0.42890644123394184,-0.4311407947021215,-0.4333426994896201,-0.4355095536353472,-0.43763881565566737,-0.4397280155970679,-0.44177476565461377,-0.4437767703183006,-0.445731835998137,-0.4476378800769753,-0.4494929393462567,-0.45129517778630324,-0.45304289365422723,-0.4547345258398139,-0.45636865945312644,-0.4579440306199512,-0.45945953046413807,-0.460914208241513,-0.46230727358725093,-0.4636380978636311,-0.4649062146106352,-0.46611131908356696,-0.46725326685368007,-0.46833207147894756,-0.4693479012685106,-0.47030107513036307,-0.47119205747468945,-0.4720214521909957,-0.4727899957476895,-0.4734985494219865,-0.47414809064302527,-0.4747397034871016,-0.4752745684075156,-0.4757539512396459,-0.47617919149073507,-0.4765516899775998,-0.47687289590727666,-0.47714429342745135,-0.47736738763017084,-0.47754369006722214,-0.4776747038964951,-0.47776190872009244,-0.47780674512748905,-0.4778105990277718,-0.4777747859119358,-0.47770053512113153,-0.47758897414344104,-0.4774411130294677,-0.4772578290690913,-0.4770398517976039,-0.4767877483404933,-0.4765019091779122,-0.4761825344712894,-0.4758296210272442,-0.4754429499142295,-0.47502207481111147,-0.47456631122140613,-0.47407472661907224,-0.47354613153141123,-0.4729790716233345,-0.47237182090151164,-0.47172237609825773,-0.4710284522380054,-0.4702874794360161,-0.46949660102390567,-0.46865267304439184,-0.4677522651053172,-0.4667916626181686,-0.46576687048026433,-0.46467361821227027,-0.4635073665157782,-0.4622633152441573,-0.4609364128105595,-0.45952136702125945,-0.4580126572835359,-0.4564045481560519,-0.4546911042338426,-0.45286620633684405,-0.4509235689411504,-0.4488567587981912,-0.44665921469610004,-0.44432426829655347,-0.4418451659576884,-0.4392150914591018,-0.436427189559397,-0.43347459031553975,-0.4303504340817999,-0.42704789709771374,-0.4235602175723264,-0.41988072217228856,-0.4160028528170433,-0.41192019367404686,-0.40762649824293495,-0.40311571642561717,-0.3983820214824725,-0.3934198367634884,-0.3882238620999811,-0.3827890997611116,-0.3771108798901816,-0.3711848853185648,-0.36500717564322377,-0.35857421047218935,-0.3518828717574198,-0.34493048512014973,-0.33771484006723734,-0.3302342090254384,-0.3224873651412021,-0.3144735987735603,-0.30619273259024116,-0.29764513519874836,-0.28883173326551703,-0.27975402206369937,-0.2704140743831285,-0.26081454776629887,-0.25095869005859406,-0.24085034324600085,-0.23049394554568792,-0.21989453174962248,-0.20905773184789822,-0.19798976793607262,-0.1866974493897912,-0.17518816631376702,-0.16346988129639542,-0.15155111948678482,-0.13944095700126005,-0.12714900769737084,-0.11468540837858344,-0.10206080247470288,-0.08928632222933279,-0.07637356945507233,-0.06333459494137682,-0.050181876579310704,-0.036928296249932914,-0.023587115549104844,-0.01017195044412778,0.003303255063921207,0.016824256220708458,0.030376535674147075,0.04394533241831008,0.05751567145237596,0.07107239409269456,0.084600188856155,0.09808362281578703,0.11150717334404842,0.12485526017277732,0.13811227768289475,0.1512626273225725,0.1642907500683358,0.1771811588643902,0.1899184709745043,0.202487440172582,0.21487298870125723,0.22706023893408375,0.23903454467478066,0.2507815220220685,0.2622870797282564,0.2735374489804965,0.28451921253130363,0.2952193331028601,0.30562518099257846,0.3157245608165777,0.3255057373393026,0.33495746034148527,0.34406898847255746,0.3528301120338662,0.36123117465407223,0.3692630938263158,0.37691738026328425,0.3841861560137213,0.39106217129123666,0.3975388199752278,0.40361015373788606,0.4092708947486768,0.4145164469227965,0.4193429056921905,0.4237470662705569,0.4277264303787154,0.43127921141116166,0.43440433803752065,0.43710145622580576,0.43937092966692726,0.4412138385896429,0.4426319769669447,0.44362784811336603,0.444204658669666,0.44436631097932994,0.44411739387163346,0.4434631718690086,0.442409572838425,0.4409631741144138,0.4391311871300541,0.4369214405953988,0.43434236226201245,0.43140295931230327,0.42811279741708846,0.42448197851501407,0.4205211173784416,0.41624131703785766,0.41165414314123266,0.4067715973266608,0.40160608968287304,0.3961704103638197,0.390477700422198,0.38454142193813234,0.3783753275287064,0.37199342932100243,0.36540996746868204,0.3586393783001934,0.3516962621911142,0.34459535124360535,0.3373514768497979,0.3299795372265277,0.32249446501925666,0.3149111950682177,0.30724463242318517,0.2995096206970024,0.2917209108483819,0.28389313047120746,0.2760407536579291,0.2681780715116788,0.26031916338756805,0.2524778689334379,0.24466776099042548,0.2369021194175099,0.22919390590386887,0.2215557398155362,0.21399987511050975,0.20653817836584265,0.19918210796940716,0.19194269451884227,0.18483052245892195,0.17785571299258557,0.17102790830207032,0.16435625710049734,0.15784940152158394,0.15151546536187052,0.14536204369411695,0.13939619385504906,0.13362442779788705,0.12805270580786746,0.12268643158354457,0.11753044866951538,0.11258903821289405,0.10786591802654687,0.10336424295056988,0.09908660648831623,0.09503504368030084,0.0912110351899955,0.08761551258406274,0.0842488647745253,0.08111094557756697,0.07820108235457274,0.07551808570982615,0.0730602602045442,0.07082541603448178,0.0688108816292987,0.0670135171394786,0.06542972875961954,0.06405548382413799,0.06288632662602749,0.06191739492278796,0.06114343708162305,0.06055882980462472,0.06015759638616701,0.05993342546226592,0.05987969019414112,0.05998946781585539,0.06025555949275251,0.06067051045361876,0.06122663034922248,0.06191601377942312,0.06273056094411329,0.06366199838559601,0.06470189977990289,0.06584170672492175,0.06707274948424699,0.068386267655666,0.0697734307232464,0.07122535844321545,0.07273314102462519,0.07428785907633356,0.07588060328441432,0.07750249377678148,0.07914469914077121,0.08079845506777378,0.0824550825918623,0.0841060058829991,0.0857427695657103,0.08735705555038435,0.0889406993718047,0.09048570602819504,0.09198426530798286,0.09342876657971604,0.0948118130056163,0.09612623513409728,0.09736510383730082,0.09852174257116483,0.09958973893528786,0.10056295550802272,0.1014355399392923,0.1022019342919088,0.10285688362326648,0.10339544379844587,0.10381298852810916,0.10410521562344693,0.10426815245242155,0.10429816057878077,0.104191939576116,0.10394653002205606,0.10355931568118198,0.1030280248850109,0.10235073112117926,0.10152585284934429,0.10055215256391298,0.09942873512393963,0.09815504536930969,0.09673086503738493,0.09515630898633243,0.09343182072916201,0.09155816729020914,0.08953643340252003,0.08736801506227664,0.08505461245472944,0.08259822227262074,0.0800011294516708,0.0772658983406858,0.07439536332030926,0.07139261889366372,0.06826100927661127,0.06500411750365365,0.06162575405944965,0.05812994506093843,0.054520920027052715,0.05080309926336234,0.04698108088178964,0.04305962749044169,0.0390436526016948,0.03493820679773445,0.030748463684570838,0.026479705677385005,0.022137309669059583,0.017726732621282996,0.013253497107764526,0.008723176852020984,0.00414138231540059,-0.0004862536160834996,-0.005154089806552587,-0.0098564908598833,-0.014587840868371236,-0.01934255686932997,-0.02411510196638435,-0.028899998069974047,-0.03369183820219385,-0.038485298304076265,-0.04327514848665473,-0.0480562636795915,-0.05282363363691769,-0.05757237225148123,-0.062297726129462876,-0.06699508239490792,-0.0716599757003194,-0.0762880943960777,-0.08087528580339376,-0.08541756056887917,-0.08991109609528036,-0.0943522390058707,-0.09873750658265806,-0.10306358717006023,-0.10732733956995286,-0.11152579140981386,-0.11565613643953851,-0.11971573077673713,-0.12370208817234894,-0.12761287432692445,-0.13144590025592848,-0.13519911476101346,-0.1388705961015181,-0.14245854289284612,-0.14596126421416958,-0.1493771689851652,-0.15270475473712045,-0.15594259584903916,-0.15908933127228822,-0.16214365183332907,-0.16510428725093967,-0.16796999292758413,-0.1707395365179511,-0.1734116843563519,-0.17598518789554074,-0.17845877025094392,-0.1808311128884783,-0.1831008425564533,-0.18526651861602794,-0.18732662086119023,-0.1892795378617408,-0.19112355591698404,-0.19285684875356968,-0.1944774680359661,-0.19598333470070795,-0.19737223117788522,-0.19864179461431813,-0.19978951116305338,-0.20081271135205253,-0.20170856658074082,-0.20247408682412155,-0.20310611956948682,-0.20360134996134144,-0.20395630216584068,-0.2041673420034019,-0.2042306808604822,-0.2041423808501562,-0.2038983612139391,-0.20349440598268861,-0.20292617288332157,-0.20218920344374333,-0.2012789342617639,-0.20019070941820605,-0.19891979398618043,-0.19746138856039486,-0.19581064474288554,-0.1939626815391001,-0.19191260260453333,-0.18965551426289692,-0.18718654422073353,-0.18450086091266135,-0.1815936934047416,-0.17846035177173433,-0.1750962478620107,-0.17149691636650485,-0.16765803610642446,-0.16357545144928962,-0.1592451937600281,-0.15466350280013708,-0.14982684800175505,-0.14473194954720126,-0.13937579917018816,-0.13375568058561005,-0.12786918946615067,-0.12171425289206084,-0.11528914818890389,-0.10859252106679994,-0.10162340300237847,-0.09438122782085927,-0.08686584741340486,-0.07907754651059001,-0.07101705646064799,-0.06268556798168312,-0.054084742833532984,-0.04521672434312879,-0.03608414675727559,-0.026690143423980708,-0.017038353769184302,-0.007132929008089813,0.0030214634358850835,0.01341963680249885,0.024055883184219258,0.03492397308145116,0.04601715632651848,0.05732816434576776,0.0688492137651506,0.08057201139236084,0.09248776056536026,0.10458716882179145,0.11686045688082564,0.12929736895899568,0.14188718439889003,0.15461873055338737,0.16748039690414687,0.18046015042229271,0.19354555213599692,0.20672377483310803,0.21998162186317097,0.23330554703402953,0.24668167555778922,0.26009582596544406,0.27353353294377175,0.2869800710781664,0.30042047944754374,0.3138395869838037,0.3272220385400218,0.34055232163957055,0.3538147938433947,0.36699371064130043,0.38007325380430673,0.3930375601689701,0.40587075080468543,0.4185569604898897,0.43108036743894723,0.4434252232324221,0.4555758828708892,0.46751683484754675,0.4792327311601167,0.4907084172098341,0.5019289615206992,0.5128796851940358,0.5235461910283702,0.5339143922473678,0.5439705407581342,0.5537012548456787,0.5630935462290572,0.5721348464277531,0.5808130323812419,0.5891164512543214,0.5970339443700308,0.6045548702195078,0.6116691264852334,0.6183671710047807,0.6246400416154904,0.630479374831001,0.6358774232883534,0.6408270718965542,0.6453218526353058,0.649355957967709,0.6529242528204254,0.6560222850779128,0.6586462945568435,0.6607932204420025,0.6624607071519965,0.6636471085954355,0.6643514908022217,0.664573632936156,0.6643140266859617,0.6635738740244286,0.6623550833471697,0.6606602640213469,0.6584927193638318,0.6558564380599153,0.6527560840536277,0.6491969849538473,0.6451851189805655,0.6407271004639892,0.6358301639369359,0.6305021468859757,0.6247514712139051,0.6185871234544642,0.6120186338033674,0.6050560540498705,0.597709934477947,0.5899912997929738,0.5819116241496278,0.573482805371111,0.5647171384284007,0.5556272882324804,0.5462262618167331,0.5365273800121195,0.5265442487086016,0.516290729782777,0.5057809117825108,0.49502908046513233,0.484049689262869,0.4728573297325139,0.4614667020639743,0.4498925857413348,0.43814981044005213,0.4262532272301583,0.4142176801613301,0.40205797830526124,0.3897888683046743,0.3774250074609876,0.36498093741077586,0.35247105846256155,0.3399096046594551,0.32731061962060315,0.3146879332171885,0.30205513913759224,0.2894255733756636,0.27681229366105636,0.2642280598608204,0.2516853153921454,0.23919616967539942,0.2267723816443598,0.2144253443347932,0.20216607057282987,0.19000517976528508,0.1779528857804209,0.1660189859189854,0.15421285098650522,0.14254341646692398,0.131019174786213,0.11964816866105281,0.10843798552933141,0.09739575303920593,0.08652813556012222,0.07584133169440058,0.06534107278457055,0.05503262240471421,0.04492077681393922,0.03500986635553102,0.025303757784837653,0.01580585748727512,0.006519115534613819,-0.002553969456132416,-0.011411344683425178,-0.020051396778427755,-0.028472944727804952,-0.03667523213566186,-0.04465791884663152,-0.05242107196973313,-0.05996515635579715,-0.06729102456277984,-0.0743999063265071,-0.08129339756768449,-0.08797344897840413,-0.09444235421609702,-0.100702737720178,-0.10675754218198107,-0.11261001571131189,-0.11826369872740539,-0.12372241058846045,-0.12899023598782378,-0.13407151115710225,-0.13897080990137417,-0.14369292947571405,-0.1482428763201899,-0.15262585168059722,-0.15684723713482596,-0.16091258004275144,-0.16482757895761413,-0.168598069049252,-0.17223000757150198,-0.17572945938614482,-0.17910258256025846,-0.18235561406234024,-0.18549485557394763,-0.18852665942442404,-0.1914574146629947,-0.19429353329017152,-0.1970414366656868,-0.19970754210893243,-0.20229824972171,-0.20481992947164235,-0.20727890856184333,-0.20968145909686625,-0.21203378605484074,-0.21434201558033822,-0.21661218360932005,-0.21885022483481392,-0.22106196202779854,-0.2232530957324968,-0.22542919435035533,-0.22759568462070065,-0.22975784250684458,-0.23192078449898376,-0.23408945934367206,-0.23626864020819047,-0.23846291729085087,-0.24067669089032714,-0.24291416494400395,-0.24517934104050573,-0.24747601290942475,-0.24980776139137748,-0.2521779498924704,-0.25458972032989907,-0.2570459895793938,-0.2595494464361939,-0.2621025490961027,-0.26470752315455265,-0.26736636011426135,-0.27008081638993736,-0.2728524128022643,-0.2756824345584486,-0.27857193171859623,-0.28152172014655924,-0.28453238294160826,-0.2876042723411066,-0.2907375120750291,-0.2939320001494759,-0.29718741204296834,-0.30050320430683414,-0.3038786185609957,-0.30731268587429766,-0.31080423151910336,-0.31435188008617626,-0.3179540609345673,-0.3216090139459809,-0.32531479556244014,-0.3290692850952396,-0.33287019128987494,-0.3367150591274993,-0.34060127684832053,-0.34452608318296474,-0.3484865747654248,-0.3524797136944201,-0.3565023352201676,-0.36055115553604866,-0.3646227796344915,-0.3687137091761282,-0.3728203503424574,-0.3769390216567854,-0.3810659617386176,-0.38519733694418523,-0.38932924887191755,-0.3934577417329992,-0.3975788095689854,N
4,-0.4767877483404933,-0.4765019091779122,-0.4761825344712894,-0.4758296210272442,-0.4754429499142295,-0.47502207481111147,-0.47456631122140613,-0.47407472661907224,-0.47354613153141123,-0.4729790716233345,-0.47237182090151164,-0.47172237609825773,-0.4710284522380054,-0.4702874794360161,-0.46949660102390567,-0.46865267304439184,-0.4677522651053172,-0.4667916626181686,-0.46576687048026433,-0.46467361821227027,-0.4635073665157782,-0.4622633152441573,-0.4609364128105595,-0.45952136702125945,-0.4580126572835359,-0.4564045481560519,-0.4546911042338426,-0.45286620633684405,-0.4509235689411504,-0.4488567587981912,-0.44665921469610004,-0.44432426829655347,-0.4418451659576884,-0.4392150914591018,-0.436427189559397,-0.43347459031553975,-0.4303504340817999,-0.42704789709771374,-0.4235602175723264,-0.41988072217228856,-0.4160028528170433,-0.41192019367404686,-0.40762649824293495,-0.40311571642561717,-0.3983820214824725,-0.3934198367634884,-0.3882238620999811,-0.3827890997611116,-0.3771108798901816,-0.3711848853185648,-0.36500717564322377,-0.35857421047218935,-0.3518828717574198,-0.34493048512014973,-0.33771484006723734,-0.3302342090254384,-0.3224873651412021,-0.3144735987735603,-0.30619273259024116,-0.29764513519874836,-0.28883173326551703,-0.27975402206369937,-0.2704140743831285,-0.26081454776629887,-0.25095869005859406,-0.24085034324600085,-0.23049394554568792,-0.21989453174962248,-0.20905773184789822,-0.19798976793607262,-0.1866974493897912,-0.17518816631376702,-0.16346988129639542,-0.15155111948678482,-0.13944095700126005,-0.12714900769737084,-0.11468540837858344,-0.10206080247470288,-0.08928632222933279,-0.07637356945507233,-0.06333459494137682,-0.050181876579310704,-0.036928296249932914,-0.023587115549104844,-0.01017195044412778,0.003303255063921207,0.016824256220708458,0.030376535674147075,0.04394533241831008,0.05751567145237596,0.07107239409269456,0.084600188856155,0.09808362281578703,0.11150717334404842,0.12485526017277732,0.13811227768289475,0.1512626273225725,0.1642907500683358,0.1771811588643902,0.1899184709745043,0.202487440172582,0.21487298870125723,0.22706023893408375,0.23903454467478066,0.2507815220220685,0.2622870797282564,0.2735374489804965,0.28451921253130363,0.2952193331028601,0.30562518099257846,0.3157245608165777,0.3255057373393026,0.33495746034148527,0.34406898847255746,0.3528301120338662,0.36123117465407223,0.3692630938263158,0.37691738026328425,0.3841861560137213,0.39106217129123666,0.3975388199752278,0.40361015373788606,0.4092708947486768,0.4145164469227965,0.4193429056921905,0.4237470662705569,0.4277264303787154,0.43127921141116166,0.43440433803752065,0.43710145622580576,0.43937092966692726,0.4412138385896429,0.4426319769669447,0.44362784811336603,0.444204658669666,0.44436631097932994,0.44411739387163346,0.4434631718690086,0.442409572838425,0.4409631741144138,0.4391311871300541,0.4369214405953988,0.43434236226201245,0.43140295931230327,0.42811279741708846,0.42448197851501407,0.4205211173784416,0.41624131703785766,0.41165414314123266,0.4067715973266608,0.40160608968287304,0.3961704103638197,0.390477700422198,0.38454142193813234,0.3783753275287064,0.37199342932100243,0.36540996746868204,0.3586393783001934,0.3516962621911142,0.34459535124360535,0.3373514768497979,0.3299795372265277,0.32249446501925666,0.3149111950682177,0.30724463242318517,0.2995096206970024,0.2917209108483819,0.28389313047120746,0.2760407536579291,0.2681780715116788,0.26031916338756805,0.2524778689334379,0.24466776099042548,0.2369021194175099,0.22919390590386887,0.2215557398155362,0.21399987511050975,0.20653817836584265,0.19918210796940716,0.19194269451884227,0.18483052245892195,0.17785571299258557,0.17102790830207032,0.16435625710049734,0.15784940152158394,0.15151546536187052,0.14536204369411695,0.13939619385504906,0.13362442779788705,0.12805270580786746,0.12268643158354457,0.11753044866951538,0.11258903821289405,0.10786591802654687,0.10336424295056988,0.09908660648831623,0.09503504368030084,0.0912110351899955,0.08761551258406274,0.0842488647745253,0.08111094557756697,0.07820108235457274,0.07551808570982615,0.0730602602045442,0.07082541603448178,0.0688108816292987,0.0670135171394786,0.06542972875961954,0.06405548382413799,0.06288632662602749,0.06191739492278796,0.06114343708162305,0.06055882980462472,0.06015759638616701,0.05993342546226592,0.05987969019414112,0.05998946781585539,0.06025555949275251,0.06067051045361876,0.06122663034922248,0.06191601377942312,0.06273056094411329,0.06366199838559601,0.06470189977990289,0.06584170672492175,0.06707274948424699,0.068386267655666,0.0697734307232464,0.07122535844321545,0.07273314102462519,0.07428785907633356,0.07588060328441432,0.07750249377678148,0.07914469914077121,0.08079845506777378,0.0824550825918623,0.0841060058829991,0.0857427695657103,0.08735705555038435,0.0889406993718047,0.09048570602819504,0.09198426530798286,0.09342876657971604,0.0948118130056163,0.09612623513409728,0.09736510383730082,0.09852174257116483,0.09958973893528786,0.10056295550802272,0.1014355399392923,0.1022019342919088,0.10285688362326648,0.10339544379844587,0.10381298852810916,0.10410521562344693,0.10426815245242155,0.10429816057878077,0.104191939576116,0.10394653002205606,0.10355931568118198,0.1030280248850109,0.10235073112117926,0.10152585284934429,0.10055215256391298,0.09942873512393963,0.09815504536930969,0.09673086503738493,0.09515630898633243,0.09343182072916201,0.09155816729020914,0.08953643340252003,0.08736801506227664,0.08505461245472944,0.08259822227262074,0.0800011294516708,0.0772658983406858,0.07439536332030926,0.07139261889366372,0.06826100927661127,0.06500411750365365,0.06162575405944965,0.05812994506093843,0.054520920027052715,0.05080309926336234,0.04698108088178964,0.04305962749044169,0.0390436526016948,0.03493820679773445,0.030748463684570838,0.026479705677385005,0.022137309669059583,0.017726732621282996,0.013253497107764526,0.008723176852020984,0.00414138231540059,-0.0004862536160834996,-0.005154089806552587,-0.0098564908598833,-0.014587840868371236,-0.01934255686932997,-0.02411510196638435,-0.028899998069974047,-0.03369183820219385,-0.038485298304076265,-0.04327514848665473,-0.0480562636795915,-0.05282363363691769,-0.05757237225148123,-0.062297726129462876,-0.06699508239490792,-0.0716599757003194,-0.0762880943960777,-0.08087528580339376,-0.08541756056887917,-0.08991109609528036,-0.0943522390058707,-0.09873750658265806,-0.10306358717006023,-0.10732733956995286,-0.11152579140981386,-0.11565613643953851,-0.11971573077673713,-0.12370208817234894,-0.12761287432692445,-0.13144590025592848,-0.13519911476101346,-0.1388705961015181,-0.14245854289284612,-0.14596126421416958,-0.1493771689851652,-0.15270475473712045,-0.15594259584903916,-0.15908933127228822,-0.16214365183332907,-0.16510428725093967,-0.16796999292758413,-0.1707395365179511,-0.1734116843563519,-0.17598518789554074,-0.17845877025094392,-0.1808311128884783,-0.1831008425564533,-0.18526651861602794,-0.18732662086119023,-0.1892795378617408,-0.19112355591698404,-0.19285684875356968,-0.1944774680359661,-0.19598333470070795,-0.19737223117788522,-0.19864179461431813,-0.19978951116305338,-0.20081271135205253,-0.20170856658074082,-0.20247408682412155,-0.20310611956948682,-0.20360134996134144,-0.20395630216584068,-0.2041673420034019,-0.2042306808604822,-0.2041423808501562,-0.2038983612139391,-0.20349440598268861,-0.20292617288332157,-0.20218920344374333,-0.2012789342617639,-0.20019070941820605,-0.19891979398618043,-0.19746138856039486,-0.19581064474288554,-0.1939626815391001,-0.19191260260453333,-0.18965551426289692,-0.18718654422073353,-0.18450086091266135,-0.1815936934047416,-0.17846035177173433,-0.1750962478620107,-0.17149691636650485,-0.16765803610642446,-0.16357545144928962,-0.1592451937600281,-0.15466350280013708,-0.14982684800175505,-0.14473194954720126,-0.13937579917018816,-0.13375568058561005,-0.12786918946615067,-0.12171425289206084,-0.11528914818890389,-0.10859252106679994,-0.10162340300237847,-0.09438122782085927,-0.08686584741340486,-0.07907754651059001,-0.07101705646064799,-0.06268556798168312,-0.054084742833532984,-0.04521672434312879,-0.03608414675727559,-0.026690143423980708,-0.017038353769184302,-0.007132929008089813,0.0030214634358850835,0.01341963680249885,0.024055883184219258,0.03492397308145116,0.04601715632651848,0.05732816434576776,0.0688492137651506,0.08057201139236084,0.09248776056536026,0.10458716882179145,0.11686045688082564,0.12929736895899568,0.14188718439889003,0.15461873055338737,0.16748039690414687,0.18046015042229271,0.19354555213599692,0.20672377483310803,0.21998162186317097,0.23330554703402953,0.24668167555778922,0.26009582596544406,0.27353353294377175,0.2869800710781664,0.30042047944754374,0.3138395869838037,0.3272220385400218,0.34055232163957055,0.3538147938433947,0.36699371064130043,0.38007325380430673,0.3930375601689701,0.40587075080468543,0.4185569604898897,0.43108036743894723,0.4434252232324221,0.4555758828708892,0.46751683484754675,0.4792327311601167,0.4907084172098341,0.5019289615206992,0.5128796851940358,0.5235461910283702,0.5339143922473678,0.5439705407581342,0.5537012548456787,0.5630935462290572,0.5721348464277531,0.5808130323812419,0.5891164512543214,0.5970339443700308,0.6045548702195078,0.6116691264852334,0.6183671710047807,0.6246400416154904,0.630479374831001,0.6358774232883534,0.6408270718965542,0.6453218526353058,0.649355957967709,0.6529242528204254,0.6560222850779128,0.6586462945568435,0.6607932204420025,0.6624607071519965,0.6636471085954355,0.6643514908022217,0.664573632936156,0.6643140266859617,0.6635738740244286,0.6623550833471697,0.6606602640213469,0.6584927193638318,0.6558564380599153,0.6527560840536277,0.6491969849538473,0.6451851189805655,0.6407271004639892,0.6358301639369359,0.6305021468859757,0.6247514712139051,0.6185871234544642,0.6120186338033674,0.6050560540498705,0.597709934477947,0.5899912997929738,0.5819116241496278,0.573482805371111,0.5647171384284007,0.5556272882324804,0.5462262618167331,0.5365273800121195,0.5265442487086016,0.516290729782777,0.5057809117825108,0.49502908046513233,0.484049689262869,0.4728573297325139,0.4614667020639743,0.4498925857413348,0.43814981044005213,0.4262532272301583,0.4142176801613301,0.40205797830526124,0.3897888683046743,0.3774250074609876,0.36498093741077586,0.35247105846256155,0.3399096046594551,0.32731061962060315,0.3146879332171885,0.30205513913759224,0.2894255733756636,0.27681229366105636,0.2642280598608204,0.2516853153921454,0.23919616967539942,0.2267723816443598,0.2144253443347932,0.20216607057282987,0.19000517976528508,0.1779528857804209,0.1660189859189854,0.15421285098650522,0.14254341646692398,0.131019174786213,0.11964816866105281,0.10843798552933141,0.09739575303920593,0.08652813556012222,0.07584133169440058,0.06534107278457055,0.05503262240471421,0.04492077681393922,0.03500986635553102,0.025303757784837653,0.01580585748727512,0.006519115534613819,-0.002553969456132416,-0.011411344683425178,-0.020051396778427755,-0.028472944727804952,-0.03667523213566186,-0.04465791884663152,-0.05242107196973313,-0.05996515635579715,-0.06729102456277984,-0.0743999063265071,-0.08129339756768449,-0.08797344897840413,-0.09444235421609702,-0.100702737720178,-0.10675754218198107,-0.11261001571131189,-0.11826369872740539,-0.12372241058846045,-0.12899023598782378,-0.13407151115710225,-0.13897080990137417,-0.14369292947571405,-0.1482428763201899,-0.15262585168059722,-0.15684723713482596,-0.16091258004275144,-0.16482757895761413,-0.168598069049252,-0.17223000757150198,-0.17572945938614482,-0.17910258256025846,-0.18235561406234024,-0.18549485557394763,-0.18852665942442404,-0.1914574146629947,-0.19429353329017152,-0.1970414366656868,-0.19970754210893243,-0.20229824972171,-0.20481992947164235,-0.20727890856184333,-0.20968145909686625,-0.21203378605484074,-0.21434201558033822,-0.21661218360932005,-0.21885022483481392,-0.22106196202779854,-0.2232530957324968,-0.22542919435035533,-0.22759568462070065,-0.22975784250684458,-0.23192078449898376,-0.23408945934367206,-0.23626864020819047,-0.23846291729085087,-0.24067669089032714,-0.24291416494400395,-0.24517934104050573,-0.24747601290942475,-0.24980776139137748,-0.2521779498924704,-0.25458972032989907,-0.2570459895793938,-0.2595494464361939,-0.2621025490961027,-0.26470752315455265,-0.26736636011426135,-0.27008081638993736,-0.2728524128022643,-0.2756824345584486,-0.27857193171859623,-0.28152172014655924,-0.28453238294160826,-0.2876042723411066,-0.2907375120750291,-0.2939320001494759,-0.29718741204296834,-0.30050320430683414,-0.3038786185609957,-0.30731268587429766,-0.31080423151910336,-0.31435188008617626,-0.3179540609345673,-0.3216090139459809,-0.32531479556244014,-0.3290692850952396,-0.33287019128987494,-0.3367150591274993,-0.34060127684832053,-0.34452608318296474,-0.3484865747654248,-0.3524797136944201,-0.3565023352201676,-0.36055115553604866,-0.3646227796344915,-0.3687137091761282,-0.3728203503424574,-0.3769390216567854,-0.3810659617386176,-0.38519733694418523,-0.38932924887191755,-0.3934577417329992,-0.3975788095689854,-0.40168840328426825,-0.40578243748370657,-0.4098567971131176,-0.41390734385848604,-0.4179299222371803,-0.4219203653592353,-0.42587450037446345,-0.4297881535928751,-0.4336571552427228,-0.4374773438694524,-0.4412445704032835,-0.4449547018755787,-0.44860362473324417,-0.45218724775098534,-0.4557015045734322,-0.45914235585977886,-0.46250579096506733,-0.46578782916052275,-0.4689845204538129,-0.4720919460234284,-0.47510621824134003,-0.47802348031722625,-0.48083990564118023,-0.4835516968384445,-0.4861550845025446,-0.48864632563916544,-0.4910217019030657,-0.49327751764196515,-0.495410097709282,-0.49741578508103174,-0.49929093837706323,-0.5010319293298349,-0.5026351401920051,-0.5040969611354219,-0.5054137877430577,-0.5065820186277635,-0.5075980531562995,-0.5084582893218013,-0.509159121868425,-0.5096969407198007,-0.5100681297112106,-0.5102690656754171,-0.5102961179794175,-0.5101456485604022,-0.5098140124605476,-0.5092975588985842,-0.5085926329509503,-0.507695577866931,-0.5066027379969091,-0.5053104623483228,-0.503815108823391,-0.5021130491630726,-0.5002006745851627,-0.49807440212282506,-0.495730681692362,-0.49316600389449083,-0.49037690852391014,-0.4873599937696986,-0.4841119260989299,-0.48062945079347047,-0.4769094030867102,-0.4729487198549333,-0.46874445183521835,-0.46429377634064667,-0.45959401043134446,-0.45464262449276344,-0.44943725617461444,-0.44397572464939333,-0.4382560451456365,-0.43227644369516083,-0.42603537202717046,-0.41953152255595405,-0.412763843413661,-0.40573155345668593,-0.39843415715749725,-0.3908714593082863,-0.3830435794733958,-0.3749509661089525,-0.36659441026362205,-0.3579750588114645,-0.3490944271889227,-0.33995441157364403,-0.33055730041766485,-0.320905785280453,-0.311002970932703,-0.3008523846679355,-0.29045798473512263,-0.27982416784597974,-0.2689557757416191,-0.2578581007680889,-0.24653689038883297,-0.23499835061465357,-0.22324914836934973,-0.21129641276260283,-0.19914773520177068,-0.18681116831637204,-0.17429522370708075,-0.16160886849394843,-0.1487615206169061,-0.1357630429048752,-0.1226237359748638,-0.10935432996992676,-0.09596597510257397,-0.08247023102505367,-0.0688790550934537,-0.05520478954336755,-0.04146014756477173,-0.02765819833934582,-0.013812351156186285,6.366134963388677e-05,0.013955800859888021,0.027849741917271933,0.04173089128355165,0.05558440809395741,0.06939522483097295,0.08314806908334028,0.09682748600718306,0.11041786145733876,0.1239034458091117,0.13726837845341308,0.15049671290623598,0.16357244250536138,0.17647952669570585,0.18920191786090443,0.2017235886190086,0.21402855953013097,0.22610092718838623,0.23792489262650582,0.2494847899248591,0.2607651149521301,0.2717505542019038,0.2824260136635108,0.2927766476363906,0.3027878874211214,0.3124454698435677,0.32173546554237387,0.3306443069250018,0.3391588157194192,0.34726623007113844,0.35495423111622704,0.362210968941336,0.3690250878595585,0.37538575094823995,0.38128266377775183,0.3867060972446071,0.3916469094399883,0.3960965665022402,0.4000471623891965,0.40349143749442934,0.40642279604778425,0.4088353222542989,0.4107237951113623,0.41208370183382953,0.41291124983618865,0.4132033772353323,0.41295776182063304,0.41217282842794467,0.4108477546805693,0.4089824750840267,0.4065776834503069,0.4036348336184203,0.40015613846209175,0.39614456719304325,0.3916038409492124,0.3865384266458891,0.3809535290972209,0.37485508143628665,0.36824973383727133,0.3611448405286327,0.3535484451254587,0.3454692643488546,0.33691667019216776,0.3279006705814893,0.31843188860101007,0.3085215403699196,0.29818141163236983,0.2874238331048649,0.27626165465461316,0.26470821840685155,0.252777330857365,0.2404832340484336,0.22784057589466689,0.2148643797719818,0.20157001346619552,0.1879731575600616,0.17408977335719011,0.1599360704571955,0.14552847407376224,0.13088359216807588,0.11601818249028224,0.10094911964268045,0.08569336226451525,0.0702679204212426,0.05468982329099299,0.03897608724839037,0.02314368442541555,0.007209511811291385,-0.008809639035955157,-0.0248971115847324,-0.04103641316895221,-0.057211243024719666,-0.073405519466617,-0.08960340612829504,-0.10578933719499067,-0.1219480415671716,-0.1380645658996688,-0.15412429646857967,-0.1701129798365018,-0.18601674229978676,-0.2018221080980061,-0.21751601636077594,-0.23308583677439992,-0.24851938396019552,-0.2638049305572578,-0.2789312190036843,-0.2938874720200037,-0.3086634018070586,-0.32324921796952955,-0.3376356341744059,-0.3518138735593136,-0.36577567291197066,-0.37951328564285125,-0.39301948357543137,-0.40628755758729873,-0.4193113171415733,-0.43208508874375273,-0.4446037133515196,-0.45686254276300897,-0.46885743501164223,-0.4805847488000473,-0.492041337013463,-0.5032245393636631,-0.5141321742190758,-0.5247625296702495,-0.5351143538701827,-0.5451868446850648,-0.5549796386917852,-0.5644927995602763,-0.5737268058601753,-0.5826825383324291,-0.5913612666673514,-0.5997646358297691,-0.6078946519649854,-0.6157536679074668,-0.6233443683106062,-0.630669754426741,-0.6377331285750107,-0.6445380783287196,-0.6510884604496445,-0.657388384607681,-0.6634421969359262,-0.6692544634699195,-0.674829953515594,-0.6801736229925162,-0.685290597793577,-0.6901861571826515,-0.6948657172421839,-0.6993348143988953,-0.7035990890719237,-0.707664269481799,-0.711536155650724,-0.715220603632724,-0.7187235100158855,-0.7220507967225684,-0.725208396122371,-0.7282022364856685,-0.7310382278160962,-0.7337222480870033,-0.736260129895515,-0.7386576475593631,-0.7409205046888585,-0.7430543222482286,-0.7450646271072443,-0.7469568410996956,-0.7487362706200233,-0.750408096777444,-0.7519773661145388,-0.753448981907907,-0.7548276960769215,-0.7561181017114128,-0.7573246262161083,-0.758451525080979,-0.7595028762984052,-0.760482575438321,-0.7613943313812225,-0.7622416627141254,-0.7630278947957688,-0.7637561574789725,-0.7644293834652963,-0.7650503072803934,-0.7656214648753659,-0.766145193857463,-0.7666236343452713,-0.7670587304439902,-0.767452232335033,-0.7678056989618516,-0.768120501284796,-0.7683978260842426,-0.7686386803025038,-0.7688438959179922,-0.7690141353410849,-0.7691498973166083,-0.7692515233165117,-0.7693192044076184,-0.7693529885774436,-0.7693527884932918,-0.7693183896639038,-0.7692494589740198,-0.7691455535623939,-0.7690061300087988,-0.7688305537988763,-0.7686181090526415,-0.7683680085088359,-0.7680794037392537,-0.7677513955540721,-0.76738304457213,-0.7669733819387327,-0.7665214201538308,-0.7660261639550994,-0.7654866212093241,-0.7649018137752526,-0.7642707882889107,-0.7635926268154204,-0.7628664573304892,-0.762091464008264,-0.7612668972740232,-0.7603920835580246,-0.7594664346888585,-0.7584894568746444,-0.7574607592181389,-0.7563800617067281,-0.7552472026231344,-0.7540621453317499,-0.7528249843993685,-0.751535951007101,-0.750195417607541,-0.7488039017861458,-0.7473620692966694,-0.7458707362349124,-0.7443308702878151,-0.7427435909894131,-0.7411101689539462,-0.7394320240837885,-0.7377107227281584,-0.7359479737578333,-0.734145623564036,-0.7323056500160663,-0.7304301553731138,-0.7285213581243826,-0.7265815837878065,-0.7246132547375419,-0.7226188790844752,-0.7206010386039603,-0.718562375766689,-0.7165055799680105,-0.7144333729846892,N
5,-0.15908933127228822,-0.16214365183332907,-0.16510428725093967,-0.16796999292758413,-0.1707395365179511,-0.1734116843563519,-0.17598518789554074,-0.17845877025094392,-0.1808311128884783,-0.1831008425564533,-0.18526651861602794,-0.18732662086119023,-0.1892795378617408,-0.19112355591698404,-0.19285684875356968,-0.1944774680359661,-0.19598333470070795,-0.19737223117788522,-0.19864179461431813,-0.19978951116305338,-0.20081271135205253,-0.20170856658074082,-0.20247408682412155,-0.20310611956948682,-0.20360134996134144,-0.20395630216584068,-0.2041673420034019,-0.2042306808604822,-0.2041423808501562,-0.2038983612139391,-0.20349440598268861,-0.20292617288332157,-0.20218920344374333,-0.2012789342617639,-0.20019070941820605,-0.19891979398618043,-0.19746138856039486,-0.19581064474288554,-0.1939626815391001,-0.19191260260453333,-0.18965551426289692,-0.18718654422073353,-0.18450086091266135,-0.1815936934047416,-0.17846035177173433,-0.1750962478620107,-0.17149691636650485,-0.16765803610642446,-0.16357545144928962,-0.1592451937600281,-0.15466350280013708,-0.14982684800175505,-0.14473194954720126,-0.13937579917018816,-0.13375568058561005,-0.12786918946615067,-0.12171425289206084,-0.11528914818890389,-0.10859252106679994,-0.10162340300237847,-0.09438122782085927,-0.08686584741340486,-0.07907754651059001,-0.07101705646064799,-0.06268556798168312,-0.054084742833532984,-0.04521672434312879,-0.03608414675727559,-0.026690143423980708,-0.017038353769184302,-0.007132929008089813,0.0030214634358850835,0.01341963680249885,0.024055883184219258,0.03492397308145116,0.04601715632651848,0.05732816434576776,0.0688492137651506,0.08057201139236084,0.09248776056536026,0.10458716882179145,0.11686045688082564,0.12929736895899568,0.14188718439889003,0.15461873055338737,0.16748039690414687,0.18046015042229271,0.19354555213599692,0.20672377483310803,0.21998162186317097,0.23330554703402953,0.24668167555778922,0.26009582596544406,0.27353353294377175,0.2869800710781664,0.30042047944754374,0.3138395869838037,0.3272220385400218,0.34055232163957055,0.3538147938433947,0.36699371064130043,0.38007325380430673,0.3930375601689701,0.40587075080468543,0.4185569604898897,0.43108036743894723,0.4434252232324221,0.4555758828708892,0.46751683484754675,0.4792327311601167,0.4907084172098341,0.5019289615206992,0.5128796851940358,0.5235461910283702,0.5339143922473678,0.5439705407581342,0.5537012548456787,0.5630935462290572,0.5721348464277531,0.5808130323812419,0.5891164512543214,0.5970339443700308,0.6045548702195078,0.6116691264852334,0.6183671710047807,0.6246400416154904,0.630479374831001,0.6358774232883534,0.6408270718965542,0.6453218526353058,0.649355957967709,0.6529242528204254,0.6560222850779128,0.6586462945568435,0.6607932204420025,0.6624607071519965,0.6636471085954355,0.6643514908022217,0.664573632936156,0.6643140266859617,0.6635738740244286,0.6623550833471697,0.6606602640213469,0.6584927193638318,0.6558564380599153,0.6527560840536277,0.6491969849538473,0.6451851189805655,0.6407271004639892,0.6358301639369359,0.6305021468859757,0.6247514712139051,0.6185871234544642,0.6120186338033674,0.6050560540498705,0.597709934477947,0.5899912997929738,0.5819116241496278,0.573482805371111,0.5647171384284007,0.5556272882324804,0.5462262618167331,0.5365273800121195,0.5265442487086016,0.516290729782777,0.5057809117825108,0.49502908046513233,0.484049689262869,0.4728573297325139,0.4614667020639743,0.4498925857413348,0.43814981044005213,0.4262532272301583,0.4142176801613301,0.40205797830526124,0.3897888683046743,0.3774250074609876,0.36498093741077586,0.35247105846256155,0.3399096046594551,0.32731061962060315,0.3146879332171885,0.30205513913759224,0.2894255733756636,0.27681229366105636,0.2642280598608204,0.2516853153921454,0.23919616967539942,0.2267723816443598,0.2144253443347932,0.20216607057282987,0.19000517976528508,0.1779528857804209,0.1660189859189854,0.15421285098650522,0.14254341646692398,0.131019174786213,0.11964816866105281,0.10843798552933141,0.09739575303920593,0.08652813556012222,0.07584133169440058,0.06534107278457055,0.05503262240471421,0.04492077681393922,0.03500986635553102,0.025303757784837653,0.01580585748727512,0.006519115534613819,-0.002553969456132416,-0.011411344683425178,-0.020051396778427755,-0.028472944727804952,-0.03667523213566186,-0.04465791884663152,-0.05242107196973313,-0.05996515635579715,-0.06729102456277984,-0.0743999063265071,-0.08129339756768449,-0.08797344897840413,-0.09444235421609702,-0.100702737720178,-0.10675754218198107,-0.11261001571131189,-0.11826369872740539,-0.12372241058846045,-0.12899023598782378,-0.13407151115710225,-0.13897080990137417,-0.14369292947571405,-0.1482428763201899,-0.15262585168059722,-0.15684723713482596,-0.16091258004275144,-0.16482757895761413,-0.168598069049252,-0.17223000757150198,-0.17572945938614482,-0.17910258256025846,-0.18235561406234024,-0.18549485557394763,-0.18852665942442404,-0.1914574146629947,-0.19429353329017152,-0.1970414366656868,-0.19970754210893243,-0.20229824972171,-0.20481992947164235,-0.20727890856184333,-0.20968145909686625,-0.21203378605484074,-0.21434201558033822,-0.21661218360932005,-0.21885022483481392,-0.22106196202779854,-0.2232530957324968,-0.22542919435035533,-0.22759568462070065,-0.22975784250684458,-0.23192078449898376,-0.23408945934367206,-0.23626864020819047,-0.23846291729085087,-0.24067669089032714,-0.24291416494400395,-0.24517934104050573,-0.24747601290942475,-0.24980776139137748,-0.2521779498924704,-0.25458972032989907,-0.2570459895793938,-0.2595494464361939,-0.2621025490961027,-0.26470752315455265,-0.26736636011426135,-0.27008081638993736,-0.2728524128022643,-0.2756824345584486,-0.27857193171859623,-0.28152172014655924,-0.28453238294160826,-0.2876042723411066,-0.2907375120750291,-0.2939320001494759,-0.29718741204296834,-0.30050320430683414,-0.3038786185609957,-0.30731268587429766,-0.31080423151910336,-0.31435188008617626,-0.3179540609345673,-0.3216090139459809,-0.32531479556244014,-0.3290692850952396,-0.33287019128987494,-0.3367150591274993,-0.34060127684832053,-0.34452608318296474,-0.3484865747654248,-0.3524797136944201,-0.3565023352201676,-0.36055115553604866,-0.3646227796344915,-0.3687137091761282,-0.3728203503424574,-0.3769390216567854,-0.3810659617386176,-0.38519733694418523,-0.38932924887191755,-0.3934577417329992,-0.3975788095689854,-0.40168840328426825,-0.40578243748370657,-0.4098567971131176,-0.41390734385848604,-0.4179299222371803,-0.4219203653592353,-0.42587450037446345,-0.4297881535928751,-0.4336571552427228,-0.4374773438694524,-0.4412445704032835,-0.4449547018755787,-0.44860362473324417,-0.45218724775098534,-0.4557015045734322,-0.45914235585977886,-0.46250579096506733,-0.46578782916052275,-0.4689845204538129,-0.4720919460234284,-0.47510621824134003,-0.47802348031722625,-0.48083990564118023,-0.4835516968384445,-0.4861550845025446,-0.48864632563916544,-0.4910217019030657,-0.49327751764196515,-0.495410097709282,-0.49741578508103174,-0.49929093837706323,-0.5010319293298349,-0.5026351401920051,-0.5040969611354219,-0.5054137877430577,-0.5065820186277635,-0.5075980531562995,-0.5084582893218013,-0.509159121868425,-0.5096969407198007,-0.5100681297112106,-0.5102690656754171,-0.5102961179794175,-0.5101456485604022,-0.5098140124605476,-0.5092975588985842,-0.5085926329509503,-0.507695577866931,-0.5066027379969091,-0.5053104623483228,-0.503815108823391,-0.5021130491630726,-0.5002006745851627,-0.49807440212282506,-0.495730681692362,-0.49316600389449083,-0.49037690852391014,-0.4873599937696986,-0.4841119260989299,-0.48062945079347047,-0.4769094030867102,-0.4729487198549333,-0.46874445183521835,-0.46429377634064667,-0.45959401043134446,-0.45464262449276344,-0.44943725617461444,-0.44397572464939333,-0.4382560451456365,-0.43227644369516083,-0.42603537202717046,-0.41953152255595405,-0.412763843413661,-0.40573155345668593,-0.39843415715749725,-0.3908714593082863,-0.3830435794733958,-0.3749509661089525,-0.36659441026362205,-0.3579750588114645,-0.3490944271889227,-0.33995441157364403,-0.33055730041766485,-0.320905785280453,-0.311002970932703,-0.3008523846679355,-0.29045798473512263,-0.27982416784597974,-0.2689557757416191,-0.2578581007680889,-0.24653689038883297,-0.23499835061465357,-0.22324914836934973,-0.21129641276260283,-0.19914773520177068,-0.18681116831637204,-0.17429522370708075,-0.16160886849394843,-0.1487615206169061,-0.1357630429048752,-0.1226237359748638,-0.10935432996992676,-0.09596597510257397,-0.08247023102505367,-0.0688790550934537,-0.05520478954336755,-0.04146014756477173,-0.02765819833934582,-0.013812351156186285,6.366134963388677e-05,0.013955800859888021,0.027849741917271933,0.04173089128355165,0.05558440809395741,0.06939522483097295,0.08314806908334028,0.09682748600718306,0.11041786145733876,0.1239034458091117,0.13726837845341308,0.15049671290623598,0.16357244250536138,0.17647952669570585,0.18920191786090443,0.2017235886190086,0.21402855953013097,0.22610092718838623,0.23792489262650582,0.2494847899248591,0.2607651149521301,0.2717505542019038,0.2824260136635108,0.2927766476363906,0.3027878874211214,0.3124454698435677,0.32173546554237387,0.3306443069250018,0.3391588157194192,0.34726623007113844,0.35495423111622704,0.362210968941336,0.3690250878595585,0.37538575094823995,0.38128266377775183,0.3867060972446071,0.3916469094399883,0.3960965665022402,0.4000471623891965,0.40349143749442934,0.40642279604778425,0.4088353222542989,0.4107237951113623,0.41208370183382953,0.41291124983618865,0.4132033772353323,0.41295776182063304,0.41217282842794467,0.4108477546805693,0.4089824750840267,0.4065776834503069,0.4036348336184203,0.40015613846209175,0.39614456719304325,0.3916038409492124,0.3865384266458891,0.3809535290972209,0.37485508143628665,0.36824973383727133,0.3611448405286327,0.3535484451254587,0.3454692643488546,0.33691667019216776,0.3279006705814893,0.31843188860101007,0.3085215403699196,0.29818141163236983,0.2874238331048649,0.27626165465461316,0.26470821840685155,0.252777330857365,0.2404832340484336,0.22784057589466689,0.2148643797719818,0.20157001346619552,0.1879731575600616,0.17408977335719011,0.1599360704571955,0.14552847407376224,0.13088359216807588,0.11601818249028224,0.10094911964268045,0.08569336226451525,0.0702679204212426,0.05468982329099299,0.03897608724839037,0.02314368442541555,0.007209511811291385,-0.008809639035955157,-0.0248971115847324,-0.04103641316895221,-0.057211243024719666,-0.073405519466617,-0.08960340612829504,-0.10578933719499067,-0.1219480415671716,-0.1380645658996688,-0.15412429646857967,-0.1701129798365018,-0.18601674229978676,-0.2018221080980061,-0.21751601636077594,-0.23308583677439992,-0.24851938396019552,-0.2638049305572578,-0.2789312190036843,-0.2938874720200037,-0.3086634018070586,-0.32324921796952955,-0.3376356341744059,-0.3518138735593136,-0.36577567291197066,-0.37951328564285125,-0.39301948357543137,-0.40628755758729873,-0.4193113171415733,-0.43208508874375273,-0.4446037133515196,-0.45686254276300897,-0.46885743501164223,-0.4805847488000473,-0.492041337013463,-0.5032245393636631,-0.5141321742190758,-0.5247625296702495,-0.5351143538701827,-0.5451868446850648,-0.5549796386917852,-0.5644927995602763,-0.5737268058601753,-0.5826825383324291,-0.5913612666673514,-0.5997646358297691,-0.6078946519649854,-0.6157536679074668,-0.6233443683106062,-0.630669754426741,-0.6377331285750107,-0.6445380783287196,-0.6510884604496445,-0.657388384607681,-0.6634421969359262,-0.6692544634699195,-0.674829953515594,-0.6801736229925162,-0.685290597793577,-0.6901861571826515,-0.6948657172421839,-0.6993348143988953,-0.7035990890719237,-0.707664269481799,-0.711536155650724,-0.715220603632724,-0.7187235100158855,-0.7220507967225684,-0.725208396122371,-0.7282022364856685,-0.7310382278160962,-0.7337222480870033,-0.736260129895515,-0.7386576475593631,-0.7409205046888585,-0.7430543222482286,-0.7450646271072443,-0.7469568410996956,-0.7487362706200233,-0.750408096777444,-0.7519773661145388,-0.753448981907907,-0.7548276960769215,-0.7561181017114128,-0.7573246262161083,-0.758451525080979,-0.7595028762984052,-0.760482575438321,-0.7613943313812225,-0.7622416627141254,-0.7630278947957688,-0.7637561574789725,-0.7644293834652963,-0.7650503072803934,-0.7656214648753659,-0.766145193857463,-0.7666236343452713,-0.7670587304439902,-0.767452232335033,-0.7678056989618516,-0.768120501284796,-0.7683978260842426,-0.7686386803025038,-0.7688438959179922,-0.7690141353410849,-0.7691498973166083,-0.7692515233165117,-0.7693192044076184,-0.7693529885774436,-0.7693527884932918,-0.7693183896639038,-0.7692494589740198,-0.7691455535623939,-0.7690061300087988,-0.7688305537988763,-0.7686181090526415,-0.7683680085088359,-0.7680794037392537,-0.7677513955540721,-0.76738304457213,-0.7669733819387327,-0.7665214201538308,-0.7660261639550994,-0.7654866212093241,-0.7649018137752526,-0.7642707882889107,-0.7635926268154204,-0.7628664573304892,-0.762091464008264,-0.7612668972740232,-0.7603920835580246,-0.7594664346888585,-0.7584894568746444,-0.7574607592181389,-0.7563800617067281,-0.7552472026231344,-0.7540621453317499,-0.7528249843993685,-0.751535951007101,-0.750195417607541,-0.7488039017861458,-0.7473620692966694,-0.7458707362349124,-0.7443308702878151,-0.7427435909894131,-0.7411101689539462,-0.7394320240837885,-0.7377107227281584,-0.7359479737578333,-0.734145623564036,-0.7323056500160663,-0.7304301553731138,-0.7285213581243826,-0.7265815837878065,-0.7246132547375419,-0.7226188790844752,-0.7206010386039603,-0.718562375766689,-0.7165055799680105,-0.7144333729846892,-0.7123484936457871,-0.7102536817838633,-0.7081516615962381,-0.7060451244843645,-0.7039367113907672,-0.7018289947285486,-0.6997244600534044,-0.6976254875485995,-0.6955343333345126,-0.6934531107000595,-0.6913837714273038,-0.6893280873123059,-0.6872876319241724,-0.6852637627160152,-0.6832576036558908,-0.6812700284602426,-0.679301644444299,-0.6773527770829381,-0.6754234554481139,-0.6735133986222911,-0.6716220031221846,-0.6697483314272364,-0.6678911017582742,-0.6660486791779213,-0.6642190680185948,-0.6623999057008999,-0.660588458059118,-0.6587816162298831,-0.6569758950998882,-0.6551674333508295,-0.6533519951761138,-0.6515249736797823,-0.6496813959107355,-0.6478159295282759,-0.6459228911396109,-0.6439962563059056,-0.6420296711653173,-0.6400164656488615,-0.6379496682934033,-0.6358220226158374,-0.6336260049712511,-0.6313538438390948,-0.6289975405070675,-0.6265488910959117,-0.6239995098366719,-0.6213408535230653,-0.6185642470784993,-0.615660910160803,-0.6126219847054764,-0.609438563310265,-0.606101718369509,-0.6026025318536528,-0.5989321256144802,-0.5950816920988817,-0.5910425253629912,-0.5868060522795924,-0.5823638638261808,-0.5777077463374924,-0.5728297126127817,-0.5677220327829122,-0.5623772648462797,-0.5567882847675522,-0.5509483160255341,-0.5448509585126912,-0.5384902166991029,-0.5318605269571312,-0.5249567839345038,-0.5177743658874298,-0.5103091589022014,-0.5025575799154312,-0.49451659843581325,-0.48618375690628074,-0.4775571896695316,-0.4686356404720467,-0.4594184784217455,-0.4499057123487569,-0.4400980035464273,-0.42999667684252046,-0.41960372993329437,-0.4089218409558694,-0.39795437430681474,-0.3867053846819604,-0.37517961928623006,-0.36338251820167505,-0.3513202129357685,-0.33899952314197945,-0.32642795148354475,-0.3136136766576175,-0.30056554463365404,-0.2872930581261765,-0.2738063642990009,-0.26011624074920586,-0.2462340798582185,-0.2321718715551458,-0.2179421845003005,-0.20355814573758108,-0.18903341890160313,-0.17438218102822067,-0.15961909798136698,-0.1447592985429691,-0.1298183472470117,-0.11481221601249235,-0.09975725461013661,-0.08467016004039545,-0.06956794493471162,-0.054467905058924626,-0.03938758596365577,-0.024344748851791585,-0.009357335761380316,0.005556565860008007,0.020378759137059083,0.03509097423067478,0.049674905186536486,0.06411224708684007,0.07838473344453395,0.09247417376851191,0.10636249121150493,0.12003176021669357,0.13346424408131471,0.1466424323358155,0.15954907782247582,0.1721672333716717,0.18448028799583724,0.19647200252613448,0.20812654461174826,0.21942852299957613,0.23036302101078596,0.24091562912615413,0.2510724765890214,0.26082026193806734,0.270146282389838,0.2790384619982245,0.2874853785208758,0.29547628892009575,0.30300115342267714,0.310050658063662,0.31661623564266433,0.32269008502613433,0.32826518873410776,0.33333532875551214,0.3378951005419329,0.3419399251353202,0.3454660593889552,0.3484706042434183,0.35095151102464556,0.35290758574198794,0.35433849137643586,0.3552447481584245,0.35562773184131663,0.3554896699816666,0.3548336362384226,0.3536635427010287,0.3519841302596927,0.34980095704236003,0.347120384946492,0.343949564282776,0.34029641654669407,0.3361696153569535,0.3315785656178675,0.3265333809548074,0.321044859468079,0.3151244578740586,0.3087842641204841,0.3020369685503663,0.2948958336811569,0.2873746626879726,0.27948776668957487,0.2712499309055506,0.26267637973732627,0.25378274086352465,0.24458500847458325,0.23509950575514987,0.22534284670626853,0.2153318974266373,0.20508373699313812,0.1946156180541382,0.18394492722776148,0.17308914542375617,0.16206580822621405,0.15089246644152285,0.13958664689072794,0.1281658135553587,0.11664732921120788,0.10504841765574366,0.09338612660863452,0.08167729139072752,0.06993849951202788,0.05818605627604387,0.046435951482579035,0.034703827325089566,0.02300494758641792,0.01135416820102974,-0.0002340907761145057,-0.011745871733212716,-0.02316770451808342,-0.0344866298540467,-0.045690221127537844,-0.05676660450318807,-0.06770447730333137,-0.07849312460655525,-0.08912243404197326,-0.0995829087505665,-0.10986567847964737,-0.11996250879710083,-0.12986580843229348,-0.13956863474704104,-0.14906469733803138,-0.15834835979309156,-0.16741463964185874,-0.1762592065336462,-0.18487837866267973,-0.19326911746610495,-0.20142902063206788,-0.2093563134587668,-0.2170498386069368,-0.2245090442962143,-0.23173397100498636,-0.23872523673842772,-0.245484020936649,-0.2520120471078092,-0.25831156427903246,-0.2643853273530722,-0.27023657644969423,-0.27586901530797714,-0.28128678882812996,-0.2864944598350262,-0.2914969851505004,-0.2962996910672314,-0.3009082483193971,-0.30532864664065873,-0.30956716898962766,-0.3136303655119247,-0.3175250273046245,-0.3212581600570793,-0.3248369576546549,-0.3282687758396977,-0.33156110602364397,-0.3347215493357211,-0.3377577909790996,-0.3406775749499002,-0.3434886791679523,-0.34619889107477014,-0.3488159837639097,-0.35134769271148486,-0.35380169317126303,-0.3561855782939675,-0.35850683802563016,-0.36077283883508054,-0.3629908043159406,-0.3651677967045014,-0.3673106993535148,-0.36942620020275896,-0.37152077628438807,-0.37360067929161034,-0.37567192222994994,-0.3777402671667184,-0.3798112140913529,-0.38188999089128906,-0.383981544436807,-0.3860905327585721,-0.38822131829732676,-0.39037796220060494,-0.392564219613724,-0.3947835358619194,-0.39703904340339835,-0.3993335594836114,-0.40166958448748424,-0.40404930101360614,-0.40647457369263673,-0.40894694976867463,-0.4114676604607159,-0.4140376231172307,-0.41665744417074047,-0.4193274228925128,-0.42204755593926113,-0.4248175426744012,-0.4276367912403438,-0.43050442535807476,-0.4334192918318569,-0.4363799687358869,-0.43938477425659506,-0.44243177616091844,-0.4455188018578988,-0.44864344901833664,-0.45180309671495933,-0.45499491704463835,-0.458215887197442,-0.4614628019440101,-0.46473228651407283,-0.46802080982970984,-0.4713246980451766,-0.47464014833955726,-0.47796324290820036,-0.4812899631014864,-0.48461620366801306,-0.4879377870726658,-0.4912504778650675,-0.4945499970627987,-0.4978320364985729,-0.5010922730743808,-0.5043263828670796,-0.5075300550321691,-0.5106990054508569,-0.5138289900607105,-0.5169158178109812,-0.519955363193243,-0.5229435783025487,-0.5258765043765758,-0.528750282758685,-0.531561165246152,-0.534305523792223,-0.5369798595150985,-0.5395808109610545,-0.5421051615931537,-0.5445498464904971,-0.5469119582189087,-0.5491887518224109,-0.5513776489184427,-0.5534762408956425,-0.5554822911706384,-0.5573937364391807,-0.5592086869117816,-0.5609254255644309,-0.5625424063937534,-0.5640582516387682,-0.5654717479905577,-0.5667818418514275,-0.5679876336479214,-0.5690883711647735,-0.5700834419376435,-0.570972364792911,-0.5717547805554306,V
