0,-0.027303866595129997,-0.0264631907593819,-0.02561846133538113,-0.024766921239299838,-0.023905647438730537,-0.023031559028592163,-0.022141426201984907,-0.021231880097523928,-0.020299423496503557,-0.019340442333348112,-0.01835121798025316,-0.017327940273217046,-0.01626672124533128,-0.015163609516238304,-0.014014605276425264,-0.012815675815429063,-0.011562771547457322,-0.010251842468221148,-0.008878854963875188,-0.007439808908959346,-0.0059307550002880936,-0.004347812251481928,-0.0026871855547161414,-0.0009451832316812794,0.0008817654908900508,0.002797093163713509,0.0048040770508942085,0.006905822393336415,0.00910524605646632,0.011405060637644404,0.013807759125231085,0.01631560018343351,0.018930594119213946,0.02165448959966055,0.024488761196592802,0.027434597811807328,0.03049289201666775,0.033664230353440516,0.03694888465958163,0.04034680446001754,0.04385761045456521,0.047480589134049976,0.05121468856299732,0.0550585153462173,0.059010332778620965,0.06306806018551818,0.0672292734684427,0.07149120685608194,0.07585075584421268,0.08030448131320125,0.08484861481415021,0.0894790649965069,0.09419142513495235,0.09898098172128711,0.10384272409388218,0.10877135506282787,0.11376130247593608,0.1188067316786389,0.12390155882717549,0.12903946500048727,0.1342139110445373,0.13941815309209277,0.14464525870874917,0.1498881236033492,0.15513948883054368,0.16039195842381668,0.16563801740623882,0.17087005011474207,0.1760803587644074,0.1812611821910534,0.1864047147211744,0.1915031251090932,0.19654857547319096,0.20153324017431548,0.20644932458915352,0.21128908372203722,0.21604484059131088,0.2207090043387615,0.2252740880226728,0.22973272604910588,0.2340776911900887,0.2383019111475291,0.242398484630493,0.24636069690623577,0.25018203477978745,0.25385620096769296,0.2573771278409344,0.26073899050534627,0.26393621918271365,0.26696351086729425,0.2698158402439083,0.2724884698499918,0.2749769594599229,0.27727717467919377,0.2793852947454203,0.28129781953043653,0.28301157573439717,0.28452372226956607,0.28583175483739237,0.2869335096981627,0.2878271666292525,0.28851125107531767,0.2889846355008346,0.28924653995268385,0.2892965318378105,0.28913452492739283,0.2887607776058649,0.2881758903822708,0.287380802679519,0.2863767889204566,0.285165453931285,0.28374872767754444,0.28212885934508447,0.2803084107853505,0.27829024935228863,0.2760775401587835,0.2736737377790851,0.27108257742593134,0.2683080656323178,0.26535447046418836,0.26222631128801654,0.25892834812102433,0.25546557059498115,0.2518431865617648,0.24806661036660654,0.24414145081870836,0.24007349889272872,0.23586871519299618,0.23153321721021541,0.22707326640288508,0.22249525513895665,0.21780569353316107,0.21301119621382716,0.20811846905236903,0.20313429588724002,0.19806552527081384,0.19291905726542685,0.1877018303162404,0.18242080823165127,0.177082967303645,0.17169528359958383,0.1662647204542123,0.1607982161888422,0.15530267208495246,0.14978494063872522,0.14425181411963137,0.13871001345445075,0.13316617746049617,0.12762685245214164,0.1220984822389524,0.1165873985286309,0.11109981174897901,0.10564180230366663,0.10021931227175476,0.09483813755804713,0.08950392050554831,0.08422214298319838,0.07899811995486963,0.07383699352943121,0.06874372749454447,0.0637231023390499,0.058779710762121684,0.0539179536609965,0.049142036591188154,0.044455966695446325,0.039863550092951526,0.0353683897162213,0.030973883586633496,0.02668322352227603,0.022499394267132634,0.018425173026001905,0.014463129391843849,0.010615625654844788,0.006884817478869297,0.003272654925951743,-0.00021911619120105612,-0.003588952647136134,-0.006835511850036465,-0.009957649614811041,-0.012954417680538347,-0.015825060988612288,-0.018569014736760252,-0.02118590122370983,-0.023675526499542195,-0.026037876836213426,-0.02827311503115264,-0.03038157655749255,-0.032363765578318,-0.03422035084331613,-0.03595216148077072,-0.03756018269253642,-0.03904555135992389,-0.04040955156931498,-0.041653610063464325,-0.042779291623409044,-0.04378829439046941,-0.04468244514019917,-0.045463694514911335,-0.04613411221702621,-0.046695882168652364,-0.04715129764543388,-0.04750275638789299,-0.04775275568884886,-0.047903887457813835,-0.04795883326594115,-0.04792035937227344,-0.04779131173044083,-0.04757461097981736,-0.047273247428537064,-0.04689027603112558,-0.046428811357657196,-0.04589202255136249,-0.04528312827380193,-0.0446053916366318,-0.04386211511971744,-0.043056635479457206,-0.0421923186539781,-0.04127255466980805,-0.04030075255228965,-0.039280335243519614,-0.038214734533599325,-0.03710738600996847,-0.03596172402811954,-0.034781176707860996,-0.033569160960751056,-0.032329077554379235,-0.031064306219246288,-0.02977820080543185,-0.02847408449743409,-0.027155245095182714,-0.02582493036888522,-0.024486343496412984,-0.023142638592759526,N,,,,,,,,,,,,,,,,,,,,,,,,,,,,,,,,,,,,,,,,,,,,,,,,,,,,,,,,,,,,,,,,,,,,,,,,,,,,,,,,,,,,,,,,,,,,,,,,,,,,,,,,,,,,,,,,,,,,,,,,,,,,,,,,,,,,,,,,,,,,,,,,,,,,,,,,,,,,,,,,,,,,,,,,,,,,,,,,,,,,,,,,,,,,,,,,,,,,,,,,,,,,,,,,,,,,,,,,,,,,,,,,,,,,,,,,,,,,,,,,,,,,,,,,,,,,,,,,,,,,,,,,,,,,,,,,,,,,,,,,,,,,,,,,,,,,,,,,,,,,,,,,,,,,,,,,,,,,,,,,,,,,,,,,,,,,,,,,,,,,,,,,,,,,,,,,,,,,,,,,,,,,,,,,,,,,,,,,,,,,,,,,,,,,,,,,,,,,,,,,,,,,,,,,,,,,,,,,,,,,,,,,,,,,,,,,,,,,,,,,,,,,,,,,,,,,,,,,,,,,,,,,,,,,,,,,,,,,,,,,,,,,,,,,,,,,,,,,,,,,,,,,,,,,,,,,,,,,,,,,,,,,,,,,,,,,,,,,,,,,,,,,,,,,,,,,,,,,,,,,,,,,,,,,,,,,,,,,,,,,,,,,,,,,,,,,,,,,,,,,,,,,,,,,,,,,,,,,,,,,,,,,,,,,,,,,,,,,,,,,,,,,,,,,,,,,,,,,,,,,,,,,,,,,,,,,,,,,,,,,,,,,,,,,,,,,,,,,,,,,,,,,,,,,,,,,,,,,,,,,,,,,,,,,,,,,,,,,,,,,,,,,,,,,,,,,,,,,,,,,,,,,,,,
1,1.1436610122465876,1.1446807663859806,1.1450006006007465,1.1446220207038227,1.143547410143837,1.1417800161804328,1.1393239350193725,1.1361840959976182,1.1323662448892116,1.127876926382099,1.1227234657828635,1.1169139500150642,1.1104572079627042,1.1033627901949252,1.0956409481117397,1.0873026125529313,1.0783593718957833,1.0688234496543947,1.0587076816027343,1.0480254924543022,1.0367908721239765,1.025018351589023,1.0127229783732468,0.9999202916883523,0.9866262972655433,0.9728574419055216,0.9586305877745237,0.9439629864696829,0.9288722528641308,0.9133763387360335,0.8974935061943161,0.8812423009159738,0.8646415251931168,0.8477102107800616,0.8304675915491327,0.812933075972924,0.7951262194276686,0.7770666963007703,0.7587742719158599,0.7402687743118705,0.7215700658915387,0.7026980149405104,0.6836724670503838,0.6645132165027245,0.6452399776441067,0.6258723562635584,0.6064298210174923,0.5869316749659077,0.5673970272395212,0.5478447648307723,0.5282935245517554,0.508761665243972,0.4892672402900646,0.46982797044879904,0.4504612170792827,0.43118395585457264,0.41201275102064144,0.3929637302223567,0.37405255996323966,0.35529442179600973,0.3367039892838493,0.31829540573141585,0.30008226273997596,0.2820775796838668,0.2642937841492292,0.24674269333146293,0.22943549644496608,0.21238273824485265,0.19559430370319308,0.17907940383480947,0.1628465627238993,0.14690360585202833,0.1312576497759259,0.11591509315577696,0.10088160918261407,0.08616213949549295,0.07176088962767013,0.05768132597363856,0.04392617431016401,0.030497419940975178,0.01739630948545611,0.00462335428612446,-0.007821664553645217,-0.019939689454752163,-0.03173237796408414,-0.04320209270764239,-0.05435188970263577,-0.06518550500911163,-0.07570733973765142,-0.08592244346605549,-0.09583649609615556,-0.10545578815454414,-0.11478719956091919,-0.12383817691557363,-0.13261670935132147,-0.1411313029847246,-0.14939095401887786,-0.15740512057135486,-0.16518369330001903,-0.17273696489237444,-0.18007559849104815,-0.18721059514099447,-0.19415326035068847,-0.20091516986256142,-0.20750813473318563,-0.21394416583074072,-0.22023543786293048,-0.2263942530501603,-0.23243300455701837,-0.2383641397958815,-0.24420012372097574,-0.24995340222753146,-0.25563636575473747,-0.26126131318419954,-0.2668404161399587,-0.27238568380729933,-0.2779089283769156,-0.2834217312112024,-0.288935409836997,-0.29446098586484687,-0.3000091539018391,-0.30559025150636826,-0.3112142302568614,-0.3168906280225749,-0.32262854249619516,-0.3284366060262513,-0.33432296181186927,-0.3402952415384122,-0.3463605444978588,-0.35252541821144345,-0.3587958405997324,-0.36517720376391954,-0.37167429940277547,-0.37829130585951093,-0.38503177682430345,-0.39189863174075956,-0.39889414792240085,-0.40601995435209837,-0.4132770271715584,-0.4206656868921183,-0.4281855973112509,-0.4358357660829412,-0.4436145469305539,-0.4515196435270683,-0.4595481150306986,-0.46769638322901796,-0.4759602412765477,-0.48433486403569626,-0.4928148199874126,-0.5013940846417236,-0.5100660554120099,-0.5188235679448839,-0.5276589138567657,-0.5365638597931196,-0.545529667760703,-0.5545471167173203,-0.5636065253747319,-0.5726977761396209,-0.5818103401418235,-0.5909333033247495,-0.6000553935493436,-0.6091650086365976,-0.6182502452863181,-0.6272989288139024,-0.6362986436057811,-0.6452367641662691,-0.6541004866584484,-0.662876860870191,-0.6715528225132711,-0.6801152257411195,-0.6885508757943859,-0.6968465617000608,-0.7049890889171329,-0.7129653117985726,-0.720762165770644,-0.7283666991511315,-0.7357661044894948,-0.742947749287103,-0.749899205999567,-0.7566082812573172,-0.7630630442039197,-0.7692518538257496,-0.7751633851967082,-0.7807866546043648,-0.7861110434908468,-0.7911263211153517,-0.7958226659170211,-0.8001906857105252,-0.8042214369968457,-0.8079064436988037,-0.8112377154816688,-0.8142077655899542,-0.8168096279569697,-0.8190368733040736,-0.820883624028957,-0.8223445677498968,-0.8234149693407911,-0.8240906812720759,-0.8243681521571256,-0.8242444334830752,-0.8237171844842235,-0.822784675093726,-0.8214457869738475,-0.8197000126866149,-0.8175474530436982,-0.8149888126490271,-0.8120253936949051,-0.8086590881173896,-0.8048923681914657,-0.8007282756200944,-0.7961704092065678,-0.7912229112348896,-0.7858904526606958,-0.7801782171901772,-0.7740918843491547,-0.7676376116745618,-0.7608220161500294,-0.7536521549873272,-0.7461355058620937,-0.7382799467257087,-0.7300937353095581,-0.7215854884232823,-0.7127641611416271,-0.7036390259744709,-0.6942196521134991,-0.6845158848401831,-0.674537825164402,-0.6642958097555159,-0.6538003912334752,-0.6430623188853012,-0.632092519848795,-0.6209020807844519,-0.6095022300570994,-0.5979043204494954,-0.586119812414718,-0.5741602578686005,-0.5620372845437067,-0.5497625809352653,-0.5373478818409116,-0.5248049544680542,-0.5121455850880003,-0.49938156622461066,-0.4865246843501219,-0.47358670805253206,-0.46057937666090815,-0.4475143893292793,-0.4344033945561907,-0.42125798009018145,-0.4080896631748654,-0.3949098810982521,-0.38172998200587455,-0.36856121593777885,-0.35541472607216246,-0.3423015401736373,-0.3292325622308028,-0.31621856425980416,-0.30327017827278896,-0.29039788842611186,-0.27761202334381396,-0.26492274859332876,-0.25234005930383474,-0.2398737729318885,-0.22753352216636363,-0.21532874795655815,-0.20326869266871767,-0.19136239339208777,-0.17961867539872006,-0.16804614574867854,-0.15665318705326342,-0.14544795142493888,-0.1344383546227524,-0.12363207038482309,-0.11303652495724363,-0.1026588918441929,-0.0925060867865547,-0.08258476296517103,-0.07290130645025389,-0.06346183193598831,-0.05427217877296976,-0.045337907282267345,-0.03666429534233538,-0.028256335253134382,-0.020118730872441155,-0.012255895021129247,-0.00467194718962658,0.002629288402722027,0.009644284375426089,0.016369811394653367,0.022802939023940465,0.028941036206275885,0.034781771383721,0.04032311227476433,0.04556332530924308,0.0505009747044967,0.05513492118765735,0.05946432039344625,0.06348862096113252,0.06720756234252202,0.07062117234188645,0.07372976442278259,0.07653393481572987,0.07903455945264429,0.08123279075190849,0.08313005428132204,0.08472804532853413,0.08602872540461239,0.08703431869758659,0.0877473084919033,0.08817043358081793,0.08830668470067919,0.08815930099645065,0.08773176651121224,0.08702780669748451,0.08605138495234428,0.08480669916261102,0.08329817823340824,0.08153047858184714,0.07950848058478205,0.0772372849567168,0.07472220902354301,0.07196878286857908,0.0689827453367067,0.06577003987144897,0.06233681015115672,0.05868939550279312,0.05483432608249322,0.050778317800795364,0.04652826695547119,0.04209124453605734,0.037474490172054786,0.03268540569708395,0.027731548295542002,0.022620623194422873,0.017360475867494937,0.011959083731564145,0.006424547323098614,0.0007650809418673778,-0.005010997249597758,-0.01089527566747332,-0.01687926027725138,-0.022954386090314007,-0.029112029185770598,-0.03534351923654026,-0.04164015250000026,-0.047993205236819145,-0.054393947525516614,-0.06083365742556884,-0.06730363542761786,-0.07379521913330389,-0.08029979811278998,-0.08680882887727402,-0.09331384988504769,-0.09980649648817401,-0.10627851572840301,-0.112721780902533,-0.11912830582794949,-0.12549025874184677,-0.1317999757707446,-0.1380499739163969,-0.1442329635100888,-0.15034186008343003,-0.15636979560401615,-0.1623101290365484,-0.16815645619410202,-0.1739026188293814,-0.17954271291118495,-0.1850710960561347,-0.19048239410782286,-0.19577150684934086,-0.20093361282992905,-0.20596417330940647,-0.21085893535295758,-0.21561393411796387,-0.2202254943724668,-0.22469023128663718,-0.2290050505425924,-0.23316714780818598,-0.2371740076175936,-0.2410234016995583,-0.2447133867976379,-0.2482423020347342,-0.25160876587484365,-0.25481167272463545,-0.2578501892158762,-0.2607237502262305,-0.26343205470152564,-0.2659750613218103,-0.2683529840478764,-0.27056628761757445,-0.2726156830751662,-0.27450212337406976,-0.276226799056953,-0.27779113403672795,-0.27919678151778216,-0.28044562006142043,-0.28153974977929325,-0.2824814886813775,-0.28327336923056284,-0.28391813510465713,-0.28441873812372886,-0.28477833533442265,-0.28500028627080076,-0.28508815036253926,-0.28504568441151584,-0.2848768400769632,-0.28458576133551644,-0.2841767818584694,-0.28365442223549586,-0.2830233870204749,-0.2822885616079508,-0.2814550089098993,-0.2805279657612283,-0.2795128390021504,-0.27841520121241503,-0.27724078605289326,-0.27599548314868094,-0.27468533246873117,-0.2733165181815681,-0.27189536195755,-0.2704283156788621,-0.26892195354028275,-0.2673829635455301,-0.2658181383961209,-0.2642343657577575,-0.2626386178999185,-0.2610379407200971,-0.2594394421631314,-0.2578502800350493,-0.2562776492052279,-0.25472876819777035,-0.25321086519162517,-0.25173116346913305,-0.25029686636569304,-0.24891514178009075,-0.24759310630815687,-0.2463378090588275,-0.2451562152025166,-0.24405518930022072,-0.24304147847343327,-0.24212169548108864,-0.24130230175900824,-0.24058959047160078,-0.23998966963981347,-0.2395084454181072,-0.23915160557832724,-0.23892460324829265,-0.2388326409685091,-0.23888065513944845,-0.23907330091089096,-0.23941493755033005,-0.23990961434623495,-0.2405610571136028,-0.24137265534356048,-0.24234745002030936,-0.24348812215199425,-0.24479698208146264,-0.2462759596207709,-0.24792659503349193,-0.24975003090728087,-0.2517470049695838,-0.2539178438664178,-0.2562624579002215,-0.25878033674830186,-0.2614705462039579,-0.2643317259537585,-0.26736208838001424,-0.27055941840252234,-0.2739210743978164,-0.27744399021248783,-0.2811246782641967,-0.2849592337396889,-0.2889433399106729,-0.2930722745597176,-0.2973409174844812,-0.3017437590664758,-0.30627490990483014,-0.3109281114886036,-0.31569674785834617,-0.32057385822649787,-0.3255521505421757,-0.330624015961245,-0.33578154416105743,-0.34101653945905946,-0.3463205377160668,-0.35168482399118056,-0.3571004508979672,-0.36255825762143373,-0.3680488895639105,-0.37356281856958967,-0.3790903636613306,-0.38462171223402797,-0.3901469416569793,-0.395656041219255,-0.4011389343375519,-0.40658550096037394,-0.4119856001152159,-0.4173290925310963,-0.4226058632564914,-0.4278058442078869,-0.4329190365998161,-0.4379355331987478,-0.44284554033370416,-0.4476393996073537,-0.4523076092607134,-0.4568408451337091,-0.4612299811552553,-0.46546610930963217,-0.4695405590400399,-0.473444916046013,-0.47717104042559333,-0.48071108412192154,-0.484057507642327,-0.4872030960125098,-0.4901409739236555,-0.4928646200383147,-0.4953678804253439,-0.49764498108354555,-0.49969053950819414,-0.5014995752697425,-0.5030675195892617,-0.5043902238927799,-0.505463967323229,-0.5062854631973011,-0.5068518643934339,-0.5071607676345291,-0.5072102166200101,-0.506998703989733,-0.5065251721297033,-0.5057890128250904,-0.5047900657594999,-0.5035286158773878,-0.5020053896384685,-0.5002215501754587,-0.4981786913558873,-0.49587883077091865,-0.4933244016862851,-0.4905182439629222,-0.48746359393950434,-0.48416407330226896,-0.48062367699021147,-0.4768467601527133,-0.4728380241569421,-0.4686025016819302,-0.4641455409621098,-0.4594727892016872,-0.45459017515491085,-0.44950389091667514,-0.44422037300120115,-0.4387462827355613,-0.4330884859611533,-0.427254032097162,-0.4212501326675568,-0.4150841393421529,-0.4087635215034397,-0.4022958434126035,-0.39568874109529617,-0.38894989900853905,-0.38208702650495374,-0.3751078341755441,-0.3680200102038998,-0.36083119680285974,-0.35354896675490793,-0.3461808001415856,-0.33873406139571016,-0.3312159767394336,-0.3236336120159171,-0.3159938509933382,-0.3083033742855925,-0.3005686389805329,-0.2927958590134707,-0.28499098637565673,-0.27715969328805506,-0.269307355402335,-0.2614390360344287,-0.2535594714932452,-0.24567305762438155,-0.23778383764345293,-0.22989549128366352,-0.2220113253158914,-0.21413426552201031,-0.20626685013503143,-0.19841122470692352,-0.19056913841160786,-0.18274194183525008,-0.17493058626021066,-0.16713562440315702,-0.15935721260341854,-0.15159511449171617,-0.14384870612717351,-0.1361169825490555,-0.12839856571645267,-0.12069171382793906,-0.11299433196149974,-0.10530398393442483,-0.09761790532236068,-0.08993301762217436,-0.08224594352399132,-0.07455302322819345,-0.06685033175843685,-0.059133697233994635,-0.051398720030963845,-0.04364079273367493,-0.03585512079918618,-0.028036743881119406,-0.020180557740346914,-0.012281336649051318,-0.004333756209737777,0.0036675834724584876,0.011728134340346849,0.019853376750237448,0.028048795733296387,0.036319857221048815,0.044671984314427496,0.05311053368720882,0.06164077220135478,0.07026785378460428,0.0789967966012843,0.08783246054687983,0.09677952511271531,0.10584246768008654,0.11502554230139717,0.1243327590239437,0.13376786382044853,0.1433343191900776,0.15303528547375472,0.16287360291735836,0.17285177453261039,0.18297194980888012,0.19323590929607684,0.20364505006054992,0.21420037204794065,0.22490246541372264,0.2357514988594898,0.24674720899281846,0.2578888907528846,0.2691753889573238,0.28060509098636816,0.29217592059300274,0.3038853328625047,0.3157303103747929,0.3277073605932768,0.3398125144762428,0.3520413263352326,0.3643888749915604,0.37684976625546257,0.3894181367250135,0.40208765891917003,0.4148515477664519,0.4277025684260583,0.44063304538651443,0.45363487281895803,0.4666995261942359,0.4798180751490628,0.49298119755965913,0.5061791948001001,0.5194020081767948,0.5326392364972895,0.545880154704086,0.5591137335268388,0.5723286601280453,0.5855133596933362,0.5986560178936466,0.6117446041645261,0.6247668957658122,0.6377105025646744,0.650562892464502,0.6633114174146267,0.6759433399433951,0.6884458601292579,0.7008061429042708,0.7130113456057972,0.7250486457122856,0.736905268681169,0.7485685157903816,0.7600257919046377,0.7712646331076983,0.782272734129542,0.7930379754840483,0.8035484502449799,0.8137924903898115,0.8237586926083871,0.8334359434561376,0.8428134437656724,0.8518807322659395,0.8606277083508497,0.869044653927738,0.8771222542954249,0.8848516180123112,0.8922242956871573,0.8992322976092082,0.9058681101670358,0.9121247110329436,0.9179955830692017,0.9234747268969019,0.9285566721000608,0.9332364870594979,0.937509787379707,0.9413727428523785,0.9448220829429407,0.9478551008255715,0.9504696559721529,0.9526641752819546,0.9544376527744968,0.9557896479015368,0.9567202825152258,0.9572302365106401,0.9573207421856677,0.9569935773718744,0.9562510573453923,0.9550960255006692,0.9535318428171364,0.9515623761953456,0.9491919857207294,0.9464255108910993,0.943268255872874,0.9397259738688855,0.9358048506389125,0.9315114871857644,0.9268528816613057,0.9218364105841566,0.9164698094317731,0.9107611526426449,0.9047188330985169,0.8983515411853743,0.891668243498995,0.8846781612325249,0.8773907483169128,0.869815669418488,0.8619627778753955,0.8538420936290685,0.8454637812269383,0.8368381279878663,0.8279755223895156,0.8188864327101877,0.8095813859800992,0.8000709473151965,0.7903656996761518,0.7804762240694038,0.770413080232101,0.7601867878705426,0.7498078085065862,0.7392865279656857,0.7286332395508093,0.7178581279565996,0.7069712539578745,0.6959825398870096,0.6849017559249779,0.6737385072454993,0.6625022220441548,0.6512021404704351,0.6398473044781747,0.6284465486037174,0.6170084916599747,0.6055415293200572,0.5940538275749209,0.5825533170704041,0.571047688339125,0.5595443879381953,0.5480506154901273,0.5365733216097933,0.5251192066906257,0.5136947205177519,0.5023060626741467,0.4909591837139779,0.4796597870933414,0.46841333185200446,0.4572250360208117,0.4460998807134174,0.4350426148666922,0.42405776059883254,0.4131496191407303,0.4023222772918376,0.39157961437406846,0.38092530966892274,0.37036285029872584,0.3598955394947655,0.349526505214912,0.33925870908783107,0.3290949556359644,0.319037901709671,0.3090900660862846,0.299253839205252,0.28953149298852776,0.2799251906836364,0.27043699670166466,0.2610688864454853,0.2518227560900411,0.2427004322456333,0.23370368145701115,0.22483421951317728,0.21609372051749062,0.20748382564117504,0.19900615149968523,0.19066229811202082,0.1824538563906584,0.17438241509767308,0.16644956722215923,0.15865691575395727,0.15100607882071942,0.14349869414888822,0.1361364228298208,0.1289209523908707,0.12185399916076657,0.11493730990178054,0.10817266268368388,0.10156186698632953,0.09510676302448054,0.08880922029759855,0.08267113538498119,0.07669442901901044,0.07088104246774946,0.06523293326045748,0.05975207030726831,0.05444042847548569,0.049299982675016334,0.04433270150040216,0.0395405404949026,0.034925435113216795,0.030489293441995493,0.026233988724391057,0.022161351751640964,0.018273163196017194,0.01457114593902624,0.011056957435960843,0.007732182181423214,0.004598324354498806,0.001656800694517647,-0.0010910663572769295,-0.0036440551809280713,-0.006001051077578072,-0.00816105190225232,-0.01012317322994714,-0.01188665304266975,-0.013450855908791682,-0.014815276653248846,-0.015979543533185883,-0.0169434208969325,-0.017706811281020876,-0.018269756941874434,-0.018632440860793572,-0.01879518724544289,-0.018758461531405504,-0.018522869914255103,-0.018089158470203235,-0.017458211907836283,-0.016631051974716083,-0.015608835559714608,-0.014392852552519817,-0.012984523512374611,-0.011385397182884003,-0.009597147894867342,-0.007621572906994286,-0.005460589724784381,-0.0031162334262501853,-0.000590654023611522,0.0021138861009263135,0.00499501464359245,0.008050251675701413,0.01127701176620037,0.01467260592235381,0.01823424335054802,0.021959033044775936,0.025843985213747284,0.029886012557720804,0.034081931403612875,0.038428462707601224,0.04292223294181935,0.047559774890514994,0.052337528385425214,0.05725184101075309,0.062298968809841364,0.06747507703546363,0.07277624100204061,0.07819844710204216,0.08373759403065939,0.08938949424424308,0.09514987567691108,0.10101438374098998,0.10697858362997978,0.11303796295265597,0.11918793476289422,0.12542384106216595,0.131740956811474,0.1381344944543826,0.14459960896705068,0.15113140346293483,0.15772493534649765,0.16437522298608906,0.17107725290328288,0.17782598749386566,0.18461637325708938,0.19144334947673627,0.19830185732101094,0.20518684934833867,0.2120932993714861,0.21901621259964418,0.22595063599751206,0.23289166882100606,0.2398344732643245,0.24677428512818822,0.25370642443653835,0.26062630594898484,0.2675294495004593,0.27441149008037924,0.28126818757457206,0.2880954361101319,0.2948892729386946,0.30164588678124493,0.30836162555800983,0.3150330034381593,0.3216567071560781,0.3282296015487194,0.3347487342726734,0.3412113396674439,0.34761484174420204,0.3539568562812743,0.3602351919938929,0.36644785074491165,0.3725930267910924,0.3786691050808648,0.3846746586092613,0.39060844483063484,0.3964694011574423,0.4022566395940676,0.4079694405380964,0.4136072457707029,0.41916965068572215,0.42465639582686127,0.4300673577788459,0.43540253944207624,0.4406620597494798,0.44584614290086544,0.4509551071527188,0.45598935317787215,0.4609493520507919,0.4658356329497608,0.47064877063918553,0.47538937277020743,0.48005806707275506,0.48465548854335655,0.4891822667050421,0.4936390129889077,0.49802630831278627,0.502344690949736,0.5065946447387608,0.5107765876594055,0.5148908608230782,0.5189377179564716,0.522917315410506,0.5268297026955129,0.5306748135790286,0.5344524578115842,0.5381623135066179,0.5418039201674022,0.5453766723890623,0.5488798142950522,0.5523124347327353,0.5556734632204088,0.558961666666466,0.562175646901541,0.5653138390206162,0.5683745104978558,0.5713557610714762,0.5742555234242205,0.5770715646453294,0.5798014884265498,0.5824427379785514,0.5849925996785118,0.5874482074135229,0.589806547549461,0.5920644644962003,0.5942186668742222,0.5962657342464261,0.5982021243446165,0.6000241807611288,0.6017281411100528,0.60331014562115,0.6047662460951819,0.6060924151911964,0.6072845560544375,0.6083385122589617,0.6092500780067787,0.6100150085602951,0.610629030913777,0.611087854670781,0.6113871830622839,0.6115227240768937,0.6114902017077093,0.611285367287939,0.6109040108576658,0.6103419725377418,0.6095951539214685,0.6086595294729088,0.6075311578955421,0.6062061934565005,0.6046808972720711,0.6029516485360743,0.6010149556498826,0.5988674672313152,0.5965059829949886,N
2,-0.674537825164402,-0.6642958097555159,-0.6538003912334752,-0.6430623188853012,-0.632092519848795,-0.6209020807844519,-0.6095022300570994,-0.5979043204494954,-0.586119812414718,-0.5741602578686005,-0.5620372845437067,-0.5497625809352653,-0.5373478818409116,-0.5248049544680542,-0.5121455850880003,-0.49938156622461066,-0.4865246843501219,-0.47358670805253206,-0.46057937666090815,-0.4475143893292793,-0.4344033945561907,-0.42125798009018145,-0.4080896631748654,-0.3949098810982521,-0.38172998200587455,-0.36856121593777885,-0.35541472607216246,-0.3423015401736373,-0.3292325622308028,-0.31621856425980416,-0.30327017827278896,-0.29039788842611186,-0.27761202334381396,-0.26492274859332876,-0.25234005930383474,-0.2398737729318885,-0.22753352216636363,-0.21532874795655815,-0.20326869266871767,-0.19136239339208777,-0.17961867539872006,-0.16804614574867854,-0.15665318705326342,-0.14544795142493888,-0.1344383546227524,-0.12363207038482309,-0.11303652495724363,-0.1026588918441929,-0.0925060867865547,-0.08258476296517103,-0.07290130645025389,-0.06346183193598831,-0.05427217877296976,-0.045337907282267345,-0.03666429534233538,-0.028256335253134382,-0.020118730872441155,-0.012255895021129247,-0.00467194718962658,0.002629288402722027,0.009644284375426089,0.016369811394653367,0.022802939023940465,0.028941036206275885,0.034781771383721,0.04032311227476433,0.04556332530924308,0.0505009747044967,0.05513492118765735,0.05946432039344625,0.06348862096113252,0.06720756234252202,0.07062117234188645,0.07372976442278259,0.07653393481572987,0.07903455945264429,0.08123279075190849,0.08313005428132204,0.08472804532853413,0.08602872540461239,0.08703431869758659,0.0877473084919033,0.08817043358081793,0.08830668470067919,0.08815930099645065,0.08773176651121224,0.08702780669748451,0.08605138495234428,0.08480669916261102,0.08329817823340824,0.08153047858184714,0.07950848058478205,0.0772372849567168,0.07472220902354301,0.07196878286857908,0.0689827453367067,0.06577003987144897,0.06233681015115672,0.05868939550279312,0.05483432608249322,0.050778317800795364,0.04652826695547119,0.04209124453605734,0.037474490172054786,0.03268540569708395,0.027731548295542002,0.022620623194422873,0.017360475867494937,0.011959083731564145,0.006424547323098614,0.0007650809418673778,-0.005010997249597758,-0.01089527566747332,-0.01687926027725138,-0.022954386090314007,-0.029112029185770598,-0.03534351923654026,-0.04164015250000026,-0.047993205236819145,-0.054393947525516614,-0.06083365742556884,-0.06730363542761786,-0.07379521913330389,-0.08029979811278998,-0.08680882887727402,-0.09331384988504769,-0.09980649648817401,-0.10627851572840301,-0.112721780902533,-0.11912830582794949,-0.12549025874184677,-0.1317999757707446,-0.1380499739163969,-0.1442329635100888,-0.15034186008343003,-0.15636979560401615,-0.1623101290365484,-0.16815645619410202,-0.1739026188293814,-0.17954271291118495,-0.1850710960561347,-0.19048239410782286,-0.19577150684934086,-0.20093361282992905,-0.20596417330940647,-0.21085893535295758,-0.21561393411796387,-0.2202254943724668,-0.22469023128663718,-0.2290050505425924,-0.23316714780818598,-0.2371740076175936,-0.2410234016995583,-0.2447133867976379,-0.2482423020347342,-0.25160876587484365,-0.25481167272463545,-0.2578501892158762,-0.2607237502262305,-0.26343205470152564,-0.2659750613218103,-0.2683529840478764,-0.27056628761757445,-0.2726156830751662,-0.27450212337406976,-0.276226799056953,-0.27779113403672795,-0.27919678151778216,-0.28044562006142043,-0.28153974977929325,-0.2824814886813775,-0.28327336923056284,-0.28391813510465713,-0.28441873812372886,-0.28477833533442265,-0.28500028627080076,-0.28508815036253926,-0.28504568441151584,-0.2848768400769632,-0.28458576133551644,-0.2841767818584694,-0.28365442223549586,-0.2830233870204749,-0.2822885616079508,-0.2814550089098993,-0.2805279657612283,-0.2795128390021504,-0.27841520121241503,-0.27724078605289326,-0.27599548314868094,-0.27468533246873117,-0.2733165181815681,-0.27189536195755,-0.2704283156788621,-0.26892195354028275,-0.2673829635455301,-0.2658181383961209,-0.2642343657577575,-0.2626386178999185,-0.2610379407200971,-0.2594394421631314,-0.2578502800350493,-0.2562776492052279,-0.25472876819777035,-0.25321086519162517,-0.25173116346913305,-0.25029686636569304,-0.24891514178009075,-0.24759310630815687,-0.2463378090588275,-0.2451562152025166,-0.24405518930022072,-0.24304147847343327,-0.24212169548108864,-0.24130230175900824,-0.24058959047160078,-0.23998966963981347,-0.2395084454181072,-0.23915160557832724,-0.23892460324829265,-0.2388326409685091,-0.23888065513944845,-0.23907330091089096,-0.23941493755033005,-0.23990961434623495,-0.2405610571136028,-0.24137265534356048,-0.24234745002030936,-0.24348812215199425,-0.24479698208146264,-0.2462759596207709,-0.24792659503349193,-0.24975003090728087,-0.2517470049695838,-0.2539178438664178,-0.2562624579002215,-0.25878033674830186,-0.2614705462039579,-0.2643317259537585,-0.26736208838001424,-0.27055941840252234,-0.2739210743978164,-0.27744399021248783,-0.2811246782641967,-0.2849592337396889,-0.2889433399106729,-0.2930722745597176,-0.2973409174844812,-0.3017437590664758,-0.30627490990483014,-0.3109281114886036,-0.31569674785834617,-0.32057385822649787,-0.3255521505421757,-0.330624015961245,-0.33578154416105743,-0.34101653945905946,-0.3463205377160668,-0.35168482399118056,-0.3571004508979672,-0.36255825762143373,-0.3680488895639105,-0.37356281856958967,-0.3790903636613306,-0.38462171223402797,-0.3901469416569793,-0.395656041219255,-0.4011389343375519,-0.40658550096037394,-0.4119856001152159,-0.4173290925310963,-0.4226058632564914,-0.4278058442078869,-0.4329190365998161,-0.4379355331987478,-0.44284554033370416,-0.4476393996073537,-0.4523076092607134,-0.4568408451337091,-0.4612299811552553,-0.46546610930963217,-0.4695405590400399,-0.473444916046013,-0.47717104042559333,-0.48071108412192154,-0.484057507642327,-0.4872030960125098,-0.4901409739236555,-0.4928646200383147,-0.4953678804253439,-0.49764498108354555,-0.49969053950819414,-0.5014995752697425,-0.5030675195892617,-0.5043902238927799,-0.505463967323229,-0.5062854631973011,-0.5068518643934339,-0.5071607676345291,-0.5072102166200101,-0.506998703989733,-0.5065251721297033,-0.5057890128250904,-0.5047900657594999,-0.5035286158773878,-0.5020053896384685,-0.5002215501754587,-0.4981786913558873,-0.49587883077091865,-0.4933244016862851,-0.4905182439629222,-0.48746359393950434,-0.48416407330226896,-0.48062367699021147,-0.4768467601527133,-0.4728380241569421,-0.4686025016819302,-0.4641455409621098,-0.4594727892016872,-0.45459017515491085,-0.44950389091667514,-0.44422037300120115,-0.4387462827355613,-0.4330884859611533,-0.427254032097162,-0.4212501326675568,-0.4150841393421529,-0.4087635215034397,-0.4022958434126035,-0.39568874109529617,-0.38894989900853905,-0.38208702650495374,-0.3751078341755441,-0.3680200102038998,-0.36083119680285974,-0.35354896675490793,-0.3461808001415856,-0.33873406139571016,-0.3312159767394336,-0.3236336120159171,-0.3159938509933382,-0.3083033742855925,-0.3005686389805329,-0.2927958590134707,-0.28499098637565673,-0.27715969328805506,-0.269307355402335,-0.2614390360344287,-0.2535594714932452,-0.24567305762438155,-0.23778383764345293,-0.22989549128366352,-0.2220113253158914,-0.21413426552201031,-0.20626685013503143,-0.19841122470692352,-0.19056913841160786,-0.18274194183525008,-0.17493058626021066,-0.16713562440315702,-0.15935721260341854,-0.15159511449171617,-0.14384870612717351,-0.1361169825490555,-0.12839856571645267,-0.12069171382793906,-0.11299433196149974,-0.10530398393442483,-0.09761790532236068,-0.08993301762217436,-0.08224594352399132,-0.07455302322819345,-0.06685033175843685,-0.059133697233994635,-0.051398720030963845,-0.04364079273367493,-0.03585512079918618,-0.028036743881119406,-0.020180557740346914,-0.012281336649051318,-0.004333756209737777,0.0036675834724584876,0.011728134340346849,0.019853376750237448,0.028048795733296387,0.036319857221048815,0.044671984314427496,0.05311053368720882,0.06164077220135478,0.07026785378460428,0.0789967966012843,0.08783246054687983,0.09677952511271531,0.10584246768008654,0.11502554230139717,0.1243327590239437,0.13376786382044853,0.1433343191900776,0.15303528547375472,0.16287360291735836,0.17285177453261039,0.18297194980888012,0.19323590929607684,0.20364505006054992,0.21420037204794065,0.22490246541372264,0.2357514988594898,0.24674720899281846,0.2578888907528846,0.2691753889573238,0.28060509098636816,0.29217592059300274,0.3038853328625047,0.3157303103747929,0.3277073605932768,0.3398125144762428,0.3520413263352326,0.3643888749915604,0.37684976625546257,0.3894181367250135,0.40208765891917003,0.4148515477664519,0.4277025684260583,0.44063304538651443,0.45363487281895803,0.4666995261942359,0.4798180751490628,0.49298119755965913,0.5061791948001001,0.5194020081767948,0.5326392364972895,0.545880154704086,0.5591137335268388,0.5723286601280453,0.5855133596933362,0.5986560178936466,0.6117446041645261,0.6247668957658122,0.6377105025646744,0.650562892464502,0.6633114174146267,0.6759433399433951,0.6884458601292579,0.7008061429042708,0.7130113456057972,0.7250486457122856,0.736905268681169,0.7485685157903816,0.7600257919046377,0.7712646331076983,0.782272734129542,0.7930379754840483,0.8035484502449799,0.8137924903898115,0.8237586926083871,0.8334359434561376,0.8428134437656724,0.8518807322659395,0.8606277083508497,0.869044653927738,0.8771222542954249,0.8848516180123112,0.8922242956871573,0.8992322976092082,0.9058681101670358,0.9121247110329436,0.9179955830692017,0.9234747268969019,0.9285566721000608,0.9332364870594979,0.937509787379707,0.9413727428523785,0.9448220829429407,0.9478551008255715,0.9504696559721529,0.9526641752819546,0.9544376527744968,0.9557896479015368,0.9567202825152258,0.9572302365106401,0.9573207421856677,0.9569935773718744,0.9562510573453923,0.9550960255006692,0.9535318428171364,0.9515623761953456,0.9491919857207294,0.9464255108910993,0.943268255872874,0.9397259738688855,0.9358048506389125,0.9315114871857644,0.9268528816613057,0.9218364105841566,0.9164698094317731,0.9107611526426449,0.9047188330985169,0.8983515411853743,0.891668243498995,0.8846781612325249,0.8773907483169128,0.869815669418488,0.8619627778753955,0.8538420936290685,0.8454637812269383,0.8368381279878663,0.8279755223895156,0.8188864327101877,0.8095813859800992,0.8000709473151965,0.7903656996761518,0.7804762240694038,0.770413080232101,0.7601867878705426,0.7498078085065862,0.7392865279656857,0.7286332395508093,0.7178581279565996,0.7069712539578745,0.6959825398870096,0.6849017559249779,0.6737385072454993,0.6625022220441548,0.6512021404704351,0.6398473044781747,0.6284465486037174,0.6170084916599747,0.6055415293200572,0.5940538275749209,0.5825533170704041,0.571047688339125,0.5595443879381953,0.5480506154901273,0.5365733216097933,0.5251192066906257,0.5136947205177519,0.5023060626741467,0.4909591837139779,0.4796597870933414,0.46841333185200446,0.4572250360208117,0.4460998807134174,0.4350426148666922,0.42405776059883254,0.4131496191407303,0.4023222772918376,0.39157961437406846,0.38092530966892274,0.37036285029872584,0.3598955394947655,0.349526505214912,0.33925870908783107,0.3290949556359644,0.319037901709671,0.3090900660862846,0.299253839205252,0.28953149298852776,0.2799251906836364,0.27043699670166466,0.2610688864454853,0.2518227560900411,0.2427004322456333,0.23370368145701115,0.22483421951317728,0.21609372051749062,0.20748382564117504,0.19900615149968523,0.19066229811202082,0.1824538563906584,0.17438241509767308,0.16644956722215923,0.15865691575395727,0.15100607882071942,0.14349869414888822,0.1361364228298208,0.1289209523908707,0.12185399916076657,0.11493730990178054,0.10817266268368388,0.10156186698632953,0.09510676302448054,0.08880922029759855,0.08267113538498119,0.07669442901901044,0.07088104246774946,0.06523293326045748,0.05975207030726831,0.05444042847548569,0.049299982675016334,0.04433270150040216,0.0395405404949026,0.034925435113216795,0.030489293441995493,0.026233988724391057,0.022161351751640964,0.018273163196017194,0.01457114593902624,0.011056957435960843,0.007732182181423214,0.004598324354498806,0.001656800694517647,-0.0010910663572769295,-0.0036440551809280713,-0.006001051077578072,-0.00816105190225232,-0.01012317322994714,-0.01188665304266975,-0.013450855908791682,-0.014815276653248846,-0.015979543533185883,-0.0169434208969325,-0.017706811281020876,-0.018269756941874434,-0.018632440860793572,-0.01879518724544289,-0.018758461531405504,-0.018522869914255103,-0.018089158470203235,-0.017458211907836283,-0.016631051974716083,-0.015608835559714608,-0.014392852552519817,-0.012984523512374611,-0.011385397182884003,-0.009597147894867342,-0.007621572906994286,-0.005460589724784381,-0.0031162334262501853,-0.000590654023611522,0.0021138861009263135,0.00499501464359245,0.008050251675701413,0.01127701176620037,0.01467260592235381,0.01823424335054802,0.021959033044775936,0.025843985213747284,0.029886012557720804,0.034081931403612875,0.038428462707601224,0.04292223294181935,0.047559774890514994,0.052337528385425214,0.05725184101075309,0.062298968809841364,0.06747507703546363,0.07277624100204061,0.07819844710204216,0.08373759403065939,0.08938949424424308,0.09514987567691108,0.10101438374098998,0.10697858362997978,0.11303796295265597,0.11918793476289422,0.12542384106216595,0.131740956811474,0.1381344944543826,0.14459960896705068,0.15113140346293483,0.15772493534649765,0.16437522298608906,0.17107725290328288,0.17782598749386566,0.18461637325708938,0.19144334947673627,0.19830185732101094,0.20518684934833867,0.2120932993714861,0.21901621259964418,0.22595063599751206,0.23289166882100606,0.2398344732643245,0.24677428512818822,0.25370642443653835,0.26062630594898484,0.2675294495004593,0.27441149008037924,0.28126818757457206,0.2880954361101319,0.2948892729386946,0.30164588678124493,0.30836162555800983,0.3150330034381593,0.3216567071560781,0.3282296015487194,0.3347487342726734,0.3412113396674439,0.34761484174420204,0.3539568562812743,0.3602351919938929,0.36644785074491165,0.3725930267910924,0.3786691050808648,0.3846746586092613,0.39060844483063484,0.3964694011574423,0.4022566395940676,0.4079694405380964,0.4136072457707029,0.41916965068572215,0.42465639582686127,0.4300673577788459,0.43540253944207624,0.4406620597494798,0.44584614290086544,0.4509551071527188,0.45598935317787215,0.4609493520507919,0.4658356329497608,0.47064877063918553,0.47538937277020743,0.48005806707275506,0.48465548854335655,0.4891822667050421,0.4936390129889077,0.49802630831278627,0.502344690949736,0.5065946447387608,0.5107765876594055,0.5148908608230782,0.5189377179564716,0.522917315410506,0.5268297026955129,0.5306748135790286,0.5344524578115842,0.5381623135066179,0.5418039201674022,0.5453766723890623,0.5488798142950522,0.5523124347327353,0.5556734632204088,0.558961666666466,0.562175646901541,0.5653138390206162,0.5683745104978558,0.5713557610714762,0.5742555234242205,0.5770715646453294,0.5798014884265498,0.5824427379785514,0.5849925996785118,0.5874482074135229,0.589806547549461,0.5920644644962003,0.5942186668742222,0.5962657342464261,0.5982021243446165,0.6000241807611288,0.6017281411100528,0.60331014562115,0.6047662460951819,0.6060924151911964,0.6072845560544375,0.6083385122589617,0.6092500780067787,0.6100150085602951,0.610629030913777,0.611087854670781,0.6113871830622839,0.6115227240768937,0.6114902017077093,0.611285367287939,0.6109040108576658,0.6103419725377418,0.6095951539214685,0.6086595294729088,0.6075311578955421,0.6062061934565005,0.6046808972720711,0.6029516485360743,0.6010149556498826,0.5988674672313152,0.5965059829949886,0.5939274644713386,0.5911290455106037,0.5881080425405911,0.5848619645720765,0.5813885229345406,0.5776856407096029,0.5737514618413897,0.5695843599137342,0.5651829465679161,0.5605460795207344,0.5556728701573383,0.5505626906917789,0.5452151808854204,0.5396302543049967,0.5338081041051866,0.5277492083199807,0.5214543346312798,0.5149245445739105,0.5081611971498724,0.5011659518398869,0.49394077099777095,0.4864879216080535,0.47880997639400064,0.4709098142658797,0.4627906200863701,0.45445588372332574,0.4459093983751061,0.43715525816680056,0.4281978550080656,0.41904187469756327,0.409692292273204,0.4001543666170379,0.39043363431041483,0.38053590272737087,0.37046724237348294,0.3602339784933106,0.34984268195800694,0.33930015943624503,0.32861344287110966,0.317789778302176,0.3068366140601711,0.29576158835206284,0.28457251627127583,0.2732773762765249,0.26188429615898673,0.25040153850359564,0.2388374856787117,0.2272006244183791,0.21549953005560266,0.20374285045395893,0.19193928969653568,0.180097591593196,0.1682265230367051,0.15633485722049884,0.14443135675709623,0.13252475675592196,0.12062374789412716,0.1087369594951117,0.09687294265853541,0.08504015351234151,0.07324693663834353,0.06150150870408916,0.04981194235617681,0.03818615045246215,0.02663187069440087,0.015156650702569162,0.0037678335912318998,-0.007527455893549226,-0.01872232463260755,-0.029810123769348464,-0.040784460684702914,-0.05163921025191649,-0.06236852531967317,-0.07296684638701574,-0.0834289104304729,-0.09374975884007614,-0.10392474443436484,-0.11394953753846393,-0.12382013110838237,-0.13353284488390701,-0.1430843285654094,-0.15247156402189174,-0.1616918665344634,-0.1707428850712248,-0.1796226015894314,-0.18832932936748745,-0.19686171037699293,-0.20521871171195658,-0.21339962109843633,-0.22140404151332269,-0.22923188494493185,-0.23688336532818555,-0.24435899068407185,-0.2516595544941579,-0.2587861263513695,-0.26574004194378337,-0.2725228924409184,-0.27913651335544215,-0.28558297294778984,-0.2918645602389471,-0.29798377270380855,-0.30394330372016903,-0.3097460298380801,-0.3153949979292072,-0.3208934122872824,-0.3262446217554602,-0.33145210694013416,-0.3365194675646894,-0.34145041003938403,-0.3462487353332775,-0.3509183272033974,-0.35546314081398905,-0.3598871918001512,-0.3641945458430123,-0.36838930878726484,-0.3724756173003051,-0.376457630089733,-0.38033951971069413,-0.38412546496459127,-0.38781964387221607,-0.39142622723900117,-0.3949493728515347,-0.39839322030027535,-0.4017618863761787,-0.40505946099677637,-0.40829000363423296,-0.41145754019828223,-0.41456606031170956,-0.417619514941264,-0.4206218143674966,-0.42357682645443434,-0.4264883751548258,-0.42936023919770333,-0.4321961509216034,-0.43499979520534987,-0.43777480842729494,-0.4405247773796747,-0.44325323807457634,-0.44596367438661555,-0.44865951647072255,-0.45134413887416325,-0.4540208582623484,-0.4566929307116027,-0.45936354854377454,-0.46203583665931486,-0.46471284831896303,-0.46739756036280783,-0.47009286787290444,-0.4728015782405182,-0.47552640457846757,-0.47826995848281,-0.48103474219991943,-0.48382314022028744,-0.4866374102940884,-0.48947967392180514,-0.4923519064169878,-0.495255926589408,-0.4981933860610902,-0.5011657582893926,-0.504174327423606,-0.5072201770758441,-0.5103041790470458,-0.5134269821048041,-0.5165890009667651,-0.519790405613751,-0.5230311110190571,-0.5263107674089846,-0.5296287511931734,-0.532984156658477,-0.5363757884799518,-0.5398021551313802,-0.5432614633110192,-0.5467516134737079,-0.5502701965273148,-0.553814491760846,-0.557381466085015,-0.5609677746434475,-0.5645697628246445,-0.5681834697040803,-0.5718046329497647,-0.5754286952079867,-0.5790508119645813,-0.5826658608702834,-0.5862684525180492,-0.5898529426524072,-0.593413445777215,-0.5969438501143943,-0.600437833854018,-0.6038888826254468,-0.6072903081099706,-0.6106352677075136,-0.6139167851633242,-0.6171277720551215,-0.6202610500368321,-0.6233093737308908,-0.6262654541546662,-0.6291219825584269,-0.6318716545496488,-0.6345071943864812,-0.6370213793374718,-0.6394070640172139,-0.6416572046118317,-0.6437648829045358,-0.6457233300117943,-0.6475259497511395,-0.6491663415682735,-0.6506383229445702,-0.6519359512020537,-0.6530535446333305,-0.6539857028927323,-0.6547273265782357,-0.6552736359250083,-0.6556201885347556,-0.6557628960730252,-0.6556980398707905,-0.6554222853746002,-0.65493269540606,-0.6542267422025981,-0.6533023182117254,-0.6521577456248616,-0.6507917846739989,-0.6492036407326308,-0.6473929702346702,-0.6453598853961878,-0.6431049577332985,-0.6406292203833098,N
3,-0.23990961434623495,-0.2405610571136028,-0.24137265534356048,-0.24234745002030936,-0.24348812215199425,-0.24479698208146264,-0.2462759596207709,-0.24792659503349193,-0.24975003090728087,-0.2517470049695838,-0.2539178438664178,-0.2562624579002215,-0.25878033674830186,-0.2614705462039579,-0.2643317259537585,-0.26736208838001424,-0.27055941840252234,-0.2739210743978164,-0.27744399021248783,-0.2811246782641967,-0.2849592337396889,-0.2889433399106729,-0.2930722745597176,-0.2973409174844812,-0.3017437590664758,-0.30627490990483014,-0.3109281114886036,-0.31569674785834617,-0.32057385822649787,-0.3255521505421757,-0.330624015961245,-0.33578154416105743,-0.34101653945905946,-0.3463205377160668,-0.35168482399118056,-0.3571004508979672,-0.36255825762143373,-0.3680488895639105,-0.37356281856958967,-0.3790903636613306,-0.38462171223402797,-0.3901469416569793,-0.395656041219255,-0.4011389343375519,-0.40658550096037394,-0.4119856001152159,-0.4173290925310963,-0.4226058632564914,-0.4278058442078869,-0.4329190365998161,-0.4379355331987478,-0.44284554033370416,-0.4476393996073537,-0.4523076092607134,-0.4568408451337091,-0.4612299811552553,-0.46546610930963217,-0.4695405590400399,-0.473444916046013,-0.47717104042559333,-0.48071108412192154,-0.484057507642327,-0.4872030960125098,-0.4901409739236555,-0.4928646200383147,-0.4953678804253439,-0.49764498108354555,-0.49969053950819414,-0.5014995752697425,-0.5030675195892617,-0.5043902238927799,-0.505463967323229,-0.5062854631973011,-0.5068518643934339,-0.5071607676345291,-0.5072102166200101,-0.506998703989733,-0.5065251721297033,-0.5057890128250904,-0.5047900657594999,-0.5035286158773878,-0.5020053896384685,-0.5002215501754587,-0.4981786913558873,-0.49587883077091865,-0.4933244016862851,-0.4905182439629222,-0.48746359393950434,-0.48416407330226896,-0.48062367699021147,-0.4768467601527133,-0.4728380241569421,-0.4686025016819302,-0.4641455409621098,-0.4594727892016872,-0.45459017515491085,-0.44950389091667514,-0.44422037300120115,-0.4387462827355613,-0.4330884859611533,-0.427254032097162,-0.4212501326675568,-0.4150841393421529,-0.4087635215034397,-0.4022958434126035,-0.39568874109529617,-0.38894989900853905,-0.38208702650495374,-0.3751078341755441,-0.3680200102038998,-0.36083119680285974,-0.35354896675490793,-0.3461808001415856,-0.33873406139571016,-0.3312159767394336,-0.3236336120159171,-0.3159938509933382,-0.3083033742855925,-0.3005686389805329,-0.2927958590134707,-0.28499098637565673,-0.27715969328805506,-0.269307355402335,-0.2614390360344287,-0.2535594714932452,-0.24567305762438155,-0.23778383764345293,-0.22989549128366352,-0.2220113253158914,-0.21413426552201031,-0.20626685013503143,-0.19841122470692352,-0.19056913841160786,-0.18274194183525008,-0.17493058626021066,-0.16713562440315702,-0.15935721260341854,-0.15159511449171617,-0.14384870612717351,-0.1361169825490555,-0.12839856571645267,-0.12069171382793906,-0.11299433196149974,-0.10530398393442483,-0.09761790532236068,-0.08993301762217436,-0.08224594352399132,-0.07455302322819345,-0.06685033175843685,-0.059133697233994635,-0.051398720030963845,-0.04364079273367493,-0.03585512079918618,-0.028036743881119406,-0.020180557740346914,-0.012281336649051318,-0.004333756209737777,0.0036675834724584876,0.011728134340346849,0.019853376750237448,0.028048795733296387,0.036319857221048815,0.044671984314427496,0.05311053368720882,0.06164077220135478,0.07026785378460428,0.0789967966012843,0.08783246054687983,0.09677952511271531,0.10584246768008654,0.11502554230139717,0.1243327590239437,0.13376786382044853,0.1433343191900776,0.15303528547375472,0.16287360291735836,0.17285177453261039,0.18297194980888012,0.19323590929607684,0.20364505006054992,0.21420037204794065,0.22490246541372264,0.2357514988594898,0.24674720899281846,0.2578888907528846,0.2691753889573238,0.28060509098636816,0.29217592059300274,0.3038853328625047,0.3157303103747929,0.3277073605932768,0.3398125144762428,0.3520413263352326,0.3643888749915604,0.37684976625546257,0.3894181367250135,0.40208765891917003,0.4148515477664519,0.4277025684260583,0.44063304538651443,0.45363487281895803,0.4666995261942359,0.4798180751490628,0.49298119755965913,0.5061791948001001,0.5194020081767948,0.5326392364972895,0.545880154704086,0.5591137335268388,0.5723286601280453,0.5855133596933362,0.5986560178936466,0.6117446041645261,0.6247668957658122,0.6377105025646744,0.650562892464502,0.6633114174146267,0.6759433399433951,0.6884458601292579,0.7008061429042708,0.7130113456057972,0.7250486457122856,0.736905268681169,0.7485685157903816,0.7600257919046377,0.7712646331076983,0.782272734129542,0.7930379754840483,0.8035484502449799,0.8137924903898115,0.8237586926083871,0.8334359434561376,0.8428134437656724,0.8518807322659395,0.8606277083508497,0.869044653927738,0.8771222542954249,0.8848516180123112,0.8922242956871573,0.8992322976092082,0.9058681101670358,0.9121247110329436,0.9179955830692017,0.9234747268969019,0.9285566721000608,0.9332364870594979,0.937509787379707,0.9413727428523785,0.9448220829429407,0.9478551008255715,0.9504696559721529,0.9526641752819546,0.9544376527744968,0.9557896479015368,0.9567202825152258,0.9572302365106401,0.9573207421856677,0.9569935773718744,0.9562510573453923,0.9550960255006692,0.9535318428171364,0.9515623761953456,0.9491919857207294,0.9464255108910993,0.943268255872874,0.9397259738688855,0.9358048506389125,0.9315114871857644,0.9268528816613057,0.9218364105841566,0.9164698094317731,0.9107611526426449,0.9047188330985169,0.8983515411853743,0.891668243498995,0.8846781612325249,0.8773907483169128,0.869815669418488,0.8619627778753955,0.8538420936290685,0.8454637812269383,0.8368381279878663,0.8279755223895156,0.8188864327101877,0.8095813859800992,0.8000709473151965,0.7903656996761518,0.7804762240694038,0.770413080232101,0.7601867878705426,0.7498078085065862,0.7392865279656857,0.7286332395508093,0.7178581279565996,0.7069712539578745,0.6959825398870096,0.6849017559249779,0.6737385072454993,0.6625022220441548,0.6512021404704351,0.6398473044781747,0.6284465486037174,0.6170084916599747,0.6055415293200572,0.5940538275749209,0.5825533170704041,0.571047688339125,0.5595443879381953,0.5480506154901273,0.5365733216097933,0.5251192066906257,0.5136947205177519,0.5023060626741467,0.4909591837139779,0.4796597870933414,0.46841333185200446,0.4572250360208117,0.4460998807134174,0.4350426148666922,0.42405776059883254,0.4131496191407303,0.4023222772918376,0.39157961437406846,0.38092530966892274,0.37036285029872584,0.3598955394947655,0.349526505214912,0.33925870908783107,0.3290949556359644,0.319037901709671,0.3090900660862846,0.299253839205252,0.28953149298852776,0.2799251906836364,0.27043699670166466,0.2610688864454853,0.2518227560900411,0.2427004322456333,0.23370368145701115,0.22483421951317728,0.21609372051749062,0.20748382564117504,0.19900615149968523,0.19066229811202082,0.1824538563906584,0.17438241509767308,0.16644956722215923,0.15865691575395727,0.15100607882071942,0.14349869414888822,0.1361364228298208,0.1289209523908707,0.12185399916076657,0.11493730990178054,0.10817266268368388,0.10156186698632953,0.09510676302448054,0.08880922029759855,0.08267113538498119,0.07669442901901044,0.07088104246774946,0.06523293326045748,0.05975207030726831,0.05444042847548569,0.049299982675016334,0.04433270150040216,0.0395405404949026,0.034925435113216795,0.030489293441995493,0.026233988724391057,0.022161351751640964,0.018273163196017194,0.01457114593902624,0.011056957435960843,0.007732182181423214,0.004598324354498806,0.001656800694517647,-0.0010910663572769295,-0.0036440551809280713,-0.006001051077578072,-0.00816105190225232,-0.01012317322994714,-0.01188665304266975,-0.013450855908791682,-0.014815276653248846,-0.015979543533185883,-0.0169434208969325,-0.017706811281020876,-0.018269756941874434,-0.018632440860793572,-0.01879518724544289,-0.018758461531405504,-0.018522869914255103,-0.018089158470203235,-0.017458211907836283,-0.016631051974716083,-0.015608835559714608,-0.014392852552519817,-0.012984523512374611,-0.011385397182884003,-0.009597147894867342,-0.007621572906994286,-0.005460589724784381,-0.0031162334262501853,-0.000590654023611522,0.0021138861009263135,0.00499501464359245,0.008050251675701413,0.01127701176620037,0.01467260592235381,0.01823424335054802,0.021959033044775936,0.025843985213747284,0.029886012557720804,0.034081931403612875,0.038428462707601224,0.04292223294181935,0.047559774890514994,0.052337528385425214,0.05725184101075309,0.062298968809841364,0.06747507703546363,0.07277624100204061,0.07819844710204216,0.08373759403065939,0.08938949424424308,0.09514987567691108,0.10101438374098998,0.10697858362997978,0.11303796295265597,0.11918793476289422,0.12542384106216595,0.131740956811474,0.1381344944543826,0.14459960896705068,0.15113140346293483,0.15772493534649765,0.16437522298608906,0.17107725290328288,0.17782598749386566,0.18461637325708938,0.19144334947673627,0.19830185732101094,0.20518684934833867,0.2120932993714861,0.21901621259964418,0.22595063599751206,0.23289166882100606,0.2398344732643245,0.24677428512818822,0.25370642443653835,0.26062630594898484,0.2675294495004593,0.27441149008037924,0.28126818757457206,0.2880954361101319,0.2948892729386946,0.30164588678124493,0.30836162555800983,0.3150330034381593,0.3216567071560781,0.3282296015487194,0.3347487342726734,0.3412113396674439,0.34761484174420204,0.3539568562812743,0.3602351919938929,0.36644785074491165,0.3725930267910924,0.3786691050808648,0.3846746586092613,0.39060844483063484,0.3964694011574423,0.4022566395940676,0.4079694405380964,0.4136072457707029,0.41916965068572215,0.42465639582686127,0.4300673577788459,0.43540253944207624,0.4406620597494798,0.44584614290086544,0.4509551071527188,0.45598935317787215,0.4609493520507919,0.4658356329497608,0.47064877063918553,0.47538937277020743,0.48005806707275506,0.48465548854335655,0.4891822667050421,0.4936390129889077,0.49802630831278627,0.502344690949736,0.5065946447387608,0.5107765876594055,0.5148908608230782,0.5189377179564716,0.522917315410506,0.5268297026955129,0.5306748135790286,0.5344524578115842,0.5381623135066179,0.5418039201674022,0.5453766723890623,0.5488798142950522,0.5523124347327353,0.5556734632204088,0.558961666666466,0.562175646901541,0.5653138390206162,0.5683745104978558,0.5713557610714762,0.5742555234242205,0.5770715646453294,0.5798014884265498,0.5824427379785514,0.5849925996785118,0.5874482074135229,0.589806547549461,0.5920644644962003,0.5942186668742222,0.5962657342464261,0.5982021243446165,0.6000241807611288,0.6017281411100528,0.60331014562115,0.6047662460951819,0.6060924151911964,0.6072845560544375,0.6083385122589617,0.6092500780067787,0.6100150085602951,0.610629030913777,0.611087854670781,0.6113871830622839,0.6115227240768937,0.6114902017077093,0.611285367287939,0.6109040108576658,0.6103419725377418,0.6095951539214685,0.6086595294729088,0.6075311578955421,0.6062061934565005,0.6046808972720711,0.6029516485360743,0.6010149556498826,0.5988674672313152,0.5965059829949886,0.5939274644713386,0.5911290455106037,0.5881080425405911,0.5848619645720765,0.5813885229345406,0.5776856407096029,0.5737514618413897,0.5695843599137342,0.5651829465679161,0.5605460795207344,0.5556728701573383,0.5505626906917789,0.5452151808854204,0.5396302543049967,0.5338081041051866,0.5277492083199807,0.5214543346312798,0.5149245445739105,0.5081611971498724,0.5011659518398869,0.49394077099777095,0.4864879216080535,0.47880997639400064,0.4709098142658797,0.4627906200863701,0.45445588372332574,0.4459093983751061,0.43715525816680056,0.4281978550080656,0.41904187469756327,0.409692292273204,0.4001543666170379,0.39043363431041483,0.38053590272737087,0.37046724237348294,0.3602339784933106,0.34984268195800694,0.33930015943624503,0.32861344287110966,0.317789778302176,0.3068366140601711,0.29576158835206284,0.28457251627127583,0.2732773762765249,0.26188429615898673,0.25040153850359564,0.2388374856787117,0.2272006244183791,0.21549953005560266,0.20374285045395893,0.19193928969653568,0.180097591593196,0.1682265230367051,0.15633485722049884,0.14443135675709623,0.13252475675592196,0.12062374789412716,0.1087369594951117,0.09687294265853541,0.08504015351234151,0.07324693663834353,0.06150150870408916,0.04981194235617681,0.03818615045246215,0.02663187069440087,0.015156650702569162,0.0037678335912318998,-0.007527455893549226,-0.01872232463260755,-0.029810123769348464,-0.040784460684702914,-0.05163921025191649,-0.06236852531967317,-0.07296684638701574,-0.0834289104304729,-0.09374975884007614,-0.10392474443436484,-0.11394953753846393,-0.12382013110838237,-0.13353284488390701,-0.1430843285654094,-0.15247156402189174,-0.1616918665344634,-0.1707428850712248,-0.1796226015894314,-0.18832932936748745,-0.19686171037699293,-0.20521871171195658,-0.21339962109843633,-0.22140404151332269,-0.22923188494493185,-0.23688336532818555,-0.24435899068407185,-0.2516595544941579,-0.2587861263513695,-0.26574004194378337,-0.2725228924409184,-0.27913651335544215,-0.28558297294778984,-0.2918645602389471,-0.29798377270380855,-0.30394330372016903,-0.3097460298380801,-0.3153949979292072,-0.3208934122872824,-0.3262446217554602,-0.33145210694013416,-0.3365194675646894,-0.34145041003938403,-0.3462487353332775,-0.3509183272033974,-0.35546314081398905,-0.3598871918001512,-0.3641945458430123,-0.36838930878726484,-0.3724756173003051,-0.376457630089733,-0.38033951971069413,-0.38412546496459127,-0.38781964387221607,-0.39142622723900117,-0.3949493728515347,-0.39839322030027535,-0.4017618863761787,-0.40505946099677637,-0.40829000363423296,-0.41145754019828223,-0.41456606031170956,-0.417619514941264,-0.4206218143674966,-0.42357682645443434,-0.4264883751548258,-0.42936023919770333,-0.4321961509216034,-0.43499979520534987,-0.43777480842729494,-0.4405247773796747,-0.44325323807457634,-0.44596367438661555,-0.44865951647072255,-0.45134413887416325,-0.4540208582623484,-0.4566929307116027,-0.45936354854377454,-0.46203583665931486,-0.46471284831896303,-0.46739756036280783,-0.47009286787290444,-0.4728015782405182,-0.47552640457846757,-0.47826995848281,-0.48103474219991943,-0.48382314022028744,-0.4866374102940884,-0.48947967392180514,-0.4923519064169878,-0.495255926589408,-0.4981933860610902,-0.5011657582893926,-0.504174327423606,-0.5072201770758441,-0.5103041790470458,-0.5134269821048041,-0.5165890009667651,-0.519790405613751,-0.5230311110190571,-0.5263107674089846,-0.5296287511931734,-0.532984156658477,-0.5363757884799518,-0.5398021551313802,-0.5432614633110192,-0.5467516134737079,-0.5502701965273148,-0.553814491760846,-0.557381466085015,-0.5609677746434475,-0.5645697628246445,-0.5681834697040803,-0.5718046329497647,-0.5754286952079867,-0.5790508119645813,-0.5826658608702834,-0.5862684525180492,-0.5898529426524072,-0.593413445777215,-0.5969438501143943,-0.600437833854018,-0.6038888826254468,-0.6072903081099706,-0.6106352677075136,-0.6139167851633242,-0.6171277720551215,-0.6202610500368321,-0.6233093737308908,-0.6262654541546662,-0.6291219825584269,-0.6318716545496488,-0.6345071943864812,-0.6370213793374718,-0.6394070640172139,-0.6416572046118317,-0.6437648829045358,-0.6457233300117943,-0.6475259497511395,-0.6491663415682735,-0.6506383229445702,-0.6519359512020537,-0.6530535446333305,-0.6539857028927323,-0.6547273265782357,-0.6552736359250083,-0.6556201885347556,-0.6557628960730252,-0.6556980398707905,-0.6554222853746002,-0.65493269540606,-0.6542267422025981,-0.6533023182117254,-0.6521577456248616,-0.6507917846739989,-0.6492036407326308,-0.6473929702346702,-0.6453598853961878,-0.6431049577332985,-0.6406292203833098,-0.6379341692238144,-0.6350217627740701,-0.6318944208803384,-0.628555022202593,-0.6250069005086881,-0.621253839770605,-0.6173000680703696,-0.6131502503374527,-0.6088094799343647,-0.6042832691069316,-0.5995775383385206,-0.5946986046633628,-0.5896531689806764,-0.5844483023997019,-0.5790914316616319,-0.5735903236985106,-0.5679530693782299,-0.5621880664819011,-0.5563040019881521,-0.5503098337560618,-0.5442147716751176,-0.5380282583350031,-0.531759949295646,-0.5254196930563817,-0.5190175107909187,-0.5125635758836138,-0.5060681933173306,-0.4995417789793386,-0.4929948389287122,-0.4864379486474313,-0.4798817323144253,-0.4733368421579387,-0.46681393792186027,-0.4603236664618175,-0.4538766414996553,-0.44748342357900434,-0.44115450024959396,-0.4349002664886947,-0.42873100537129555,-0.422656869010314,-0.41668785978580386,-0.4108338118803125,-0.40510437314834585,-0.399508987356844,-0.3940568768262632,-0.38875702548619684,-0.38361816234926016,-0.3786487454082167,-0.3738569459703848,-0.3692506334455871,-0.3648373605936234,-0.36062434923431436,-0.35661847644125794,-0.3528262612608522,-0.3492538520025306,-0.34590701414389075,-0.3427911188967299,-0.3399111324786304,-0.3372716061234969,-0.3348766668573025,-0.3327300090733017,-0.33083488695311175,-0.3291941077832344,-0.3278100262121835,-0.3266845394887788,-0.32581908372348206,-0.32521463122082067,-0.3248716889287971,-0.324790298035999,-0.3249700347395311,-0.3254100122178466,-0.32610888384434744,-0.3270648476527544,-0.32827565204695025,-0.3297386027597568,-0.3314505710705102,-0.33340800326202913,-0.3356069312698148,-0.3380429844813563,-0.3407114026499315,-0.343607049863125,-0.3467244294698371,-0.3500576998491927,-0.3536006909049066,-0.3573469211798375,-0.36128961549285005,-0.36542172299751813,-0.369735935563601,-0.3742247063939109,-0.378880268786821,-0.3836946549285166,-0.38865971459154525,-0.3937671336551329,-0.3990084524062651,-0.40437508358939217,-0.40985833017012924,-0.4154494027938553,-0.4211394369419618,-0.42691950979766874,-0.43278065683179706,-0.4387138881165968,-0.44471020437958825,-0.4507606128182801,-0.4568561426973858,-0.46298786073650117,-0.46914688628445717,-0.47532440627873956,-0.48151168998992094,-0.4877001035422422,-0.49388112420347247,-0.500046354460296,-0.5061875359046697,-0.5122965629307153,-0.5183654962225533,-0.5243865760313454,-0.5303522352516462,-0.5362551122803013,-0.5420880636227655,-0.5478441762372431,-0.5535167796240527,-0.5590994576332844,-0.5645860599259036,-0.5699707130278315,-0.575247830930369,-0.5804121251734589,-0.5854586143128009,-0.5903826326472184,-0.5951798380865212,-0.5998462190651598,-0.604378100410636,-0.6087721480426468,-0.6130253723729236,-0.6171351303289275,-0.6210991259464574,-0.6249154094150505,-0.6285823744363955,-0.6320987538487948,-0.6354636135398317,-0.6386763446122885,-0.6417366537330704,-0.6446445516944252,-0.6474003402919659,-0.6500045975520132,-0.6524581612909217,-0.6547621110951007,-0.6569177488983782,-0.6589265782613978,-0.6607902823986629,-0.662510701097325,-0.6640898067599028,-0.6655296797362993,-0.6668324830470092,-0.6680004366774739,-0.6690357916929979,-0.669940804353466,-0.6707177103408148,-0.671368699276072,-0.6718958897633148,-0.6723013051354899,-0.6725868500133042,-0.6727542878324988,-0.6728052195325478,-0.6727410635313775,-0.6725630370482303,-0.6722721388790815,-0.6718691337742784,-0.6713545385215878,-0.6707286097846485,-0.6699913337653766,-0.6691424177661708,-0.6681812836564632,-0.6671070631937001,-0.6659185951866604,-0.6646144245227728,-0.663192803029709,-0.6616516920945159,-0.6599887669946058,-0.6582014229072173,-0.6562867824860046,-0.6542417048417715,-0.6520627958259376,-0.6497464195668267,-0.6472887111510711,-0.6446855902948015,-0.641932775908514,-0.6390258014990002,-0.6359600312740916,-0.6327306767626255,-0.6293328138421264,-0.6257614001321103,-0.6220112926427452,-0.6180772655149216,-0.6139540277692102,-0.6096362410462457,-0.6051185372470784,-0.6003955359248416,-0.5954618613662259,-0.5903121593770837,-0.5849411137205196,-0.5793434620988076,-0.5735140116505709,-0.567447654004967,-0.5611393798698606,-0.5545842930739598,-0.5477776240557162,-0.5407147428558015,-0.5333911716065847,-0.5258025964559712,-0.5179448789278962,-0.5098140667723405,-0.5014064042832675,-0.49271834200465436,-0.4837465458266886,-0.4744879055788738,-0.4649395432296653,-0.4550988207663654,-0.4449633478405029,-0.434530989294953,-0.4237998726897539,-0.4127683959189333,-0.4014352349824695,-0.38979935195248255,-0.37786000315067386,-0.3656167475347141,N
4,0.7485685157903816,0.7600257919046377,0.7712646331076983,0.782272734129542,0.7930379754840483,0.8035484502449799,0.8137924903898115,0.8237586926083871,0.8334359434561376,0.8428134437656724,0.8518807322659395,0.8606277083508497,0.869044653927738,0.8771222542954249,0.8848516180123112,0.8922242956871573,0.8992322976092082,0.9058681101670358,0.9121247110329436,0.9179955830692017,0.9234747268969019,0.9285566721000608,0.9332364870594979,0.937509787379707,0.9413727428523785,0.9448220829429407,0.9478551008255715,0.9504696559721529,0.9526641752819546,0.9544376527744968,0.9557896479015368,0.9567202825152258,0.9572302365106401,0.9573207421856677,0.9569935773718744,0.9562510573453923,0.9550960255006692,0.9535318428171364,0.9515623761953456,0.9491919857207294,0.9464255108910993,0.943268255872874,0.9397259738688855,0.9358048506389125,0.9315114871857644,0.9268528816613057,0.9218364105841566,0.9164698094317731,0.9107611526426449,0.9047188330985169,0.8983515411853743,0.891668243498995,0.8846781612325249,0.8773907483169128,0.869815669418488,0.8619627778753955,0.8538420936290685,0.8454637812269383,0.8368381279878663,0.8279755223895156,0.8188864327101877,0.8095813859800992,0.8000709473151965,0.7903656996761518,0.7804762240694038,0.770413080232101,0.7601867878705426,0.7498078085065862,0.7392865279656857,0.7286332395508093,0.7178581279565996,0.7069712539578745,0.6959825398870096,0.6849017559249779,0.6737385072454993,0.6625022220441548,0.6512021404704351,0.6398473044781747,0.6284465486037174,0.6170084916599747,0.6055415293200572,0.5940538275749209,0.5825533170704041,0.571047688339125,0.5595443879381953,0.5480506154901273,0.5365733216097933,0.5251192066906257,0.5136947205177519,0.5023060626741467,0.4909591837139779,0.4796597870933414,0.46841333185200446,0.4572250360208117,0.4460998807134174,0.4350426148666922,0.42405776059883254,0.4131496191407303,0.4023222772918376,0.39157961437406846,0.38092530966892274,0.37036285029872584,0.3598955394947655,0.349526505214912,0.33925870908783107,0.3290949556359644,0.319037901709671,0.3090900660862846,0.299253839205252,0.28953149298852776,0.2799251906836364,0.27043699670166466,0.2610688864454853,0.2518227560900411,0.2427004322456333,0.23370368145701115,0.22483421951317728,0.21609372051749062,0.20748382564117504,0.19900615149968523,0.19066229811202082,0.1824538563906584,0.17438241509767308,0.16644956722215923,0.15865691575395727,0.15100607882071942,0.14349869414888822,0.1361364228298208,0.1289209523908707,0.12185399916076657,0.11493730990178054,0.10817266268368388,0.10156186698632953,0.09510676302448054,0.08880922029759855,0.08267113538498119,0.07669442901901044,0.07088104246774946,0.06523293326045748,0.05975207030726831,0.05444042847548569,0.049299982675016334,0.04433270150040216,0.0395405404949026,0.034925435113216795,0.030489293441995493,0.026233988724391057,0.022161351751640964,0.018273163196017194,0.01457114593902624,0.011056957435960843,0.007732182181423214,0.004598324354498806,0.001656800694517647,-0.0010910663572769295,-0.0036440551809280713,-0.006001051077578072,-0.00816105190225232,-0.01012317322994714,-0.01188665304266975,-0.013450855908791682,-0.014815276653248846,-0.015979543533185883,-0.0169434208969325,-0.017706811281020876,-0.018269756941874434,-0.018632440860793572,-0.01879518724544289,-0.018758461531405504,-0.018522869914255103,-0.018089158470203235,-0.017458211907836283,-0.016631051974716083,-0.015608835559714608,-0.014392852552519817,-0.012984523512374611,-0.011385397182884003,-0.009597147894867342,-0.007621572906994286,-0.005460589724784381,-0.0031162334262501853,-0.000590654023611522,0.0021138861009263135,0.00499501464359245,0.008050251675701413,0.01127701176620037,0.01467260592235381,0.01823424335054802,0.021959033044775936,0.025843985213747284,0.029886012557720804,0.034081931403612875,0.038428462707601224,0.04292223294181935,0.047559774890514994,0.052337528385425214,0.05725184101075309,0.062298968809841364,0.06747507703546363,0.07277624100204061,0.07819844710204216,0.08373759403065939,0.08938949424424308,0.09514987567691108,0.10101438374098998,0.10697858362997978,0.11303796295265597,0.11918793476289422,0.12542384106216595,0.131740956811474,0.1381344944543826,0.14459960896705068,0.15113140346293483,0.15772493534649765,0.16437522298608906,0.17107725290328288,0.17782598749386566,0.18461637325708938,0.19144334947673627,0.19830185732101094,0.20518684934833867,0.2120932993714861,0.21901621259964418,0.22595063599751206,0.23289166882100606,0.2398344732643245,0.24677428512818822,0.25370642443653835,0.26062630594898484,0.2675294495004593,0.27441149008037924,0.28126818757457206,0.2880954361101319,0.2948892729386946,0.30164588678124493,0.30836162555800983,0.3150330034381593,0.3216567071560781,0.3282296015487194,0.3347487342726734,0.3412113396674439,0.34761484174420204,0.3539568562812743,0.3602351919938929,0.36644785074491165,0.3725930267910924,0.3786691050808648,0.3846746586092613,0.39060844483063484,0.3964694011574423,0.4022566395940676,0.4079694405380964,0.4136072457707029,0.41916965068572215,0.42465639582686127,0.4300673577788459,0.43540253944207624,0.4406620597494798,0.44584614290086544,0.4509551071527188,0.45598935317787215,0.4609493520507919,0.4658356329497608,0.47064877063918553,0.47538937277020743,0.48005806707275506,0.48465548854335655,0.4891822667050421,0.4936390129889077,0.49802630831278627,0.502344690949736,0.5065946447387608,0.5107765876594055,0.5148908608230782,0.5189377179564716,0.522917315410506,0.5268297026955129,0.5306748135790286,0.5344524578115842,0.5381623135066179,0.5418039201674022,0.5453766723890623,0.5488798142950522,0.5523124347327353,0.5556734632204088,0.558961666666466,0.562175646901541,0.5653138390206162,0.5683745104978558,0.5713557610714762,0.5742555234242205,0.5770715646453294,0.5798014884265498,0.5824427379785514,0.5849925996785118,0.5874482074135229,0.589806547549461,0.5920644644962003,0.5942186668742222,0.5962657342464261,0.5982021243446165,0.6000241807611288,0.6017281411100528,0.60331014562115,0.6047662460951819,0.6060924151911964,0.6072845560544375,0.6083385122589617,0.6092500780067787,0.6100150085602951,0.610629030913777,0.611087854670781,0.6113871830622839,0.6115227240768937,0.6114902017077093,0.611285367287939,0.6109040108576658,0.6103419725377418,0.6095951539214685,0.6086595294729088,0.6075311578955421,0.6062061934565005,0.6046808972720711,0.6029516485360743,0.6010149556498826,0.5988674672313152,0.5965059829949886,0.5939274644713386,0.5911290455106037,0.5881080425405911,0.5848619645720765,0.5813885229345406,0.5776856407096029,0.5737514618413897,0.5695843599137342,0.5651829465679161,0.5605460795207344,0.5556728701573383,0.5505626906917789,0.5452151808854204,0.5396302543049967,0.5338081041051866,0.5277492083199807,0.5214543346312798,0.5149245445739105,0.5081611971498724,0.5011659518398869,0.49394077099777095,0.4864879216080535,0.47880997639400064,0.4709098142658797,0.4627906200863701,0.45445588372332574,0.4459093983751061,0.43715525816680056,0.4281978550080656,0.41904187469756327,0.409692292273204,0.4001543666170379,0.39043363431041483,0.38053590272737087,0.37046724237348294,0.3602339784933106,0.34984268195800694,0.33930015943624503,0.32861344287110966,0.317789778302176,0.3068366140601711,0.29576158835206284,0.28457251627127583,0.2732773762765249,0.26188429615898673,0.25040153850359564,0.2388374856787117,0.2272006244183791,0.21549953005560266,0.20374285045395893,0.19193928969653568,0.180097591593196,0.1682265230367051,0.15633485722049884,0.14443135675709623,0.13252475675592196,0.12062374789412716,0.1087369594951117,0.09687294265853541,0.08504015351234151,0.07324693663834353,0.06150150870408916,0.04981194235617681,0.03818615045246215,0.02663187069440087,0.015156650702569162,0.0037678335912318998,-0.007527455893549226,-0.01872232463260755,-0.029810123769348464,-0.040784460684702914,-0.05163921025191649,-0.06236852531967317,-0.07296684638701574,-0.0834289104304729,-0.09374975884007614,-0.10392474443436484,-0.11394953753846393,-0.12382013110838237,-0.13353284488390701,-0.1430843285654094,-0.15247156402189174,-0.1616918665344634,-0.1707428850712248,-0.1796226015894314,-0.18832932936748745,-0.19686171037699293,-0.20521871171195658,-0.21339962109843633,-0.22140404151332269,-0.22923188494493185,-0.23688336532818555,-0.24435899068407185,-0.2516595544941579,-0.2587861263513695,-0.26574004194378337,-0.2725228924409184,-0.27913651335544215,-0.28558297294778984,-0.2918645602389471,-0.29798377270380855,-0.30394330372016903,-0.3097460298380801,-0.3153949979292072,-0.3208934122872824,-0.3262446217554602,-0.33145210694013416,-0.3365194675646894,-0.34145041003938403,-0.3462487353332775,-0.3509183272033974,-0.35546314081398905,-0.3598871918001512,-0.3641945458430123,-0.36838930878726484,-0.3724756173003051,-0.376457630089733,-0.38033951971069413,-0.38412546496459127,-0.38781964387221607,-0.39142622723900117,-0.3949493728515347,-0.39839322030027535,-0.4017618863761787,-0.40505946099677637,-0.40829000363423296,-0.41145754019828223,-0.41456606031170956,-0.417619514941264,-0.4206218143674966,-0.42357682645443434,-0.4264883751548258,-0.42936023919770333,-0.4321961509216034,-0.43499979520534987,-0.43777480842729494,-0.4405247773796747,-0.44325323807457634,-0.44596367438661555,-0.44865951647072255,-0.45134413887416325,-0.4540208582623484,-0.4566929307116027,-0.45936354854377454,-0.46203583665931486,-0.46471284831896303,-0.46739756036280783,-0.47009286787290444,-0.4728015782405182,-0.47552640457846757,-0.47826995848281,-0.48103474219991943,-0.48382314022028744,-0.4866374102940884,-0.48947967392180514,-0.4923519064169878,-0.495255926589408,-0.4981933860610902,-0.5011657582893926,-0.504174327423606,-0.5072201770758441,-0.5103041790470458,-0.5134269821048041,-0.5165890009667651,-0.519790405613751,-0.5230311110190571,-0.5263107674089846,-0.5296287511931734,-0.532984156658477,-0.5363757884799518,-0.5398021551313802,-0.5432614633110192,-0.5467516134737079,-0.5502701965273148,-0.553814491760846,-0.557381466085015,-0.5609677746434475,-0.5645697628246445,-0.5681834697040803,-0.5718046329497647,-0.5754286952079867,-0.5790508119645813,-0.5826658608702834,-0.5862684525180492,-0.5898529426524072,-0.593413445777215,-0.5969438501143943,-0.600437833854018,-0.6038888826254468,-0.6072903081099706,-0.6106352677075136,-0.6139167851633242,-0.6171277720551215,-0.6202610500368321,-0.6233093737308908,-0.6262654541546662,-0.6291219825584269,-0.6318716545496488,-0.6345071943864812,-0.6370213793374718,-0.6394070640172139,-0.6416572046118317,-0.6437648829045358,-0.6457233300117943,-0.6475259497511395,-0.6491663415682735,-0.6506383229445702,-0.6519359512020537,-0.6530535446333305,-0.6539857028927323,-0.6547273265782357,-0.6552736359250083,-0.6556201885347556,-0.6557628960730252,-0.6556980398707905,-0.6554222853746002,-0.65493269540606,-0.6542267422025981,-0.6533023182117254,-0.6521577456248616,-0.6507917846739989,-0.6492036407326308,-0.6473929702346702,-0.6453598853961878,-0.6431049577332985,-0.6406292203833098,-0.6379341692238144,-0.6350217627740701,-0.6318944208803384,-0.628555022202593,-0.6250069005086881,-0.621253839770605,-0.6173000680703696,-0.6131502503374527,-0.6088094799343647,-0.6042832691069316,-0.5995775383385206,-0.5946986046633628,-0.5896531689806764,-0.5844483023997019,-0.5790914316616319,-0.5735903236985106,-0.5679530693782299,-0.5621880664819011,-0.5563040019881521,-0.5503098337560618,-0.5442147716751176,-0.5380282583350031,-0.531759949295646,-0.5254196930563817,-0.5190175107909187,-0.5125635758836138,-0.5060681933173306,-0.4995417789793386,-0.4929948389287122,-0.4864379486474313,-0.4798817323144253,-0.4733368421579387,-0.46681393792186027,-0.4603236664618175,-0.4538766414996553,-0.44748342357900434,-0.44115450024959396,-0.4349002664886947,-0.42873100537129555,-0.422656869010314,-0.41668785978580386,-0.4108338118803125,-0.40510437314834585,-0.399508987356844,-0.3940568768262632,-0.38875702548619684,-0.38361816234926016,-0.3786487454082167,-0.3738569459703848,-0.3692506334455871,-0.3648373605936234,-0.36062434923431436,-0.35661847644125794,-0.3528262612608522,-0.3492538520025306,-0.34590701414389075,-0.3427911188967299,-0.3399111324786304,-0.3372716061234969,-0.3348766668573025,-0.3327300090733017,-0.33083488695311175,-0.3291941077832344,-0.3278100262121835,-0.3266845394887788,-0.32581908372348206,-0.32521463122082067,-0.3248716889287971,-0.324790298035999,-0.3249700347395311,-0.3254100122178466,-0.32610888384434744,-0.3270648476527544,-0.32827565204695025,-0.3297386027597568,-0.3314505710705102,-0.33340800326202913,-0.3356069312698148,-0.3380429844813563,-0.3407114026499315,-0.343607049863125,-0.3467244294698371,-0.3500576998491927,-0.3536006909049066,-0.3573469211798375,-0.36128961549285005,-0.36542172299751813,-0.369735935563601,-0.3742247063939109,-0.378880268786821,-0.3836946549285166,-0.38865971459154525,-0.3937671336551329,-0.3990084524062651,-0.40437508358939217,-0.40985833017012924,-0.4154494027938553,-0.4211394369419618,-0.42691950979766874,-0.43278065683179706,-0.4387138881165968,-0.44471020437958825,-0.4507606128182801,-0.4568561426973858,-0.46298786073650117,-0.46914688628445717,-0.47532440627873956,-0.48151168998992094,-0.4877001035422422,-0.49388112420347247,-0.500046354460296,-0.5061875359046697,-0.5122965629307153,-0.5183654962225533,-0.5243865760313454,-0.5303522352516462,-0.5362551122803013,-0.5420880636227655,-0.5478441762372431,-0.5535167796240527,-0.5590994576332844,-0.5645860599259036,-0.5699707130278315,-0.575247830930369,-0.5804121251734589,-0.5854586143128009,-0.5903826326472184,-0.5951798380865212,-0.5998462190651598,-0.604378100410636,-0.6087721480426468,-0.6130253723729236,-0.6171351303289275,-0.6210991259464574,-0.6249154094150505,-0.6285823744363955,-0.6320987538487948,-0.6354636135398317,-0.6386763446122885,-0.6417366537330704,-0.6446445516944252,-0.6474003402919659,-0.6500045975520132,-0.6524581612909217,-0.6547621110951007,-0.6569177488983782,-0.6589265782613978,-0.6607902823986629,-0.662510701097325,-0.6640898067599028,-0.6655296797362993,-0.6668324830470092,-0.6680004366774739,-0.6690357916929979,-0.669940804353466,-0.6707177103408148,-0.671368699276072,-0.6718958897633148,-0.6723013051354899,-0.6725868500133042,-0.6727542878324988,-0.6728052195325478,-0.6727410635313775,-0.6725630370482303,-0.6722721388790815,-0.6718691337742784,-0.6713545385215878,-0.6707286097846485,-0.6699913337653766,-0.6691424177661708,-0.6681812836564632,-0.6671070631937001,-0.6659185951866604,-0.6646144245227728,-0.663192803029709,-0.6616516920945159,-0.6599887669946058,-0.6582014229072173,-0.6562867824860046,-0.6542417048417715,-0.6520627958259376,-0.6497464195668267,-0.6472887111510711,-0.6446855902948015,-0.641932775908514,-0.6390258014990002,-0.6359600312740916,-0.6327306767626255,-0.6293328138421264,-0.6257614001321103,-0.6220112926427452,-0.6180772655149216,-0.6139540277692102,-0.6096362410462457,-0.6051185372470784,-0.6003955359248416,-0.5954618613662259,-0.5903121593770837,-0.5849411137205196,-0.5793434620988076,-0.5735140116505709,-0.567447654004967,-0.5611393798698606,-0.5545842930739598,-0.5477776240557162,-0.5407147428558015,-0.5333911716065847,-0.5258025964559712,-0.5179448789278962,-0.5098140667723405,-0.5014064042832675,-0.49271834200465436,-0.4837465458266886,-0.4744879055788738,-0.4649395432296653,-0.4550988207663654,-0.4449633478405029,-0.434530989294953,-0.4237998726897539,-0.4127683959189333,-0.4014352349824695,-0.38979935195248255,-0.37786000315067386,-0.3656167475347141,-0.3530694552745242,-0.34021831648503104,-0.32706385006982824,-0.31360691262007295,-0.2998487073047396,-0.28579079268188773,-0.27143509135573224,-0.2567838984009017,-0.2418398894731973,-0.2266061285253041,-0.2110860750461379,-0.1952835907437221,-0.1792029455935808,-0.16284882317750243,-0.14622632524108053,-0.12934097540258854,-0.11219872195040675,-0.09480593967131884,-0.07716943065745513,-0.05929642404541469,-0.041194574647082934,-0.022871960437817977,-0.004337078873950827,0.014401157982118957,0.03333342954459619,0.052450014003767385,0.07174079684505547,0.09119528058426452,0.11080259570960133,0.13055151281520055,0.15043045590521092,0.17042751684204788,0.19053047090720215,0.21072679343803286,0.23100367749928546,0.2513480525436715,0.2717466040117404,0.2921857938174734,0.31265188166254093,0.333130947118998,0.353608912417346,0.374071565874366,0.39450458589293164,0.4148935654641354,0.43522403710051155,0.4554814981279007,0.4756514362625774,0.49571935539964435,0.5156708015383785,0.5354913887701899,0.5551668252551069,0.5746829391132288,0.5940257041583786,0.6131812654022349,0.6321359642584979,0.6508763633781639,0.6693892710487056,0.6876617650918925,0.705681216197109,0.7234353106293329,0.7409120722534009,0.7580998838188112,0.7749875074520697,0.7915641043064735,0.8078192533222174,0.8237429690528103,0.839325718516967,0.8545584370383971,0.8694325430392255,0.8839399517561463,0.8980730878518092,0.9118248968973633,0.9251888557055189,0.9381589814969203,0.9507298398860563,0.9628965516763343,0.9746547984573232,0.9860008270005111,0.9969314524532052,1.0074440603334336,1.0175366073318706,1.0272076209298973,1.0364561978459077,1.045282001324894,1.0536852572891646,1.061666749370773,1.0692278128488428,1.0763703275174759,1.0830967095123147,1.0894099021260988,1.095313365645686,1.1008110662450272,1.1059074639638626,1.110607499771897,1.1149165816676487,1.118840569747133,1.1223857602197442,1.1255588683553739,1.128367010271165,1.1308176834357526,1.1329187458647274,1.1346783940558662,1.1361051396565678,1.1372077848176927,1.1379953962862408,1.1384772783725254,1.138662944871116,1.1385620899676456,1.1381845582504668,1.1375403140208815,1.1366394100345596,1.1354919557526333,1.1341080852551735,1.1324979250331295,1.1306715618089904,1.1286390104777246,1.1264101823219248,1.123994853700035,1.121402635322519,1.1186429421652122,1.115724964139314,1.1126576376911126,1.1094496184189377,1.1061092547259184,1.1026445626017785,1.0990632016876616,1.0953724526948385,1.0915791961777848,1.0876898927346514,1.083710564767079,1.0796467798466425,1.0755036356635939,1.0712857466066223,1.0669972320878518,1.0626417066541283,1.0582222718572725,1.0537415099155445,1.0492014792439668,1.0446037118449154,1.0399492124804088,1.0352384596144188,1.0304714081675141,1.025647494044011,1.0207656403235414,1.0158242650809661,1.010821290867218,1.0057541558225702,1.0006198263326167,0.9954148111941127,0.9901351773170642,0.9847765669428347,0.9793342163052122,0.9738029756989307,0.9681773309659124,0.9624514263801923,0.9566190888711957,0.9506738535393447,0.944608990441728,0.9384175326067329,0.9320923052068896,0.9256259558163288,0.9190109856816665,0.9122397819175111,0.9053046505173524,0.8981978500674245,0.8909116260553182,0.8834382456618805,0.875770032915605,0.8678994040828275,0.8598189031755016,0.8515212374786459,0.8429993130037999,0.8342462697479017,0.8252555166085235,0.8160207658028523,0.806536066643,0.7967958385147862,0.7867949029015351,0.776528514301084,0.7659923898943244,0.755182737825427,0.7440962839479366,0.732730296885467,0.7210826112631401,0.7091516489859166,0.696936438446109,0.684436631524876,0.6716525182536579,0.6585850390442249,0.6452357944245837,0.6316070521965902,0.6177017519254921,0.6035235067283837,0.5890766023752314,0.5743659936969605,0.559397298283788,0.5441767875125468,0.5287113749886959,0.5130086024655721,0.4970766232859972,0.48092418344154053,0.46456060038513014,0.4479957397007195,0.4312399897096748,0.41430423414567363,0.39719982308551327,0.3799385423131566,0.3625325812730317,0.3449944997921517,0.32733719377534,0.3095738600597513,0.2917179605924689,0.27378318610945657,0.2557834195231065,0.23773269923491908,0.21964518257707327,0.2015351095663903,0.18341676714546484,0.16530445409200623,0.14721244677020984,0.1291549658627589,0.11114614419626459,0.09319999578098717,N
5,0.25370642443653835,0.26062630594898484,0.2675294495004593,0.27441149008037924,0.28126818757457206,0.2880954361101319,0.2948892729386946,0.30164588678124493,0.30836162555800983,0.3150330034381593,0.3216567071560781,0.3282296015487194,0.3347487342726734,0.3412113396674439,0.34761484174420204,0.3539568562812743,0.3602351919938929,0.36644785074491165,0.3725930267910924,0.3786691050808648,0.3846746586092613,0.39060844483063484,0.3964694011574423,0.4022566395940676,0.4079694405380964,0.4136072457707029,0.41916965068572215,0.42465639582686127,0.4300673577788459,0.43540253944207624,0.4406620597494798,0.44584614290086544,0.4509551071527188,0.45598935317787215,0.4609493520507919,0.4658356329497608,0.47064877063918553,0.47538937277020743,0.48005806707275506,0.48465548854335655,0.4891822667050421,0.4936390129889077,0.49802630831278627,0.502344690949736,0.5065946447387608,0.5107765876594055,0.5148908608230782,0.5189377179564716,0.522917315410506,0.5268297026955129,0.5306748135790286,0.5344524578115842,0.5381623135066179,0.5418039201674022,0.5453766723890623,0.5488798142950522,0.5523124347327353,0.5556734632204088,0.558961666666466,0.562175646901541,0.5653138390206162,0.5683745104978558,0.5713557610714762,0.5742555234242205,0.5770715646453294,0.5798014884265498,0.5824427379785514,0.5849925996785118,0.5874482074135229,0.589806547549461,0.5920644644962003,0.5942186668742222,0.5962657342464261,0.5982021243446165,0.6000241807611288,0.6017281411100528,0.60331014562115,0.6047662460951819,0.6060924151911964,0.6072845560544375,0.6083385122589617,0.6092500780067787,0.6100150085602951,0.610629030913777,0.611087854670781,0.6113871830622839,0.6115227240768937,0.6114902017077093,0.611285367287939,0.6109040108576658,0.6103419725377418,0.6095951539214685,0.6086595294729088,0.6075311578955421,0.6062061934565005,0.6046808972720711,0.6029516485360743,0.6010149556498826,0.5988674672313152,0.5965059829949886,0.5939274644713386,0.5911290455106037,0.5881080425405911,0.5848619645720765,0.5813885229345406,0.5776856407096029,0.5737514618413897,0.5695843599137342,0.5651829465679161,0.5605460795207344,0.5556728701573383,0.5505626906917789,0.5452151808854204,0.5396302543049967,0.5338081041051866,0.5277492083199807,0.5214543346312798,0.5149245445739105,0.5081611971498724,0.5011659518398869,0.49394077099777095,0.4864879216080535,0.47880997639400064,0.4709098142658797,0.4627906200863701,0.45445588372332574,0.4459093983751061,0.43715525816680056,0.4281978550080656,0.41904187469756327,0.409692292273204,0.4001543666170379,0.39043363431041483,0.38053590272737087,0.37046724237348294,0.3602339784933106,0.34984268195800694,0.33930015943624503,0.32861344287110966,0.317789778302176,0.3068366140601711,0.29576158835206284,0.28457251627127583,0.2732773762765249,0.26188429615898673,0.25040153850359564,0.2388374856787117,0.2272006244183791,0.21549953005560266,0.20374285045395893,0.19193928969653568,0.180097591593196,0.1682265230367051,0.15633485722049884,0.14443135675709623,0.13252475675592196,0.12062374789412716,0.1087369594951117,0.09687294265853541,0.08504015351234151,0.07324693663834353,0.06150150870408916,0.04981194235617681,0.03818615045246215,0.02663187069440087,0.015156650702569162,0.0037678335912318998,-0.007527455893549226,-0.01872232463260755,-0.029810123769348464,-0.040784460684702914,-0.05163921025191649,-0.06236852531967317,-0.07296684638701574,-0.0834289104304729,-0.09374975884007614,-0.10392474443436484,-0.11394953753846393,-0.12382013110838237,-0.13353284488390701,-0.1430843285654094,-0.15247156402189174,-0.1616918665344634,-0.1707428850712248,-0.1796226015894314,-0.18832932936748745,-0.19686171037699293,-0.20521871171195658,-0.21339962109843633,-0.22140404151332269,-0.22923188494493185,-0.23688336532818555,-0.24435899068407185,-0.2516595544941579,-0.2587861263513695,-0.26574004194378337,-0.2725228924409184,-0.27913651335544215,-0.28558297294778984,-0.2918645602389471,-0.29798377270380855,-0.30394330372016903,-0.3097460298380801,-0.3153949979292072,-0.3208934122872824,-0.3262446217554602,-0.33145210694013416,-0.3365194675646894,-0.34145041003938403,-0.3462487353332775,-0.3509183272033974,-0.35546314081398905,-0.3598871918001512,-0.3641945458430123,-0.36838930878726484,-0.3724756173003051,-0.376457630089733,-0.38033951971069413,-0.38412546496459127,-0.38781964387221607,-0.39142622723900117,-0.3949493728515347,-0.39839322030027535,-0.4017618863761787,-0.40505946099677637,-0.40829000363423296,-0.41145754019828223,-0.41456606031170956,-0.417619514941264,-0.4206218143674966,-0.42357682645443434,-0.4264883751548258,-0.42936023919770333,-0.4321961509216034,-0.43499979520534987,-0.43777480842729494,-0.4405247773796747,-0.44325323807457634,-0.44596367438661555,-0.44865951647072255,-0.45134413887416325,-0.4540208582623484,-0.4566929307116027,-0.45936354854377454,-0.46203583665931486,-0.46471284831896303,-0.46739756036280783,-0.47009286787290444,-0.4728015782405182,-0.47552640457846757,-0.47826995848281,-0.48103474219991943,-0.48382314022028744,-0.4866374102940884,-0.48947967392180514,-0.4923519064169878,-0.495255926589408,-0.4981933860610902,-0.5011657582893926,-0.504174327423606,-0.5072201770758441,-0.5103041790470458,-0.5134269821048041,-0.5165890009667651,-0.519790405613751,-0.5230311110190571,-0.5263107674089846,-0.5296287511931734,-0.532984156658477,-0.5363757884799518,-0.5398021551313802,-0.5432614633110192,-0.5467516134737079,-0.5502701965273148,-0.553814491760846,-0.557381466085015,-0.5609677746434475,-0.5645697628246445,-0.5681834697040803,-0.5718046329497647,-0.5754286952079867,-0.5790508119645813,-0.5826658608702834,-0.5862684525180492,-0.5898529426524072,-0.593413445777215,-0.5969438501143943,-0.600437833854018,-0.6038888826254468,-0.6072903081099706,-0.6106352677075136,-0.6139167851633242,-0.6171277720551215,-0.6202610500368321,-0.6233093737308908,-0.6262654541546662,-0.6291219825584269,-0.6318716545496488,-0.6345071943864812,-0.6370213793374718,-0.6394070640172139,-0.6416572046118317,-0.6437648829045358,-0.6457233300117943,-0.6475259497511395,-0.6491663415682735,-0.6506383229445702,-0.6519359512020537,-0.6530535446333305,-0.6539857028927323,-0.6547273265782357,-0.6552736359250083,-0.6556201885347556,-0.6557628960730252,-0.6556980398707905,-0.6554222853746002,-0.65493269540606,-0.6542267422025981,-0.6533023182117254,-0.6521577456248616,-0.6507917846739989,-0.6492036407326308,-0.6473929702346702,-0.6453598853961878,-0.6431049577332985,-0.6406292203833098,-0.6379341692238144,-0.6350217627740701,-0.6318944208803384,-0.628555022202593,-0.6250069005086881,-0.621253839770605,-0.6173000680703696,-0.6131502503374527,-0.6088094799343647,-0.6042832691069316,-0.5995775383385206,-0.5946986046633628,-0.5896531689806764,-0.5844483023997019,-0.5790914316616319,-0.5735903236985106,-0.5679530693782299,-0.5621880664819011,-0.5563040019881521,-0.5503098337560618,-0.5442147716751176,-0.5380282583350031,-0.531759949295646,-0.5254196930563817,-0.5190175107909187,-0.5125635758836138,-0.5060681933173306,-0.4995417789793386,-0.4929948389287122,-0.4864379486474313,-0.4798817323144253,-0.4733368421579387,-0.46681393792186027,-0.4603236664618175,-0.4538766414996553,-0.44748342357900434,-0.44115450024959396,-0.4349002664886947,-0.42873100537129555,-0.422656869010314,-0.41668785978580386,-0.4108338118803125,-0.40510437314834585,-0.399508987356844,-0.3940568768262632,-0.38875702548619684,-0.38361816234926016,-0.3786487454082167,-0.3738569459703848,-0.3692506334455871,-0.3648373605936234,-0.36062434923431436,-0.35661847644125794,-0.3528262612608522,-0.3492538520025306,-0.34590701414389075,-0.3427911188967299,-0.3399111324786304,-0.3372716061234969,-0.3348766668573025,-0.3327300090733017,-0.33083488695311175,-0.3291941077832344,-0.3278100262121835,-0.3266845394887788,-0.32581908372348206,-0.32521463122082067,-0.3248716889287971,-0.324790298035999,-0.3249700347395311,-0.3254100122178466,-0.32610888384434744,-0.3270648476527544,-0.32827565204695025,-0.3297386027597568,-0.3314505710705102,-0.33340800326202913,-0.3356069312698148,-0.3380429844813563,-0.3407114026499315,-0.343607049863125,-0.3467244294698371,-0.3500576998491927,-0.3536006909049066,-0.3573469211798375,-0.36128961549285005,-0.36542172299751813,-0.369735935563601,-0.3742247063939109,-0.378880268786821,-0.3836946549285166,-0.38865971459154525,-0.3937671336551329,-0.3990084524062651,-0.40437508358939217,-0.40985833017012924,-0.4154494027938553,-0.4211394369419618,-0.42691950979766874,-0.43278065683179706,-0.4387138881165968,-0.44471020437958825,-0.4507606128182801,-0.4568561426973858,-0.46298786073650117,-0.46914688628445717,-0.47532440627873956,-0.48151168998992094,-0.4877001035422422,-0.49388112420347247,-0.500046354460296,-0.5061875359046697,-0.5122965629307153,-0.5183654962225533,-0.5243865760313454,-0.5303522352516462,-0.5362551122803013,-0.5420880636227655,-0.5478441762372431,-0.5535167796240527,-0.5590994576332844,-0.5645860599259036,-0.5699707130278315,-0.575247830930369,-0.5804121251734589,-0.5854586143128009,-0.5903826326472184,-0.5951798380865212,-0.5998462190651598,-0.604378100410636,-0.6087721480426468,-0.6130253723729236,-0.6171351303289275,-0.6210991259464574,-0.6249154094150505,-0.6285823744363955,-0.6320987538487948,-0.6354636135398317,-0.6386763446122885,-0.6417366537330704,-0.6446445516944252,-0.6474003402919659,-0.6500045975520132,-0.6524581612909217,-0.6547621110951007,-0.6569177488983782,-0.6589265782613978,-0.6607902823986629,-0.662510701097325,-0.6640898067599028,-0.6655296797362993,-0.6668324830470092,-0.6680004366774739,-0.6690357916929979,-0.669940804353466,-0.6707177103408148,-0.671368699276072,-0.6718958897633148,-0.6723013051354899,-0.6725868500133042,-0.6727542878324988,-0.6728052195325478,-0.6727410635313775,-0.6725630370482303,-0.6722721388790815,-0.6718691337742784,-0.6713545385215878,-0.6707286097846485,-0.6699913337653766,-0.6691424177661708,-0.6681812836564632,-0.6671070631937001,-0.6659185951866604,-0.6646144245227728,-0.663192803029709,-0.6616516920945159,-0.6599887669946058,-0.6582014229072173,-0.6562867824860046,-0.6542417048417715,-0.6520627958259376,-0.6497464195668267,-0.6472887111510711,-0.6446855902948015,-0.641932775908514,-0.6390258014990002,-0.6359600312740916,-0.6327306767626255,-0.6293328138421264,-0.6257614001321103,-0.6220112926427452,-0.6180772655149216,-0.6139540277692102,-0.6096362410462457,-0.6051185372470784,-0.6003955359248416,-0.5954618613662259,-0.5903121593770837,-0.5849411137205196,-0.5793434620988076,-0.5735140116505709,-0.567447654004967,-0.5611393798698606,-0.5545842930739598,-0.5477776240557162,-0.5407147428558015,-0.5333911716065847,-0.5258025964559712,-0.5179448789278962,-0.5098140667723405,-0.5014064042832675,-0.49271834200465436,-0.4837465458266886,-0.4744879055788738,-0.4649395432296653,-0.4550988207663654,-0.4449633478405029,-0.434530989294953,-0.4237998726897539,-0.4127683959189333,-0.4014352349824695,-0.38979935195248255,-0.37786000315067386,-0.3656167475347141,-0.3530694552745242,-0.34021831648503104,-0.32706385006982824,-0.31360691262007295,-0.2998487073047396,-0.28579079268188773,-0.27143509135573224,-0.2567838984009017,-0.2418398894731973,-0.2266061285253041,-0.2110860750461379,-0.1952835907437221,-0.1792029455935808,-0.16284882317750243,-0.14622632524108053,-0.12934097540258854,-0.11219872195040675,-0.09480593967131884,-0.07716943065745513,-0.05929642404541469,-0.041194574647082934,-0.022871960437817977,-0.004337078873950827,0.014401157982118957,0.03333342954459619,0.052450014003767385,0.07174079684505547,0.09119528058426452,0.11080259570960133,0.13055151281520055,0.15043045590521092,0.17042751684204788,0.19053047090720215,0.21072679343803286,0.23100367749928546,0.2513480525436715,0.2717466040117404,0.2921857938174734,0.31265188166254093,0.333130947118998,0.353608912417346,0.374071565874366,0.39450458589293164,0.4148935654641354,0.43522403710051155,0.4554814981279007,0.4756514362625774,0.49571935539964435,0.5156708015383785,0.5354913887701899,0.5551668252551069,0.5746829391132288,0.5940257041583786,0.6131812654022349,0.6321359642584979,0.6508763633781639,0.6693892710487056,0.6876617650918925,0.705681216197109,0.7234353106293329,0.7409120722534009,0.7580998838188112,0.7749875074520697,0.7915641043064735,0.8078192533222174,0.8237429690528103,0.839325718516967,0.8545584370383971,0.8694325430392255,0.8839399517561463,0.8980730878518092,0.9118248968973633,0.9251888557055189,0.9381589814969203,0.9507298398860563,0.9628965516763343,0.9746547984573232,0.9860008270005111,0.9969314524532052,1.0074440603334336,1.0175366073318706,1.0272076209298973,1.0364561978459077,1.045282001324894,1.0536852572891646,1.061666749370773,1.0692278128488428,1.0763703275174759,1.0830967095123147,1.0894099021260988,1.095313365645686,1.1008110662450272,1.1059074639638626,1.110607499771897,1.1149165816676487,1.118840569747133,1.1223857602197442,1.1255588683553739,1.128367010271165,1.1308176834357526,1.1329187458647274,1.1346783940558662,1.1361051396565678,1.1372077848176927,1.1379953962862408,1.1384772783725254,1.138662944871116,1.1385620899676456,1.1381845582504668,1.1375403140208815,1.1366394100345596,1.1354919557526333,1.1341080852551735,1.1324979250331295,1.1306715618089904,1.1286390104777246,1.1264101823219248,1.123994853700035,1.121402635322519,1.1186429421652122,1.115724964139314,1.1126576376911126,1.1094496184189377,1.1061092547259184,1.1026445626017785,1.0990632016876616,1.0953724526948385,1.0915791961777848,1.0876898927346514,1.083710564767079,1.0796467798466425,1.0755036356635939,1.0712857466066223,1.0669972320878518,1.0626417066541283,1.0582222718572725,1.0537415099155445,1.0492014792439668,1.0446037118449154,1.0399492124804088,1.0352384596144188,1.0304714081675141,1.025647494044011,1.0207656403235414,1.0158242650809661,1.010821290867218,1.0057541558225702,1.0006198263326167,0.9954148111941127,0.9901351773170642,0.9847765669428347,0.9793342163052122,0.9738029756989307,0.9681773309659124,0.9624514263801923,0.9566190888711957,0.9506738535393447,0.944608990441728,0.9384175326067329,0.9320923052068896,0.9256259558163288,0.9190109856816665,0.9122397819175111,0.9053046505173524,0.8981978500674245,0.8909116260553182,0.8834382456618805,0.875770032915605,0.8678994040828275,0.8598189031755016,0.8515212374786459,0.8429993130037999,0.8342462697479017,0.8252555166085235,0.8160207658028523,0.806536066643,0.7967958385147862,0.7867949029015351,0.776528514301084,0.7659923898943244,0.755182737825427,0.7440962839479366,0.732730296885467,0.7210826112631401,0.7091516489859166,0.696936438446109,0.684436631524876,0.6716525182536579,0.6585850390442249,0.6452357944245837,0.6316070521965902,0.6177017519254921,0.6035235067283837,0.5890766023752314,0.5743659936969605,0.559397298283788,0.5441767875125468,0.5287113749886959,0.5130086024655721,0.4970766232859972,0.48092418344154053,0.46456060038513014,0.4479957397007195,0.4312399897096748,0.41430423414567363,0.39719982308551327,0.3799385423131566,0.3625325812730317,0.3449944997921517,0.32733719377534,0.3095738600597513,0.2917179605924689,0.27378318610945657,0.2557834195231065,0.23773269923491908,0.21964518257707327,0.2015351095663903,0.18341676714546484,0.16530445409200623,0.14721244677020984,0.1291549658627589,0.11114614419626459,0.09319999578098717,0.0753303861850714,0.057551004323315155,0.03987533570625089,0.022316637203031297,0.004887913376129091,-0.012398105590646918,-0.02952898438392268,-0.04649260148005963,-0.06327716649236295,-0.07987123597134488,-0.0962637277040474,-0.11244393354459226,-0.12840153079677846,-0.1441265921946194,-0.159609594559698,-0.1748414262221328,-0.18981339328561594,-0.20451722481645057,-0.21894507704212202,-0.23308953664875037,-0.2469436232622177,-0.2605007911869418,-0.27375493047591515,-0.2867003674206986,-0.29933186455196414,-0.3116446202132611,-0.32363426774591375,-0.3352968743268644,-0.34662893950458507,-0.35762739345757194,-0.36828959498848496,-0.37861332928768204,-0.3885968055104358,-0.39823865418308174,-0.4075379244329222,-0.4164940810602972,-0.4251070014863964,-0.43337697257414937,-0.44130468727916056,-0.4488912410891445,-0.45613812822228245,-0.46304723754364796,-0.4696208481508043,-0.4758616245988293,-0.4817726117508464,-0.4873572292260819,-0.49261926539962303,-0.49756287091308543,-0.5021925516672593,-0.5065131613039792,-0.5105298933588817,-0.5142482735654849,-0.5176741528878913,-0.5208137015589465,-0.523673404004938,-0.5262600543693652,-0.5285807523524935,-0.5306428991084565,-0.5324541929722276,-0.5340226248426166,-0.5353564730888679,-0.5364642978533325,-0.537354934632458,-0.5380374870632563,-0.5385213188780928,-0.5388160449826467,-0.5389315216060022,-0.5388778355057502,-0.538665292240998,-0.5383044035141582,-0.5378058735679123,-0.5371805846440498,-0.5364395815341174,-0.5355940552472225,-0.5346553258165416,-0.5336348242887401,-0.5325440739604672,-0.5313946709164324,-0.5301982639070016,-0.5289665336055595,-0.5277111712970878,-0.5264438570527785,-0.5251762374417814,-0.5239199028283972,-0.5226863643078001,-0.5214870303446905,-0.5203331831833246,-0.5192359550885196,-0.5182063044753443,-0.517254992001639,-0.5163925567068947,-0.5156292922667652,-0.5149752234244566,-0.5144400826787704,-0.5140332873180972,-0.5137639168657427,-0.5136406909871208,-0.5136719479345057,-0.513865623624652,-0.5142292314226632,-0.5147698426871804,-0.5154940681534183,-0.5164080402440997,-0.5175173963670997,-0.5188272632351939,-0.5203422422689932,-0.5220663961652017,-0.5240032366844969,-0.5261557136884631,-0.5285262054743842,-0.5311165104622566,-0.5339278402390015,-0.5369608139327202,-0.540215453927496,-0.5436911829592105,-0.5473868225936395,-0.5513005930555318,-0.5554301144125284,-0.5597724091408607,-0.5643239060487908,-0.5690804454963765,-0.5740372858949916,-0.5791891115067813,-0.5845300415192114,-0.5900536403319412,-0.5957529290351873,-0.6016203980889798,-0.6076480211582902,-0.613827270017538,-0.6201491304869311,-0.6266041194013896,-0.6331823025590988,-0.6398733135539376,-0.6466663734471998,-0.6535503112729322,-0.660513585312706,-0.6675443050303753,-0.6746302536160556,-0.6817589111426334,-0.6889174782941565,-0.6960929005831715,-0.7032718930206242,-0.7104409652409657,-0.7175864470347434,-0.7246945141981797,-0.7317512146567003,-0.7387424948647067,-0.7456542264455449,-0.7524722329973049,-0.7591823170251026,-0.7657702869859784,-0.7722219843806797,-0.7785233107870062,-0.7846602547764409,-0.7906189187052014,-0.7963855453456942,-0.801946544293059,-0.8072885181093746,-0.8123982881938655,-0.8172629203355996,-0.8218697498759745,-0.826206406434725,-0.8302608381786714,-0.8340213355866846,-0.8374765546397218,-0.8406155393863394,-0.8434277438482699,-0.8459030531952104,-0.848031804093282,-0.8498048041642137,-0.851213350518123,-0.8522492472912133,-0.8529048220964603,-0.85317294133258,-0.8530470243250482,-0.8525210562382991,-0.8515895996739479,-0.8502478049126792,-0.8484914187872921,-0.8463167921308266,-0.8437208857155953,-0.8407012746527399,-0.8372561512590196,-0.8333843263444553,-0.8290852288406195,-0.824358903758099,-0.8192060085165929,-0.813627807640424,-0.8076261657746542,-0.8012035390470409,-0.7943629648540549,-0.7871080500870375,-0.7794429577699908,-0.7713723921596678,-0.7629015824277561,-0.7540362649923047,-0.7447826645193434,-0.735147473685296,-0.7251378318520173,-0.7147613027526202,-0.7040258512379586,-0.6929398191955413,-0.6815119008130496,-0.6697511173166225,-0.6576667912686581,-0.6452685205544363,-0.6325661522383476,-0.6195697564456634,-0.6062896003877675,-0.5927361226644039,-0.5789199079973288,-0.5648516625244056,-0.5505421897508125,-0.5360023672583538,-0.521243124291439,-0.506275420335403,-0.4911102247828421,-0.47575849776350004,-0.46023117220366666,-0.44453913718034416,-0.42869322262441306,-0.4127041853960388,-0.39658269672662494,-0.3803393310124007,-0.3639845559384892,-0.3475287238918704,-0.3309820645976801,N
