0,-0.12440198554855367,-0.12021116498984455,-0.11584505545254167,-0.1113177084021856,-0.10664328716655536,-0.10183604429605297,-0.09691029872529383,-0.09188041276929099,-0.08676076897962476,-0.08156574686819507,-0.07630969949944261,-0.07100692995861163,-0.06567166771426929,-0.06031804489253122,-0.05496007246615385,-0.049611616360710695,-0.044286373505144166,-0.03899784786784266,-0.03375932649934785,-0.0285838555941062,-0.02348421661822712,-0.018472902579072716,-0.013562094496919693,-0.008763638125826947,-0.004089020999204628,0.00045065010129438865,0.004844671175832325,0.009082762475668265,0.013155089328755164,0.01705228222300153,0.020765456078556753,0.02428622866349523,0.027606738080880138,0.030719659231476983,0.03361821918001289,0.036296211376352076,0.03874800866221198,0.04096857496787687,0.04295347561243379,0.04469888614045095,0.046201599627559056,0.0474590323818639,0.04846922797750071,0.049230859572972976,0.049743230474668214,0.05000627289908479,0.050020544873911076,0.049787225223939545,0.04930810662098609,0.04858558669883856,0.047622657222069716,0.04642289129655531,0.044990428649235734,0.04332995902944249,0.041446703756907524,0.039346395429783895,0.037035255855136756,0.03451997229324086,0.031807672060435416,0.028905895510576925,0.025822567480748397,0.02256596733190685,0.019144697658439923,0.01556765170434,0.01184397960125974,0.007983053606971121,0.003994432468889953,-0.00011217500626732001,-0.0043269470267086356,-0.008639986337166988,-0.013041358071188742,-0.017521127873962965,-0.02206940015113411,-0.026676356224957166,-0.031332292242119184,-0.036027656735921454,-0.04075308768052311,-0.04549944883262048,-0.050257865250976315,-0.05501975795412412,-0.05977687759230989,-0.06452133693361779,-0.06924564203422241,-0.07394272203014736,-0.07860595744792319,-0.0832292069972672,-0.08780683308472735,-0.09233372641543268,-0.09680532960866806,-0.10121765858775422,-0.1055673190742995,-0.10985151516997882,-0.1140680484118658,-0.11821530752602427,-0.12229224999756172,-0.1262983766687541,-0.13023370048274352,-0.1340987104009408,-0.1378943314374761,-0.1416218816736785,-0.14528302703947604,-0.14887973457664572,-0.1524142248308612,-0.15588892395534126,-0.15930641604845697,-0.16266939619077148,-0.16598062459353102,-0.16924288222046913,-0.17245892819779884,-0.17563145928332746,-0.17876307162461158,-0.1818562249978577,-0.1849132096837507,-0.18793611610344407,-0.1909268073074626,-0.19388689438214213,-0.19681771481235866,-0.1997203138155732,-0.20259542864054514,-0.20544347580434574,-0.20826454122344096,-0.2110583731785176,-0.21382437803830867,-0.21656161865484824,-0.2192688153312663,-0.2219443492533386,-0.22458626826745998,-0.2271922948804299,-0.22975983635035724,-0.23228599673302952,-0.23476759074418663,-0.23720115929521746,-0.23958298655779875,-0.24190911841185536,-0.24417538213087764,-0.24637740715902834,-0.24851064683555069,-0.2505704009236991,-0.2525518388036978,-0.25445002319204724,-0.25625993425278826,-0.25797649397005884,-0.25959459065539114,-0.2611091034676569,-0.2625149268283349,-0.2638069946198067,-0.26498030405965545,-0.266029939149401,-0.26695109360173164,-0.26773909315604727,-0.26838941719798814,-0.26889771960455344,-0.2692598487423925,-0.26947186655285194,-0.26953006666335844,-0.2694309914706925,-0.26917144814763616,-0.26874852353034395,-0.2681595978495679,-0.2674023572745525,-0.26647480524398626,-0.2653752725638352,-0.2641024262571885,-0.2626552771563908,-0.26103318623271954,-0.25923586966367607,-0.25726340264258885,-0.25511622193966477,-0.252795127227869,-0.2503012811910543,-0.2476362084355972,-0.24480179323042162,-0.24180027610370503,-0.23863424932775712,-0.23530665132654138,-0.2318207600430724,-0.22818018530646644,-0.22438886024075,-0.22045103175964442,-0.2163712501934405,-0.21215435809576255,-0.20780547827949913,-0.2033300011324486,-0.19873357126429747,-0.1940220735374234,-0.18920161853469142,-0.18427852751790552,-0.17925931693088537,-0.17415068250126997,-0.16895948299511132,-0.16369272367811605,-0.15835753953703058,-0.15296117831415035,-0.14751098340727398,-0.14201437668662475,-0.13647884127933185,-0.13091190437100964,-0.1253211200728015,-0.11971405240097444,-0.11409825841476706,-0.10848127155671461,-0.10287058523810788,-0.09727363671059586,-0.09169779126322075,-0.0861503267823871,-0.08063841871042077,-0.07516912543647536,-0.06974937415159971,-0.06438594719779872,-0.05908546893890637,-0.05385439317905072,-0.04869899115243337,-0.04362534010607555,-0.03863931249510688,-0.03374656580809529,-0.028952533037844674,-0.02426241381102537,-0.019681166187956456,-0.01521349914183416,-0.0108638657247013,-0.006636456925483938,-0.002535196223487378,0.0014362651611516362,0.005274552320411751,0.008976570016893833,0.01253950535180428,0.015960829748033548,0.019238300255594518,0.02236996018827206,0.02535413910186035,0.02818945212582566,0.0308747986616274,0.03340936046225765,0.035792599108816936,0.03802425290113115,0.04010433318052939,0.042033119936510696,0.04381115574371881,0.04543923575211899,0.046918391060417994,0.048249864204819796,0.04943507738920907,0.05047559501758855,0.05137308214786387,0.052129260279205246,0.052745861708522766,0.053224583605252083,0.05356704285348637,0.0537747325208017,0.05384898064664309,0.05379091198711769,0.05360141329167603,0.053281102528667974,0.052830302341915054,0.0522490180043454,0.05153692010902195,0.05069333210307825,0.04971722266505926,0.04860720295559498,0.047361528779334,0.045978107563139754,0.044454509945038835,0.04278798581081009,0.040975484645984335,0.039013679954487006,0.03689899739248272,0.03462764631454864,0.03219565447583849,0.029598905547395887,0.02683317903348101,0.02389419225507647,0.02077764412625173,0.017479260369901696,0.013994839749186921,0.01032030096170499,0.0064517299113888895,0.0023854270116513343,-0.0018820458852043156,-0.00635381927303731,-0.011032670763911297,-0.01592098115803676,-0.021020692164638945,-0.026333266073610678,-0.03185964761493683,-0.03760022825483219,-0.043554813193424184,-0.049722591278441024,-0.056102107993113375,-0.06269124167535228,-0.06948718313270236,-0.07648641878308521,-0.08368471740667066,-0.09107712057808626,-0.09865793684368407,-0.10642073968930987,-0.11435836931258553,-0.12246293818468665,-0.13072584037206955,-0.1391377645862478,-0.1476887109130671,-0.15636801113118687,-0.165164352500431,-0.17406580490694384,-0.18305985124836693,-0.19213342089777516,-0.20127292605208078,-0.2104643007868817,-0.21969304264807052,-0.22894425656955633,-0.23820270088268106,-0.24745283522260333,-0.2566788701598473,-0.26586481833369535,-0.27499454682665725,-0.2840518305632105,-0.2930204065486375,-0.301884028710477,-0.31062652305739286,-0.3192318429065842,-0.3276841239676747,-0.33596773903645666,-0.34406735203002176,-0.35196797115309036,-0.35965500103105424,-0.3671142936043473,-0.3743321975442551,-0.38129560600030393,-0.38799200253604443,-0.39440950507777106,-0.40053690767432093,-0.4063637199182578,-0.41188020392660907,-0.417077408753,-0.4219472020856018,-0.42648229914472585,-0.430676288743387,-0.4345236564415161,-0.4380198046926818,-0.4411610699247562,-0.4439447365403429,-0.4463690478035011,-0.4484332135653159,-0.4501374148311645,-0.45148280521608813,-0.45247150931096397,-0.45310661795792867,-0.45339218046881663,-0.4533331938573853,-0.4529355891424298,-0.45220621477017287,-0.4511528172472776,-0.4497840191110638,-0.448109294341381,-0.44613894129544895,-0.44388405327342306,-0.44135648685050544,-0.43856882809638603,-0.43553435678801283,-0.4322670087465637,-0.42878133645312017,-0.425092468083367,-0.42121606508782783,-0.4171682784646431,-0.4129657038907908,-0.40862533586221506,-0.40416452097471656,-0.39960091048620605,-0.39495241231328004,-0.39023714260599096,-0.3854733770318699,-0.3806795019034155,-0.3758739652901091,-0.37107522825339656,-0.36630171634286424,-0.361571771503007,-0.3569036045454711,-0.35231524832885025,-0.3478245117742346,-0.3434489348449236,-0.33920574461971825,-0.33511181257636796,-0.33118361318171324,-0.32743718387008985,-0.3238880864863472,-0.32055137027273967,-0.31744153648306545,-0.314572504706981,-0.31195758098309084,-0.3096094277726754,-0.3075400358543069,-0.30576069818402785,-0.3042819857565263,-0.3031137255052622,-0.30226498028255605,-0.30174403095454955,-0.30155836063766145,-0.30171464110004176,-0.30221872134777295,-0.3030756184058523,-0.30428951029481444,-0.305863731198926,-0.3078007688100179,-0.3101022638081023,-0.31276901142707353,-0.31580096506454436,-0.31919724190797294,-0.3229561305451132,-0.32707510051787825,-0.33155081377870504,-0.3363791380071221,-0.34155516173220274,-0.34707321119671336,-0.3529268689013032,-0.3591089937694021,-0.3656117428647614,-0.37242659458525096,-0.3795443732574645,-0.3869552750524655,-0.3946488951250967,-0.40261425586922195,-0.41083983619451603,-0.41931360174628396,-0.4280230359886801,-0.4369551720659697,-0.44609662536004807,-0.4554336266654158,-0.4649520558958172,-0.4746374762310653,-0.48447516861690504,-0.49445016653188695,-0.5045472909242319,-0.514751185215701,-0.5250463502807018,-0.535417179318696,-0.5458479925316605,-0.5563230715136623,-0.5668266932712684,-0.5773431638037729,-0.5878568511663282,-0.5983522179347627,-0.6088138530029005,-0.6192265026538079,-0.6295751008408118,-0.6398447986101333,-0.650020992608091,-0.6600893526209771,-0.670035848080977,-0.6798467734648869,-0.6895087725340122,-0.6990088613844455,-0.708334450272451,-0.7174733641745944,-0.726413862058091,-0.7351446548485797,-0.7436549220704202,-0.7519343271272491,-0.7599730312096239,-0.7677617058310272,-0.7752915439795528,-0.7825542698636904,-0.7895421472516486,-0.7962479864162999,-0.802665149674926,-0.8087875555001167,-0.8146096812089838,-0.820126564263417,-0.8253338021957064,-0.8302275511597839,-0.8348045231390548,-0.8390619818710743,-0.8429977375363737,-0.8466101402447039,-0.8498980723729125,-0.8528609398233956,-0.8554986622475321,-0.8578116622609445,-0.8598008537026494,-0.8614676290091166,-0.8628138457484575,-0.8638418123406386,-0.8645542730201159,-0.8649543921320397,-0.8650457378476037,-0.8648322653693885,-0.8643182997055182,-0.8635085180920791,-0.8624079321133574,-0.8610218695498056,-0.8593559560059377,-0.8574160963967316,-0.8552084563652546,-0.8527394436905421,-0.8500156897502753,-0.8470440311087699,-0.8438314912880391,-0.8403852627664203,-0.8367126892533028,-0.8328212482960078,-0.8287185342702452,-0.8244122417962712,-0.8199101496189256,-0.8152201049865349,-0.8103500085557023,-0.8053077998412259,-0.8001014432284306,-0.7947389145672532,-0.7892281883686834,-0.783577225620673,-0.7777939622323615,-0.771886298108915,-0.7658620868583024,-0.7597291261295693,-0.753495148574713,-0.7471678134192352,-0.7407546986253042,-0.7342632936311562,-0.7277009926475714,-0.7210750884953737,-0.7143927669799589,-0.7076611018032591,-0.7008870500000182,-0.6940774478712153,-0.6872390073881216,-0.6803783130438648,-0.6735018191241792,-0.6666158473676008,-0.6597265849965953,-0.6528400831078095,-0.6459622553996197,-0.6390988772069527,-0.6322555848216981,-0.6254378750841215,-0.6186511052217607,-0.6119004929050667,-0.60519111649827,-0.598527915491825,-0.5919156910933627,-0.5853591069417674,-0.5788626899093696,-0.5724308309627859,-0.5660677860549326,-0.559777677027562,-0.5535644925198278,-0.5474320888871929,-0.5413841911255335,-0.5354243937848371,-0.5295561618606648,-0.523782831657623,-0.5181076116148329,-0.512533583077367,-0.5070637009997225,-0.5017007945721759,-0.49644756776238286,-0.4913065997688141,-0.48628034539307896,-0.4813711353442237,-0.4765811764817004,-0.47191255199368476,-0.467367221504008,-0.4629470211031129,-0.45865366330162793,-0.454488736907981,-0.4504537068339626,-0.44654991383431464,-0.4427785741877849,-0.4391407793262351,-0.4356374954157042,-0.4322695628932175,-0.4290376959687189,-0.4259424821102119,-0.42298438153729967,-0.42016372674989155,-0.41748072211375875,-0.4149354435160769,-0.41252783809684945,-0.41025772406010586,-0.40812479057149503,-0.40612859774839344,-0.40426857674141087,-0.40254402990291477,-0.4009541310462393,-0.399497925807939,-0.3981743321250653,-0.3969821408369208,-0.39592001642357194,-0.39498649789621726,-0.3941799998518494,-0.3934988137015168,-0.3929411090830726,-0.39250493547239423,-0.3921882240072841,-0.391988789536087,-0.3919043328997375,-0.39193244345019285,-0.39207060180050013,-0.39231618279793345,-0.39266645871451406,-0.3931186026515178,-0.393669692150933,-0.39431671300371857,-0.3950565632476681,-0.39588605735073273,-0.39680193057332075,-0.3978008435003663,-0.39887938673602913,-0.40003408575753835,-0.4012614059255399,-0.4025577576468053,-0.40391950168324015,-0.4053429545994007,-0.4068243943391769,-0.4083600659209227,-0.4099461872390983,-0.4115789549594357,-0.41325455049373366,-0.4149691460396247,-0.41671891067003103,-0.4185000164565275,-0.4203086446104573,-0.42214099162538327,-0.4239932754043107,-0.42586174135506644,-0.42774266843726844,-0.4296323751444557,-0.43152722540567606,-0.4334236343935706,-0.43531807423037633,-0.4372070795848983,-0.439087253148591,-0.4409552709681168,-0.44280788760034473,-0.44464194105349475,-0.44645435748981116,-0.4482421556826734,-0.45000245123371924,-0.45173246055857547,-0.4534295046442351,-0.4550910125737592,-0.4567145248106494,-0.4582976962353191,-0.45983829892699285,-0.4613342246852587,-0.462783487286396,-0.4641842244704936,-0.4655346996567646,-0.46683330338777934,-0.46807855450820995,-0.4692691010857148,-0.47040372107700734,-0.471481322731637,-0.47250094471478365,-0.4734617559282228,-0.4743630550203401,-0.475204269593584,-0.47598495513033695,-0.4767047936610726,-0.4773635921929306,-0.47796128090924256,-0.47849791114693513,-0.4789736531584938,-0.4793887936662126,-0.4797437332193996,-0.48003898336968315,-0.480275163681185,-0.48045299858916646,-0.4805733141187444,-0.48063703447829986,-0.48064517854395417,-0.4805988562465585,-0.48049926486579275,-0.4803476852330236,-0.4801454778449291,-0.479894078891646,-0.47959499620742735,-0.4792498051580321,-0.4788601444814509,-0.47842771209483276,-0.47795426087930787,-0.4774415944607932,-0.4768915630079595,-0.4763060590608824,-0.4756870133973935,-0.47503639094814953,-0.4743561867746492,-0.4736484221174451,-0.4729151405159165,-0.4721584040055509,-0.4713802894024329,-0.4705828846781508,-0.4697682854229075,-0.4689385913996198,-0.46809590319592664,-0.46724231897438295,-0.46637993131356337,-0.4655108241340814,-0.46463706970673024,-0.46376072573709315,-0.4628838325159975,-0.4620084101239471,-0.4611364556795662,-0.4602699406245482,-0.4594108080398239,-0.4585609699896559,-0.4577223048921438,-0.4568966549162029,-0.4560858234064641,-0.4552915723387553,-0.45451561980986355,-0.4537596375654831,-0.45302524856773796,-0.45231402459891634,-0.45162748389694163,-0.45096708882290476,-0.45033424356302715,-0.44973029186172725,-0.4491565147798949,-0.448614128479827,-0.4481042820417535,-0.44762805530761546,-0.4471864567429222,-0.4467804213181081,-0.4464108084149753,-0.4460783997476711,-0.44578389727924533,-0.4455279211326182,-0.4453110075049984,-0.44513360657418954,-0.4449960803731481,-0.44489870063330406,-0.4448416466119851,-0.4448250028923155,-0.44484875712730076,-0.4449127977295492,-0.44501691152082506,-0.44516078130938713,-0.4453439833375194,-0.4455659845924415,-0.44582614001169046,-0.4461236895716651,-0.4464577552179824,-0.4468273376500914,-0.4472313130100437,-0.44766842947010643,-0.44813730367584503,-0.448636417063537,-0.4491641121131344,-0.44971858852978513,-0.45029789930011693,-0.45089994664389993,-0.4515224779334979,-0.45216308157337753,-0.45281918277590455,-0.4534880392583666,-0.4541667369552049,-0.45485218575840863,-0.45554111523649937,-0.4562300703743794,-0.4569154074503486,-0.4575932900825182,-0.4582596854086792,-0.4589103604549061,-0.45954087882539896,-0.4601465977642343,-0.4607226655688661,-0.4612640194180226,-0.46176538374382353,-0.4622212691889222,-0.4626259721152785,-0.4629735747141941,-0.463257945838625,-0.4634727425958729,-0.4636114126653841,-0.4636671973834532,-0.46363313570834874,-0.463502069108785,-0.4632666473497964,-0.4629193352127082,-0.462452420250152,-0.4618580216225078,-0.46112810000154003,-0.46025446856657626,-0.45922880515878994,-0.4580426656071631,-0.4566874981861987,-0.45515465919569487,-0.45343542968969974,-0.4515210333489842,-0.44940265544988034,-0.4470714628944214,-0.44451862528324265,-0.44173533698391826,-0.43871284011520223,-0.43544244837553703,-0.4319155716624954,-0.42812374142268506,-0.4240586366529231,-0.41971211046574286,-0.4150762171324751,-0.4101432395144706,-0.4049057167840049,-0.39935647232651234,-0.3934886417207843,-0.38729570071516645,-0.3807714931227994,-0.3739102585306747,-0.366706659696327,-0.3591558095212942,-0.35125329750197254,-0.3429952155376237,-0.33437818297190414,-0.3253993707894116,-0.316056524914073,-0.3063479885153425,-0.29627272319727116,-0.2858303289829919,-0.27502106303745133,-0.26384585703357555,-0.252306333039219,-0.24040481784671686,-0.22814435570323122,-0.21552871936463794,-0.20256241937390543,-0.18925071152258613,-0.17559960249716625,-0.16161585366752762,-0.14730698294055555,-0.13268126465671348,-0.11774772755292084,-0.10251615077087842,-0.08699705785532766,-0.07120170874317147,-0.05514208979190268,-0.038830901852322505,-0.022281546357712498,-0.0055081094621350505,0.011474655690161456,0.02865134852944337,0.0460059424627195,0.06352180805906484,0.08118173791467241,0.09896797314144304,0.11686223146133953,0.13484573683128234,0.15289925047500555,0.17100310324722245,0.18913722929963384,0.20728120096989366,0.22541426476978987,0.24351537839093104,0.2615632486820901,0.27953637050269037,0.29741306631403513,0.31517152641181523,0.3327898497395264,0.3502460851759971,0.3675182731503378,0.38458448748063456,0.40142287737403803,0.4180117094908007,0.43432940994032965,0.4503546061114316,0.4660661682668667,0.48144325079115585,0.49646533294757894,0.5111122590411562,0.5253642779271076,0.5392020817829718,0.5526068440371076,0.5655602563714854,0.578044564733418,0.5900426042517011,0.6015378329258207,0.6125143639973644,0.6229569969548941,0.6328512471082887,0.6421833736491759,0.6509404061403783,0.6591101693992856,0.6666813067149231,0.6736433013192527,0.6799864960634516,0.6857021112760511,0.6907822607575627,0.6952199658488181,0.6990091675437279,0.702144736653468,0.7046224820225863,0.7064391567853322,0.7075924626681594,0.7080810523556554,0.7079045299132819,0.7070634492454954,0.7055593105960056,0.703394555122631,0.7005725575645958,0.6970976170074217,0.6929749457754105,0.6882106565010672,0.6828117474001495,0.6767860857666911,0.6701423897324132,0.6628902083653387,0.6550399001733691,0.6466026100666671,0.6375902448513759,0.6280154473409576,0.6178915691511015,0.6072326422296084,0.5960533491954593,0.584368992580465,0.5721954630489151,0.5595492066558695,0.5464471912269997,0.5329068719627874,0.518946156353659,0.5045833684776979,0.4898372127707225,0.47472673737206966,0.45927129712778,0.443490516316099,0.4274042511816889,0.4110325523872742,0.3943956274802498,0.37751380345718033,0.3604074895197673,0.3430971401241152,0.3256032184068436,0.3079461600558231,0.29014633770366594,0.272224025928099,0.2541993669212044,0.23609233687267814,0.21792271312796416,0.1997100421987192,0.18147360869167725,0.1632324052077285,0.1450051032700692,0.1268100253460851,0.10866511801196431,0.09058792629463784,0.07259556923226178,0.05470471670063657,0.03693156753968111,0.01929182900100974,0.0018006975418308133,-0.0155271590081292,-0.03267761789702716,-0.0496371165222893,-0.0663926661188991,-0.0829318640551972,-0.09924290474258096,-0.11531458917829457,-0.1311363331295114,-0.14669817395273427,-0.16199077604626194,-0.17700543494258442,-0.19173408004820805,-0.20616927604216842,-0.22030422296028287,-0.23413275500288913,-0.24764933809658446,-0.2608490662319924,-0.27372765660508097,-0.28628144359714564,-0.2985073716262857,-0.31040298690155355,-0.3219664281193345,-0.3331964161486439,-0.3440922427480216,-0.354653758351452,-0.3648813589640028,-0.3747759722127582,-0.38433904259649065,-0.393572515970417,-0.4024788232966868,-0.41106086369221473,-0.4193219868123052,-0.42726597461032617,-0.43489702250586787,-0.44221971999165105,-0.4492390307209775,-0.45596027212113843,-0.46238909456166,-0.468531460098917,-0.47439362083800984,-0.4799820969602443,-0.48530365443625756,-0.49036528243054966,-0.4951741704359598,-0.49973768519798134,-0.5040633474570193,-0.5081588085166631,-0.5120318266843169,-0.5156902436515698,-0.5191419608325636,-0.5223949156490386,-0.5254570578055157,-0.5283363256382784,-0.5310406225721261,-0.533577793683094,N
1,-0.08539619183510172,-0.075162216817037,-0.0649503100898764,-0.05477321047312212,-0.04464395253575913,-0.034575838977143905,-0.024582411978618643,-0.014677423656853,-0.004874805714534521,0.004811361654871022,0.014366881531922362,0.02377747260313162,0.03302880197531598,0.042106518400997356,0.05099628581101717,0.05968381702519379,0.06815490753787681,0.07639546930272659,0.08439156442469811,0.09212943864854498,0.099595554551316,0.10677662436392912,0.11365964233001954,0.12023191649477413,0.1264810998342555,0.13239522065324563,0.13796271216697256,0.1431724411702824,0.1480137357147374,0.15247641173106238,0.15655079852542172,0.16022776306940398,0.16349873301916054,0.1663557184150302,0.16879133200730925,0.17079880814797313,0.1723720202031173,0.17350549646099592,0.17419443451708297,0.17443471411685965,0.1742229084387873,0.17355629379936388,0.17243285775568207,0.17085130557913197,0.1688110650847494,0.16631228981536883,0.16335586058791218,0.15994338541184228,0.15607719779201046,0.15176035343262795,0.14699662536546898,0.14179049752922857,0.13614715682505862,0.13007248366823732,0.1235730410523903,0.11665606214457212,0.10932943643863273,0.10160169450931116,0.09348199142515438,0.08498008888484047,0.07610633613516236,0.06687164972118818,0.05728749211978855,0.047365849311330074,0.03711920734475037,0.026560527953887903,0.015703223291480013,0.004561129852415138,-0.006851518346323936,-0.018520117264309494,-0.03042972094358144,-0.04256507014571161,-0.05491062144937424,-0.06745057674105027,-0.08016891302344677,-0.09304941246108318,-0.10607569259039559,-0.11923123662581078,-0.13249942378197974,-0.14586355952612493,-0.15930690568810849,-0.1728127103675874,-0.18636423757007595,-0.19994479649788235,-0.21353777043517105,-0.2271266451778475,-0.24069503695115688,-0.2542267197518171,-0.26770565206376834,-0.28111600290385325,-0.2944421771391314,-0.30766884000938427,-0.32078094080793584,-0.33376373569209283,-0.3466028095869367,-0.3592840971390141,-0.3717939026927745,-0.3841189192779237,-0.39624624658851343,-0.40816340792747247,-0.4198583661026223,-0.4313195382674382,-0.4425358096837446,-0.4534965463740914,-0.46419160664878933,-0.47461135149862554,-0.4847466538152444,-0.4945889063867791,-0.5041300286546295,-0.51336247226404,-0.5222792254509276,-0.5308738163011919,-0.5391403149256748,-0.5470733346029222,-0.5546680319375266,-0.5619201060745465,-0.5688257970125419,-0.5753818830633113,-0.5815856775066492,-0.587435024484239,-0.5929282941730067,-0.5980643772789309,-0.6028426788966408,-0.6072631117793355,-0.6113260890523817,-0.6150325163903962,-0.6183837836704169,-0.6213817561119617,-0.6240287649174918,-0.6263275974413658,-0.6282814869395608,-0.6298941019598903,-0.6311695354092541,-0.6321122933094556,-0.632727283251358,-0.6330198025612117,-0.6329955261854209,-0.6326604942986452,-0.6320210996574752,-0.6310840747315437,-0.6298564786268761,-0.6283456837994321,-0.626559362563404,-0.6245054734072633,-0.6221922471215997,-0.6196281727390005,-0.6168219833043489,-0.6137826415056784,-0.6105193251799835,-0.6070414126947347,-0.6033584682184908,-0.599480226905334,-0.5954165800037146,-0.5911775598860154,-0.5867733250039677,-0.5822141447853753,-0.5775103844800832,-0.57267248995983,-0.567710972494477,-0.5626363935392821,-0.5574593495529764,-0.552190456849316,-0.5468403364891582,-0.5414195992287384,-0.535938830534775,-0.5304085756730306,-0.5248393248874272,-0.5192414986956191,-0.5136254333201665,-0.50800136626686,-0.5023794220670846,-0.49676959820766825,-0.4911817512680966,-0.4856255832820303,-0.4801106283471145,-0.47464623951285956,-0.4692415759715243,-0.4639055905727572,-0.4586470176886664,-0.4534743614607047,-0.4483958844532237,-0.4434195967301911,-0.4385532453712582,-0.4338043044456899,-0.42917996546052356,-0.4246871282953438,-0.4203323926346441,-0.41612204990948337,-0.4120620757616161,-0.4081581230463374,-0.4044155153945957,-0.40083924135612575,-0.3974339491415548,-0.39420394197856873,-0.3911531740992304,-0.388285247376108,-0.38560340861795656,-0.3831105475241517,-0.3808091952872595,-0.37870152383029604,-0.37678934567095074,-0.3750741144150795,-0.37355692588980166,-0.37223851992734297,-0.37111928280349166,-0.37019925032536366,-0.3694781115579639,-0.3689552131771731,-0.3686295644357142,-0.3684998427275549,-0.36856439973509597,-0.36882126814238453,-0.3692681688953104,-0.3699025189829633,-0.37072143970391097,-0.3717217653773555,-0.37290005246749397,-0.3742525890991533,-0.37577540494404055,-0.377464281455215,-0.37931476242910056,-0.3813221648750219,-0.38348159016797145,-0.3857879354574111,-0.38823590530827456,-0.390820023553793,-0.3935346453378302,-0.39637396932210145,-0.39933205003544797,-0.4024028103431498,-0.4055800540101728,-0.40885747832958014,-0.4122286867909761,-0.41568720176761115,-0.4192264771991851,-0.4228399112454268,-0.42652085888788543,-0.4302626444593886,-0.43405857407828713,-0.43790194796275744,-0.4417860726024141,-0.44570427276354496,-0.4496499032968855,-0.4536163607136856,-0.45759709450489106,-0.46158561819077515,-0.4655755200940954,-0.4695604738298693,-0.47353424850300657,-0.47749071860081177,-0.4814238735612549,-0.4853278269957411,-0.4891968255493229,-0.49302525738366715,-0.4968076602635004,-0.5005387292250824,-0.504213323812087,-0.5078264748695435,-0.5113733908822772,-0.514849463841757,-0.5182502746343146,-0.5215715979562009,-0.5248094067666426,-0.5279598762900247,-0.531019387575882,-0.5339845306186153,-0.5368521070285939,-0.5396191322427903,-0.5422828372711856,-0.5448406699821569,-0.5472902959265442,-0.5496295986973838,-0.5518566798304705,-0.553969858260575,-0.5559676693494264,-0.557848863499927,-0.5596124043729372,-0.5612574667238345,-0.5627834338720107,-0.5641898948138299,-0.5654766409926894,-0.5666436627411059,-0.567691145404058,-0.568619465149541,-0.5694291844780164,-0.5701210474465905,-0.5706959746184337,-0.5711550577442877,-0.5714995541896641,-0.5717308811269972,-0.5718506095072189,-0.5718604578212632,-0.5717622856665873,-0.5715580871308651,-0.5712499839863953,-0.5708402186804252,-0.5703311471231639,-0.5697252312825444,-0.5690250315712638,-0.5682331989993693,-0.5673524670932761,-0.5663856436006958,-0.565335601975228,-0.5642052726182101,-0.5629976338860391,-0.5617157028814047,-0.5603625259939619,-0.5589411691285481,-0.5574547076162087,-0.5559062158413238,-0.5542987565625511,-0.5526353698701844,-0.5509190617926195,-0.5491527926146148,-0.5473394649050999,-0.545481911207813,-0.5435828814275087,-0.5416450300020071,-0.5396709028737031,-0.5376629242196925,-0.5356233829869899,-0.5335544193377229,-0.5314580110100238,-0.529335959532657,-0.5271898763413685,-0.525021168936344,-0.5228310271336489,-0.5206204093913447,-0.5183900292921727,-0.5161403423454297,-0.5138715331720051,-0.5115835030565908,-0.5092758579524416,-0.5069478971080111,-0.5045986023864087,-0.5022266282651059,-0.4998302926007089,-0.4974075683300173,-0.49495607618933823,-0.492473078451492,-0.4899554737642175,-0.4873997932555804,-0.4848021979989589,-0.48215847785378435,-0.4794640517564343,-0.4767139695888151,-0.47390291567564796,-0.47102521388913793,-0.46807483439333414,-0.4650454021249493,-0.4619302070688099,-0.45872221632991966,-0.45541408801950517,-0.4519981869893139,-0.44846660239859387,-0.4448111670490044,-0.4410234784377249,-0.4370949215018371,-0.43301669300047635,-0.42877982744644644,-0.4243752245023644,-0.4197936777720159,-0.4150259049106777,-0.4100625789580141,-0.40489436078441965,-0.3995119325409192,-0.39390603200656404,-0.3880674877199889,-0.3819872547608857,-0.37565645104081236,-0.3690663939835884,-0.3622086374821677,-0.35507500898643546,-0.34765764655481207,-0.3399490357269855,-0.3319420460915184,-0.3236299673902348,-0.31500654498014496,-0.3060660145078807,-0.2968031356773409,-0.28721322496108814,-0.2772921870927454,-0.26703654523284737,-0.2564434697376168,-0.2455108054162669,-0.23423709713360719,-0.2226216136734147,-0.21066436982211512,-0.19836614658129018,-0.18572850937541266,-0.17275382417388532,-0.15944527149339963,-0.1458068582041132,-0.13184342703309704,-0.1175606637233153,-0.10296510185856134,-0.08806412531774102,-0.07286596828519656,-0.057379712807002624,-0.04161528393663085,-0.025583442467126547,-0.009295775212758402,0.007235317128410633,0.023996634444118013,0.04097419397500404,0.05815324938948402,0.07551831211728266,0.09305317483929304,0.11074093707745997,0.1285640328628787,0.1465042603925975,0.1645428135313643,0.18266031506859165,0.2008368516885079,0.21905201055570406,0.23728491736800444,0.25551427577719693,0.27371840811947973,0.29187529734144807,0.30996262995927376,0.32795783993753763,0.34583815341733254,0.3635806341731221,0.3811622296334665,0.3985598173481515,0.41575025183056113,0.43271041166628765,0.4494172467407709,0.46584782547500336,0.4819793819886746,0.4977893630661232,0.5132554747643956,0.5283557285433919,0.5430684868345647,0.5573725079281365,0.5712469900271825,0.5846716143583002,0.5976265872712536,0.6100926812381846,0.6220512746380609,0.6334843902401097,0.644374732322075,0.6547057223259127,0.6644615329290393,0.6736271204464451,0.6821882555164597,0.6901315520060215,0.6974444940527788,0.7041154611907521,0.7101337515378092,0.7154896030127689,0.7201742125359654,0.7241797531871756,0.7274993893163946,0.7301272895944071,0.7320586379797,0.7332896425919012,0.7338175424914174,0.7336406123478644,0.7327581649694795,0.731170551689325,0.7288791606322018,0.7258864128892508,0.7221957566229538,0.7178116591341323,0.7127395969305769,0.7069860438306613,0.7005584571307722,0.6934652618766396,0.6857158332913839,0.6773204774133611,0.6682904099949186,0.6586377337193768,0.6483754137985328,0.637517252008751,0.6260778592213819,0.6140726264920262,0.6015176947829233,0.5884299233937129,0.5748268571748716,0.5607266926026955,0.5461482427993842,0.5311109015810662,0.5156346066154556,0.4997398017738865,0.4834473987650664,0.4667787381359802,0.44975554972378945,0.43239991264632266,0.41473421492583457,0.3967811128463707,0.37856349014534735,0.36010441713367264,0.3414271098290759,0.3225548891790128,0.30351114044648647,0.2843192728343478,0.26500267942455796,0.24558469750462655,0.2260885693502879,0.2065374035368406,0.18695413685670806,0.16736149692183647,0.14778196552714487,0.12823774284797154,0.10875071254113315,0.08934240781583151,0.07003397853720698,0.050846159420668106,0.03179923936589495,0.012913031966474886,-0.005793152775265117,-0.024300535492964223,-0.04259089321820294,-0.06064658381902208,-0.07845056907888083,-0.09598643638119174,-0.11323841896692842,-0.130191414740162,-0.1468310036024289,-0.1631434632961581,-0.1791157837347313,-0.19473567979795375,-0.20999160257615718,-0.22487274905243546,-0.23936907022313922,-0.2534712776708796,-0.26717084861166285,-0.2804600294328474,-0.29333183773218474,-0.3057800628701228,-0.3177992650523591,-0.32938477296070134,-0.3405326799516586,-0.35123983884785726,-0.3615038553525036,-0.3713230801176741,-0.38069659949804535,-0.3896242250267927,-0.398106481654946,-0.40614459479563453,-0.41374047621570104,-0.4208967088230093,-0.4276165304021104,-0.4339038163488728,-0.4397630614524077,-0.44519936077561256,-0.4502183896889184,-0.4548263831108557,-0.45903011400897414,-0.46283687121935785,-0.46625443664616745,-0.4692910618982506,-0.4719554444107325,-0.4742567030919766,-0.47620435353563856,-0.4778082828434287,-0.4790787241071488,-0.4800262305936158,-0.4806616496740883,-0.4809960965479061,-0.48104092781541063,-0.4808077149487173,-0.48030821770481436,-0.47955435753186376,-0.47855819101395786,-0.4773318833718528,-0.4758876820253309,-0.47423789024922125,-0.472394840973809,-0.4703708707585521,-0.46817829395343336,-0.4658293770889223,-0.4633363135454626,-0.4607111985086833,-0.4579660041919939,-0.455112555353963,-0.45216250516525003,-0.4491273114265666,-0.44601821310617495,-0.4428462072253365,-0.4396220261578978,-0.43635611534236873,-0.4330586113611783,-0.4297393204192159,-0.42640769731212935,-0.42307282490546894,-0.4197433940943205,-0.416427684294545,-0.41313354457877016,-0.4098683754919753,-0.4066391115216189,-0.40345220428128303,-0.40031360652728687,-0.39722875703364446,-0.39420256628107275,-0.391239403014096,-0.38834308180812993,-0.3855168517145251,-0.3827633859821997,-0.38008477293371584,-0.37748250814083667,-0.37495748796259903,-0.3725100044366246,-0.37013974158667584,-0.36784577327140644,-0.36562656261892634,-0.3634799630201213,-0.3614032207213114,-0.3593929791223532,-0.3574452848230814,-0.3555555953957726,-0.3537187889097066,-0.3519291752805644,-0.3501805094576022,-0.34846600640199415,-0.3467783578505405,-0.3451097509123224,-0.34345188852085945,-0.3417960117203919,-0.3401329237682615,-0.33845301603919425,-0.33674629567539077,-0.33500241488759624,-0.333210701822142,-0.3313601929271904,-0.329439666735778,-0.3274376789586216,-0.3253425987780356,-0.32314264624478417,-0.32082593068112675,-0.31838048998183277,-0.31579433068764423,-0.31305546869535344,-0.31015197046978477,-0.3070719946201163,-0.30380383368932357,-0.30033595600635715,-0.29665704747714766,-0.2927560532014845,-0.28862221877454236,-0.2842451311159426,-0.27961475870053326,-0.2747214910851625,-0.26955617759262956,-0.2641101649931176,-0.2583753340631871,-0.2523441349312458,-0.24600962108199176,-0.2393654818675941,-0.2324060734197766,-0.22512644789292002,-0.21752238093084175,-0.20959039722719175,-0.20132779410843593,-0.19273266311207993,-0.18380390948565548,-0.17454126949439372,-0.16494532547908866,-0.15501751865181032,-0.1447601595756406,-0.13417643624858533,-0.12327041978171627,-0.11204706771421447,-0.10051222495278953,-0.08867262227169906,-0.07653587235859141,-0.06411046344056812,-0.05140575048757351,-0.038431943967596804,-0.025200096200726413,-0.011722085413674671,0.0019894024556251413,0.015920894195312448,0.03005815192685145,0.04438619775708246,0.058889340405155435,0.07355120378700432,0.08835475749210088,0.10328234903897483,0.11831573783581109,0.13343613080268232,0.14862421955122637,0.1638602189686876,0.17912390710159842,0.19439466628034818,0.20965152538257126,0.22487320309081094,0.24003815203782233,0.25512460376418544,0.27011061436383255,0.2849741106524024,0.29969293673539776,0.3142449008910344,0.32860782264216226,0.3427595798556089,0.35667815574682804,0.37034168570175285,0.38372850378771106,0.3968171887919708,0.40958660966961746,0.422015970327174,0.43408485364612703,0.4457732646244059,0.45706167254336955,0.46793105209640123,0.4783629233911528,0.4883393907147792,0.49784317997738103,0.506857674770524,0.5153669509509373,0.5233558096389541,0.5308098085535158,0.5377152916402199,0.5440594169390889,0.5498301826246546,0.5550164511711664,0.5596079716134406,0.5635953998568279,0.566970316976648,0.5697252454715088,0.5718536634607297,0.5733500168105133,0.5742097291650062,0.5744292098747006,0.5740058598310998,0.5729380752099735,0.5712252491188452,0.5688677711582241,0.5658670249184726,0.5622253834262368,0.5579462025486178,0.5530338123791085,0.5474935066460169,0.5413315301823407,0.5345550644925452,0.5271722114628776,0.5191919752737784,0.5106242425718048,0.5014797609559696,0.49177011584147384,0.48150770577365415,0.47070571626664554,0.4593780922402016,0.4475395091308681,0.4352053427562104,0.4223916380089841,0.40911507645681594,0.3953929429266279,0.38124309115824256,0.36668390861394046,0.3517342805306239,0.3364135532994047,0.32074149725112366,0.3047382689163568,0.2884243728250878,0.2718206229204593,0.25494810367347076,0.23782813099093303,0.2204822130084677,0.20293201085787327,0.18519929949374758,0.16730592865821203,0.1492737840593077,0.13112474884122272,0.11288066543036612,0.09456329784567774,0.07619429456052035,0.05779515199519903,0.039387178704884014,0.020991460312710215,0.0026288252318728894,-0.01568018877157561,-0.033915367109872516,-0.052056849924568806,-0.07008516258437304,-0.08798124506640782,-0.10572648016898441,-0.12330272051153253,-0.14069231428148143,-0.1578781296924448,-0.17484357812715706,-0.19157263595138246,-0.20804986499121897,-0.22426043165978665,-0.2401901247095906,-0.2558253715840933,-0.27115325334514134,-0.286161518157331,-0.300838593314738,-0.3151735957996749,-0.3291563413672685,-0.34277735215367017,-0.3560278628096161,-0.3688998251648428,-0.3813859114325256,-0.39347951596695513,-0.4051747555935186,-0.41646646853734653,-0.4273502119813202,-0.4378222582835969,-0.4478795898853103,-0.4575198929445401,-0.4667415497366978,-0.4755436298587399,-0.4839258802698443,-0.49188871420020996,-0.49943319896185034,-0.5065610426985654,-0.5132745801173157,-0.5195767572496217,-0.5254711152949787,-0.5309617735960359,-0.5360534117914304,-0.540751251191107,-0.5450610354202159,-0.5489890103800102,-0.552541903578862,-0.5557269028930966,-0.5585516348199636,-0.5610241422812744,-0.5631528620342693,-0.564946601751234,-0.5664145168318874,-0.5675660870048328,-0.5684110927636373,-0.5689595916781353,-0.5692218946214432,-0.5692085419547165,-0.5689302797155734,-0.5683980358618858,-0.5676228966244318,-0.5666160830167993,-0.5653889275456948,-0.5639528511649522,-0.5623193405170505,-0.5604999255023362,-0.558506157213531,-0.5563495862753887,-0.5540417416302494,-0.5515941098053445,-0.5490181146946411,-0.5463250978919145,-0.5435262996132035,-0.5406328402375744,-0.5376557024809878,-0.5346057142081777,-0.5314935318852851,-0.5283296246797682,-0.5251242592171739,-0.5218874850027126,-0.5186291205140776,-0.5153587399732963,-0.5120856608009564,-0.5088189317428754,-0.5055673216537583,-0.5023393089326982,-0.499143071607882,-0.49598647804895407,-0.492877078276131,-0.4898220958546995,-0.48682842037314744,-0.48390260047733724,-0.48105083741879495,-0.4782789791031403,-0.4755925146359634,-0.4729965693201028,-0.47049590003513986,-0.46809489097759993,-0.4657975497716289,-0.46360750391212147,-0.4615279974720208,-0.4595618880662884,-0.45771164411587284,-0.4559793424142198,-0.45436666596504605,-0.45287490211192394,-0.45150494101028216,-0.45025727442135877,-0.44913199476180365,-0.44812879441423903,-0.44724696535219366,-0.4464853990523673,-0.44584258661229736,-0.44531661908155273,-0.4449051880901842,-0.4446055867892831,-0.44441471106038444,-0.44432906103108183,-0.44434474299466686,-0.44445747174437467,-0.44466257326615255,-0.44495498782470866,-0.44532927355998086,-0.44577961064309546,-0.44629980597585817,-0.44688329848990693,-0.44752316516381296,-0.44821212780206854,-0.44894256055351556,-0.4497064982129904,-0.4504956454118881,-0.45130138674022874,-0.4521147977807756,-0.45292665708816693,-0.45372745919770296,-0.4545074286944104,-0.4552565353170912,-0.45596451011009337,-0.45662086267529195,-0.4572148995320154,-0.4577357435445462,-0.45817235440257736,-0.4585135501704288,-0.45874802988830915,-0.45886439717050825,-0.45885118475883646,-0.458696880010086,-0.45838995127624005,-0.45791887510842477,-0.4572721642184333,-0.4564383961463411,-0.4554062425813369,-0.4541644992681536,-0.4527021164165307,-0.45100822952252273,-0.44907219050728486,-0.44688359907227515,-0.44443233415748257,-0.44170858538825014,-0.43870288441281474,-0.435406136037968,-0.43180964904854174,-0.4279051665851659,-0.4236848959781428,-0.41914153794933223,-0.4142683150682902,-0.4090589993346827,-0.40350793879249713,-0.3976100831042728,-0.39136100798253776,-0.38475693835512365,-0.3777947701797552,-0.37047209085262306,-0.3627871981228126,-0.35473911740330083,-0.34632761741639323,-0.33755322414718286,-0.3284172330412342,-0.3189217193570821,-0.30906954663646674,-0.2988643732958928,-0.2883106573011118,-0.2774136588539326,-0.26617944107308306,-0.2546148686942466,-0.24272760477197716,-0.23052610533092074,-0.21801961196356276,-0.20521814241578937,-0.19213247916514434,-0.17877415597445337,-0.16515544246927608,-0.1512893268363459,-0.13718949668899663,-0.12287031810114306,-0.10834681286258678,-0.09363463405451182,-0.0787500399990846,-0.06370986659982127,-0.04853149814304415,-0.03323283667666575,-0.01783227003791452,-0.0023486385637353532,0.013198799431533187,0.028790403282539404,0.04440618661868693,0.060025854984234385,0.07562884434319114,0.09119436033882475,0.10670141821673723,0.12212888335418881,0.13745551229398661,0.15265999414303316,0.1677209922353779,0.18261718599616122,0.19732731290582756,0.21183021043000477,0.22610485781638864,0.2401304176928469,0.253886277367227,0.26735208969898183,0.28050781344624653,0.29333375302171893,0.30581059755866213,0.31791945916100006,0.3296419102468818,0.34096001993266617,0.3518563893876557,0.36231418606912397,N
2,-0.4809960965479061,-0.48104092781541063,-0.4808077149487173,-0.48030821770481436,-0.47955435753186376,-0.47855819101395786,-0.4773318833718528,-0.4758876820253309,-0.47423789024922125,-0.472394840973809,-0.4703708707585521,-0.46817829395343336,-0.4658293770889223,-0.4633363135454626,-0.4607111985086833,-0.4579660041919939,-0.455112555353963,-0.45216250516525003,-0.4491273114265666,-0.44601821310617495,-0.4428462072253365,-0.4396220261578978,-0.43635611534236873,-0.4330586113611783,-0.4297393204192159,-0.42640769731212935,-0.42307282490546894,-0.4197433940943205,-0.416427684294545,-0.41313354457877016,-0.4098683754919753,-0.4066391115216189,-0.40345220428128303,-0.40031360652728687,-0.39722875703364446,-0.39420256628107275,-0.391239403014096,-0.38834308180812993,-0.3855168517145251,-0.3827633859821997,-0.38008477293371584,-0.37748250814083667,-0.37495748796259903,-0.3725100044366246,-0.37013974158667584,-0.36784577327140644,-0.36562656261892634,-0.3634799630201213,-0.3614032207213114,-0.3593929791223532,-0.3574452848230814,-0.3555555953957726,-0.3537187889097066,-0.3519291752805644,-0.3501805094576022,-0.34846600640199415,-0.3467783578505405,-0.3451097509123224,-0.34345188852085945,-0.3417960117203919,-0.3401329237682615,-0.33845301603919425,-0.33674629567539077,-0.33500241488759624,-0.333210701822142,-0.3313601929271904,-0.329439666735778,-0.3274376789586216,-0.3253425987780356,-0.32314264624478417,-0.32082593068112675,-0.31838048998183277,-0.31579433068764423,-0.31305546869535344,-0.31015197046978477,-0.3070719946201163,-0.30380383368932357,-0.30033595600635715,-0.29665704747714766,-0.2927560532014845,-0.28862221877454236,-0.2842451311159426,-0.27961475870053326,-0.2747214910851625,-0.26955617759262956,-0.2641101649931176,-0.2583753340631871,-0.2523441349312458,-0.24600962108199176,-0.2393654818675941,-0.2324060734197766,-0.22512644789292002,-0.21752238093084175,-0.20959039722719175,-0.20132779410843593,-0.19273266311207993,-0.18380390948565548,-0.17454126949439372,-0.16494532547908866,-0.15501751865181032,-0.1447601595756406,-0.13417643624858533,-0.12327041978171627,-0.11204706771421447,-0.10051222495278953,-0.08867262227169906,-0.07653587235859141,-0.06411046344056812,-0.05140575048757351,-0.038431943967596804,-0.025200096200726413,-0.011722085413674671,0.0019894024556251413,0.015920894195312448,0.03005815192685145,0.04438619775708246,0.058889340405155435,0.07355120378700432,0.08835475749210088,0.10328234903897483,0.11831573783581109,0.13343613080268232,0.14862421955122637,0.1638602189686876,0.17912390710159842,0.19439466628034818,0.20965152538257126,0.22487320309081094,0.24003815203782233,0.25512460376418544,0.27011061436383255,0.2849741106524024,0.29969293673539776,0.3142449008910344,0.32860782264216226,0.3427595798556089,0.35667815574682804,0.37034168570175285,0.38372850378771106,0.3968171887919708,0.40958660966961746,0.422015970327174,0.43408485364612703,0.4457732646244059,0.45706167254336955,0.46793105209640123,0.4783629233911528,0.4883393907147792,0.49784317997738103,0.506857674770524,0.5153669509509373,0.5233558096389541,0.5308098085535158,0.5377152916402199,0.5440594169390889,0.5498301826246546,0.5550164511711664,0.5596079716134406,0.5635953998568279,0.566970316976648,0.5697252454715088,0.5718536634607297,0.5733500168105133,0.5742097291650062,0.5744292098747006,0.5740058598310998,0.5729380752099735,0.5712252491188452,0.5688677711582241,0.5658670249184726,0.5622253834262368,0.5579462025486178,0.5530338123791085,0.5474935066460169,0.5413315301823407,0.5345550644925452,0.5271722114628776,0.5191919752737784,0.5106242425718048,0.5014797609559696,0.49177011584147384,0.48150770577365415,0.47070571626664554,0.4593780922402016,0.4475395091308681,0.4352053427562104,0.4223916380089841,0.40911507645681594,0.3953929429266279,0.38124309115824256,0.36668390861394046,0.3517342805306239,0.3364135532994047,0.32074149725112366,0.3047382689163568,0.2884243728250878,0.2718206229204593,0.25494810367347076,0.23782813099093303,0.2204822130084677,0.20293201085787327,0.18519929949374758,0.16730592865821203,0.1492737840593077,0.13112474884122272,0.11288066543036612,0.09456329784567774,0.07619429456052035,0.05779515199519903,0.039387178704884014,0.020991460312710215,0.0026288252318728894,-0.01568018877157561,-0.033915367109872516,-0.052056849924568806,-0.07008516258437304,-0.08798124506640782,-0.10572648016898441,-0.12330272051153253,-0.14069231428148143,-0.1578781296924448,-0.17484357812715706,-0.19157263595138246,-0.20804986499121897,-0.22426043165978665,-0.2401901247095906,-0.2558253715840933,-0.27115325334514134,-0.286161518157331,-0.300838593314738,-0.3151735957996749,-0.3291563413672685,-0.34277735215367017,-0.3560278628096161,-0.3688998251648428,-0.3813859114325256,-0.39347951596695513,-0.4051747555935186,-0.41646646853734653,-0.4273502119813202,-0.4378222582835969,-0.4478795898853103,-0.4575198929445401,-0.4667415497366978,-0.4755436298587399,-0.4839258802698443,-0.49188871420020996,-0.49943319896185034,-0.5065610426985654,-0.5132745801173157,-0.5195767572496217,-0.5254711152949787,-0.5309617735960359,-0.5360534117914304,-0.540751251191107,-0.5450610354202159,-0.5489890103800102,-0.552541903578862,-0.5557269028930966,-0.5585516348199636,-0.5610241422812744,-0.5631528620342693,-0.564946601751234,-0.5664145168318874,-0.5675660870048328,-0.5684110927636373,-0.5689595916781353,-0.5692218946214432,-0.5692085419547165,-0.5689302797155734,-0.5683980358618858,-0.5676228966244318,-0.5666160830167993,-0.5653889275456948,-0.5639528511649522,-0.5623193405170505,-0.5604999255023362,-0.558506157213531,-0.5563495862753887,-0.5540417416302494,-0.5515941098053445,-0.5490181146946411,-0.5463250978919145,-0.5435262996132035,-0.5406328402375744,-0.5376557024809878,-0.5346057142081777,-0.5314935318852851,-0.5283296246797682,-0.5251242592171739,-0.5218874850027126,-0.5186291205140776,-0.5153587399732963,-0.5120856608009564,-0.5088189317428754,-0.5055673216537583,-0.5023393089326982,-0.499143071607882,-0.49598647804895407,-0.492877078276131,-0.4898220958546995,-0.48682842037314744,-0.48390260047733724,-0.48105083741879495,-0.4782789791031403,-0.4755925146359634,-0.4729965693201028,-0.47049590003513986,-0.46809489097759993,-0.4657975497716289,-0.46360750391212147,-0.4615279974720208,-0.4595618880662884,-0.45771164411587284,-0.4559793424142198,-0.45436666596504605,-0.45287490211192394,-0.45150494101028216,-0.45025727442135877,-0.44913199476180365,-0.44812879441423903,-0.44724696535219366,-0.4464853990523673,-0.44584258661229736,-0.44531661908155273,-0.4449051880901842,-0.4446055867892831,-0.44441471106038444,-0.44432906103108183,-0.44434474299466686,-0.44445747174437467,-0.44466257326615255,-0.44495498782470866,-0.44532927355998086,-0.44577961064309546,-0.44629980597585817,-0.44688329848990693,-0.44752316516381296,-0.44821212780206854,-0.44894256055351556,-0.4497064982129904,-0.4504956454118881,-0.45130138674022874,-0.4521147977807756,-0.45292665708816693,-0.45372745919770296,-0.4545074286944104,-0.4552565353170912,-0.45596451011009337,-0.45662086267529195,-0.4572148995320154,-0.4577357435445462,-0.45817235440257736,-0.4585135501704288,-0.45874802988830915,-0.45886439717050825,-0.45885118475883646,-0.458696880010086,-0.45838995127624005,-0.45791887510842477,-0.4572721642184333,-0.4564383961463411,-0.4554062425813369,-0.4541644992681536,-0.4527021164165307,-0.45100822952252273,-0.44907219050728486,-0.44688359907227515,-0.44443233415748257,-0.44170858538825014,-0.43870288441281474,-0.435406136037968,-0.43180964904854174,-0.4279051665851659,-0.4236848959781428,-0.41914153794933223,-0.4142683150682902,-0.4090589993346827,-0.40350793879249713,-0.3976100831042728,-0.39136100798253776,-0.38475693835512365,-0.3777947701797552,-0.37047209085262306,-0.3627871981228126,-0.35473911740330083,-0.34632761741639323,-0.33755322414718286,-0.3284172330412342,-0.3189217193570821,-0.30906954663646674,-0.2988643732958928,-0.2883106573011118,-0.2774136588539326,-0.26617944107308306,-0.2546148686942466,-0.24272760477197716,-0.23052610533092074,-0.21801961196356276,-0.20521814241578937,-0.19213247916514434,-0.17877415597445337,-0.16515544246927608,-0.1512893268363459,-0.13718949668899663,-0.12287031810114306,-0.10834681286258678,-0.09363463405451182,-0.0787500399990846,-0.06370986659982127,-0.04853149814304415,-0.03323283667666575,-0.01783227003791452,-0.0023486385637353532,0.013198799431533187,0.028790403282539404,0.04440618661868693,0.060025854984234385,0.07562884434319114,0.09119436033882475,0.10670141821673723,0.12212888335418881,0.13745551229398661,0.15265999414303316,0.1677209922353779,0.18261718599616122,0.19732731290582756,0.21183021043000477,0.22610485781638864,0.2401304176928469,0.253886277367227,0.26735208969898183,0.28050781344624653,0.29333375302171893,0.30581059755866213,0.31791945916100006,0.3296419102468818,0.34096001993266617,0.3518563893876557,0.36231418606912397,0.3723171767691666,0.3818497594224361,0.390896993596854,0.3994446295692035,0.4074791359169973,0.41498772558886804,0.42195838040401495,0.42837987391684246,0.43424179260346896,0.43953455534603436,0.4442494311762013,0.44837855522667236,0.45191494286067485,0.4548525019718755,0.4571860434408009,0.45891128972521283,0.4600248815769726,0.46052438289394987,0.4604082837104851,0.4596760013237043,0.4583278795642341,0.4563651862299319,0.4537901086939962,0.45060574769355594,0.44681610931894544,0.4424260952417346,0.4374414912240935,0.431868953950845,0.42571599622839473,0.41899097059483204,0.4117030513779376,0.4038622152348672,0.3954792202178474,0.386565583422938,0.3771335572824168,0.36719610456118934,0.3567668721215491,0.34586016352617266,0.3344909105520051,0.3226746436880976,0.31042746168972435,0.29776600025789934,0.2847073999081958,0.2712692730913614,0.25746967063405346,0.2433270475757124,0.2288602284812807,0.2140883723097616,0.1990309369180577,0.18370764327893327,0.16813843949129278,0.15234346466024548,0.13634301272429752,0.1201574963093747,0.10380741069373292,0.08731329796830015,0.07069571147014694,0.05397518055795488,0.03717217579337947,0.020307074590473675,0.0034001273947669706,-0.013528575545199166,-0.030459136748458217,-0.0473718833492591,-0.06424739816209829,-0.0810665499094935,-0.09781052255844466,-0.11446084371255119,-0.13099941201121243,-0.14740852348753095,-0.16367089682917232,-0.1797696974851339,-0.19568856057433165,-0.21141161256339375,-0.22692349167899878,-0.24220936701905077,-0.2572549563380088,-0.2720465424874056,-0.2865709884816742,-0.3008157511551703,-0.3147688933931128,-0.3284190949264288,-0.3417556616594187,-0.35476853349009946,-0.3674482906131327,-0.37978615831834245,-0.39177401027964837,-0.4034043703176516,-0.41467041264992915,-0.42556596066189817,-0.4360854841990664,-0.44622409536316304,-0.4559775428369444,-0.4653422047941909,-0.4743150804183854,-0.4828937800308098,-0.4910765138741769,-0.4988620796306032,-0.506249848710762,-0.5132397513220733,-0.5198322603752573,-0.5260283743268322,-0.5318295990073908,-0.5372379284508145,-0.542255824796184,-0.5468861973791592,-0.5511323810803679,-0.5549981139593949,-0.5584875142601183,-0.5616050569223549,-0.5643555496886344,-0.5667441088540158,-0.5687761347561501,-0.570457287142404,-0.5717934604978266,-0.5727907593736715,-0.5734554738057919,-0.5737940549560466,-0.573813091062846,-0.5735192837435669,-0.5729194247341467,-0.5720203731909499,-0.5708290336382942,-0.5693523346037441,-0.5675972080173548,-0.5655705694890141,-0.5632792995508982,-0.5607302259171061,-0.5579301068275436,-0.5548856155616334,-0.5516033261824754,-0.5480897005424002,-0.5443510765855186,-0.5403936579902533,-0.5362235051731719,-0.5318465276515405,-0.5272684777639876,-0.5224949457582044,-0.5175313562486108,-0.5123829660320844,-0.5070548632400647,-0.5015519678025655,-0.49587903319865556,-0.4900406494603484,-0.4840412473824702,-0.4778851038875122,-0.471576348508097,-0.4651189709516596,-0.45851682968560004,-0.4517736614610989,-0.44489309170500035,-0.4378786457164633,-0.43073376058333085,-0.4234617977255189,-0.4160660560067216,-0.408549785373819,-0.400916200944996,-0.39316849743395954,-0.38530986381860943,-0.3773434981826238,-0.3692726226322206,-0.361100498178211,-0.3528304395192684,-0.3444658296921025,-0.3360101345132236,-0.3274669167036084,-0.3188398496247298,-0.3101327305861221,-0.3013494936478017,-0.29249422181122353,-0.2835711585329518,-0.27458471852990385,-0.26553949781147707,-0.256440282849782,-0.24729205884703992,-0.23810001709717205,-0.2288695614011905,-0.2196063134672198,-0.21031611727389996,-0.20100504241524172,-0.19167938640471308,-0.18234567587900077,-0.17301066667937318,-0.16368134282551286,-0.1543649143677057,-0.14506881408355296,-0.1358006930359573,-0.12656841504843627,-0.1173800501153182,-0.10824386672757728,-0.09916832312930039,-0.09016205755440808,-0.08123387746494366,-0.07239274778735318,-0.06364777817973045,-0.05500820939598589,-0.04648339878591207,-0.038082804944759324,-0.02981597155645788,-0.021692510503799504,-0.013722084296421855,-0.005914387848358599,0.0017208703316896957,0.009173987447344788,0.01643528615348726,0.02349513468577077,0.030343967316295555,0.036972305048511095,0.043370776485192296,0.04953013882345821,0.055441298910862434,0.06109533427749236,0.06648351407800959,0.07159731989838583,0.076428466370314,0.08096892152196425,0.08521092680584645,0.08914701675629193,0.09277003821603662,0.09607316905964451,0.09904993635441386,0.10169423391338359,0.104000339188105,0.1059629294408819,0.10757709714683897,0.10883836458969456,0.10974269761460734,0.11028651849747154,0.11046671789373527,0.11028066583077376,0.10972622169844412,0.10880174318815813,0.10750609414307963,0.10583865129579059,0.103799309871036,0.10138848803020059,0.09860713014259306,0.09545670888035421,0.09193922614004615,0.0880572127955839,0.0838137272879699,0.07921235305845484,0.07425719483322576,0.06895287376946965,0.06330452147514157,0.05731777291936943,0.05099875825674896,0.044354093592396976,0.037390870712911334,0.030116645805318087,0.022539427186022365,0.014667662064234381,0.006510222367857688,-0.0019236103347986771,-0.010624160777273371,-0.019581376757043818,-0.02878484667444569,-0.0382238178061324,-0.047887215267107146,-0.05776366161214124,-0.06784149702799439,-0.07810880006554269,-0.08855340885217575,-0.09916294272035228,-0.10992482419498925,-0.1208263012887831,-0.1318544700511339,-0.14299629731291483,-0.15423864357460335,-0.16556828598979353,-0.1769719413918078,-0.18843628930770925,-0.1999479949100432,-0.21149373186385376,-0.22306020502652432,-0.23463417295607622,-0.24620247018619143,-0.2577520292305962,-0.26926990228115116,-0.28074328256349174,-0.2921595253122556,-0.3035061683225609,-0.3147709520261737,-0.32594183903849056,-0.3370070331305594,-0.34795499758891596,-0.3587744729267321,-0.3694544939094186,-0.37998440586439425,-0.39035388025598944,-0.4005529295160393,-0.41057192112338453,-0.4204015909196743,-0.43003305563880073,-0.4394578246192961,-0.44866781066832145,-0.45765534005281017,-0.466413161600295,-0.47493445489344965,-0.4832128375434087,-0.49124237153266204,-0.4990175686255348,-0.5065333948485752,-0.5137852740450101,-0.5207690905087409,-0.527481190704718,-0.5339183840839573,-0.5400779430029189,-0.545957601758455,-0.551555554751037,-0.5568704537904784,-0.5619014045598741,-0.5666479622544648,-0.571110126411159,-0.5752883349418766,-0.5791834573840898,-0.5827967873875234,-0.5861300344629102,-0.5891853150225953,-0.5919651427440994,-0.5944724182863986,-0.5967104183795332,-0.5986827842926902,-0.600393509681672,-0.6018469278314987,-0.6030476983205845,-0.6040007931237955,-0.6047114821665026,-0.6051853183570229,-0.6054281221310335,-0.6054459655197778,-0.6052451557430619,-0.6048322183525328,-0.6042138799606047,-0.6033970505541364,-0.6023888053733752,-0.6011963663787991,-0.5998270833571802,-0.5982884146798164,-0.5965879077013225,-0.594733178836783,-0.5927318933889737,-0.5905917451487924,-0.5883204357595472,-0.5859256538927253,-0.5834150543195085,-0.5807962368975343,-0.5780767254498387,-0.5752639465857206,-0.5723652085691029,-0.5693876802752214,-0.5663383702274474,-0.5632241057814587,-0.5600515125829357,-0.5568269943542639,-0.5535567130100021,-0.550246569177704,-0.5469021832638629,-0.5435288771337653,-0.5401316564142625,-0.5367151935005022,-0.533283811405861,-0.5298414685182257,-0.5263917442622222,-0.5229378257389535,-0.5194824954795513,-0.5160281203833593,-0.5125766418496177,-0.5091295671702911,-0.5056879623044932,-0.5022524460909208,-0.49882318589451974,-0.49539989473521034,-0.491981830002088,-0.48856779381431764,-0.485156135038674,-0.4817447529993,-0.47833110294023506,-0.4749122032535167,-0.47148464443896354,-0.46804459978510304,-0.4645878377930177,-0.4611097363431915,-0.45760529857156906,-0.4540691704201398,-0.45049565982340795,-0.44687875745316846,-0.44321215891309634,-0.4394892882904941,-0.43570332300368525,-0.43184721989040703,-0.4279137424691117,-0.4238954892913648,-0.4197849233024772,-0.4155744021370197,-0.41125620927238693,-0.4068225859370054,-0.4022657636523512,-0.3975779973000877,-0.39275159861110986,-0.38777896994646527,-0.3826526382217576,-0.3773652888468086,-0.3719097995664457,-0.3662792740642049,-0.3604670751812167,-0.35446685764326613,-0.34827260021415185,-0.34187863715610983,-0.335279688850122,-0.32847089146618563,-0.32144782560374324,-0.31420654378793783,-0.3067435966841277,-0.2990560579406339,-0.2911415476064592,-0.28299825403258805,-0.2746249541372888,-0.26602103196548954,-0.2571864955129507,-0.24812199174823035,-0.2388288197403171,-0.22930894185874517,-0.21956499305849342,-0.20960028821664242,-0.19941882745140757,-0.18902529940847143,-0.1784250825459431,-0.16762424440540108,-0.15662953881929048,-0.14544840105651619,-0.134088940954261,-0.12255993404510206,-0.11087081065736075,-0.09903164302101757,-0.08705313045779188,-0.07494658269466489,-0.06272390130975333,-0.05039755937551175,-0.037980579410175554,-0.025486509704135584,-0.012929399048407156,-0.00032376993855559084,0.012315409630185011,0.024972755699969727,0.03763249917767712,0.05027851786674106,0.06289436957813516,0.07546332623187703,0.08796840889473835,0.10039242366264263,0.1127179982610272,0.12492761926691145,0.13700366987966509,0.14892846812350216,0.1606843053305286,0.17225348479332162,0.18361836051858918,0.19476137599247503,0.20566510284196263,0.21631227930087166,0.22668584840921185,0.23676899584417416,0.2465451872562317,0.2559982050125728,0.26511218427869737,0.2738716483497609,0.2822615431238091,0.2902672706326109,0.29787472156814326,0.30507030672458973,0.3118409872593471,0.31817430369990707,0.32405840364849514,0.32948206812724,0.3344347364950654,0.33890652988320996,0.34288827310949294,0.34637151501672353,0.3493485471700711,0.3518124208687181,0.35375696244854216,0.3551767868474378,0.35606730939810505,0.3564247558295015,0.35624617047871565,0.3555294227184973,0.35427321160306313,0.3524770687386956,0.35014135938480845,0.34726728177830385,0.343856864669057,0.3399129630711017,0.3354392522529683,0.33044021999343814,0.32492115712789976,0.3188881464194239,0.3123480497993904,0.3053084940250898,0.29777785480159163,0.28976523941939075,0.28128046796527245,0.27233405316704057,0.2629371789336487,0.253101677652763,0.24284000630843164,0.23216522148230703,0.22109095330272402,0.2096313784063452,0.19780119197558035,0.18561557891191485,0.1730901842050047,0.1602410825629942,0.14708474737838043,0.13363801911112064,0.1199180731726103,0.10594238738998088,0.0917287091244943,0.07729502211501296,0.06265951311713039,0.047840538409116486,0.03285659023817692,0.017726263284276768,0.002468221219542551,-0.012898836563562109,-0.028356207988477967,-0.04388522103197138,-0.05946726610071298,-0.07508382798511253,-0.09071651732623608,-0.10634710152744757,-0.12195753504216915,-0.1375299889762959,-0.15304687995296887,-0.16849089819275656,-0.18384503476442474,-0.19909260796296616,-0.2142172887732198,-0.22920312537922186,-0.24403456668138848,-0.25869648478639556,-0.2731741964400896,-0.2874534833814358,-0.3015206115995189,-0.3153623494724907,-0.3289659847624445,-0.34231934043932527,-0.35541078930952935,-0.3682292674282069,-0.3807642862776362,-0.39300594369738145,-0.40494493355526,-0.4165725541524464,-0.4278807153641722,-0.43886194452870725,-0.4495093911028361,-0.45981683009668367,-0.4697786642925122,-0.47938992524977025,-0.488646273101294,N
3,-0.5883204357595472,-0.5859256538927253,-0.5834150543195085,-0.5807962368975343,-0.5780767254498387,-0.5752639465857206,-0.5723652085691029,-0.5693876802752214,-0.5663383702274474,-0.5632241057814587,-0.5600515125829357,-0.5568269943542639,-0.5535567130100021,-0.550246569177704,-0.5469021832638629,-0.5435288771337653,-0.5401316564142625,-0.5367151935005022,-0.533283811405861,-0.5298414685182257,-0.5263917442622222,-0.5229378257389535,-0.5194824954795513,-0.5160281203833593,-0.5125766418496177,-0.5091295671702911,-0.5056879623044932,-0.5022524460909208,-0.49882318589451974,-0.49539989473521034,-0.491981830002088,-0.48856779381431764,-0.485156135038674,-0.4817447529993,-0.47833110294023506,-0.4749122032535167,-0.47148464443896354,-0.46804459978510304,-0.4645878377930177,-0.4611097363431915,-0.45760529857156906,-0.4540691704201398,-0.45049565982340795,-0.44687875745316846,-0.44321215891309634,-0.4394892882904941,-0.43570332300368525,-0.43184721989040703,-0.4279137424691117,-0.4238954892913648,-0.4197849233024772,-0.4155744021370197,-0.41125620927238693,-0.4068225859370054,-0.4022657636523512,-0.3975779973000877,-0.39275159861110986,-0.38777896994646527,-0.3826526382217576,-0.3773652888468086,-0.3719097995664457,-0.3662792740642049,-0.3604670751812167,-0.35446685764326613,-0.34827260021415185,-0.34187863715610983,-0.335279688850122,-0.32847089146618563,-0.32144782560374324,-0.31420654378793783,-0.3067435966841277,-0.2990560579406339,-0.2911415476064592,-0.28299825403258805,-0.2746249541372888,-0.26602103196548954,-0.2571864955129507,-0.24812199174823035,-0.2388288197403171,-0.22930894185874517,-0.21956499305849342,-0.20960028821664242,-0.19941882745140757,-0.18902529940847143,-0.1784250825459431,-0.16762424440540108,-0.15662953881929048,-0.14544840105651619,-0.134088940954261,-0.12255993404510206,-0.11087081065736075,-0.09903164302101757,-0.08705313045779188,-0.07494658269466489,-0.06272390130975333,-0.05039755937551175,-0.037980579410175554,-0.025486509704135584,-0.012929399048407156,-0.00032376993855559084,0.012315409630185011,0.024972755699969727,0.03763249917767712,0.05027851786674106,0.06289436957813516,0.07546332623187703,0.08796840889473835,0.10039242366264263,0.1127179982610272,0.12492761926691145,0.13700366987966509,0.14892846812350216,0.1606843053305286,0.17225348479332162,0.18361836051858918,0.19476137599247503,0.20566510284196263,0.21631227930087166,0.22668584840921185,0.23676899584417416,0.2465451872562317,0.2559982050125728,0.26511218427869737,0.2738716483497609,0.2822615431238091,0.2902672706326109,0.29787472156814326,0.30507030672458973,0.3118409872593471,0.31817430369990707,0.32405840364849514,0.32948206812724,0.3344347364950654,0.33890652988320996,0.34288827310949294,0.34637151501672353,0.3493485471700711,0.3518124208687181,0.35375696244854216,0.3551767868474378,0.35606730939810505,0.3564247558295015,0.35624617047871565,0.3555294227184973,0.35427321160306313,0.3524770687386956,0.35014135938480845,0.34726728177830385,0.343856864669057,0.3399129630711017,0.3354392522529683,0.33044021999343814,0.32492115712789976,0.3188881464194239,0.3123480497993904,0.3053084940250898,0.29777785480159163,0.28976523941939075,0.28128046796527245,0.27233405316704057,0.2629371789336487,0.253101677652763,0.24284000630843164,0.23216522148230703,0.22109095330272402,0.2096313784063452,0.19780119197558035,0.18561557891191485,0.1730901842050047,0.1602410825629942,0.14708474737838043,0.13363801911112064,0.1199180731726103,0.10594238738998088,0.0917287091244943,0.07729502211501296,0.06265951311713039,0.047840538409116486,0.03285659023817692,0.017726263284276768,0.002468221219542551,-0.012898836563562109,-0.028356207988477967,-0.04388522103197138,-0.05946726610071298,-0.07508382798511253,-0.09071651732623608,-0.10634710152744757,-0.12195753504216915,-0.1375299889762959,-0.15304687995296887,-0.16849089819275656,-0.18384503476442474,-0.19909260796296616,-0.2142172887732198,-0.22920312537922186,-0.24403456668138848,-0.25869648478639556,-0.2731741964400896,-0.2874534833814358,-0.3015206115995189,-0.3153623494724907,-0.3289659847624445,-0.34231934043932527,-0.35541078930952935,-0.3682292674282069,-0.3807642862776362,-0.39300594369738145,-0.40494493355526,-0.4165725541524464,-0.4278807153641722,-0.43886194452870725,-0.4495093911028361,-0.45981683009668367,-0.4697786642925122,-0.47938992524977025,-0.488646273101294,-0.4975439951509433,-0.5060800032946426,-0.5142518303035635,-0.5220576250153912,-0.5294961464696377,-0.5365667570120234,-0.5432694143949361,-0.5496046629055558,-0.55557362354994,-0.5611779833195389,-0.5664199835741406,-0.5713024075809989,-0.575828567244429,-0.580002289053055,-0.5838278992730379,-0.5873102084195214,-0.5904544950386144,-0.5932664888325063,-0.5957523531648112,-0.5979186669871233,-0.5997724062270133,-0.6013209246771554,-0.6025719344289657,-0.6035334858972379,-0.6042139474792021,-0.604621984882818,-0.6047665401500277,-0.6046568103994965,-0.6043022263221249,-0.6037124304693651,-0.6028972553712231,-0.6018667015189598,-0.6006309152541524,-0.5992001666051926,-0.5975848270962204,-0.5957953475464094,-0.5938422358936047,-0.5917360350836499,-0.5894873010450367,-0.587106580756812,-0.5846043904420397,-0.5819911939326676,-0.5792773812221634,-0.5764732472047971,-0.5735889706331304,-0.5706345933430278,-0.5676199997531756,-0.5645548966207531,-0.5614487930824339,-0.5583109810461004,-0.5551505159585335,-0.5519761979444211,-0.5487965533593657,-0.5456198168299045,-0.5424539137961681,-0.5393064435339809,-0.5361846626937988,-0.5330954694413251,-0.5300453882296984,-0.5270405551899321,-0.5240867041866727,-0.5211891536326331,-0.5183527940927856,-0.5155820766605747,-0.5128810021514618,-0.5102531112095083,-0.5077014753588687,-0.5052286889797095,-0.5028368622519145,-0.500527615167566,-0.4983020726591428,-0.4961608608389046,-0.4941041043956587,-0.4921314252381042,-0.49024194241507796,-0.4884342732909131,-0.48670653600310276,-0.48505635327916663,-0.4834808576484223,-0.48197669803846754,-0.4805400477675712,-0.47916661393097293,-0.47785164806693325,-0.4765899579255657,-0.47537592026199227,-0.4742034947042375,-0.4730662387684712,-0.47195732406378776,-0.47086955372679534,-0.46979538112415736,-0.46872692982234093,-0.4676560147887295,-0.46657416479486696,-0.4654726460099086,-0.4643424867644333,-0.4631745034440618,-0.46195932746106233,-0.46068743325005396,-0.4593491672313988,-0.45793477767489393,-0.45643444537852257,-0.45483831506999267,-0.4531365274490072,-0.4513192517882801,-0.4493767189852155,-0.44729925493665823,-0.4450773141198142,-0.44270151326972906,-0.4401626650246204,-0.43745181140877043,-0.4345602570641691,-0.43147960216336423,-0.42820177489429906,-0.4247190633719638,-0.4210241468566079,-0.41711012618211424,-0.4129705532702544,-0.40859945959417937,-0.4039913835067695,-0.3991413963844153,-0.3940451274941342,-0.3886987874597044,-0.38309919024993416,-0.3772437736508159,-0.37113061814138687,-0.36475846406035933,-0.358126727000499,-0.35123551140996606,-0.3440856223389881,-0.3366785752344408,-0.3290166037297457,-0.32110266541980237,-0.3129404455801129,-0.30453435877088475,-0.2958895483280509,-0.2870118837897425,-0.2779079562641063,-0.2685850717073835,-0.259051242129371,-0.24931517478733908,-0.23938625939229846,-0.22927455331968966,-0.21899076486418406,-0.20854623462091976,-0.19795291504146342,-0.187223348185403,-0.17637064173744058,-0.1654084434012241,-0.15435091374401994,-0.14321269753128357,-0.1320088936278036,-0.12075502357867868,-0.10946699895223434,-0.09816108749409382,-0.08685387816867908,-0.07556224519492295,-0.06430331116443318,-0.05309440931594212,-0.04195304507511661,-0.030896856997400503,-0.01994357722593704,-0.009110991549709114,0.0015831008332071698,0.012120927720696706,0.022484784370920653,0.032657073931094675,0.04262034771075262,0.0523573451598922,0.06185103343752767,0.0710846464872643,0.08004172353425763,0.08870614690697769,0.0970621790959893,0.10509449897254675,0.11278823708284214,0.12012900992590292,0.12710295312963574,0.13369675344304258,0.13989767945018441,0.14569361090495717,0.15107306660246875,0.1560252307226246,0.1605399775847581,0.1646078947510787,0.16822030442638322,0.17136928311527064,0.17404767950571529,0.17624913055027577,0.17796807571739534,0.17919976938510349,0.17994029134824882,0.18018655541250636,0.179936316056843,0.1791881731582454,0.17794157478351133,0.17619681805879292,0.17395504812765436,0.17121825520724518,0.16798926975412884,0.1642717557558415,0.16007020217008197,0.1553899125418127,0.15023699283896033,0.14461833755395928,0.13854161411877958,0.13201524568398332,0.12504839232272796,0.11765093072760019,0.10983343246424382,0.1016071408428163,0.09298394647572333,0.08397636159651417,0.07459749321136887,0.0648610151539765,0.05478113912578929,0.04437258481093313,0.03365054914528155,0.02263067480432322,0.0113290179690812,-0.0002379845680503277,-0.012053548890549177,-0.024100577962583355,-0.03636169606475051,-0.04881928356905536,-0.0614555119665229,-0.07425237906465573,-0.0871917442665612,-0.10025536384014425,-0.11342492609353104,-0.12668208638178022,-0.1400085018702016,-0.1533858659781416,-0.1667959424306969,-0.18022059884719738,-0.19364183978944377,-0.20704183919043057,-0.2204029720935744,-0.23370784564281633,-0.24693932926561635,-0.26008058399071343,-0.27311509084804153,-0.2860266783039891,-0.29879954868576797,-0.3114183035489879,-0.3238679679471091,-0.3361340135651268,-0.34820238067871584,-0.36005949890041494,-0.3716923066816427,-0.3830882695486398,-0.3942353970559607,-0.40512225844348354,-0.4157379969841262,-0.426072343008922,-0.43611562559415057,-0.4458587828962209,-0.455293371125343,-0.4644115721513464,-0.47320619973074723,-0.4816707043440375,-0.48979917664362044,-0.4975863495256558,-0.5050275988434275,-0.5121189427811547,-0.5188570399108565,-0.525239185953577,-0.5312633092567971,-0.5369279649973064,-0.5422323281313598,-0.5471761851221718,-0.5517599244657784,-0.555984526032035,-0.5598515492518605,-0.5633631201847198,-0.5665219174747191,-0.5693311571926878,-0.57179457659392,-0.5739164168493606,-0.5757014047943178,-0.5771547337270709,-0.5782820433126723,-0.5790893986495904,-0.5795832685055,-0.5797705027037003,-0.5796583086964748,-0.5792542274058428,-0.5785661083763594,-0.5776020842573093,-0.5763705446828572,-0.5748801096539363,-0.5731396024725725,-0.5711580222429234,-0.5689445160138614,-0.5665083506834437,-0.5638588847285834,-0.5610055397805195,-0.5579577721302457,-0.5547250442944455,-0.5513167967050406,-0.5477424195352906,-0.5440112247463814,-0.540132418495591,-0.5361150739808244,-0.5319681047419716,-0.5277002385094406,-0.523319991750829,-0.5188356450049075,-0.5142552190362332,-0.5095864519040624,-0.5048367770922023,-0.5000133027854347,-0.4951227923219813,-0.4901716459033007,-0.4851658836895449,-0.48011113035245584,-0.4750126011034909,-0.46987508925807986,-0.4647029554400264,-0.45950011848445915,-0.4542700480492916,-0.44901575897435053,-0.4437398074595168,-0.438444289096925,-0.4331308387509031,-0.4278006322947108,-0.4224543902319225,-0.417092383200139,-0.4117144393207766,-0.4063199533663939,-0.40090789773113555,-0.3954768351725073,-0.39002493326833476,-0.3845499805308201,-0.3790494041266983,-0.3735202891480134,-0.36795939936399,-0.3623631993565907,-0.3567278778661957,-0.351049372058797,-0.3453233923861851,-0.3395454478175628,-0.3337108713826924,-0.32781484606589384,-0.3218524311007458,-0.31581858867067686,-0.30970821098702755,-0.30351614772742047,-0.29723723382100214,-0.29086631752526454,-0.28439828871146106,-0.2778281073048174,-0.2711508318422661,-0.26436164806359297,-0.2574558974185527,-0.2504291054105331,-0.24327700972381563,-0.23599558803167253,-0.22858108534184451,-0.2210300407739082,-0.21333931369557135,-0.2055061091033401,-0.19752800210440935,-0.18940296140976354,-0.1811293717890302,-0.17270605539224004,-0.16413229181265154,-0.15540783682619752,-0.14653293978983606,-0.1375083596275113,-0.12833537928581928,-0.1190158185921485,-0.10955204549507382,-0.09994698562384315,-0.09020413007035478,-0.08032754135600363,-0.07032185759555871,-0.06019229482625252,-0.04994464743243951,-0.039585286649408,-0.02912115717830882,-0.018559771905960212,-0.007909204692884324,0.0028219187506026058,0.01362443183235415,0.024488639862483605,0.0354043346598662,0.04636081093635522,0.05734688436869306,0.06835091130682504,0.079360810104127,0.09036408401388298,0.10134784555587929,0.11229884228673101,0.12320348393164329,0.1340478707893539,0.1448178232834543,0.15549891256833376,0.1660764921343631,0.17653573032890274,0.1868616436786386,0.19703913092196393,0.20705300768199433,0.2168880416811723,0.22652898837109817,0.23596062687349328,0.2451677961489629,0.2541354312848092,0.26284859977035957,0.2712925376503871,0.27945268546680346,0.28731472387548795,0.2948646088057759,0.3020886060560949,0.3089733252490702,0.31550575306284123,0.321673285642993,0.32746376011291617,0.33286548511362296,0.33786727029260194,0.34245845465124186,0.3466289336747067,0.3503691851823486,0.3536702938290367,0.35652397418098924,0.358922592304326,0.36085918581977006,0.36232748237352586,0.3633219164704886,0.3638376446289005,0.3638705588300491,0.36341729823731433,0.36247525915765283,0.3610426032278819,0.35911826381877193,0.3567019506521604,0.3537941526269199,0.35039613885657167,0.34650995793063427,0.34213843541752337,0.3372851696295395,0.33195452567204087,0.326151627798154,0.3198823500877719,0.3131533054709199,0.30597183312493675,0.2983459842888218,0.29028450655018173,0.2817968266651884,0.2728930319689304,0.26358385042864246,0.25388062939134376,0.24379531307976357,0.23334041889347193,0.22252901257502825,0.2113746823036952,0.1998915117818222,0.18809405238204743,0.17599729442888687,0.1636166376955853,0.15096786120042524,0.1380670923825664,0.12493077573126463,0.11157564093983705,0.09801867065638223,0.08427706790562463,0.07036822326285282,0.05630968187091146,0.042119110394346966,0.027814263995722142,0.013412953409089816,-0.0010669878156132969,-0.015607735822839877,-0.030191508646904768,-0.044800598028359236,-0.05941740078687611,-0.07402444968589106,-0.08860444372878068,-0.10314027783257568,-0.11761507182871173,-0.13201219874155629,-0.14631531229566555,-0.160508373600613,-0.17457567695825774,-0.18850187473732707,-0.20227200126711023,-0.21587149570909572,-0.2292862238670458,-0.24250249889727296,-0.25550710088625994,-0.2682872952671198,-0.28083085004581876,-0.29312605180887763,-0.305161720491812,-0.3169272228971094,-0.32841248495621445,-0.33960800273239933,-0.3505048521624297,-0.3610946975334935,-0.37136979868840997,-0.3813230169525202,-0.39094781978399773,-0.40023828416214835,-0.4091890987392435,-0.41779556478530555,-0.4260535959511482,-0.43395971686902546,-0.4415110606082917,-0.44870536500489355,-0.45554096788570253,-0.46201680121083455,-0.46813238415918046,-0.47388781518438017,-0.47928376307040677,-0.48432145701778384,-0.48900267579322443,-0.4933297359771538,-0.4973054793458308,-0.5009332594295163,-0.504216927294859,-0.50716081660252,-0.5097697279865784,-0.5120489127958011,-0.5140040562342619,-0.5156412599394459,-0.5169670240372767,-0.5179882287146532,-0.5187121153510733,-0.5191462672517665,-0.519298590026631,-0.5191772916655134,-0.5187908623701322,-0.5181480542059863,-0.5172578606278558,-0.5161294959193706,-0.5147723745808167,-0.5131960906988028,-0.5114103973320926,-0.5094251859484075,-0.5072504659473241,-0.5048963443045448,-0.5023730053733134,-0.4996906908810295,-0.4968596801628134,-0.4938902706745219,-0.49079275882426193,-0.487577421161637,-0.48425449597120357,-0.48083416531874906,-0.47732653758768534,-0.473741630529618,-0.47008935484931963,-0.4663794983443063,-0.46262171061522456,-0.4588254883576958,-0.45500016124353476,-0.4511548783989047,-0.4472985954877469,-0.44344006241202055,-0.43958781164544797,-0.4357501472187269,-0.43193513436877673,-0.42815058985979926,-0.4244040729851215,-0.4207028772594925,-0.4170540228038217,-0.4134642494075948,-0.409940010235569,-0.4064874661403363,-0.40311248055534465,-0.3998206149513114,-0.39661712482843303,-0.3935069562110326,-0.39049474262532435,-0.387584802542693,-0.38478113724203344,-0.3820874290314945,-0.37950703980130623,-0.3770430098990846,-0.3746980572881741,-0.37247457693133773,-0.3703746403804711,-0.36839999557244485,-0.36655206678044494,-0.3648319546417358,-0.36324043623983154,-0.3617779652521726,-0.3604446721072671,-0.3592403640554231,-0.35816452513715713,-0.35721631609234594,-0.35639457418420994,-0.3556978128637397,-0.3551242212840509,-0.3546716637232215,-0.3543376788676827,-0.3541194788418421,-0.35401394799022023,-0.35401764152117177,-0.3541267840398279,-0.3543372679282075,-0.3546446516346576,-0.35504415801217265,-0.35553067273523636,-0.35609874274211034,-0.3567425747667525,-0.35745603412681354,-0.3582326438409719,-0.35906558406496564,-0.35994769193666254,-0.36087146200854303,-0.3618290473512601,-0.3628122613262651,-0.36381258011417733,-0.36482114616508404,-0.36582877264780883,-0.3668259488918108,-0.36780284689108983,-0.3687493290114316,-0.36965495696514056,-0.37050900204039333,-0.3713004566313886,-0.37201804717690184,-0.3726502485540692,-0.3731852999073501,-0.3736112219307241,-0.37391583566593306,-0.3740867828343543,-0.3741115476655907,-0.3739774802034201,-0.37367182109430236,-0.37318172782862885,-0.3724943023627822,-0.37159662005645683,-0.3704757598768668,-0.36911883580538846,-0.3675130293549242,-0.3656456230980411,-0.36350403510674417,-0.3610758541968419,-0.3583488758548696,-0.3553111387135517,-0.3519509614421903,-0.34825697992912996,-0.34421818463243614,-0.33982395795371206,-0.3350641114818073,-0.32992892297636794,-0.3244091729723046,-0.3184961808586782,-0.3121818402744692,-0.30545865370459185,-0.29831976618353556,-0.2907589979734884,-0.2827708760561117,-0.27435066432023053,-0.2654943923601099,-0.2561988827573259,-0.24646177668897767,-0.23628155775381515,-0.2256575739474312,-0.2145900576786868,-0.20308014369714014,-0.19112988486755514,-0.17874226577608246,-0.16592121410119923,-0.15267160964139428,-0.1389992909505652,-0.12491105958285634,-0.11041468190327733,-0.09551888839263314,-0.08023337045331594,-0.06456877478053327,-0.04853669530379786,-0.03214966265724236,-0.015421131209981334,0.0016345362527031922,0.019002086170096143,0.03666539420041237,0.05460748754372301,0.07281056951222144,0.0912560463114023,0.10992455602344428,0.1287959997010373,0.1478495744182833,0.16706380819022326,0.18641659673192978,0.20588524196963087,0.22544649216084944,0.2450765835329491,0.2647512833916909,0.2844459345843455,0.30413550114649096,0.3237946150191308,0.34339762377572985,0.3629186392456653,0.38233158687077523,0.4016102556799757,0.42072834880628435,0.4396595344112975,0.4583774968338015,0.4768559878337696,0.495068877854803,0.5129902071848115,0.5305942368529571,0.5478554991463361,0.5647488476714525,0.5812495068434901,0.5973331206485689,0.6129758005666643,0.6281541725808759,0.6428454231594414,0.6570273440629915,0.6706783758718136,0.6837776501659645,0.6963050302561442,0.7082411503331845,0.7195674529465572,0.7302662247648235,0.7403206305478984,0.7497147452366559,0.7584335840996237,0.7664631309133523,0.7737903641387816,0.7804032810373462,0.7862909196910352,0.7914433789037602,0.7958518359304093,0.7995085619602095,0.8024069353166939,0.80454145237491,0.8059077361891888,0.8065025428121603,0.8063237653076467,0.8053704354819049,0.8036427233466894,0.8011419343165784,0.797870504162117,0.7938319917604164,0.7890310696784257,0.7834735126160468,0.7771661837503818,0.7701170190368427,0.7623350095170722,0.7538301816773836,0.7446135759120096,0.7346972231521292,0.7240941197087583,0.7128182003703125,0.7008843098134727,0.6883081724041344,0.6751063604617353,0.6612962610550606,0.6468960414107224,0.6319246130321204,0.6164015946297093,0.6003472739604675,0.5837825686747143,0.5667289862631774,0.5492085831820394,0.5312439232267289,0.5128580352381868,0.4940743702396266,0.4749167581006987,0.4554093638215139,0.4355766435336047,0.41544330031785426,0.3950342399314025,0.3743745265293058,0.3534893384730304,0.3324039243254779,0.3111435591299598,0.2897335010654118,0.26819894857078713,0.2465649980342421,0.22485660214156938,0.20309852897393638,0.1813153219392477,0.1595312606132685,0.13777032255648802,0.11605614616641792,0.09441199462605389,0.07286072101222048,0.05142473462661852,N
4,-0.3238679679471091,-0.3361340135651268,-0.34820238067871584,-0.36005949890041494,-0.3716923066816427,-0.3830882695486398,-0.3942353970559607,-0.40512225844348354,-0.4157379969841262,-0.426072343008922,-0.43611562559415057,-0.4458587828962209,-0.455293371125343,-0.4644115721513464,-0.47320619973074723,-0.4816707043440375,-0.48979917664362044,-0.4975863495256558,-0.5050275988434275,-0.5121189427811547,-0.5188570399108565,-0.525239185953577,-0.5312633092567971,-0.5369279649973064,-0.5422323281313598,-0.5471761851221718,-0.5517599244657784,-0.555984526032035,-0.5598515492518605,-0.5633631201847198,-0.5665219174747191,-0.5693311571926878,-0.57179457659392,-0.5739164168493606,-0.5757014047943178,-0.5771547337270709,-0.5782820433126723,-0.5790893986495904,-0.5795832685055,-0.5797705027037003,-0.5796583086964748,-0.5792542274058428,-0.5785661083763594,-0.5776020842573093,-0.5763705446828572,-0.5748801096539363,-0.5731396024725725,-0.5711580222429234,-0.5689445160138614,-0.5665083506834437,-0.5638588847285834,-0.5610055397805195,-0.5579577721302457,-0.5547250442944455,-0.5513167967050406,-0.5477424195352906,-0.5440112247463814,-0.540132418495591,-0.5361150739808244,-0.5319681047419716,-0.5277002385094406,-0.523319991750829,-0.5188356450049075,-0.5142552190362332,-0.5095864519040624,-0.5048367770922023,-0.5000133027854347,-0.4951227923219813,-0.4901716459033007,-0.4851658836895449,-0.48011113035245584,-0.4750126011034909,-0.46987508925807986,-0.4647029554400264,-0.45950011848445915,-0.4542700480492916,-0.44901575897435053,-0.4437398074595168,-0.438444289096925,-0.4331308387509031,-0.4278006322947108,-0.4224543902319225,-0.417092383200139,-0.4117144393207766,-0.4063199533663939,-0.40090789773113555,-0.3954768351725073,-0.39002493326833476,-0.3845499805308201,-0.3790494041266983,-0.3735202891480134,-0.36795939936399,-0.3623631993565907,-0.3567278778661957,-0.351049372058797,-0.3453233923861851,-0.3395454478175628,-0.3337108713826924,-0.32781484606589384,-0.3218524311007458,-0.31581858867067686,-0.30970821098702755,-0.30351614772742047,-0.29723723382100214,-0.29086631752526454,-0.28439828871146106,-0.2778281073048174,-0.2711508318422661,-0.26436164806359297,-0.2574558974185527,-0.2504291054105331,-0.24327700972381563,-0.23599558803167253,-0.22858108534184451,-0.2210300407739082,-0.21333931369557135,-0.2055061091033401,-0.19752800210440935,-0.18940296140976354,-0.1811293717890302,-0.17270605539224004,-0.16413229181265154,-0.15540783682619752,-0.14653293978983606,-0.1375083596275113,-0.12833537928581928,-0.1190158185921485,-0.10955204549507382,-0.09994698562384315,-0.09020413007035478,-0.08032754135600363,-0.07032185759555871,-0.06019229482625252,-0.04994464743243951,-0.039585286649408,-0.02912115717830882,-0.018559771905960212,-0.007909204692884324,0.0028219187506026058,0.01362443183235415,0.024488639862483605,0.0354043346598662,0.04636081093635522,0.05734688436869306,0.06835091130682504,0.079360810104127,0.09036408401388298,0.10134784555587929,0.11229884228673101,0.12320348393164329,0.1340478707893539,0.1448178232834543,0.15549891256833376,0.1660764921343631,0.17653573032890274,0.1868616436786386,0.19703913092196393,0.20705300768199433,0.2168880416811723,0.22652898837109817,0.23596062687349328,0.2451677961489629,0.2541354312848092,0.26284859977035957,0.2712925376503871,0.27945268546680346,0.28731472387548795,0.2948646088057759,0.3020886060560949,0.3089733252490702,0.31550575306284123,0.321673285642993,0.32746376011291617,0.33286548511362296,0.33786727029260194,0.34245845465124186,0.3466289336747067,0.3503691851823486,0.3536702938290367,0.35652397418098924,0.358922592304326,0.36085918581977006,0.36232748237352586,0.3633219164704886,0.3638376446289005,0.3638705588300491,0.36341729823731433,0.36247525915765283,0.3610426032278819,0.35911826381877193,0.3567019506521604,0.3537941526269199,0.35039613885657167,0.34650995793063427,0.34213843541752337,0.3372851696295395,0.33195452567204087,0.326151627798154,0.3198823500877719,0.3131533054709199,0.30597183312493675,0.2983459842888218,0.29028450655018173,0.2817968266651884,0.2728930319689304,0.26358385042864246,0.25388062939134376,0.24379531307976357,0.23334041889347193,0.22252901257502825,0.2113746823036952,0.1998915117818222,0.18809405238204743,0.17599729442888687,0.1636166376955853,0.15096786120042524,0.1380670923825664,0.12493077573126463,0.11157564093983705,0.09801867065638223,0.08427706790562463,0.07036822326285282,0.05630968187091146,0.042119110394346966,0.027814263995722142,0.013412953409089816,-0.0010669878156132969,-0.015607735822839877,-0.030191508646904768,-0.044800598028359236,-0.05941740078687611,-0.07402444968589106,-0.08860444372878068,-0.10314027783257568,-0.11761507182871173,-0.13201219874155629,-0.14631531229566555,-0.160508373600613,-0.17457567695825774,-0.18850187473732707,-0.20227200126711023,-0.21587149570909572,-0.2292862238670458,-0.24250249889727296,-0.25550710088625994,-0.2682872952671198,-0.28083085004581876,-0.29312605180887763,-0.305161720491812,-0.3169272228971094,-0.32841248495621445,-0.33960800273239933,-0.3505048521624297,-0.3610946975334935,-0.37136979868840997,-0.3813230169525202,-0.39094781978399773,-0.40023828416214835,-0.4091890987392435,-0.41779556478530555,-0.4260535959511482,-0.43395971686902546,-0.4415110606082917,-0.44870536500489355,-0.45554096788570253,-0.46201680121083455,-0.46813238415918046,-0.47388781518438017,-0.47928376307040677,-0.48432145701778384,-0.48900267579322443,-0.4933297359771538,-0.4973054793458308,-0.5009332594295163,-0.504216927294859,-0.50716081660252,-0.5097697279865784,-0.5120489127958011,-0.5140040562342619,-0.5156412599394459,-0.5169670240372767,-0.5179882287146532,-0.5187121153510733,-0.5191462672517665,-0.519298590026631,-0.5191772916655134,-0.5187908623701322,-0.5181480542059863,-0.5172578606278558,-0.5161294959193706,-0.5147723745808167,-0.5131960906988028,-0.5114103973320926,-0.5094251859484075,-0.5072504659473241,-0.5048963443045448,-0.5023730053733134,-0.4996906908810295,-0.4968596801628134,-0.4938902706745219,-0.49079275882426193,-0.487577421161637,-0.48425449597120357,-0.48083416531874906,-0.47732653758768534,-0.473741630529618,-0.47008935484931963,-0.4663794983443063,-0.46262171061522456,-0.4588254883576958,-0.45500016124353476,-0.4511548783989047,-0.4472985954877469,-0.44344006241202055,-0.43958781164544797,-0.4357501472187269,-0.43193513436877673,-0.42815058985979926,-0.4244040729851215,-0.4207028772594925,-0.4170540228038217,-0.4134642494075948,-0.409940010235569,-0.4064874661403363,-0.40311248055534465,-0.3998206149513114,-0.39661712482843303,-0.3935069562110326,-0.39049474262532435,-0.387584802542693,-0.38478113724203344,-0.3820874290314945,-0.37950703980130623,-0.3770430098990846,-0.3746980572881741,-0.37247457693133773,-0.3703746403804711,-0.36839999557244485,-0.36655206678044494,-0.3648319546417358,-0.36324043623983154,-0.3617779652521726,-0.3604446721072671,-0.3592403640554231,-0.35816452513715713,-0.35721631609234594,-0.35639457418420994,-0.3556978128637397,-0.3551242212840509,-0.3546716637232215,-0.3543376788676827,-0.3541194788418421,-0.35401394799022023,-0.35401764152117177,-0.3541267840398279,-0.3543372679282075,-0.3546446516346576,-0.35504415801217265,-0.35553067273523636,-0.35609874274211034,-0.3567425747667525,-0.35745603412681354,-0.3582326438409719,-0.35906558406496564,-0.35994769193666254,-0.36087146200854303,-0.3618290473512601,-0.3628122613262651,-0.36381258011417733,-0.36482114616508404,-0.36582877264780883,-0.3668259488918108,-0.36780284689108983,-0.3687493290114316,-0.36965495696514056,-0.37050900204039333,-0.3713004566313886,-0.37201804717690184,-0.3726502485540692,-0.3731852999073501,-0.3736112219307241,-0.37391583566593306,-0.3740867828343543,-0.3741115476655907,-0.3739774802034201,-0.37367182109430236,-0.37318172782862885,-0.3724943023627822,-0.37159662005645683,-0.3704757598768668,-0.36911883580538846,-0.3675130293549242,-0.3656456230980411,-0.36350403510674417,-0.3610758541968419,-0.3583488758548696,-0.3553111387135517,-0.3519509614421903,-0.34825697992912996,-0.34421818463243614,-0.33982395795371206,-0.3350641114818073,-0.32992892297636794,-0.3244091729723046,-0.3184961808586782,-0.3121818402744692,-0.30545865370459185,-0.29831976618353556,-0.2907589979734884,-0.2827708760561117,-0.27435066432023053,-0.2654943923601099,-0.2561988827573259,-0.24646177668897767,-0.23628155775381515,-0.2256575739474312,-0.2145900576786868,-0.20308014369714014,-0.19112988486755514,-0.17874226577608246,-0.16592121410119923,-0.15267160964139428,-0.1389992909505652,-0.12491105958285634,-0.11041468190327733,-0.09551888839263314,-0.08023337045331594,-0.06456877478053327,-0.04853669530379786,-0.03214966265724236,-0.015421131209981334,0.0016345362527031922,0.019002086170096143,0.03666539420041237,0.05460748754372301,0.07281056951222144,0.0912560463114023,0.10992455602344428,0.1287959997010373,0.1478495744182833,0.16706380819022326,0.18641659673192978,0.20588524196963087,0.22544649216084944,0.2450765835329491,0.2647512833916909,0.2844459345843455,0.30413550114649096,0.3237946150191308,0.34339762377572985,0.3629186392456653,0.38233158687077523,0.4016102556799757,0.42072834880628435,0.4396595344112975,0.4583774968338015,0.4768559878337696,0.495068877854803,0.5129902071848115,0.5305942368529571,0.5478554991463361,0.5647488476714525,0.5812495068434901,0.5973331206485689,0.6129758005666643,0.6281541725808759,0.6428454231594414,0.6570273440629915,0.6706783758718136,0.6837776501659645,0.6963050302561442,0.7082411503331845,0.7195674529465572,0.7302662247648235,0.7403206305478984,0.7497147452366559,0.7584335840996237,0.7664631309133523,0.7737903641387816,0.7804032810373462,0.7862909196910352,0.7914433789037602,0.7958518359304093,0.7995085619602095,0.8024069353166939,0.80454145237491,0.8059077361891888,0.8065025428121603,0.8063237653076467,0.8053704354819049,0.8036427233466894,0.8011419343165784,0.797870504162117,0.7938319917604164,0.7890310696784257,0.7834735126160468,0.7771661837503818,0.7701170190368427,0.7623350095170722,0.7538301816773836,0.7446135759120096,0.7346972231521292,0.7240941197087583,0.7128182003703125,0.7008843098134727,0.6883081724041344,0.6751063604617353,0.6612962610550606,0.6468960414107224,0.6319246130321204,0.6164015946297093,0.6003472739604675,0.5837825686747143,0.5667289862631774,0.5492085831820394,0.5312439232267289,0.5128580352381868,0.4940743702396266,0.4749167581006987,0.4554093638215139,0.4355766435336047,0.41544330031785426,0.3950342399314025,0.3743745265293058,0.3534893384730304,0.3324039243254779,0.3111435591299598,0.2897335010654118,0.26819894857078713,0.2465649980342421,0.22485660214156938,0.20309852897393638,0.1813153219392477,0.1595312606132685,0.13777032255648802,0.11605614616641792,0.09441199462605389,0.07286072101222048,0.05142473462661852,0.030125968608209108,0.008985848880005224,-0.011974735524694935,-0.03273546072162824,-0.053276594791605764,-0.07357902312329062,-0.09362427224963013,-0.11339453214563741,-0.13287267695926855,-0.1520422841532283,-0.17088765204665757,-0.18939381576083458,-0.20754656158055096,-0.22533243973646258,-0.24273877560607585,-0.25975367933330523,-0.276366053871649,-0.29256560145652244,-0.3083428285152229,-0.3236890490333678,-0.3385963864035918,-0.35305777377784464,-0.3670669529392676,-0.3806184717130743,-0.39370767994119826,-0.406330724045389,-0.41848454020377707,-0.43016684617205087,-0.4413761317858262,-0.4521116481808567,-0.4623733957707923,-0.4721621110331047,-0.4814792521602651,-0.49032698362644117,-0.4987081597116964,-0.5066263070271244,-0.5140856060884591,-0.5210908719845292,-0.5276475341860999,-0.5337616155455441,-0.5394397105419487,-0.5446889628229754,-0.5495170420867108,-0.5539321203402023,-0.5579428475716304,-0.561558326879653,-0.5647880891064091,-0.5676420670151324,-0.5701305690516408,-0.5722642527386178,-0.5740540977570082,-0.5755113787597838,-0.5766476379586135,-0.5774746575359405,-0.5780044319401539,-0.5782491401047488,-0.5782211176232473,-0.5779328289285015,-0.5773968395281397,-0.5766257883139025,-0.5756323599455673,-0.5744292573452078,-0.573029174360746,-0.5714447686233713,-0.5696886346011826,-0.5677732768956296,-0.5657110838681032,-0.563514301661707,-0.5611950086601778,-0.558765090452611,-0.5562362153766701,-0.5536198106465845,-0.5509270390349351,-0.5481687761368942,-0.5453555882904281,-0.5424977111711516,-0.5396050290397042,-0.5366870546817971,-0.5337529101257915,-0.5308113081559466,-0.5278705345906843,-0.524938431366601,-0.5220223805278634,-0.5191292891585879,-0.5162655752436611,-0.513437154509094,-0.5106494283433832,-0.5079072728285853,-0.505215028852055,-0.5025764933414191,-0.49999491173279803,-0.4974729717287681,-0.4950127983479285,-0.49261595031940736,-0.49028341792042823,-0.48801562229472356,-0.48581241623466503,-0.4836730864562758,-0.481596357438859,-0.4795803968476985,-0.4776228225072242,-0.47572071093183715,-0.4738706074656001,-0.4720685380475545,-0.470310022577021,-0.46859008987297757,-0.4669032942454707,-0.46524373366704297,-0.46360506949706726,-0.4619805477208826,-0.4603630216801876,-0.45874497625082633,-0.4571185533980545,-0.45547557904024444,-0.45380759116084407,-0.4521058691007606,-0.4503614639474946,-0.4485652299288113,-0.4467078567187851,-0.4447799025658553,-0.4427718281463199,-0.44067403103241765,-0.43847688066186896,-0.43617075371299363,-0.4337460697943786,-0.4311933273326274,-0.4285031395263734,-0.4256662702565104,-0.4226736698557303,-0.41951651061261475,-0.41618622186927123,-0.4126745246044773,-0.40897346541635826,-0.4050754497860294,-0.4009732744836765,-0.3966601590209342,-0.3921297760834992,-0.3873762808393576,-0.38239433899121733,-0.377179153488853,-0.3717264898533176,-0.36603270002488986,-0.36009474462207913,-0.3539102135595894,-0.34747734501708505,-0.3407950426972035,-0.3338628912606978,-0.32668116986588003,-0.3192508637813438,-0.3115736740086901,-0.30365202483366277,-0.29548906928948077,-0.28708869256498165,-0.27845551334268465,-0.26959488300693296,-0.2605128827054765,-0.25121631829208185,-0.24171271314542805,-0.2320102988341429,-0.22211800365038079,-0.21204543907926018,-0.20180288423768045,-0.19140126828905168,-0.18085215089133821,-0.17016770077896692,-0.15936067254233127,-0.14844438163403756,-0.13743267767059492,-0.12633991613663403,-0.11518092856992808,-0.10397099128280636,-0.09272579272056598,-0.0814613995945044,-0.07019422189167049,-0.05894097682526242,-0.04771865181340587,-0.03654446660300903,-0.02543583463590196,-0.01441032373977555,-0.003485616261936984,0.007320531208156725,0.017990328409513513,0.028505992184259192,0.03884978734796681,0.04900406752618904,0.05895131584723263,0.06867418539723724,0.07815553931867153,0.08737849041403306,0.09632644014236467,0.10498311692391459,0.11333261365795942,0.12135942434552736,0.12904847972695044,0.13638518186483006,0.14335543759704217,0.14994569077542275,0.15614295321698315,0.16193483430465275,0.1673095691647877,0.17225604534154162,0.1767638279023685,0.1808231829217561,0.18442509928293188,0.187561308732282,0.19022430413965624,0.19240735594361363,0.19410452677346018,0.19531068424170622,0.19602151189962871,0.1962335183458255,0.19594404447340466,0.19515126884154313,0.19385421116496418,0.1920527339250027,0.1897475421124484,0.1869401811158327,0.18363303277128298,0.17982930959084123,0.175533047185545,0.17074909490194393,0.16548310469980826,0.1597415183138549,0.15353155275809988,0.14686118423812194,0.13973913053045578,0.13217483188089968,0.12417843047455475,0.11576074853441772,0.10693326510636347,0.09770809159228544,0.08809794610352156,0.07811612671276308,0.0677764836770907,0.05709339069826611,0.046081715288650606,0.034756788315196276,0.023134372791863513,0.011230631986494287,-0.0009379030925455649,-0.013354366762358474,-0.026001592212663172,-0.038862145454613216,-0.051918359580514474,-0.06515236923934009,-0.07854614524228938,-0.09208152922818598,-0.10574026832954093,-0.11950404978182479,-0.13335453541060427,-0.1472733959166579,-0.16124234486479105,-0.17524317227890318,-0.18925777775772512,-0.2032682030395755,-0.21725666394915122,-0.23120558166036975,-0.24509761321488255,-0.2589156812451039,-0.2726430028586784,-0.2862631176442987,-0.29975991475482316,-0.31311765901400573,-0.3263210159830546,-0.33935507592244357,-0.35220537659650414,-0.36485792488189045,-0.3772992171461747,-0.3895162583650312,-0.4014965799533286,-0.4132282562957868,-0.42469991997190376,-0.4359007756736693,-0.44682061281198276,-0.4574498168018582,-0.4677793790121659,-0.47780090536673386,-0.487506623590081,-0.49688938909633185,-0.5059426895200633,-0.5146606478892556,-0.5230380244485596,-0.5310702171509883,-0.538753260842041,-0.5460838251627734,-0.5530592112007012,-0.55967734692236,-0.5659367814283552,-0.571836678074949,-0.5773768065015109,-0.5825575335939382,-0.5873798134067564,-0.5918451760662714,-0.5959557156847305,-0.5997140773247768,-0.6031234430587181,-0.6061875171688776,-0.608910510535639,-0.6112971242581132,-0.6133525325490045,-0.6150823649446281,-0.6164926878757268,-0.6175899856507213,-0.6183811409059429,-0.6188734145776708,-0.6190744254497318,-0.6189921293266805,-0.6186347978766813,-0.6180109971860022,-0.6171295660726331,-0.6159995942165272,-0.614630400171981,-0.6130315093285051,-0.6112126318786202,-0.6091836408386233,-0.6069545501578308,-0.6045354929483566,-0.601936699870989,-0.5991684777141582,-0.5962411881972409,-0.5931652270259171,-0.5899510032334266,-0.5866089188492009,-0.5831493489369427,-0.5795826220416652,-0.5759190010825329,-0.572168664716988,-0.5683416891805048,-0.5644480305976421,-0.5604975077762806,-0.556499785513114,-0.5524643584340623,-0.5484005353866712,-0.5443174244081012,-0.5402239182893595,-0.5361286807307196,-0.5320401330701455,-0.5279664415865775,-0.5239155053864908,-0.5198949448462316,-0.5159120905634123,-0.5119739728068798,-0.5080873114750132,-0.5042585065273216,-0.5004936288278709,-0.496798411389878,-0.4931782410432557,-0.4896381504918288,-0.4861828106919923,-0.4828165235486194,-0.4795432149667553,-0.47636642822995484,-0.47328931763134346,-0.47031464236299897,-0.4674447607315169,-0.46468162470089475,-0.4620267747126499,-0.45948133481160075,-0.45704600816001256,-0.4547210729342675,-0.4525063785356667,-0.45040134214149713,-0.44840494569751227,-0.4465157333671245,-0.4447318093844514,-0.44305083635261294,-0.44147003410243807,-0.4399861791320499,-0.4385956045727411,-0.4372942007254218,-0.43607741629810726,-0.43494026039081224,-0.43387730519856504,-0.4328826894895,-0.43195012299088914,-0.43107289173315927,-0.43024386432632294,-0.4294554992193624,-0.42869985306509556,-0.4279685902423879,-0.42725299351697305,-0.42654397588100446,-0.4258320936709524,-0.4251075610047338,-0.42436026551609085,-0.42357978540470137,-0.4227554078660471,-0.4218761489206759,-0.4209307746102055,-0.4199078235483016,-0.4187956308409182,-0.4175823533536793,-0.4162559962624288,-0.4148044408327026,-0.4132154733884369,-0.41147681540256,-0.4095761546108684,-0.4075011770574458,-0.4052396000007582,-0.4027792056106566,-0.40010787537116055,-0.39721362508863794,-0.3940846403995563,-0.3907093126748297,-0.3870762752126477,-0.38317443959342135,-0.3789930320665382,-0.37452162986158877,-0.36975019732526526,-0.36466912175504385,-0.35926924878391253,-0.35354191720146144,-0.34747899311574015,-0.3410729033233748,-0.33431666772590063,-0.327203930658859,-0.3197289910254182,-0.31188683109950943,-0.30367314385305144,-0.2950843587167232,-0.2861176657205039,-0.276771037917975,-0.2670432519675165,-0.2569339067944271,-0.2464434402991084,-0.23557314403427917,-0.22432517574284924,-0.21270256970348297,-0.20070924487650352,-0.18835001080083358,-0.17563057116286507,-0.16255752502020837,-0.1491383657129196,-0.13538147744852405,-0.12129612951220506,-0.10689246811659373,-0.09218150595726529,-0.07717510949050087,-0.061885983907959956,-0.04632765584008696,-0.03051445387089362,-0.014461486902575468,0.0018153796250821314,0.01829954959164349,0.03497372400847765,0.051819930715831054,0.0688195559370238,0.08595337760753291,0.10320160034778236,0.12054389199491557,0.13795942165153874,0.15542689916174424,0.1729246158797233,0.1904304866355796,0.20792209283786156,0.22537672660591812,0.24277143578358396,0.2600830697230426,0.27728832576065787,0.29436379626364706,0.3112860160888221,N
