0,0.893383616500184,0.885493662409881,0.876961085786701,0.8677973003694772,0.8580145060906643,0.8476256654640253,0.8366444786558109,0.8250853573060513,0.8129633971567778,0.8002943495560048,0.7870945919124074,0.773381097155094,0.7591714022402455,0.7444835757683012,0.729336184797912,0.7137482609358282,0.6977392657719531,0.6813290557409605,0.6645378465005568,0.6473861769004369,0.6298948726039776,0.6120850094392317,0.5939778765663793,0.5755949395315959,0.5569578032642669,0.5380881750918224,0.5190078278633895,0.49973856326268373,0.48030217537849873,0.4607204146118559,0.4410149520073198,0.42120734408072086,0.4013189982023701,0.381371138604248,0.3613847730829125,0.3413806604462808,0.3213792787366019,0.30140079428016575,0.28146503163177505,0.26159144446877436,0.24179908747516876,0.22210658926779822,0.20253212642543247,0.18309339866389104,0.16380760518493628,0.14469142223821366,0.125760981945831,0.10703185242390671,0.08851901922071574,0.0702368680993293,0.05219916919751618,0.03441906257794133,0.016909045166121624,-0.00031904091412940074,-0.017254018584988172,-0.033885384626769474,-0.0502033170591894,-0.06619868108851286,-0.08186303361762164,-0.09718862633787821,-0.11216840743677718,-0.1267960219416815,-0.14106581070416602,-0.1549728080366125,-0.16851273802390276,-0.1816820095287294,-0.19447770990457883,-0.2068975974408415,-0.2189400925749553,-0.23060426790330085,-0.24188983701892902,-0.2527971422124397,-0.26332714108085614,-0.2734813920856347,-0.28326203909068837,-0.292671794905228,-0.30171392385915796,-0.3103922234469597,-0.3187110050750953,-0.3266750739341103,-0.3342897080138717,-0.34156063630097633,-0.34849401620883047,-0.35509641027293937,-0.36137476213563124,-0.3673363718710116,-0.37298887071315806,-0.378340195216815,-0.3833985608625234,-0.3881724351582059,-0.39267051031064826,-0.3969016754917458,-0.4008749886968319,-0.40459964824925765,-0.4080849640414058,-0.41134032854195,-0.4143751875610392,-0.417199010835709,-0.41982126254378704,-0.4222513717777857,-0.4244987029597894,-0.4265725262667082,-0.42848198820326383,-0.4302360823828311,-0.43184362051737774,-0.4333132037067986,-0.4346531941826379,-0.4358716875665274,-0.4369764856334748,-0.4379750696696945,-0.43887457459397333,-0.4396817639170923,-0.4404030055372153,-0.44104424846719525,-0.44161100066874215,-0.44210830806918966,-0.4425407347543351,-0.4429123444265872,-0.4432266832958478,-0.44348676446906166,-0.44369505381863283,-0.4438534574039482,-0.44396331060362104,-0.44402536902541534,-0.44403980117689856,-0.4440061829589036,-0.4439234941111506,-0.4437901166454955,-0.4436038352191366,-0.44336183948273933,-0.4430607285439129,-0.4426965176657386,-0.44226464726080306,-0.44175999424081935,-0.44117688575850933,-0.4405091152697779,-0.4397499607732037,-0.4388922051404837,-0.43792815851203487,-0.4368496826879457,-0.435648217392615,-0.4343148083243316,-0.43284013693308504,-0.4312145518222135,-0.4294281016239104,-0.4274705692302658,-0.4253315072997867,-0.42300027493487774,-0.42046607539283104,-0.417717994709091,-0.4147450411378266,-0.41153618530580505,-0.4080804009549135,-0.40436670614733405,-0.40038420481184434,-0.3961221285014137,-0.39156987822031086,-0.3867170661779064,-0.3815535573377204,-0.3760695106450915,-0.3702554198181602,-0.3641021535707436,-0.35760099512857346,-0.35074368091721286,-0.3435224383094999,-0.33593002230246244,-0.32795975098679825,-0.31960553970165156,-0.3108619337864463,-0.3017241398180697,-0.29218805521174,-0.28225029610602187,-0.27190822348054106,-0.2611599674211144,-0.2500044494237012,-0.23844140267133526,-0.2264713902517461,-0.21409582124913923,-0.20131696462212395,-0.18813796083294682,-0.17456283123330346,-0.1605964851711984,-0.14624472475424977,-0.13151424726049554,-0.11641264523192618,-0.1009484042423267,-0.08513089830016368,-0.06897038290879587,-0.052477985854485376,-0.03566569574248305,-0.01854634825955277,-0.0011336101963155217,0.016558038688965524,0.0345133259282429,0.052716208718237095,0.0711498983409587,0.0897968865081066,0.10863897356032685,0.12765729849569707,0.14683237074169508,0.16614410353436726,0.18557184882184274,0.20509443365522717,0.22469019797407785,0.244337033644753,0.264012424659566,0.28369348844486997,0.3033570181672577,0.3229795258786118,0.3425372863941681,0.36200638184547845,0.3813627468004142,0.4005822137975819,0.419640559190089,0.43851354923185604,0.4571769862843872,0.47560675497768623,0.4937788682123562,0.5116695129374126,0.5292550955923213,0.5465122870612947,0.5634180670379675,0.5799497677434519,0.596085116898139,0.6118022798100501,0.6270799004900312,0.6418971417482657,0.6562337241902361,0.6700699639965952,0.6833868094136444,0.6961658759209353,0.7083894800107833,0.7200406714846597,0.731103264207702,0.7415618652934461,0.7514019026559429,0.760609650838266,0.7691722550664949,0.7770777535172063,0.784315097763102,0.7908741713379631,0.7967458063950941,0.8019217984656677,0.8063949193031668,0.810158927779941,0.8132085788289715,0.8155396304491896,0.8171488487728041,0.8180340111752248,0.8181939074329404,0.8176283389553617,0.8163381160943547,0.8143250535181751,0.8115919636656564,0.8081426483269264,0.8039818883873798,0.799115431758806,0.7935499795400494,0.7872931704654558,0.780353563683043,0.772740619891312,0.7644646808834841,0.7555369475656359,0.745969456501058,0.7357750550211639,0.7249673749628948,0.713560805111943,0.7015704624216083,0.6890121620666901,0.6759023864051988,0.6622582529292408,0.6480974812678851,0.633438359292399,0.6182997083940065,0.6027008480229825,0.5866615595669029,0.5702020496347306,0.5533429128288623,0.5361050941027286,0.5185098507924091,0.5005787144001681,0.48233345221667767,0.46379602887373717,0.4449885679021023,0.4259333133565716,0.4066525915837635,0.3871687732194648,0.3675042354891364,0.34768132487308984,0.3277223202087648,0.30764939630986177,0.2874845881646081,0.2672497557619157,0.24696654960780304,0.22665637700670824,0.2063403691688381,0.18603934919162188,0.1657738009735826,0.14556383912756973,0.1254291799457433,0.10538911345532871,0.08546247661256848,0.06566762768799736,0.04602242187917895,0.026544188173041713,0.007249707489247328,-0.011844807858837732,-0.03072373336909399,-0.04937205022015792,-0.06777536178967758,-0.08591990878991487,-0.10379258299874963,-0.12138093957673726,-0.13867320795580332,-0.1556583012836187,-0.1723258244267543,-0.18866608054998926,-0.20467007627828315,-0.22032952543596485,-0.23563685136669943,-0.250585187849249,-0.26516837861962916,-0.27938097550577534,-0.29321823519126766,-0.3066761146352003,-0.31975126517104935,-0.3324410252982427,-0.34474341217923377,-0.356657111860894,-0.36818146824498127,-0.3793164708331886,-0.3900627412687165,-0.4004215186987205,-0.410394643993064,-0.419984542855694,-0.4291942078478995,-0.43802717933808244,-0.44648752541656844,-0.45457982082490445,-0.4623091249219825,-0.4696809586970546,-0.47670128087616814,-0.48337646318851557,-0.4897132648191216,-0.49571880605257346,-0.50140054116358,-0.5067662306435232,-0.5118239128026403,-0.5165818747563482,-0.5210486228658673,-0.5252328527445536,-0.5291434188783835,-0.5327893038672351,-0.5361795873666416,-0.5393234148595368,-0.5422299663103515,-0.5449084247007353,-0.5473679445333556,-0.549617620458371,-0.5516664560998371,-0.5535233330987467,-0.5551969804761715,-0.5566959444866161,-0.5580285590438195,-0.5592029167322653,-0.5602268405071679,-0.5611078562557069,-0.5618531662987286,-0.5624696238368133,-0.5629637084364351,-0.5633415027290501,-0.5636086704066144,-0.5637704355193714,-0.563831563166318,-0.5637963417415417,-0.5636685668125243,-0.5634515266283802,-0.5631479893315857,-0.5627601920132678,-0.5622898316692083,-0.561738058037592,-0.561105468365454,-0.5603921042092718,-0.5595974502965088,-0.5587204354024383,-0.5577594352759001,-0.5567122778016644,-0.5555762506815887,-0.5543481118991309,-0.5530241031112296,-0.5515999659416623,-0.5500709610024438,-0.5484318894121253,-0.5466771166205027,-0.5448005983929953,-0.5427959087846579,-0.5406562699052164,-0.5383745833032736,-0.5359434628286481,-0.5333552688155414,-0.5306021434079276,-0.5276760468654412,-0.5245687947107806,-0.5212720955731477,-0.5177775895692144,-0.5140768870700986,-0.5101616077154941,-0.5060234195357444,-0.5016540780369932,-0.4970454651066598,-0.49218962760731966,-0.4870788155396881,-0.4817055196585529,-0.4760625084179528,-0.47014286412409406,-0.4639400181956885,-0.4574477854424392,-0.4506603972556355,-0.44357253359538523,-0.43617935368163646,-0.4284765253126976,-0.4204602527184047,-0.4121273028507497,-0.40347503005325613,-0.3945013990752493,-0.38520500636811217,-0.37558509957901076,-0.3656415951913051,-0.3553750942887687,-0.344786896394401,-0.3338790113194721,-0.3226541690043441,-0.3111158273664308,-0.299268178136607,-0.28711615064162366,-0.274665413537568,-0.26192237453647593,-0.24889417812943182,-0.23558870127764808,-0.22201454708650603,-0.20818103651541775,-0.194098198141716,-0.17977675597241047,-0.16522811534992096,-0.1504643470387271,-0.1354981695386837,-0.12034292963727239,-0.10501258126097351,-0.08952166272641321,-0.07388527245117485,-0.058119043150898365,-0.042239114597219664,-0.026262105051409947,-0.01020508144782359,0.005914471630844629,0.02207868409448742,0.03826933347030566,0.05446787892432795,0.07065549613438359,0.08681311292994869,0.10292144557741077,0.11896103562721325,0.1349122872714171,0.15075550511794764,0.16647093225202877,0.18203878849372143,0.19743930879255497,0.21265278165892096,0.22765958749787793,0.24244023675182422,0.2569754077948348,0.2712459844859057,0.2852330932572065,0.2989181396528199,0.31228284427139863,0.32530927803879706,0.3379798967096289,0.3502775745278166,0.362185637001859,0.3736878927172058,0.38476866408176935,0.39541281693703845,0.40560578900433863,0.41533361711740857,0.4245829631716024,0.43334113874484625,0.44159612836466344,0.4493366113665447,0.456551982267662,0.4632323696132099,0.4693686532885901,0.47495248028092885,0.47997627885838856,0.4844332711539668,0.48831748415348414,0.4916237590635076,0.4943477590185619,N,,,,,,,,,,,,,,,,,,,,,,,,,,,,,,,,,,,,,,,,,,,,,,,,,,,,,,,,,,,,,,,,,,,,,,,,,,,,,,,,,,,,,,,,,,,,,,,,,,,,,,,,,,,,,,,,,,,,,,,,,,,,,,,,,,,,,,,,,,,,,,,,,,,,,,,,,,,,,,,,,,,,,,,,,,,,,,,,,,,,,,,,,,,,,,,,,,,,,,,,,,,,,,,,,,,,,,,,,,,,,,,,,,,,,,,,,,,,,,,,,,,,,,,,,,,,,,,,,,,,,,,,,,,,,,,,,,,,,,,,,,,,,,,,,,,,,,,,,,,,,,,,,,,,,,,,,,,,,,,,,,,,,,,,,,,,,,,,,,,,,,,,,,,,,,,,,,,,,,,,,,,,,,,,,,,,,,,,,,,,,,,,,,,,,,,,,,,,,,,,,,,,,,,,,,,,,,,,,,,,,,,,,,,,,,,,,,,,,,,,,,,,,,,,,,,,,,,,,,,,,,,,,,,,,,,,,,,,,,,,,,,,,,,,,,,,,,,,,,,,,,,
1,0.3497802887844034,0.3541292028420639,0.35800134965490565,0.3613912720748731,0.3642941658295069,0.36670588633295087,0.36862295427258496,0.3700425599651541,0.3709625664955948,0.3713815116355702,0.3712986085243951,0.37071374511515526,0.36962748240806903,0.36804105148025595,0.36595634930876436,0.3633759334006805,0.3603030152586752,0.3567414526955907,0.35269574099987006,0.3481710029719047,0.3431729778683547,0.33770800928008987,0.33178303195893605,0.32540555762411705,0.3185836597919989,0.31132595765843485,0.3036415990521637,0.2955402424954733,0.28703203842476877,0.2781276096130393,0.2688380308262247,0.25917480776072127,0.24914985532410497,0.23877547531242052,0.2280643335281141,0.2170294363934018,0.20568410712207855,0.19404196149981592,0.18211688331291778,0.16992299947791617,0.1574746549353479,0.1447863873603123,0.13187290173270955,0.11874904482063733,0.1054297796384013,0.09193015992731515,0.07826530469698387,0.06445037287704682,0.05050053814141622,0.03643096395840386,0.022256778910605974,0.007993052335698319,-0.006345229656337463,-0.020743187748430973,-0.03518607253382673,-0.04965928714443609,-0.06414840933669076,-0.07863921298739336,-0.09311768896086887,-0.1075700653051018,-0.12198282673201574,-0.13634273334769262,-0.1506368386076152,-0.16485250646755448,-0.17897742769609196,-0.19299963532228318,-0.20690751920003628,-0.22068983966889863,-0.23433574029049262,-0.2478347596500878,-0.26117684222099014,-0.2743523482841408,-0.2873520628858579,-0.3001672038147314,-0.3127894285830912,-0.32521084040405457,-0.3374239931603149,-0.3494218953655921,-0.3611980131240333,-0.3727462720956814,-0.3840610584740916,-0.395137218976158,-0.40597005984446427,-0.41655534487219875,-0.4268892924624203,-0.43696857171909714,-0.446790297562829,-0.45635202488486637,-0.4656517417666811,-0.4746878617769167,-0.4834592153493181,-0.4919650402693737,-0.5002049713103719,-0.5081790290319491,-0.5158876077392566,-0.5233314626354708,-0.5305116962227052,-0.537429743972164,-0.5440873592632076,-0.5504865976336213,-0.5566298004116039,-0.5625195777562475,-0.5681587911047867,-0.5735505350768527,-0.5786981189231787,-0.5836050475561377,-0.5882750021641968,-0.5927118204707512,-0.5969194767415108,-0.6009020615887918,-0.6046637615793874,-0.6082088387147365,-0.611541609898626,-0.6146664264444247,-0.6175876536258013,-0.620309650341513,-0.6228367490170382,-0.6251732357995828,-0.6273233310501697,-0.6292911702047592,-0.6310807851330342,-0.6326960860586561,-0.6341408440494394,-0.6354186741501828,-0.636533019286746,-0.6374871350082367,-0.6382840750783685,-0.6389266779828566,-0.639417554466966,-0.6397590761537737,-0.6399533652377043,-0.6400022853009533,-0.6399074333501236,-0.639670133117668,-0.6392914296207926,-0.6387720850117825,-0.6381125757928793,-0.6373130914203015,-0.636373534274251,-0.6352935210046786,-0.6340723852955892,-0.6327091820500812,-0.6312026929566301,-0.6295514334217883,-0.6277536608821314,-0.6258073844784192,-0.6237103760409636,-0.621460182349208,-0.6190541386455156,-0.6164893833590294,-0.61376287396862,-0.6108714039422916,-0.6078116207023707,-0.604580044549452,-0.6011730884587436,-0.5975870786676866,-0.5938182759874865,-0.5898628977715711,-0.585717140464591,-0.5813772026477058,-0.5768393084934982,-0.572099731544738,-0.5671548187280877,-0.5620010145051074,-0.5566348850615507,-0.5510531424475481,-0.545252668585969,-0.5392305390533292,-0.5329840465343352,-0.5265107238736022,-0.519808366660526,-0.5128750552612223,-0.5057091761939144,-0.4983094427618465,-0.49067491487349624,-0.4828050179605667,-0.47469956088126825,-0.4663587527019483,-0.457783218264534,-0.44897401245183594,-0.43993263308372804,-0.43066103242646764,-0.42116162732349033,-0.41143730792844496,-0.40149144500044404,-0.3913278957527346,-0.38095100827135114,-0.37036562449340826,-0.3595770817158649,-0.3485912126425438,-0.3374143440058791,-0.32605329376917747,-0.3145153668904156,-0.30280834966332193,-0.2909405026810633,-0.2789205524387657,-0.2667576815683208,-0.25446151773592507,-0.24204212126348668,-0.22950997150504845,-0.21687595198505014,-0.20415133434152608,-0.19134776114798233,-0.17847722765805368,-0.1655520624942161,-0.15258490734051838,-0.13958869573036764,-0.1265766309873042,-0.11356216334874657,-0.10055896633763249,-0.08758091247676018,-0.07464204840762645,-0.06175656944486724,-0.048938793625941,-0.03620313534297076,-0.023564078617009872,-0.011036150053611329,0.001366108448043096,0.013628167133235546,0.025735535908397417,0.0376737918967264,0.04942860696885287,0.060985775161271044,0.07233123992029276,0.0834511211309678,0.0943317418643511,0.10495965475446238,0.1153216679419676,0.12540487054401336,0.13519665758570895,0.14468475430863978,0.15385723979819768,0.162702569895989,0.17120959934417593,0.17936760309093705,0.18716629671059606,0.1945958559161202,0.20164693512744805,0.20831068504431763,0.21457876919095759,0.2204433794160266,0.2258972503136561,0.2309336725174554,0.23554650484018566,0.23973018525175746,0.2434797406760225,0.24679079557521064,0.24965957930886823,0.2520829322710198,0.2540583107979046,0.25558379082835797,0.2566580703154382,0.257280470403509,0.25745093537526853,0.2571700313642553,0.2564389438430439,0.2552594739106886,0.25363403339337154,0.2515656387639993,0.2490579039005595,0.24611503171583796,0.24274180468234233,0.23894357426870552,0.2347262493173468,0.23009628340675975,0.22506066123631402,0.2196268840650884,0.21380295424548515,0.207597358899569,0.2010190527765692,0.19407744032298327,0.18678235700815152,0.1791440499598709,0.1711731579601177,0.16288069084521287,0.1542780083619521,0.14537679853787427,0.1361890556177499,0.12672705761258335,0.11700334351295784,0.10703069022173296,0.096822089251431,0.08639072322495163,0.07574994222714707,0.06491324006414476,0.05389423048334732,0.04270662340151635,0.03136420119274535,0.019880795092224922,0.008270261765984825,-0.0034535399089074274,-0.01527677180588357,-0.027185639200514346,-0.039166413064592946,-0.051205451960023456,-0.06328922348946424,-0.07540432526136913,-0.08753750533411574,-0.09967568210939813,-0.11180596364209326,-0.12391566632828314,-0.13599233293234508,-0.1480237499172577,-0.15999796404595099,-0.17190329822369896,-0.18372836655247013,-0.19546208857075528,-0.20709370265673246,-0.21861277857127895,-0.23000922910860702,-0.2412733208211352,-0.2523956837998693,-0.2633673205043261,-0.27417961363350907,-0.28482433302781573,-0.2952936416027575,-0.305580100318139,-0.31567667216870443,-0.32557672517502134,-0.33527403437573755,-0.3447627828367176,-0.3540375616730208,-0.3630933690688022,-0.3719256083083724,-0.3805300848500872,-0.3889030024482816,-0.3970409583124632,-0.4049409373284114,-0.41260030539224735,-0.42001680187971147,-0.42718853125267553,-0.43411395384261253,-0.4407918758775057,-0.44722143878178333,-0.45340210775320433,-0.45933365966373074,-0.46501617036324383,-0.4704500014232762,-0.47563578632746406,-0.4805744161629196,-0.48526702490406504,-0.4897149743370376,-0.4939198386385836,-0.4978833886709451,-0.5016075760907773,-0.505094517321088,-0.5083464773968772,-0.5113658537463458,-0.514155160015033,-0.5167170099990345,-0.5190541017151472,-0.5211692016777478,-0.5230651294876676,-0.5247447427933354,-0.5262109226449132,-0.5274665593005967,-0.5285145385760572,-0.529357728782003,-0.5299989682551562,-0.5304410535266395,-0.5306867282099008,-0.5307386726569494,-0.5305994943961456,-0.5302717193908709,-0.5297577841831843,-0.5290600289529818,-0.5281806914902233,-0.527121902099456,-0.5258856794804518,-0.5244739276066583,-0.5228884335963107,-0.5211308665809041,-0.519202777586479,-0.5171056004206348,-0.5148406535353519,-0.5124091428442401,-0.5098121654861674,-0.5070507145172727,-0.5041256844976985,-0.5010378779393234,-0.49778801258642846,-0.4943767294979924,-0.49080460189109476,-0.4870721446976089,-0.48317982478350524,-0.47912807177960065,-0.4749172894687032,-0.47054786766644846,-0.4660201945343145,-0.46133466927727634,-0.456491715182673,-0.4514917929383489,-0.44633541415429195,-0.4410231550225861,-0.43555567005828816,-0.4299337058482439,-0.4241581147264912,-0.4182298683157279,-0.4121500708880372,-0.4059199724784587,-0.3995409816727137,-0.3930146780155649,-0.3863428240043917,-0.37952737661004365,-0.3725704982523973,-0.36547456718813554,-0.3582421872905025,-0.35087619717405566,-0.3433796785959539,-0.33575596409324165,-0.32800864383957434,-0.3201415716807331,-0.3121588702897734,-0.30406493541380664,-0.2958644392104294,-0.2875623326482096,-0.27916384692886914,-0.27067449392404314,-0.26210006564742,-0.25344663275596263,-0.24472054205206353,-0.23592841299146342,-0.22707713322978987,-0.21817385321434873,-0.20922597980796503,-0.2002411689675539,-0.19122731752902417,-0.18219255412003751,-0.17314522919353667,-0.1640939042008109,-0.1550473399489901,-0.1460144841564713,-0.13700445815579007,-0.12802654264803923,-0.11909016241626809,-0.11020486996275465,-0.10138032812455185,-0.0926262918040426,-0.08395258897893511,-0.0753691011201149,-0.06688574311356614,-0.05851244280133004,-0.05025912027259331,-0.04213566700377461,-0.03415192491827401,-0.026317665456726622,-0.018642568765342763,-0.011136203078146209,-0.0038080043357972275,0.003332743906792702,0.010276930218168072,0.017015634625599973,0.02354014751287459,0.029841988022480687,0.03591292188817615,0.04174497864996796,0.047330468230476465,0.05266199684241044,0.0577324821847827,0.06253516790186664,0.06706363729284404,0.07131182624478155,0.07527403534925609,0.07894494118075317,0.0823196067315352,0.0853934909859325,0.08816245760628631,0.09062278271897709,0.09277116180485775,0.09460471568945591,0.0961209956191533,0.09731798742171034,0.09819411475791802,0.09874824145605539,0.09897967291078531,0.09888815654615225,0.09847388136115305,0.09773747657117833,0.09668000935118977,0.09530298169778915,0.09360832643830568,0.09159840240798249,0.08927598880931624,0.08664427877644125,0.08370687217430338,0.0804677676525861,0.07693135396713173,0.07310240059321092,0.06898604766822523,0.06458779529956508,0.05991349226842856,0.05496932416452305,0.04976180098798583,0.04429774424452776,0.03858427355339328,0.03262879279753778,0.026438975857067122,0.020022751966436166,0.013388290731978718,0.006543986848959596,-0.0005015554405735184,-0.0077395381130288725,-0.015160985319860322,-0.022756759499638284,-0.030517577602331987,-0.038434027379311515,-0.046496583694259165,-0.0546956248130619,-0.06302144862869967,-0.07146428876968584,-0.0800143305396389,-0.08866172664561069,-0.09739661267480672,-0.10620912226383851,-0.1150894018992308,-0.12402762530943938,-0.13301400742370587,-0.1420388178582153,-0.1510923938816571,-0.16016515283588229,-0.1692476039986247,-0.17833035984502243,-0.18740414664913663,-0.19645981440372914,-0.20548834605983832,-0.21448086605046188,-0.22342864804066673,-0.23232312189384444,-0.24115587987365975,-0.24991868205106263,-0.25860346085507824,-0.267202324768309,-0.27570756121427337,-0.2841116386306128,-0.2924072076847987,-0.3005871016560663,-0.3086443360552512,-0.31657210748806397,-0.32436379172098684,-0.3320129409862377,-0.33951328062187425,-0.3468587050734723,-0.3540432732308588,-0.36106120315455453,-0.3679068663132105,-0.3745747813836559,-0.38105960760766683,-0.3873561377760213,-0.3934592909693597,-0.3993641051043113,-0.4050657292696487,-0.41055941591918654,-0.41584051305833847,-0.4209044564879021,-0.4257467621041833,-0.4303630183286957,-0.43474887880539814,-0.43890005543204635,-0.4428123117277645,-0.44648145660480143,-0.4499033386721347,-0.45307384113305593,-0.4559888772770351,-0.4586443866211039,-0.4610363318058542,-0.4631606962890074,-0.4650134828211912,-0.46659071273643055,-0.4678884261366371,-0.4689026829983704,-0.46962956517836546,-0.4700651793301163,-0.470205660778593,-0.47004717835369664,-0.46958594013732596,-0.4688182001097733,-0.467740265718191,-0.46634850636377306,-0.4646393627693652,-0.4626093572008992,-0.4602551045291015,-0.4575733240885885,-0.45456085226250625,-0.4512146557334469,-0.44753184536175805,-0.44350969064375567,-0.43914563468465806,-0.43443730961978205,-0.4293825524211606,-0.42397942101952496,-0.41822621066092386,-0.41212147041507446,-0.40566401975988203,-0.39885296517633734,-0.3916877166875162,-0.3841680042625497,-0.3762938940029923,-0.3680658040456881,-0.3594845201237329,-0.35055121070764056,-0.34126744163871964,-0.33163519019029525,-0.3216568585072704,-0.31133528635010976,-0.3006737630526195,-0.289676038629467,-0.2783463339896708,-0.26668935018853374,-0.25471027663723517,-0.24241479822700554,-0.22980910135161817,-0.21689987878179928,-0.20369433332586784,-0.19020018025379115,-0.17642564849358222,-0.16237948057263776,-0.14807093124874507,-0.13350976481738722,-0.11870625111637571,-0.10367116021291216,-0.08841575573067322,-0.0729517868194499,-0.05729147880676471,-0.041447522534760216,-0.025433062359920648,-0.009261682844211631,0.0070526057940908035,0.02349538344366818,0.04005183708490819,0.05670677895510009,0.07344466581291284,0.09024961926448513,0.10710544715240891,0.12399566596765724,0.1409035242062128,0.15781202662742264,0.17470395939579683,0.19156191603445746,0.20836832407785064,0.22510547235706957,0.24175553889237877,0.2583006193272753,0.2747227558013777,0.29100396619856234,0.30712627373915397,0.32307173684090035,0.3388224791368552,0.35436071957921783,0.36966880259363527,0.3847292282085018,0.3995246820493897,0.4140380651287413,0.4282525233964559,0.4421514769805984,0.4557186490154431,0.4689380939923871,0.4817942256055046,0.49427184403389274,0.506356162574537,0.5180328335715235,0.5292879736164785,0.5401081879657318,0.5504805940936474,0.5603928443320066,0.56983314757246,0.578790289981637,0.5872536546548929,0.5952132401645513,0.6026596779846114,0.609584248747779,0.6159788972689737,0.6218362463013677,0.6271496090249532,0.6319130002554351,0.6361211463447195,0.639769493762502,0.6428542163606947,0.6453722212956909,0.6473211535653716,0.6486993991469338,0.6495060867533654,0.6497410882192075,0.6494050175138985,0.6484992283962122,0.6470258107343371,0.6449875854965005,0.642388098403348,0.6392316122581002,0.6355230980065477,0.6312682245926434,0.6264733476717054,0.6211454972343411,0.6152923641738726,0.6089222857991592,0.6020442302826452,0.5946677800553458,0.5868031141820701,0.5784609897441485,0.5696527222496884,0.56039016510678,0.5506856882075943,0.5405521556596173,0.5300029026916013,0.5190517117783392,0.5077127880423974,0.4960007339796941,0.4839305235466986,0.4715174756633583,0.4587772272016058,0.4457257055212909,0.43237910060667667,0.41875383686742773,0.4048665446748705,0.3907340316888077,0.376373254019311,0.3618012872832153,0.34703529763036084,0.3320925128066921,0.3169901933117228,0.3017456037159449,0.28637598420742755,0.2708985224191606,0.25533032557649643,0.23968839301854591,0.22398958916321185,0.20825061697917432,0.19248799201825592,0.176718017066642,0.1609567574764,0.14522001722499897,0.1295233157392933,0.1138818655274835,0.09831055066927766,0.08282390620451943,0.06743609845036894,0.05216090628226207,0.03701170342097794,0.022001441763190754,0.007142635784694786,-0.007552651955497455,-0.022072824181413785,-0.03640676111292208,-0.050543831508067884,-0.06447390251981387,-0.07818734834541534,-0.09167505763582394,-0.10492843963327307,-0.11793942902309738,-0.13070048949814758,-0.14320461602678744,-0.1554453358135239,-0.16741670796106703,-0.1791133218515393,-0.1905302942427203,-0.20166326506606172,-0.2125083919442241,-0.22306234346284182,-0.23332229119836012,-0.2432859004868666,-0.25295131996317916,-0.2623171699287982,-0.2713825295669396,-0.2801469229981805,-0.2886103042241704,-0.2967730410446526,-0.30463589798376917,-0.3122000182286487,-0.31946690464507066,-0.32643839997977264,-0.3331166663009064,-0.33950416368693226,-0.3456036282423869,-0.351418049568754,-0.3569506477508868,-0.362204849869906,-0.36718426612950716,-0.3718926657441076,-0.37633395267065406,-0.38051214121145305,-0.38443133158837706,-0.38809568564804187,-0.3915094027866318,-0.39467669612397016,-0.3976017690271402,-0.40028879214373136,-0.40274188103535347,-0.4049650744411718,-0.40696231326552806,-0.4087374204385961,-0.4102940817300967,-0.41163582753476985,-0.4127660157068269,-0.4136878155719388,-0.41440419318017696,-0.41491789780370025,-0.4152314497353637,-0.4153471294947017,-0.41526696849390005,-0.4149927411619236,-0.41452595856381946,-0.4138678635898474,-0.4130194277397856,-0.41198134947855847,-0.4107540541697329,-0.40933769562558375,-0.4077321592737514,-0.4059370668989467,-0.40395178293821854,-0.4017754223313962,-0.39940685989806857,-0.39684474117886015,-0.3940874946907451,-0.3911333455621777,-0.3879803304923619,-0.38462631395373603,-0.3810690055625661,-0.37730597855382225,-0.3733346892851071,-0.369152497677856,-0.3647566885041135,-0.36014449343539207,-0.35531311377144353,-0.35025974375968566,-0.3449815944069887,-0.33947591768435603,-0.33374003103318195,-0.32777134208270864,-0.32156737347465697,-0.3151257876869807,-0.30844441176768506,-0.301521261899141,-0.29435456769198637,-0.28694279609276113,-0.27928467480852254,-0.2713792151664112,-0.2632257343079844,-0.25482387661155775,-0.24617363427152567,-0.23727536698670443,-0.2281298206810715,-0.21873814516084314,-0.2091019106478306,-0.1992231231565126,-0.18910423865209874,-0.17874817590830366,-0.1681583280291546,-0.15733857263253176,-0.14629328065516736,-0.13502732370897255,-0.12354607996094938,-0.11185543854453109,-0.09996180247417037,-0.0878720900075189,-0.07559373444598023,-0.06313468240266919,-0.050503390529879275,-0.037708820669178064,-0.024760433434402276,-0.011668180277260425,0.0015575059516568614,0.014905721961398315,0.028365106462917903,0.041923854018480804,0.05556973026288772,0.06929008849618887,0.08307188760232356,0.0969017112085507,0.11076578803884628,0.12465001344504471,0.13853997205147775,0.15242096140925568,0.16627801659691333,0.180095935737559,0.19385930635653348,0.2075525324650882,0.22115986229832138,0.23466541667574378,0.2480532179171364,0.2613072192117354,0.274411334372768,0.28734946793750493,0.30010554553226043,0.3126635443880027,0.3250075239286002,0.3371216563848144,0.34899025734979794,0.3605978161604505,0.3719290260271686,0.38296881387204285,0.3937023698097277,0.4041151761785551,0.41419303605789537,0.42392210123105833,0.4332888995202935,0.44228036139446125,0.45088384578365,0.4590871650690241,0.46687860919720686,0.4742469688477265,0.48118155760601694,0.48767223311420754,0.49370941714596767,0.49928411453144567,0.5043879308865682,0.5090130891271736,0.5131524447293296,0.5167994996799483,0.5199484150877456,0.5225940224488801,0.5247318335449516,0.526358048935825,0.5274695650337365,0.5280639797697878,0.528139596853609,0.5276954286148089,0.5267311974311483,0.5252473357610957,0.5232449847809316,0.5207259916140187,0.5176929051607531,0.5141489705570506,0.5100981222772274,0.505544975886355,0.5004948184655147,0.4949535977484545,0.48892790999323976,0.48242498660130284,0.4754526795168301,0.468019445458979,0.46013432902944773,0.45180694472792604,0.44304745792397027,0.4338665648474147,0.4242754716463919,0.41428587255142535,0.40390992720033153,0.39316023719370113,0.38204982194013676,0.37059209384031716,0.35880083287206543,0.3466901606494889,0.33427451401646235,0.3215686182240588,0.30858745974986895,0.2953462588057975,0.28186044153171336,0.26814561185059776,0.25421752301188594,0.24009204891298297,0.22578515530321375,0.21131287096530604,0.19669125897357356,0.1819363881298879,0.16706430466097458,0.15209100424597247,0.1370324044506807,0.1219043176545264,0.10672242454850793,0.09150224827100766,0.07625912924818307,0.061008200805394375,0.04576436560493907,0.030542272954669023,0.015356297032718774,0.00022051607683909162,-0.014851307417308134,-0.02984574545211458,-0.04474972220592274,-0.05955053060219179,-0.0742358477413394,-0.08879374917179933,-0.10321272198481575,-0.11748167672336697,-0.1315899580969671,-0.14552735449712156,-0.1592841063148149,-0.1728509130585659,-0.18621893925555064,-0.1993798191145801,-0.21232565995208572,-0.22504904439878634,-0.23754303139313823,-0.24980115596135363,-0.26181742780597966,-0.2735863287344393,-0.2851028089291587,-0.2963622820463882,-0.30736061916883756,-0.31809414166663114,-0.328559612995491,-0.3387542294429062,-0.34867560986993523,-0.3583217845183401,-0.3676911829093394,-0.37678262083345476,-0.38559528648042246,-0.3941287257927049,-0.4023828270773802,-0.4103578048777626,-0.4180541831637738,N
2,0.001366108448043096,0.013628167133235546,0.025735535908397417,0.0376737918967264,0.04942860696885287,0.060985775161271044,0.07233123992029276,0.0834511211309678,0.0943317418643511,0.10495965475446238,0.1153216679419676,0.12540487054401336,0.13519665758570895,0.14468475430863978,0.15385723979819768,0.162702569895989,0.17120959934417593,0.17936760309093705,0.18716629671059606,0.1945958559161202,0.20164693512744805,0.20831068504431763,0.21457876919095759,0.2204433794160266,0.2258972503136561,0.2309336725174554,0.23554650484018566,0.23973018525175746,0.2434797406760225,0.24679079557521064,0.24965957930886823,0.2520829322710198,0.2540583107979046,0.25558379082835797,0.2566580703154382,0.257280470403509,0.25745093537526853,0.2571700313642553,0.2564389438430439,0.2552594739106886,0.25363403339337154,0.2515656387639993,0.2490579039005595,0.24611503171583796,0.24274180468234233,0.23894357426870552,0.2347262493173468,0.23009628340675975,0.22506066123631402,0.2196268840650884,0.21380295424548515,0.207597358899569,0.2010190527765692,0.19407744032298327,0.18678235700815152,0.1791440499598709,0.1711731579601177,0.16288069084521287,0.1542780083619521,0.14537679853787427,0.1361890556177499,0.12672705761258335,0.11700334351295784,0.10703069022173296,0.096822089251431,0.08639072322495163,0.07574994222714707,0.06491324006414476,0.05389423048334732,0.04270662340151635,0.03136420119274535,0.019880795092224922,0.008270261765984825,-0.0034535399089074274,-0.01527677180588357,-0.027185639200514346,-0.039166413064592946,-0.051205451960023456,-0.06328922348946424,-0.07540432526136913,-0.08753750533411574,-0.09967568210939813,-0.11180596364209326,-0.12391566632828314,-0.13599233293234508,-0.1480237499172577,-0.15999796404595099,-0.17190329822369896,-0.18372836655247013,-0.19546208857075528,-0.20709370265673246,-0.21861277857127895,-0.23000922910860702,-0.2412733208211352,-0.2523956837998693,-0.2633673205043261,-0.27417961363350907,-0.28482433302781573,-0.2952936416027575,-0.305580100318139,-0.31567667216870443,-0.32557672517502134,-0.33527403437573755,-0.3447627828367176,-0.3540375616730208,-0.3630933690688022,-0.3719256083083724,-0.3805300848500872,-0.3889030024482816,-0.3970409583124632,-0.4049409373284114,-0.41260030539224735,-0.42001680187971147,-0.42718853125267553,-0.43411395384261253,-0.4407918758775057,-0.44722143878178333,-0.45340210775320433,-0.45933365966373074,-0.46501617036324383,-0.4704500014232762,-0.47563578632746406,-0.4805744161629196,-0.48526702490406504,-0.4897149743370376,-0.4939198386385836,-0.4978833886709451,-0.5016075760907773,-0.505094517321088,-0.5083464773968772,-0.5113658537463458,-0.514155160015033,-0.5167170099990345,-0.5190541017151472,-0.5211692016777478,-0.5230651294876676,-0.5247447427933354,-0.5262109226449132,-0.5274665593005967,-0.5285145385760572,-0.529357728782003,-0.5299989682551562,-0.5304410535266395,-0.5306867282099008,-0.5307386726569494,-0.5305994943961456,-0.5302717193908709,-0.5297577841831843,-0.5290600289529818,-0.5281806914902233,-0.527121902099456,-0.5258856794804518,-0.5244739276066583,-0.5228884335963107,-0.5211308665809041,-0.519202777586479,-0.5171056004206348,-0.5148406535353519,-0.5124091428442401,-0.5098121654861674,-0.5070507145172727,-0.5041256844976985,-0.5010378779393234,-0.49778801258642846,-0.4943767294979924,-0.49080460189109476,-0.4870721446976089,-0.48317982478350524,-0.47912807177960065,-0.4749172894687032,-0.47054786766644846,-0.4660201945343145,-0.46133466927727634,-0.456491715182673,-0.4514917929383489,-0.44633541415429195,-0.4410231550225861,-0.43555567005828816,-0.4299337058482439,-0.4241581147264912,-0.4182298683157279,-0.4121500708880372,-0.4059199724784587,-0.3995409816727137,-0.3930146780155649,-0.3863428240043917,-0.37952737661004365,-0.3725704982523973,-0.36547456718813554,-0.3582421872905025,-0.35087619717405566,-0.3433796785959539,-0.33575596409324165,-0.32800864383957434,-0.3201415716807331,-0.3121588702897734,-0.30406493541380664,-0.2958644392104294,-0.2875623326482096,-0.27916384692886914,-0.27067449392404314,-0.26210006564742,-0.25344663275596263,-0.24472054205206353,-0.23592841299146342,-0.22707713322978987,-0.21817385321434873,-0.20922597980796503,-0.2002411689675539,-0.19122731752902417,-0.18219255412003751,-0.17314522919353667,-0.1640939042008109,-0.1550473399489901,-0.1460144841564713,-0.13700445815579007,-0.12802654264803923,-0.11909016241626809,-0.11020486996275465,-0.10138032812455185,-0.0926262918040426,-0.08395258897893511,-0.0753691011201149,-0.06688574311356614,-0.05851244280133004,-0.05025912027259331,-0.04213566700377461,-0.03415192491827401,-0.026317665456726622,-0.018642568765342763,-0.011136203078146209,-0.0038080043357972275,0.003332743906792702,0.010276930218168072,0.017015634625599973,0.02354014751287459,0.029841988022480687,0.03591292188817615,0.04174497864996796,0.047330468230476465,0.05266199684241044,0.0577324821847827,0.06253516790186664,0.06706363729284404,0.07131182624478155,0.07527403534925609,0.07894494118075317,0.0823196067315352,0.0853934909859325,0.08816245760628631,0.09062278271897709,0.09277116180485775,0.09460471568945591,0.0961209956191533,0.09731798742171034,0.09819411475791802,0.09874824145605539,0.09897967291078531,0.09888815654615225,0.09847388136115305,0.09773747657117833,0.09668000935118977,0.09530298169778915,0.09360832643830568,0.09159840240798249,0.08927598880931624,0.08664427877644125,0.08370687217430338,0.0804677676525861,0.07693135396713173,0.07310240059321092,0.06898604766822523,0.06458779529956508,0.05991349226842856,0.05496932416452305,0.04976180098798583,0.04429774424452776,0.03858427355339328,0.03262879279753778,0.026438975857067122,0.020022751966436166,0.013388290731978718,0.006543986848959596,-0.0005015554405735184,-0.0077395381130288725,-0.015160985319860322,-0.022756759499638284,-0.030517577602331987,-0.038434027379311515,-0.046496583694259165,-0.0546956248130619,-0.06302144862869967,-0.07146428876968584,-0.0800143305396389,-0.08866172664561069,-0.09739661267480672,-0.10620912226383851,-0.1150894018992308,-0.12402762530943938,-0.13301400742370587,-0.1420388178582153,-0.1510923938816571,-0.16016515283588229,-0.1692476039986247,-0.17833035984502243,-0.18740414664913663,-0.19645981440372914,-0.20548834605983832,-0.21448086605046188,-0.22342864804066673,-0.23232312189384444,-0.24115587987365975,-0.24991868205106263,-0.25860346085507824,-0.267202324768309,-0.27570756121427337,-0.2841116386306128,-0.2924072076847987,-0.3005871016560663,-0.3086443360552512,-0.31657210748806397,-0.32436379172098684,-0.3320129409862377,-0.33951328062187425,-0.3468587050734723,-0.3540432732308588,-0.36106120315455453,-0.3679068663132105,-0.3745747813836559,-0.38105960760766683,-0.3873561377760213,-0.3934592909693597,-0.3993641051043113,-0.4050657292696487,-0.41055941591918654,-0.41584051305833847,-0.4209044564879021,-0.4257467621041833,-0.4303630183286957,-0.43474887880539814,-0.43890005543204635,-0.4428123117277645,-0.44648145660480143,-0.4499033386721347,-0.45307384113305593,-0.4559888772770351,-0.4586443866211039,-0.4610363318058542,-0.4631606962890074,-0.4650134828211912,-0.46659071273643055,-0.4678884261366371,-0.4689026829983704,-0.46962956517836546,-0.4700651793301163,-0.470205660778593,-0.47004717835369664,-0.46958594013732596,-0.4688182001097733,-0.467740265718191,-0.46634850636377306,-0.4646393627693652,-0.4626093572008992,-0.4602551045291015,-0.4575733240885885,-0.45456085226250625,-0.4512146557334469,-0.44753184536175805,-0.44350969064375567,-0.43914563468465806,-0.43443730961978205,-0.4293825524211606,-0.42397942101952496,-0.41822621066092386,-0.41212147041507446,-0.40566401975988203,-0.39885296517633734,-0.3916877166875162,-0.3841680042625497,-0.3762938940029923,-0.3680658040456881,-0.3594845201237329,-0.35055121070764056,-0.34126744163871964,-0.33163519019029525,-0.3216568585072704,-0.31133528635010976,-0.3006737630526195,-0.289676038629467,-0.2783463339896708,-0.26668935018853374,-0.25471027663723517,-0.24241479822700554,-0.22980910135161817,-0.21689987878179928,-0.20369433332586784,-0.19020018025379115,-0.17642564849358222,-0.16237948057263776,-0.14807093124874507,-0.13350976481738722,-0.11870625111637571,-0.10367116021291216,-0.08841575573067322,-0.0729517868194499,-0.05729147880676471,-0.041447522534760216,-0.025433062359920648,-0.009261682844211631,0.0070526057940908035,0.02349538344366818,0.04005183708490819,0.05670677895510009,0.07344466581291284,0.09024961926448513,0.10710544715240891,0.12399566596765724,0.1409035242062128,0.15781202662742264,0.17470395939579683,0.19156191603445746,0.20836832407785064,0.22510547235706957,0.24175553889237877,0.2583006193272753,0.2747227558013777,0.29100396619856234,0.30712627373915397,0.32307173684090035,0.3388224791368552,0.35436071957921783,0.36966880259363527,0.3847292282085018,0.3995246820493897,0.4140380651287413,0.4282525233964559,0.4421514769805984,0.4557186490154431,0.4689380939923871,0.4817942256055046,0.49427184403389274,0.506356162574537,0.5180328335715235,0.5292879736164785,0.5401081879657318,0.5504805940936474,0.5603928443320066,0.56983314757246,0.578790289981637,0.5872536546548929,0.5952132401645513,0.6026596779846114,0.609584248747779,0.6159788972689737,0.6218362463013677,0.6271496090249532,0.6319130002554351,0.6361211463447195,0.639769493762502,0.6428542163606947,0.6453722212956909,0.6473211535653716,0.6486993991469338,0.6495060867533654,0.6497410882192075,0.6494050175138985,0.6484992283962122,0.6470258107343371,0.6449875854965005,0.642388098403348,0.6392316122581002,0.6355230980065477,0.6312682245926434,0.6264733476717054,0.6211454972343411,0.6152923641738726,0.6089222857991592,0.6020442302826452,0.5946677800553458,0.5868031141820701,0.5784609897441485,0.5696527222496884,0.56039016510678,0.5506856882075943,0.5405521556596173,0.5300029026916013,0.5190517117783392,0.5077127880423974,0.4960007339796941,0.4839305235466986,0.4715174756633583,0.4587772272016058,0.4457257055212909,0.43237910060667667,0.41875383686742773,0.4048665446748705,0.3907340316888077,0.376373254019311,0.3618012872832153,0.34703529763036084,0.3320925128066921,0.3169901933117228,0.3017456037159449,0.28637598420742755,0.2708985224191606,0.25533032557649643,0.23968839301854591,0.22398958916321185,0.20825061697917432,0.19248799201825592,0.176718017066642,0.1609567574764,0.14522001722499897,0.1295233157392933,0.1138818655274835,0.09831055066927766,0.08282390620451943,0.06743609845036894,0.05216090628226207,0.03701170342097794,0.022001441763190754,0.007142635784694786,-0.007552651955497455,-0.022072824181413785,-0.03640676111292208,-0.050543831508067884,-0.06447390251981387,-0.07818734834541534,-0.09167505763582394,-0.10492843963327307,-0.11793942902309738,-0.13070048949814758,-0.14320461602678744,-0.1554453358135239,-0.16741670796106703,-0.1791133218515393,-0.1905302942427203,-0.20166326506606172,-0.2125083919442241,-0.22306234346284182,-0.23332229119836012,-0.2432859004868666,-0.25295131996317916,-0.2623171699287982,-0.2713825295669396,-0.2801469229981805,-0.2886103042241704,-0.2967730410446526,-0.30463589798376917,-0.3122000182286487,-0.31946690464507066,-0.32643839997977264,-0.3331166663009064,-0.33950416368693226,-0.3456036282423869,-0.351418049568754,-0.3569506477508868,-0.362204849869906,-0.36718426612950716,-0.3718926657441076,-0.37633395267065406,-0.38051214121145305,-0.38443133158837706,-0.38809568564804187,-0.3915094027866318,-0.39467669612397016,-0.3976017690271402,-0.40028879214373136,-0.40274188103535347,-0.4049650744411718,-0.40696231326552806,-0.4087374204385961,-0.4102940817300967,-0.41163582753476985,-0.4127660157068269,-0.4136878155719388,-0.41440419318017696,-0.41491789780370025,-0.4152314497353637,-0.4153471294947017,-0.41526696849390005,-0.4149927411619236,-0.41452595856381946,-0.4138678635898474,-0.4130194277397856,-0.41198134947855847,-0.4107540541697329,-0.40933769562558375,-0.4077321592737514,-0.4059370668989467,-0.40395178293821854,-0.4017754223313962,-0.39940685989806857,-0.39684474117886015,-0.3940874946907451,-0.3911333455621777,-0.3879803304923619,-0.38462631395373603,-0.3810690055625661,-0.37730597855382225,-0.3733346892851071,-0.369152497677856,-0.3647566885041135,-0.36014449343539207,-0.35531311377144353,-0.35025974375968566,-0.3449815944069887,-0.33947591768435603,-0.33374003103318195,-0.32777134208270864,-0.32156737347465697,-0.3151257876869807,-0.30844441176768506,-0.301521261899141,-0.29435456769198637,-0.28694279609276113,-0.27928467480852254,-0.2713792151664112,-0.2632257343079844,-0.25482387661155775,-0.24617363427152567,-0.23727536698670443,-0.2281298206810715,-0.21873814516084314,-0.2091019106478306,-0.1992231231565126,-0.18910423865209874,-0.17874817590830366,-0.1681583280291546,-0.15733857263253176,-0.14629328065516736,-0.13502732370897255,-0.12354607996094938,-0.11185543854453109,-0.09996180247417037,-0.0878720900075189,-0.07559373444598023,-0.06313468240266919,-0.050503390529879275,-0.037708820669178064,-0.024760433434402276,-0.011668180277260425,0.0015575059516568614,0.014905721961398315,0.028365106462917903,0.041923854018480804,0.05556973026288772,0.06929008849618887,0.08307188760232356,0.0969017112085507,0.11076578803884628,0.12465001344504471,0.13853997205147775,0.15242096140925568,0.16627801659691333,0.180095935737559,0.19385930635653348,0.2075525324650882,0.22115986229832138,0.23466541667574378,0.2480532179171364,0.2613072192117354,0.274411334372768,0.28734946793750493,0.30010554553226043,0.3126635443880027,0.3250075239286002,0.3371216563848144,0.34899025734979794,0.3605978161604505,0.3719290260271686,0.38296881387204285,0.3937023698097277,0.4041151761785551,0.41419303605789537,0.42392210123105833,0.4332888995202935,0.44228036139446125,0.45088384578365,0.4590871650690241,0.46687860919720686,0.4742469688477265,0.48118155760601694,0.48767223311420754,0.49370941714596767,0.49928411453144567,0.5043879308865682,0.5090130891271736,0.5131524447293296,0.5167994996799483,0.5199484150877456,0.5225940224488801,0.5247318335449516,0.526358048935825,0.5274695650337365,0.5280639797697878,0.528139596853609,0.5276954286148089,0.5267311974311483,0.5252473357610957,0.5232449847809316,0.5207259916140187,0.5176929051607531,0.5141489705570506,0.5100981222772274,0.505544975886355,0.5004948184655147,0.4949535977484545,0.48892790999323976,0.48242498660130284,0.4754526795168301,0.468019445458979,0.46013432902944773,0.45180694472792604,0.44304745792397027,0.4338665648474147,0.4242754716463919,0.41428587255142535,0.40390992720033153,0.39316023719370113,0.38204982194013676,0.37059209384031716,0.35880083287206543,0.3466901606494889,0.33427451401646235,0.3215686182240588,0.30858745974986895,0.2953462588057975,0.28186044153171336,0.26814561185059776,0.25421752301188594,0.24009204891298297,0.22578515530321375,0.21131287096530604,0.19669125897357356,0.1819363881298879,0.16706430466097458,0.15209100424597247,0.1370324044506807,0.1219043176545264,0.10672242454850793,0.09150224827100766,0.07625912924818307,0.061008200805394375,0.04576436560493907,0.030542272954669023,0.015356297032718774,0.00022051607683909162,-0.014851307417308134,-0.02984574545211458,-0.04474972220592274,-0.05955053060219179,-0.0742358477413394,-0.08879374917179933,-0.10321272198481575,-0.11748167672336697,-0.1315899580969671,-0.14552735449712156,-0.1592841063148149,-0.1728509130585659,-0.18621893925555064,-0.1993798191145801,-0.21232565995208572,-0.22504904439878634,-0.23754303139313823,-0.24980115596135363,-0.26181742780597966,-0.2735863287344393,-0.2851028089291587,-0.2963622820463882,-0.30736061916883756,-0.31809414166663114,-0.328559612995491,-0.3387542294429062,-0.34867560986993523,-0.3583217845183401,-0.3676911829093394,-0.37678262083345476,-0.38559528648042246,-0.3941287257927049,-0.4023828270773802,-0.4103578048777626,-0.4180541831637738,-0.42547277794398614,-0.4326146793501015,-0.43948123320538274,-0.4460740221492749,-0.45239484643930855,-0.4584457044975518,-0.4642287732251515,-0.469746388167034,-0.47500102365487934,-0.47999527299665096,-0.48473182873271375,-0.489213463038099,-0.49344300839989075,-0.4974233386400947,-0.5011573503041543,-0.504647944491766,-0.5078980092567109,-0.5109104026488658,-0.5136879364218747,-0.5162333604775835,-0.5185493481608257,-0.5206384824663228,-0.5225032431710979,-0.5241459949462567,-0.5255689765385035,-0.5267742910631438,-0.5277638974046764,-0.528539602756845,-0.529103056371443,-0.5294557445502497,-0.5295989868753324,-0.5295339336939409,-0.5292615648946108,-0.5287826899751236,-0.5280979493680091,-0.5272078170087584,-0.5261126041581223,-0.5248124644738772,-0.5233074003022453,-0.5215972701613628,-0.5196817973936424,-0.5175605799444106,-0.5152331012040688,-0.5126987418541616,-0.5099567926681737,-0.5070064682152907,-0.5038469214046862,-0.5004772588011658,-0.4968965566440588,-0.4931038775060989,-0.489098287526144,-0.48487887413593767,-0.48044476419534166,-0.4757951424621899,-0.4709292703274063,-0.465846504728396,-0.4605463171455893,-0.4550283126086124,-0.4492922486507723,-0.4433380541265586,-0.43716584779160117,-0.4307759565706446,-0.4241689334573491,-0.4173455749629814,-0.4103069380123615,-0.40305435621573615,-0.39558945546856095,-0.3879141688040486,-0.3800307504058451,-0.37194178872641537,-0.36365021868528125,-0.3551593328887985,-0.34647279178650464,-0.3375946327132166,-0.32852927779618984,-0.3192815406797669,-0.3098566320041356,-0.30026016362266916,-0.29049815157748426,-0.2805770178159065,-0.2705035906000165,-0.2602851036017756,-0.2499291937113025,-0.23944389755214082,-0.22883764667089782,-0.21811926141228902,-0.2072979435270054,-0.19638326752534796,-0.1853851707623625,-0.17431394228444297,-0.16318021050407705,-0.15199492973332734,-0.140769365576561,-0.12951507922464817,-0.11824391072868827,-0.10696796129643528,-0.09569957462671254,-0.08445131734045104,-0.07323595860259498,-0.06206644899057752,-0.05095589862785495,-0.03991755463175907,-0.028964777956291748,-0.018111019682135576,-0.0073697967821861055,0.003245332573567163,0.01372079407967066,0.02404302265886587,0.03419848808996932,0.04417372083183553,0.053955337948085866,0.06353006906511534,0.0728847823205331,0.08200651023076917,0.09088247538185647,0.09950011587523434,0.10784711048659963,0.11591140347290375,0.12368122894116797,0.13114513471798767,0.13829200568400896,0.14511108652094967,0.1515920038011202,0.15772478736873252,0.16349989098080808,0.1689082121592711,0.17394111119075528,0.17859042922864993,0.1828485054694356,0.18670819336249794,0.1901628758004284,0.19320647925336126,0.19583348682794705,0.19803895022311085,0.199818500545554,0.20116835796084273,0.20208534016790866,0.20256686967557544,0.20261097985202378,0.20221631973212545,0.20138215758325356,0.20010838322808416,0.19839550911828124,0.19624467016054853,0.1936576223013428,0.1906367398668251,0.1871850116492521,0.18330603574442783,0.1790040131579831,0.17428374019476478,0.16915059964191337,0.1636105507678,0.15767011817250193,0.15133637952687035,0.1446169522352883,0.13751997906098345,0.13005411275278655,0.12222849970237981,0.11405276265672071,0.10553698252194935,0.0966916793064693,0.08752779224837368,0.07805665916917423,0.068289995104565,0.05823987027309928,0.04791868744395637,0.037339158762472305,0.026514282094063635,0.015457316946021999,0.004181760017506881,-0.007298679576786683,-0.01897010535521233,-0.030818458724762538,-0.04282954437612593,-0.054989055753126403,-0.06728260053278225,-0.07969572605634219,-0.09221394466077483,-0.10482275886523686,-0.11750768636222968,-0.13025428475801681,-0.14304817600970143,-0.15587507051039373,-0.16872079077179403,-0.18157129464943034,-0.19441269805556582,-0.2072312971078285,-0.22001358966465762,-0.23274629619899684,-0.24541637995979,-0.258011066372611,-0.2705178616383008,-0.28292457049263064,-0.295219313085902,-0.30739054094135554,-0.31942705196243815,-0.33131800446480864,-0.34305293019947547,-0.35462174633036636,-0.3660147663502228,-0.37722270994587304,-0.3882367118372133,-0.39904832961576775,-0.40964955060197583,-0.4200327977124957,-0.43019093428382915,-0.440117267784753,-0.4498055523886434,-0.4592499904031443,-0.46844523252580716,-0.4773863768782919,-0.48606896681753997,-0.49448898755247694,-0.5026428615532821,-0.5105274427156139,-0.5181400092994753,-0.5254782557039596,N
3,-0.13700445815579007,-0.12802654264803923,-0.11909016241626809,-0.11020486996275465,-0.10138032812455185,-0.0926262918040426,-0.08395258897893511,-0.0753691011201149,-0.06688574311356614,-0.05851244280133004,-0.05025912027259331,-0.04213566700377461,-0.03415192491827401,-0.026317665456726622,-0.018642568765342763,-0.011136203078146209,-0.0038080043357972275,0.003332743906792702,0.010276930218168072,0.017015634625599973,0.02354014751287459,0.029841988022480687,0.03591292188817615,0.04174497864996796,0.047330468230476465,0.05266199684241044,0.0577324821847827,0.06253516790186664,0.06706363729284404,0.07131182624478155,0.07527403534925609,0.07894494118075317,0.0823196067315352,0.0853934909859325,0.08816245760628631,0.09062278271897709,0.09277116180485775,0.09460471568945591,0.0961209956191533,0.09731798742171034,0.09819411475791802,0.09874824145605539,0.09897967291078531,0.09888815654615225,0.09847388136115305,0.09773747657117833,0.09668000935118977,0.09530298169778915,0.09360832643830568,0.09159840240798249,0.08927598880931624,0.08664427877644125,0.08370687217430338,0.0804677676525861,0.07693135396713173,0.07310240059321092,0.06898604766822523,0.06458779529956508,0.05991349226842856,0.05496932416452305,0.04976180098798583,0.04429774424452776,0.03858427355339328,0.03262879279753778,0.026438975857067122,0.020022751966436166,0.013388290731978718,0.006543986848959596,-0.0005015554405735184,-0.0077395381130288725,-0.015160985319860322,-0.022756759499638284,-0.030517577602331987,-0.038434027379311515,-0.046496583694259165,-0.0546956248130619,-0.06302144862869967,-0.07146428876968584,-0.0800143305396389,-0.08866172664561069,-0.09739661267480672,-0.10620912226383851,-0.1150894018992308,-0.12402762530943938,-0.13301400742370587,-0.1420388178582153,-0.1510923938816571,-0.16016515283588229,-0.1692476039986247,-0.17833035984502243,-0.18740414664913663,-0.19645981440372914,-0.20548834605983832,-0.21448086605046188,-0.22342864804066673,-0.23232312189384444,-0.24115587987365975,-0.24991868205106263,-0.25860346085507824,-0.267202324768309,-0.27570756121427337,-0.2841116386306128,-0.2924072076847987,-0.3005871016560663,-0.3086443360552512,-0.31657210748806397,-0.32436379172098684,-0.3320129409862377,-0.33951328062187425,-0.3468587050734723,-0.3540432732308588,-0.36106120315455453,-0.3679068663132105,-0.3745747813836559,-0.38105960760766683,-0.3873561377760213,-0.3934592909693597,-0.3993641051043113,-0.4050657292696487,-0.41055941591918654,-0.41584051305833847,-0.4209044564879021,-0.4257467621041833,-0.4303630183286957,-0.43474887880539814,-0.43890005543204635,-0.4428123117277645,-0.44648145660480143,-0.4499033386721347,-0.45307384113305593,-0.4559888772770351,-0.4586443866211039,-0.4610363318058542,-0.4631606962890074,-0.4650134828211912,-0.46659071273643055,-0.4678884261366371,-0.4689026829983704,-0.46962956517836546,-0.4700651793301163,-0.470205660778593,-0.47004717835369664,-0.46958594013732596,-0.4688182001097733,-0.467740265718191,-0.46634850636377306,-0.4646393627693652,-0.4626093572008992,-0.4602551045291015,-0.4575733240885885,-0.45456085226250625,-0.4512146557334469,-0.44753184536175805,-0.44350969064375567,-0.43914563468465806,-0.43443730961978205,-0.4293825524211606,-0.42397942101952496,-0.41822621066092386,-0.41212147041507446,-0.40566401975988203,-0.39885296517633734,-0.3916877166875162,-0.3841680042625497,-0.3762938940029923,-0.3680658040456881,-0.3594845201237329,-0.35055121070764056,-0.34126744163871964,-0.33163519019029525,-0.3216568585072704,-0.31133528635010976,-0.3006737630526195,-0.289676038629467,-0.2783463339896708,-0.26668935018853374,-0.25471027663723517,-0.24241479822700554,-0.22980910135161817,-0.21689987878179928,-0.20369433332586784,-0.19020018025379115,-0.17642564849358222,-0.16237948057263776,-0.14807093124874507,-0.13350976481738722,-0.11870625111637571,-0.10367116021291216,-0.08841575573067322,-0.0729517868194499,-0.05729147880676471,-0.041447522534760216,-0.025433062359920648,-0.009261682844211631,0.0070526057940908035,0.02349538344366818,0.04005183708490819,0.05670677895510009,0.07344466581291284,0.09024961926448513,0.10710544715240891,0.12399566596765724,0.1409035242062128,0.15781202662742264,0.17470395939579683,0.19156191603445746,0.20836832407785064,0.22510547235706957,0.24175553889237877,0.2583006193272753,0.2747227558013777,0.29100396619856234,0.30712627373915397,0.32307173684090035,0.3388224791368552,0.35436071957921783,0.36966880259363527,0.3847292282085018,0.3995246820493897,0.4140380651287413,0.4282525233964559,0.4421514769805984,0.4557186490154431,0.4689380939923871,0.4817942256055046,0.49427184403389274,0.506356162574537,0.5180328335715235,0.5292879736164785,0.5401081879657318,0.5504805940936474,0.5603928443320066,0.56983314757246,0.578790289981637,0.5872536546548929,0.5952132401645513,0.6026596779846114,0.609584248747779,0.6159788972689737,0.6218362463013677,0.6271496090249532,0.6319130002554351,0.6361211463447195,0.639769493762502,0.6428542163606947,0.6453722212956909,0.6473211535653716,0.6486993991469338,0.6495060867533654,0.6497410882192075,0.6494050175138985,0.6484992283962122,0.6470258107343371,0.6449875854965005,0.642388098403348,0.6392316122581002,0.6355230980065477,0.6312682245926434,0.6264733476717054,0.6211454972343411,0.6152923641738726,0.6089222857991592,0.6020442302826452,0.5946677800553458,0.5868031141820701,0.5784609897441485,0.5696527222496884,0.56039016510678,0.5506856882075943,0.5405521556596173,0.5300029026916013,0.5190517117783392,0.5077127880423974,0.4960007339796941,0.4839305235466986,0.4715174756633583,0.4587772272016058,0.4457257055212909,0.43237910060667667,0.41875383686742773,0.4048665446748705,0.3907340316888077,0.376373254019311,0.3618012872832153,0.34703529763036084,0.3320925128066921,0.3169901933117228,0.3017456037159449,0.28637598420742755,0.2708985224191606,0.25533032557649643,0.23968839301854591,0.22398958916321185,0.20825061697917432,0.19248799201825592,0.176718017066642,0.1609567574764,0.14522001722499897,0.1295233157392933,0.1138818655274835,0.09831055066927766,0.08282390620451943,0.06743609845036894,0.05216090628226207,0.03701170342097794,0.022001441763190754,0.007142635784694786,-0.007552651955497455,-0.022072824181413785,-0.03640676111292208,-0.050543831508067884,-0.06447390251981387,-0.07818734834541534,-0.09167505763582394,-0.10492843963327307,-0.11793942902309738,-0.13070048949814758,-0.14320461602678744,-0.1554453358135239,-0.16741670796106703,-0.1791133218515393,-0.1905302942427203,-0.20166326506606172,-0.2125083919442241,-0.22306234346284182,-0.23332229119836012,-0.2432859004868666,-0.25295131996317916,-0.2623171699287982,-0.2713825295669396,-0.2801469229981805,-0.2886103042241704,-0.2967730410446526,-0.30463589798376917,-0.3122000182286487,-0.31946690464507066,-0.32643839997977264,-0.3331166663009064,-0.33950416368693226,-0.3456036282423869,-0.351418049568754,-0.3569506477508868,-0.362204849869906,-0.36718426612950716,-0.3718926657441076,-0.37633395267065406,-0.38051214121145305,-0.38443133158837706,-0.38809568564804187,-0.3915094027866318,-0.39467669612397016,-0.3976017690271402,-0.40028879214373136,-0.40274188103535347,-0.4049650744411718,-0.40696231326552806,-0.4087374204385961,-0.4102940817300967,-0.41163582753476985,-0.4127660157068269,-0.4136878155719388,-0.41440419318017696,-0.41491789780370025,-0.4152314497353637,-0.4153471294947017,-0.41526696849390005,-0.4149927411619236,-0.41452595856381946,-0.4138678635898474,-0.4130194277397856,-0.41198134947855847,-0.4107540541697329,-0.40933769562558375,-0.4077321592737514,-0.4059370668989467,-0.40395178293821854,-0.4017754223313962,-0.39940685989806857,-0.39684474117886015,-0.3940874946907451,-0.3911333455621777,-0.3879803304923619,-0.38462631395373603,-0.3810690055625661,-0.37730597855382225,-0.3733346892851071,-0.369152497677856,-0.3647566885041135,-0.36014449343539207,-0.35531311377144353,-0.35025974375968566,-0.3449815944069887,-0.33947591768435603,-0.33374003103318195,-0.32777134208270864,-0.32156737347465697,-0.3151257876869807,-0.30844441176768506,-0.301521261899141,-0.29435456769198637,-0.28694279609276113,-0.27928467480852254,-0.2713792151664112,-0.2632257343079844,-0.25482387661155775,-0.24617363427152567,-0.23727536698670443,-0.2281298206810715,-0.21873814516084314,-0.2091019106478306,-0.1992231231565126,-0.18910423865209874,-0.17874817590830366,-0.1681583280291546,-0.15733857263253176,-0.14629328065516736,-0.13502732370897255,-0.12354607996094938,-0.11185543854453109,-0.09996180247417037,-0.0878720900075189,-0.07559373444598023,-0.06313468240266919,-0.050503390529879275,-0.037708820669178064,-0.024760433434402276,-0.011668180277260425,0.0015575059516568614,0.014905721961398315,0.028365106462917903,0.041923854018480804,0.05556973026288772,0.06929008849618887,0.08307188760232356,0.0969017112085507,0.11076578803884628,0.12465001344504471,0.13853997205147775,0.15242096140925568,0.16627801659691333,0.180095935737559,0.19385930635653348,0.2075525324650882,0.22115986229832138,0.23466541667574378,0.2480532179171364,0.2613072192117354,0.274411334372768,0.28734946793750493,0.30010554553226043,0.3126635443880027,0.3250075239286002,0.3371216563848144,0.34899025734979794,0.3605978161604505,0.3719290260271686,0.38296881387204285,0.3937023698097277,0.4041151761785551,0.41419303605789537,0.42392210123105833,0.4332888995202935,0.44228036139446125,0.45088384578365,0.4590871650690241,0.46687860919720686,0.4742469688477265,0.48118155760601694,0.48767223311420754,0.49370941714596767,0.49928411453144567,0.5043879308865682,0.5090130891271736,0.5131524447293296,0.5167994996799483,0.5199484150877456,0.5225940224488801,0.5247318335449516,0.526358048935825,0.5274695650337365,0.5280639797697878,0.528139596853609,0.5276954286148089,0.5267311974311483,0.5252473357610957,0.5232449847809316,0.5207259916140187,0.5176929051607531,0.5141489705570506,0.5100981222772274,0.505544975886355,0.5004948184655147,0.4949535977484545,0.48892790999323976,0.48242498660130284,0.4754526795168301,0.468019445458979,0.46013432902944773,0.45180694472792604,0.44304745792397027,0.4338665648474147,0.4242754716463919,0.41428587255142535,0.40390992720033153,0.39316023719370113,0.38204982194013676,0.37059209384031716,0.35880083287206543,0.3466901606494889,0.33427451401646235,0.3215686182240588,0.30858745974986895,0.2953462588057975,0.28186044153171336,0.26814561185059776,0.25421752301188594,0.24009204891298297,0.22578515530321375,0.21131287096530604,0.19669125897357356,0.1819363881298879,0.16706430466097458,0.15209100424597247,0.1370324044506807,0.1219043176545264,0.10672242454850793,0.09150224827100766,0.07625912924818307,0.061008200805394375,0.04576436560493907,0.030542272954669023,0.015356297032718774,0.00022051607683909162,-0.014851307417308134,-0.02984574545211458,-0.04474972220592274,-0.05955053060219179,-0.0742358477413394,-0.08879374917179933,-0.10321272198481575,-0.11748167672336697,-0.1315899580969671,-0.14552735449712156,-0.1592841063148149,-0.1728509130585659,-0.18621893925555064,-0.1993798191145801,-0.21232565995208572,-0.22504904439878634,-0.23754303139313823,-0.24980115596135363,-0.26181742780597966,-0.2735863287344393,-0.2851028089291587,-0.2963622820463882,-0.30736061916883756,-0.31809414166663114,-0.328559612995491,-0.3387542294429062,-0.34867560986993523,-0.3583217845183401,-0.3676911829093394,-0.37678262083345476,-0.38559528648042246,-0.3941287257927049,-0.4023828270773802,-0.4103578048777626,-0.4180541831637738,-0.42547277794398614,-0.4326146793501015,-0.43948123320538274,-0.4460740221492749,-0.45239484643930855,-0.4584457044975518,-0.4642287732251515,-0.469746388167034,-0.47500102365487934,-0.47999527299665096,-0.48473182873271375,-0.489213463038099,-0.49344300839989075,-0.4974233386400947,-0.5011573503041543,-0.504647944491766,-0.5078980092567109,-0.5109104026488658,-0.5136879364218747,-0.5162333604775835,-0.5185493481608257,-0.5206384824663228,-0.5225032431710979,-0.5241459949462567,-0.5255689765385035,-0.5267742910631438,-0.5277638974046764,-0.528539602756845,-0.529103056371443,-0.5294557445502497,-0.5295989868753324,-0.5295339336939409,-0.5292615648946108,-0.5287826899751236,-0.5280979493680091,-0.5272078170087584,-0.5261126041581223,-0.5248124644738772,-0.5233074003022453,-0.5215972701613628,-0.5196817973936424,-0.5175605799444106,-0.5152331012040688,-0.5126987418541616,-0.5099567926681737,-0.5070064682152907,-0.5038469214046862,-0.5004772588011658,-0.4968965566440588,-0.4931038775060989,-0.489098287526144,-0.48487887413593767,-0.48044476419534166,-0.4757951424621899,-0.4709292703274063,-0.465846504728396,-0.4605463171455893,-0.4550283126086124,-0.4492922486507723,-0.4433380541265586,-0.43716584779160117,-0.4307759565706446,-0.4241689334573491,-0.4173455749629814,-0.4103069380123615,-0.40305435621573615,-0.39558945546856095,-0.3879141688040486,-0.3800307504058451,-0.37194178872641537,-0.36365021868528125,-0.3551593328887985,-0.34647279178650464,-0.3375946327132166,-0.32852927779618984,-0.3192815406797669,-0.3098566320041356,-0.30026016362266916,-0.29049815157748426,-0.2805770178159065,-0.2705035906000165,-0.2602851036017756,-0.2499291937113025,-0.23944389755214082,-0.22883764667089782,-0.21811926141228902,-0.2072979435270054,-0.19638326752534796,-0.1853851707623625,-0.17431394228444297,-0.16318021050407705,-0.15199492973332734,-0.140769365576561,-0.12951507922464817,-0.11824391072868827,-0.10696796129643528,-0.09569957462671254,-0.08445131734045104,-0.07323595860259498,-0.06206644899057752,-0.05095589862785495,-0.03991755463175907,-0.028964777956291748,-0.018111019682135576,-0.0073697967821861055,0.003245332573567163,0.01372079407967066,0.02404302265886587,0.03419848808996932,0.04417372083183553,0.053955337948085866,0.06353006906511534,0.0728847823205331,0.08200651023076917,0.09088247538185647,0.09950011587523434,0.10784711048659963,0.11591140347290375,0.12368122894116797,0.13114513471798767,0.13829200568400896,0.14511108652094967,0.1515920038011202,0.15772478736873252,0.16349989098080808,0.1689082121592711,0.17394111119075528,0.17859042922864993,0.1828485054694356,0.18670819336249794,0.1901628758004284,0.19320647925336126,0.19583348682794705,0.19803895022311085,0.199818500545554,0.20116835796084273,0.20208534016790866,0.20256686967557544,0.20261097985202378,0.20221631973212545,0.20138215758325356,0.20010838322808416,0.19839550911828124,0.19624467016054853,0.1936576223013428,0.1906367398668251,0.1871850116492521,0.18330603574442783,0.1790040131579831,0.17428374019476478,0.16915059964191337,0.1636105507678,0.15767011817250193,0.15133637952687035,0.1446169522352883,0.13751997906098345,0.13005411275278655,0.12222849970237981,0.11405276265672071,0.10553698252194935,0.0966916793064693,0.08752779224837368,0.07805665916917423,0.068289995104565,0.05823987027309928,0.04791868744395637,0.037339158762472305,0.026514282094063635,0.015457316946021999,0.004181760017506881,-0.007298679576786683,-0.01897010535521233,-0.030818458724762538,-0.04282954437612593,-0.054989055753126403,-0.06728260053278225,-0.07969572605634219,-0.09221394466077483,-0.10482275886523686,-0.11750768636222968,-0.13025428475801681,-0.14304817600970143,-0.15587507051039373,-0.16872079077179403,-0.18157129464943034,-0.19441269805556582,-0.2072312971078285,-0.22001358966465762,-0.23274629619899684,-0.24541637995979,-0.258011066372611,-0.2705178616383008,-0.28292457049263064,-0.295219313085902,-0.30739054094135554,-0.31942705196243815,-0.33131800446480864,-0.34305293019947547,-0.35462174633036636,-0.3660147663502228,-0.37722270994587304,-0.3882367118372133,-0.39904832961576775,-0.40964955060197583,-0.4200327977124957,-0.43019093428382915,-0.440117267784753,-0.4498055523886434,-0.4592499904031443,-0.46844523252580716,-0.4773863768782919,-0.48606896681753997,-0.49448898755247694,-0.5026428615532821,-0.5105274427156139,-0.5181400092994753,-0.5254782557039596,-0.5325402830911822,-0.5393245888404131,-0.5458300548763674,-0.5520559349582074,-0.5580018409515083,-0.5636677280628358,-0.569053879094043,-0.5741608878353394,-0.5789896416546471,-0.5835413032924665,-0.5878172919455547,-0.5918192637746271,-0.5955490918888828,-0.5990088458012433,-0.6022007704364152,-0.605127264846266,-0.607790860711048,-0.6101942006421301,-0.612340016385462,-0.6142311070930337,-0.6158703177482656,-0.6172605177635435,-0.6184045798495617,-0.6193053593255091,-0.6199656739606252,-0.6203882843685262,-0.6205758750500244,-0.6205310362460409,-0.6202562466886955,-0.6197538572706506,-0.6190260757158554,-0.6180749523898335,-0.616902367314536,-0.6155100183864712,-0.6138994108544904,-0.612071848168247,-0.6100284242471896,-0.6077700171594151,-0.605297284245439,-0.6026106587693377,-0.5997103481316165,-0.5965963336257084,-0.5932683717487509,-0.5897259971059067,-0.5859685269010776,-0.5819950669609372,-0.5778045192643982,-0.573395590982461,-0.5687668050097862,-0.5639165119356476,-0.5588429034082019,-0.5535440268571818,-0.5480178015186197,-0.5422620356798658,-0.5362744450659793,-0.5300526723020735,-0.5235943073854012,-0.5168969090882909,-0.509958027200849,-0.5027752255182152,-0.4953461054798203,-0.48766833036424573,-0.47973964992868806,-0.47155792537909175,-0.463121154576048,-0.4544274973888566,-0.4454753010858141,-0.4362631256346243,-0.4267897688111719,-0.41705429103039027,-0.4070560397852177,-0.3967946735609483,-0.3862701851220987,-0.37548292409134204,-0.36443361871261365,-0.3531233966743564,-0.3415538049098455,-0.3297268283212898,-0.31764490734184614,-0.30531095422999766,-0.29272836804035296,-0.2799010482511217,-0.26683340698693836,-0.25353037974102965,-0.2399974345427808,-0.22624057955442925,-0.21226636904647525,-0.19808190767850567,-0.1836948530666949,-0.16911341666169769,-0.15434636291969078,-0.13940300671647526,-0.1242932090048187,-0.10902737075811857,-0.09361642520385477,-0.0780718283184943,-0.06240554760653383,-0.04663004922976499,-0.030758283513318167,-0.014803668822454546,0.0012199261464083074,0.017298201574304374,0.03341644718063809,0.04955956432128908,0.06571208946052495,0.08185821891197995,0.09798183478322112,0.11406653209327175,0.13009564699001644,0.14605228595599343,0.16191935592647927,0.17767959527355942,0.19331560556689092,0.20880988398533246,0.22414485629004133,0.23930291030058548,0.25426642977525415,0.2690178285626863,0.2835395849301716,0.29781427601006527,0.31182461227458846,0.32555347191953476,0.33898393506973695,0.35209931774837616,0.36488320552162307,0.37731948670305154,0.38939238503362167,0.40108649178230565,0.41238679718680543,0.42327872113033865,0.4337481429796261,0.4437814305381213,0.45336546804947425,0.46248768316687955,0.47113607282702313,0.4792992279871658,0.48696635716153663,0.4941273086754148,0.5007725915818866,0.5068933952132739,0.5124816073269711,0.517529830791883,0.5220313987823344,0.5259803884676271,0.5293716331758556,0.5322007329999092,0.5344640638289189,0.536158784801172,0.5372828441606536,0.5378349834893315,0.5378147403061949,0.537222449041927,0.5360592403891523,0.5343270390201774,0.5320285596812175,0.5291673016877001,0.5257475418363795,0.5217743257426373,0.5172534576285456,0.5121914886062467,0.5065957034997189,0.5004741062430821,0.4938354039016429,0.48668898936554,0.47904492275229665,0.47091391154723167,0.4623072895272281,0.453236994530939,0.44371554513638467,0.43375601630194194,0.4233720140347276,0.41257764915378725,0.4013875102015182,0.3898166355487992,0.3778804847545911,0.3655949092550221,0.35297612244982884,0.3400406692467692,0.32680539513614576,0.3132874148777757,0.29950408087405717,0.2854729512947353,0.27121175802863684,0.25673837454679593,0.2420707837537126,0.22722704589540332,0.21222526659878582,0.19708356512009528,0.18182004286729014,0.16645275225183964,0.15099966593453656,0.1354786465406575,0.11990741691520529,0.10430353098117512,0.0886843452655724,0.07306699115946491,0.057468347970161086,0.04190501681550312,0.026393295411610288,0.010949153808620578,-0.004411788874477891,-0.019674286671133686,-0.03482348790237667,-0.04984495518094239,-0.06472468423540091,-0.0794491215082291,-0.09400518049272692,-0.10838025677616824,-0.12256224174392054,-0.13653953489727993,-0.15030105476098657,-0.16383624837185698,-0.17713509932580498,-0.19018813435445872,-0.20298642842996087,N
4,0.5872536546548929,0.5952132401645513,0.6026596779846114,0.609584248747779,0.6159788972689737,0.6218362463013677,0.6271496090249532,0.6319130002554351,0.6361211463447195,0.639769493762502,0.6428542163606947,0.6453722212956909,0.6473211535653716,0.6486993991469338,0.6495060867533654,0.6497410882192075,0.6494050175138985,0.6484992283962122,0.6470258107343371,0.6449875854965005,0.642388098403348,0.6392316122581002,0.6355230980065477,0.6312682245926434,0.6264733476717054,0.6211454972343411,0.6152923641738726,0.6089222857991592,0.6020442302826452,0.5946677800553458,0.5868031141820701,0.5784609897441485,0.5696527222496884,0.56039016510678,0.5506856882075943,0.5405521556596173,0.5300029026916013,0.5190517117783392,0.5077127880423974,0.4960007339796941,0.4839305235466986,0.4715174756633583,0.4587772272016058,0.4457257055212909,0.43237910060667667,0.41875383686742773,0.4048665446748705,0.3907340316888077,0.376373254019311,0.3618012872832153,0.34703529763036084,0.3320925128066921,0.3169901933117228,0.3017456037159449,0.28637598420742755,0.2708985224191606,0.25533032557649643,0.23968839301854591,0.22398958916321185,0.20825061697917432,0.19248799201825592,0.176718017066642,0.1609567574764,0.14522001722499897,0.1295233157392933,0.1138818655274835,0.09831055066927766,0.08282390620451943,0.06743609845036894,0.05216090628226207,0.03701170342097794,0.022001441763190754,0.007142635784694786,-0.007552651955497455,-0.022072824181413785,-0.03640676111292208,-0.050543831508067884,-0.06447390251981387,-0.07818734834541534,-0.09167505763582394,-0.10492843963327307,-0.11793942902309738,-0.13070048949814758,-0.14320461602678744,-0.1554453358135239,-0.16741670796106703,-0.1791133218515393,-0.1905302942427203,-0.20166326506606172,-0.2125083919442241,-0.22306234346284182,-0.23332229119836012,-0.2432859004868666,-0.25295131996317916,-0.2623171699287982,-0.2713825295669396,-0.2801469229981805,-0.2886103042241704,-0.2967730410446526,-0.30463589798376917,-0.3122000182286487,-0.31946690464507066,-0.32643839997977264,-0.3331166663009064,-0.33950416368693226,-0.3456036282423869,-0.351418049568754,-0.3569506477508868,-0.362204849869906,-0.36718426612950716,-0.3718926657441076,-0.37633395267065406,-0.38051214121145305,-0.38443133158837706,-0.38809568564804187,-0.3915094027866318,-0.39467669612397016,-0.3976017690271402,-0.40028879214373136,-0.40274188103535347,-0.4049650744411718,-0.40696231326552806,-0.4087374204385961,-0.4102940817300967,-0.41163582753476985,-0.4127660157068269,-0.4136878155719388,-0.41440419318017696,-0.41491789780370025,-0.4152314497353637,-0.4153471294947017,-0.41526696849390005,-0.4149927411619236,-0.41452595856381946,-0.4138678635898474,-0.4130194277397856,-0.41198134947855847,-0.4107540541697329,-0.40933769562558375,-0.4077321592737514,-0.4059370668989467,-0.40395178293821854,-0.4017754223313962,-0.39940685989806857,-0.39684474117886015,-0.3940874946907451,-0.3911333455621777,-0.3879803304923619,-0.38462631395373603,-0.3810690055625661,-0.37730597855382225,-0.3733346892851071,-0.369152497677856,-0.3647566885041135,-0.36014449343539207,-0.35531311377144353,-0.35025974375968566,-0.3449815944069887,-0.33947591768435603,-0.33374003103318195,-0.32777134208270864,-0.32156737347465697,-0.3151257876869807,-0.30844441176768506,-0.301521261899141,-0.29435456769198637,-0.28694279609276113,-0.27928467480852254,-0.2713792151664112,-0.2632257343079844,-0.25482387661155775,-0.24617363427152567,-0.23727536698670443,-0.2281298206810715,-0.21873814516084314,-0.2091019106478306,-0.1992231231565126,-0.18910423865209874,-0.17874817590830366,-0.1681583280291546,-0.15733857263253176,-0.14629328065516736,-0.13502732370897255,-0.12354607996094938,-0.11185543854453109,-0.09996180247417037,-0.0878720900075189,-0.07559373444598023,-0.06313468240266919,-0.050503390529879275,-0.037708820669178064,-0.024760433434402276,-0.011668180277260425,0.0015575059516568614,0.014905721961398315,0.028365106462917903,0.041923854018480804,0.05556973026288772,0.06929008849618887,0.08307188760232356,0.0969017112085507,0.11076578803884628,0.12465001344504471,0.13853997205147775,0.15242096140925568,0.16627801659691333,0.180095935737559,0.19385930635653348,0.2075525324650882,0.22115986229832138,0.23466541667574378,0.2480532179171364,0.2613072192117354,0.274411334372768,0.28734946793750493,0.30010554553226043,0.3126635443880027,0.3250075239286002,0.3371216563848144,0.34899025734979794,0.3605978161604505,0.3719290260271686,0.38296881387204285,0.3937023698097277,0.4041151761785551,0.41419303605789537,0.42392210123105833,0.4332888995202935,0.44228036139446125,0.45088384578365,0.4590871650690241,0.46687860919720686,0.4742469688477265,0.48118155760601694,0.48767223311420754,0.49370941714596767,0.49928411453144567,0.5043879308865682,0.5090130891271736,0.5131524447293296,0.5167994996799483,0.5199484150877456,0.5225940224488801,0.5247318335449516,0.526358048935825,0.5274695650337365,0.5280639797697878,0.528139596853609,0.5276954286148089,0.5267311974311483,0.5252473357610957,0.5232449847809316,0.5207259916140187,0.5176929051607531,0.5141489705570506,0.5100981222772274,0.505544975886355,0.5004948184655147,0.4949535977484545,0.48892790999323976,0.48242498660130284,0.4754526795168301,0.468019445458979,0.46013432902944773,0.45180694472792604,0.44304745792397027,0.4338665648474147,0.4242754716463919,0.41428587255142535,0.40390992720033153,0.39316023719370113,0.38204982194013676,0.37059209384031716,0.35880083287206543,0.3466901606494889,0.33427451401646235,0.3215686182240588,0.30858745974986895,0.2953462588057975,0.28186044153171336,0.26814561185059776,0.25421752301188594,0.24009204891298297,0.22578515530321375,0.21131287096530604,0.19669125897357356,0.1819363881298879,0.16706430466097458,0.15209100424597247,0.1370324044506807,0.1219043176545264,0.10672242454850793,0.09150224827100766,0.07625912924818307,0.061008200805394375,0.04576436560493907,0.030542272954669023,0.015356297032718774,0.00022051607683909162,-0.014851307417308134,-0.02984574545211458,-0.04474972220592274,-0.05955053060219179,-0.0742358477413394,-0.08879374917179933,-0.10321272198481575,-0.11748167672336697,-0.1315899580969671,-0.14552735449712156,-0.1592841063148149,-0.1728509130585659,-0.18621893925555064,-0.1993798191145801,-0.21232565995208572,-0.22504904439878634,-0.23754303139313823,-0.24980115596135363,-0.26181742780597966,-0.2735863287344393,-0.2851028089291587,-0.2963622820463882,-0.30736061916883756,-0.31809414166663114,-0.328559612995491,-0.3387542294429062,-0.34867560986993523,-0.3583217845183401,-0.3676911829093394,-0.37678262083345476,-0.38559528648042246,-0.3941287257927049,-0.4023828270773802,-0.4103578048777626,-0.4180541831637738,-0.42547277794398614,-0.4326146793501015,-0.43948123320538274,-0.4460740221492749,-0.45239484643930855,-0.4584457044975518,-0.4642287732251515,-0.469746388167034,-0.47500102365487934,-0.47999527299665096,-0.48473182873271375,-0.489213463038099,-0.49344300839989075,-0.4974233386400947,-0.5011573503041543,-0.504647944491766,-0.5078980092567109,-0.5109104026488658,-0.5136879364218747,-0.5162333604775835,-0.5185493481608257,-0.5206384824663228,-0.5225032431710979,-0.5241459949462567,-0.5255689765385035,-0.5267742910631438,-0.5277638974046764,-0.528539602756845,-0.529103056371443,-0.5294557445502497,-0.5295989868753324,-0.5295339336939409,-0.5292615648946108,-0.5287826899751236,-0.5280979493680091,-0.5272078170087584,-0.5261126041581223,-0.5248124644738772,-0.5233074003022453,-0.5215972701613628,-0.5196817973936424,-0.5175605799444106,-0.5152331012040688,-0.5126987418541616,-0.5099567926681737,-0.5070064682152907,-0.5038469214046862,-0.5004772588011658,-0.4968965566440588,-0.4931038775060989,-0.489098287526144,-0.48487887413593767,-0.48044476419534166,-0.4757951424621899,-0.4709292703274063,-0.465846504728396,-0.4605463171455893,-0.4550283126086124,-0.4492922486507723,-0.4433380541265586,-0.43716584779160117,-0.4307759565706446,-0.4241689334573491,-0.4173455749629814,-0.4103069380123615,-0.40305435621573615,-0.39558945546856095,-0.3879141688040486,-0.3800307504058451,-0.37194178872641537,-0.36365021868528125,-0.3551593328887985,-0.34647279178650464,-0.3375946327132166,-0.32852927779618984,-0.3192815406797669,-0.3098566320041356,-0.30026016362266916,-0.29049815157748426,-0.2805770178159065,-0.2705035906000165,-0.2602851036017756,-0.2499291937113025,-0.23944389755214082,-0.22883764667089782,-0.21811926141228902,-0.2072979435270054,-0.19638326752534796,-0.1853851707623625,-0.17431394228444297,-0.16318021050407705,-0.15199492973332734,-0.140769365576561,-0.12951507922464817,-0.11824391072868827,-0.10696796129643528,-0.09569957462671254,-0.08445131734045104,-0.07323595860259498,-0.06206644899057752,-0.05095589862785495,-0.03991755463175907,-0.028964777956291748,-0.018111019682135576,-0.0073697967821861055,0.003245332573567163,0.01372079407967066,0.02404302265886587,0.03419848808996932,0.04417372083183553,0.053955337948085866,0.06353006906511534,0.0728847823205331,0.08200651023076917,0.09088247538185647,0.09950011587523434,0.10784711048659963,0.11591140347290375,0.12368122894116797,0.13114513471798767,0.13829200568400896,0.14511108652094967,0.1515920038011202,0.15772478736873252,0.16349989098080808,0.1689082121592711,0.17394111119075528,0.17859042922864993,0.1828485054694356,0.18670819336249794,0.1901628758004284,0.19320647925336126,0.19583348682794705,0.19803895022311085,0.199818500545554,0.20116835796084273,0.20208534016790866,0.20256686967557544,0.20261097985202378,0.20221631973212545,0.20138215758325356,0.20010838322808416,0.19839550911828124,0.19624467016054853,0.1936576223013428,0.1906367398668251,0.1871850116492521,0.18330603574442783,0.1790040131579831,0.17428374019476478,0.16915059964191337,0.1636105507678,0.15767011817250193,0.15133637952687035,0.1446169522352883,0.13751997906098345,0.13005411275278655,0.12222849970237981,0.11405276265672071,0.10553698252194935,0.0966916793064693,0.08752779224837368,0.07805665916917423,0.068289995104565,0.05823987027309928,0.04791868744395637,0.037339158762472305,0.026514282094063635,0.015457316946021999,0.004181760017506881,-0.007298679576786683,-0.01897010535521233,-0.030818458724762538,-0.04282954437612593,-0.054989055753126403,-0.06728260053278225,-0.07969572605634219,-0.09221394466077483,-0.10482275886523686,-0.11750768636222968,-0.13025428475801681,-0.14304817600970143,-0.15587507051039373,-0.16872079077179403,-0.18157129464943034,-0.19441269805556582,-0.2072312971078285,-0.22001358966465762,-0.23274629619899684,-0.24541637995979,-0.258011066372611,-0.2705178616383008,-0.28292457049263064,-0.295219313085902,-0.30739054094135554,-0.31942705196243815,-0.33131800446480864,-0.34305293019947547,-0.35462174633036636,-0.3660147663502228,-0.37722270994587304,-0.3882367118372133,-0.39904832961576775,-0.40964955060197583,-0.4200327977124957,-0.43019093428382915,-0.440117267784753,-0.4498055523886434,-0.4592499904031443,-0.46844523252580716,-0.4773863768782919,-0.48606896681753997,-0.49448898755247694,-0.5026428615532821,-0.5105274427156139,-0.5181400092994753,-0.5254782557039596,-0.5325402830911822,-0.5393245888404131,-0.5458300548763674,-0.5520559349582074,-0.5580018409515083,-0.5636677280628358,-0.569053879094043,-0.5741608878353394,-0.5789896416546471,-0.5835413032924665,-0.5878172919455547,-0.5918192637746271,-0.5955490918888828,-0.5990088458012433,-0.6022007704364152,-0.605127264846266,-0.607790860711048,-0.6101942006421301,-0.612340016385462,-0.6142311070930337,-0.6158703177482656,-0.6172605177635435,-0.6184045798495617,-0.6193053593255091,-0.6199656739606252,-0.6203882843685262,-0.6205758750500244,-0.6205310362460409,-0.6202562466886955,-0.6197538572706506,-0.6190260757158554,-0.6180749523898335,-0.616902367314536,-0.6155100183864712,-0.6138994108544904,-0.612071848168247,-0.6100284242471896,-0.6077700171594151,-0.605297284245439,-0.6026106587693377,-0.5997103481316165,-0.5965963336257084,-0.5932683717487509,-0.5897259971059067,-0.5859685269010776,-0.5819950669609372,-0.5778045192643982,-0.573395590982461,-0.5687668050097862,-0.5639165119356476,-0.5588429034082019,-0.5535440268571818,-0.5480178015186197,-0.5422620356798658,-0.5362744450659793,-0.5300526723020735,-0.5235943073854012,-0.5168969090882909,-0.509958027200849,-0.5027752255182152,-0.4953461054798203,-0.48766833036424573,-0.47973964992868806,-0.47155792537909175,-0.463121154576048,-0.4544274973888566,-0.4454753010858141,-0.4362631256346243,-0.4267897688111719,-0.41705429103039027,-0.4070560397852177,-0.3967946735609483,-0.3862701851220987,-0.37548292409134204,-0.36443361871261365,-0.3531233966743564,-0.3415538049098455,-0.3297268283212898,-0.31764490734184614,-0.30531095422999766,-0.29272836804035296,-0.2799010482511217,-0.26683340698693836,-0.25353037974102965,-0.2399974345427808,-0.22624057955442925,-0.21226636904647525,-0.19808190767850567,-0.1836948530666949,-0.16911341666169769,-0.15434636291969078,-0.13940300671647526,-0.1242932090048187,-0.10902737075811857,-0.09361642520385477,-0.0780718283184943,-0.06240554760653383,-0.04663004922976499,-0.030758283513318167,-0.014803668822454546,0.0012199261464083074,0.017298201574304374,0.03341644718063809,0.04955956432128908,0.06571208946052495,0.08185821891197995,0.09798183478322112,0.11406653209327175,0.13009564699001644,0.14605228595599343,0.16191935592647927,0.17767959527355942,0.19331560556689092,0.20880988398533246,0.22414485629004133,0.23930291030058548,0.25426642977525415,0.2690178285626863,0.2835395849301716,0.29781427601006527,0.31182461227458846,0.32555347191953476,0.33898393506973695,0.35209931774837616,0.36488320552162307,0.37731948670305154,0.38939238503362167,0.40108649178230565,0.41238679718680543,0.42327872113033865,0.4337481429796261,0.4437814305381213,0.45336546804947425,0.46248768316687955,0.47113607282702313,0.4792992279871658,0.48696635716153663,0.4941273086754148,0.5007725915818866,0.5068933952132739,0.5124816073269711,0.517529830791883,0.5220313987823344,0.5259803884676271,0.5293716331758556,0.5322007329999092,0.5344640638289189,0.536158784801172,0.5372828441606536,0.5378349834893315,0.5378147403061949,0.537222449041927,0.5360592403891523,0.5343270390201774,0.5320285596812175,0.5291673016877001,0.5257475418363795,0.5217743257426373,0.5172534576285456,0.5121914886062467,0.5065957034997189,0.5004741062430821,0.4938354039016429,0.48668898936554,0.47904492275229665,0.47091391154723167,0.4623072895272281,0.453236994530939,0.44371554513638467,0.43375601630194194,0.4233720140347276,0.41257764915378725,0.4013875102015182,0.3898166355487992,0.3778804847545911,0.3655949092550221,0.35297612244982884,0.3400406692467692,0.32680539513614576,0.3132874148777757,0.29950408087405717,0.2854729512947353,0.27121175802863684,0.25673837454679593,0.2420707837537126,0.22722704589540332,0.21222526659878582,0.19708356512009528,0.18182004286729014,0.16645275225183964,0.15099966593453656,0.1354786465406575,0.11990741691520529,0.10430353098117512,0.0886843452655724,0.07306699115946491,0.057468347970161086,0.04190501681550312,0.026393295411610288,0.010949153808620578,-0.004411788874477891,-0.019674286671133686,-0.03482348790237667,-0.04984495518094239,-0.06472468423540091,-0.0794491215082291,-0.09400518049272692,-0.10838025677616824,-0.12256224174392054,-0.13653953489727993,-0.15030105476098657,-0.16383624837185698,-0.17713509932580498,-0.19018813435445872,-0.20298642842996087,-0.2155216084105939,-0.2277858552101977,-0.23977190446022492,-0.25147304567432177,-0.2628831199507636,-0.2739965162087639,-0.2848081659325226,-0.2953135364511286,-0.3055086228221274,-0.31538993834319223,-0.32495450368711426,-0.33419983471429165,-0.3431239290581745,-0.3517252515224865,-0.36000271829063984,-0.3679556800154544,-0.37558390390427343,-0.3828875548447894,-0.389867175568805,-0.3965236659311178,-0.4028582614418042,-0.4088725111168399,-0.4145682546565184,-0.41994759905074264,-0.4250128948039562,-0.42976671193946525,-0.43421181589421987,-0.43835114345402165,-0.44218777889357924,-0.4457249303903132,-0.44896590671700637,-0.45191409429152435,-0.45457293472182775,-0.456945902910773,-0.45903648572312067,-0.4608481612878104,-0.46238437906767144,-0.4636485407554714,-0.46464398199198015,-0.4653739549697253,-0.46584161204900115,-0.4660499904511696,-0.4660019980343641,-0.4657004002102558,-0.46514780810981615,-0.464346668046675,-0.4632992522698569,-0.46200765104221103,-0.46047376612402185,-0.4586993056905552,-0.45668578066130244,-0.4544345024527854,-0.45194658220139394,-0.4492229314600229,-0.44626426432811717,-0.4430711010002092,-0.43964377274770905,-0.4359824283191295,-0.4320870417087844,-0.4279574212571791,-0.42359322006460737,-0.41899394767842374,-0.4141589829880515,-0.40908758826684566,-0.40377892431315154,-0.39823206663564314,-0.3924460226119695,-0.3864197495431899,-0.38015217352627506,-0.3736422090639252,-0.3668887793229586,-0.3598908369437575,-0.3526473853036794,-0.3451575001481469,-0.33742035150486555,-0.32943522578034257,-0.3212015479309527,-0.3127189036194056,-0.3039870612773248,-0.2950059939731083,-0.28577590097183864,-0.2762972288992441,-0.26657069243869774,-0.25659729446600016,-0.24637834551360724,-0.23591548249169178,-0.22521068661785534,-0.21426630047584982,-0.20308504410126482,-0.19167003002911676,-0.18002477726732513,-0.16815322412750341,-0.15605973981929042,-0.14374913475267956,-0.1312266695251034,-0.11849806254013619,-0.10556949618448887,-0.09244762153643639,-0.07913956161512666,-0.06565291314567051,-0.051995746789342434,-0.0381766058355385,-0.024204503390396592,-0.010088918059668512,0.00416021190659407,0.01853249599441079,0.033017100279394994,0.04760275773830984,0.06227778003457725,0.07703007075037226,0.09184713999976644,0.10671612039068393,0.12162378432764073,0.13655656259717477,0.151500564138512,0.16644159694236274,0.18136519005589594,0.19625661663049823,0.211100917912074,0.22588292811054428,0.2405873001162417,0.2551985319889258,0.26970099410940834,0.28407895692096324,0.2983166192198608,0.312398136915568,0.3263076521475588,0.3400293226817478,0.35354735154030037,0.36684601678083395,0.3799097013091962,0.3927229226472351,0.40527036261157545,0.41753689682908735,0.42950762398637976,0.4411678947426363,0.4525033402626921,0.4634999002953182,0.4741438506949074,0.4844218303177329,0.49432086725322255,0.5038284043223559,0.5129323237509559,0.521620970958526,0.5298831774352681,0.5377082826592914,0.5450861549853139,0.5520072114622675,0.5584624365601402,0.5644433997630541,0.5699422719661326,0.5749518406414889,0.5794655237671478,0.5834773824994026,0.5869821325537923,0.5899751542795343,0.5924525014304488,0.5944109086196864,0.5958477974316841,0.5967612811832963,0.597150168341334,0.5970139645863897,0.5963528734997359,0.5951677958726177,0.5934603276613483,0.5912327566055647,0.5884880575176293,0.5852298862642522,0.581462572472025,0.5771911109753232,0.5724211520151941,0.567158990213853,0.5614115523645202,0.5551863840674944,0.5484916352350362,0.541336044501219,0.5337289225845345,0.5256801346405977,0.5172000816339475,0.5082996807717822,0.4989903450542556,0.4892839619855673,0.4791928714816979,0.4687298430252018,0.45790805213313623,0.4467410562002345,0.43524276977270615,0.4234274393143458,0.411309617528419,0.39890413728325913,0.38622608518008694,0.37329077481579687,0.36011371980802276,0.3467106066440909,0.3330972674078515,0.3192896524461804,0.3053038030432123,0.291155824160337,0.2768618572914248,0.2624380534905505,0.24790054663636651,0.23326542698837593,0.2185487150819515,0.20376633601475735,0.18893409418035756,0.17406764849207434,0.15918248813065727,0.14429390885800789,0.12941698994677678,0.11456657176590614,0.09975723405304239,0.08500327491277423,0.07031869059064474,0.0557171560712447,0.041212006541933556,0.026816219761566656,0.012542399370510339,-0.0015972408310550464,-0.015590891617100868,-0.02942716206215771,-0.043095092239819194,-0.0565841648791765,-0.0698843159712951,-0.08298594431669593,-0.09587991999820367,-0.10855759175794266,-0.1210107932594186,-0.13323184822558246,-0.14521357444927954,-0.15694928666747568,-0.1684327982905404,-0.17965842199066642,-0.19062096915590157,-0.20131574819648115,N
5,0.3605978161604505,0.3719290260271686,0.38296881387204285,0.3937023698097277,0.4041151761785551,0.41419303605789537,0.42392210123105833,0.4332888995202935,0.44228036139446125,0.45088384578365,0.4590871650690241,0.46687860919720686,0.4742469688477265,0.48118155760601694,0.48767223311420754,0.49370941714596767,0.49928411453144567,0.5043879308865682,0.5090130891271736,0.5131524447293296,0.5167994996799483,0.5199484150877456,0.5225940224488801,0.5247318335449516,0.526358048935825,0.5274695650337365,0.5280639797697878,0.528139596853609,0.5276954286148089,0.5267311974311483,0.5252473357610957,0.5232449847809316,0.5207259916140187,0.5176929051607531,0.5141489705570506,0.5100981222772274,0.505544975886355,0.5004948184655147,0.4949535977484545,0.48892790999323976,0.48242498660130284,0.4754526795168301,0.468019445458979,0.46013432902944773,0.45180694472792604,0.44304745792397027,0.4338665648474147,0.4242754716463919,0.41428587255142535,0.40390992720033153,0.39316023719370113,0.38204982194013676,0.37059209384031716,0.35880083287206543,0.3466901606494889,0.33427451401646235,0.3215686182240588,0.30858745974986895,0.2953462588057975,0.28186044153171336,0.26814561185059776,0.25421752301188594,0.24009204891298297,0.22578515530321375,0.21131287096530604,0.19669125897357356,0.1819363881298879,0.16706430466097458,0.15209100424597247,0.1370324044506807,0.1219043176545264,0.10672242454850793,0.09150224827100766,0.07625912924818307,0.061008200805394375,0.04576436560493907,0.030542272954669023,0.015356297032718774,0.00022051607683909162,-0.014851307417308134,-0.02984574545211458,-0.04474972220592274,-0.05955053060219179,-0.0742358477413394,-0.08879374917179933,-0.10321272198481575,-0.11748167672336697,-0.1315899580969671,-0.14552735449712156,-0.1592841063148149,-0.1728509130585659,-0.18621893925555064,-0.1993798191145801,-0.21232565995208572,-0.22504904439878634,-0.23754303139313823,-0.24980115596135363,-0.26181742780597966,-0.2735863287344393,-0.2851028089291587,-0.2963622820463882,-0.30736061916883756,-0.31809414166663114,-0.328559612995491,-0.3387542294429062,-0.34867560986993523,-0.3583217845183401,-0.3676911829093394,-0.37678262083345476,-0.38559528648042246,-0.3941287257927049,-0.4023828270773802,-0.4103578048777626,-0.4180541831637738,-0.42547277794398614,-0.4326146793501015,-0.43948123320538274,-0.4460740221492749,-0.45239484643930855,-0.4584457044975518,-0.4642287732251515,-0.469746388167034,-0.47500102365487934,-0.47999527299665096,-0.48473182873271375,-0.489213463038099,-0.49344300839989075,-0.4974233386400947,-0.5011573503041543,-0.504647944491766,-0.5078980092567109,-0.5109104026488658,-0.5136879364218747,-0.5162333604775835,-0.5185493481608257,-0.5206384824663228,-0.5225032431710979,-0.5241459949462567,-0.5255689765385035,-0.5267742910631438,-0.5277638974046764,-0.528539602756845,-0.529103056371443,-0.5294557445502497,-0.5295989868753324,-0.5295339336939409,-0.5292615648946108,-0.5287826899751236,-0.5280979493680091,-0.5272078170087584,-0.5261126041581223,-0.5248124644738772,-0.5233074003022453,-0.5215972701613628,-0.5196817973936424,-0.5175605799444106,-0.5152331012040688,-0.5126987418541616,-0.5099567926681737,-0.5070064682152907,-0.5038469214046862,-0.5004772588011658,-0.4968965566440588,-0.4931038775060989,-0.489098287526144,-0.48487887413593767,-0.48044476419534166,-0.4757951424621899,-0.4709292703274063,-0.465846504728396,-0.4605463171455893,-0.4550283126086124,-0.4492922486507723,-0.4433380541265586,-0.43716584779160117,-0.4307759565706446,-0.4241689334573491,-0.4173455749629814,-0.4103069380123615,-0.40305435621573615,-0.39558945546856095,-0.3879141688040486,-0.3800307504058451,-0.37194178872641537,-0.36365021868528125,-0.3551593328887985,-0.34647279178650464,-0.3375946327132166,-0.32852927779618984,-0.3192815406797669,-0.3098566320041356,-0.30026016362266916,-0.29049815157748426,-0.2805770178159065,-0.2705035906000165,-0.2602851036017756,-0.2499291937113025,-0.23944389755214082,-0.22883764667089782,-0.21811926141228902,-0.2072979435270054,-0.19638326752534796,-0.1853851707623625,-0.17431394228444297,-0.16318021050407705,-0.15199492973332734,-0.140769365576561,-0.12951507922464817,-0.11824391072868827,-0.10696796129643528,-0.09569957462671254,-0.08445131734045104,-0.07323595860259498,-0.06206644899057752,-0.05095589862785495,-0.03991755463175907,-0.028964777956291748,-0.018111019682135576,-0.0073697967821861055,0.003245332573567163,0.01372079407967066,0.02404302265886587,0.03419848808996932,0.04417372083183553,0.053955337948085866,0.06353006906511534,0.0728847823205331,0.08200651023076917,0.09088247538185647,0.09950011587523434,0.10784711048659963,0.11591140347290375,0.12368122894116797,0.13114513471798767,0.13829200568400896,0.14511108652094967,0.1515920038011202,0.15772478736873252,0.16349989098080808,0.1689082121592711,0.17394111119075528,0.17859042922864993,0.1828485054694356,0.18670819336249794,0.1901628758004284,0.19320647925336126,0.19583348682794705,0.19803895022311085,0.199818500545554,0.20116835796084273,0.20208534016790866,0.20256686967557544,0.20261097985202378,0.20221631973212545,0.20138215758325356,0.20010838322808416,0.19839550911828124,0.19624467016054853,0.1936576223013428,0.1906367398668251,0.1871850116492521,0.18330603574442783,0.1790040131579831,0.17428374019476478,0.16915059964191337,0.1636105507678,0.15767011817250193,0.15133637952687035,0.1446169522352883,0.13751997906098345,0.13005411275278655,0.12222849970237981,0.11405276265672071,0.10553698252194935,0.0966916793064693,0.08752779224837368,0.07805665916917423,0.068289995104565,0.05823987027309928,0.04791868744395637,0.037339158762472305,0.026514282094063635,0.015457316946021999,0.004181760017506881,-0.007298679576786683,-0.01897010535521233,-0.030818458724762538,-0.04282954437612593,-0.054989055753126403,-0.06728260053278225,-0.07969572605634219,-0.09221394466077483,-0.10482275886523686,-0.11750768636222968,-0.13025428475801681,-0.14304817600970143,-0.15587507051039373,-0.16872079077179403,-0.18157129464943034,-0.19441269805556582,-0.2072312971078285,-0.22001358966465762,-0.23274629619899684,-0.24541637995979,-0.258011066372611,-0.2705178616383008,-0.28292457049263064,-0.295219313085902,-0.30739054094135554,-0.31942705196243815,-0.33131800446480864,-0.34305293019947547,-0.35462174633036636,-0.3660147663502228,-0.37722270994587304,-0.3882367118372133,-0.39904832961576775,-0.40964955060197583,-0.4200327977124957,-0.43019093428382915,-0.440117267784753,-0.4498055523886434,-0.4592499904031443,-0.46844523252580716,-0.4773863768782919,-0.48606896681753997,-0.49448898755247694,-0.5026428615532821,-0.5105274427156139,-0.5181400092994753,-0.5254782557039596,-0.5325402830911822,-0.5393245888404131,-0.5458300548763674,-0.5520559349582074,-0.5580018409515083,-0.5636677280628358,-0.569053879094043,-0.5741608878353394,-0.5789896416546471,-0.5835413032924665,-0.5878172919455547,-0.5918192637746271,-0.5955490918888828,-0.5990088458012433,-0.6022007704364152,-0.605127264846266,-0.607790860711048,-0.6101942006421301,-0.612340016385462,-0.6142311070930337,-0.6158703177482656,-0.6172605177635435,-0.6184045798495617,-0.6193053593255091,-0.6199656739606252,-0.6203882843685262,-0.6205758750500244,-0.6205310362460409,-0.6202562466886955,-0.6197538572706506,-0.6190260757158554,-0.6180749523898335,-0.616902367314536,-0.6155100183864712,-0.6138994108544904,-0.612071848168247,-0.6100284242471896,-0.6077700171594151,-0.605297284245439,-0.6026106587693377,-0.5997103481316165,-0.5965963336257084,-0.5932683717487509,-0.5897259971059067,-0.5859685269010776,-0.5819950669609372,-0.5778045192643982,-0.573395590982461,-0.5687668050097862,-0.5639165119356476,-0.5588429034082019,-0.5535440268571818,-0.5480178015186197,-0.5422620356798658,-0.5362744450659793,-0.5300526723020735,-0.5235943073854012,-0.5168969090882909,-0.509958027200849,-0.5027752255182152,-0.4953461054798203,-0.48766833036424573,-0.47973964992868806,-0.47155792537909175,-0.463121154576048,-0.4544274973888566,-0.4454753010858141,-0.4362631256346243,-0.4267897688111719,-0.41705429103039027,-0.4070560397852177,-0.3967946735609483,-0.3862701851220987,-0.37548292409134204,-0.36443361871261365,-0.3531233966743564,-0.3415538049098455,-0.3297268283212898,-0.31764490734184614,-0.30531095422999766,-0.29272836804035296,-0.2799010482511217,-0.26683340698693836,-0.25353037974102965,-0.2399974345427808,-0.22624057955442925,-0.21226636904647525,-0.19808190767850567,-0.1836948530666949,-0.16911341666169769,-0.15434636291969078,-0.13940300671647526,-0.1242932090048187,-0.10902737075811857,-0.09361642520385477,-0.0780718283184943,-0.06240554760653383,-0.04663004922976499,-0.030758283513318167,-0.014803668822454546,0.0012199261464083074,0.017298201574304374,0.03341644718063809,0.04955956432128908,0.06571208946052495,0.08185821891197995,0.09798183478322112,0.11406653209327175,0.13009564699001644,0.14605228595599343,0.16191935592647927,0.17767959527355942,0.19331560556689092,0.20880988398533246,0.22414485629004133,0.23930291030058548,0.25426642977525415,0.2690178285626863,0.2835395849301716,0.29781427601006527,0.31182461227458846,0.32555347191953476,0.33898393506973695,0.35209931774837616,0.36488320552162307,0.37731948670305154,0.38939238503362167,0.40108649178230565,0.41238679718680543,0.42327872113033865,0.4337481429796261,0.4437814305381213,0.45336546804947425,0.46248768316687955,0.47113607282702313,0.4792992279871658,0.48696635716153663,0.4941273086754148,0.5007725915818866,0.5068933952132739,0.5124816073269711,0.517529830791883,0.5220313987823344,0.5259803884676271,0.5293716331758556,0.5322007329999092,0.5344640638289189,0.536158784801172,0.5372828441606536,0.5378349834893315,0.5378147403061949,0.537222449041927,0.5360592403891523,0.5343270390201774,0.5320285596812175,0.5291673016877001,0.5257475418363795,0.5217743257426373,0.5172534576285456,0.5121914886062467,0.5065957034997189,0.5004741062430821,0.4938354039016429,0.48668898936554,0.47904492275229665,0.47091391154723167,0.4623072895272281,0.453236994530939,0.44371554513638467,0.43375601630194194,0.4233720140347276,0.41257764915378725,0.4013875102015182,0.3898166355487992,0.3778804847545911,0.3655949092550221,0.35297612244982884,0.3400406692467692,0.32680539513614576,0.3132874148777757,0.29950408087405717,0.2854729512947353,0.27121175802863684,0.25673837454679593,0.2420707837537126,0.22722704589540332,0.21222526659878582,0.19708356512009528,0.18182004286729014,0.16645275225183964,0.15099966593453656,0.1354786465406575,0.11990741691520529,0.10430353098117512,0.0886843452655724,0.07306699115946491,0.057468347970161086,0.04190501681550312,0.026393295411610288,0.010949153808620578,-0.004411788874477891,-0.019674286671133686,-0.03482348790237667,-0.04984495518094239,-0.06472468423540091,-0.0794491215082291,-0.09400518049272692,-0.10838025677616824,-0.12256224174392054,-0.13653953489727993,-0.15030105476098657,-0.16383624837185698,-0.17713509932580498,-0.19018813435445872,-0.20298642842996087,-0.2155216084105939,-0.2277858552101977,-0.23977190446022492,-0.25147304567432177,-0.2628831199507636,-0.2739965162087639,-0.2848081659325226,-0.2953135364511286,-0.3055086228221274,-0.31538993834319223,-0.32495450368711426,-0.33419983471429165,-0.3431239290581745,-0.3517252515224865,-0.36000271829063984,-0.3679556800154544,-0.37558390390427343,-0.3828875548447894,-0.389867175568805,-0.3965236659311178,-0.4028582614418042,-0.4088725111168399,-0.4145682546565184,-0.41994759905074264,-0.4250128948039562,-0.42976671193946525,-0.43421181589421987,-0.43835114345402165,-0.44218777889357924,-0.4457249303903132,-0.44896590671700637,-0.45191409429152435,-0.45457293472182775,-0.456945902910773,-0.45903648572312067,-0.4608481612878104,-0.46238437906767144,-0.4636485407554714,-0.46464398199198015,-0.4653739549697253,-0.46584161204900115,-0.4660499904511696,-0.4660019980343641,-0.4657004002102558,-0.46514780810981615,-0.464346668046675,-0.4632992522698569,-0.46200765104221103,-0.46047376612402185,-0.4586993056905552,-0.45668578066130244,-0.4544345024527854,-0.45194658220139394,-0.4492229314600229,-0.44626426432811717,-0.4430711010002092,-0.43964377274770905,-0.4359824283191295,-0.4320870417087844,-0.4279574212571791,-0.42359322006460737,-0.41899394767842374,-0.4141589829880515,-0.40908758826684566,-0.40377892431315154,-0.39823206663564314,-0.3924460226119695,-0.3864197495431899,-0.38015217352627506,-0.3736422090639252,-0.3668887793229586,-0.3598908369437575,-0.3526473853036794,-0.3451575001481469,-0.33742035150486555,-0.32943522578034257,-0.3212015479309527,-0.3127189036194056,-0.3039870612773248,-0.2950059939731083,-0.28577590097183864,-0.2762972288992441,-0.26657069243869774,-0.25659729446600016,-0.24637834551360724,-0.23591548249169178,-0.22521068661785534,-0.21426630047584982,-0.20308504410126482,-0.19167003002911676,-0.18002477726732513,-0.16815322412750341,-0.15605973981929042,-0.14374913475267956,-0.1312266695251034,-0.11849806254013619,-0.10556949618448887,-0.09244762153643639,-0.07913956161512666,-0.06565291314567051,-0.051995746789342434,-0.0381766058355385,-0.024204503390396592,-0.010088918059668512,0.00416021190659407,0.01853249599441079,0.033017100279394994,0.04760275773830984,0.06227778003457725,0.07703007075037226,0.09184713999976644,0.10671612039068393,0.12162378432764073,0.13655656259717477,0.151500564138512,0.16644159694236274,0.18136519005589594,0.19625661663049823,0.211100917912074,0.22588292811054428,0.2405873001162417,0.2551985319889258,0.26970099410940834,0.28407895692096324,0.2983166192198608,0.312398136915568,0.3263076521475588,0.3400293226817478,0.35354735154030037,0.36684601678083395,0.3799097013091962,0.3927229226472351,0.40527036261157545,0.41753689682908735,0.42950762398637976,0.4411678947426363,0.4525033402626921,0.4634999002953182,0.4741438506949074,0.4844218303177329,0.49432086725322255,0.5038284043223559,0.5129323237509559,0.521620970958526,0.5298831774352681,0.5377082826592914,0.5450861549853139,0.5520072114622675,0.5584624365601402,0.5644433997630541,0.5699422719661326,0.5749518406414889,0.5794655237671478,0.5834773824994026,0.5869821325537923,0.5899751542795343,0.5924525014304488,0.5944109086196864,0.5958477974316841,0.5967612811832963,0.597150168341334,0.5970139645863897,0.5963528734997359,0.5951677958726177,0.5934603276613483,0.5912327566055647,0.5884880575176293,0.5852298862642522,0.581462572472025,0.5771911109753232,0.5724211520151941,0.567158990213853,0.5614115523645202,0.5551863840674944,0.5484916352350362,0.541336044501219,0.5337289225845345,0.5256801346405977,0.5172000816339475,0.5082996807717822,0.4989903450542556,0.4892839619855673,0.4791928714816979,0.4687298430252018,0.45790805213313623,0.4467410562002345,0.43524276977270615,0.4234274393143458,0.411309617528419,0.39890413728325913,0.38622608518008694,0.37329077481579687,0.36011371980802276,0.3467106066440909,0.3330972674078515,0.3192896524461804,0.3053038030432123,0.291155824160337,0.2768618572914248,0.2624380534905505,0.24790054663636651,0.23326542698837593,0.2185487150819515,0.20376633601475735,0.18893409418035756,0.17406764849207434,0.15918248813065727,0.14429390885800789,0.12941698994677678,0.11456657176590614,0.09975723405304239,0.08500327491277423,0.07031869059064474,0.0557171560712447,0.041212006541933556,0.026816219761566656,0.012542399370510339,-0.0015972408310550464,-0.015590891617100868,-0.02942716206215771,-0.043095092239819194,-0.0565841648791765,-0.0698843159712951,-0.08298594431669593,-0.09587991999820367,-0.10855759175794266,-0.1210107932594186,-0.13323184822558246,-0.14521357444927954,-0.15694928666747568,-0.1684327982905404,-0.17965842199066642,-0.19062096915590157,-0.20131574819648115,-0.2117385616833767,-0.2218857023265235,-0.23175394781901937,-0.24134055455378078,-0.25064325020813083,-0.2596602252226377,-0.2683901232158297,-0.2768320303379828,-0.28498546354692095,-0.29285035783624624,-0.3004270524789874,-0.30771627630708975,-0.31471913201991253,-0.321437079570342,-0.3278719187154337,-0.33402577076480905,-0.339901059524033,-0.3455004914942284,-0.3508270354324055,-0.3558839013088429,-0.3606745186518004,-0.3652025143480874,-0.3694716900296788,-0.3734859991097898,-0.3772495234796415,-0.3807664499539237,-0.3840410466089258,-0.38707763907459236,-0.38988058678025383,-0.3924542592404105,-0.3948030125377166,-0.3969311660814045,-0.39884297965380794,-0.400542630840114,-0.40203419300339316,-0.4033216138831487,-0.40440869482568453,-0.4052990707362456,-0.40599619091566863,-0.4065033008704342,-0.4068234251160807,-0.406959351060848,-0.40691361411187077,-0.40668848406535507,-0.4062859527721787,-0.40570772313357994,-0.4049551995287264,-0.4040294796857402,-0.40293134793589247,-0.4016612698677676,-0.4002193884788606,-0.3986055218731127,-0.39681916249287197,-0.3948594779170363,-0.3927253133009954,-0.3904151954814972,-0.3879273387147895,-0.38525965204693796,-0.3824097483480368,-0.3793749549990308,-0.3761523261739507,-0.3727386566810353,-0.36913049735116504,-0.3653241719305906,-0.36131579539898845,-0.3571012936454709,-0.3526764244529745,-0.3480367997221829,-0.34317790884068894,-0.33809514310556865,-0.33278382111611793,-0.3272392150427049,-0.32145657766179225,-0.3154311700459382,-0.30915828980758236,-0.30263329980382897,-0.29585165720562173,-0.2888089428194688,-0.2815008905430264,-0.2739234168469763,-0.26607265017995296,-0.25794496017655133,-0.24953698654414969,-0.24084566753213044,-0.23186826790206894,-0.22260240629013064,-0.21304608183589105,-0.2031976999829346,-0.19305609737868915,-0.18262056577129793,-0.1718908747826312,-0.16086729347605488,-0.14955061066681408,-0.1379421538895925,-0.12604380691552305,-0.11385802575643107,-0.10138785312907135,-0.08863693131546803,-0.07560951332974737,-0.06231047235203153,-0.04874530942950562,-0.034920159404567365,-0.020841794998560103,-0.0065176290291451095,0.008044285218843246,0.022835255487540652,0.03784595395084076,0.05306642251843429,0.06848607998263712,0.08409373099574083,0.09987757690129326,0.1158252283894998,0.13192371990174925,0.14815952575245056,0.16451857797065056,0.18098628580902115,0.19754755682211805,0.21418681946101698,0.23088804717033046,0.2476347839240855,0.26441017109310944,0.2811969755778193,0.2979776191726923,0.31473420907470995,0.3314485694042796,0.3481022736532103,0.36467667801445197,0.38115295550168155,0.3975121307259189,0.4137351152400428,0.4298027434003766,0.4456958086506342,0.46139510009506646,0.4768814392694589,0.4921357170555558,0.5071389306437435,0.5218722204131636,0.5363169066384768,0.5504545259674722,0.5642668675749614,0.5777360088652685,0.5908443506352723,0.6035746516440954,0.6159100624983547,0.6278341587309397,0.6393309729924199,0.6503850263124396,0.6609813583588531,0.6711055565949982,0.6807437842714308,0.6898828072196699,0.6985100193842098,0.7066134670031634,0.7141818713846377,0.7212046502586382,0.7276719376563561,0.7335746022449285,0.7389042640819173,0.7436533097879899,0.7478149061143381,0.7513830118604331,0.7543523881285861,0.75671860693084,0.7584780581434956,0.7596279547856701,0.7601663366248044,0.7600920721346909,0.7594048588087845,0.7581052218132682,0.7561945109924414,0.7536748962643446,0.7505493614252855,0.7468216963651652,0.7424964877216965,0.7375791080252695,0.7320757033681865,0.7259931796161171,0.7193391872032019,0.7121221045715734,0.704351020295057,0.6960357139104801,0.6871866355053925,0.677814884133135,0.667932185107409,0.6575508662125095,0.646683832890023,0.6353445424875405,0.6235469776428183,0.6113056188626537,0.5986354163708437,0.5855517613093583,0.5720704563535909,0.5582076857859896,0.54397998509393,0.529404210177628,0.5144975062383128,0.4992772764017481,0.48376115014892346,0.4679669516394372,0.45191266799423785,0.4356164175884892,0.4190964184227161,0.40237095665793093,0.3854583553880235,0.36837694370851687,0.3511450261505147,0.3337808525549071,0.3163025884420987,0.2987282859170268,0.281075855162564,0.26336303658641874,0.245607373671637,0.22782618656650558,0.21003654646065623,0.19225525080485434,0.1744987994191584,0.15678337152090854,0.13912480371070324,0.1215385689582037,0.1040397566117216,N
