0,-0.13577120686975147,-0.1388917767965578,-0.14196228524823545,-0.1449855383168001,-0.14796431152265704,-0.15090134338303812,-0.15379932932438906,-0.156660916039491,-0.15948869641087932,-0.16228520505371238,-0.16505291442516293,-0.167794231375218,-0.17051149400343393,-0.1732069687358293,-0.17588284762596773,-0.17854124597376475,-0.181184200381038,-0.18381366730414775,-0.18643152209915784,-0.18903955854804258,-0.19163948886342733,-0.19423294413960301,-0.19682147516048287,-0.199406553428773,-0.20198957227639336,-0.20457184796342756,-0.20715462074605565,-0.2097390559551068,-0.2123262451446493,-0.2149172073392223,-0.21751289036595003,-0.2201141722389264,-0.22272186256426776,-0.22533670394347982,-0.2279593733763755,-0.23059048369993762,-0.23323058511261185,-0.23588016680078885,-0.23853965862555018,-0.24120943277952603,-0.2438898053161054,-0.24658103749517302,-0.24928333695653337,-0.25199685878786793,-0.2547217065683446,-0.25745793344347917,-0.2602055432755918,-0.26296449194605315,-0.26573468889988944,-0.2685159989756682,-0.2713082445128993,-0.27411120772950154,-0.27692463337212575,-0.27974823161631174,-0.2825816811558168,-0.28542463240606913,-0.2882767107519268,-0.29113751977519614,-0.29400664438641927,-0.29688365376123865,-0.29976810397935333,-0.3026595403044871,-0.30555749909480395,-0.30846150935981725,-0.3113710939857563,-0.31428577065619917,-0.3172050525148879,-0.320128448650099,-0.3230554644896468,-0.32598560216180344,-0.32891836083227627,-0.3318532370059472,-0.3347897247806881,-0.3377273160437017,-0.34066550060364137,-0.34360376625425076,-0.3465415987674682,-0.3494784818118108,-0.3524138967739831,-0.3553473224309946,-0.3582782344117558,-0.3612061044259904,-0.3641303993036619,-0.36705057994202134,-0.36996610026839244,-0.37287640628566704,-0.37578093519975403,-0.37867911457189746,-0.3815703614252965,-0.38445408127816466,-0.3873296671601189,-0.3901964987547037,-0.39305394183136716,-0.39590134805528526,-0.39873805515078636,-0.40156338731677227,-0.40437665577823617,-0.40717715940048643,-0.40996418536155227,-0.41273700993552337,-0.4154948994538267,-0.41823711147340376,-0.42096289611600496,-0.4236714974893416,-0.4263621550900815,-0.42903410512993084,-0.43168658179373737,-0.4343188184947337,-0.4369300492052656,-0.4395195099023594,-0.44208644010184556,-0.4446300844004562,-0.4471496939337933,-0.4496445276986127,-0.4521138537549036,-0.45455695037881866,-0.4569731072501743,-0.4593616267187321,-0.46172182512736465,-0.46405303411547,-0.46635460181408045,-0.4686258938802325,-0.4708662943653243,-0.47307520643534867,-0.47525205296374046,-0.4773962770115953,-0.4795073421886535,-0.4815847328546254,-0.4836279541092818,-0.485636531548106,-0.48761001078513294,-0.48954795673362256,-0.4914499526257821,-0.49331559877622416,-0.49514451111286656,-0.496936319482892,-0.4986906657288129,-0.5004072015400332,-0.5020855860453759,-0.503725482998497,-0.5053265573650845,-0.5068884712386778,-0.5084108791443124,-0.5098934228016602,-0.5113357253968082,-0.5127373854457641,-0.5140979703440965,-0.5154170096244551,-0.5166939878997246,-0.5179283375355347,-0.519119431151244,-0.5202665739968168,-0.5213689962090508,-0.5224258450140835,-0.5234361770101315,-0.5243989506372342,-0.5253130189018667,-0.5261771224458331,-0.5269898830343496,-0.5277497974275871,-0.5284552315396094,-0.5291044148801998,-0.5296954353669108,-0.5302262345567375,-0.5306946032989086,-0.5310981778640651,-0.5314344366495221,-0.5317006974987823,-0.5318941156207762,-0.5320116821500352,-0.5320502234492784,-0.5320064012228362,-0.5318767134654098,-0.5316574962999858,-0.5313449267985428,-0.5309350268607222,-0.5304236681913543,-0.5298065784120062,-0.5290793483198365,-0.5282374402395332,-0.5272761973732686,-0.526190854095476,-0.5249765472056299,-0.5236283281743287,-0.5221411764028759,-0.5205100134864119,-0.518729718411994,-0.5167951435415806,-0.5147011311957305,-0.5124425307083748,-0.5100142159018609,-0.507411102964385,-0.5046281687061592,-0.5016604691490306,-0.4985031583535538,-0.49515150731344854,-0.49160092272006756,-0.48784696546035994,-0.4838853687964733,-0.47971205621339413,-0.47532315892013394,-0.4707150329768402,-0.46588427599306265,-0.46082774330406023,-0.4555425635175037,-0.4500261533569457,-0.4442762317901808,-0.4382908334820535,-0.43206832162085723,-0.4256074001258328,-0.41890712517592116,-0.41196691594472595,-0.40478656441498045,-0.39736624418282923,-0.38970651821085706,-0.3818083455139257,-0.373673086767133,-0.3653025088260738,-0.35669878815087747,-0.34786451312717565,-0.3388026852791491,-0.32951671938020033,-0.32001044250840105,-0.31028809216077413,-0.30035431356240794,-0.29021415624586167,-0.2798730699089639,-0.269336899552057,-0.2586118799064926,-0.24770462914288116,-0.2366221418126072,-0.22537178096447763,-0.21396126938639537,-0.20239867993800198,-0.1906924249703893,-0.17885124487045212,-0.16688419578659242,-0.15480063656941045,-0.14261021492653803,-0.13032285277847566,-0.11794873080869027,-0.10549827221566525,-0.09298212570432667,-0.08041114779627566,-0.06779638455597896,-0.05514905280190962,-0.04248052083108555,-0.02980228866905462,-0.01712596786132175,-0.004463260834409635,0.008174060118427067,0.020774174133243256,0.03332523324438251,0.04581538395047308,0.058232788861804226,0.07056564846311299,0.08280222303337627,0.09493085472034805,0.10693998969784639,0.11881820027610372,0.13055420682125587,0.14213689936649168,0.15355535880509633,0.16479887751525582,0.17585697925047786,0.18671943818569997,0.19737629705618848,0.2078178843014959,0.2180348301089174,0.22801808131283424,0.2377589151919683,0.24724895224429927,0.256480168016671,0.26544490404665205,0.2741358779255448,0.2825461924192197,0.29066934355640855,0.29849922764875997,0.3060301472689347,0.31325681621654194,0.32017436348906175,0.3267783362890673,0.33306470209456784,0.3390298497668758,0.34467058964392017,0.349984152623374,0.3549681883198885,0.35962076241398266,0.3639403533040033,0.3679258481499423,0.37157653834559595,0.3748921143793617,0.37787266001405423,0.38051864576988165,0.38283092175639316,0.3848107099015671,0.3864595956116696,0.3877795189158419,0.3887727651821313,0.3894419555017396,0.38979003682923746,0.3898202719511381,0.3895362293307272,0.38894177284528264,0.3880410514161394,0.3868384885386215,0.38533877170475755,0.38354684165898884,0.3814678814040146,0.379107304933444,0.3764707457634645,0.373564045398845,0.37039324187391365,0.3669645584630012,0.36328439258529394,0.3593593048708212,0.35519600833618553,0.3508013576416329,0.3461823384207039,0.3413460566605211,0.33629972810027264,0.3310506676371559,0.325606278747443,0.3199740429159393,0.31416150905544865,0.3081762829258812,0.30202601661578665,0.2957183981925309,0.2892611416321633,0.2826619770977164,0.27592864156862046,0.26906886976887595,0.26209038532638146,0.2550008921251133,0.24780806585173504,0.24051954575653062,0.23314292664864295,0.2256857511379543,0.21815550211452994,0.2105595954240157,0.20290537268589393,0.19520009423006512,0.187450932166356,0.17966496361910744,0.17184916415831353,0.1640104014578055,0.15615542922462106,0.1482908814692558,0.14042326719173853,0.13255896552062885,0.12470422128005433,0.1168651409085676,0.10904768864171578,0.10125768289865592,0.09350079283702903,0.0857825350302944,0.07810827021484665,0.07048320008106447,0.06291236410663949,0.05540063642106969,0.047952722681316014,0.04057315696334913,0.03326629870920101,0.026036329783497604,0.0188872516904812,0.011822882991917676,0.004846856941317031,-0.00203738068664578,-0.0088265736071025,-0.015517656884496921,-0.0221077586101955,-0.02859420135169057,-0.034974503329783885,-0.04124637929070659,-0.04740774106371803,-0.05345669782879755,-0.059391556132891925,-0.06521081967255818,-0.07091318884483713,-0.0764975600846873,-0.08196302501944783,-0.08730886944122751,-0.0925345720424326,-0.09763980281426116,-0.10262442100307484,-0.10748847256775071,-0.11223218716841046,-0.11685597480428803,-0.12136042224362312,-0.12574628932363394,-0.13001450509829246,-0.13416616374420806,-0.13820252012574372,-0.14212498496318374,-0.14593511961425024,-0.14963463053475692,-0.15322536349989727,-0.15670929763883604,-0.16008853929585645,-0.1633653157134525,-0.16654196853309958,-0.16962094711748518,-0.17260480171976697,-0.1754961765582874,-0.1782978028669477,-0.18101249196684024,-0.18364312838371102,-0.1861926630478377,-0.1886641066224153,-0.19106052297657747,-0.19338502276427147,-0.1956407570251892,-0.1978309107176834,-0.19995869613088876,-0.20202734617022508,-0.20404010753499688,-0.20600023381232166,-0.20791097851610899,-0.20977558811824595,-0.21159729514885786,-0.21337931145133074,-0.21512482165058003,-0.21683697687025152,-0.21851888874547867,-0.2201736237854807,-0.22180419810666166,-0.22341357249734653,-0.22500464772627862,-0.22658025999865974,N,,,,,,,,,,,,,,,,,,,,,,,,,,,,,,,,,,,,,,,,,,,,,,,,,,,,,,,,,,,,,,,,,,,,,,,,,,,,,,,,,,,,,,,,,,,,,,,,,,,,,,,,,,,,,,,,,,,,,,,,,,,,,,,,,,,,,,,,,,,,,,,,,,,,,,,,,,,,,,,,,,,,,,,,,,,,,,,,,,,,,,,,,,,,,,,,,,,,,,,,,,,,,,,,,,,,,,,,,,,,,,,,,,,,,,,,,,,,,,,,,,,,,,,,,,,,,,,,,,,,,,,,,,,,,,,,,,,,,,,,,,,,,,,,,,,,,,,,,,,,,,,,,,,,,,,,,,,,,,,,,,,,,,,,,,,,,,,,,,,,,,,,,,,,,,,,,,,,,,,,,,,,,,,,,,,,,,,,,,,,,,,,,,,,,,,,,,,,,,,,,,,,,,,,,,,,,,,,,,,,,,,,,,,,,,,,,,,,,,,,,,,,,,,,,,,,,,,,,,,,,,,,,,,,,,,,,,,,,,,,,,,,,,,,,,,,,,,,,,,,,,,,,,,,,,,,,,,,,,,,,,,,,,,,,,,,,,,,,,,,,,,,,,,,,,,,,,,,,,,,,,,,,,,,,,,
1,-0.3075316550694724,-0.30768351380775044,-0.3078053608949067,-0.30790119492284956,-0.3079749757012821,-0.30803062025863,-0.30807199888071407,-0.30810293116497883,-0.30812718209306894,-0.3081484581609611,-0.3081704036200755,-0.3081965968510642,-0.3082305468341728,-0.3082756896326084,-0.30833538479840045,-0.30841291165272283,-0.3085114654600865,-0.30863415357185536,-0.3087839916290798,-0.3089638998827127,-0.3091766996463586,-0.3094251098764152,-0.30971174387329264,-0.3100391061004744,-0.3104095891208665,-0.3108254706521892,-0.3112889107451274,-0.3118019490857095,-0.3123665024059969,-0.3129843619574692,-0.31365719099316375,-0.3143865222375852,-0.3151737553668756,-0.3160201545421583,-0.3169268460398848,-0.3178948160193266,-0.31892490846374794,-0.3200178233282726,-0.32117411492403386,-0.32239419056875535,-0.3236783095494185,-0.3250265824703212,-0.32643897106596614,-0.32791528851483576,-0.32945520020513896,-0.3310582248164997,-0.33272373555901713,-0.33445096148403025,-0.33623898889224074,-0.3380867629414603,-0.33999308956893,-0.3419566378013614,-0.3439759424727897,-0.34604940734250217,-0.34817530859886897,-0.3503517987294371,-0.35257691071616004,-0.35484856248017116,-0.3571645614896599,-0.35952260948301723,-0.361920307325918,-0.36435516007585583,-0.3668245823380695,-0.36932590395736126,-0.3718563760395383,-0.374413177270612,-0.37699342049761014,-0.3795941595314827,-0.38221239611311275,-0.3848450869509328,-0.38748915072967205,-0.3901414750259502,-0.3927989231143105,-0.3954583406703518,-0.39811656237969273,-0.4007704184587697,-0.40341674109099723,-0.4060523707796,-0.4086741626164405,-0.41127899246863836,-0.4138637631035937,-0.41642541030512875,-0.41896090904224986,-0.42146727970775777,-0.4239415943571939,-0.4263809827917494,-0.4287826383081922,-0.43114382301380183,-0.43346187271635084,-0.4357342014754455,-0.43795830591572904,-0.4401317693699626,-0.44225226589327143,-0.4443175641993912,-0.44632553157544724,-0.44827413779288405,-0.45016145896552273,-0.4519856812508938,-0.4537451042807319,-0.4554381442504873,-0.4570633366692604,-0.4586193388311603,-0.4601049320839616,-0.4615190239314273,-0.4628606499384158,-0.46412897535245246,-0.46532329634456526,-0.4664430408112963,-0.46748776873036557,-0.4684571720879773,-0.46935107440005575,-0.4701694298489685,-0.4709123220566178,-0.4715799625141479,-0.4721726886879296,-0.4726909618209343,-0.47313536444809334,-0.4735065976437569,-0.4738054780189087,-0.4740329344774118,-0.474190004701872,-0.4742778312764374,-0.47429765733478224,-0.4742508216793606,-0.4741387533674519,-0.47396296573765895,-0.47372504983334673,-0.4734266672299751,-0.47306954231514714,-0.47265545404067616,-0.47218622714248676,-0.47166372287051883,-0.47108982930940557,-0.47046645133727416,-0.4697955002421347,-0.46907888304946854,-0.46831849161101524,-0.4675161914048338,-0.4666738099468126,-0.46579312481104523,-0.46487585133815973,-0.4639236300495995,-0.46293801373551263,-0.4619204542757518,-0.46087228934526747,-0.45979472911687136,-0.4586888430257883,-0.45755554671326043,-0.4563955893097316,-0.45520954115522044,-0.4539977820002086,-0.4527604897763895,-0.45149763004668153,-0.45020894614591156,-0.44889394995875276,-0.44755191337077405,-0.44618186053521136,-0.44478256108771863,-0.44335252439723816,-0.44188999495388964,-0.44039294898703835,-0.4388590923183257,-0.4372858593963768,-0.4356704135156856,-0.4340096482833128,-0.43230019036552114,-0.4305384035032803,-0.4287203938139589,-0.42684201643505426,-0.42489888354716354,-0.4228863737798675,-0.42079964299528233,-0.4186336364028958,-0.4163831018595106,-0.4140426041585566,-0.4116065401913485,-0.40906915497739155,-0.40642455860628385,-0.4036667441210087,-0.400789606347912,-0.39778696165688837,-0.39465256861609227,-0.3913801494886871,-0.3879634125007078,-0.3843960747779382,-0.38067188580845673,-0.37678465126971034,-0.3727282570882858,-0.36849669365700205,-0.36408408018103927,-0.359484689132295,-0.3546929707500088,-0.34970357746033137,-0.34451138803420583,-0.3391115312917145,-0.3334994091927707,-0.3276707191817187,-0.32162147564631,-0.31534803034822384,-0.30884709172630914,-0.30211574305990047,-0.2951514595670544,-0.28795212453617985,-0.2805160445241182,-0.27284196356699547,-0.26492907631067025,-0.2567770399680794,-0.24838598502075554,-0.2397565245916587,-0.23088976242618614,-0.2217872994277797,-0.21245123870812366,-0.20288418914140727,-0.19308926745443444,-0.1830700989028915,-0.17283081656107754,-0.16237605923226558,-0.1517109680032764,-0.1408411814823097,-0.12977282974156157,-0.11851252697279568,-0.1070673628854879,-0.0954448928947883,-0.08365312712875718,-0.07170051827002884,-0.059595948268370856,-0.04734871397875597,-0.03496851176216398,-0.022465421071610092,-0.009849887066122708,0.002867297686739675,0.015675012370845665,0.028561827886727495,0.04151602750923393,0.05452562809680345,0.06757840176859223,0.08066189804671817,0.0937634664943118,0.10687027987335193,0.11996935782312959,0.13304759100814847,0.1460917656089972,0.15908858799993966,0.17202470950919502,0.1848867512177067,0.19766132875387477,0.2103350770275062,0.22289467486724945,0.23532686955937698,0.24761850129684426,0.25975652753969214,0.271728047268585,0.283520325065014,0.29512081488009834,0.3065171833276985,0.31769733238917713,0.3286494214607589,0.3393618886472118,0.3498234711848804,0.3600232249307637,0.36995054291613777,0.3795951729659414,0.38894723437117545,0.3979972336186016,0.4067360791961906,0.4151550954718465,0.4232460356256561,0.43100109363053063,0.43841291527290993,0.44547460815479534,0.4521797505931371,0.45852239938864203,0.46449709651525684,0.47009887481522306,0.47532326277980097,0.48016628847475396,0.48462448261908886,0.4886948807511198,0.49237502438782155,0.49566296113905345,0.4985572438017866,0.5010569284637318,0.5031615716331443,0.5048712264257146,0.5061864378350281,0.5071082370608319,0.507638134843109,0.5077781138067347,0.5075306199017823,0.5068985530582285,0.505885257168125,0.5044945094863287,0.5027305094898937,0.5005978671618816,0.4981015906363335,0.4952470732021224,0.4920400797627787,0.4884867329155472,0.4845934988178929,0.48036717295490416,0.4758148658252981,0.4709439884678328,0.46576223772037806,0.46027758116659334,0.4544982418109147,0.4484326825612255,0.4420895905974731,0.4354778616905557,0.4286065845073146,0.421485024897285,0.4141226101400488,0.40652891315540984,0.3987136366990319,0.3906865975513608,0.3824577106948771,0.3740369735032658,0.36543445002093344,0.35666025545601654,0.34772454101441497,0.3386374791575112,0.3294092492965607,0.32005002387860004,0.31056995480220617,0.300979160133538,0.2912877111440183,0.281505619725687,0.2716428262446057,0.26170918786731123,0.25171446734995206,0.24166832223468873,0.2315802943849923,0.2214597998305039,0.21131611897177538,0.201158387276279,0.1909955866157359,0.18083653732614813,0.1706898909821587,0.1605641238336467,0.15046753084772224,0.14040822030371858,0.13039410889302894,0.1204329172797005,0.11053216608157522,0.10069917222767691,0.09094104561358426,0.08126468591830668,0.071676779431018,0.06218379581147159,0.05279198483434266,0.04350737327235132,0.034335762095537396,0.02528272409058658,0.01635360189461902,0.007553506362299005,-0.001112684829887703,-0.009640328402708676,-0.018025016530992345,-0.026262577729478757,-0.034349077555494385,-0.04228081912123719,-0.05005434342827456,-0.05766642956868135,-0.06511409484741912,-0.0723945948529088,-0.0795054234785447,-0.08644431290803836,-0.0932092335862488,-0.09979839417063266,-0.10621024142142024,-0.11244345997322006,-0.11849697193361666,-0.12436993626511318,-0.13006174793197292,-0.13557203683034894,-0.14090066653491032,-0.14604773286421227,-0.15101356221016707,-0.15579870953055655,-0.16040395589773696,-0.16483030554043246,-0.16907898238430255,-0.17315142615443616,-0.17704928811895262,-0.18077442652621464,-0.1843289017647358,-0.1877149712856052,-0.19093508433644676,-0.19399187652594987,-0.19688816418317448,-0.19962693843096516,-0.20221135888675348,-0.20464474694531395,-0.2069305786632398,-0.20907247731924225,-0.21107420573904664,-0.21293965844778634,-0.21467285369127304,-0.2162779253796832,-0.21775911501602635,-0.21912076363924135,-0.22036730375328936,-0.22150325116557965,-0.22253319665063984,-0.2234617973970388,-0.22429376826270137,-0.22503387291955895,-0.22568691498284826,-0.22625772918831816,-0.22675117263762218,-0.22717211611185367,-0.22752543545201714,-0.22781600301206906,-0.2280486792108254,-0.22822830424086193,-0.22835969000334755,-0.22844761230482497,-0.22849680329428362,-0.2285119440712769,-0.22849765738716937,-0.2284585004003863,-0.22839895750935058,-0.2283234333388553,-0.2282362459681273,-0.22814162045702346,-0.2280436826846075,-0.22794645349391707,-0.22785384313469126,-0.22776964600167954,-0.2276975356859165,-0.22764106038735948,-0.22760363874736983,-0.22758855612594053,-0.2275989612903293,-0.227637863433664,-0.22770812943299368,-0.2278124812909672,-0.22795349374992746,-0.2281335920896148,-0.22835505012326696,-0.22861998840966774,-0.2289303727155953,-0.22928801279147776,-0.22969456153069528,-0.23015151455085253,-0.23066021019294286,-0.23122182991376822,-0.2318373990449027,-0.2325077878899422,-0.23323371311583196,-0.23401573936640085,-0.23485428101907302,-0.2357496040381155,-0.2367018279202724,-0.23771092774912406,-0.23877673637637664,-0.23989894674950202,-0.2410771144206631,-0.24231066029899345,-0.24359887371485972,-0.24494091582796607,-0.246335823350043,-0.24778251250219951,-0.24927978311563814,-0.2508263228208451,-0.25242071133112604,-0.2540614248766712,-0.25574684085637783,-0.2574752427455392,-0.2592448252731095,-0.26105369989188026,-0.26289990057153206,-0.26478138991012207,-0.26669606549950803,-0.26864176643087906,-0.2706162798181137,-0.2726173472580116,-0.27464267121304725,-0.27668992135779696,-0.2787567409444727,-0.280840753211058,-0.28293956781285884,-0.28505078723843874,-0.2871720131703815,-0.2893008527513447,-0.2914349247008074,-0.2935718652005969,-0.2957093334613731,-0.2978450169176518,-0.2999766360448896,-0.302101948815052,-0.3042187548104724,-0.30632489901847776,-0.30841827534682503,-0.3104968299296654,-0.3125585643018583,-0.3146015384861088,-0.3166238739933787,-0.3186237567159152,-0.32059943969051746,-0.3225492457085521,-0.32447156973309993,-0.32636488105528877,-0.32822772511500004,-0.3300587249456421,-0.33185658224776543,-0.3336200781183853,-0.3353480734655027,-0.337039509135367,-0.3386934057781776,-0.3403088634761768,-0.3418850611564334,-0.3434212558090581,-0.34491678153011857,-0.3463710484071367,-0.3477835412637404,-0.34915381827881625,-0.3504815094943538,-0.3517663152250898,-0.35300800438204377,-0.35420641272108905,-0.35536144102681105,-0.3564730532410791,-0.35754127454498236,-0.3585661893983416,-0.3595479395224215,-0.3604867217814147,-0.3613827859089447,-0.3622364320599862,-0.36304800822725286,-0.3638179076094385,-0.36454656602789653,-0.36523445945361094,-0.3658821016615638,-0.3664900420069543,-0.3670588633137856,-0.3675891798631481,-0.36808163545112804,-0.3685369014573536,-0.36895567485693737,-0.36933867614002724,-0.3696866471448772,-0.3700003488301691,-0.37028055901363666,-0.37052807010108935,-0.37074368682718295,-0.3709282240267189,-0.3710825044528743,-0.371207356656553,-0.37130361293899994,-0.3713721073879299,-0.3714136740056764,-0.3714291449325407,-0.37141934874913535,-0.3713851088107352,-0.37132724155667823,-0.37124655476381546,-0.3711438457344928,-0.3710198993972333,-0.37087548628919514,-0.37071136040641295,-0.37052825689254454,-0.370326889463924,-0.3701079474397224,-0.36987209232987983,-0.3696199540342008,-0.3693521267285639,-0.3690691645024763,-0.3687715768181211,-0.36845982383548403,-0.368134311565648,-0.3677953867764422,-0.36744333164278953,-0.36707835819134604,-0.36670060254564996,-0.3663101189422785,-0.36590687355020446,-0.36549073817614186,-0.3650614838885615,-0.3646187745519529,-0.364162160317872,-0.3636910711504691,-0.3632048103830144,-0.3627025482490061,-0.36218331541617216,-0.3616459966362519,-0.36108932458610704,-0.36051187392950496,-0.35991205567883705,-0.3592881119771098,-0.35863811136152995,-0.357959944519244,-0.3572513205937932,-0.35650976413970187,-0.3557326127625268,-0.3549170154308367,-0.3540599314946496,-0.353158130483233,-0.3522081926941734,-0.35120651053489144,-0.350149290639348,-0.34903255687899143,-0.34785215441859024,-0.3466037549447399,-0.345282863150054,-0.34388482447111907,-0.3424048339611963,-0.3408379461273004,-0.33917908563346094,-0.33742305887784113,-0.3355645664929719,-0.3335982168057861,-0.3315185402706347,-0.32932000486750895,-0.32699703243913053,-0.3245440159242508,-0.3219553374264046,-0.3192253870263928,-0.31634858220560624,-0.3133193877294791,-0.3101323358656536,-0.30678204684893906,-0.3032632495211689,-0.2995708020720107,-0.295699712801458,-0.29164516082069736,-0.2874025166051992,-0.2829673623121316,-0.2783355117697251,-0.2735030300284634,-0.26846625233553284,-0.26322180238695597,-0.25776660975281956,-0.25209792645189105,-0.24621334273501955,-0.24011080215948805,-0.23378861597417228,-0.22724547675262624,-0.22048047117369146,-0.2134930918499645,-0.20628324811427273,-0.19885127568401378,-0.1911979451327755,-0.18332446910804118,-0.1752325082466966,-0.16692417576693389,-0.15840204075329814,-0.14966913016881703,-0.14072892960907588,-0.1315853827976546,-0.12224288983995708,-0.11270630426756097,-0.10298092888840576,-0.09307251044534676,-0.0829872331061558,-0.07273171082491664,-0.062312978597535096,-0.05173848261956965,-0.041016069373700836,-0.030153973691194796,-0.019160805812779125,-0.00804553744423797,0.00318251320710214,0.014513697420324267,0.025938052962826984,0.037445322066060695,0.04902497029427038,0.06066620620728388,0.0723580017387773,0.08408911322859261,0.09584810303076155,0.10762336160505162,0.11940313001622904,0.13117552276424416,0.1429285508220477,0.15465014473507788,0.1663281776876651,0.17795048850059064,0.18950490452773544,0.20097926440720543,0.21236144063790596,0.22363936196542145,0.23480103554173082,0.24583456880726084,0.25672819105664196,0.26747027464481526,0.2780493557411408,0.2884541545150386,0.29867359468683385,0.3086968224355636,0.3185132246584442,0.3281124465635167,0.3374844085879964,0.3466193226277718,0.3555077075117296,0.36414040362874917,0.37250858666553777,0.3806037804723146,0.3884178690761302,0.39594310784749975,0.4031721338361535,0.41009797528445574,0.4167140602756962,0.42301422444815734,0.4289927177539683,0.43464421029794886,0.43996379729281676,0.4449470031522904,0.44958978475323413,0.45388853389024825,0.45784007889427353,0.4614416853600131,0.46469105597834054,0.4675863295435165,0.4701260792351853,0.472309310268576,0.47413545698452925,0.47560437940155603,0.47671635918048455,0.4774720949241548,0.4778726967889115,0.47791968046100525,0.4776149605836543,0.4769608437162733,0.4759600208876785,0.47461555975758085,0.47293089633077623,0.4709098261419272,0.46855649488081536,0.46587538848765536,0.46287132275239656,0.4595494324399278,0.45591515998283855,0.45197424381449597,0.4477327064254805,0.4431968422191774,0.4383732052280018,0.43326859672426754,0.427890052721698,0.42224483134716917,0.4163404000825236,0.41018442289275303,0.4037847472401287,0.3971493909709397,0.3902865290903579,0.38320448049615163,0.3759116947870822,0.36841673926664176,0.3607282862183846,0.3528551004599193,0.34480602712500763,0.3365899796072366,0.32821592762546214,0.3196928853942065,0.311029899870612,0.3022360390405674,0.29332038023496554,0.28429199850658726,0.2751599551152033,0.2659332861666379,0.2566209914455997,0.2472320234766894,0.23777527684310987,0.22825957778818376,0.2186936741170867,0.20908622539470642,0.19944579340290156,0.1897808328088245,0.1800996820243884,0.17041055427592564,0.1607215289204522,0.15104054304407097,0.1413753833731319,0.1317336785242653,0.12212289161528764,0.11255031325522266,0.10302305493197664,0.09354804283101284,0.08413201214497742,0.07478150194042119,0.06550285061448988,0.056302191931153954,0.04718545160532047,0.03815834440063092,0.029226371704922174,0.02039481953125735,0.011668756864797453,0.0030530342687757014,-0.005447717308409634,-0.013829087558858326,-0.02208688771731614,-0.030217151390327494,-0.03821613532861771,-0.0460803200989228,-0.05380641056216163,-0.061391336056353586,-0.06883225022392926,-0.0761265304895611,-0.08327177724998759,-0.09026581285139314,-0.09710668039774618,-0.10379264239056375,-0.11032217918044886,-0.1166939872099191,-0.12290697703434812,-0.12896027112908634,-0.13485320152334343,-0.14058530731301808,-0.14615633207261094,-0.15156622112964227,-0.15681511861843125,-0.16190336422251775,-0.16683148955493807,-0.17160021418957214,-0.17621044141007178,-0.18066325375664924,-0.1849599084204769,-0.18910183249456078,-0.19309061807082603,-0.19692801717243344,-0.2006159365176839,-0.2041564321337585,-0.20755170387219296,-0.2108040898897489,-0.21391606112445324,-0.2168902157368797,-0.21972927343764367,-0.22243606961372328,-0.22501354920751432,-0.22746476036897728,-0.22979284795647176,-0.23200104697578544,-0.23409267601817763,-0.23607113073292707,-0.23793987737880973,-0.23970244650642014,-0.24136242679470818,-0.24292345902341647,-0.2443892301408955,-0.24576346738654928,-0.24704993243426807,-0.2482524155168737,-0.24937472946883107,-0.2504207036195565,-0.2513941775089786,-0.2522989944615713,-0.2531389951085144,-0.25391801095982786,-0.25463985809799516,-0.2553083310376991,-0.2559271968037429,-0.2565001892853087,-0.25703100389178474,-0.2575232924777809,-0.25798065845747625,-0.2584066520199367,-0.2588047653960366,-0.25917842819067927,-0.2595310028463593,-0.2598657803169382,-0.2601859759990377,-0.26049472592664036,-0.2607950832144479,-0.2610900147339281,-0.26138239800482893,-0.26167501826931977,-0.26197056568853455,-0.26227163259435265,-0.2625807107655289,-0.2629001887578073,-0.26323234936763784,-0.26357936731974707,-0.26394330723531345,-0.26432612189380134,-0.2647296507797361,-0.26515561890249173,-0.2656056358819949,-0.26608119531213686,-0.26658367444395886,-0.267114334240144,-0.2676743198182785,-0.268264661241715,-0.26888627456850056,-0.2695399630595525,-0.2702264184818768,-0.27094622248721345,-0.27169984806896275,-0.2724876611039664,-0.2733099219886785,-0.27416678739640726,-0.2750583122109688,-0.2759844517000722,-0.2769450639639193,-0.27793991267125834,-0.278968670105797,-0.28003092055343953,-0.28112616403111895,-0.28225382031739393,-0.28341323322704653,-0.2846036750731534,-0.2858243512691781,-0.28707440504588627,-0.2883529222907775,-0.28965893653054314,-0.29099143404809596,-0.2923493590731115,-0.293731618942001,-0.2951370891173473,-0.2965646180000951,-0.2980130315487914,-0.2994811378029127,-0.3009677314306353,-0.3024715983569722,-0.30399152042824445,-0.30552628000044285,-0.30707466432908986,-0.3086354696820583,-0.3102075051656676,-0.31178959631190944,-0.31338058849073386,-0.31497935017708617,-0.3165847760423571,-0.31819578979048774,-0.31981134665031413,-0.3214304354767496,-0.32305208047959416,-0.32467534265375936,-0.3262993209983895,-0.3279231535797555,-0.32954601844937387,-0.33116713440815587,-0.33278576160600276,-0.33440120196536244,-0.3360127994012408,-0.33761993978183497,-0.339222050567003,-0.34081860009611536,-0.34240909654166934,-0.3439930865668204,-0.3455701537272307,-0.3471399166552514,-0.34870202706213044,-0.35025616759166517,-0.3518020495565078,-0.35333941058262713,-0.3548680121682369,-0.3563876371333797,-0.3578980869260438,-0.35939917877834754,-0.36089074274384775,-0.36237261866374576,-0.3638446531088975,-0.3653066963320646,-0.366758599223606,-0.36820021019928295,-0.3696313719268851,-0.37105191786161335,-0.372461668658804,-0.3738604285982549,-0.37524798216179905,-0.37662409086495846,-0.37798849039308163,-0.3793408880644093,-0.38068096063364515,-0.3820083524455506,-0.3833226739443593,-0.3846235005413933,-0.3859103718401499,-0.387182791219191,-0.3884402257893412,-0.38968210677017195,-0.39090783033784643,-0.3921167589583158,-0.3933082231564306,-0.39448152361912986,-0.3956359335196257,-0.3967707009844014,-0.39788505167042326,-0.3989781914426446,-0.4000493091451715,-0.401097579458254,-0.40212216583223287,-0.4031222234886937,-0.4040969024783562,-0.4050453507771981,-0.4059667173660229,-0.40686015517948576,-0.4077248237928735,-0.4085598917691374,-0.40936453863445493,-0.4101379564291921,-0.4108793507651272,-0.4115879413691503,-0.412262962136086,-0.41290366068844614,-0.4135092974200622,-0.4140791440433969,-0.41461248169614456,-0.4151085986325865,-0.415566787500161,-0.4159863422370083,N
2,-0.22760363874736983,-0.22758855612594053,-0.2275989612903293,-0.227637863433664,-0.22770812943299368,-0.2278124812909672,-0.22795349374992746,-0.2281335920896148,-0.22835505012326696,-0.22861998840966774,-0.2289303727155953,-0.22928801279147776,-0.22969456153069528,-0.23015151455085253,-0.23066021019294286,-0.23122182991376822,-0.2318373990449027,-0.2325077878899422,-0.23323371311583196,-0.23401573936640085,-0.23485428101907302,-0.2357496040381155,-0.2367018279202724,-0.23771092774912406,-0.23877673637637664,-0.23989894674950202,-0.2410771144206631,-0.24231066029899345,-0.24359887371485972,-0.24494091582796607,-0.246335823350043,-0.24778251250219951,-0.24927978311563814,-0.2508263228208451,-0.25242071133112604,-0.2540614248766712,-0.25574684085637783,-0.2574752427455392,-0.2592448252731095,-0.26105369989188026,-0.26289990057153206,-0.26478138991012207,-0.26669606549950803,-0.26864176643087906,-0.2706162798181137,-0.2726173472580116,-0.27464267121304725,-0.27668992135779696,-0.2787567409444727,-0.280840753211058,-0.28293956781285884,-0.28505078723843874,-0.2871720131703815,-0.2893008527513447,-0.2914349247008074,-0.2935718652005969,-0.2957093334613731,-0.2978450169176518,-0.2999766360448896,-0.302101948815052,-0.3042187548104724,-0.30632489901847776,-0.30841827534682503,-0.3104968299296654,-0.3125585643018583,-0.3146015384861088,-0.3166238739933787,-0.3186237567159152,-0.32059943969051746,-0.3225492457085521,-0.32447156973309993,-0.32636488105528877,-0.32822772511500004,-0.3300587249456421,-0.33185658224776543,-0.3336200781183853,-0.3353480734655027,-0.337039509135367,-0.3386934057781776,-0.3403088634761768,-0.3418850611564334,-0.3434212558090581,-0.34491678153011857,-0.3463710484071367,-0.3477835412637404,-0.34915381827881625,-0.3504815094943538,-0.3517663152250898,-0.35300800438204377,-0.35420641272108905,-0.35536144102681105,-0.3564730532410791,-0.35754127454498236,-0.3585661893983416,-0.3595479395224215,-0.3604867217814147,-0.3613827859089447,-0.3622364320599862,-0.36304800822725286,-0.3638179076094385,-0.36454656602789653,-0.36523445945361094,-0.3658821016615638,-0.3664900420069543,-0.3670588633137856,-0.3675891798631481,-0.36808163545112804,-0.3685369014573536,-0.36895567485693737,-0.36933867614002724,-0.3696866471448772,-0.3700003488301691,-0.37028055901363666,-0.37052807010108935,-0.37074368682718295,-0.3709282240267189,-0.3710825044528743,-0.371207356656553,-0.37130361293899994,-0.3713721073879299,-0.3714136740056764,-0.3714291449325407,-0.37141934874913535,-0.3713851088107352,-0.37132724155667823,-0.37124655476381546,-0.3711438457344928,-0.3710198993972333,-0.37087548628919514,-0.37071136040641295,-0.37052825689254454,-0.370326889463924,-0.3701079474397224,-0.36987209232987983,-0.3696199540342008,-0.3693521267285639,-0.3690691645024763,-0.3687715768181211,-0.36845982383548403,-0.368134311565648,-0.3677953867764422,-0.36744333164278953,-0.36707835819134604,-0.36670060254564996,-0.3663101189422785,-0.36590687355020446,-0.36549073817614186,-0.3650614838885615,-0.3646187745519529,-0.364162160317872,-0.3636910711504691,-0.3632048103830144,-0.3627025482490061,-0.36218331541617216,-0.3616459966362519,-0.36108932458610704,-0.36051187392950496,-0.35991205567883705,-0.3592881119771098,-0.35863811136152995,-0.357959944519244,-0.3572513205937932,-0.35650976413970187,-0.3557326127625268,-0.3549170154308367,-0.3540599314946496,-0.353158130483233,-0.3522081926941734,-0.35120651053489144,-0.350149290639348,-0.34903255687899143,-0.34785215441859024,-0.3466037549447399,-0.345282863150054,-0.34388482447111907,-0.3424048339611963,-0.3408379461273004,-0.33917908563346094,-0.33742305887784113,-0.3355645664929719,-0.3335982168057861,-0.3315185402706347,-0.32932000486750895,-0.32699703243913053,-0.3245440159242508,-0.3219553374264046,-0.3192253870263928,-0.31634858220560624,-0.3133193877294791,-0.3101323358656536,-0.30678204684893906,-0.3032632495211689,-0.2995708020720107,-0.295699712801458,-0.29164516082069736,-0.2874025166051992,-0.2829673623121316,-0.2783355117697251,-0.2735030300284634,-0.26846625233553284,-0.26322180238695597,-0.25776660975281956,-0.25209792645189105,-0.24621334273501955,-0.24011080215948805,-0.23378861597417228,-0.22724547675262624,-0.22048047117369146,-0.2134930918499645,-0.20628324811427273,-0.19885127568401378,-0.1911979451327755,-0.18332446910804118,-0.1752325082466966,-0.16692417576693389,-0.15840204075329814,-0.14966913016881703,-0.14072892960907588,-0.1315853827976546,-0.12224288983995708,-0.11270630426756097,-0.10298092888840576,-0.09307251044534676,-0.0829872331061558,-0.07273171082491664,-0.062312978597535096,-0.05173848261956965,-0.041016069373700836,-0.030153973691194796,-0.019160805812779125,-0.00804553744423797,0.00318251320710214,0.014513697420324267,0.025938052962826984,0.037445322066060695,0.04902497029427038,0.06066620620728388,0.0723580017387773,0.08408911322859261,0.09584810303076155,0.10762336160505162,0.11940313001622904,0.13117552276424416,0.1429285508220477,0.15465014473507788,0.1663281776876651,0.17795048850059064,0.18950490452773544,0.20097926440720543,0.21236144063790596,0.22363936196542145,0.23480103554173082,0.24583456880726084,0.25672819105664196,0.26747027464481526,0.2780493557411408,0.2884541545150386,0.29867359468683385,0.3086968224355636,0.3185132246584442,0.3281124465635167,0.3374844085879964,0.3466193226277718,0.3555077075117296,0.36414040362874917,0.37250858666553777,0.3806037804723146,0.3884178690761302,0.39594310784749975,0.4031721338361535,0.41009797528445574,0.4167140602756962,0.42301422444815734,0.4289927177539683,0.43464421029794886,0.43996379729281676,0.4449470031522904,0.44958978475323413,0.45388853389024825,0.45784007889427353,0.4614416853600131,0.46469105597834054,0.4675863295435165,0.4701260792351853,0.472309310268576,0.47413545698452925,0.47560437940155603,0.47671635918048455,0.4774720949241548,0.4778726967889115,0.47791968046100525,0.4776149605836543,0.4769608437162733,0.4759600208876785,0.47461555975758085,0.47293089633077623,0.4709098261419272,0.46855649488081536,0.46587538848765536,0.46287132275239656,0.4595494324399278,0.45591515998283855,0.45197424381449597,0.4477327064254805,0.4431968422191774,0.4383732052280018,0.43326859672426754,0.427890052721698,0.42224483134716917,0.4163404000825236,0.41018442289275303,0.4037847472401287,0.3971493909709397,0.3902865290903579,0.38320448049615163,0.3759116947870822,0.36841673926664176,0.3607282862183846,0.3528551004599193,0.34480602712500763,0.3365899796072366,0.32821592762546214,0.3196928853942065,0.311029899870612,0.3022360390405674,0.29332038023496554,0.28429199850658726,0.2751599551152033,0.2659332861666379,0.2566209914455997,0.2472320234766894,0.23777527684310987,0.22825957778818376,0.2186936741170867,0.20908622539470642,0.19944579340290156,0.1897808328088245,0.1800996820243884,0.17041055427592564,0.1607215289204522,0.15104054304407097,0.1413753833731319,0.1317336785242653,0.12212289161528764,0.11255031325522266,0.10302305493197664,0.09354804283101284,0.08413201214497742,0.07478150194042119,0.06550285061448988,0.056302191931153954,0.04718545160532047,0.03815834440063092,0.029226371704922174,0.02039481953125735,0.011668756864797453,0.0030530342687757014,-0.005447717308409634,-0.013829087558858326,-0.02208688771731614,-0.030217151390327494,-0.03821613532861771,-0.0460803200989228,-0.05380641056216163,-0.061391336056353586,-0.06883225022392926,-0.0761265304895611,-0.08327177724998759,-0.09026581285139314,-0.09710668039774618,-0.10379264239056375,-0.11032217918044886,-0.1166939872099191,-0.12290697703434812,-0.12896027112908634,-0.13485320152334343,-0.14058530731301808,-0.14615633207261094,-0.15156622112964227,-0.15681511861843125,-0.16190336422251775,-0.16683148955493807,-0.17160021418957214,-0.17621044141007178,-0.18066325375664924,-0.1849599084204769,-0.18910183249456078,-0.19309061807082603,-0.19692801717243344,-0.2006159365176839,-0.2041564321337585,-0.20755170387219296,-0.2108040898897489,-0.21391606112445324,-0.2168902157368797,-0.21972927343764367,-0.22243606961372328,-0.22501354920751432,-0.22746476036897728,-0.22979284795647176,-0.23200104697578544,-0.23409267601817763,-0.23607113073292707,-0.23793987737880973,-0.23970244650642014,-0.24136242679470818,-0.24292345902341647,-0.2443892301408955,-0.24576346738654928,-0.24704993243426807,-0.2482524155168737,-0.24937472946883107,-0.2504207036195565,-0.2513941775089786,-0.2522989944615713,-0.2531389951085144,-0.25391801095982786,-0.25463985809799516,-0.2553083310376991,-0.2559271968037429,-0.2565001892853087,-0.25703100389178474,-0.2575232924777809,-0.25798065845747625,-0.2584066520199367,-0.2588047653960366,-0.25917842819067927,-0.2595310028463593,-0.2598657803169382,-0.2601859759990377,-0.26049472592664036,-0.2607950832144479,-0.2610900147339281,-0.26138239800482893,-0.26167501826931977,-0.26197056568853455,-0.26227163259435265,-0.2625807107655289,-0.2629001887578073,-0.26323234936763784,-0.26357936731974707,-0.26394330723531345,-0.26432612189380134,-0.2647296507797361,-0.26515561890249173,-0.2656056358819949,-0.26608119531213686,-0.26658367444395886,-0.267114334240144,-0.2676743198182785,-0.268264661241715,-0.26888627456850056,-0.2695399630595525,-0.2702264184818768,-0.27094622248721345,-0.27169984806896275,-0.2724876611039664,-0.2733099219886785,-0.27416678739640726,-0.2750583122109688,-0.2759844517000722,-0.2769450639639193,-0.27793991267125834,-0.278968670105797,-0.28003092055343953,-0.28112616403111895,-0.28225382031739393,-0.28341323322704653,-0.2846036750731534,-0.2858243512691781,-0.28707440504588627,-0.2883529222907775,-0.28965893653054314,-0.29099143404809596,-0.2923493590731115,-0.293731618942001,-0.2951370891173473,-0.2965646180000951,-0.2980130315487914,-0.2994811378029127,-0.3009677314306353,-0.3024715983569722,-0.30399152042824445,-0.30552628000044285,-0.30707466432908986,-0.3086354696820583,-0.3102075051656676,-0.31178959631190944,-0.31338058849073386,-0.31497935017708617,-0.3165847760423571,-0.31819578979048774,-0.31981134665031413,-0.3214304354767496,-0.32305208047959416,-0.32467534265375936,-0.3262993209983895,-0.3279231535797555,-0.32954601844937387,-0.33116713440815587,-0.33278576160600276,-0.33440120196536244,-0.3360127994012408,-0.33761993978183497,-0.339222050567003,-0.34081860009611536,-0.34240909654166934,-0.3439930865668204,-0.3455701537272307,-0.3471399166552514,-0.34870202706213044,-0.35025616759166517,-0.3518020495565078,-0.35333941058262713,-0.3548680121682369,-0.3563876371333797,-0.3578980869260438,-0.35939917877834754,-0.36089074274384775,-0.36237261866374576,-0.3638446531088975,-0.3653066963320646,-0.366758599223606,-0.36820021019928295,-0.3696313719268851,-0.37105191786161335,-0.372461668658804,-0.3738604285982549,-0.37524798216179905,-0.37662409086495846,-0.37798849039308163,-0.3793408880644093,-0.38068096063364515,-0.3820083524455506,-0.3833226739443593,-0.3846235005413933,-0.3859103718401499,-0.387182791219191,-0.3884402257893412,-0.38968210677017195,-0.39090783033784643,-0.3921167589583158,-0.3933082231564306,-0.39448152361912986,-0.3956359335196257,-0.3967707009844014,-0.39788505167042326,-0.3989781914426446,-0.4000493091451715,-0.401097579458254,-0.40212216583223287,-0.4031222234886937,-0.4040969024783562,-0.4050453507771981,-0.4059667173660229,-0.40686015517948576,-0.4077248237928735,-0.4085598917691374,-0.40936453863445493,-0.4101379564291921,-0.4108793507651272,-0.4115879413691503,-0.412262962136086,-0.41290366068844614,-0.4135092974200622,-0.4140791440433969,-0.41461248169614456,-0.4151085986325865,-0.415566787500161,-0.4159863422370083,-0.4163665546399478,-0.41670671058831493,-0.4170060858720582,-0.41726394164126224,-0.4174795195665657,-0.41765203678338714,-0.41778068066351914,-0.41786460348283594,-0.41790291704498816,-0.4178946872229723,-0.4178389283289561,-0.4177345973078304,-0.4175805878205148,-0.4173757242213368,-0.41711875538348214,-0.4168083484139768,-0.41644308240260036,-0.4160214423428496,-0.4155418133254684,-0.41500247512037797,-0.4144015972582206,-0.4137372346419667,-0.4130073236667819,-0.41220967888147736,-0.41134199028552804,-0.4104018213292427,-0.40938660764572626,-0.40829365656564337,-0.4071201474830936,-0.40586313309411753,-0.4045195414894542,-0.4030861791089599,-0.40155973458503563,-0.39993678345759814,-0.398213793706017,-0.3963871320775769,-0.39445307123549367,-0.39240779773914203,-0.3902474208438964,-0.38796798211197336,-0.3855654658274966,-0.3830358101792254,-0.38037491914988253,-0.3775786750620737,-0.3746429517404701,-0.3715636282272116,-0.3683366029679615,-0.36495780839995157,-0.36142322588580206,-0.3577289009181947,-0.353870958504612,-0.3498456186606191,-0.3456492119708067,-0.3412781951877559,-0.336729166834339,-0.3319988827668298,-0.32708427164981874,-0.3219824502887207,-0.3166907387616182,-0.31120667529276685,-0.30552803082521013,-0.29965282327696147,-0.2935793314733039,-0.2873061087186812,-0.2808319959334588,-0.2741561342641016,-0.2672779770767774,-0.2601973012541069,-0.2529142177389009,-0.2454291813045223,-0.23774299954674472,-0.22985684106757998,-0.22177224278692653,-0.21349111630513573,-0.2050157532453024,-0.19634882951787833,-0.18749340847853943,-0.17845294299029066,-0.16923127641888577,-0.15983264257059218,-0.15026166456439496,-0.14052335264780094,-0.1306231009807455,-0.12056668339568868,-0.1103602481295444,-0.10001031154394105,-0.08952375086743883,-0.07890779597987684,-0.06817002026180217,-0.05731833057929912,-0.04636095650005777,-0.035306438792195784,-0.02416361720752059,-0.012941617555479465,-0.0016498380913139371,0.009702064769208265,0.021104191391281283,0.032546414451041,0.0440183949581081,0.0555095987187154,0.06700931323898589,0.07850666506545288,0.0899906375422974,0.10145008897203632,0.11287377115700235,0.1242503482460872,0.13556841578256879,0.14681651988903233,0.15798317655849248,0.16905689098800214,0.1800261768648156,0.19087957556289692,0.201605675277849,0.21219313015539787,0.22263067945921322,0.23290716679968548,0.24301155939441965,0.252932967258921,0.2626606621965414,0.2721840965044801,0.28149292136802456,0.2905770049166316,0.2994264499017471,0.30803161097114984,0.3163831115270186,0.32447186013533336,0.33228906643810574,0.33982625653304155,0.3470752877815505,0.3540283629586941,0.3606780436353775,0.3670172627360685,0.37303933629005115,0.3787379744263645,0.38410729165880164,0.3891418164886056,0.3938365003067099,0.3981867255098115,0.4021883127195316,0.405837527045518,0.4091310833916214,0.41206615080773357,0.41464035587883197,0.4168517851580944,0.41869898664975724,0.4201809703013908,0.42129720744229604,0.4220476291576578,0.422432623662621,0.4224530327722611,0.4221101475591664,0.42140570327472787,0.42034187358162717,0.41892126410603275,0.41714690530076887,0.41502224463028753,0.41255113810416505,0.40973784116868,0.40658699895277567,0.4031036358857132,0.3992931447221286,0.39516127499504883,0.3907141209043594,0.38595810867110547,0.3808999834220077,0.3755467956815086,0.36990588754383014,0.36398487858911643,0.3577916516001616,0.3513343381294223,0.34462130395993684,0.33766113449480417,0.330462620087969,0.3230347412967298,0.3153866540243171,0.3075276745433103,0.29946726440846916,0.2912150152528531,0.2827806334507291,0.27417392466206203,0.26540477833073983,0.2564831522556845,0.24741905736045378,0.2382225427478173,0.2289036810765155,0.2194725542715228,0.2099392395730808,0.20031379592472712,0.19060625068086526,0.18082658658288622,0.1709847289430977,0.16109053300762047,0.15115377151216017,0.1411841224645616,0.13119115718880373,0.12118432865775328,0.11117296012073993,0.1011662339995075,0.09117318101451402,0.08120266953562513,0.07126339520798022,0.061363870950385396,0.05151241743115978,0.04171715408640805,0.03198599068163981,0.022326619364290614,0.012746507140827142,0.003252888738790561,-0.0061472401630659704,-0.015447129363903111,-0.024640280264813175,-0.033720451692404056,-0.0426816653709595,-0.05151821094663137,-0.06022465046051657,-0.06879582220834121,-0.07722684398938837,-0.08551311580147816,-0.09365032205343118,-0.10163443334046954,-0.1094617078058441,-0.11712869212307056,-0.12463222214195183,-0.13196942321851876,-0.13913771022960383,-0.14613478728642734,-0.15295864717277194,-0.15960757050507327,-0.16608012455858404,-0.17237516166050362,-0.1784918170464528,-0.1844295061157232,-0.1901879210694443,-0.19576702694209383,-0.20116705704402219,-0.2063885078388595,-0.21143213329978813,-0.2162989388200268,-0.2209901747633035,-0.2255073297105786,-0.2298521234192806,-0.23402649949297047,-0.23803261775930182,-0.2418728463581626,-0.2455497535455161,-0.24906609922172648,-0.2524248261960743,-0.2556290511980381,-0.2586820556302835,-0.26158727603085813,-0.26434829420505407,-0.26696882701981844,-0.2694527158960233,-0.27180391605424864,-0.2740264855713656,-0.2761245743023872,-0.2781024127192581,-0.279964300715493,-0.28171459642283975,-0.28335770508717395,-0.2848980680660945,-0.28634015203751517,-0.28768843851473125,-0.2889474137338592,-0.2901215589545946,-0.29121534122423903,-0.2922332046608755,-0.29317956227641073,-0.2940587882993154,-0.29487521090668667,-0.29563310526587394,-0.2963366868299774,-0.296990104915026,-0.29759743667051997,-0.29816268157695724,-0.29868975653994234,-0.299182491565423,-0.29964462596022645,-0.30007980499948916,-0.3004915770122209,-0.3008833908589856,-0.3012585938089824,-0.3016204298369564,-0.3019720383316683,-0.3023164531552406,-0.3026566019498146,-0.3029953055821385,-0.30333527765610085,-0.3036791240854679,-0.3040293427709832,-0.3043883234400481,-0.30475834767532406,-0.30514158910318334,-0.305540113667219,-0.30595587990353945,-0.30639073917145326,-0.3068464358530289,-0.3073246075846973,-0.307826785596045,-0.3083543952006755,-0.308908756443889,-0.30949108489261284,-0.310102492551308,-0.31074398888988614,-0.3114164819717488,-0.3121207796719158,-0.3128575909768609,-0.3136275273591353,-0.3144311042211411,-0.3152687424035369,-0.3161407697547231,-0.31704742275513065,-0.3179888481736314,-0.31896510470587247,-0.3199761645364584,-0.32102191479682973,-0.3221021589303207,-0.32321661799455714,-0.32436493193231464,-0.32554666083878525,-0.32676128625017975,-0.32800821247571077,-0.32928676799226386,-0.330596206922016,-0.3319357106279028,-0.3333043894876037,-0.3347012849128734,-0.3361253716458753,-0.33757556030579094,-0.3390507001105879,-0.34054958168796856,-0.3420709399242882,-0.34361345685826244,-0.345175764674354,-0.346756448861325,-0.34835405156999716,-0.34996707516316533,-0.3515939859305081,-0.3532332179390178,-0.35488317698778327,-0.356542244620632,-0.3582087821237391,-0.35988113442857916,-0.3615576338752517,-0.363236603849137,-0.3649163623518254,-0.3665952255777864,-0.3682715115367418,-0.3699435437205571,-0.37160965479332114,-0.3732681902809291,-0.3749175122383143,-0.3765560028742256,-0.3781820681151173,-0.379794141091319,-0.3813906855266219,-0.3829701989967741,-0.38453121599566853,-0.3860723107409806,-0.3875920996818262,-0.38908924371156106,-0.39056245010846,-0.39201047422892776,-0.3934321209792397,-0.39482624610685985,-0.3961917573785669,-0.3975276157191931,-0.39883283635358285,-0.40010648995350623,-0.4013477037713788,-0.4025556627405193,-0.4037296105201734,-0.4048688504483723,-0.4059727463394439,-0.4070407230563934,-0.4080722668231322,-0.40906692529954997,-0.41002430749047253,-0.4109440835701212,-0.41182598467220716,-0.4126698026546433,-0.41347538982769144,-0.414242658631962,-0.41497158125089595,-0.4156621891269171,-0.4163145723239131,-0.41692887867181805,-0.41750531266355345,-0.4180441341323213,-0.41854565678501515,-0.419010246677808,-0.41943832068466913,-0.41983034495104,-0.4201868332763695,-0.42050834535819226,-0.4207954848614929,-0.421048897317852,-0.4212692678786599,-0.4214573189487282,-0.4216138077245267,-0.42173952365929035,-0.42183528587536545,-0.42190194054240504,-0.4219403582346399,-0.4219514312609753,-0.42193607093076396,-0.4218952047079791,-0.42182977323229653,-0.42174072720687616,-0.42162902414009273,-0.42149562491913295,-0.4213414902139352,-0.4211675767131169,-0.4209748331510923,-0.4207641960654258,-0.42053658527481047,-0.42029289912618656,-0.4200340095628355,-0.41976075705271915,-0.41947394542776406,-0.41917433667824167,-0.41886264569520515,-0.41853953492730334,-0.4182056089581642,-0.4178614090296939,-0.41750740747736964,-0.417144002009365,-0.4167715098232503,-0.41639016159043396,-0.4160000952638716,N
3,-0.2601859759990377,-0.26049472592664036,-0.2607950832144479,-0.2610900147339281,-0.26138239800482893,-0.26167501826931977,-0.26197056568853455,-0.26227163259435265,-0.2625807107655289,-0.2629001887578073,-0.26323234936763784,-0.26357936731974707,-0.26394330723531345,-0.26432612189380134,-0.2647296507797361,-0.26515561890249173,-0.2656056358819949,-0.26608119531213686,-0.26658367444395886,-0.267114334240144,-0.2676743198182785,-0.268264661241715,-0.26888627456850056,-0.2695399630595525,-0.2702264184818768,-0.27094622248721345,-0.27169984806896275,-0.2724876611039664,-0.2733099219886785,-0.27416678739640726,-0.2750583122109688,-0.2759844517000722,-0.2769450639639193,-0.27793991267125834,-0.278968670105797,-0.28003092055343953,-0.28112616403111895,-0.28225382031739393,-0.28341323322704653,-0.2846036750731534,-0.2858243512691781,-0.28707440504588627,-0.2883529222907775,-0.28965893653054314,-0.29099143404809596,-0.2923493590731115,-0.293731618942001,-0.2951370891173473,-0.2965646180000951,-0.2980130315487914,-0.2994811378029127,-0.3009677314306353,-0.3024715983569722,-0.30399152042824445,-0.30552628000044285,-0.30707466432908986,-0.3086354696820583,-0.3102075051656676,-0.31178959631190944,-0.31338058849073386,-0.31497935017708617,-0.3165847760423571,-0.31819578979048774,-0.31981134665031413,-0.3214304354767496,-0.32305208047959416,-0.32467534265375936,-0.3262993209983895,-0.3279231535797555,-0.32954601844937387,-0.33116713440815587,-0.33278576160600276,-0.33440120196536244,-0.3360127994012408,-0.33761993978183497,-0.339222050567003,-0.34081860009611536,-0.34240909654166934,-0.3439930865668204,-0.3455701537272307,-0.3471399166552514,-0.34870202706213044,-0.35025616759166517,-0.3518020495565078,-0.35333941058262713,-0.3548680121682369,-0.3563876371333797,-0.3578980869260438,-0.35939917877834754,-0.36089074274384775,-0.36237261866374576,-0.3638446531088975,-0.3653066963320646,-0.366758599223606,-0.36820021019928295,-0.3696313719268851,-0.37105191786161335,-0.372461668658804,-0.3738604285982549,-0.37524798216179905,-0.37662409086495846,-0.37798849039308163,-0.3793408880644093,-0.38068096063364515,-0.3820083524455506,-0.3833226739443593,-0.3846235005413933,-0.3859103718401499,-0.387182791219191,-0.3884402257893412,-0.38968210677017195,-0.39090783033784643,-0.3921167589583158,-0.3933082231564306,-0.39448152361912986,-0.3956359335196257,-0.3967707009844014,-0.39788505167042326,-0.3989781914426446,-0.4000493091451715,-0.401097579458254,-0.40212216583223287,-0.4031222234886937,-0.4040969024783562,-0.4050453507771981,-0.4059667173660229,-0.40686015517948576,-0.4077248237928735,-0.4085598917691374,-0.40936453863445493,-0.4101379564291921,-0.4108793507651272,-0.4115879413691503,-0.412262962136086,-0.41290366068844614,-0.4135092974200622,-0.4140791440433969,-0.41461248169614456,-0.4151085986325865,-0.415566787500161,-0.4159863422370083,-0.4163665546399478,-0.41670671058831493,-0.4170060858720582,-0.41726394164126224,-0.4174795195665657,-0.41765203678338714,-0.41778068066351914,-0.41786460348283594,-0.41790291704498816,-0.4178946872229723,-0.4178389283289561,-0.4177345973078304,-0.4175805878205148,-0.4173757242213368,-0.41711875538348214,-0.4168083484139768,-0.41644308240260036,-0.4160214423428496,-0.4155418133254684,-0.41500247512037797,-0.4144015972582206,-0.4137372346419667,-0.4130073236667819,-0.41220967888147736,-0.41134199028552804,-0.4104018213292427,-0.40938660764572626,-0.40829365656564337,-0.4071201474830936,-0.40586313309411753,-0.4045195414894542,-0.4030861791089599,-0.40155973458503563,-0.39993678345759814,-0.398213793706017,-0.3963871320775769,-0.39445307123549367,-0.39240779773914203,-0.3902474208438964,-0.38796798211197336,-0.3855654658274966,-0.3830358101792254,-0.38037491914988253,-0.3775786750620737,-0.3746429517404701,-0.3715636282272116,-0.3683366029679615,-0.36495780839995157,-0.36142322588580206,-0.3577289009181947,-0.353870958504612,-0.3498456186606191,-0.3456492119708067,-0.3412781951877559,-0.336729166834339,-0.3319988827668298,-0.32708427164981874,-0.3219824502887207,-0.3166907387616182,-0.31120667529276685,-0.30552803082521013,-0.29965282327696147,-0.2935793314733039,-0.2873061087186812,-0.2808319959334588,-0.2741561342641016,-0.2672779770767774,-0.2601973012541069,-0.2529142177389009,-0.2454291813045223,-0.23774299954674472,-0.22985684106757998,-0.22177224278692653,-0.21349111630513573,-0.2050157532453024,-0.19634882951787833,-0.18749340847853943,-0.17845294299029066,-0.16923127641888577,-0.15983264257059218,-0.15026166456439496,-0.14052335264780094,-0.1306231009807455,-0.12056668339568868,-0.1103602481295444,-0.10001031154394105,-0.08952375086743883,-0.07890779597987684,-0.06817002026180217,-0.05731833057929912,-0.04636095650005777,-0.035306438792195784,-0.02416361720752059,-0.012941617555479465,-0.0016498380913139371,0.009702064769208265,0.021104191391281283,0.032546414451041,0.0440183949581081,0.0555095987187154,0.06700931323898589,0.07850666506545288,0.0899906375422974,0.10145008897203632,0.11287377115700235,0.1242503482460872,0.13556841578256879,0.14681651988903233,0.15798317655849248,0.16905689098800214,0.1800261768648156,0.19087957556289692,0.201605675277849,0.21219313015539787,0.22263067945921322,0.23290716679968548,0.24301155939441965,0.252932967258921,0.2626606621965414,0.2721840965044801,0.28149292136802456,0.2905770049166316,0.2994264499017471,0.30803161097114984,0.3163831115270186,0.32447186013533336,0.33228906643810574,0.33982625653304155,0.3470752877815505,0.3540283629586941,0.3606780436353775,0.3670172627360685,0.37303933629005115,0.3787379744263645,0.38410729165880164,0.3891418164886056,0.3938365003067099,0.3981867255098115,0.4021883127195316,0.405837527045518,0.4091310833916214,0.41206615080773357,0.41464035587883197,0.4168517851580944,0.41869898664975724,0.4201809703013908,0.42129720744229604,0.4220476291576578,0.422432623662621,0.4224530327722611,0.4221101475591664,0.42140570327472787,0.42034187358162717,0.41892126410603275,0.41714690530076887,0.41502224463028753,0.41255113810416505,0.40973784116868,0.40658699895277567,0.4031036358857132,0.3992931447221286,0.39516127499504883,0.3907141209043594,0.38595810867110547,0.3808999834220077,0.3755467956815086,0.36990588754383014,0.36398487858911643,0.3577916516001616,0.3513343381294223,0.34462130395993684,0.33766113449480417,0.330462620087969,0.3230347412967298,0.3153866540243171,0.3075276745433103,0.29946726440846916,0.2912150152528531,0.2827806334507291,0.27417392466206203,0.26540477833073983,0.2564831522556845,0.24741905736045378,0.2382225427478173,0.2289036810765155,0.2194725542715228,0.2099392395730808,0.20031379592472712,0.19060625068086526,0.18082658658288622,0.1709847289430977,0.16109053300762047,0.15115377151216017,0.1411841224645616,0.13119115718880373,0.12118432865775328,0.11117296012073993,0.1011662339995075,0.09117318101451402,0.08120266953562513,0.07126339520798022,0.061363870950385396,0.05151241743115978,0.04171715408640805,0.03198599068163981,0.022326619364290614,0.012746507140827142,0.003252888738790561,-0.0061472401630659704,-0.015447129363903111,-0.024640280264813175,-0.033720451692404056,-0.0426816653709595,-0.05151821094663137,-0.06022465046051657,-0.06879582220834121,-0.07722684398938837,-0.08551311580147816,-0.09365032205343118,-0.10163443334046954,-0.1094617078058441,-0.11712869212307056,-0.12463222214195183,-0.13196942321851876,-0.13913771022960383,-0.14613478728642734,-0.15295864717277194,-0.15960757050507327,-0.16608012455858404,-0.17237516166050362,-0.1784918170464528,-0.1844295061157232,-0.1901879210694443,-0.19576702694209383,-0.20116705704402219,-0.2063885078388595,-0.21143213329978813,-0.2162989388200268,-0.2209901747633035,-0.2255073297105786,-0.2298521234192806,-0.23402649949297047,-0.23803261775930182,-0.2418728463581626,-0.2455497535455161,-0.24906609922172648,-0.2524248261960743,-0.2556290511980381,-0.2586820556302835,-0.26158727603085813,-0.26434829420505407,-0.26696882701981844,-0.2694527158960233,-0.27180391605424864,-0.2740264855713656,-0.2761245743023872,-0.2781024127192581,-0.279964300715493,-0.28171459642283975,-0.28335770508717395,-0.2848980680660945,-0.28634015203751517,-0.28768843851473125,-0.2889474137338592,-0.2901215589545946,-0.29121534122423903,-0.2922332046608755,-0.29317956227641073,-0.2940587882993154,-0.29487521090668667,-0.29563310526587394,-0.2963366868299774,-0.296990104915026,-0.29759743667051997,-0.29816268157695724,-0.29868975653994234,-0.299182491565423,-0.29964462596022645,-0.30007980499948916,-0.3004915770122209,-0.3008833908589856,-0.3012585938089824,-0.3016204298369564,-0.3019720383316683,-0.3023164531552406,-0.3026566019498146,-0.3029953055821385,-0.30333527765610085,-0.3036791240854679,-0.3040293427709832,-0.3043883234400481,-0.30475834767532406,-0.30514158910318334,-0.305540113667219,-0.30595587990353945,-0.30639073917145326,-0.3068464358530289,-0.3073246075846973,-0.307826785596045,-0.3083543952006755,-0.308908756443889,-0.30949108489261284,-0.310102492551308,-0.31074398888988614,-0.3114164819717488,-0.3121207796719158,-0.3128575909768609,-0.3136275273591353,-0.3144311042211411,-0.3152687424035369,-0.3161407697547231,-0.31704742275513065,-0.3179888481736314,-0.31896510470587247,-0.3199761645364584,-0.32102191479682973,-0.3221021589303207,-0.32321661799455714,-0.32436493193231464,-0.32554666083878525,-0.32676128625017975,-0.32800821247571077,-0.32928676799226386,-0.330596206922016,-0.3319357106279028,-0.3333043894876037,-0.3347012849128734,-0.3361253716458753,-0.33757556030579094,-0.3390507001105879,-0.34054958168796856,-0.3420709399242882,-0.34361345685826244,-0.345175764674354,-0.346756448861325,-0.34835405156999716,-0.34996707516316533,-0.3515939859305081,-0.3532332179390178,-0.35488317698778327,-0.356542244620632,-0.3582087821237391,-0.35988113442857916,-0.3615576338752517,-0.363236603849137,-0.3649163623518254,-0.3665952255777864,-0.3682715115367418,-0.3699435437205571,-0.37160965479332114,-0.3732681902809291,-0.3749175122383143,-0.3765560028742256,-0.3781820681151173,-0.379794141091319,-0.3813906855266219,-0.3829701989967741,-0.38453121599566853,-0.3860723107409806,-0.3875920996818262,-0.38908924371156106,-0.39056245010846,-0.39201047422892776,-0.3934321209792397,-0.39482624610685985,-0.3961917573785669,-0.3975276157191931,-0.39883283635358285,-0.40010648995350623,-0.4013477037713788,-0.4025556627405193,-0.4037296105201734,-0.4048688504483723,-0.4059727463394439,-0.4070407230563934,-0.4080722668231322,-0.40906692529954997,-0.41002430749047253,-0.4109440835701212,-0.41182598467220716,-0.4126698026546433,-0.41347538982769144,-0.414242658631962,-0.41497158125089595,-0.4156621891269171,-0.4163145723239131,-0.41692887867181805,-0.41750531266355345,-0.4180441341323213,-0.41854565678501515,-0.419010246677808,-0.41943832068466913,-0.41983034495104,-0.4201868332763695,-0.42050834535819226,-0.4207954848614929,-0.421048897317852,-0.4212692678786599,-0.4214573189487282,-0.4216138077245267,-0.42173952365929035,-0.42183528587536545,-0.42190194054240504,-0.4219403582346399,-0.4219514312609753,-0.42193607093076396,-0.4218952047079791,-0.42182977323229653,-0.42174072720687616,-0.42162902414009273,-0.42149562491913295,-0.4213414902139352,-0.4211675767131169,-0.4209748331510923,-0.4207641960654258,-0.42053658527481047,-0.42029289912618656,-0.4200340095628355,-0.41976075705271915,-0.41947394542776406,-0.41917433667824167,-0.41886264569520515,-0.41853953492730334,-0.4182056089581642,-0.4178614090296939,-0.41750740747736964,-0.417144002009365,-0.4167715098232503,-0.41639016159043396,-0.4160000952638716,-0.41560134961917927,-0.41519385753164134,-0.4147774390844647,-0.41435179457503274,-0.41391649744599673,-0.41347098722027587,-0.4130145625616354,-0.41254637452705356,-0.4120654200301729,-0.4115705355814178,-0.4110603913924244,-0.4105334858446292,-0.4099881402644569,-0.409422494032677,-0.40883450015636363,-0.4082219214237753,-0.4075823272232731,-0.40691309112150087,-0.4062113892910708,-0.40547419979759525,-0.40469830270325646,-0.40388028099720297,-0.4030165224213901,-0.4021032222328932,-0.4011363869045733,-0.4001118387921842,-0.39902522183145955,-0.3978720083116955,-0.39664750674162547,-0.3953468708187299,-0.393965109492438,-0.39249709804817645,-0.39093759010197726,-0.38928123043739904,-0.3875225686819187,-0.38565607384287726,-0.38367614971026154,-0.3815771511066315,-0.3793534009114139,-0.3769992077128017,-0.3745088839098889,-0.37187676414207854,-0.36909722401366957,-0.3661646991418192,-0.3630737045602121,-0.35981885446436435,-0.35639488221535576,-0.3527966604615971,-0.34901922122172335,-0.34505777580053243,-0.3409077344500391,-0.3365647257069766,-0.33202461533973016,-0.32728352483216666,-0.3223378493130458,-0.31718427481025385,-0.3118197947011124,-0.30624172526615645,-0.3004477203149949,-0.2944357849042927,-0.2882042881806539,-0.28175197535038854,-0.2750779787376705,-0.26818182787450295,-0.26106345856676816,-0.25372322088615307,-0.24616188604339653,-0.2383806521040495,-0.23038114851374417,-0.22216543941323166,-0.21373602576509035,-0.20509584637863645,-0.19624827794275526,-0.18719713412375924,-0.17794666372632015,-0.16850154791155533,-0.15886689647852156,-0.1490482431924344,-0.13905154009491696,-0.12888315069329628,-0.11854984192624132,-0.10805877485428078,-0.0974174941134675,-0.08663391626107964,-0.07571631717129323,-0.06467331858528719,-0.0535138738594499,-0.042247252950283094,-0.030883026686164196,-0.01943105035974343,-0.007901446660744587,0.0036954120130969453,0.015348921813358314,0.027048266223908848,0.03878243531968518,0.05054024540068563,0.06231035887546232,0.07408130431756958,0.08584149667543815,0.09757925761791718,0.10928283598330195,0.12094042830954427,0.13254019941573508,0.1440703029531572,0.15551890181739686,0.16687418836427853,0.17812440444591388,0.1892578613131632,0.20026295942412226,0.21112820817666367,0.22184224553517862,0.2323938574526455,0.24277199696185459,0.252965802857273,0.26296461794305337,0.2727580068230251,0.2823357731953371,0.29168797662796686,0.3008049487884962,0.3096773090540842,0.31829597940328835,0.32665219853944233,0.3347375352509138,0.34254390101510185,0.35006356183934745,0.3572891493430253,0.36421367107940933,0.3708305200466309,0.3771334833118472,0.38311674972011367,0.38877491671441866,0.3941029962942436,0.39909642012572,0.4037510438305041,0.40806315049134634,0.4120294533905784,0.4156470979803326,0.4189136630968512,0.42182716142838805,0.42438603919864903,0.42658917500329585,0.428435877788624,0.42992588403480714,0.43105935423675634,0.4318368687703328,0.4322594232150609,0.43232842317501147,0.4320456785997479,0.4314133975892748,0.43043417968602893,0.42911100867310137,0.4274472448815698,0.4254466169965483,0.4231132133708116,0.4204514728710978,0.4174661752659335,0.4141624311505541,0.41054567142353443,0.40662163634509624,0.40239636418934727,0.39787617948888715,0.3930676808943729,0.3879777287073873,0.3826134321586549,0.37698213649875995,0.37109140995260437,0.364949030546041,0.35856297274860216,0.35194139385290146,0.34509262006624963,0.33802513236567444,0.330747552201045,0.32326862712890003,0.3155972164496659,0.3077422769119045,0.2997128485389984,0.29151804062620634,0.28316701794536525,0.27466898716967647,0.26603318349474747,0.2572688574179828,0.2483852616702764,0.2393916383518666,0.23029720637175233,0.221111149297065,0.21184260367630783,0.20250064783289293,0.19309429106927214,0.18363246320727392,0.17412400442199275,0.16457765536924088,0.15500204762655692,0.14540569446857368,0.13579698199049672,0.12618416057318416,0.11657533665238162,0.10697846474376538,0.09740133970271936,0.08785158923508635,0.07833666669180422,0.0688638441795631,0.05944020601852493,0.05007264259097913,0.04076784464898117,0.03153229815377995,0.02237227968699745,0.013293852431174629,0.0043028626960821235,-0.004595063036119375,-0.013394520572807973,-0.022090330004869475,-0.03067753725666438,-0.03915141521495988,-0.047507464462361225,-0.055741413656907844,-0.0638492196266377,-0.07182706725533894,-0.07967136920524065,-0.08737876548216006,-0.09494612282928622,-0.10237053393412793,-0.10964931643559223,-0.11678001172043107,-0.1237603835004043,-0.1305884161634675,-0.13726231289783147,-0.14378049360734196,-0.15014159266761534,-0.15634445658255197,-0.16238814156748838,-0.1682719110273252,-0.17399523285029106,-0.17955777642940596,-0.18495940935898647,-0.19020019379877573,-0.19528038252137547,-0.20020041466298732,-0.20496091120100784,-0.20956267019972324,-0.21400666189453293,-0.2182940236936029,-0.2224260551445843,-0.22640421287248286,-0.23023010547505512,-0.2339054883608716,-0.23743225851446514,-0.2408124491578364,-0.2440482242507075,-0.24714187276551114,-0.25009580270993187,-0.2529125349309121,-0.2555946967846057,-0.25814501576798105,-0.2605663131787587,-0.2628614978459955,-0.2650335599832056,-0.26708556522242083,-0.26902064886060917,-0.2708420103262078,-0.2725529078840784,-0.2741566536062571,-0.27565660860581204,-0.277056178476257,-0.2783588088341202,-0.27956798085627627,-0.28068720674504155,-0.2817200251193789,-0.28266999638508217,-0.2835406981517,-0.2843357207307315,-0.2850586626917441,-0.28571312640534247,-0.286302713493193,-0.28683102014783285,-0.28730163236579404,-0.2877181212191993,-0.2880840383124224,-0.28840291150785263,-0.28867824092164956,-0.288913495150871,-0.28911210769077483,-0.2892774735069595,-0.28941294573239534,-0.2895218324643343,-0.289607393640591,-0.28967283797878635,-0.28972131996585954,-0.2897559368885044,-0.2897797258981954,-0.2897956611108736,-0.2898066507616619,-0.28981553446650676,-0.28982508065322143,-0.2898379841912991,-0.28985686419207074,-0.28988426190311684,-0.2899226386121488,-0.28997437351438404,-0.2900417615603139,-0.29012701135292995,-0.29023224317611795,-0.2903594872042867,-0.2905106819013086,-0.29068767259663963,-0.29089221022470624,-0.29112595021977355,-0.2913904515785772,-0.29168717613432865,-0.292017488096125,-0.29238265387456286,-0.2927838421564759,-0.29322212414399385,-0.29369847386440706,-0.29421376849241554,-0.2947687886713364,-0.29536421884264286,-0.2960006475971968,-0.29667856805725484,-0.29739837827978494,-0.2981603816415111,-0.2989647871566273,-0.29981170971203097,-0.3007011702632645,-0.3016330960823128,-0.30260732115717315,-0.3036235868078996,-0.3046815425385614,-0.3057807471213503,-0.30692066990456235,-0.30810069233983833,-0.30932010974187735,-0.3105781333231687,-0.31187389255492065,-0.31320643786683405,-0.3145747436211824,-0.3159777112183045,-0.31741417217212026,-0.31888289106318934,-0.32038256838024926,-0.32191184333218303,-0.3234692967255264,-0.3250534539673908,-0.3266627882084485,-0.3282957236175068,-0.329950638774823,-0.3316258701751417,-0.3333197158494811,-0.3350304391442706,-0.3367562727053483,-0.3384954226798178,-0.340246073089816,-0.34200639028366275,-0.34377452736047287,-0.34554862850262785,-0.34732683321307695,-0.34910728050647805,-0.3508881131158716,-0.35266748174140594,-0.35444354930804955,-0.35621449515003967,-0.35797851902985034,-0.3597338449372282,-0.3614787246758934,-0.3632114412970399,-0.364930312450975,-0.366633693696325,-0.36831998176413133,-0.369987617753988,-0.37163509023775226,-0.3732609382453347,-0.37486375409169703,-0.37644218597714696,-0.3779949402865177,-0.3795207835458947,-0.3810185440387537,-0.38248711310458994,-0.383925446145716,-0.3853325633661382,-0.3867075502647528,-0.3880495579035319,-0.3893578029698923,-0.39063156765105367,-0.39187019933688827,-0.393073110166545,-0.3942397764329879,-0.39536973785852103,-0.39646259675337525,-0.39751801706850287,-0.39853572335286147,-0.39951549962094185,-0.40045718811763226,-0.40136068793738594,-0.40222595344527107,-0.4030529924778555,-0.4038418643425577,-0.40459267765295187,-0.40530558803792555,-0.4059807957587787,-0.4066185432647947,-0.4072191127144918,-0.40778282348666944,-0.4083100296987633,-0.4088011177294345,-0.4092565037104111,-0.4096766309415595,-0.41006196720829563,-0.41041300200180747,-0.4107302436307034,-0.41101421620319084,-0.4112654564773671,-0.4114845105772492,-0.4116719305271369,-0.41182827053599624,-0.41195408301636893,-0.4120499143830664,-0.41211630068242544,-0.4121537630907889,-0.412162803327068,-0.41214389899784176,-0.41209749881191493,-0.41202401756583196,-0.41192383087642,-0.41179726971411973,-0.41164461477927433,-0.4114660907387602,-0.4112618603697276,-0.411032018652187,-0.41077658675769385,-0.41049550583306443,N
4,-0.3026566019498146,-0.3029953055821385,-0.30333527765610085,-0.3036791240854679,-0.3040293427709832,-0.3043883234400481,-0.30475834767532406,-0.30514158910318334,-0.305540113667219,-0.30595587990353945,-0.30639073917145326,-0.3068464358530289,-0.3073246075846973,-0.307826785596045,-0.3083543952006755,-0.308908756443889,-0.30949108489261284,-0.310102492551308,-0.31074398888988614,-0.3114164819717488,-0.3121207796719158,-0.3128575909768609,-0.3136275273591353,-0.3144311042211411,-0.3152687424035369,-0.3161407697547231,-0.31704742275513065,-0.3179888481736314,-0.31896510470587247,-0.3199761645364584,-0.32102191479682973,-0.3221021589303207,-0.32321661799455714,-0.32436493193231464,-0.32554666083878525,-0.32676128625017975,-0.32800821247571077,-0.32928676799226386,-0.330596206922016,-0.3319357106279028,-0.3333043894876037,-0.3347012849128734,-0.3361253716458753,-0.33757556030579094,-0.3390507001105879,-0.34054958168796856,-0.3420709399242882,-0.34361345685826244,-0.345175764674354,-0.346756448861325,-0.34835405156999716,-0.34996707516316533,-0.3515939859305081,-0.3532332179390178,-0.35488317698778327,-0.356542244620632,-0.3582087821237391,-0.35988113442857916,-0.3615576338752517,-0.363236603849137,-0.3649163623518254,-0.3665952255777864,-0.3682715115367418,-0.3699435437205571,-0.37160965479332114,-0.3732681902809291,-0.3749175122383143,-0.3765560028742256,-0.3781820681151173,-0.379794141091319,-0.3813906855266219,-0.3829701989967741,-0.38453121599566853,-0.3860723107409806,-0.3875920996818262,-0.38908924371156106,-0.39056245010846,-0.39201047422892776,-0.3934321209792397,-0.39482624610685985,-0.3961917573785669,-0.3975276157191931,-0.39883283635358285,-0.40010648995350623,-0.4013477037713788,-0.4025556627405193,-0.4037296105201734,-0.4048688504483723,-0.4059727463394439,-0.4070407230563934,-0.4080722668231322,-0.40906692529954997,-0.41002430749047253,-0.4109440835701212,-0.41182598467220716,-0.4126698026546433,-0.41347538982769144,-0.414242658631962,-0.41497158125089595,-0.4156621891269171,-0.4163145723239131,-0.41692887867181805,-0.41750531266355345,-0.4180441341323213,-0.41854565678501515,-0.419010246677808,-0.41943832068466913,-0.41983034495104,-0.4201868332763695,-0.42050834535819226,-0.4207954848614929,-0.421048897317852,-0.4212692678786599,-0.4214573189487282,-0.4216138077245267,-0.42173952365929035,-0.42183528587536545,-0.42190194054240504,-0.4219403582346399,-0.4219514312609753,-0.42193607093076396,-0.4218952047079791,-0.42182977323229653,-0.42174072720687616,-0.42162902414009273,-0.42149562491913295,-0.4213414902139352,-0.4211675767131169,-0.4209748331510923,-0.4207641960654258,-0.42053658527481047,-0.42029289912618656,-0.4200340095628355,-0.41976075705271915,-0.41947394542776406,-0.41917433667824167,-0.41886264569520515,-0.41853953492730334,-0.4182056089581642,-0.4178614090296939,-0.41750740747736964,-0.417144002009365,-0.4167715098232503,-0.41639016159043396,-0.4160000952638716,-0.41560134961917927,-0.41519385753164134,-0.4147774390844647,-0.41435179457503274,-0.41391649744599673,-0.41347098722027587,-0.4130145625616354,-0.41254637452705356,-0.4120654200301729,-0.4115705355814178,-0.4110603913924244,-0.4105334858446292,-0.4099881402644569,-0.409422494032677,-0.40883450015636363,-0.4082219214237753,-0.4075823272232731,-0.40691309112150087,-0.4062113892910708,-0.40547419979759525,-0.40469830270325646,-0.40388028099720297,-0.4030165224213901,-0.4021032222328932,-0.4011363869045733,-0.4001118387921842,-0.39902522183145955,-0.3978720083116955,-0.39664750674162547,-0.3953468708187299,-0.393965109492438,-0.39249709804817645,-0.39093759010197726,-0.38928123043739904,-0.3875225686819187,-0.38565607384287726,-0.38367614971026154,-0.3815771511066315,-0.3793534009114139,-0.3769992077128017,-0.3745088839098889,-0.37187676414207854,-0.36909722401366957,-0.3661646991418192,-0.3630737045602121,-0.35981885446436435,-0.35639488221535576,-0.3527966604615971,-0.34901922122172335,-0.34505777580053243,-0.3409077344500391,-0.3365647257069766,-0.33202461533973016,-0.32728352483216666,-0.3223378493130458,-0.31718427481025385,-0.3118197947011124,-0.30624172526615645,-0.3004477203149949,-0.2944357849042927,-0.2882042881806539,-0.28175197535038854,-0.2750779787376705,-0.26818182787450295,-0.26106345856676816,-0.25372322088615307,-0.24616188604339653,-0.2383806521040495,-0.23038114851374417,-0.22216543941323166,-0.21373602576509035,-0.20509584637863645,-0.19624827794275526,-0.18719713412375924,-0.17794666372632015,-0.16850154791155533,-0.15886689647852156,-0.1490482431924344,-0.13905154009491696,-0.12888315069329628,-0.11854984192624132,-0.10805877485428078,-0.0974174941134675,-0.08663391626107964,-0.07571631717129323,-0.06467331858528719,-0.0535138738594499,-0.042247252950283094,-0.030883026686164196,-0.01943105035974343,-0.007901446660744587,0.0036954120130969453,0.015348921813358314,0.027048266223908848,0.03878243531968518,0.05054024540068563,0.06231035887546232,0.07408130431756958,0.08584149667543815,0.09757925761791718,0.10928283598330195,0.12094042830954427,0.13254019941573508,0.1440703029531572,0.15551890181739686,0.16687418836427853,0.17812440444591388,0.1892578613131632,0.20026295942412226,0.21112820817666367,0.22184224553517862,0.2323938574526455,0.24277199696185459,0.252965802857273,0.26296461794305337,0.2727580068230251,0.2823357731953371,0.29168797662796686,0.3008049487884962,0.3096773090540842,0.31829597940328835,0.32665219853944233,0.3347375352509138,0.34254390101510185,0.35006356183934745,0.3572891493430253,0.36421367107940933,0.3708305200466309,0.3771334833118472,0.38311674972011367,0.38877491671441866,0.3941029962942436,0.39909642012572,0.4037510438305041,0.40806315049134634,0.4120294533905784,0.4156470979803326,0.4189136630968512,0.42182716142838805,0.42438603919864903,0.42658917500329585,0.428435877788624,0.42992588403480714,0.43105935423675634,0.4318368687703328,0.4322594232150609,0.43232842317501147,0.4320456785997479,0.4314133975892748,0.43043417968602893,0.42911100867310137,0.4274472448815698,0.4254466169965483,0.4231132133708116,0.4204514728710978,0.4174661752659335,0.4141624311505541,0.41054567142353443,0.40662163634509624,0.40239636418934727,0.39787617948888715,0.3930676808943729,0.3879777287073873,0.3826134321586549,0.37698213649875995,0.37109140995260437,0.364949030546041,0.35856297274860216,0.35194139385290146,0.34509262006624963,0.33802513236567444,0.330747552201045,0.32326862712890003,0.3155972164496659,0.3077422769119045,0.2997128485389984,0.29151804062620634,0.28316701794536525,0.27466898716967647,0.26603318349474747,0.2572688574179828,0.2483852616702764,0.2393916383518666,0.23029720637175233,0.221111149297065,0.21184260367630783,0.20250064783289293,0.19309429106927214,0.18363246320727392,0.17412400442199275,0.16457765536924088,0.15500204762655692,0.14540569446857368,0.13579698199049672,0.12618416057318416,0.11657533665238162,0.10697846474376538,0.09740133970271936,0.08785158923508635,0.07833666669180422,0.0688638441795631,0.05944020601852493,0.05007264259097913,0.04076784464898117,0.03153229815377995,0.02237227968699745,0.013293852431174629,0.0043028626960821235,-0.004595063036119375,-0.013394520572807973,-0.022090330004869475,-0.03067753725666438,-0.03915141521495988,-0.047507464462361225,-0.055741413656907844,-0.0638492196266377,-0.07182706725533894,-0.07967136920524065,-0.08737876548216006,-0.09494612282928622,-0.10237053393412793,-0.10964931643559223,-0.11678001172043107,-0.1237603835004043,-0.1305884161634675,-0.13726231289783147,-0.14378049360734196,-0.15014159266761534,-0.15634445658255197,-0.16238814156748838,-0.1682719110273252,-0.17399523285029106,-0.17955777642940596,-0.18495940935898647,-0.19020019379877573,-0.19528038252137547,-0.20020041466298732,-0.20496091120100784,-0.20956267019972324,-0.21400666189453293,-0.2182940236936029,-0.2224260551445843,-0.22640421287248286,-0.23023010547505512,-0.2339054883608716,-0.23743225851446514,-0.2408124491578364,-0.2440482242507075,-0.24714187276551114,-0.25009580270993187,-0.2529125349309121,-0.2555946967846057,-0.25814501576798105,-0.2605663131787587,-0.2628614978459955,-0.2650335599832056,-0.26708556522242083,-0.26902064886060917,-0.2708420103262078,-0.2725529078840784,-0.2741566536062571,-0.27565660860581204,-0.277056178476257,-0.2783588088341202,-0.27956798085627627,-0.28068720674504155,-0.2817200251193789,-0.28266999638508217,-0.2835406981517,-0.2843357207307315,-0.2850586626917441,-0.28571312640534247,-0.286302713493193,-0.28683102014783285,-0.28730163236579404,-0.2877181212191993,-0.2880840383124224,-0.28840291150785263,-0.28867824092164956,-0.288913495150871,-0.28911210769077483,-0.2892774735069595,-0.28941294573239534,-0.2895218324643343,-0.289607393640591,-0.28967283797878635,-0.28972131996585954,-0.2897559368885044,-0.2897797258981954,-0.2897956611108736,-0.2898066507616619,-0.28981553446650676,-0.28982508065322143,-0.2898379841912991,-0.28985686419207074,-0.28988426190311684,-0.2899226386121488,-0.28997437351438404,-0.2900417615603139,-0.29012701135292995,-0.29023224317611795,-0.2903594872042867,-0.2905106819013086,-0.29068767259663963,-0.29089221022470624,-0.29112595021977355,-0.2913904515785772,-0.29168717613432865,-0.292017488096125,-0.29238265387456286,-0.2927838421564759,-0.29322212414399385,-0.29369847386440706,-0.29421376849241554,-0.2947687886713364,-0.29536421884264286,-0.2960006475971968,-0.29667856805725484,-0.29739837827978494,-0.2981603816415111,-0.2989647871566273,-0.29981170971203097,-0.3007011702632645,-0.3016330960823128,-0.30260732115717315,-0.3036235868078996,-0.3046815425385614,-0.3057807471213503,-0.30692066990456235,-0.30810069233983833,-0.30932010974187735,-0.3105781333231687,-0.31187389255492065,-0.31320643786683405,-0.3145747436211824,-0.3159777112183045,-0.31741417217212026,-0.31888289106318934,-0.32038256838024926,-0.32191184333218303,-0.3234692967255264,-0.3250534539673908,-0.3266627882084485,-0.3282957236175068,-0.329950638774823,-0.3316258701751417,-0.3333197158494811,-0.3350304391442706,-0.3367562727053483,-0.3384954226798178,-0.340246073089816,-0.34200639028366275,-0.34377452736047287,-0.34554862850262785,-0.34732683321307695,-0.34910728050647805,-0.3508881131158716,-0.35266748174140594,-0.35444354930804955,-0.35621449515003967,-0.35797851902985034,-0.3597338449372282,-0.3614787246758934,-0.3632114412970399,-0.364930312450975,-0.366633693696325,-0.36831998176413133,-0.369987617753988,-0.37163509023775226,-0.3732609382453347,-0.37486375409169703,-0.37644218597714696,-0.3779949402865177,-0.3795207835458947,-0.3810185440387537,-0.38248711310458994,-0.383925446145716,-0.3853325633661382,-0.3867075502647528,-0.3880495579035319,-0.3893578029698923,-0.39063156765105367,-0.39187019933688827,-0.393073110166545,-0.3942397764329879,-0.39536973785852103,-0.39646259675337525,-0.39751801706850287,-0.39853572335286147,-0.39951549962094185,-0.40045718811763226,-0.40136068793738594,-0.40222595344527107,-0.4030529924778555,-0.4038418643425577,-0.40459267765295187,-0.40530558803792555,-0.4059807957587787,-0.4066185432647947,-0.4072191127144918,-0.40778282348666944,-0.4083100296987633,-0.4088011177294345,-0.4092565037104111,-0.4096766309415595,-0.41006196720829563,-0.41041300200180747,-0.4107302436307034,-0.41101421620319084,-0.4112654564773671,-0.4114845105772492,-0.4116719305271369,-0.41182827053599624,-0.41195408301636893,-0.4120499143830664,-0.41211630068242544,-0.4121537630907889,-0.412162803327068,-0.41214389899784176,-0.41209749881191493,-0.41202401756583196,-0.41192383087642,-0.41179726971411973,-0.41164461477927433,-0.4114660907387602,-0.4112618603697276,-0.411032018652187,-0.41077658675769385,-0.41049550583306443,-0.4101886305736439,-0.40985572269045084,-0.4094964443763533,-0.40911035184608163,-0.40869688905085827,-0.4082553816886683,-0.40778503158672447,-0.4072849114945232,-0.40675396034544986,-0.40619097902971146,-0.40559462661796564,-0.40496341692025417,-0.40429571534905157,-0.4035897361257101,-0.4028435398071128,-0.4020550310577075,-0.40122195668205496,-0.40034190405291925,-0.39941230009236595,-0.39843041093400133,-0.3973933423824626,-0.39629804125909274,-0.3951412976534935,-0.39391974805696284,-0.39262987938040306,-0.3912680338806014,-0.38983041497582227,-0.38831309389539315,-0.3867120171373889,-0.3850230147325645,-0.38324180927233187,-0.38136402562482286,-0.37938520129472,-0.3773007974080457,-0.3751062102635804,-0.3727967833604907,-0.3703678198543655,-0.36781459545974193,-0.3651323718405165,-0.3623164105171325,-0.3593619873001187,-0.3562644072424338,-0.3530190200880118,-0.3496212361807761,-0.3460665427796217,-0.3423505206793871,-0.33846886097090434,-0.3344173817490965,-0.3301920446386442,-0.3257889711038969,-0.3212044585763241,-0.31643499644186895,-0.3114772818905723,-0.30632823558142946,-0.3009850170500941,-0.2954450397821465,-0.289705985871326,-0.28376582016468577,-0.27762280376778836,-0.2712755067764214,-0.26472282014413706,-0.2579639666773107,-0.2509985112323695,-0.24382637021242512,-0.23644782040326143,-0.2288635071254768,-0.2210744516720671,-0.21308205800987226,-0.20488811870153836,-0.19649481997244325,-0.18790474583649333,-0.1791208812024321,-0.17014661389793254,-0.16098573557874565,-0.15164244153173226,-0.1421213294000491,-0.13242739683991497,-0.12256603810251163,-0.11254303955257491,-0.10236457415138764,-0.09203719491227733,-0.08156782730614051,-0.07096376058509055,-0.060232638000705906,-0.049382445909034754,-0.038421501783515104,-0.02735844119663974,-0.016202203849360133,-0.004962018708601311,0.006352611702196241,0.01773192779741553,0.029165930132122254,0.040644397255244824,0.05215690416997784,0.06369284134087955,0.0752414341726986,0.0867917629003199,0.09833278282639071,0.10985334479637668,0.12134221577772328,0.13278809945899842,0.14417965684140902,0.15550552679731114,0.16675434655715196,0.17791477209754825,0.18897549839692218,0.19992527947458683,0.2107529481035627,0.22144743513609982,0.23199778843756108,0.24239319142591015,0.2526229811995611,0.26267666624627406,0.2725439437183146,0.2822147162075248,0.2916791079274321,0.30092748025758675,0.3099504466621281,0.31873888699690767,0.32728396120489767,0.3355771224077015,0.34361012939127095,0.3513750584311754,0.35886431437594396,0.3660706409585556,0.37298713038002335,0.37960723223942233,0.38592476187846175,0.3919339081874034,0.39762924087089996,0.40300571710243377,0.4080586874687944,0.41278390115569674,0.417177510382745,0.42123607409886177,0.42495656093688405,0.42833635144571425,0.43137323964962404,0.4340654339948321,0.43641155773660645,0.4384106488025983,0.44006215912334024,0.4413659533541272,0.4423223068881563,0.4429319031129283,0.44319582992059037,0.44311557548661507,0.4426930233202989,0.44193044661334746,0.44083050194736695,0.43939622243375365,0.43763101035372165,0.43553862935312443,0.4331231962204471,0.4303891722394803,0.4273413540928703,0.4239848643143806,0.42032514130679716,0.4163679289293258,0.41211926564713214,0.40758547325870315,0.4027731452502678,0.3976891348398938,0.39234054277023017,0.3867347049017413,0.3808791796518893,0.37478173532001263,0.36845033733257465,0.3618931354350701,0.35511845083418964,0.3481347632596066,0.3409506979025925,0.3335750122147155,0.32601658257283017,0.31828439080549076,0.3103875105665016,0.3023350935674399,0.2941363557178419,0.2858005632371664,0.2773370187999805,0.2687550477655342,0.2600639845189689,0.2512731589164758,0.24239188281295226,0.2334294366733689,0.22439505628819623,0.21529791959938094,0.20614713363204107,0.1969517215552336,0.1877206099482998,0.1784626163925747,0.16918643751279877,0.15990063754985373,0.15061363747987488,0.14133370463913708,0.1320689427981676,0.12282728265706046,0.11361647277300636,0.10444407094846998,0.09531743610758704,0.08624372068344584,0.07722986353440515,0.06828258340346201,0.059408372930894245,0.05061349322694215,0.041903969008139315,0.03328558429803633,0.024763878690462267,0.016344144171121434,0.008031422491208718,-0.0001694969151690211,-0.008254078479670862,-0.016218041525908652,-0.02405736078588095,-0.03176826642055804,-0.039347243559536664,-0.04679103137944765,-0.054096621760276964,-0.06126125759015541,-0.06828243079883375,-0.07515788016421342,-0.08188558887479423,-0.08846378178012453,-0.09489092225144118,-0.10116570861068101,-0.10728707013247667,-0.11325416264705256,-0.11906636377564671,-0.12472326783299223,-0.1302246804491338,-0.1355706129926266,-0.14076127688531256,-0.14579707786904927,-0.1506786102577763,-0.15540665121516362,-0.15998215510454572,-0.16440624792730094,-0.16868022181173534,-0.17280552947010583,-0.17678377853419877,-0.1806167257144464,-0.18430627077155012,-0.1878544503123409,-0.1912634314263761,-0.19453550518370943,-0.1976730800316554,-0.20067867515664906,-0.20355491388574565,-0.20630451717648063,-0.20893029722231032,-0.21143515121166218,-0.21382205528633863,-0.21609405871329723,-0.21825427822739252,-0.22030589245633114,-0.2222521363316997,-0.2240962954303364,-0.22584170025605546,-0.22749172052777014,-0.22904975955465692,-0.23051924874955465,-0.2319036423058609,-0.23320641207302217,-0.2344310426739875,-0.23558102688300891,-0.23665986126032362,-0.23767104205246897,-0.23861806137754987,-0.23950440368980636,-0.24033354248211153,-0.2411089371707142,-0.2418340301102821,-0.2425122436987728,-0.2431469775573694,-0.2437416058078881,-0.24429947448507086,-0.24482389909025598,-0.245318162235945,-0.24578551128416265,-0.24622915587540745,-0.24665226528833142,-0.24705796563858787,-0.24744933698218688,-0.24782941040409526,-0.2482011651417371,-0.248567525750975,-0.2489313593026881,-0.24929547259770304,-0.24966260939543125,-0.25003544767294206,-0.2504165969637002,-0.2508085958366455,-0.25121390955140516,-0.25163492790416003,-0.25207396329048976,-0.25253324902086066,-0.2530149378943174,-0.2535211009809277,-0.25405372651844127,-0.2546147188223098,-0.255205897149217,-0.2558289945191567,-0.25648565655511185,-0.257177440413723,-0.25790581385784644,-0.25867215451796105,-0.2594777494306459,-0.26032379495960883,-0.2612113971409594,-0.26214157239443525,-0.26311524847463497,-0.2641332655277845,-0.2651963771648362,-0.26630525153182555,-0.2674604724170408,-0.26866254045158916,-0.26991187443040604,-0.27120881274013725,-0.27255361486224244,-0.2739464629206147,-0.2753874632481254,-0.2768766479511357,-0.27841397645519644,-0.2799993370189115,-0.28163254820984585,-0.2833133603564486,-0.28504145702069317,-0.2868164565467981,-0.28863791371384884,-0.29050532148252195,-0.2924181128091077,-0.29437566250042946,-0.2963772890875038,-0.2984222566996244,-0.3005097769240104,-0.30263901063926313,-0.30480906981364453,-0.30701901926164865,-0.30926787835451064,-0.3115546226821979,-0.3138781856660813,-0.31623746012290455,-0.3186312997818801,-0.32105852075775054,-0.3235179029834887,-0.3260081916069757,-0.32852809835651287,-0.33107630288040135,-0.33365145405863805,-0.3362521712490837,-0.33887704537163843,-0.3415246397164159,-0.34419349042370706,-0.34688210666577757,-0.34958897059900507,-0.3523125371562893,-0.3550512337425432,-0.3578034598893379,-0.3605675869184145,-0.36334195765778443,-0.366124886252394,-0.3689146581247697,-0.3717095301668742,-0.3745077312489135,-0.37730746309414726,-0.38010690152163623,-0.3829041980348952,-0.3856974817300644,-0.38848486149368633,-0.39126442844184484,-0.39403425852209095,-0.3967924151909076,-0.3995369521162317,-0.40226591591692146,-0.40497734900263777,-0.40766929258826384,-0.41033978991781483,-0.4129868896682979,-0.4156086494505461,-0.41820313931179964,-0.4207684451826243,-0.42330267227412705,-0.42580394848395947,-0.42827042788115793,-0.4307002943054416,-0.43309176507163943,-0.4354430947480105,-0.43775257897483616,-0.44001855828799863,-0.44223942189569765,-0.4444136113277962,-0.44653962387018564,-0.448616015730919,-0.4506414049298816,-0.4526144739258754,-0.4545339719977072,-0.45639871739407256,-0.45820759926539434,-0.45995957938929377,-0.4616536937000356,-0.46328905362736633,-0.464864847231172,-0.4663803400879966,-0.4678348758758692,-0.469227876630391,-0.47055884266769654,-0.4718273521592833,-0.473033060335351,-0.47417569831286793,-0.47525507154566043,-0.47627105784975815,-0.47722360493723154,-0.4781127274452577,-0.47893850350788014,-0.4797010709228444,-0.4804006229540585,-0.48103740382218135,-0.48161170392980573,-0.4821238548170094,-0.4825742238168906,-0.48296320842104523,-0.4832912303845439,-0.4835587295411298,-0.4837661572655333,-0.4839139695858169,-0.48400262000337213,N
5,-0.2892774735069595,-0.28941294573239534,-0.2895218324643343,-0.289607393640591,-0.28967283797878635,-0.28972131996585954,-0.2897559368885044,-0.2897797258981954,-0.2897956611108736,-0.2898066507616619,-0.28981553446650676,-0.28982508065322143,-0.2898379841912991,-0.28985686419207074,-0.28988426190311684,-0.2899226386121488,-0.28997437351438404,-0.2900417615603139,-0.29012701135292995,-0.29023224317611795,-0.2903594872042867,-0.2905106819013086,-0.29068767259663963,-0.29089221022470624,-0.29112595021977355,-0.2913904515785772,-0.29168717613432865,-0.292017488096125,-0.29238265387456286,-0.2927838421564759,-0.29322212414399385,-0.29369847386440706,-0.29421376849241554,-0.2947687886713364,-0.29536421884264286,-0.2960006475971968,-0.29667856805725484,-0.29739837827978494,-0.2981603816415111,-0.2989647871566273,-0.29981170971203097,-0.3007011702632645,-0.3016330960823128,-0.30260732115717315,-0.3036235868078996,-0.3046815425385614,-0.3057807471213503,-0.30692066990456235,-0.30810069233983833,-0.30932010974187735,-0.3105781333231687,-0.31187389255492065,-0.31320643786683405,-0.3145747436211824,-0.3159777112183045,-0.31741417217212026,-0.31888289106318934,-0.32038256838024926,-0.32191184333218303,-0.3234692967255264,-0.3250534539673908,-0.3266627882084485,-0.3282957236175068,-0.329950638774823,-0.3316258701751417,-0.3333197158494811,-0.3350304391442706,-0.3367562727053483,-0.3384954226798178,-0.340246073089816,-0.34200639028366275,-0.34377452736047287,-0.34554862850262785,-0.34732683321307695,-0.34910728050647805,-0.3508881131158716,-0.35266748174140594,-0.35444354930804955,-0.35621449515003967,-0.35797851902985034,-0.3597338449372282,-0.3614787246758934,-0.3632114412970399,-0.364930312450975,-0.366633693696325,-0.36831998176413133,-0.369987617753988,-0.37163509023775226,-0.3732609382453347,-0.37486375409169703,-0.37644218597714696,-0.3779949402865177,-0.3795207835458947,-0.3810185440387537,-0.38248711310458994,-0.383925446145716,-0.3853325633661382,-0.3867075502647528,-0.3880495579035319,-0.3893578029698923,-0.39063156765105367,-0.39187019933688827,-0.393073110166545,-0.3942397764329879,-0.39536973785852103,-0.39646259675337525,-0.39751801706850287,-0.39853572335286147,-0.39951549962094185,-0.40045718811763226,-0.40136068793738594,-0.40222595344527107,-0.4030529924778555,-0.4038418643425577,-0.40459267765295187,-0.40530558803792555,-0.4059807957587787,-0.4066185432647947,-0.4072191127144918,-0.40778282348666944,-0.4083100296987633,-0.4088011177294345,-0.4092565037104111,-0.4096766309415595,-0.41006196720829563,-0.41041300200180747,-0.4107302436307034,-0.41101421620319084,-0.4112654564773671,-0.4114845105772492,-0.4116719305271369,-0.41182827053599624,-0.41195408301636893,-0.4120499143830664,-0.41211630068242544,-0.4121537630907889,-0.412162803327068,-0.41214389899784176,-0.41209749881191493,-0.41202401756583196,-0.41192383087642,-0.41179726971411973,-0.41164461477927433,-0.4114660907387602,-0.4112618603697276,-0.411032018652187,-0.41077658675769385,-0.41049550583306443,-0.4101886305736439,-0.40985572269045084,-0.4094964443763533,-0.40911035184608163,-0.40869688905085827,-0.4082553816886683,-0.40778503158672447,-0.4072849114945232,-0.40675396034544986,-0.40619097902971146,-0.40559462661796564,-0.40496341692025417,-0.40429571534905157,-0.4035897361257101,-0.4028435398071128,-0.4020550310577075,-0.40122195668205496,-0.40034190405291925,-0.39941230009236595,-0.39843041093400133,-0.3973933423824626,-0.39629804125909274,-0.3951412976534935,-0.39391974805696284,-0.39262987938040306,-0.3912680338806014,-0.38983041497582227,-0.38831309389539315,-0.3867120171373889,-0.3850230147325645,-0.38324180927233187,-0.38136402562482286,-0.37938520129472,-0.3773007974080457,-0.3751062102635804,-0.3727967833604907,-0.3703678198543655,-0.36781459545974193,-0.3651323718405165,-0.3623164105171325,-0.3593619873001187,-0.3562644072424338,-0.3530190200880118,-0.3496212361807761,-0.3460665427796217,-0.3423505206793871,-0.33846886097090434,-0.3344173817490965,-0.3301920446386442,-0.3257889711038969,-0.3212044585763241,-0.31643499644186895,-0.3114772818905723,-0.30632823558142946,-0.3009850170500941,-0.2954450397821465,-0.289705985871326,-0.28376582016468577,-0.27762280376778836,-0.2712755067764214,-0.26472282014413706,-0.2579639666773107,-0.2509985112323695,-0.24382637021242512,-0.23644782040326143,-0.2288635071254768,-0.2210744516720671,-0.21308205800987226,-0.20488811870153836,-0.19649481997244325,-0.18790474583649333,-0.1791208812024321,-0.17014661389793254,-0.16098573557874565,-0.15164244153173226,-0.1421213294000491,-0.13242739683991497,-0.12256603810251163,-0.11254303955257491,-0.10236457415138764,-0.09203719491227733,-0.08156782730614051,-0.07096376058509055,-0.060232638000705906,-0.049382445909034754,-0.038421501783515104,-0.02735844119663974,-0.016202203849360133,-0.004962018708601311,0.006352611702196241,0.01773192779741553,0.029165930132122254,0.040644397255244824,0.05215690416997784,0.06369284134087955,0.0752414341726986,0.0867917629003199,0.09833278282639071,0.10985334479637668,0.12134221577772328,0.13278809945899842,0.14417965684140902,0.15550552679731114,0.16675434655715196,0.17791477209754825,0.18897549839692218,0.19992527947458683,0.2107529481035627,0.22144743513609982,0.23199778843756108,0.24239319142591015,0.2526229811995611,0.26267666624627406,0.2725439437183146,0.2822147162075248,0.2916791079274321,0.30092748025758675,0.3099504466621281,0.31873888699690767,0.32728396120489767,0.3355771224077015,0.34361012939127095,0.3513750584311754,0.35886431437594396,0.3660706409585556,0.37298713038002335,0.37960723223942233,0.38592476187846175,0.3919339081874034,0.39762924087089996,0.40300571710243377,0.4080586874687944,0.41278390115569674,0.417177510382745,0.42123607409886177,0.42495656093688405,0.42833635144571425,0.43137323964962404,0.4340654339948321,0.43641155773660645,0.4384106488025983,0.44006215912334024,0.4413659533541272,0.4423223068881563,0.4429319031129283,0.44319582992059037,0.44311557548661507,0.4426930233202989,0.44193044661334746,0.44083050194736695,0.43939622243375365,0.43763101035372165,0.43553862935312443,0.4331231962204471,0.4303891722394803,0.4273413540928703,0.4239848643143806,0.42032514130679716,0.4163679289293258,0.41211926564713214,0.40758547325870315,0.4027731452502678,0.3976891348398938,0.39234054277023017,0.3867347049017413,0.3808791796518893,0.37478173532001263,0.36845033733257465,0.3618931354350701,0.35511845083418964,0.3481347632596066,0.3409506979025925,0.3335750122147155,0.32601658257283017,0.31828439080549076,0.3103875105665016,0.3023350935674399,0.2941363557178419,0.2858005632371664,0.2773370187999805,0.2687550477655342,0.2600639845189689,0.2512731589164758,0.24239188281295226,0.2334294366733689,0.22439505628819623,0.21529791959938094,0.20614713363204107,0.1969517215552336,0.1877206099482998,0.1784626163925747,0.16918643751279877,0.15990063754985373,0.15061363747987488,0.14133370463913708,0.1320689427981676,0.12282728265706046,0.11361647277300636,0.10444407094846998,0.09531743610758704,0.08624372068344584,0.07722986353440515,0.06828258340346201,0.059408372930894245,0.05061349322694215,0.041903969008139315,0.03328558429803633,0.024763878690462267,0.016344144171121434,0.008031422491208718,-0.0001694969151690211,-0.008254078479670862,-0.016218041525908652,-0.02405736078588095,-0.03176826642055804,-0.039347243559536664,-0.04679103137944765,-0.054096621760276964,-0.06126125759015541,-0.06828243079883375,-0.07515788016421342,-0.08188558887479423,-0.08846378178012453,-0.09489092225144118,-0.10116570861068101,-0.10728707013247667,-0.11325416264705256,-0.11906636377564671,-0.12472326783299223,-0.1302246804491338,-0.1355706129926266,-0.14076127688531256,-0.14579707786904927,-0.1506786102577763,-0.15540665121516362,-0.15998215510454572,-0.16440624792730094,-0.16868022181173534,-0.17280552947010583,-0.17678377853419877,-0.1806167257144464,-0.18430627077155012,-0.1878544503123409,-0.1912634314263761,-0.19453550518370943,-0.1976730800316554,-0.20067867515664906,-0.20355491388574565,-0.20630451717648063,-0.20893029722231032,-0.21143515121166218,-0.21382205528633863,-0.21609405871329723,-0.21825427822739252,-0.22030589245633114,-0.2222521363316997,-0.2240962954303364,-0.22584170025605546,-0.22749172052777014,-0.22904975955465692,-0.23051924874955465,-0.2319036423058609,-0.23320641207302217,-0.2344310426739875,-0.23558102688300891,-0.23665986126032362,-0.23767104205246897,-0.23861806137754987,-0.23950440368980636,-0.24033354248211153,-0.2411089371707142,-0.2418340301102821,-0.2425122436987728,-0.2431469775573694,-0.2437416058078881,-0.24429947448507086,-0.24482389909025598,-0.245318162235945,-0.24578551128416265,-0.24622915587540745,-0.24665226528833142,-0.24705796563858787,-0.24744933698218688,-0.24782941040409526,-0.2482011651417371,-0.248567525750975,-0.2489313593026881,-0.24929547259770304,-0.24966260939543125,-0.25003544767294206,-0.2504165969637002,-0.2508085958366455,-0.25121390955140516,-0.25163492790416003,-0.25207396329048976,-0.25253324902086066,-0.2530149378943174,-0.2535211009809277,-0.25405372651844127,-0.2546147188223098,-0.255205897149217,-0.2558289945191567,-0.25648565655511185,-0.257177440413723,-0.25790581385784644,-0.25867215451796105,-0.2594777494306459,-0.26032379495960883,-0.2612113971409594,-0.26214157239443525,-0.26311524847463497,-0.2641332655277845,-0.2651963771648362,-0.26630525153182555,-0.2674604724170408,-0.26866254045158916,-0.26991187443040604,-0.27120881274013725,-0.27255361486224244,-0.2739464629206147,-0.2753874632481254,-0.2768766479511357,-0.27841397645519644,-0.2799993370189115,-0.28163254820984585,-0.2833133603564486,-0.28504145702069317,-0.2868164565467981,-0.28863791371384884,-0.29050532148252195,-0.2924181128091077,-0.29437566250042946,-0.2963772890875038,-0.2984222566996244,-0.3005097769240104,-0.30263901063926313,-0.30480906981364453,-0.30701901926164865,-0.30926787835451064,-0.3115546226821979,-0.3138781856660813,-0.31623746012290455,-0.3186312997818801,-0.32105852075775054,-0.3235179029834887,-0.3260081916069757,-0.32852809835651287,-0.33107630288040135,-0.33365145405863805,-0.3362521712490837,-0.33887704537163843,-0.3415246397164159,-0.34419349042370706,-0.34688210666577757,-0.34958897059900507,-0.3523125371562893,-0.3550512337425432,-0.3578034598893379,-0.3605675869184145,-0.36334195765778443,-0.366124886252394,-0.3689146581247697,-0.3717095301668742,-0.3745077312489135,-0.37730746309414726,-0.38010690152163623,-0.3829041980348952,-0.3856974817300644,-0.38848486149368633,-0.39126442844184484,-0.39403425852209095,-0.3967924151909076,-0.3995369521162317,-0.40226591591692146,-0.40497734900263777,-0.40766929258826384,-0.41033978991781483,-0.4129868896682979,-0.4156086494505461,-0.41820313931179964,-0.4207684451826243,-0.42330267227412705,-0.42580394848395947,-0.42827042788115793,-0.4307002943054416,-0.43309176507163943,-0.4354430947480105,-0.43775257897483616,-0.44001855828799863,-0.44223942189569765,-0.4444136113277962,-0.44653962387018564,-0.448616015730919,-0.4506414049298816,-0.4526144739258754,-0.4545339719977072,-0.45639871739407256,-0.45820759926539434,-0.45995957938929377,-0.4616536937000356,-0.46328905362736633,-0.464864847231172,-0.4663803400879966,-0.4678348758758692,-0.469227876630391,-0.47055884266769654,-0.4718273521592833,-0.473033060335351,-0.47417569831286793,-0.47525507154566043,-0.47627105784975815,-0.47722360493723154,-0.4781127274452577,-0.47893850350788014,-0.4797010709228444,-0.4804006229540585,-0.48103740382218135,-0.48161170392980573,-0.4821238548170094,-0.4825742238168906,-0.48296320842104523,-0.4832912303845439,-0.4835587295411298,-0.4837661572655333,-0.4839139695858169,-0.48400262000337213,-0.4840325520333352,-0.4840041914418728,-0.48391793821459306,-0.4837741583235271,-0.48357317528165034,-0.4833152614242193,-0.48300062894794954,-0.4826294208452146,-0.48220170186645656,-0.4817174496092484,-0.481176545848343,-0.480578768202935,-0.4799237821302822,-0.47921113317581465,-0.47844023949356634,-0.4776103847351743,-0.47672071136890765,-0.47577021444377193,-0.4747577358656924,-0.4736819593104246,-0.47254140586856525,-0.47133443047635976,-0.47005921920560734,-0.4687137874999848,-0.46729597939464707,-0.4658034677134605,-0.46423375526739147,-0.4625841771169595,-0.46085190394798575,-0.45903394658059643,-0.4571271616298418,-0.455128258332298,-0.4530338065186257,-0.45084024568399794,-0.44854389511621245,-0.4461409650480291,-0.44362756877478643,-0.44099973565623946,-0.43825342492900443,-0.4353845402466603,-0.4323889448116831,-0.4292624769360742,-0.4260009659227332,-0.4226002482523753,-0.4190561841224826,-0.4153646743885214,-0.41152167790869365,-0.40752322922068496,-0.40336545641850474,-0.39904459907959877,-0.3945570261257517,-0.38989925356126853,-0.3850679620820573,-0.3800600145593055,-0.37487247336247553,-0.36950261742276425,-0.3639479588862864,-0.35820625919611215,-0.3522755444788417,-0.3461541201591065,-0.3398405847506094,-0.3333338427785162,-0.32663311679391727,-0.31973795846226094,-0.312648258741263,-0.3053642571761025,-0.2978865503107805,-0.2902160991750923,-0.2823542357902823,-0.27430266863955366,-0.26606348706098354,-0.257639164545825,-0.2490325609619495,-0.24024692373808312,-0.23128588802418482,-0.22215347582672051,-0.21285409413412104,-0.20339253206180352,-0.1937739570283847,-0.1840039099610565,-0.1740882995478422,-0.16403339557057847,-0.15384582133439584,-0.14353254519352587,-0.13310087119048386,-0.12255842884181677,-0.11191316208445096,-0.10117331736234908,-0.09034743081523028,-0.07944431453658057,-0.0684730418966689,-0.05744293198418219,-0.046363533292093896,-0.03524460679912337,-0.02409610854941749,-0.012928171777574715,-0.001751088622628156,0.009424708514024849,0.020588665927280418,0.03173012785690298,0.04283835598126887,0.05390254909648077,0.06491186293719388,0.07585543010892694,0.08672238008420292,0.09750185920047434,0.10818305061120799,0.11875519413931297,0.12920760593857347,0.13952969784705935,0.14971099636563598,0.15974116126400337,0.16961000384623856,0.1793075049038186,0.1888238323693249,0.19814935865626662,0.2072746776323249,0.21619062115694046,0.22488827513157708,0.23335899501315385,0.24159442070086426,0.24958649068720876,0.2573274554152023,0.2648098898549056,0.2720267053437402,0.2789711607327072,0.2856368728640126,0.2920178263629729,0.2981083826634954,0.30390328816328926,0.30939768145853574,0.31458709968173615,0.3194674839994869,0.3240351843253668,0.32828696329055335,0.33221999948967745,0.335831889984278,0.3391206520316951,0.34208472402434514,0.3447229656248784,0.3470346570411333,0.3490194973656981,0.3506776019581465,0.35200949892160244,0.35301612475784244,0.3536988192830352,0.3540593198694796,0.35409975503581237,0.3538226373441701,0.3532308555391205,0.35232766591981096,0.3511166830279114,0.3496018697954973,0.34778752730321255,0.34567828425425196,0.34327908620137493,0.3405951845070422,0.3376321249996316,0.33439573631288666,0.3308921179177884,0.3271276278461934,0.3231088700964484,0.3188426817342722,0.3143361197351573,0.30959644762812477,0.30463112199790787,0.2994477788964376,0.2940542202088867,0.2884584000144552,0.28266841097750595,0.2766924708005558,0.27053890876694653,0.264216152397738,0.2577327142444479,0.2510971788331229,0.24431818975584152,0.23740443687565072,0.23036464360083375,0.22320755421243788,0.21594192126702083,0.208576493113922,0.2011200015662229,0.1935811497605071,0.1859686002368106,0.17829096326673977,0.17055678545460862,0.16277453863358404,0.15495260907620878,0.1470992870362785,0.13922275663686168,0.13133108611725453,0.12343221844984054,0.11553396233615987,0.10764398358997795,0.09976979691730993,0.09191875811919738,0.08409805676997485,0.0763147094310614,0.06857555342979361,0.06088724119258595,0.05325623510241625,0.04568880284906448,0.038191013239531224,0.030768732421359024,0.023427620445738595,0.016173128091040184,0.009010493895382842,0.0019447413709321353,-0.005019323635297834,-0.011877115475315794,-0.018624271145659066,-0.02525665264095337,-0.03177034922318581,-0.03816167962342482,-0.04442719416432533,-0.0505636767397459,-0.05656814654541039,-0.062437859449299214,-0.06817030893048646,-0.07376322657808325,-0.07921458219459991,-0.08452258356289925,-0.08968567590842579,-0.09470254105095459,-0.09957209622337608,-0.10429349253581281,-0.10886611307161459,-0.1132895706232428,-0.11756370510818864,-0.12168858071715255,-0.12566448281348966,-0.12949191453252742,-0.13317159295757944,-0.13670444473458201,-0.14009160105556198,-0.14333439204213008,-0.14643434063001706,-0.14939315607004736,-0.1522127271289199,-0.1548951150313921,-0.15744254616460399,-0.1598574045621203,-0.16214222418976826,-0.16429968107324383,-0.1663325853362016,-0.16824387322640094,-0.17003659917830388,-0.1717139279214282,-0.17327912662542017,-0.17473555707201877,-0.1760866678508026,-0.17733598659558444,-0.17848711230900247,-0.1795437078335321,-0.1805094924961082,-0.18138823489892814,-0.18218374578404,-0.18289987089153875,-0.18354048376872953,-0.18410947854810797,-0.1846107627622496,-0.18504825027619617,-0.18542585438812229,-0.185747481109359,-0.18601702261590955,-0.18623835086221216,-0.18641531135404973,-0.1865517170969255,-0.18665134276636938,-0.18671791915679467,-0.18675512794092483,-0.1867665967501053,-0.1867558945952423,-0.186726527656198,-0.1866819354468918,-0.18662548734663606,-0.18656047950202934,-0.18649013211427032,-0.18641758709939435,-0.186345906057747,-0.1862780684472409,-0.18621696985014033,-0.18616542025987323,-0.1861261423603313,-0.1861017697946554,-0.1860948454268607,-0.1861078196050043,-0.18614304845323523,-0.18620279224944167,-0.1862892139546136,-0.1864043779277683,-0.18655024880447366,-0.186728690470886,-0.18694146505633033,-0.18719023190392733,-0.18747654653824827,-0.1878018596982581,-0.18816751651538874,-0.18857475588947115,-0.1890247100918403,-0.1895184046333218,-0.1900567584410744,-0.19064058436064868,-0.19127058996198865,-0.19194737861112565,-0.19267145076979775,-0.19344320549313945,-0.19426294211668252,-0.19513086215564526,-0.19604707145115677,-0.19701158257151655,-0.19802431743996354,-0.19908511014440058,-0.20019370988589472,-0.2013497840315245,-0.20255292125902605,-0.20380263481316188,-0.20509836590609323,-0.20643948726458053,-0.20782530677370473,-0.20925507112323585,-0.21072796935631402,-0.21224313625889016,-0.21379965559004258,-0.21539656320464354,-0.21703285013340293,-0.21870746566007032,-0.22041932041392914,-0.22216728950577985,-0.22395021574345103,-0.22576691293319787,-0.22761616922000852,-0.22949675037608633,-0.23140740294014275,-0.23334685714520823,-0.23531382961709138,-0.237307025848752,-0.23932514246093953,-0.24136686926009945,-0.24343089110505337,-0.24551588959432505,-0.24762054458622676,-0.24974353556394882,-0.25188354285792075,-0.2540392487376438,-0.2562093383850446,-0.25839250076117454,-0.26058742937778795,-0.26279282298498413,-0.2650073861856966,-0.2672298299873715,-0.26945887230069815,-0.2716932383947424,-0.27393166131729935,-0.27617288228517345,-0.2784156510314222,-0.28065872606792475,-0.2829008748127022,-0.285140873560382,-0.2873775073129645,-0.28960956950594907,-0.2918358616651302,-0.29405519302558325,-0.29626638014077744,-0.29846824650638837,-0.3006596222202169,-0.30283934369665255,-0.30500625345134513,-0.3071591999691565,-0.3092970376660502,-0.3114186269533359,-0.3135228344106127,-0.3156085330718408,-0.3176746028272084,-0.31971993094184903,-0.32174341269099394,-0.323743952109808,-0.32572046285495326,-0.3276718691667393,-0.329597106885551,-0.3314951244192095,-0.3333648835404761,-0.3352053599559337,-0.3370155436827371,-0.3387944393343292,-0.340541066425861,-0.34225445977375,-0.34393367001819586,-0.34557776427318965,-0.34718582690235733,-0.3487569604137126,-0.35029028644777593,-0.3517849468040892,-0.35324010444165,-0.354654944417347,-0.3560286747649921,-0.3573605273353295,-0.35864975861767334,-0.35989565055660594,-0.36109751135672513,-0.3622546762372913,-0.3633665080875234,-0.36443239799698446,-0.36545176565633153,-0.3664240596134479,-0.3673487573610906,-0.36822536525555993,-0.3690534182990045,-0.3698324798315823,-0.37056214117685926,-0.37124202126680733,-0.37187176621560397,-0.37245104872179363,-0.3729795671484229,-0.3734570442078651,-0.3738832252578488,-0.3742578762108073,-0.37458078104116566,-0.37485173890762497,-0.375070560906913,-0.3752370663905889,-0.37535107873518486,-0.37541242055006135,-0.37542090841422865,-0.3753763472369041,-0.3752785243108748,N
