0,-0.3317187069993025,-0.3356397263269616,-0.3394920044601061,-0.3432775567992602,-0.34699839215625927,-0.35065650960344735,-0.35425389541373825,-0.357792520097505,-0.3612743355467823,-0.36470127229088434,-0.368075236860813,-0.3713981092623909,-0.37467174056152885,-0.3778979505816059,-0.3810785257107524,-0.38421521682247006,-0.38730973731696994,-0.3903637612854688,-0.3933789217953473,-0.39635680929858486,-0.3992989701695685,-0.402206905372673,-0.40508206925319323,-0.40792586844568224,-0.4107396608962196,-0.41352475499399044,-0.4162824088079906,-0.4190138294304726,-0.4217201724321493,-0.42440254142944056,-0.4270619877587025,-0.42969951025337494,-0.4323160551221754,-0.4349125159287805,-0.43748973369220606,-0.44004849716332045,-0.44258954334516226,-0.4451135582873577,-0.44762117813625174,-0.45011299040291636,-0.45258953541230923,-0.45505130789815795,-0.45749875870894363,-0.4599322965947972,-0.46235229004984846,-0.4647590691862643,-0.46715292761791816,-0.46953412433604724,-0.47190288556315896,-0.4742594065721785,-0.4766038534586267,-0.4789363648571698,-0.48125705359698306,-0.4835660082900061,-0.48586329484462215,-0.4881489578975113,-0.49042302215810624,-0.4926854936619453,-0.4949363609308816,-0.4971755960395749,-0.499403155588983,-0.5016189815888622,-0.5038230022530675,-0.5060151327136108,-0.5081952756605234,-0.5103633219137386,-0.512519150931792,-0.5146626312616166,-0.5167936209339324,-0.5189119678088971,-0.5210175098761103,-0.5231100755118989,-0.5251894836965043,-0.5272555441952247,-0.5293080577094185,-0.5313468160040697,-0.5333716020185317,-0.5353821899665756,-0.5373783454307124,-0.539359825454051,-0.5413263786321738,-0.5432777452080157,-0.5452136571717612,-0.5471338383642224,-0.5490380045805983,-0.5509258636743202,-0.5527971156616835,-0.5546514528233744,-0.5564885597966007,-0.558308113656592,-0.5601097839897845,-0.5618932329565111,-0.563658115337995,-0.5654040785673106,-0.5671307627439873,-0.5688378006198002,-0.5705248175374745,-0.5721914313159427,-0.5738372520824596,-0.5754618820378733,-0.5770649151333657,-0.5786459366535945,-0.5802045227111172,-0.581740239638215,-0.5832526432510359,-0.5847412779829648,-0.5862056758972116,-0.587645355562957,-0.5890598207638904,-0.5904485590375301,-0.5918110400624543,-0.5931467138780604,-0.5944550089009961,-0.595735329740982,-0.5969870548476757,-0.5982095339865672,-0.5994020855175783,-0.6005639934910667,-0.6016945046053885,-0.6027928250286403,-0.603858117057632,-0.6048894956334554,-0.6058860247661062,-0.6068467138718365,-0.607770513991966,-0.6086563139157802,-0.6095029362735497,-0.6103091336184922,-0.6110735844785301,-0.6117948894113698,-0.6124715671379046,-0.6131020507765348,-0.6136846841592385,-0.6142177182643911,-0.6146993078459624,-0.6151275082867245,-0.6155002726594758,-0.6158154490323912,-0.6160707780980531,-0.6162638911532968,-0.6163923084121964,-0.6164534376841945,-0.6164445734913916,-0.6163628966473679,-0.6162054742750137,-0.6159692602879941,-0.6156510964023935,-0.6152477136980693,-0.6147557347060723,-0.6141716760394917,-0.6134919516211954,-0.6127128765162193,-0.6118306713352091,-0.6108414672127748,-0.6097413113985434,-0.6085261734573931,-0.6071919520370489,-0.6057344821941473,-0.6041495432994717,-0.6024328675044188,-0.6005801487155118,-0.5985870520539555,-0.5964492238040301,-0.5941623018181365,-0.5917219263141503,-0.5891237510302852,-0.5863634547311544,-0.5834367530304213,-0.5803394104676965,-0.5770672528019374,-0.5736161795080823,-0.5699821764402817,-0.5661613286015406,-0.5621498329787364,-0.5579440114186442,-0.5535403234957244,-0.5489353793013065,-0.5441259521053933,-0.5391089908639567,-0.5338816325281045,-0.5284412140946707,-0.5227852843553356,-0.5169116153190307,-0.5108182132687631,-0.504503329400305,-0.4979654700049652,-0.4912034061733784,-0.48421618298603947,-0.47700312814538953,-0.4695638600176315,-0.4618982950667625,-0.4540066546565493,-0.44588947118827016,-0.43754759355229605,-0.42898219188327896,-0.4201947616052201,-0.4111871267474804,-0.40196144251995863,-0.39252019714543457,-0.38286621294806417,-0.37300264669476596,-0.3629329891882904,-0.3526610641141883,-0.34219102614436525,-0.331527358299295,-0.3206748685728614,-0.30963868582980425,-0.2984242549937385,-0.2870373315464897,-0.27548397535450153,-0.263770543835514,-0.2519036844849887,-0.23989032678582525,-0.22773767351913782,-0.2154531914913264,-0.20304460170236543,-0.19051986898640022,-0.17788719114756527,-0.1651549876100196,-0.15233188761441843,-0.1394267180013712,-0.12644849061032154,-0.11340638931499908,-0.10030975673237735,-0.08716808065243614,-0.07399098021988777,-0.06078819188763753,-0.04756955517883756,-0.03434499830647566,-0.021124523680767268,-0.007918193321086104,0.005263885791472794,0.018411576370877238,0.03151472546371234,0.04456317905547735,0.057546796613353685,0.07045546551783813,0.08327911535830194,0.09600773208443435,0.10863137198219701,0.12114017542574256,0.13352438038220088,0.14577433566549608,0.15788051390993868,0.16983352421547332,0.18162412444463855,0.19324323317285402,0.20468194126608125,0.21593152303928248,0.2269834469801055,0.23782938604682277,0.24846122752110197,0.25887108237413026,0.2690512941374698,0.27899444729816464,0.2886933752113405,0.2981411675011338,0.30733117695033757,0.316257025900395,0.32491261214866923,0.33329211430470723,0.341389996603603,0.34920101320632796,0.3567202119888478,0.36394293779726256,0.370864835178859,0.377481850626798,0.38379023434677934,0.3897865415289325,0.3954676331388097,0.40083067626610236,0.4058731440377522,0.410592815076286,0.41498777251628716,0.4190564026192578,0.4227973929973192,0.4262097304307382,0.4292926982952595,0.43204587364296987,0.43446912395359705,0.4365626035487161,0.4383267496886565,0.43976227839651516,0.44087018002829037,0.44165171458484576,0.4421084067852031,0.44224204094095404,0.44205465564534446,0.4415485382679943,0.4407262192736892,0.4395904664232671,0.4381442789217092,0.4363908815665512,0.43433371893943845,0.43197644966085064,0.429322940687032,0.42637726160786354,0.4231436789268661,0.4196266503241477,0.41583081888491225,0.41176100726062015,0.4074222117516944,0.40281959632105885,0.39795848653288296,0.39284436339663925,0.38748285711454394,0.38187974074620584,0.37604092378821236,0.36997244565246806,0.3636804690446636,0.35717127326100423,0.3504512474087332,0.3435268835435364,0.33640476973048894,0.32909158304587016,0.3215940825208884,0.31391910201562656,0.3060735430279995,0.29806436745969633,0.2898985903528677,0.2815832726010532,0.27312551364717,0.2645324441877402,0.2558112188873776,0.24696900909638414,0.23801299557743444,0.22895036125898632,0.21978828402165457,0.21053392951367794,0.2011944440038843,0.19177694729213857,0.18228852568778142,0.172736225057308,0.16312704395203317,0.15346792683367974,0.14376575740338363,0.13402735202997232,0.1242594532851618,0.11446872360515109,0.10466173909082871,0.09484498345064402,0.08502484209781577,0.07520759641979138,0.06539941822797149,0.055606364387421864,0.04583437163434495,0.036089251595711136,0.026376686015897766,0.016702222187199828,0.007071268589400062,-0.0025109092495444944,-0.012039192668982358,-0.021508613572295845,-0.030914357901306106,-0.04025176887696141,-0.049516350002799324,-0.058703767834975405,-0.0678098545151519,-0.07683061005570888,-0.08576220437411072,-0.09460097908015988,-0.10334344901359035,-0.1119863035243254,-0.12052640749582103,-0.128960802118717,-0.13728670541511964,-0.1455015125068275,-0.15360279562599574,-0.16158830387252163,-0.1694559627181499,-0.1772038732538458,-0.18483031118375715,-0.1923337255747949,-0.19971273736595588,-0.20696613763682306,-0.21409288563971932,-0.2210921066049331,-0.227963089324594,-0.23470528351764344,-0.24131829698396925,-0.24780189256048094,-0.2541559848878188,-0.260380636993689,-0.26647605670542457,-0.2724425929091457,-0.27828073166658873,-0.28399109219336927,-0.28957442270389566,-0.2950315961314445,-0.3003636057297567,-0.30557156056076823,-0.31065668087712156,-0.3156202934114671,-0.3204638265824136,-0.3251888056272126,-0.3297968476788689,-0.33428965680952133,-0.3386690190546757,-0.3429367974246882,-0.3470949269105257,-0.35114540949337547,-0.3550903091646578,-0.3589317469597988,-0.3626718960112314,-0.366312976628526,-0.36985725141181675,-0.3733070204039048,-0.3766646162904976,-0.37993239966068465,-0.38311275433640857,-0.3862080827775114,-0.3892208015731642,-0.39215333703319954,-0.39500812088767856,-0.3977875860972495,-0.4004941627774463,-0.4031302742418883,-0.40569833316706405,-0.40820073787945677,-0.4106398687682218,-0.4130180848286169,-0.41533772033890326,-0.41760108167132115,-0.41981044424002456,-0.4219680495907012,-0.42407610263381657,-0.42613676902037156,-0.42815217265990413,-0.43012439338181585,-0.4320554647394781,-0.43394737195451594,-0.4358020499989954,-0.43762138181419097,-0.43940719666487793,-0.44116126863100347,-0.44288531524499863,-0.44458099628544334,-0.446249912731485,-0.44789360587432153,-0.44951355657937603,-0.45111118469328876,-0.4526878485897784,-0.4542448448490627,-0.4557834080681008,-0.45730471080035284,-0.4588098636218521,-0.4602999153181038,-0.4617758531864696,-0.4632386034495067,-0.4646890317742171,-0.46612794389174467,-0.4675560863130778,-0.4689741471371686,-0.47038275694722,-0.4717824897903463,-0.47317386423671615,-0.47455734451503473,-0.47593334172047813,-0.47730221509056264,-0.4786642733452711,-0.48001977608844865,-0.48136893526651164,-0.48271191667903374,-0.48404884153524247,-0.4853797880507265,-0.48670479307890535,-0.48802385377138136,-0.48933692926029837,-0.4906439423557397,-0.4919447812528791,-0.49323930124571336,-0.4945273264453066,-0.49580865150070796,-0.4970830433205557,-0.4983502427925736,-0.49960996649683204,-0.500861908408248,-0.5021057415848581,-0.5033411198386334,-0.5045676793837978,-0.5057850404568484,-0.5069928089047844,-0.5081905777400162,-0.5093779286593678,-0.5105544335237435,-0.5117196557970776,-0.5128731519449106,-0.5140144727916554,-0.5151431648345677,-0.5162587715139626,-0.5173608344391418,-0.5184488945653896,-0.5195224933154079,-0.5205811736429442,-0.5216244810407373,-0.5226519644937937,-0.5236631773774059,-0.5246576783014001,-0.5256350319017973,-0.5265948095747286,-0.5275365901443065,-0.5284599604618156,-0.5293645159363445,-0.5302498609891622,-0.5311156094198384,-0.5319613846809417,-0.5327868200635826,-0.5335915587864108,-0.534375253974869,-0.5351375685286888,-0.5358781748809891,-0.5365967546365522,-0.5372929980680947,-0.5379666034672101,-0.5386172763590056,-0.5392447285726651,-0.539848677149189,-0.5404288430879773,-0.5409849499456507,-0.5415167222750485,-0.5420238838769664,-0.5425061558656433,-0.5429632545674673,-0.5433948892416466,-0.5438007595918729,-0.5441805530735955,-0.5445339420252486,-0.5448605806138349,-0.5451601015602419,-0.5454321126539758,-0.5456761931006402,-0.5458918897061293,-0.5460787128724158,-0.5462361324265158,-0.5463635733390059,-0.5464604113424033,-0.5465259684256186,-0.5465595082314773,-0.5465602314223738,-0.5465272710275025,-0.5464596877462903,-0.5463564652386371,-0.546216505478906,-0.5460386242015604,-0.5458215464253134,-0.5455639020949884,-0.5452642219213296,-0.5449209334433646,-0.5445323572933564,-0.5440967036995269,-0.5436120693097873,-0.5430764343704105,-0.5424876602492766,-0.5418434873409431,-0.5411415334290143,-0.5403792925258005,-0.5395541341632523,-0.5386633031586616,-0.5377039199225517,-0.5366729813281232,-0.5355673621176174,-0.5343838168640123,-0.5331189825442821,-0.5317693817334412,-0.5303314263861385,-0.5288014222121867,-0.5271755736894544,-0.5254499897174126,-0.5236206898758443,-0.5216836112849847,-0.5196346160905323,-0.51746949955493,-0.5151839986995825,-0.5127738014746912,-0.5102345564617088,-0.507561883075963,-0.5047513822036032,-0.5017986472385959,-0.4986992755170022,-0.49544888011855404,-0.4920431019772632,-0.48847762226567343,-0.4847481750369457,-0.48085056007815535,-0.4767806559019478,-0.4725344328294238,-0.46810796614339617,-0.46349744927149666,-0.4586992069376005,-0.4537097082386831,-0.4485255796212701,-0.44314361771057115,-0.4375608019268013,-0.43177430684269436,-0.4257815142561704,-0.41958002493835356,-0.41316767000262955,-0.40654252185601847,-0.39970290471087366,-0.3926474046253142,-0.38537487902976986,-0.3778844657083476,-0.3701755912155951,-0.3622479787010951,-0.35410165510594177,-0.3457369577053408,-0.33715453998389705,-0.32835537682785637,-0.3193407690136449,-0.3101123469775715,-0.30067207385860906,-0.2910222478049367,-0.2811655035322662,-0.2711048131259774,-0.2608434860862329,-0.2503851686195057,-0.23973384218041108,-0.22889382126657934,-0.217869750470051,-0.20666660079236623,-0.19528966523256433,-0.18374455365594114,-0.17203718695468875,-0.160173790522702,-0.14816088707221645,-0.13600528881147242,-0.12371408899644562,-0.11129465287774562,-0.0987546080700141,-0.0861018343635979,-0.0733444529956057,-0.060490815412438434,-0.047549491565015686,-0.034529257764617315,-0.02143908411765654,-0.008288121571621421,0.004914311385314305,0.01815874234242876,0.0314355588811932,0.04473502274440521,0.05804728420418797,0.07136239659442999,0.08467033098950232,0.09796099099196436,0.1112242275775495,0.12444985396793481,0.13762766051897143,0.15074742959094897,0.16379895035140132,0.17677203348403256,0.18965652579321365,0.2024423246666147,0.21511939233982733,0.2276777699356635,0.2401075912736074,0.2523990964190258,0.26454264492181856,0.27652872872421164,0.2883479847411451,0.29999120708888694,0.3114493589159434,0.3227135838213716,0.3337752168688367,0.3446257951724433,0.3552570680065049,0.36566100642723487,0.37582981242498203,0.38575592759736976,0.3954320413096647,0.40485109834186367,0.41400630604961025,0.4228911410358785,0.43149935530535727,0.4398249819054359,0.4478623400822635,0.45560603994562593,0.4630509866097077,0.4701923838130895,0.4770257370536022,0.4835468562452665,0.48975185787891173,0.495637166699435,0.5011995169386831,0.5064359531113394,0.5113438303549311,0.515920814326781,0.520164880698387,0.5240743142588284,0.5276477076133723,N,,,,,,,,,,,,,,,,,,,,,,,,,,,,,,,,,,,,,,,,,,,,,,,,,,,,,,,,,,,,,,,,,,,,,,,,,,,,,,,,,,,,,,,,,,,,,,,,,,,,,,,,,,,,,,,,,,,,,,,,,,,,,,,,,,,,,,,,,,,,,,,,,,,,,,,,,,,,,,,,,,,,,,,,,,,,,,,,,,,,,,,,,,,,,,,,,,,,,,,,,,,,,,,,,,,,,,,,,,,,,,,,,,,,,,,,,,,,,,,,,,,,,,,,,,,,,,,,,,,,,,,,,,,,,,,,,,,,,,,,,,,,,,,,,,,,,,,,,,,,,,,,,,,,,,,
1,-0.28879536508604586,-0.29245161409576037,-0.29600859283384084,-0.29946870324004105,-0.30283438338863033,-0.3061081028113627,-0.30929235788066095,-0.3123896672569974,-0.315402567407359,-0.3183336082047192,-0.3211853486140882,-0.323960352466372,-0.32666118432376556,-0.32929040544313615,-0.33185056984097433,-0.3343442204617459,-0.33677388545611014,-0.339142074578566,-0.34145127570941713,-0.34370395150131994,-0.34590253615291255,-0.3480494323145199,-0.3501470081276746,-0.3521975943974514,-0.35420348189974754,-0.35616691882819557,-0.3580901083820174,-0.35997520649327,-0.36182431969496864,-0.3636395031340407,-0.3654227587294392,-0.36717603347200867,-0.36890121786433583,-0.37060014450084444,-0.372274586785971,-0.37392625778555294,-0.3755568092077258,-0.37716783051127983,-0.378760848138594,-0.3803373248709181,-0.38189865930836886,-0.3834461854793805,-0.3849811725801094,-0.3865048248393433,-0.3880182815044105,-0.3895226169449025,-0.3910188408697307,-0.39250789865197444,-0.39399067175781843,-0.39546797827740543,-0.3969405735539633,-0.398409150906343,-0.3998743424418012,-0.40133671995726283,-0.4027967959255524,-0.40425502456094253,-0.4057118029586432,-0.4071674723037829,-0.40862231914486313,-0.41007657672553,-0.4115304263682854,-0.4129839989042904,-0.4144373761440717,-0.41589059238451787,-0.4173436359480579,-0.4187964507503591,-0.4202489378936003,-0.42170095728433643,-0.42315232927792557,-0.42460283635252183,-0.4260522248126798,-0.4275002065174015,-0.42894646062315045,-0.4303906353315846,-0.43183234963495953,-0.4332711950562421,-0.434706737383045,-0.4361385183948404,-0.43756605758268075,-0.4389888538597626,-0.44040638725975434,-0.44181812061932746,-0.44322350124231635,-0.4446219625430895,-0.44601292566483475,-0.447395801067621,-0.4487699900828353,-0.450134886430051,-0.45148987768724386,-0.45283434670317574,-0.45416767294630184,-0.455489233788593,-0.456798405718621,-0.4580945654756819,-0.4593770911022003,-0.46064536291289787,-0.46189876436881144,-0.4631366828392189,-0.46435851024590236,-0.46556364359177416,-0.4667514853653426,-0.4679214438059872,-0.46907293302786357,-0.4702053730050113,-0.47131818939924397,-0.47241081320145284,-0.47348268018027123,-0.47453323014832877,-0.4755619060353962,-0.4765681527440669,-0.4775514157902434,-0.4785111397476298,-0.47944676648615014,-0.480357733175685,-0.4812434700607027,-0.4821033980352552,-0.4829369260140564,-0.4837434480723826,-0.48452234036716746,-0.48527295787933733,-0.4859946309765415,-0.486686661767159,-0.48734832026324393,-0.48797884040564876,-0.4885774159612569,-0.4891431962697733,-0.4896752818676185,-0.4901727200573432,-0.4906345004477471,-0.49105955045446575,-0.4914467307976868,-0.4917948310669093,-0.4921025653668886,-0.49236856801789325,-0.4925913893396812,-0.49276949159715216,-0.49290124513899275,-0.4929849247194132,-0.49301870604222175,-0.49300066260610764,-0.49292876287715615,-0.4928008677708755,-0.49261472847559507,-0.4923679846910809,-0.4920581633059462,-0.4916826774937131,-0.4912388262539917,-0.490723794466058,-0.4901346534748862,-0.48946836218705875,-0.4887217686954669,-0.48789161248756907,-0.4869745272454119,-0.48596704420426395,-0.4848655960757446,-0.48366652157658113,-0.4823660705625718,-0.48096040972881376,-0.4794456288717061,-0.4778177477404119,-0.4760727234689172,-0.4742064585448464,-0.472214809299454,-0.4700935949269602,-0.4678386070028286,-0.46544561943760304,-0.4629103988338032,-0.46022871524430714,-0.45739635330429923,-0.45440912368129144,-0.45126287480963856,-0.4479535048940597,-0.4444769741353125,-0.44082931710516804,-0.4370066552241045,-0.43300520932254244,-0.42882131224838677,-0.42445142146324993,-0.4198921315869822,-0.4151401868646261,-0.41019249350672166,-0.4050461318349326,-0.3996983681863997,-0.39414666655383734,-0.38838869992829994,-0.3824223612979567,-0.3762457742688903,-0.36985730328680844,-0.3632555634270671,-0.35643942970915776,-0.3494080459031335,-0.34216083280663173,-0.33469749596178017,-0.3270180327725743,-0.3191227389949762,-0.311012214586227,-0.30268736889847786,-0.2941494251969707,-0.2853999244885434,-0.27644072865393937,-0.2672740228773544,-0.25790231736423647,-0.24832844834079754,-0.23855557833381763,-0.2285871957325541,-0.21842711363484907,-0.20807946797838603,-0.19754871495880186,-0.18683962774005977,-0.17595729246453637,-0.16490710356874208,-0.15369475841305516,-0.1423262512436734,-0.1308078665099717,-0.11914617155355835,-0.10734800868186113,-0.09542048664935389,-0.08337097157620706,-0.0712070773248648,-0.05893665534956087,-0.046567784046425906,-0.03410875764042097,-0.021568074633489275,-0.008954425830642801,0.003723318024442776,0.01645611896239074,0.029234784821892377,0.04204998258486665,0.05489225197393808,0.06775201926030613,0.08061961124999313,0.09348526943170295,0.10633916425088753,0.11917140946057982,0.13197207652052662,0.14473120903160613,0.15743883717066426,0.17008499207491862,0.1826597201485762,0.19515309728122962,0.20755524294225955,0.2198563340973467,0.23204661892095652,0.2441164303005417,0.2560561991029216,0.2678564671538484,0.2795078999109678,0.29100129883411385,0.30232761343105297,0.3134779529361672,0.3244435976084392,0.3352160096564998,0.34578684376735835,0.3561479571925168,0.3662914193786821,0.37620952115765677,0.3858947834803907,0.3953399656564586,0.40453807309405104,0.41348236456380144,0.4221663589801587,0.43058384166952063,0.4387288701272839,0.4465957792934062,0.4541791863457406,0.46147399498526875,0.46847539921938797,0.4751788866747022,0.4815802414373058,0.4876755463922158,0.49346118506877273,0.4989338430308253,0.5040905088238894,0.508928474466579,0.5134453355027966,0.5176389906560259,0.521507641097847,0.5250497893177619,0.5282642376094833,0.531150086212087,0.5337067311145955,0.535933861507746,0.5378314568955058,0.5393997839041609,0.5406393928000075,0.54155111370301,0.5421360525104383,0.5423955865679496,0.5423313600999896,0.5419452793886909,0.5412395077153487,0.5402164601012125,0.538878797861462,0.5372294229650973,0.5352714722151926,0.5330083112832797,0.5304435286094007,0.5275809291594462,0.5244245280512756,0.5209785440775649,0.5172473931301573,0.5132356815114376,0.5089481991399607,0.504389912679001,0.4995659586010271,0.4944816361845979,0.4891424004555279,0.48355385509684845,0.4777217453325807,0.4716519507741225,0.4653504782349378,0.45882345453464835,0.4520771192977926,0.4451178177380086,0.43795199343329,0.430586181110365,0.42302699943932004,0.41528114382558473,0.40735537920296394,0.39925653284861784,0.3909914872313113,0.38256717289283004,0.37399056137233955,0.365268658190947,0.35640849589879986,0.3474171271753681,0.3383016179858929,0.32906904080729366,0.3197264679236356,0.3102809647803864,0.30073958339989754,0.29110935587295733,0.28139728793115343,0.2716103525950501,0.26175548390387654,0.25183957074132485,0.2418694507603881,0.23185190440051215,0.22179364900161871,0.21170133302964392,0.2015815304182235,0.19144073502216755,0.1812853551888079,0.1711217084633278,0.16095601643611718,0.1507943997320796,0.1406428731496808,0.13050734096401082,0.12039359239846922,0.11030729726162389,0.10025400175424008,0.09023912445914171,0.08026795251856954,0.07034563799632736,0.060477194429298664,0.0506674935789268,0.04092126238456423,0.03124308011334417,0.02163737570897935,0.012108425348974997,0.002660350212621665,-0.006702885544521021,-0.015977476607588338,-0.02515977810421373,-0.034246306993771236,-0.04323374325363569,-0.05211893086386266,-0.06089887858423077,-0.06957076052437723,-0.07813191651411901,-0.08657985227410567,-0.09491223938055052,-0.10312691502412377,-0.1112218815691072,-0.11919530591306524,-0.12704551864182342,-0.13477101298031333,-0.14237044354539893,-0.14984262490211764,-0.1571865299209514,-0.16440128794018238,-0.17148618274278893,-0.1784406503513068,-0.185264276635067,-0.19195679472234356,-0.1985180822126909,-0.20494815818793086,-0.21124718002713092,-0.2174154400421303,-0.22345336195533946,-0.229361497235165,-0.2351405212990139,-0.24079122959879642,-0.24631453360787428,-0.2517114567219397,-0.2569831300801802,-0.26213078831679454,-0.2671557652566357,-0.2720594895632789,-0.27684348034119394,-0.2815093426943594,-0.2860587632462946,-0.2904935056258277,-0.2948154059251144,-0.2990263681450071,-0.3031283596471707,-0.3071234066252074,-0.3110135895996505,-0.3148010389436407,-0.3184879304490296,-0.32207648093840663,-0.32556894392430386,-0.3289676053194261,-0.3322747792045792,-0.33549280365818596,-0.3386240366496274,-0.34167085200337005,-0.34463563544402126,-0.3475207807278735,-0.3503286858619512,-0.3530617494138901,-0.35572236691855097,-0.35831292738408826,-0.3608358098975267,-0.36329338033309677,-0.3656879881692011,-0.36802196341622695,-0.3702976136529892,-0.3725172211700034,-0.37468304021950827,-0.3767972943717309,-0.3788621739785705,-0.38087983375199036,-0.38285239046733915,-0.3847819207964805,-0.3866704592697035,-0.3885199963658848,-0.39033247673210864,-0.39210979753162706,-0.3938538069170883,-0.3955663026284056,-0.39724903071664347,-0.39890368439284823,-0.4005319029986801,-0.40213527109804953,-0.40371531769087704,-0.40527351554722535,-0.4068112806562907,-0.40832997178435204,-0.40983089013685015,-0.4113152791198434,-0.4127843241968581,-0.4142391528398344,-0.41568083457440347,-0.4171103811180829,-0.4185287466085778,-0.41993682792091475,-0.4213354650733869,-0.42272544172039767,-0.4241074857280214,-0.42548226982825127,-0.4268504123487185,-0.42821247801415585,-0.4295689788154584,-0.43092037494321445,-0.43226707578342194,-0.4336094409722746,-0.4349477815055287,-0.4362823608975177,-0.43761339638521624,-0.4389410601734,-0.4402654807181771,-0.4415867440478675,-0.4429048951209153,-0.4442199392192083,-0.44553184337271623,-0.44684053780933053,-0.44814591742350873,-0.4494478432588436,-0.4507461440009835,-0.4520406174770842,-0.45333103215780063,-0.4546171286590663,-0.4558986212419573,-0.4571751993084638,-0.4584465288905996,-0.4597122541309934,-0.46097199875234923,-0.46222536750984816,-0.463471947619239,-0.46471131015659095,-0.46594301142774563,-0.46716659430250784,-0.468381589506881,-0.46958751687072897,-0.47078388653100933,-0.4719702000869458,-0.4731459517011064,-0.47431062914473243,-0.47546371478664506,-0.4766046865164367,-0.4777330185883707,-0.4788481823811133,-0.47994964707240345,-0.4810368802155856,-0.48210934819846046,-0.4831665165786853,-0.4842078502975497,-0.4852328137573347,-0.4862408707380576,-0.4872314841491541,-0.4882041156242419,-0.4891582249464919,-0.4900932692794165,-0.49100870220306914,-0.49190397257274765,-0.49277852319221505,-0.4936317892770006,-0.4944631967130665,-0.49527216013492803,-0.49605808081344105,-0.49682034432179345,-0.4975583179864557,-0.4982713481557319,-0.498958757278298,-0.4996198407571428,-0.5002538635914161,-0.5008600568559666,-0.5014376140292068,-0.5019856871495719,-0.5025033828270625,-0.5029897581693047,-0.5034438166311955,-0.5038645037608661,-0.5042507028687344,-0.5046012306898808,-0.5049148330613906,-0.5051901805971448,-0.5054258643958773,-0.505620391861648,-0.5057721826649333,-0.5058795648305336,-0.5059407709906537,-0.5059539348843954,-0.5059170881327443,-0.5058281572743012,-0.5056849610973672,-0.5054852083452702,-0.505226495818271,-0.5049063068503364,-0.5045220101890662,-0.5040708593507119,-0.5035499924732978,-0.5029564326468043,-0.5022870887439633,-0.5015387568142878,-0.5007081220566351,-0.4997917613428632,-0.4987861463053575,-0.49768764703667706,-0.4964925364047503,-0.49519699494645625,-0.4937971163393786,-0.4922889134857329,-0.4906683252034718,-0.48893122348251805,-0.4870734212944763,-0.48509068096897945,-0.4829787231073204,-0.48073323596842954,-0.47834988529657496,-0.4758243245939183,-0.47315220581157036,-0.4703291904025738,-0.4673509607055452,-0.4642132316492497,-0.4609117627350396,-0.4574423702256977,-0.45380093949700107,-0.44998343753555603,-0.44598592554277183,-0.44180457158112696,-0.43743566322071165,-0.432875620162995,-0.42812100679313153,-0.42316854459041514,-0.41801512435071075,-0.4126578181998962,-0.4070938913624179,-0.4013208136321348,-0.3953362705095069,-0.38913817398554706,-0.382724672937534,-0.3760941630869692,-0.36924529648617765,-0.3621769905169656,-0.3548884363753704,-0.3473791070056844,-0.33964876445856784,-0.3316974666608291,-0.32352557357769773,-0.3151337527404351,-0.3065229841208869,-0.29769456434497105,-0.28865011023382764,-0.2793915616562827,-0.2699211836821501,-0.260241568034557,-0.2503556338408698,-0.24026662767985962,-0.22997812292400296,-0.21949401837990254,-0.20881853623350796,-0.19795621930743665,-0.18691192763593423,-0.17569083436524102,-0.16429842099535885,-0.15274047198284402,-0.14102306871742024,-0.129152582881117,-0.11713566920638065,-0.10497925765490103,-0.09269054503176388,-0.08027698604724504,-0.06774628385251469,-0.055106380083829225,-0.0423654444370375,-0.02953186378445547,-0.01661423085796885,-0.003621332531499163,0.009437862275947615,0.022554215061785145,0.03571843053236948,0.04892106968088018,0.062152563122432974,0.07540322467080626,0.08866326512224201,0.10192280619814051,0.11517189461887951,0.12840051629727922,0.1415986106217293,0.15475608478432,0.16786282812919465,0.18090872650947568,0.19388367661597597,0.20677760022357464,0.2195804583267912,0.23228226515551212,0.2448731020365316,0.25734313104779805,0.26968260844066655,0.28188189782787304,0.2939314831087341,0.3058219810828549,0.3175441537332099,0.32908892018216485,0.34044736829464217,0.35161076588049733,0.3625705714809699,0.37331844475149606,0.38384625642564235,0.39414609782219373,0.4042102898884639,0.4140313917960812,0.42360220907174667,0.43291580122035717,0.44196548883401593,0.45074486021132404,0.4592477774818942,0.46746838220599757,0.4754011004529338,0.4830406473897685,0.49038203138088987,0.4974205575729861,0.5041518309731766,0.5105717590555926,0.516676553900078,0.5224627338404474,0.5279271246326985,0.5330668601816609,0.5378793828340128,0.5423624432195361,0.5465140996541791,0.5503327171461645,0.5538169660174856,0.556965820127709,0.5597785547162745,0.5622547439050926,0.5643942578753266,0.5661972597076016,0.5676642019022264,0.56879582262068,0.5695931416642905,0.5700574561828347,0.5701903361295088,0.5699936194983363,0.5694694073526451,0.5686200586304205,0.5674481847376637,0.565956643964607,0.5641485357383563,0.5620271947050136,0.5595961846550475,0.5568592923241533,0.5538205210802787,0.5504840844881309,0.5468543997617947,0.5429360811334394,0.5387339331463565,0.5342529438627615,0.5294982779946916,0.5244752699825438,0.5191894170278607,0.5136463720706935,0.5078519367179911,0.501812054142876,0.4955328019558326,0.48902038503324163,0.48228112830666864,0.47532146953469995,0.4681479520677921,0.46076721760373235,0.4531859989427305,0.44541111275994116,0.4374494523966621,0.4293079806584317,0.4209937226225647,0.41251375847099553,0.40387521635223905,0.3950852652649384,0.3861511079679152,0.37707997393337656,0.36787911234925175,0.35855578516640185,0.34911726019672285,0.33957080427672015,0.3299236764991854,0.3201831215057337,0.31035636284424795,0.30045059640606453,0.2904729839489927,0.2804306467036438,0.27033065906959136,0.2601800424160768,0.2499857589931043,0.2397547059507066,0.22949370947230235,0.21920951903482883,0.20890880179896193,0.1985981371249687,0.18828401121830882,0.17797281191624756,0.16767082361770044,0.1573842223510453,0.1471190709837886,0.1368813145869475,0.12667677596080515,0.11651115132213949,0.10639000615929242,0.09631877126593272,0.08630273895511295,0.07634705944821205,0.06645673744168312,0.05663662886279142,0.04689143782007383,0.03722571374829046,0.027643848753181578,0.018150075165874503,0.008748463309571805,-0.0005570805249007271,-0.009762815892280785,-0.018865169787597915,-0.027860738022234547,-0.03674628638695769,-0.04551875160137923,-0.054175242043536916,-0.0627130382587889,-0.07112959325253468,-0.07942253256638794,-0.08758965413343418,-0.09562892791449702,-0.10353849532261801,-0.11131666843784428,-0.1189619290102203,-0.12647292725498283,-0.13384848044906472,-0.14108757133240588,-0.1481893463115945,-0.15515311346665348,-0.1619783403659731,-0.16866465169165165,-0.1752118266759852,-0.1816197963561391,-0.1878886406586032,-0.1940185853203233,-0.20000999864882457,-0.20586338812736965,-0.21157939687500454,-0.21715879996772713,-0.22260250062335607,-0.22791152625581956,-0.2330870244079175,-0.23813025856946934,-0.24304260388735943,-0.2478255427804572,-0.252480660476341,-0.25700964048110414,-0.26141425998741447,-0.2656963852277154,-0.26985796678224666,-0.27390103484876743,-0.27782769447854144,-0.28164012078665995,-0.28534055414768394,-0.28893129538435375,-0.29241470095372396,-0.29579317813702605,-0.2990691802418531,-0.30224520182306275,-0.30532377392627813,-0.30830745935918363,-0.3111988479975866,-0.31400055213263656,-0.3167152018671191,-0.31934544057469627,-0.3218939204387379,-0.3243632980817125,-0.3267562302892252,-0.32907536983177843,-0.3313233613885048,-0.3335028375758606,-0.33561641508320456,-0.3376666909190013,-0.3396562387728596,-0.3415876054974095,-0.34346330771432043,-0.34528582855301304,-0.3470576145326659,-0.3487810725935578,-0.35045856727852914,-0.35209241806499975,-0.35368489684900734,-0.35523822558099993,-0.3567545740509662,-0.35823605782073453,-0.3596847363021517,-0.361102610979384,-0.3624916237731821,-0.3638536555459637,-0.3651905247473881,-0.3665039861993888,-0.3677957300190095,-0.3690673806782067,-0.37032049620042357,-0.37155656749287413,-0.37277701781271333,-0.3739832023659623,-0.37517640803858987,-0.3763578532580213,-0.37752868798169026,-0.37868999380853696,-0.3798427842094353,-0.3809880048725966,-0.3821265341593671,-0.38325918366464123,-0.3843866988758233,-0.38550975992558034,-0.386628982434732,-0.38774491844118253,-0.3888580574104388,-0.38996882732414745,-0.3910775958431469,-0.39218467153954734,-0.393290305191408,-0.3943946911358833,-0.39549796867931497,-0.39660022356285096,-0.3977014894815516,-0.39880174965507786,-0.3999009384461166,-0.4009989430177022,-0.4020956050185559,-0.40319072229024866,-0.4042840505952989,-0.40537530536564037,-0.406464163469783,-0.4075502649980796,-0.4086332150650312,-0.4097125856230784,-0.41078791727999736,-0.411858721115915,-0.41292448049922686,-0.41398465289798997,-0.41503867168112535,-0.41608594790805714,-0.4171258721116819,-0.4181578160819636,-0.41918113465659207,-0.42019516752225533,-0.4211992410221624,-0.422192669953474,-0.42317475933396503,-0.4241448061261097,-0.42510210091432277,-0.42604592952660014,-0.42697557458820756,-0.4278903170024255,-0.4287894373568697,-0.4296722172433445,-0.43053794047332805,-0.4313858941825421,-0.43221536982360237,-0.4330256640301437,-0.43381607932723626,-0.4345859246804544,-0.43533451588605154,-0.43606117578408754,-0.43676523426437996,-0.4374460280601579,-0.4381029003426599,-0.4387352001086417,-0.4393422813381031,-0.4399235019261506,-0.4404782224084508,-0.441005804466584,-0.44150560917926585,-0.4419769950227371,-0.44241931565085185,-0.4428319174510285,-0.4432141368480598,-0.44356529736949185,-0.44388470651769935,-0.4441716524552614,-0.44442540048179086,-0.4446451893246851,-0.44483022729835786,-0.444979688340266,-0.4450927078984893,-0.4451683786960356,-0.4452057464361778,-0.44520380546512056,-0.4451614943710753,-0.4450776915509873,-0.44495121081660094,-0.4447807970590383,-0.444565121949992,-0.44430277971329596,-0.44399228304928623,-0.44363205924841936,-0.4432204464892185,-0.44275569036250506,-0.4422359406995465,-0.44165924872493945,-0.4410235645101245,-0.44032673475634515,-0.43956650098473943,-0.43874049816800637,-0.43784625379598224,-0.4368811874080971,-0.43584261065870633,-0.4347277279302846,-0.43353363746645623,-0.4322573330392563,-0.4308957062037291,-0.4294455491508298,-0.42790355812982495,-0.4262663374467596,-0.4245304040763706,-0.4226921928823281,-0.42074806240280055,-0.4186943011920075,-0.4165271347386666,-0.41424273294418806,-0.41183721810872825,-0.4093066734040039,-0.40664715183975947,-0.4038546856964543,-0.4009252963652337,-0.39785500456374867,-0.39463984091909243,-0.3912758568733713,-0.38775913583773536,-0.38408580455168456,-0.38025204463437684,-0.3762541042891098,-0.37208831009687654,-0.367751078860005,-0.36323892948057923,-0.35854849483448537,-0.35367653357951456,-0.34861994185807926,-0.34337576487505767,-0.33794120830854907,-0.3323136494913563,-0.3264906483231007,-0.320469957893611,-0.314249534779657,-0.30782754895998177,-0.3012023933141756,-0.2943726926918315,N
2,-0.3148010389436407,-0.3184879304490296,-0.32207648093840663,-0.32556894392430386,-0.3289676053194261,-0.3322747792045792,-0.33549280365818596,-0.3386240366496274,-0.34167085200337005,-0.34463563544402126,-0.3475207807278735,-0.3503286858619512,-0.3530617494138901,-0.35572236691855097,-0.35831292738408826,-0.3608358098975267,-0.36329338033309677,-0.3656879881692011,-0.36802196341622695,-0.3702976136529892,-0.3725172211700034,-0.37468304021950827,-0.3767972943717309,-0.3788621739785705,-0.38087983375199036,-0.38285239046733915,-0.3847819207964805,-0.3866704592697035,-0.3885199963658848,-0.39033247673210864,-0.39210979753162706,-0.3938538069170883,-0.3955663026284056,-0.39724903071664347,-0.39890368439284823,-0.4005319029986801,-0.40213527109804953,-0.40371531769087704,-0.40527351554722535,-0.4068112806562907,-0.40832997178435204,-0.40983089013685015,-0.4113152791198434,-0.4127843241968581,-0.4142391528398344,-0.41568083457440347,-0.4171103811180829,-0.4185287466085778,-0.41993682792091475,-0.4213354650733869,-0.42272544172039767,-0.4241074857280214,-0.42548226982825127,-0.4268504123487185,-0.42821247801415585,-0.4295689788154584,-0.43092037494321445,-0.43226707578342194,-0.4336094409722746,-0.4349477815055287,-0.4362823608975177,-0.43761339638521624,-0.4389410601734,-0.4402654807181771,-0.4415867440478675,-0.4429048951209153,-0.4442199392192083,-0.44553184337271623,-0.44684053780933053,-0.44814591742350873,-0.4494478432588436,-0.4507461440009835,-0.4520406174770842,-0.45333103215780063,-0.4546171286590663,-0.4558986212419573,-0.4571751993084638,-0.4584465288905996,-0.4597122541309934,-0.46097199875234923,-0.46222536750984816,-0.463471947619239,-0.46471131015659095,-0.46594301142774563,-0.46716659430250784,-0.468381589506881,-0.46958751687072897,-0.47078388653100933,-0.4719702000869458,-0.4731459517011064,-0.47431062914473243,-0.47546371478664506,-0.4766046865164367,-0.4777330185883707,-0.4788481823811133,-0.47994964707240345,-0.4810368802155856,-0.48210934819846046,-0.4831665165786853,-0.4842078502975497,-0.4852328137573347,-0.4862408707380576,-0.4872314841491541,-0.4882041156242419,-0.4891582249464919,-0.4900932692794165,-0.49100870220306914,-0.49190397257274765,-0.49277852319221505,-0.4936317892770006,-0.4944631967130665,-0.49527216013492803,-0.49605808081344105,-0.49682034432179345,-0.4975583179864557,-0.4982713481557319,-0.498958757278298,-0.4996198407571428,-0.5002538635914161,-0.5008600568559666,-0.5014376140292068,-0.5019856871495719,-0.5025033828270625,-0.5029897581693047,-0.5034438166311955,-0.5038645037608661,-0.5042507028687344,-0.5046012306898808,-0.5049148330613906,-0.5051901805971448,-0.5054258643958773,-0.505620391861648,-0.5057721826649333,-0.5058795648305336,-0.5059407709906537,-0.5059539348843954,-0.5059170881327443,-0.5058281572743012,-0.5056849610973672,-0.5054852083452702,-0.505226495818271,-0.5049063068503364,-0.5045220101890662,-0.5040708593507119,-0.5035499924732978,-0.5029564326468043,-0.5022870887439633,-0.5015387568142878,-0.5007081220566351,-0.4997917613428632,-0.4987861463053575,-0.49768764703667706,-0.4964925364047503,-0.49519699494645625,-0.4937971163393786,-0.4922889134857329,-0.4906683252034718,-0.48893122348251805,-0.4870734212944763,-0.48509068096897945,-0.4829787231073204,-0.48073323596842954,-0.47834988529657496,-0.4758243245939183,-0.47315220581157036,-0.4703291904025738,-0.4673509607055452,-0.4642132316492497,-0.4609117627350396,-0.4574423702256977,-0.45380093949700107,-0.44998343753555603,-0.44598592554277183,-0.44180457158112696,-0.43743566322071165,-0.432875620162995,-0.42812100679313153,-0.42316854459041514,-0.41801512435071075,-0.4126578181998962,-0.4070938913624179,-0.4013208136321348,-0.3953362705095069,-0.38913817398554706,-0.382724672937534,-0.3760941630869692,-0.36924529648617765,-0.3621769905169656,-0.3548884363753704,-0.3473791070056844,-0.33964876445856784,-0.3316974666608291,-0.32352557357769773,-0.3151337527404351,-0.3065229841208869,-0.29769456434497105,-0.28865011023382764,-0.2793915616562827,-0.2699211836821501,-0.260241568034557,-0.2503556338408698,-0.24026662767985962,-0.22997812292400296,-0.21949401837990254,-0.20881853623350796,-0.19795621930743665,-0.18691192763593423,-0.17569083436524102,-0.16429842099535885,-0.15274047198284402,-0.14102306871742024,-0.129152582881117,-0.11713566920638065,-0.10497925765490103,-0.09269054503176388,-0.08027698604724504,-0.06774628385251469,-0.055106380083829225,-0.0423654444370375,-0.02953186378445547,-0.01661423085796885,-0.003621332531499163,0.009437862275947615,0.022554215061785145,0.03571843053236948,0.04892106968088018,0.062152563122432974,0.07540322467080626,0.08866326512224201,0.10192280619814051,0.11517189461887951,0.12840051629727922,0.1415986106217293,0.15475608478432,0.16786282812919465,0.18090872650947568,0.19388367661597597,0.20677760022357464,0.2195804583267912,0.23228226515551212,0.2448731020365316,0.25734313104779805,0.26968260844066655,0.28188189782787304,0.2939314831087341,0.3058219810828549,0.3175441537332099,0.32908892018216485,0.34044736829464217,0.35161076588049733,0.3625705714809699,0.37331844475149606,0.38384625642564235,0.39414609782219373,0.4042102898884639,0.4140313917960812,0.42360220907174667,0.43291580122035717,0.44196548883401593,0.45074486021132404,0.4592477774818942,0.46746838220599757,0.4754011004529338,0.4830406473897685,0.49038203138088987,0.4974205575729861,0.5041518309731766,0.5105717590555926,0.516676553900078,0.5224627338404474,0.5279271246326985,0.5330668601816609,0.5378793828340128,0.5423624432195361,0.5465140996541791,0.5503327171461645,0.5538169660174856,0.556965820127709,0.5597785547162745,0.5622547439050926,0.5643942578753266,0.5661972597076016,0.5676642019022264,0.56879582262068,0.5695931416642905,0.5700574561828347,0.5701903361295088,0.5699936194983363,0.5694694073526451,0.5686200586304205,0.5674481847376637,0.565956643964607,0.5641485357383563,0.5620271947050136,0.5595961846550475,0.5568592923241533,0.5538205210802787,0.5504840844881309,0.5468543997617947,0.5429360811334394,0.5387339331463565,0.5342529438627615,0.5294982779946916,0.5244752699825438,0.5191894170278607,0.5136463720706935,0.5078519367179911,0.501812054142876,0.4955328019558326,0.48902038503324163,0.48228112830666864,0.47532146953469995,0.4681479520677921,0.46076721760373235,0.4531859989427305,0.44541111275994116,0.4374494523966621,0.4293079806584317,0.4209937226225647,0.41251375847099553,0.40387521635223905,0.3950852652649384,0.3861511079679152,0.37707997393337656,0.36787911234925175,0.35855578516640185,0.34911726019672285,0.33957080427672015,0.3299236764991854,0.3201831215057337,0.31035636284424795,0.30045059640606453,0.2904729839489927,0.2804306467036438,0.27033065906959136,0.2601800424160768,0.2499857589931043,0.2397547059507066,0.22949370947230235,0.21920951903482883,0.20890880179896193,0.1985981371249687,0.18828401121830882,0.17797281191624756,0.16767082361770044,0.1573842223510453,0.1471190709837886,0.1368813145869475,0.12667677596080515,0.11651115132213949,0.10639000615929242,0.09631877126593272,0.08630273895511295,0.07634705944821205,0.06645673744168312,0.05663662886279142,0.04689143782007383,0.03722571374829046,0.027643848753181578,0.018150075165874503,0.008748463309571805,-0.0005570805249007271,-0.009762815892280785,-0.018865169787597915,-0.027860738022234547,-0.03674628638695769,-0.04551875160137923,-0.054175242043536916,-0.0627130382587889,-0.07112959325253468,-0.07942253256638794,-0.08758965413343418,-0.09562892791449702,-0.10353849532261801,-0.11131666843784428,-0.1189619290102203,-0.12647292725498283,-0.13384848044906472,-0.14108757133240588,-0.1481893463115945,-0.15515311346665348,-0.1619783403659731,-0.16866465169165165,-0.1752118266759852,-0.1816197963561391,-0.1878886406586032,-0.1940185853203233,-0.20000999864882457,-0.20586338812736965,-0.21157939687500454,-0.21715879996772713,-0.22260250062335607,-0.22791152625581956,-0.2330870244079175,-0.23813025856946934,-0.24304260388735943,-0.2478255427804572,-0.252480660476341,-0.25700964048110414,-0.26141425998741447,-0.2656963852277154,-0.26985796678224666,-0.27390103484876743,-0.27782769447854144,-0.28164012078665995,-0.28534055414768394,-0.28893129538435375,-0.29241470095372396,-0.29579317813702605,-0.2990691802418531,-0.30224520182306275,-0.30532377392627813,-0.30830745935918363,-0.3111988479975866,-0.31400055213263656,-0.3167152018671191,-0.31934544057469627,-0.3218939204387379,-0.3243632980817125,-0.3267562302892252,-0.32907536983177843,-0.3313233613885048,-0.3335028375758606,-0.33561641508320456,-0.3376666909190013,-0.3396562387728596,-0.3415876054974095,-0.34346330771432043,-0.34528582855301304,-0.3470576145326659,-0.3487810725935578,-0.35045856727852914,-0.35209241806499975,-0.35368489684900734,-0.35523822558099993,-0.3567545740509662,-0.35823605782073453,-0.3596847363021517,-0.361102610979384,-0.3624916237731821,-0.3638536555459637,-0.3651905247473881,-0.3665039861993888,-0.3677957300190095,-0.3690673806782067,-0.37032049620042357,-0.37155656749287413,-0.37277701781271333,-0.3739832023659623,-0.37517640803858987,-0.3763578532580213,-0.37752868798169026,-0.37868999380853696,-0.3798427842094353,-0.3809880048725966,-0.3821265341593671,-0.38325918366464123,-0.3843866988758233,-0.38550975992558034,-0.386628982434732,-0.38774491844118253,-0.3888580574104388,-0.38996882732414745,-0.3910775958431469,-0.39218467153954734,-0.393290305191408,-0.3943946911358833,-0.39549796867931497,-0.39660022356285096,-0.3977014894815516,-0.39880174965507786,-0.3999009384461166,-0.4009989430177022,-0.4020956050185559,-0.40319072229024866,-0.4042840505952989,-0.40537530536564037,-0.406464163469783,-0.4075502649980796,-0.4086332150650312,-0.4097125856230784,-0.41078791727999736,-0.411858721115915,-0.41292448049922686,-0.41398465289798997,-0.41503867168112535,-0.41608594790805714,-0.4171258721116819,-0.4181578160819636,-0.41918113465659207,-0.42019516752225533,-0.4211992410221624,-0.422192669953474,-0.42317475933396503,-0.4241448061261097,-0.42510210091432277,-0.42604592952660014,-0.42697557458820756,-0.4278903170024255,-0.4287894373568697,-0.4296722172433445,-0.43053794047332805,-0.4313858941825421,-0.43221536982360237,-0.4330256640301437,-0.43381607932723626,-0.4345859246804544,-0.43533451588605154,-0.43606117578408754,-0.43676523426437996,-0.4374460280601579,-0.4381029003426599,-0.4387352001086417,-0.4393422813381031,-0.4399235019261506,-0.4404782224084508,-0.441005804466584,-0.44150560917926585,-0.4419769950227371,-0.44241931565085185,-0.4428319174510285,-0.4432141368480598,-0.44356529736949185,-0.44388470651769935,-0.4441716524552614,-0.44442540048179086,-0.4446451893246851,-0.44483022729835786,-0.444979688340266,-0.4450927078984893,-0.4451683786960356,-0.4452057464361778,-0.44520380546512056,-0.4451614943710753,-0.4450776915509873,-0.44495121081660094,-0.4447807970590383,-0.444565121949992,-0.44430277971329596,-0.44399228304928623,-0.44363205924841936,-0.4432204464892185,-0.44275569036250506,-0.4422359406995465,-0.44165924872493945,-0.4410235645101245,-0.44032673475634515,-0.43956650098473943,-0.43874049816800637,-0.43784625379598224,-0.4368811874080971,-0.43584261065870633,-0.4347277279302846,-0.43353363746645623,-0.4322573330392563,-0.4308957062037291,-0.4294455491508298,-0.42790355812982495,-0.4262663374467596,-0.4245304040763706,-0.4226921928823281,-0.42074806240280055,-0.4186943011920075,-0.4165271347386666,-0.41424273294418806,-0.41183721810872825,-0.4093066734040039,-0.40664715183975947,-0.4038546856964543,-0.4009252963652337,-0.39785500456374867,-0.39463984091909243,-0.3912758568733713,-0.38775913583773536,-0.38408580455168456,-0.38025204463437684,-0.3762541042891098,-0.37208831009687654,-0.367751078860005,-0.36323892948057923,-0.35854849483448537,-0.35367653357951456,-0.34861994185807926,-0.34337576487505767,-0.33794120830854907,-0.3323136494913563,-0.3264906483231007,-0.320469957893611,-0.314249534779657,-0.30782754895998177,-0.3012023933141756,-0.2943726926918315,-0.2873373125254381,-0.2800953669466006,-0.27264622638127356,-0.264989524616806,-0.25712516532426155,-0.24905332800860305,-0.24077447337088947,-0.2322893480792721,-0.22359898893865143,-0.21470472644066457,-0.20560818768400943,-0.1963112986644033,-0.18681628592855334,-0.17712567758069794,-0.1672423036370214,-0.1571692957325744,-0.14691008618586407,-0.13646840642355637,-0.1258482847696425,-0.11505404360798122,-0.1040902959297807,-0.0929619412772632,-0.08167416109316832,-0.07023241348669311,-0.05864242743086877,-0.04691019640817699,-0.035041971517283575,-0.02304425405207871,-0.010923787569836925,0.0013124505311845963,0.013657257909120651,0.026103216636271003,0.03864270299247896,0.05126789766345009,0.063970796321836,0.07674322057246885,0.0895768292290074,0.10246312988094153,0.11539349072398455,0.12835915263722378,0.14135124147717806,0.1543607805493055,0.1673787032327176,0.18039586574513009,0.19340306001990168,0.20639102665578865,0.21935046791597038,0.23227206076208987,0.24514646988678648,0.2579643606939639,0.2707164121990005,0.28339332983831494,0.29598585815603,0.3084847933197173,0.3208809954424864,0.33316540070781164,0.3453290332693265,0.3573630168799856,0.3692585862329891,0.38100709801959565,0.3926000416850146,0.4040290498445016,0.41528590834936374,0.4263625660135669,0.4372511439835095,0.4479439447123609,0.45843346053050105,0.46871238182605823,0.4787736048179173,0.48861023888024036,0.4982156134124054,0.5075832842780739,0.5167070398094635,0.5255809063493566,0.5341991533353581,0.5425562979568477,0.5506471093841478,0.5584666125444657,0.5660100914516684,0.5732730921232982,0.5802514250862774,0.5869411674469256,0.5933386645345698,0.5994405311573369,0.605243652479854,0.6107451845071844,0.6159425541898101,0.6208334591904016,0.6254158673234153,0.6296880156531236,0.6336484092650916,0.637295819751817,0.6406292834253797,0.643648099245314,0.6463518264767266,0.6487402821158564,0.650813538090853,0.652571918221056,0.6540159949460644,0.6551465858618033,0.6559647500772057,0.6564717843826631,0.6566692192443679,0.6565588146583066,0.6561425558722571,0.6554226489622748,0.6544015162729824,0.6530817917512557,0.6514663161800993,0.6495581322991508,0.6473604798194684,0.644876790359194,0.6421106823055428,0.6390659555895971,0.6357465863798732,0.6321567217174864,0.6283006740949464,0.6241829159626731,0.6198080741666975,0.6151809243384928,0.6103063852396841,0.6051895130479162,0.5998354955876964,0.5942496465253005,0.5884373995288766,0.5824043023793141,0.5761560110347473,0.5696982836673475,0.5630369746755587,0.5561780286607373,0.5491274743723285,0.5418914186383641,0.5344760402813651,0.5268875840059271,0.5191323542605093,0.5112167090908768,0.5031470539891947,0.49492983573027777,0.4865715362002003,0.47807866623322726,0.4694577594568057,0.4607153661316623,0.451858046990371,0.4428923670941176,0.4338248897178094,0.4246621702629698,0.4154107502081923,0.4060771511134591,0.3966678686775942,0.38718936683610217,0.37764807189760363,0.3680503667094295,0.35840258479559917,0.34871100438901004,0.33898184233047113,0.3292212478691241,0.31943529641080515,0.30962998325149793,0.2998112173406079,0.2899848151252883,0.28015649451221825,0.27033186896980166,0.2605164418011188,0.2507156006237106,0.24093461207761396,0.231178616770583,0.22145262447787314,0.21176150962072168,0.20211000703394474,0.19250270802147093,0.1829440567082376,0.1734383467060347,0.16398971810056312,0.15460215475684086,0.14527948194734056,0.13602536431242065,0.12684330414973802,0.11773664001922303,0.10870854565996961,0.09976202922479609,0.09089993282958674,0.08212493240587514,0.07343953785234333,0.06484609348614553,0.056346778783582165,0.0479436093908596,0.03963843839524296,0.031432957856215846,0.023328700588961766,0.015327042185013908,0.007429203261635354,-0.00036374806430701636,-0.008050893493699628,-0.015631461677612857,-0.02310482517809859,-0.03047049725978392,-0.03772812851996887,-0.04487750337138119,-0.05191853638569194,-0.05885126850223302,-0.06567586311691337,-0.07239260207366066,-0.07900188157120057,-0.08550420798931595,-0.09190019364577666,-0.09819055250160778,-0.10437609582404928,-0.11045772780892255,-0.1164364411706918,-0.12231331271461704,-0.1280894988979948,-0.13376623137995125,-0.13934481256390574,-0.14482661114206774,-0.15021305764683324,-0.15550564001156608,-0.16070589915213374,-0.16581542458650034,-0.1708358501015568,-0.17576884946817264,-0.18061613220950049,-0.18537943943225602,-0.19006053972552706,-0.19466122512801431,-0.19918330717174293,-0.2036286130154511,-0.20799898167381797,-0.21229626034208177,-0.21652230082026985,-0.22067895604577176,-0.22476807673730334,-0.22879150814853952,-0.23275108693522104,-0.23664863814407608,-0.2404859723260582,-0.24426488277149108,-0.24798714287011794,-0.2516545036034837,-0.25526869117081075,-0.25883140474291244,-0.26234431434135874,-0.2658090588436933,-0.269227244112176,-0.2726004412414452,-0.27593018492624377,-0.279217971954402,-0.28246525982523496,-0.28567346548927286,-0.28884396420985736,-0.29197808855091834,-0.29507712748998327,-0.2981423256503788,-0.3011748826498264,-0.3041759525659977,-0.3071466435155584,-0.3100880173391932,-0.3130010893878944,-0.3158868284088133,-0.31874615652638005,-0.321579949312929,-0.32438903594797064,-0.3271741994686115,-0.3299361771090539,-0.33267566072192456,-0.33539329727533906,-0.3380896894219656,-0.3407653961349351,-0.343420933405646,-0.34605677500412196,-0.34867335330583066,-0.35127106018385124,-0.35385024795903275,-0.356411230400384,-0.3589542837697016,-0.361479647903925,-0.36398752732901557,-0.36647809240284585,-0.3689514804869784,-0.37140779714494027,-0.3738471173627049,-0.3762694867896083,-0.3786749230000063,-0.38106341677327277,-0.38343493338613116,-0.38578941391107985,-0.38812677651589517,-0.39044691775941825,-0.3927497138797455,-0.39503502207377056,-0.3973026817686984,-0.3995525158846398,-0.4017843320861316,-0.4039979240220952,-0.4061930725551255,-0.40836954697957695,-0.4105271062273983,-0.41266550006361125,-0.41478447027505516,-0.41688375185263804,-0.4189630741624628,-0.42102216209922694,-0.42306073721576287,-0.425078518823738,-0.42707522506223244,-0.4290505739330472,-0.4310042843027075,-0.432936076870192,-0.4348456750972962,-0.4367328060968261,-0.4385972014738242,-0.44043859811613756,-0.44225673892891554,-0.4440513735022453,-0.4458222586995568,-0.4475691591607936,-0.449291847719783,-0.45099010573305837,-0.4526637233156761,-0.4543124994840313,-0.45593624220540185,-0.45753476834297313,-0.4591079034802852,-0.46065548162044473,-0.4621773447617275,-0.4636733423382465,-0.46514333050728035,-0.466587171280875,-0.46800473150879596,-0.46939588170212654,-0.47076049467641357,-0.4720984440147409,-0.4734096023644443,-0.4746938395577618,-0.47595102053234095,-0.47718100305543126,-0.4783836352742514,-0.47955875308647794,-0.4807061773061511,-0.48182571063398744,-0.48291713446385126,-0.48398020552173554,-0.48501465230991864,-0.48602017137020864,-0.4869964234118838,-0.4879430293136538,-0.48885956598164176,-0.48974556208751807,-0.49060049374046966,-0.4914237801003508,-0.49221477890638854,-0.4929727819460215,-0.49369701052942344,-0.4943866109921145,-0.4950406502127292,-0.49565811118115566,-0.49623788869128316,-0.4967787851862472,-0.4972795067458794,-0.4977386592530588,-0.498154744813581,-0.4985261584554159,-0.4988511850929589,-0.49912799678910386,-0.49935465038871835,-0.49952908555195213,-0.4996491231756535,-0.4997124642335575,-0.4997166891025299,-0.49965925739756883,-0.4995375082985171,-0.4993486613900507,-0.4990898180699644,-0.49875796353768026,-0.4983499693364118,-0.4978625964583634,-0.4972924990550085,-0.4966362287562147,-0.4958902395661673,-0.49505089333474417,-0.4941144658300003,-0.49307715340001246,-0.49193508017874543,-0.49068430581956507,-0.48932083376575614,-0.487840620033201,-0.48623958244961946,-0.4845136103226723,-0.48265857453627276,-0.4806703380475816,-0.4785447667305182,-0.4762777405337931,-0.47386516494179365,-0.47130298270048254,-0.4685871857466265,-0.4657138272997837,-0.462679034096113,-0.45947901872058405,-0.4561100919735591,-0.4525686752279247,-0.4488513127533246,-0.44495468396773247,-0.4408756155598221,-0.4366110934413621,-0.4321582745035742,-0.42751449813526704,-0.4226772974461202,-0.4176444101546389,-0.41241378911749754,N
3,-0.28893129538435375,-0.29241470095372396,-0.29579317813702605,-0.2990691802418531,-0.30224520182306275,-0.30532377392627813,-0.30830745935918363,-0.3111988479975866,-0.31400055213263656,-0.3167152018671191,-0.31934544057469627,-0.3218939204387379,-0.3243632980817125,-0.3267562302892252,-0.32907536983177843,-0.3313233613885048,-0.3335028375758606,-0.33561641508320456,-0.3376666909190013,-0.3396562387728596,-0.3415876054974095,-0.34346330771432043,-0.34528582855301304,-0.3470576145326659,-0.3487810725935578,-0.35045856727852914,-0.35209241806499975,-0.35368489684900734,-0.35523822558099993,-0.3567545740509662,-0.35823605782073453,-0.3596847363021517,-0.361102610979384,-0.3624916237731821,-0.3638536555459637,-0.3651905247473881,-0.3665039861993888,-0.3677957300190095,-0.3690673806782067,-0.37032049620042357,-0.37155656749287413,-0.37277701781271333,-0.3739832023659623,-0.37517640803858987,-0.3763578532580213,-0.37752868798169026,-0.37868999380853696,-0.3798427842094353,-0.3809880048725966,-0.3821265341593671,-0.38325918366464123,-0.3843866988758233,-0.38550975992558034,-0.386628982434732,-0.38774491844118253,-0.3888580574104388,-0.38996882732414745,-0.3910775958431469,-0.39218467153954734,-0.393290305191408,-0.3943946911358833,-0.39549796867931497,-0.39660022356285096,-0.3977014894815516,-0.39880174965507786,-0.3999009384461166,-0.4009989430177022,-0.4020956050185559,-0.40319072229024866,-0.4042840505952989,-0.40537530536564037,-0.406464163469783,-0.4075502649980796,-0.4086332150650312,-0.4097125856230784,-0.41078791727999736,-0.411858721115915,-0.41292448049922686,-0.41398465289798997,-0.41503867168112535,-0.41608594790805714,-0.4171258721116819,-0.4181578160819636,-0.41918113465659207,-0.42019516752225533,-0.4211992410221624,-0.422192669953474,-0.42317475933396503,-0.4241448061261097,-0.42510210091432277,-0.42604592952660014,-0.42697557458820756,-0.4278903170024255,-0.4287894373568697,-0.4296722172433445,-0.43053794047332805,-0.4313858941825421,-0.43221536982360237,-0.4330256640301437,-0.43381607932723626,-0.4345859246804544,-0.43533451588605154,-0.43606117578408754,-0.43676523426437996,-0.4374460280601579,-0.4381029003426599,-0.4387352001086417,-0.4393422813381031,-0.4399235019261506,-0.4404782224084508,-0.441005804466584,-0.44150560917926585,-0.4419769950227371,-0.44241931565085185,-0.4428319174510285,-0.4432141368480598,-0.44356529736949185,-0.44388470651769935,-0.4441716524552614,-0.44442540048179086,-0.4446451893246851,-0.44483022729835786,-0.444979688340266,-0.4450927078984893,-0.4451683786960356,-0.4452057464361778,-0.44520380546512056,-0.4451614943710753,-0.4450776915509873,-0.44495121081660094,-0.4447807970590383,-0.444565121949992,-0.44430277971329596,-0.44399228304928623,-0.44363205924841936,-0.4432204464892185,-0.44275569036250506,-0.4422359406995465,-0.44165924872493945,-0.4410235645101245,-0.44032673475634515,-0.43956650098473943,-0.43874049816800637,-0.43784625379598224,-0.4368811874080971,-0.43584261065870633,-0.4347277279302846,-0.43353363746645623,-0.4322573330392563,-0.4308957062037291,-0.4294455491508298,-0.42790355812982495,-0.4262663374467596,-0.4245304040763706,-0.4226921928823281,-0.42074806240280055,-0.4186943011920075,-0.4165271347386666,-0.41424273294418806,-0.41183721810872825,-0.4093066734040039,-0.40664715183975947,-0.4038546856964543,-0.4009252963652337,-0.39785500456374867,-0.39463984091909243,-0.3912758568733713,-0.38775913583773536,-0.38408580455168456,-0.38025204463437684,-0.3762541042891098,-0.37208831009687654,-0.367751078860005,-0.36323892948057923,-0.35854849483448537,-0.35367653357951456,-0.34861994185807926,-0.34337576487505767,-0.33794120830854907,-0.3323136494913563,-0.3264906483231007,-0.320469957893611,-0.314249534779657,-0.30782754895998177,-0.3012023933141756,-0.2943726926918315,-0.2873373125254381,-0.2800953669466006,-0.27264622638127356,-0.264989524616806,-0.25712516532426155,-0.24905332800860305,-0.24077447337088947,-0.2322893480792721,-0.22359898893865143,-0.21470472644066457,-0.20560818768400943,-0.1963112986644033,-0.18681628592855334,-0.17712567758069794,-0.1672423036370214,-0.1571692957325744,-0.14691008618586407,-0.13646840642355637,-0.1258482847696425,-0.11505404360798122,-0.1040902959297807,-0.0929619412772632,-0.08167416109316832,-0.07023241348669311,-0.05864242743086877,-0.04691019640817699,-0.035041971517283575,-0.02304425405207871,-0.010923787569836925,0.0013124505311845963,0.013657257909120651,0.026103216636271003,0.03864270299247896,0.05126789766345009,0.063970796321836,0.07674322057246885,0.0895768292290074,0.10246312988094153,0.11539349072398455,0.12835915263722378,0.14135124147717806,0.1543607805493055,0.1673787032327176,0.18039586574513009,0.19340306001990168,0.20639102665578865,0.21935046791597038,0.23227206076208987,0.24514646988678648,0.2579643606939639,0.2707164121990005,0.28339332983831494,0.29598585815603,0.3084847933197173,0.3208809954424864,0.33316540070781164,0.3453290332693265,0.3573630168799856,0.3692585862329891,0.38100709801959565,0.3926000416850146,0.4040290498445016,0.41528590834936374,0.4263625660135669,0.4372511439835095,0.4479439447123609,0.45843346053050105,0.46871238182605823,0.4787736048179173,0.48861023888024036,0.4982156134124054,0.5075832842780739,0.5167070398094635,0.5255809063493566,0.5341991533353581,0.5425562979568477,0.5506471093841478,0.5584666125444657,0.5660100914516684,0.5732730921232982,0.5802514250862774,0.5869411674469256,0.5933386645345698,0.5994405311573369,0.605243652479854,0.6107451845071844,0.6159425541898101,0.6208334591904016,0.6254158673234153,0.6296880156531236,0.6336484092650916,0.637295819751817,0.6406292834253797,0.643648099245314,0.6463518264767266,0.6487402821158564,0.650813538090853,0.652571918221056,0.6540159949460644,0.6551465858618033,0.6559647500772057,0.6564717843826631,0.6566692192443679,0.6565588146583066,0.6561425558722571,0.6554226489622748,0.6544015162729824,0.6530817917512557,0.6514663161800993,0.6495581322991508,0.6473604798194684,0.644876790359194,0.6421106823055428,0.6390659555895971,0.6357465863798732,0.6321567217174864,0.6283006740949464,0.6241829159626731,0.6198080741666975,0.6151809243384928,0.6103063852396841,0.6051895130479162,0.5998354955876964,0.5942496465253005,0.5884373995288766,0.5824043023793141,0.5761560110347473,0.5696982836673475,0.5630369746755587,0.5561780286607373,0.5491274743723285,0.5418914186383641,0.5344760402813651,0.5268875840059271,0.5191323542605093,0.5112167090908768,0.5031470539891947,0.49492983573027777,0.4865715362002003,0.47807866623322726,0.4694577594568057,0.4607153661316623,0.451858046990371,0.4428923670941176,0.4338248897178094,0.4246621702629698,0.4154107502081923,0.4060771511134591,0.3966678686775942,0.38718936683610217,0.37764807189760363,0.3680503667094295,0.35840258479559917,0.34871100438901004,0.33898184233047113,0.3292212478691241,0.31943529641080515,0.30962998325149793,0.2998112173406079,0.2899848151252883,0.28015649451221825,0.27033186896980166,0.2605164418011188,0.2507156006237106,0.24093461207761396,0.231178616770583,0.22145262447787314,0.21176150962072168,0.20211000703394474,0.19250270802147093,0.1829440567082376,0.1734383467060347,0.16398971810056312,0.15460215475684086,0.14527948194734056,0.13602536431242065,0.12684330414973802,0.11773664001922303,0.10870854565996961,0.09976202922479609,0.09089993282958674,0.08212493240587514,0.07343953785234333,0.06484609348614553,0.056346778783582165,0.0479436093908596,0.03963843839524296,0.031432957856215846,0.023328700588961766,0.015327042185013908,0.007429203261635354,-0.00036374806430701636,-0.008050893493699628,-0.015631461677612857,-0.02310482517809859,-0.03047049725978392,-0.03772812851996887,-0.04487750337138119,-0.05191853638569194,-0.05885126850223302,-0.06567586311691337,-0.07239260207366066,-0.07900188157120057,-0.08550420798931595,-0.09190019364577666,-0.09819055250160778,-0.10437609582404928,-0.11045772780892255,-0.1164364411706918,-0.12231331271461704,-0.1280894988979948,-0.13376623137995125,-0.13934481256390574,-0.14482661114206774,-0.15021305764683324,-0.15550564001156608,-0.16070589915213374,-0.16581542458650034,-0.1708358501015568,-0.17576884946817264,-0.18061613220950049,-0.18537943943225602,-0.19006053972552706,-0.19466122512801431,-0.19918330717174293,-0.2036286130154511,-0.20799898167381797,-0.21229626034208177,-0.21652230082026985,-0.22067895604577176,-0.22476807673730334,-0.22879150814853952,-0.23275108693522104,-0.23664863814407608,-0.2404859723260582,-0.24426488277149108,-0.24798714287011794,-0.2516545036034837,-0.25526869117081075,-0.25883140474291244,-0.26234431434135874,-0.2658090588436933,-0.269227244112176,-0.2726004412414452,-0.27593018492624377,-0.279217971954402,-0.28246525982523496,-0.28567346548927286,-0.28884396420985736,-0.29197808855091834,-0.29507712748998327,-0.2981423256503788,-0.3011748826498264,-0.3041759525659977,-0.3071466435155584,-0.3100880173391932,-0.3130010893878944,-0.3158868284088133,-0.31874615652638005,-0.321579949312929,-0.32438903594797064,-0.3271741994686115,-0.3299361771090539,-0.33267566072192456,-0.33539329727533906,-0.3380896894219656,-0.3407653961349351,-0.343420933405646,-0.34605677500412196,-0.34867335330583066,-0.35127106018385124,-0.35385024795903275,-0.356411230400384,-0.3589542837697016,-0.361479647903925,-0.36398752732901557,-0.36647809240284585,-0.3689514804869784,-0.37140779714494027,-0.3738471173627049,-0.3762694867896083,-0.3786749230000063,-0.38106341677327277,-0.38343493338613116,-0.38578941391107985,-0.38812677651589517,-0.39044691775941825,-0.3927497138797455,-0.39503502207377056,-0.3973026817686984,-0.3995525158846398,-0.4017843320861316,-0.4039979240220952,-0.4061930725551255,-0.40836954697957695,-0.4105271062273983,-0.41266550006361125,-0.41478447027505516,-0.41688375185263804,-0.4189630741624628,-0.42102216209922694,-0.42306073721576287,-0.425078518823738,-0.42707522506223244,-0.4290505739330472,-0.4310042843027075,-0.432936076870192,-0.4348456750972962,-0.4367328060968261,-0.4385972014738242,-0.44043859811613756,-0.44225673892891554,-0.4440513735022453,-0.4458222586995568,-0.4475691591607936,-0.449291847719783,-0.45099010573305837,-0.4526637233156761,-0.4543124994840313,-0.45593624220540185,-0.45753476834297313,-0.4591079034802852,-0.46065548162044473,-0.4621773447617275,-0.4636733423382465,-0.46514333050728035,-0.466587171280875,-0.46800473150879596,-0.46939588170212654,-0.47076049467641357,-0.4720984440147409,-0.4734096023644443,-0.4746938395577618,-0.47595102053234095,-0.47718100305543126,-0.4783836352742514,-0.47955875308647794,-0.4807061773061511,-0.48182571063398744,-0.48291713446385126,-0.48398020552173554,-0.48501465230991864,-0.48602017137020864,-0.4869964234118838,-0.4879430293136538,-0.48885956598164176,-0.48974556208751807,-0.49060049374046966,-0.4914237801003508,-0.49221477890638854,-0.4929727819460215,-0.49369701052942344,-0.4943866109921145,-0.4950406502127292,-0.49565811118115566,-0.49623788869128316,-0.4967787851862472,-0.4972795067458794,-0.4977386592530588,-0.498154744813581,-0.4985261584554159,-0.4988511850929589,-0.49912799678910386,-0.49935465038871835,-0.49952908555195213,-0.4996491231756535,-0.4997124642335575,-0.4997166891025299,-0.49965925739756883,-0.4995375082985171,-0.4993486613900507,-0.4990898180699644,-0.49875796353768026,-0.4983499693364118,-0.4978625964583634,-0.4972924990550085,-0.4966362287562147,-0.4958902395661673,-0.49505089333474417,-0.4941144658300003,-0.49307715340001246,-0.49193508017874543,-0.49068430581956507,-0.48932083376575614,-0.487840620033201,-0.48623958244961946,-0.4845136103226723,-0.48265857453627276,-0.4806703380475816,-0.4785447667305182,-0.4762777405337931,-0.47386516494179365,-0.47130298270048254,-0.4685871857466265,-0.4657138272997837,-0.462679034096113,-0.45947901872058405,-0.4561100919735591,-0.4525686752279247,-0.4488513127533246,-0.44495468396773247,-0.4408756155598221,-0.4366110934413621,-0.4321582745035742,-0.42751449813526704,-0.4226772974461202,-0.4176444101546389,-0.41241378911749754,-0.40698361246775355,-0.40135229331866223,-0.3955184890011919,-0.38948110981452444,-0.3832393272594191,-0.37679258171555385,-0.37014058953535667,-0.36328334954014574,-0.3562211489015308,-0.3489545683856048,-0.3414844869438948,-0.3338120856428121,-0.3259388509213101,-0.3178665771630926,-0.309597368574285,-0.30113364036438095,-0.29247811923026235,-0.2836338431423375,-0.2746041604328997,-0.26539272819073356,-0.25600350997091015,-0.24644077283032642,-0.23670908369688706,-0.22681330508032585,-0.21675859013913204,-0.20655037712160332,-0.19619438319404894,-0.18569659766728933,-0.17506327464147622,-0.16430092509477381,-0.15341630843393156,-0.14241642352076406,-0.13130849919969617,-0.12009998435886975,-0.10879853754750116,-0.09741201616754472,-0.08594846527369424,-0.07441610602562213,-0.06282332382050942,-0.05117865612077377,-0.03949078000420664,-0.027768499474005837,-0.016020732552450515,-0.004256498174002424,0.0075150970864210605,0.019284872401156682,0.031043586164026495,0.04278194953510221,0.054490640018603584,0.0661603150216364,0.07778162536540609,0.08934522874055631,0.10084180307955617,0.11226205980359763,0.12359675692348043,0.13483671198961317,0.14597281486120023,0.15699604024676556,0.16789745999471145,0.17866825513346635,0.18929972763598985,0.1997833118643591,0.2101105856779892,0.2202732812102802,0.23026329529062814,0.24007269946785334,0.2496937496220333,0.25911889517692793,0.2683407878978746,0.2773522902381947,0.2861464832281006,0.2947166739245812,0.30305640241077575,0.3111594483099804,0.3190198368123425,0.32663184423977204,0.3339900031457031,0.3410891069224374,0.34792421392068706,0.3544906511118153,0.36078401729234066,0.36680018580533646,0.37253530678625213,0.3779858089687437,0.3831484010569287,0.38802007264557836,0.3925980947010722,0.39688001964329567,0.400863681040866,0.4045471929075569,0.40792894861594264,0.411007619466922,0.4137821529227669,0.4162517704862406,0.41841596523861607,0.4202744990766009,0.4218273996622685,0.42307495707643333,0.4240177201921937,0.4246564928077842,0.424992329550722,0.4250265315419039,0.4247606418342086,0.4241964406636295,0.42333594052739143,0.4221813810817544,0.4207352238747681,0.41900014694923143,0.41697903932804564,0.4146749953735149,0.41209130903309427,0.4092314680027576,0.40609914781774764,0.40269820586123567,0.39903267530082204,0.3951067589802227,0.3909248232737877,0.38649139189370435,0.3818111396576348,0.37688888624072636,0.37172958991796146,0.36633834128647813,0.3607203569735588,0.3548809733493196,0.3488256402442175,0.342559914655818,0.33608945444698185,0.32942001205510957,0.3225574282193204,0.31550762571908536,0.3082766031305678,0.30087042861748714,0.2932952337575555,0.28555720739246915,0.27766258950351624,0.26961766512797175,0.26142875831918094,0.253102226141703,0.24464445270464685,0.23606184324546364,0.22736081826161547,0.21854780767598736,0.20962924503628802,0.20061156176275843,0.19150118144911113,0.18230451421179109,0.173027951093582,0.16367785853870104,0.1542605729486795,0.14478239531970322,0.1352495859690197,0.1256683593623844,0.1160448790417905,0.1063852526435719,0.09669552700767346,0.08698168338852318,0.07724963276895201,0.06750521127050112,0.0577541756629559,0.04800219898387545,0.03825486626914279,0.028517670387508968,0.01879600798182037,0.009095175527726573,-0.00057963448893133,-0.010223337282790871,-0.019830959364295284,-0.02939764200647925,-0.0389186445769,-0.04838934773552794,-0.05780525649208791,-0.06716200311031241,-0.0764553498552464,-0.08568119158699596,-0.09483555819690863,-0.1039146168767358,-0.11291467422114747,-0.12183217817144841,-0.130663719799213,-0.13940603492030015,-0.1480560055371998,-0.156610661114608,-0.16506717968547632,-0.17342288877847442,-0.18167526616625249,-0.18982194044095588,-0.1978606914155486,-0.2057894503423174,-0.2136062999469823,-0.22130947428345568,-0.2288973584077639,-0.23636848786429385,-0.24372154798542742,-0.25095537301225457,-0.25806894503717487,-0.26506139276286306,-0.27193199007847996,-0.2786801544600907,-0.28530544519664,-0.2918075614382443,-0.2981863400707219,-0.3044417534262878,-0.3105739068342958,-0.316583036010257,-0.3224695042869558,-0.3282337996968702,-0.33387653191009115,-0.3393984290271488,-0.3448003342311019,-0.35008320230810175,-0.3552480960417228,-0.36029618248313944,-0.36522872910477777,-0.3700470998497061,-0.37475275108453837,-0.37934722745922317,-0.38383215768095363,-0.3882092502133428,-0.3924802889089576,-0.3966471285821238,-0.4007116905360677,-0.404675958062958,-0.40854197192848996,-0.4123118258441114,-0.41598766192970227,-0.41957166617204344,-0.42306606388348317,-0.4264731151658186,-0.4297951103903526,-0.43303436570859494,-0.4361932186032475,-0.4392740234829963,-0.44227914732429746,-0.44521096536512034,-0.4480718568552236,-0.45086420086856444,-0.45359037218833126,-0.4562527372777037,-0.4588536503453697,-0.4613954495099912,-0.46388045306781595,-0.46631095586895394,-0.46868922580668165,-0.47101750042380436,-0.4732979836431687,-0.47553284263118595,-0.47772420480016353,-0.4798741549519281,-0.4819847325657951,-0.48405792923503443,-0.4860956862542626,-0.4880998923587053,-0.4900723816176932,-0.4920149314858643,-0.4939292610143472,-0.4958170292258225,-0.4976798336640119,-0.4995192091307402,-0.5013366266157836,-0.5031334924138916,-0.5049111474184179,-0.5066708665810095,-0.5084138585284083,-0.5101412653308398,-0.5118541624213403,-0.5135535586673251,-0.5152403965921429,-0.5169155527393102,-0.5185798381699737,-0.5202339990844477,-0.5218787175598247,-0.523514612398009,-0.5251422400818389,-0.526762095838323,-0.5283746148058613,-0.5299801732998201,-0.5315790901707828,-0.5331716282504383,-0.5347579958790705,-0.5363383485064468,-0.53791279035615,-0.5394813761433686,-0.5410441128380901,-0.5426009614679825,-0.5441518389565456,-0.545696619992533,-0.5472351389266576,-0.5487671916909356,-0.5502925377348238,-0.5518109019720201,-0.5533219767329659,-0.5548254237184173,-0.5563208759477275,-0.5578079396947907,-0.5592861964067982,-0.5607552046021712,-0.5622145017416847,-0.5636636060655956,-0.5651020183930825,-0.5665292238839371,-0.5679446937620755,-0.5693478869994476,-0.5707382519604908,-0.5721152280078808,-0.5734782470674503,-0.5748267351484385,-0.5761601138177723,-0.5774778016278499,-0.5787792154925375,-0.5800637720035682,-0.5813308886848388,-0.5825799851872521,-0.5838104844249096,-0.5850218136512683,-0.5862134054764795,-0.5873846988259178,-0.5885351398301207,-0.5896641826317853,-0.5907712901047758,-0.5918559344872864,-0.5929175979244511,-0.5939557729107942,-0.5949699626317433,-0.5959596812067962,-0.5969244538221703,-0.5978638167328303,-0.5987773171295862,-0.599664512877565,-0.6005249721168563,-0.6013582727062071,-0.6021640015095597,-0.602941753537054,-0.6036911309308142,-0.6044117417724948,-0.6051031987135174,-0.6057651174422656,-0.6063971149716383,-0.6069988077119208,-0.6075698093289511,-0.6081097284135487,-0.6086181659575657,-0.6090947126101786,-0.6095389457258025,-0.609950426241795,-0.6103286953858802,-0.6106732711864502,-0.610983644802133,-0.6112592767176172,-0.6114995928073829,-0.6117039802369558,-0.6118717832218968,-0.6120022987041084,-0.6120947719586706,-0.6121483921086289,-0.612162287577212,-0.6121355215473626,-0.612067087447335,-0.6119559044412163,-0.6118008129578761,-0.6116005703369763,-0.6113538466205529,-0.6110592204766777,-0.610715175293357,-0.6103200955219247,-0.60987226329423,-0.6093698552931904,-0.6088109399097074,-0.6081934747655321,-0.6075153046324967,-0.6067741597343218,-0.6059676544640541,-0.605093286589799,-0.6041484369704494,-0.6031303697587397,-0.6020362331137948,-0.600863060485333,-0.5996077724857799,-0.5982671793243147,-0.5968379838155988,-0.5953167850088297,-0.5937000824358158,-0.5919842809358398,-0.5901656960535179,-0.588240560041379,-0.5862050284596553,-0.584055187328585,-0.5817870608208963,-0.5793966195113082,-0.5768797891623271,-0.574232459991301,-0.5714504963936811,-0.56852974712547,-0.5654660559156135,-0.5622552724486607,-0.5588932636840461,-0.5553759255018634,-0.5516991946346678,-0.5478590608175519,-0.5438515791139891,-0.5396728823986863,-0.535319193953488,-0.5307868401088112,-0.5260722628862735,-0.5211720326216975,-0.5160828605291663,-0.5108016111474953,N
4,-0.19918330717174293,-0.2036286130154511,-0.20799898167381797,-0.21229626034208177,-0.21652230082026985,-0.22067895604577176,-0.22476807673730334,-0.22879150814853952,-0.23275108693522104,-0.23664863814407608,-0.2404859723260582,-0.24426488277149108,-0.24798714287011794,-0.2516545036034837,-0.25526869117081075,-0.25883140474291244,-0.26234431434135874,-0.2658090588436933,-0.269227244112176,-0.2726004412414452,-0.27593018492624377,-0.279217971954402,-0.28246525982523496,-0.28567346548927286,-0.28884396420985736,-0.29197808855091834,-0.29507712748998327,-0.2981423256503788,-0.3011748826498264,-0.3041759525659977,-0.3071466435155584,-0.3100880173391932,-0.3130010893878944,-0.3158868284088133,-0.31874615652638005,-0.321579949312929,-0.32438903594797064,-0.3271741994686115,-0.3299361771090539,-0.33267566072192456,-0.33539329727533906,-0.3380896894219656,-0.3407653961349351,-0.343420933405646,-0.34605677500412196,-0.34867335330583066,-0.35127106018385124,-0.35385024795903275,-0.356411230400384,-0.3589542837697016,-0.361479647903925,-0.36398752732901557,-0.36647809240284585,-0.3689514804869784,-0.37140779714494027,-0.3738471173627049,-0.3762694867896083,-0.3786749230000063,-0.38106341677327277,-0.38343493338613116,-0.38578941391107985,-0.38812677651589517,-0.39044691775941825,-0.3927497138797455,-0.39503502207377056,-0.3973026817686984,-0.3995525158846398,-0.4017843320861316,-0.4039979240220952,-0.4061930725551255,-0.40836954697957695,-0.4105271062273983,-0.41266550006361125,-0.41478447027505516,-0.41688375185263804,-0.4189630741624628,-0.42102216209922694,-0.42306073721576287,-0.425078518823738,-0.42707522506223244,-0.4290505739330472,-0.4310042843027075,-0.432936076870192,-0.4348456750972962,-0.4367328060968261,-0.4385972014738242,-0.44043859811613756,-0.44225673892891554,-0.4440513735022453,-0.4458222586995568,-0.4475691591607936,-0.449291847719783,-0.45099010573305837,-0.4526637233156761,-0.4543124994840313,-0.45593624220540185,-0.45753476834297313,-0.4591079034802852,-0.46065548162044473,-0.4621773447617275,-0.4636733423382465,-0.46514333050728035,-0.466587171280875,-0.46800473150879596,-0.46939588170212654,-0.47076049467641357,-0.4720984440147409,-0.4734096023644443,-0.4746938395577618,-0.47595102053234095,-0.47718100305543126,-0.4783836352742514,-0.47955875308647794,-0.4807061773061511,-0.48182571063398744,-0.48291713446385126,-0.48398020552173554,-0.48501465230991864,-0.48602017137020864,-0.4869964234118838,-0.4879430293136538,-0.48885956598164176,-0.48974556208751807,-0.49060049374046966,-0.4914237801003508,-0.49221477890638854,-0.4929727819460215,-0.49369701052942344,-0.4943866109921145,-0.4950406502127292,-0.49565811118115566,-0.49623788869128316,-0.4967787851862472,-0.4972795067458794,-0.4977386592530588,-0.498154744813581,-0.4985261584554159,-0.4988511850929589,-0.49912799678910386,-0.49935465038871835,-0.49952908555195213,-0.4996491231756535,-0.4997124642335575,-0.4997166891025299,-0.49965925739756883,-0.4995375082985171,-0.4993486613900507,-0.4990898180699644,-0.49875796353768026,-0.4983499693364118,-0.4978625964583634,-0.4972924990550085,-0.4966362287562147,-0.4958902395661673,-0.49505089333474417,-0.4941144658300003,-0.49307715340001246,-0.49193508017874543,-0.49068430581956507,-0.48932083376575614,-0.487840620033201,-0.48623958244961946,-0.4845136103226723,-0.48265857453627276,-0.4806703380475816,-0.4785447667305182,-0.4762777405337931,-0.47386516494179365,-0.47130298270048254,-0.4685871857466265,-0.4657138272997837,-0.462679034096113,-0.45947901872058405,-0.4561100919735591,-0.4525686752279247,-0.4488513127533246,-0.44495468396773247,-0.4408756155598221,-0.4366110934413621,-0.4321582745035742,-0.42751449813526704,-0.4226772974461202,-0.4176444101546389,-0.41241378911749754,-0.40698361246775355,-0.40135229331866223,-0.3955184890011919,-0.38948110981452444,-0.3832393272594191,-0.37679258171555385,-0.37014058953535667,-0.36328334954014574,-0.3562211489015308,-0.3489545683856048,-0.3414844869438948,-0.3338120856428121,-0.3259388509213101,-0.3178665771630926,-0.309597368574285,-0.30113364036438095,-0.29247811923026235,-0.2836338431423375,-0.2746041604328997,-0.26539272819073356,-0.25600350997091015,-0.24644077283032642,-0.23670908369688706,-0.22681330508032585,-0.21675859013913204,-0.20655037712160332,-0.19619438319404894,-0.18569659766728933,-0.17506327464147622,-0.16430092509477381,-0.15341630843393156,-0.14241642352076406,-0.13130849919969617,-0.12009998435886975,-0.10879853754750116,-0.09741201616754472,-0.08594846527369424,-0.07441610602562213,-0.06282332382050942,-0.05117865612077377,-0.03949078000420664,-0.027768499474005837,-0.016020732552450515,-0.004256498174002424,0.0075150970864210605,0.019284872401156682,0.031043586164026495,0.04278194953510221,0.054490640018603584,0.0661603150216364,0.07778162536540609,0.08934522874055631,0.10084180307955617,0.11226205980359763,0.12359675692348043,0.13483671198961317,0.14597281486120023,0.15699604024676556,0.16789745999471145,0.17866825513346635,0.18929972763598985,0.1997833118643591,0.2101105856779892,0.2202732812102802,0.23026329529062814,0.24007269946785334,0.2496937496220333,0.25911889517692793,0.2683407878978746,0.2773522902381947,0.2861464832281006,0.2947166739245812,0.30305640241077575,0.3111594483099804,0.3190198368123425,0.32663184423977204,0.3339900031457031,0.3410891069224374,0.34792421392068706,0.3544906511118153,0.36078401729234066,0.36680018580533646,0.37253530678625213,0.3779858089687437,0.3831484010569287,0.38802007264557836,0.3925980947010722,0.39688001964329567,0.400863681040866,0.4045471929075569,0.40792894861594264,0.411007619466922,0.4137821529227669,0.4162517704862406,0.41841596523861607,0.4202744990766009,0.4218273996622685,0.42307495707643333,0.4240177201921937,0.4246564928077842,0.424992329550722,0.4250265315419039,0.4247606418342086,0.4241964406636295,0.42333594052739143,0.4221813810817544,0.4207352238747681,0.41900014694923143,0.41697903932804564,0.4146749953735149,0.41209130903309427,0.4092314680027576,0.40609914781774764,0.40269820586123567,0.39903267530082204,0.3951067589802227,0.3909248232737877,0.38649139189370435,0.3818111396576348,0.37688888624072636,0.37172958991796146,0.36633834128647813,0.3607203569735588,0.3548809733493196,0.3488256402442175,0.342559914655818,0.33608945444698185,0.32942001205510957,0.3225574282193204,0.31550762571908536,0.3082766031305678,0.30087042861748714,0.2932952337575555,0.28555720739246915,0.27766258950351624,0.26961766512797175,0.26142875831918094,0.253102226141703,0.24464445270464685,0.23606184324546364,0.22736081826161547,0.21854780767598736,0.20962924503628802,0.20061156176275843,0.19150118144911113,0.18230451421179109,0.173027951093582,0.16367785853870104,0.1542605729486795,0.14478239531970322,0.1352495859690197,0.1256683593623844,0.1160448790417905,0.1063852526435719,0.09669552700767346,0.08698168338852318,0.07724963276895201,0.06750521127050112,0.0577541756629559,0.04800219898387545,0.03825486626914279,0.028517670387508968,0.01879600798182037,0.009095175527726573,-0.00057963448893133,-0.010223337282790871,-0.019830959364295284,-0.02939764200647925,-0.0389186445769,-0.04838934773552794,-0.05780525649208791,-0.06716200311031241,-0.0764553498552464,-0.08568119158699596,-0.09483555819690863,-0.1039146168767358,-0.11291467422114747,-0.12183217817144841,-0.130663719799213,-0.13940603492030015,-0.1480560055371998,-0.156610661114608,-0.16506717968547632,-0.17342288877847442,-0.18167526616625249,-0.18982194044095588,-0.1978606914155486,-0.2057894503423174,-0.2136062999469823,-0.22130947428345568,-0.2288973584077639,-0.23636848786429385,-0.24372154798542742,-0.25095537301225457,-0.25806894503717487,-0.26506139276286306,-0.27193199007847996,-0.2786801544600907,-0.28530544519664,-0.2918075614382443,-0.2981863400707219,-0.3044417534262878,-0.3105739068342958,-0.316583036010257,-0.3224695042869558,-0.3282337996968702,-0.33387653191009115,-0.3393984290271488,-0.3448003342311019,-0.35008320230810175,-0.3552480960417228,-0.36029618248313944,-0.36522872910477777,-0.3700470998497061,-0.37475275108453837,-0.37934722745922317,-0.38383215768095363,-0.3882092502133428,-0.3924802889089576,-0.3966471285821238,-0.4007116905360677,-0.404675958062958,-0.40854197192848996,-0.4123118258441114,-0.41598766192970227,-0.41957166617204344,-0.42306606388348317,-0.4264731151658186,-0.4297951103903526,-0.43303436570859494,-0.4361932186032475,-0.4392740234829963,-0.44227914732429746,-0.44521096536512034,-0.4480718568552236,-0.45086420086856444,-0.45359037218833126,-0.4562527372777037,-0.4588536503453697,-0.4613954495099912,-0.46388045306781595,-0.46631095586895394,-0.46868922580668165,-0.47101750042380436,-0.4732979836431687,-0.47553284263118595,-0.47772420480016353,-0.4798741549519281,-0.4819847325657951,-0.48405792923503443,-0.4860956862542626,-0.4880998923587053,-0.4900723816176932,-0.4920149314858643,-0.4939292610143472,-0.4958170292258225,-0.4976798336640119,-0.4995192091307402,-0.5013366266157836,-0.5031334924138916,-0.5049111474184179,-0.5066708665810095,-0.5084138585284083,-0.5101412653308398,-0.5118541624213403,-0.5135535586673251,-0.5152403965921429,-0.5169155527393102,-0.5185798381699737,-0.5202339990844477,-0.5218787175598247,-0.523514612398009,-0.5251422400818389,-0.526762095838323,-0.5283746148058613,-0.5299801732998201,-0.5315790901707828,-0.5331716282504383,-0.5347579958790705,-0.5363383485064468,-0.53791279035615,-0.5394813761433686,-0.5410441128380901,-0.5426009614679825,-0.5441518389565456,-0.545696619992533,-0.5472351389266576,-0.5487671916909356,-0.5502925377348238,-0.5518109019720201,-0.5533219767329659,-0.5548254237184173,-0.5563208759477275,-0.5578079396947907,-0.5592861964067982,-0.5607552046021712,-0.5622145017416847,-0.5636636060655956,-0.5651020183930825,-0.5665292238839371,-0.5679446937620755,-0.5693478869994476,-0.5707382519604908,-0.5721152280078808,-0.5734782470674503,-0.5748267351484385,-0.5761601138177723,-0.5774778016278499,-0.5787792154925375,-0.5800637720035682,-0.5813308886848388,-0.5825799851872521,-0.5838104844249096,-0.5850218136512683,-0.5862134054764795,-0.5873846988259178,-0.5885351398301207,-0.5896641826317853,-0.5907712901047758,-0.5918559344872864,-0.5929175979244511,-0.5939557729107942,-0.5949699626317433,-0.5959596812067962,-0.5969244538221703,-0.5978638167328303,-0.5987773171295862,-0.599664512877565,-0.6005249721168563,-0.6013582727062071,-0.6021640015095597,-0.602941753537054,-0.6036911309308142,-0.6044117417724948,-0.6051031987135174,-0.6057651174422656,-0.6063971149716383,-0.6069988077119208,-0.6075698093289511,-0.6081097284135487,-0.6086181659575657,-0.6090947126101786,-0.6095389457258025,-0.609950426241795,-0.6103286953858802,-0.6106732711864502,-0.610983644802133,-0.6112592767176172,-0.6114995928073829,-0.6117039802369558,-0.6118717832218968,-0.6120022987041084,-0.6120947719586706,-0.6121483921086289,-0.612162287577212,-0.6121355215473626,-0.612067087447335,-0.6119559044412163,-0.6118008129578761,-0.6116005703369763,-0.6113538466205529,-0.6110592204766777,-0.610715175293357,-0.6103200955219247,-0.60987226329423,-0.6093698552931904,-0.6088109399097074,-0.6081934747655321,-0.6075153046324967,-0.6067741597343218,-0.6059676544640541,-0.605093286589799,-0.6041484369704494,-0.6031303697587397,-0.6020362331137948,-0.600863060485333,-0.5996077724857799,-0.5982671793243147,-0.5968379838155988,-0.5953167850088297,-0.5937000824358158,-0.5919842809358398,-0.5901656960535179,-0.588240560041379,-0.5862050284596553,-0.584055187328585,-0.5817870608208963,-0.5793966195113082,-0.5768797891623271,-0.574232459991301,-0.5714504963936811,-0.56852974712547,-0.5654660559156135,-0.5622552724486607,-0.5588932636840461,-0.5553759255018634,-0.5516991946346678,-0.5478590608175519,-0.5438515791139891,-0.5396728823986863,-0.535319193953488,-0.5307868401088112,-0.5260722628862735,-0.5211720326216975,-0.5160828605291663,-0.5108016111474953,-0.5053253146278742,-0.4996511788367941,-0.493776601228024,-0.48769918042015914,-0.48141672743609226,-0.47492727658239015,-0.4682290959369146,-0.4613206974005554,-0.4542008462812425,-0.4468685703903374,-0.43932316861998716,-0.431564218959501,-0.42359158592147916,-0.4154054273628016,-0.4070062006808952,-0.3983946683587869,-0.3895719028404064,-0.3805392907266643,-0.37129853627918236,-0.36185166421387877,-0.35220102177286466,-0.3423492800714463,-0.3322994347175268,-0.3220548056987565,-0.3116190365356233,-0.30099609270412353,-0.29019025933515374,-0.27920613819825024,-0.26804864397630834,-0.25672299983876656,-0.24523473232448675,-0.23358966554761304,-0.22179391473794877,-0.20985387912895961,-0.1977762342148827,-0.1855679234028609,-0.17323614908053078,-0.16078836311851444,-0.14823225683953847,-0.13557575049276663,-0.12282698226099435,-0.10999429682137789,-0.09708623349303873,-0.08411151401339177,-0.07107902997117715,-0.057997829912709464,-0.04487710614886281,-0.03172618129953475,-0.018554494601151574,-0.005371587999656114,0.007812907924660413,0.02098928814057226,0.03414778742105964,0.047278594653942234,0.06037186717669759,0.07341774509104088,0.08640636553253159,0.09932787688417274,0.11217245290036257,0.1249303066916563,0.13759170454439965,0.15014697956566295,0.16258654511748163,0.17490090798612193,0.1870806812614838,0.1991165969257167,0.21099951812591322,0.22272045108651528,0.23427055664594107,0.2456411614240521,0.2568237685985806,0.2678100682472142,0.2785919472438789,0.28916149872370633,0.29951103110310684,0.3096330766188953,0.31952039938235133,0.32916600297006526,0.3385631375439647,0.3477053064692447,0.3565862724310264,0.36520006307597036,0.3735409761730905,0.3816035842629408,0.3893827387990343,0.39687357381629407,0.40407150913454326,0.4109722530807167,0.4175718047433465,0.42386645579831067,0.4298527919161132,0.43552769373635386,0.44088833742346817,0.4459321948413592,0.4506570333549453,0.455060915242021,0.45914219672744283,0.4628995266753849,0.466331844946014,0.46943838039849883,0.47221864855192236,0.4746724489436655,0.4767998622023099,0.4786012468298428,0.4800772357109092,0.4812287323864687,0.48205690710378735,0.4825631926327826,0.48274927986136756,0.48261711320185047,0.4821688858162663,0.4814070346477078,0.4803342352674568,0.4789533965692888,0.47726765532333604,0.475280370583295,0.4729951179586342,0.47041568377822846,0.4675460591499793,0.4643904339028057,0.46095319041707394,0.4572388973686191,0.453252303395958,0.44899833068458894,0.4444820684769632,0.43970876652821217,0.4346838285079612,0.42941280533288734,0.4239013884324214,0.41815540296685083,0.41218080100316246,0.4059836546403799,0.3995701490904586,0.3929465757333934,0.3861193251504529,0.379094880126569,0.37187980862679837,0.36448075676403924,0.3569044417615651,0.349157644901985,0.3412472044677274,0.3331800086907607,0.32496298871795026,0.3166031115877136,0.30810737322518994,0.29948279147411333,0.2907363991735982,0.2818752372783783,0.27290634802971236,0.26383676818867496,0.2546735223269324,0.24542361615917682,0.23609402991720016,0.22669171178225364,0.21722357138644818,0.20769647338562977,0.1981172311145493,0.18849260034139573,0.17882927312688782,0.16913387178394604,0.1594129429444319,0.14967295174882425,0.13992027616544325,0.1301612014374435,0.12040191466517362,0.1106484995399412,0.10090693123650989,0.09118307146368719,0.0814826636805246,0.07181132849238188,0.06217455923165063,0.0525777177200348,0.043026030217519946,0.03352458356929056,0.024078321551242295,0.014692041406598973,0.005370390576427824,-0.003882136362595605,-0.013061200545444959,-0.022162621450121885,-0.031182379306284282,-0.040116617269409856,-0.04896164335714146,-0.05771393215150412,-0.06637012626434975,-0.07492703755820891,-0.08338164812278111,-0.09173111101405497,-0.09997275075628524,-0.10810406360082213,-0.1161227175422818,-0.12402655209870565,-0.13181357785664258,-0.13948197577674434,-0.14703009626134142,-0.15445645799112037,-0.16175974653376887,-0.16893881272534236,-0.17599267083429013,-0.1829204965243347,-0.1897216246244493,-0.19639554670553072,-0.20294190846645233,-0.2093605069368647,-0.21565128750041251,-0.22181434073903772,-0.22784989910479225,-0.23375833343041175,-0.23954014928576506,-0.24519598318388647,-0.2507265986456685,-0.2561328821367631,-0.2614158388855989,-0.26657658858688843,-0.27161636099874226,-0.2765364914453065,-0.28133841623335903,-0.28602366798840434,-0.290593870920213,-0.29505073603139303,-0.299396056278926,-0.30363170169620807,-0.3077596144885875,-0.3117818041191585,-0.31570034239575345,-0.3195173585631382,-0.3232350344047615,-0.326855599360753,-0.33038132566741596,-0.33381452352294216,-0.3371575362883925,-0.3404127357358431,-0.3435825173524481,-0.34666929570716537,-0.3496754998912677,-0.35260356904661566,-0.3554559479905924,-0.35823508294093026,-0.3609434173443354,-0.3635833878147024,-0.36615742018466135,-0.3686679256731351,-0.37111729717541153,-0.37350790568464887,-0.37584209684968656,-0.37812218766924005,-0.38035046332262074,-0.3825291741385169,-0.38466053270246703,-0.38674671110423353,-0.3887898383307886,-0.3907919978129055,-0.3927552251290006,-0.3946815058648104,-0.3965727736273173,-0.3984309082125273,-0.4002577339256239,-0.4020550180524516,-0.40382446948566497,-0.4055677375110631,-0.4072864107552046,-0.4089820162902838,-0.410656018892043,-0.4123098204476699,-0.41394475950921134,-0.4155621109868512,-0.4171630859781365,-0.4187488317306664,-0.42032043173454625,-0.4218789059412341,-0.42342521110971243,-0.4249602412830541,-0.42648482839383606,-0.42799974299091925,-0.4295056950785878,-0.4310033350598572,-0.4324932547754661,-0.43397598862920095,-0.43545201479022744,-0.43692175646387543,-0.43838558322354204,-0.439843812398799,-0.44129671051817165,-0.4427444948064866,-0.44418733473443195,-0.44562535361472155,-0.4470586302379339,-0.44848720054140256,-0.4499110593053428,-0.4513301618717931,-0.45274442588380714,-0.4541537330431933,-0.4555579308839345,-0.45695683455610536,-0.45835022861321073,-0.4597378687957233,-0.4611194838054117,-0.46249477706729347,-0.4638634284772566,-0.4652250961337304,-0.46657941805173125,-0.46792601385688387,-0.46926448645576174,-0.47059442367855636,-0.4719153998913752,-0.47322697757656806,-0.4745287088790584,-0.47582013711632287,-0.4771007982506001,-0.47837022232202625,-0.47962793483947913,-0.4808734581250446,-0.4821063126100617,-0.48332601808176573,-0.4845320948770681,-0.48572406501868887,-0.48690145329140044,-0.4880637882555985,-0.48921060318826237,-0.49034143693830856,-0.49145583469102067,-0.4925533486420776,-0.4936335385764569,-0.4946959723439394,-0.4957402262298256,-0.49676588521988174,-0.49777254314273556,-0.49875980266556796,-0.49972727513613513,-0.5006745802780154,-0.5016013457352057,-0.5025072064541168,-0.5033918039059527,-0.5042547851575551,-0.5050958017726336,-0.5059145085114448,-0.5067105618250664,-0.5074836181606724,-0.5082333320697744,-0.5089593540948124,-0.5096613284404865,-0.5103388904567583,-0.5109916639273384,-0.5116192581357126,-0.512221264719041,-0.5127972543475223,-0.5133467732289858,-0.5138693394120548,-0.5143644389049433,-0.5148315216586241,-0.5152699974193287,-0.5156792314238905,-0.51605853996078,-0.5164071858572894,-0.5167243739061653,-0.5170092462092202,-0.5172608774678625,-0.5174782702918622,-0.5176603505479983,-0.5178059627308439,-0.5179138653882035,-0.5179827266623686,-0.5180111199332998,-0.517997519500662,-0.5179402963194402,-0.5178377138820791,-0.5176879243064236,-0.5174889646463912,-0.5172387534877335,-0.516935087929416,-0.5165756409987315,-0.5161579595024449,-0.5156794623586267,-0.5151374394874864,-0.514529051284143,-0.5138513286502138,-0.5131011736068626,-0.5122753605546856,-0.5113705382027717,-0.51038323214723,-0.5093098481150011,-0.5081466759188673,-0.5068898941229405,-0.5055355753771391,-0.504079692414603,-0.5025181247376024,-0.5008466659763943,-0.49906103186810935,-0.49715686883553156,-0.4951297631758723,-0.4929752508336708,-0.49068882769830025,-0.4882659603955789,-0.4857020975702252,-0.48299268162440845,-0.48013316084785906,-0.4771190019000495,-0.47394570262703306,-0.47060880516473125,-0.46710390925353984,-0.46342668571526774,-0.45957289006934093,-0.4555383762431932,-0.45131911030949684,-0.44691118420340203,-0.44231082939155864,-0.4375144304421995,-0.43251853842580756,-0.42731988409714367,-0.4219153908308399,N
5,-0.42306606388348317,-0.4264731151658186,-0.4297951103903526,-0.43303436570859494,-0.4361932186032475,-0.4392740234829963,-0.44227914732429746,-0.44521096536512034,-0.4480718568552236,-0.45086420086856444,-0.45359037218833126,-0.4562527372777037,-0.4588536503453697,-0.4613954495099912,-0.46388045306781595,-0.46631095586895394,-0.46868922580668165,-0.47101750042380436,-0.4732979836431687,-0.47553284263118595,-0.47772420480016353,-0.4798741549519281,-0.4819847325657951,-0.48405792923503443,-0.4860956862542626,-0.4880998923587053,-0.4900723816176932,-0.4920149314858643,-0.4939292610143472,-0.4958170292258225,-0.4976798336640119,-0.4995192091307402,-0.5013366266157836,-0.5031334924138916,-0.5049111474184179,-0.5066708665810095,-0.5084138585284083,-0.5101412653308398,-0.5118541624213403,-0.5135535586673251,-0.5152403965921429,-0.5169155527393102,-0.5185798381699737,-0.5202339990844477,-0.5218787175598247,-0.523514612398009,-0.5251422400818389,-0.526762095838323,-0.5283746148058613,-0.5299801732998201,-0.5315790901707828,-0.5331716282504383,-0.5347579958790705,-0.5363383485064468,-0.53791279035615,-0.5394813761433686,-0.5410441128380901,-0.5426009614679825,-0.5441518389565456,-0.545696619992533,-0.5472351389266576,-0.5487671916909356,-0.5502925377348238,-0.5518109019720201,-0.5533219767329659,-0.5548254237184173,-0.5563208759477275,-0.5578079396947907,-0.5592861964067982,-0.5607552046021712,-0.5622145017416847,-0.5636636060655956,-0.5651020183930825,-0.5665292238839371,-0.5679446937620755,-0.5693478869994476,-0.5707382519604908,-0.5721152280078808,-0.5734782470674503,-0.5748267351484385,-0.5761601138177723,-0.5774778016278499,-0.5787792154925375,-0.5800637720035682,-0.5813308886848388,-0.5825799851872521,-0.5838104844249096,-0.5850218136512683,-0.5862134054764795,-0.5873846988259178,-0.5885351398301207,-0.5896641826317853,-0.5907712901047758,-0.5918559344872864,-0.5929175979244511,-0.5939557729107942,-0.5949699626317433,-0.5959596812067962,-0.5969244538221703,-0.5978638167328303,-0.5987773171295862,-0.599664512877565,-0.6005249721168563,-0.6013582727062071,-0.6021640015095597,-0.602941753537054,-0.6036911309308142,-0.6044117417724948,-0.6051031987135174,-0.6057651174422656,-0.6063971149716383,-0.6069988077119208,-0.6075698093289511,-0.6081097284135487,-0.6086181659575657,-0.6090947126101786,-0.6095389457258025,-0.609950426241795,-0.6103286953858802,-0.6106732711864502,-0.610983644802133,-0.6112592767176172,-0.6114995928073829,-0.6117039802369558,-0.6118717832218968,-0.6120022987041084,-0.6120947719586706,-0.6121483921086289,-0.612162287577212,-0.6121355215473626,-0.612067087447335,-0.6119559044412163,-0.6118008129578761,-0.6116005703369763,-0.6113538466205529,-0.6110592204766777,-0.610715175293357,-0.6103200955219247,-0.60987226329423,-0.6093698552931904,-0.6088109399097074,-0.6081934747655321,-0.6075153046324967,-0.6067741597343218,-0.6059676544640541,-0.605093286589799,-0.6041484369704494,-0.6031303697587397,-0.6020362331137948,-0.600863060485333,-0.5996077724857799,-0.5982671793243147,-0.5968379838155988,-0.5953167850088297,-0.5937000824358158,-0.5919842809358398,-0.5901656960535179,-0.588240560041379,-0.5862050284596553,-0.584055187328585,-0.5817870608208963,-0.5793966195113082,-0.5768797891623271,-0.574232459991301,-0.5714504963936811,-0.56852974712547,-0.5654660559156135,-0.5622552724486607,-0.5588932636840461,-0.5553759255018634,-0.5516991946346678,-0.5478590608175519,-0.5438515791139891,-0.5396728823986863,-0.535319193953488,-0.5307868401088112,-0.5260722628862735,-0.5211720326216975,-0.5160828605291663,-0.5108016111474953,-0.5053253146278742,-0.4996511788367941,-0.493776601228024,-0.48769918042015914,-0.48141672743609226,-0.47492727658239015,-0.4682290959369146,-0.4613206974005554,-0.4542008462812425,-0.4468685703903374,-0.43932316861998716,-0.431564218959501,-0.42359158592147916,-0.4154054273628016,-0.4070062006808952,-0.3983946683587869,-0.3895719028404064,-0.3805392907266643,-0.37129853627918236,-0.36185166421387877,-0.35220102177286466,-0.3423492800714463,-0.3322994347175268,-0.3220548056987565,-0.3116190365356233,-0.30099609270412353,-0.29019025933515374,-0.27920613819825024,-0.26804864397630834,-0.25672299983876656,-0.24523473232448675,-0.23358966554761304,-0.22179391473794877,-0.20985387912895961,-0.1977762342148827,-0.1855679234028609,-0.17323614908053078,-0.16078836311851444,-0.14823225683953847,-0.13557575049276663,-0.12282698226099435,-0.10999429682137789,-0.09708623349303873,-0.08411151401339177,-0.07107902997117715,-0.057997829912709464,-0.04487710614886281,-0.03172618129953475,-0.018554494601151574,-0.005371587999656114,0.007812907924660413,0.02098928814057226,0.03414778742105964,0.047278594653942234,0.06037186717669759,0.07341774509104088,0.08640636553253159,0.09932787688417274,0.11217245290036257,0.1249303066916563,0.13759170454439965,0.15014697956566295,0.16258654511748163,0.17490090798612193,0.1870806812614838,0.1991165969257167,0.21099951812591322,0.22272045108651528,0.23427055664594107,0.2456411614240521,0.2568237685985806,0.2678100682472142,0.2785919472438789,0.28916149872370633,0.29951103110310684,0.3096330766188953,0.31952039938235133,0.32916600297006526,0.3385631375439647,0.3477053064692447,0.3565862724310264,0.36520006307597036,0.3735409761730905,0.3816035842629408,0.3893827387990343,0.39687357381629407,0.40407150913454326,0.4109722530807167,0.4175718047433465,0.42386645579831067,0.4298527919161132,0.43552769373635386,0.44088833742346817,0.4459321948413592,0.4506570333549453,0.455060915242021,0.45914219672744283,0.4628995266753849,0.466331844946014,0.46943838039849883,0.47221864855192236,0.4746724489436655,0.4767998622023099,0.4786012468298428,0.4800772357109092,0.4812287323864687,0.48205690710378735,0.4825631926327826,0.48274927986136756,0.48261711320185047,0.4821688858162663,0.4814070346477078,0.4803342352674568,0.4789533965692888,0.47726765532333604,0.475280370583295,0.4729951179586342,0.47041568377822846,0.4675460591499793,0.4643904339028057,0.46095319041707394,0.4572388973686191,0.453252303395958,0.44899833068458894,0.4444820684769632,0.43970876652821217,0.4346838285079612,0.42941280533288734,0.4239013884324214,0.41815540296685083,0.41218080100316246,0.4059836546403799,0.3995701490904586,0.3929465757333934,0.3861193251504529,0.379094880126569,0.37187980862679837,0.36448075676403924,0.3569044417615651,0.349157644901985,0.3412472044677274,0.3331800086907607,0.32496298871795026,0.3166031115877136,0.30810737322518994,0.29948279147411333,0.2907363991735982,0.2818752372783783,0.27290634802971236,0.26383676818867496,0.2546735223269324,0.24542361615917682,0.23609402991720016,0.22669171178225364,0.21722357138644818,0.20769647338562977,0.1981172311145493,0.18849260034139573,0.17882927312688782,0.16913387178394604,0.1594129429444319,0.14967295174882425,0.13992027616544325,0.1301612014374435,0.12040191466517362,0.1106484995399412,0.10090693123650989,0.09118307146368719,0.0814826636805246,0.07181132849238188,0.06217455923165063,0.0525777177200348,0.043026030217519946,0.03352458356929056,0.024078321551242295,0.014692041406598973,0.005370390576427824,-0.003882136362595605,-0.013061200545444959,-0.022162621450121885,-0.031182379306284282,-0.040116617269409856,-0.04896164335714146,-0.05771393215150412,-0.06637012626434975,-0.07492703755820891,-0.08338164812278111,-0.09173111101405497,-0.09997275075628524,-0.10810406360082213,-0.1161227175422818,-0.12402655209870565,-0.13181357785664258,-0.13948197577674434,-0.14703009626134142,-0.15445645799112037,-0.16175974653376887,-0.16893881272534236,-0.17599267083429013,-0.1829204965243347,-0.1897216246244493,-0.19639554670553072,-0.20294190846645233,-0.2093605069368647,-0.21565128750041251,-0.22181434073903772,-0.22784989910479225,-0.23375833343041175,-0.23954014928576506,-0.24519598318388647,-0.2507265986456685,-0.2561328821367631,-0.2614158388855989,-0.26657658858688843,-0.27161636099874226,-0.2765364914453065,-0.28133841623335903,-0.28602366798840434,-0.290593870920213,-0.29505073603139303,-0.299396056278926,-0.30363170169620807,-0.3077596144885875,-0.3117818041191585,-0.31570034239575345,-0.3195173585631382,-0.3232350344047615,-0.326855599360753,-0.33038132566741596,-0.33381452352294216,-0.3371575362883925,-0.3404127357358431,-0.3435825173524481,-0.34666929570716537,-0.3496754998912677,-0.35260356904661566,-0.3554559479905924,-0.35823508294093026,-0.3609434173443354,-0.3635833878147024,-0.36615742018466135,-0.3686679256731351,-0.37111729717541153,-0.37350790568464887,-0.37584209684968656,-0.37812218766924005,-0.38035046332262074,-0.3825291741385169,-0.38466053270246703,-0.38674671110423353,-0.3887898383307886,-0.3907919978129055,-0.3927552251290006,-0.3946815058648104,-0.3965727736273173,-0.3984309082125273,-0.4002577339256239,-0.4020550180524516,-0.40382446948566497,-0.4055677375110631,-0.4072864107552046,-0.4089820162902838,-0.410656018892043,-0.4123098204476699,-0.41394475950921134,-0.4155621109868512,-0.4171630859781365,-0.4187488317306664,-0.42032043173454625,-0.4218789059412341,-0.42342521110971243,-0.4249602412830541,-0.42648482839383606,-0.42799974299091925,-0.4295056950785878,-0.4310033350598572,-0.4324932547754661,-0.43397598862920095,-0.43545201479022744,-0.43692175646387543,-0.43838558322354204,-0.439843812398799,-0.44129671051817165,-0.4427444948064866,-0.44418733473443195,-0.44562535361472155,-0.4470586302379339,-0.44848720054140256,-0.4499110593053428,-0.4513301618717931,-0.45274442588380714,-0.4541537330431933,-0.4555579308839345,-0.45695683455610536,-0.45835022861321073,-0.4597378687957233,-0.4611194838054117,-0.46249477706729347,-0.4638634284772566,-0.4652250961337304,-0.46657941805173125,-0.46792601385688387,-0.46926448645576174,-0.47059442367855636,-0.4719153998913752,-0.47322697757656806,-0.4745287088790584,-0.47582013711632287,-0.4771007982506001,-0.47837022232202625,-0.47962793483947913,-0.4808734581250446,-0.4821063126100617,-0.48332601808176573,-0.4845320948770681,-0.48572406501868887,-0.48690145329140044,-0.4880637882555985,-0.48921060318826237,-0.49034143693830856,-0.49145583469102067,-0.4925533486420776,-0.4936335385764569,-0.4946959723439394,-0.4957402262298256,-0.49676588521988174,-0.49777254314273556,-0.49875980266556796,-0.49972727513613513,-0.5006745802780154,-0.5016013457352057,-0.5025072064541168,-0.5033918039059527,-0.5042547851575551,-0.5050958017726336,-0.5059145085114448,-0.5067105618250664,-0.5074836181606724,-0.5082333320697744,-0.5089593540948124,-0.5096613284404865,-0.5103388904567583,-0.5109916639273384,-0.5116192581357126,-0.512221264719041,-0.5127972543475223,-0.5133467732289858,-0.5138693394120548,-0.5143644389049433,-0.5148315216586241,-0.5152699974193287,-0.5156792314238905,-0.51605853996078,-0.5164071858572894,-0.5167243739061653,-0.5170092462092202,-0.5172608774678625,-0.5174782702918622,-0.5176603505479983,-0.5178059627308439,-0.5179138653882035,-0.5179827266623686,-0.5180111199332998,-0.517997519500662,-0.5179402963194402,-0.5178377138820791,-0.5176879243064236,-0.5174889646463912,-0.5172387534877335,-0.516935087929416,-0.5165756409987315,-0.5161579595024449,-0.5156794623586267,-0.5151374394874864,-0.514529051284143,-0.5138513286502138,-0.5131011736068626,-0.5122753605546856,-0.5113705382027717,-0.51038323214723,-0.5093098481150011,-0.5081466759188673,-0.5068898941229405,-0.5055355753771391,-0.504079692414603,-0.5025181247376024,-0.5008466659763943,-0.49906103186810935,-0.49715686883553156,-0.4951297631758723,-0.4929752508336708,-0.49068882769830025,-0.4882659603955789,-0.4857020975702252,-0.48299268162440845,-0.48013316084785906,-0.4771190019000495,-0.47394570262703306,-0.47060880516473125,-0.46710390925353984,-0.46342668571526774,-0.45957289006934093,-0.4555383762431932,-0.45131911030949684,-0.44691118420340203,-0.44231082939155864,-0.4375144304421995,-0.43251853842580756,-0.42731988409714367,-0.4219153908308399,-0.4163021872674921,-0.41047761961143164,-0.4044392635384699,-0.39818493568923724,-0.39171270471124625,-0.3850209018000878,-0.3781081307049105,-0.3709732771800817,-0.3636155178587676,-0.3560343285153151,-0.34822949169184697,-0.3402011036726596,-0.33194958078156006,-0.3234756649700528,-0.3147804286744594,-0.3058652789324086,-0.2967319607482553,-0.2873825596932636,-0.27781950373189457,-0.26804556427392245,-0.2580638564546608,-0.2478778386446269,-0.2374913111903661,-0.22690841439019122,-0.21613362571063216,-0.2051717562500655,-0.19402794645605365,-0.18270766110671804,-0.17121668357468584,-0.15956110939580376,-0.1477473391593869,-0.13578207073386286,-0.12367229084903679,-0.11142526606117957,-0.09904853312109804,-0.0865498887639368,-0.07393737895276101,-0.0612192876157058,-0.04840412490491699,-0.03550061499803219,-0.022517683476578756,-0.009464444324980139,0.0036498134201839714,0.016815639350604632,0.030023435660380175,0.043263471366717106,0.056525896746532044,0.06980075796927937,0.0830780118868758,0.09634754092825681,0.10959916806649492,0.12282267184073295,0.1360078013931262,0.14914429146556143,0.16222187732578175,0.1752303096133404,0.1881593690763702,0.20099888115411024,0.21373873038252594,0.2263688746143077,0.2388793590147204,0.25126032977505414,0.2635020475168943,0.27559490038681567,0.2875294168168705,0.2992962779063002,0.3108863294095338,0.3222905933389441,0.33350027916269903,0.3445067945562105,0.3553017556966368,0.3658769971137267,0.3762245810791204,0.38633680649257973,0.3962062172578783,0.40582561016970853,0.4151880423036961,0.4242868378774335,0.43311559458349164,0.4416681894222378,0.4499387840308335,0.4579218294794391,0.46561207053958864,0.4730045494586351,0.48009460924438374,0.4868778964386259,0.49335036339039884,0.49950827006715026,0.5053481854121842,0.5108669882313059,0.5160618676220644,0.5209303229842849,0.5254701636197473,0.5296795079032391,0.5335567820382499,0.5371007184383705,0.5403103537487068,0.5431850264972529,0.5457243743932367,0.5479283313125269,0.5497971239822133,0.5513312683524791,0.5525315656705941,0.5533990982960152,0.5539352252712263,0.5541415776405604,0.5540200535328198,0.5535728130450289,0.5528022729421694,0.5517111011668984,0.5503022111736545,0.5485787561190928,0.5465441229177613,0.5442019261520624,0.5415560018458143,0.5386104011282244,0.5353693837934574,0.5318374117423301,0.5280191423129815,0.5239194215262925,0.5195432772541212,0.5148959123016376,0.5099826974122669,0.5048091642194098,0.4993809981520848,0.49370403128611373,0.4877842351480331,0.4816277134925265,0.47524069505753147,0.46862952628669424,0.46180066402412223,0.45476066819980254,0.4475161945086491,0.4400739870727103,0.4324408710910528,0.42462374549570114,0.41662957561901415,0.4084653858657479,0.40013825239551176,0.39165529583036124,0.3830236739853233,0.3742505746070633,0.36534320812268706,0.3563088004181185,0.3471545856575171,0.3378877991451319,0.32851567024065303,0.31904541534643366,0.30948423097124994,0.29983928686458733,0.29011771922740215,0.28032662401595443,0.2704730503443987,0.26056399398208774,0.250606390952395,0.2406071112488888,0.23057295267310687,0.22051063478857905,0.21042679299738926,0.20032797275728081,0.19022062394994338,0.180111095402878,0.1700056295746242,0.1599103574185127,0.14983129342884152,0.13977433086466687,0.12974523715568612,0.11974964950238623,0.10979307067264091,0.09988086498862839,0.09001825450755863,0.08021031540834461,0.07046197458781239,0.06077800646221959,0.05116302997796267,0.041621505841364245,0.03215773396671086,0.02277585113347365,0.013479828853328287,0.004273471455620561,-0.004839585609788937,-0.013855877261455193,-0.02277211006658208,-0.03158516330411711,-0.04029208981204269,-0.048890116628351195,-0.05737664542546154,-0.06574925272911603,-0.07400568992129913,-0.08214388303453712,-0.09016193233633675,-0.09805811169410479,-0.10583086771765189,-0.11347881868349559,-0.12100075323962249,-0.1283956288862274,-0.13566257023904643,-0.14280086708979384,-0.14980997226876866,-0.15668949930417372,-0.16343921987632468,-0.17005906107081445,-0.17654910243104643,-0.18290957280832681,-0.189140847016188,-0.1952434423020471,-0.2012180146429363,-0.20706535486409547,-0.212786384580909,-0.2183821519689447,-0.22385382736611514,-0.22920269871184085,-0.23443016683568307,-0.2395377406128617,-0.24452703199930784,-0.2493997509535595,-0.25415770025519474,-0.258802770232852,-0.26333693341240566,-0.2677622390931243,-0.27208080786213734,-0.2762948260602918,-0.28040654021083605,-0.28441825142097416,-0.2883323097692277,-0.2921511086938869,-0.29587707939579183,-0.2995126852675846,-0.30306041636532116,-0.3065227839406354,-0.30990231504762783,-0.3132015472344935,-0.31642302333110556,-0.31956928634533427,-0.32264287447832485,-0.3256463162673934,-0.3285821258685383,-0.3314527984925103,-0.33426080600388075,-0.3370085926873092,-0.3396985711848475,-0.3423331186090981,-0.34491457283557514,-0.34744522897699603,-0.3499273360450319,-0.35236309380657715,-0.3547546498386632,-0.35710409678426436,-0.359413469814324,-0.36168474430307207,-0.36391983371938325,-0.36612058773320927,-0.3682887905383652,-0.3704261593947052,-0.37253434338844854,-0.37461492240510125,-0.37666940631053586,-0.3786992343373588,-0.38070577467103567,-0.38269032422800114,-0.38465410862017896,-0.38659828230213616,-0.38852392889447335,-0.39043206167485006,-0.3923236242302906,-0.39419949126626347,-0.396060469565288,-0.3979072990848655,-0.39974065418549704,-0.4015611449810647,-0.40336931880275356,-0.40516566176748897,-0.40695060044511194,-0.40872450362053175,-0.4104876841441663,-0.4122404008601939,-0.41398286060176864,-0.4157152202434718,-0.41743758880159826,-0.41915002957456343,-0.4208525623198783,-0.4225451654662274,-0.4242277783559674,-0.4259003035086631,-0.4275626088944758,-0.4292145302068647,-0.43085587312555335,-0.4324864155634049,-0.4341059098944981,-0.4357140851623846,-0.4373106492653367,-0.4388952911115793,-0.4404676827350791,-0.44202748136260217,-0.4435743314248591,-0.4451078665064077,-0.4466277112292541,-0.44813348306539874,-0.4496247940752626,-0.45110125257039496,-0.4525624646987671,-0.4540080359509286,-0.45543757258684064,-0.4568506829851901,-0.4582469789179619,-0.45962607675315964,-0.46098759858779026,-0.46233117330986895,-0.46365643758274766,-0.4649630367433706,-0.46625062561090075,-0.4675188692062931,-0.4687674433814489,-0.46999603535504236,-0.4712043441554972,-0.4723920809710776,-0.4735589693978968,-0.4747047455726255,-0.47582915818613897,-0.4769319683803302,-0.4780129495211503,-0.4790718868355613,-0.48010857691182224,-0.48112282706904036,-0.4821144545877582,-0.4830832857852178,-0.48402915493542487,-0.484951903043941,-0.4858513764684499,-0.48672742536481006,-0.48757990196016976,-0.48840865866768135,-0.4892135460315793,-0.48999441047576064,-0.490751091858951,-0.491483420860598,-0.49219121619301903,-0.49287428161592434,-0.49353240276333504,-0.4941653438144778,-0.49477284400113347,-0.49535461391856545,-0.4959103316513308,-0.4964396387587874,-0.49694213612561244,-0.4974173796534128,-0.49786487581590094,-0.4982840771339316,-0.49867437757915484,-0.4990351078803909,-0.4993655307593876,-0.49966483616485613,-0.4999321365268168,-0.5001664620155601,-0.5003667558408255,-0.500531869666421,-0.5006605591622318,-0.5007514796737568,-0.5008031820439665,-0.500814108668652,-0.5007825898172267,-0.5007068402081956,-0.500584955877869,-0.5004149114206584,-0.5001945576251481,-0.4999216194852945,-0.4995936946166061,-0.4992082521519158,-0.4987626321439983,-0.49825404545882457,-0.49767957418639136,-0.49703617263255834,-0.49632066890584065,-0.49552976706996593,-0.4946600498746065,-0.4937079821133465,-0.4926699146127455,-0.49154208881545863,-0.49032064195809055,-0.4890016128779553,-0.48758094844062216,-0.48605451054174087,-0.4844180836714356,-0.48266738306208556,-0.48079806340412445,-0.47880572807988275,-0.4766859388944647,-0.47443422630840676,-0.4720461001413417,-0.4695170606840838,-0.46684261018482504,-0.46401826470186774,-0.4610395662862418,-0.4579020954298669,-0.454601483739415,-0.4511334268190783,-0.44749369731958266,-0.4436781580866094,-0.4396827753635635,-0.4355036320225447,-0.43113694077170406,-0.42657905726542467,-0.42182649306795594,-0.41687592844631405,-0.4117242249533185,-0.40636843774469933,-0.40080582759142935,-0.3950338725664361,-0.3890502793721192,-0.38285299426139596,N
