0,0.5707021528828815,0.5854467008032944,0.5999980072980609,0.6143462439526158,0.6284817890167959,0.6423952399334137,0.656077425490826,0.6695194175781409,0.682712542541908,0.6956483921313688,0.7083188340068969,0.7207160218012032,0.7328324047353469,0.7446607367761164,0.7561940853085807,0.7674258393137148,0.7783497170571967,0.7889597732858022,0.7992504059170913,0.8092163622181251,0.8188527444739845,0.828155015127349,0.8371190013578734,0.8457408990882966,0.8540172764203169,0.8619450764903196,0.8695216197238749,0.8767446054841406,0.8836121131210071,0.8901226024099014,0.8962749133566659,0.9020682653665986,0.9075022557987891,0.9125768579209763,0.9172924182705386,0.9216496534365226,0.9256496462772899,0.929293841559756,0.9325840409910717,0.9355223976410681,0.9381114097797719,0.9403539141420952,0.9422530786191946,0.9438123943970576,0.9450356675832348,0.9459270103509425,0.9464908316173251,0.9467318272861572,0.9466549700910424,0.9462654990487046,0.9455689085156612,0.9445709368664262,0.943277554832234,0.9416949535199212,0.9398295321146447,0.9376878852932674,0.9352767903924962,0.9326031943514107,0.9296742004298392,0.9264970547309442,0.9230791325807856,0.9194279247989657,0.9155510238767853,0.9114561101009586,0.9071509376793931,0.9026433209044915,0.8979411203710324,0.8930522292852632,0.887984559917157,0.8827460302241268,0.8773445506552853,0.8717880111668118,0.8660842684992883,0.8602411337502963,0.8542663602578732,0.84816763182484,0.8419525513208995,0.8356286296687502,0.8292032751996657,0.8226837833892375,0.8160773270068771,0.8093909466926523,0.8026315419561336,0.7958058626136492,0.7889205007035415,0.7819818829065076,0.7749962634817754,0.7679697177389956,0.7609081360674493,0.7538172185139657,0.7467024698811765,0.7395691953396044,0.732422496565845,0.7252672683984693,0.7181081959853373,0.7109497524173222,0.7037961968650902,0.6966515732219635,0.6895197092402167,0.682404216161265,0.6753084888514965,0.6682357064380345,0.6611888334232964,0.6541706212694307,0.6471836104516733,0.6402301329582238,0.6333123151984692,0.6264320812991394,0.6195911567841211,0.6127910726184053,0.6060331695826059,0.5993186029612727,0.592648347548228,0.5860232029674783,0.5794437992979691,0.5729106029949538,0.5664239231035988,0.5599839177469805,0.5535906008600584,0.5472438491484117,0.5409434092544954,0.5346889050991532,0.5284798453558623,0.5223156310291722,0.5161955631260317,0.5101188504080593,0.5040846172068058,0.49809191128771085,0.4921397117535113,0.48622693697452196,0.48035245252836817,0.4745150791326642,0.4687136005549344,0.4629467714793556,0.45721332530609393,0.45151198186280056,0.44584145501654254,0.44020046018171105,0.43458772171999555,0.4290019802226147,0.42344199966212026,0.41790657440619994,0.4123945360881064,0.40690476031963585,0.4014361732234084,0.3959877577612714,0.39055855983801147,0.3851476941595843,0.3797543498361938,0.3743777957461626,0.3690173856867255,0.3636725633158061,0.3583428668690022,0.3530279336454266,0.3477275042652995,0.3424414266873061,0.337169659967615,0.33191227776808335,0.32666947163628385,0.32144155405532693,0.3162289612457,0.3110322557297963,0.30585212868857214,0.3006894021077258,0.2955450306841763,0.2904201034879546,0.28531584539495897,0.2802336182768916,0.275174921911393,0.27014139460332903,0.26513481353097584,0.2601570948033376,0.2552102931970128,0.2502966015789241,0.24541835004805887,0.2405780047933053,0.2357781666346668,0.23102156924786568,0.2263110770997472,0.22164968308694757,0.2170405058388344,0.2124867866745265,0.2079918862308713,0.20355928075004104,0.19919255799240287,0.194895412773456,0.1906716421515492,0.18652514026483225,0.18245989279277863,0.17847997105057412,0.17458952575235387,0.17079278045004673,0.16709402462787834,0.16349760645981967,0.16000792526295368,0.1566294236551932,0.15336657940366197,0.15022389697630592,0.14720589883344928,0.14431711647455867,0.14156208123787425,0.13894531487838788,0.13647131997287118,0.13414457017570672,0.13196950032048974,0.1299504963727929,0.12809188525665863,0.12639792456878143,0.12487279219014781,0.12352057583014465,0.12234526255635293,0.1213507283460253,0.12054072768010089,0.11991888321852513,0.1194886756109856,0.1192534334781403,0.11921632357558018,0.11938034115687776,0.11974830056227712,0.12032282605455161,0.1211063429240157,0.12210106890591169,0.1233090059658333,0.12473193249090812,0.1263713959063511,0.12822870574470996,0.13030492720385584,0.13260087521635383,0.13511710903928048,0.1378539273803447,0.1408113640835204,0.1439891843852888,0.14738688173409392,0.15100367515832108,0.15483850717023478,0.15889004219647618,0.16315666552563057,0.16763648276057952,0.17232731976375504,0.1772267230891727,0.1823319608971214,0.18764002434081023,0.19314762941148061,0.1988512192370037,0.2047469668332295,0.21083077829714605,0.21709829642506775,0.22354490475065272,0.2301657320049945,0.2369556569886734,0.24390931383730177,0.25102109767665254,0.25828517067806206,0.26569546851889264,0.2732457072448374,0.2809293905379507,0.28873981739910853,0.2966700902415414,0.3047131233823888,0.3128616519275344,0.3211082410522225,0.32944529566994846,0.3378650704727734,0.34635968033364417,0.354921111069852,0.36354123056122845,0.3722118002089623,0.3809244867235172,0.3896708742339686,0.3984424767064151,0.4072307506528553,0.41602710811067856,0.4248229298689241,0.4336095789058432,0.44237841399533706,0.4511208034451812,0.45982813893240876,0.46849184939046634,0.47710341489605596,0.4856543805117353,0.49413637003927763,0.5025410996152093,0.5108603910691789,0.5190861849909449,0.5272105534732883,0.5352257124852438,0.5431240338198591,0.550898056582739,0.5585404982010145,0.5660442649072457,0.5734024616379898,0.5806084013170668,0.5876556135125582,0.594537852423965,0.601249104136451,0.6077835931202447,0.6141357879840463,0.6203004064575344,0.626272419554758,0.632047054917607,0.6376197993824567,0.6429864007898393,0.6481428690337202,0.6530854763817245,0.6578107571231481,0.6623155065634924,0.6665967793560904,0.6706518872016469,0.6744783959799643,0.6780741223431266,0.6814371297702733,0.6845657241238648,0.6874584487856187,0.6901140794244663,0.6925316184215163,0.6947102890042407,0.6966495291642394,0.6983489853990239,0.6998085062896431,0.7010281359547941,0.7020081074503066,0.7027488361587721,0.7032509131886906,0.7035150988207369,0.7035423160486368,0.7033336442229495,0.7028903127780649,0.7022136950548785,0.7013053022682905,0.700166777657119,0.6987998908336057,0.6972065323597398,0.6953887085807082,0.6933485367118593,0.691088240151978,0.6886101440187656,0.6859166709242343,0.683010336987545,0.6798937480631847,0.6765695961812317,0.6730406562140523,0.6693097827648469,0.6653799072555819,0.6612540352070766,0.6569352437139127,0.6524266790910207,0.6477315546502258,0.642853148586117,0.6377948019635987,0.6325599167690205,0.6271519539666849,0.6215744315336993,0.6158309224717695,0.6099250527692064,0.603860499266454,0.5976409874103277,0.5912702889096468,0.5847522192810304,0.5780906352533222,0.5712894320261477,0.5643525403906435,0.5572839236747085,0.5500875744480316,0.5427675109715512,0.53532777342502,0.5277724199280182,0.5201055223470868,0.5123311619127522,0.5044534246959622,0.49647639696294915,0.4884041604020917,0.4802407872455892,0.4719903353275375,0.4636568430783508,0.4552443244264593,0.4467567636202043,0.43819811002524983,0.42957227293263117,0.42088311638795933,0.41213445407614885,0.40333004431074054,0.3944735851363725,0.3855687095239488,0.37661898067235466,0.36762788745896635,0.3585988400474064,0.3495351656328073,0.3404401043397758,0.3313168053218458,0.32216832308631727,0.31299761404256055,0.3038075332958993,0.2946008317260768,0.28538015335261674,0.276148032961454,0.266906893997897,0.2576590467570107,0.24840668687146147,0.2391518940702407,0.22989663121225493,0.22064274362873895,0.21139195878600994,0.20214588625632404,0.19290601800492949,0.18367372901528436,0.17445027824073203,0.165236809845577,0.15603435472631413,0.1468438323288447,0.1376660527525694,0.12850171910937605,0.11935143013025204,0.11021568303539095,0.10109487666182768,0.09198931482161246,0.08289920988529015,0.07382468661081748,0.06476578622812595,0.055722470773397925,0.04669462767514212,0.037682074602508824,0.028684564571769648,0.019701791292506897,0.010733394741983877,0.001778966963789861,-0.007161941924010282,-0.016089817537179085,-0.025005174869537208,-0.033908551781830686,-0.04280050234466346,-0.05168159005112711,-0.060552380917476216,-0.06941343649318144,-0.07826530680890159,-0.08710852329610291,-0.09594359170869193,-0.10477098506659044,-0.11359113663041531,-0.1224044329150194,-0.13121120675875128,-0.14001173046809953,-0.14880620904543526,-0.1575947735024615,-0.16637747427803518,-0.17515427479229828,-0.18392504516084218,-0.1926895560855969,-0.20144747295279858,-0.21019835018211025,-0.21894162586555138,-0.22767661672713285,-0.2364025134386784,-0.24511837632514227,-0.25382313147141383,-0.2625155672300096,-0.2711943311443697,-0.279857927315544,-0.2885047142266631,-0.297132903027376,-0.3057405562945769,-0.31432558730379107,-0.3228857598435712,-0.3314186885960106,-0.33992184010400306,-0.34839253433568074,-0.35682794683048835,-0.3652251113970043,-0.3735809233487936,-0.38189214328524573,-0.39015540142406485,-0.3983672024838178,-0.4065239311152074,-0.4146218578794552,-0.42265714576194907,-0.4306258572004316,-0.4385239616088411,-0.4463473433791624,-0.45409181033490376,-0.46175310260237457,-0.46932690186848536,-0.4768088409931277,-0.4841945139313899,-0.491479485913076,-0.49865930383535323,-0.5057295068274347,-0.5126856369299903,-0.5195232498230017,-0.5262379255516034,-0.5328252792076205,-0.539280971503227,-0.5456007191615617,-0.5517803050745989,-0.5578155881962856,-0.5637025131161577,-0.5694371192444909,-0.5750155495704097,-0.5804340589727857,-0.5856890220300395,-0.5907769402552878,-0.5956944487250383,-0.6004383220976245,-0.6050054799768788,-0.6093929915511155,-0.6135980794896714,-0.6176181231165443,-0.6214506608333346,-0.6250933917319856,-0.6285441763993047,-0.631801036964883,-0.6348621563978019,-0.637725877021579,-0.6403906982766272,-0.6428552738046807,-0.6451184078726273,-0.647179051110832,-0.6490362956066124,-0.6506893694473829,-0.6521376307524466,-0.6533805611868791,-0.6544177590142116,-0.6552489317975924,-0.6558738888025194,-0.6562925331061359,-0.6565048534787559,-0.656510916159909,-0.6563108566047344,-0.6559048712302624,-0.6552932092371372,-0.6544761646243654,-0.6534540684674041,-0.6522272814847953,-0.6507961869562462,-0.6491611840894085,-0.6473226818878199,-0.6452810935301341,-0.6430368313026296,-0.6405903021559174,-0.6379419039150858,-0.6350920221336105,-0.6320410276104226,-0.6287892746196838,-0.625337099872478,-0.6216848221967443,-0.6178327429408953,-0.613781147126469,-0.6095303053480311,-0.6050804763905718,-0.6004319105490025,-0.5955848536505443,-0.5905395517603541,-0.5852962565285235,-0.5798552311470999,-0.5742167569016816,-0.5683811402938614,-0.5623487206960651,-0.5561198784993987,-0.5496950437135236,-0.5430747049619192,-0.5362594188037016,-0.5292498193198064,-0.5220466279125785,-0.5146506632678537,-0.50706285142343,-0.49928423588704096,-0.49131598774867247,-0.4831594157318452,-0.474815976126688,-0.46628728254661744,-0.45757511545217466,-0.448681431389616,-0.439608371893739,-0.4303582720014901,-0.42093366831909484,-0.41133730658509415,-0.40157214867425284,-0.3916413789908174,-0.38154841020339136,-0.3712968882777147,-0.3608906967678408,-0.3503339603300447,-0.33963104742580696,-0.3287865721807305,-0.3178053953696166,-0.3066926245067173,-0.2954536130303501,-0.2840939585782022,-0.2726195003541966,-0.26103631558862467,-0.2493507150823807,-0.23756923780574155,-0.22569864451854768,-0.21374591040453406,-0.20171821673573254,-0.18962294157909332,-0.17746764955438254,-0.1652600806716145,-0.15300813828532703,-0.14071987618048656,-0.1284034847942819,-0.11606727660815452,-0.10371967076249933,-0.09136917691641455,-0.07902437835803361,-0.06669391441325924,-0.054386462238938796,-0.042110718067972244,-0.029875377955705704,-0.017689118111689047,-0.0055605749409386,0.006501675084694288,0.018489135619918575,0.030393410588744736,0.04220622414355577,0.053919440308539186,0.06552508218809475,0.07701535062905192,0.08838264222502114,0.09961956654760402,0.11071896249671527,0.12167391368462227,0.13247776278295748,0.1431241247565314,0.1536068989101807,0.1639202797036491,0.17405876631258357,0.18401717090743688,0.19379062561992036,0.203374588191379,0.21276484630463155,0.22195752056490414,0.2309490660811836,0.23973627264945838,0.248316263581951,0.25668649320537457,0.26484474303437083,0.2727891166676523,0.2805180334796153,0.28803022113479976,0.2953247069249236,0.3024008079868138,0.3092581205179433,0.31589650808777947,0.322316089117776,0.3285172236360344,0.3345004994395401,0.3402667177611808,0.34581687850834186,0.3511521651722793,0.35627392953829307,0.36118367629883363,0.365883047642672,0.3703738079146258,0.3746578284570109,0.37873707270906765,0.3826135816106099,0.3862894593779951,0.3897668597377426,0.3930479726688114,0.39613501167520315,0.3990302016290478,0.40173576722274584,0.40425392200309196,0.4065868579222106,0.4087367353906927,0.410705673850338,0.4124957428201716,0.41410895332716596,0.4155472497019586,0.41681250177740586,0.4179064974749332,0.4188309357198619,0.4195874196940474,0.42017745050002725,0.4206024212744727,0.42086361174763803,0.42096218329142,0.4208991745475096,0.4206754976977817,0.4202919354019031,0.4197491384517981,0.4190476242214,0.41818777596498097,0.41716984298556853,0.41599394170594467,0.4146600576941544,0.41316804868364937,0.4115176486054129,0.40970847264570265,0.4077400233563794,0.4056116978571541,0.40332279616007616,0.40087253061615064,0.398260036470986,0.39548438353833787,0.39254458900370554,0.38943963132278614,0.38616846514815606,0.3827300372471871,0.3791233033892252,0.3753472461256687,0.37140089334652726,0.36728333753450115,0.36299375566324554,0.3585314296279599,0.35389576703943926,0.34908632223371294,0.3441028173768511,0.33894516351021103,0.3336134813462573,0.3281081216481286,0.32242968505538344,0.31657904120274233,0.31055734696093734,0.30436606365169677,0.29800697311698016,0.29148219251762836,0.28479418772045056,0.2779457851361323,0.2709401818900404,0.26378095422690945,0.25647206405429973,0.24901786352122263,0.24142309753821795,0.2336929041857238,0.2258328129840747,0.21784874098454637,0.20974698664101904,0.2015342214740426,0.1932174795841481,0.1848041450623556,0.1763019373395986,0.167718894559075,0.15906335508663264,0.15034393724823983,0.14156951736722104,0.13274920622034406,0.12389232407525577,0.11500837445512815,0.10610701675735548,0.09719803788328311,0.08829132306025737,0.07939682600891844,0.07052453858418765,0.06168446004482463,0.05288656612732255,0.044140778068414474,0.035456931693137975,0.02684474670974651,0.01831379637375388,0.009873477653817821,0.001532982004169129,-0.006698733131207437,-0.01481297193372381,-0.022801326813161948,-0.03065570389135931,-0.038368347255958585,-0.0459318618709916,-0.05333923505649918,-0.06058385647347969,-0.06765953654829572,-0.0745605232723351,-0.08128151734199564,-0.08781768562750532,-0.09416467294930592,-0.10031861212889337,-0.10627613229613542,-0.11203436545352413,-0.11759095129561013,-0.12294404027829929,-0.12809229494705274,-0.1330348895485932,-0.13777150795287374,-0.14230233991997943,-0.14662807577276993,-0.15074989955261686,-0.15466948072359601,-0.15838896448065468,-0.1619109607337295,-0.16523853185349394,-0.1683751792515823,-0.17132482885878186,-0.17409181558271047,-0.1766808668399269,-0.1790970852410802,-0.18134593049523878,-0.18343320061752372,-0.18536501253740273,-0.1871477821839226,-0.18878820410087974,-0.19029323064992346,-0.19167005086905123,-0.19292606904277496,-0.19406888302607792,-0.19510626236678472,-0.19604612627780213,-0.19689652150561113,-0.19766560012764625,-0.19836159729992067,-0.19899280897666863,-0.1995675696355958,-0.20009423004957722,-0.20058113513948844,-0.20103660194052148,-0.20146889772568655,-0.2018862183300698,-0.2022966666948327,-0.2027082316392126,-0.20312876689494888,-0.2035659704532218,-0.20402736424702808,-0.20452027417554366,-0.2050518105099508,-0.20562884874202125,-0.20625801090293927,-0.2069456473571063,-0.20769781911455912,-0.20852028073493847,-0.2094184638599457,-0.2103974613836697,-0.2114620123090595,-0.21261648736586372,-0.21386487541982682,-0.21521077066941632,-0.21665736067165037,-0.218207415276306,-0.21986327650682508,-0.22162684939077953,-0.22349959378376158,-0.22548251726580323,-0.2275761691488893,-0.2297806355974301,-0.23209553589839294,-0.23452001994572913,-0.23705276695912336,-0.23969198541908132,-0.24243541423520035,-0.24528032519451173,-0.24822352669601824,-0.2512613687407091,-0.2543897491784119,-0.25760412124402626,-0.26089950238334064,-0.264270484335326,-0.26771124445896677,-0.27121555830670563,-0.27477681340297766,-0.2783880241522655,-0.2820418478320341,-0.28573060165794684,-0.2894462808843934,-0.29318057787572793,-0.2969249021022356,-0.3006704010305457,-0.3044079818479271,-0.30812833393378997,-0.3118219520124642,-0.3154791599404835,-0.31909013505721096,-0.32264493300531394,-0.3261335129474433,-0.32954576312478234,-0.33287152668382636,-0.3361006276791384,-0.33922289717763926,-0.34222819940910437,-0.34510645789500477,-0.3478476814735603,-0.3504419901503147,-0.3528796407113746,-0.35515105201685887,-0.35724682987845774,-0.35915779144146187,-0.3608749889979035,-0.36238973312683553,-0.3636936150416763,-0.36477852806348987,-0.36563668818877515,-0.3662606537336255,-0.3666433440311292,-0.3667780571631598,-0.3666584867115319,-0.3662787375047445,-0.3656333403296699,-0.364717265585081,-0.36352593586269255,-0.36205523743893253,-0.3603015306570494,-0.35826165918533737,-0.35593295814696346,-0.3533132611212706,-0.35040090601636975,-0.34719473981214555,-0.34369412217264217,-0.3398989279271136,-0.33580954841976385,-0.3314268917298224,-0.3267523817674818,-0.3217879562569508,-0.31653606362102593,-0.3109996587805244,-0.3051821978834972,-0.2990876319869662,-0.2927203997187262,-0.2860854189433928,-0.2791880774584683,-0.27203422276001854,-0.2646301509250881,-0.2569825946466517,-0.24909871044628626,-0.24098606509614437,-0.23265262128872052,-0.224106722586451,-0.21535707768144305,-0.2064127440113712,-0.19728311078731717,-0.1879778814763197,-0.17850705577131645,-0.16888091109395512,-0.15910998368571708,-0.1492050493294387,-0.13917710373358663,-0.12903734262672165,-0.11879714162069681,-0.10846803588456475,-0.09806169965397268,-0.0875899256077203,-0.07706460415238517,-0.06649770264731705,-0.0559012445972564,-0.04528728885540409,-0.03466790889058177,-0.024055172158655293,-0.013461119607077738,-0.0028977453536873873,0.007623023409064003,0.01808934624760848,0.028489489036425446,0.03881184319411445,0.04904494456941446,0.05917749194916293,0.06919836516773988,0.07909664278758989,0.08886161931231869,0.09848282190302161,0.10795002657363358,0.11725327382658153,0.12638288368108416,0.13532947006261692,0.14408395453860806,0.15263757938041073,0.16098191992498184,0.16910889621998593,0.1770107839441869,0.18468022458501498,0.19211023484791867,0.19929421528481459,0.2062259581418637,0.21289965442212508,0.21930990015295412,0.22545170185580904,0.23132048121947973,0.2369120789638421,0.24222275787351383,0.24724920499645456,0.25198853301733437,0.2564382808090395,0.26059641315927196,0.26446131968172315,0.2680318129326549,0.2713071257463404,0.27428690779622844,0.2769712213996154,0.2793605365928786,0.2814557254958341,0.2832580559769058,0.2847691846409353,0.2859911491673351,0.2869263600122987,0.2875775914801409,0.2879479721844179,0.28804097493264347,0.28786040605772045,0.28741039421048986,0.28669537864267747,0.2857200970226613,0.2844895728163154,0.28300910225608,0.28128424093396015,0.2793207900638763,0.2771247824457079,0.27470246815315486,0.2720602999804991,0.2692049186920302,0.26614313810122225,0.26288192999493676,0.259428408934701,0.25578981698167524,0.251973508378704,0.24798693421105453,0.2438376270822196,N
1,0.9866567157985727,0.9838887510334885,0.9809725786840721,0.9779022779122502,0.9746719700967728,0.9712758358902651,0.9677081323917085,0.9639632103799413,0.960035531582809,0.9559196859419062,0.9516104088131737,0.9471025980566342,0.9423913309788438,0.9374718810683854,0.9323397344464871,0.9269906059742179,0.9214204549790508,0.9156255005537743,0.9096022363682263,0.9033474449461947,0.8968582113695094,0.8901319363560978,0.8831663486474319,0.8759595166589919,0.8685098593719606,0.8608161564496014,0.8528775575576101,0.8446935908690557,0.8362641707353479,0.8275896044983208,0.8186705984144867,0.8095082626681019,0.8001041154549483,0.7904600861155838,0.7805785172948573,0.7704621661137566,0.7601142043561379,0.7495382176870108,0.738738203922911,0.7277185703689812,0.7164841302361395,0.7050400981625025,0.6933920848689921,0.6815460909683768,0.6695084999390515,0.6572860702842243,0.6448859269045522,0.6323155517030151,0.6195827734368292,0.6066957568478958,0.5936629911139387,0.580493277648659,0.5671957172726746,0.5537796967996008,0.5402548750956214,0.526631168648436,0.5129187366621604,0.49912796571085777,0.4852694539975492,0.4713539952444059,0.45739256221499835,0.4433962898731123,0.4293764581936712,0.4153444746334649,0.4013118562512348,0.387290211456488,0.3732912213711854,0.35932662080274136,0.345408178832057,0.3315476790099273,0.3177568991549514,0.3040475907675511,0.29043145807636034,0.27692013669541643,0.26352517185736707,0.2502579962388837,0.2371299074349965,0.22415204511344122,0.21133536786211093,0.19869062978850993,0.18622835695619688,0.17395882369023163,0.161892028752312,0.15003767145599306,0.13840512787059084,0.12700342725977537,0.11584122887699527,0.1049267992633759,0.0942679902258622,0.08387221766604176,0.07374644140747662,0.06389714617079793,0.054330323877882655,0.04505145750571464,0.036065506706292286,0.027376895349066163,0.01898950110766047,0.010906647247884467,0.003131096781512041,-0.004334950928052346,-0.01148986105359701,-0.018332561537727898,-0.024862538487894447,-0.031079828684521187,-0.0369850092471563,-0.04257918440143809,-0.0478639692311617,-0.05284147046255999,-0.057514264453224884,-0.061885372445975584,-0.06595823306884063,-0.06973667222857705,-0.07322487067259897,-0.07642732935865343,-0.07934883267105591,-0.08199440969753187,-0.08436929393405686,-0.08647888166602981,-0.08832868916563043,-0.0899243089906525,-0.091271365797002,-0.0923754719508849,-0.09324218311100961,-0.0938769540774676,-0.09428509533153756,-0.09447173059780717,-0.09444175565275276,-0.09419979869412748,-0.09375018273982832,-0.09309689056199572,-0.09224353260064572,-0.09119331822113069,-0.08994903060607112,-0.08851300550478852,-0.08688711400139532,-0.08507274940627146,-0.083070818324396,-0.08088173590763315,-0.07850542525633142,-0.07594132089822603,-0.07318837623939112,-0.0702450748526331,-0.06710944544301789,-0.06377908030796275,-0.060251157090282455,-0.05652246360655489,-0.05258942551996438,-0.048448136616201294,-0.04409439143286085,-0.03952371998691665,-0.03473142434107602,-0.02971261674799303,-0.024462259111266264,-0.018975203503732777,-0.013246233486646445,-0.007270105977761389,-0.0010415934220003907,0.005444473974849283,0.012193166181222063,0.01920941166682943,0.026497956335481406,0.03406332326741381,0.04190977346423166,0.05004126777846812,0.05846143019825114,0.06717351264574606,0.07618036143597806,0.08548438553040388,0.09508752670726472,0.1049912317583735,0.11519642680962688,0.12570349385024088,0.13651224954353675,0.14762192638009902,0.15903115622233172,0.17073795627789018,0.18273971752820112,0.19503319562733373,0.2076145042758804,0.22047911106427126,0.23362183577010648,0.2470368510846636,0.26071768573474324,0.2746572299574694,0.2888477432775724,0.3032808645290647,0.3179476240560792,0.3328384580209835,0.34794322474171596,0.36325122297460916,0.37875121205378076,0.39443143379347284,0.41027963605550716,0.42628309788029267,0.4424286560765662,0.458702733162261,0.47509136654657186,0.4915802388414076,0.5081547091889892,0.5247998454913408,0.5415004574268344,0.558241130138757,0.5750062584810746,0.5917800817071385,0.6085467184880208,0.6252902021484427,0.6419945160098705,0.6586436287322736,0.6752215295482521,0.6917122632857354,0.7080999650782088,0.7243688946644232,0.7405034701827674,0.7564883013689144,0.7723082220689813,0.7879483219842381,0.8033939775673616,0.8186308819943294,0.8336450741402747,0.8484229664919459,0.8629513719338441,0.8772175293496002,0.8912091279847184,0.9049143305214061,0.9183217948208485,0.9314206942929287,0.9442007368580448,0.9566521824703097,0.9687658591760308,0.9805331776859424,0.9919461444441892,1.0029973731815207,1.0136800949445532,1.023988166597262,1.0339160777950898,1.0434589564361694,1.052612572598173,1.0613733409731843,1.0697383218167624,1.077705220430994,1.0852723852048267,1.0924388042383242,1.0992041005806887,1.105568526114945,1.1115329541250645,1.1170988705840335,1.1222683642039353,1.127044115291503,1.1314293834548284,1.1354279942089656,1.1390443245300481,1.142283287409249,1.1451503154594478,1.1476513436288343,1.1497927910768675,1.1515815422686984,1.1530249273433906,1.154130701809281,1.154907025619553,1.155362441677511,1.1555058537924217,1.155346504055083,1.1548939495863586,1.154158038660718,1.1531488862477097,1.1518768489938545,1.1503524996517953,1.1485866010071435,1.1465900793899895,1.144373997832651,1.1419495289141715,1.1393279273695789,1.1365205025694773,1.1335385909388902,1.130393528357003,1.1270966226188714,1.1236591260677726,1.1200922084619278,1.1164069301063955,1.1126142153278284,1.1087248264129468,1.1047493380991684,1.1006981126732607,1.096581275764505,1.0924086929318442,1.088189947080255,1.083934316699331,1.079650754969993,1.0753478698273493,1.071033905014861,1.0667167221218337,1.0624037836509885,1.058102137216401,1.0538184009357823,1.0495587500408645,1.0453289047627061,1.0411341195709296,1.0369791737882803,1.0328683635571831,1.028805495178114,1.024793879878642,1.020836330028467,1.0169351567745564,1.0130921691050139,1.0093086743774142,1.0055854802974071,1.0019228982918609,0.9983207482582509,0.9947783647031366,0.9912946042362364,0.9878678543468892,0.9844960434289837,0.9811766520607211,0.9779067255156703,0.974682887447838,0.9715013547179675,0.9683579533507191,0.9652481355786492,0.9621669978976378,0.9591093000826412,0.9560694851412155,0.9530417001652705,0.9500198180180064,0.9469974598021448,0.9439680180628297,0.9409246806530364,0.9378604551680304,0.9347681938681263,0.9316406190156503,0.9284703485224528,0.9252499217843806,0.921971825602753,0.9186285201091448,0.9152124645804852,0.9117161430121922,0.9081320893517906,0.9044529123293557,0.9006713198064769,0.8967801425499844,0.8927723572991836,0.8886411087102216,0.88437972923562,0.879981755830945,0.8754409429349493,0.8707512718776215,0.8659069571451296,0.8609024499187695,0.8557324393104154,0.8503918517169008,0.8448758486323779,0.839179823184523,0.833299395674142,0.8272304084017102,0.820968919981527,0.8145111992768078,0.8078537191200402,0.8009931500105499,0.7939263539188658,0.7866503782695907,0.7791624502026657,0.7714599712346604,0.7635405123792105,0.7554018097324975,0.7470417605632524,0.738458419973002,0.7296499981334466,0.7206148580589942,0.7113515139123074,0.7018586298747036,0.6921350195619849,0.6821796459220191,0.6719916215935039,0.6615702097517996,0.6509148254390772,0.6400250373408419,0.6289005699935523,0.6175413064231622,0.6059472911675182,0.5941187336000714,0.5820560115085343,0.569759674919843,0.5572304501389866,0.5444692439420415,0.5314771478860555,0.518255442713054,0.5048056027861331,0.4911293004675436,0.4772284103857868,0.46310501358165224,0.44876140151475974,0.43420007989376186,0.4194237723063374,0.40443542362932544,0.3892382031637704,0.3738355074175698,0.35823096249160885,0.34242842606438123,0.3264319889675639,0.31024597633225487,0.2938749483000655,0.27732370031766934,0.26059726304135106,0.2437009018722131,0.2266401161365587,0.20942063792884186,0.19204843064489346,0.17452968723323298,0.15687082817845324,0.13907849923794383,0.12115956899415382,0.10312112629873295,0.0849704776417977,0.06671514446409853,0.048362860491699675,0.029921569201833243,0.011399421452042674,-0.007195226749582146,-0.025853816294204728,-0.04456758676350969,-0.06332757796630416,-0.08212463127294618,-0.10094939070348176,-0.11979230366644784,-0.13864362135840214,-0.15749339892057101,-0.17633149535475334,-0.19514757313082132,-0.213931097532862,-0.2326713358699658,-0.2513573565524344,-0.26997802794671044,-0.28852201706030073,-0.3069777882190193,-0.3253336017800788,-0.3435775128288204,-0.3616973699418486,-0.3796808142112939,-0.39751527860344854,-0.41518798762227677,-0.4326859573739336,-0.4499959962300543,-0.4671047061564479,-0.48399848466483814,-0.5006635274713321,-0.5170858320572379,-0.5332512022124142,-0.5491452535346507,-0.5647534199643921,-0.5800609615234732,-0.5950529733044817,-0.6097143956506884,-0.6240300255702373,-0.6379845295289504,-0.6515624576730752,-0.6647482594374825,-0.6775263005702481,-0.6898808816774147,-0.7017962583042352,-0.7132566624822085,-0.7242463257293659,-0.7347495035446878,-0.7447505013535161,-0.7542337017828269,-0.7631835932016462,-0.7715847995240006,-0.7794221112185964,-0.7866805174076923,-0.7933452389726202,-0.7994017626279314,-0.8048358758913116,-0.8096337028302217,-0.8137817404813654,-0.8172668958661224,-0.8200765235075014,-0.822198463324116,-0.8236210787753586,-0.82433329514307,-0.8243246378320224,-0.8235852705569371,-0.8221060332728086,-0.8198784797123845,-0.8168949144166885,-0.8131484291475858,-0.808632938540355,-0.8033432148334438,-0.7972749215318724,-0.7904246458739697,-0.7827899299460591,-0.7743693002827278,-0.7651622958378433,-0.7551694942401844,-0.7443925362076435,-0.7328341479699721,-0.7204981616034093,-0.7073895332190684,-0.6935143588999582,-0.6788798882450724,-0.663494535430539,-0.6473678877420737,-0.6305107114899368,-0.612934955178689,-0.5946537498491836,-0.5756814065557324,-0.5560334109159246,-0.5357264146613918,-0.5147782241914611,-0.4932077861852146,-0.47103517028054903,-0.44828154878286613,-0.4249691734096361,-0.4011213491242624,-0.3767624050832009,-0.3519176626896746,-0.3266134007867062,-0.30087681806514566,-0.27473599274681265,-0.2482198395890251,-0.22135806429876798,-0.19418111548386213,-0.16672013425354193,-0.13900690156821582,-0.11107378347640129,-0.08295367441073764,-0.05467993869706769,-0.026286350413448817,0.0021929682342793646,0.030723609826069222,0.05927094575258091,0.08780019118474448,0.11627647078719396,0.14466488494976062,0.1729305763408714,0.2010387966229309,0.2289549731649957,0.2566447755736919,0.2840741818719337,0.311209544155439,0.33801765352643653,0.36446580408737916,0.39052185580764703,0.41615429610689064,0.44133229999017226,0.4660257885603904,0.4902054857582894,0.5138429732065573,0.536910743030458,0.5593822485214306,0.5812319525266709,0.6024353734549119,0.6229691287650019,0.6428109757944214,0.6619398498196097,0.6803358992667651,0.6979805179724631,0.7148563743835649,0.7309474376294998,0.7462390004422552,0.760717698892611,0.7743715289030195,0.7871898595287891,0.7991634430185294,0.8102844216347441,0.8205463312003419,0.829944101384932,0.8384740527903112,0.8461338908818477,0.852922696798956,0.8588409151133228,0.8638903386298421,0.8680740902961849,0.871396602267816,0.8738635922171936,0.8754820370114667,0.8762601438572668,0.8762073189903719,0.8753341340262561,0.8736522901162791,0.8711745800191701,0.8679148481720638,0.8638879488889325,0.8591097028540015,0.8535968520513709,0.847367013246577,0.8404386301685655,0.8328309245640225,0.8245638462558581,0.8156580223073736,0.8061347054326065,0.7960157218286465,0.7853234185751303,0.7740806107165936,0.7623105281733006,0.7500367626508951,0.7372832146836644,0.7240740409150944,0.710433601770877,0.6963864098163832,0.6819570792420377,0.6671702769442456,0.6520506755021113,0.6366229081263058,0.6209115255255241,0.6049409546073826,0.588735458950521,0.5723191010011829,0.5557157059380017,0.5389488271420301,0.5220417132287071,0.5050172766152344,0.4878980635865916,0.470706225815242,0.4534634933079515,0.43619114876997095,0.4189100033677606,0.4016403738626075,0.3844020611025042,0.3672143298754854,0.35009589012221964,0.3330648794975356,0.3161388472772091,0.29933473960957535,0.2826688860969784,0.26615698768186835,0.2498141058240256,0.23365465296762275,0.21769238429038937,0.20194039071876854,0.1864110931977971,0.17111623820479513,0.1560668944790102,0.14127345092858798,0.1267456156881774,0.11249241630895844,0.09852220104804453,0.08484264121321382,0.07146073453378149,0.05838280954273945,0.04561453094591373,0.033160905943889964,0.021026291482046516,0.009214402409800135,-0.002271679486288015,-0.013429495622583526,-0.02425719996606927,-0.034753547619069194,-0.04491788269476377,-0.05475012555181197,-0.06425075943262504,-0.073420816529215,-0.08226186351667653,-0.09077598660833491,-0.0989657761657251,-0.1068343108798464,-0.11438514155959945,-0.12162227457873043,-0.12855015501109107,-0.13517364946610583,-0.14149802865552114,-0.14752894973842118,-0.15327243847143932,-0.15873487117779525,-0.16392295657513442,-0.16884371752045677,-0.17350447270283623,-0.17791281828818864,-0.1820766095358484,-0.186003942423036,-0.18970313529418023,-0.19318271053825917,-0.19645137632199292,-0.19951800842510234,-0.20239163219915357,-0.2050814046461944,-0.20759659662584307,-0.2099465752147467,-0.21214078622821655,-0.21418873690428122,-0.2160999787731759,-0.2178840907521307,-0.2195506624849846,-0.22110927792512938,-0.2225694991714924,-0.2239408505807419,-0.22523280316596797,-0.22645475927870465,-0.22761603758195173,-0.2287258583336517,-0.2297933289922184,-0.23082743015191834,-0.23183700183448033,-0.23283073017583358,-0.23381713453113906,-0.23480455500526487,-0.2358011404241982,-0.2368148367723948,-0.23785337611040455,-0.23892426597808733,-0.24003477930013992,-0.24119194481991432,-0.24240253807519288,-0.2436730729164112,-0.2450097935730622,-0.24641866728094833,-0.24790537747627772,-0.24947531755959063,-0.25113358524609064,-0.2528849775271783,-0.25473398625517896,-0.25668479435427494,-0.25874127267391134,-0.2609069775094648,-0.2631851487962077,-0.26557870895985614,-0.26809026240427236,-0.27072209562139327,-0.2734761779043445,-0.2763541626412665,-0.2793573891740356,-0.28248688521153104,-0.2857433697825311,-0.28912725671145423,-0.2926386586100498,-0.296277391384105,-0.30004297924431395,-0.30393466019998433,-0.30795139201701577,-0.3120918586258265,-0.3163544769588179,-0.3207374041898182,-0.3252385453495038,-0.32985556129416393,-0.33458587700306475,-0.3394266901779446,-0.3443749801222191,-0.34942751688084894,-0.35458087061968485,-0.35983142122335726,-0.3651753680984257,-0.3706087401727171,-0.37612740607562556,-0.3817270844809634,-0.38740335460276454,-0.39315166683955793,-0.3989673535508881,-0.4048456399332486,-0.4107816549557245,-0.416770442317001,-0.4228069713903952,-0.4288861481354184,-0.43500282597176815,-0.44115181661848973,-0.44732790088784474,-0.4535258394049126,-0.4597403832162152,-0.46596628425201686,-0.4721983056119946,-0.47843123165523826,-0.4846598778918284,-0.49087910067992147,-0.49708380672139213,-0.5032689623359505,-0.5094296024923823,-0.5155608395787865,-0.5216578718919926,-0.5277159918244854,-0.5337305937306422,-0.5396971814579081,-0.5456113755286998,-0.5514689199619034,-0.5572656887323331,-0.5629976918717725,-0.5686610812077293,-0.5742521557231337,-0.5797673665125151,-0.5852033213110077,-0.5905567885804679,-0.5958247011480182,-0.6010041594017346,-0.6060924340520524,-0.6110869684646205,-0.6159853805640039,-0.6207854643025594,-0.6254851906889451,-0.6300827083760367,-0.6345763438120118,-0.6389646009571179,-0.6432461605685065,-0.6474198790607032,-0.6514847869517296,-0.6554400868996023,-0.65928515133179,-0.6630195196774717,-0.6666428952139045,-0.6701551415253506,-0.6735562785674125,-0.676846478346219,-0.6800260602386184,-0.6830954859771486,-0.6860553543188385,-0.6889063954238485,-0.6916494649675532,-0.6942855379859817,-0.69681570244329,-0.699241152533075,-0.7015631817454328,-0.7037831757191549,-0.7059026048874047,-0.707923016943487,-0.7098460291643843,-0.7116733206061968,-0.7134066241702061,-0.7150477185619935,-0.7165984201803204,-0.718060574942138,-0.7194360500304715,-0.7207267255841492,-0.7219344863724539,-0.7230612134673806,-0.724108775903693,-0.7250790223516458,-0.7259737728539276,-0.726794810645241,-0.7275438740473387,-0.7282226484677116,-0.7288327585552666,-0.729375760525714,-0.7298531346396299,-0.7302662778564555,-0.730616496715585,-0.7309050004478759,-0.7311328942866111,-0.7313011729954647,-0.7314107146685086,-0.7314622748092353,-0.7314564806582576,-0.731393825790201,-0.7312746650403185,-0.7310992097705006,-0.7308675234439331,-0.7305795175304375,-0.73023494780874,-0.7298334110830298,-0.7293743422894712,-0.7288570120169738,-0.7282805245037652,-0.7276438161145619,-0.7269456542583678,-0.726184636760601,-0.7253591917494834,-0.7244675780666151,-0.7235078861675864,-0.7224780395261051,-0.721375796591491,-0.7201987532905484,-0.7189443460183499,-0.7176098551157837,-0.7161924088763818,-0.7146889880710317,-0.7130964309333911,-0.7114114386001605,-0.7096305810420301,-0.7077503034647757,-0.7057669331136188,-0.7036766864681684,-0.7014756768654725,-0.6991599225441548,-0.6967253550597406,-0.6941678280630115,-0.691483126462128,-0.688666975927209,-0.6857150526499594,-0.6826229933269845,-0.6793864053881498,-0.6760008774497948,-0.6724619899317976,-0.6687653258218104,-0.6649064816100311,-0.6608810783752407,-0.6566847729638087,-0.6523132692422184,-0.6477623294358124,-0.6430277855208264,-0.6381055505988875,-0.6329916302241876,-0.6276821336884155,-0.6221732852260167,-0.6164614350665225,-0.6105430703037399,-0.604414825594992,-0.5980734936762738,-0.5915160356489312,-0.5847395910238662,-0.5777414875405826,-0.5705192507545078,-0.5630706133599177,-0.5553935242362771,-0.5474861572234722,-0.5393469196031657,-0.5309744602394675,-0.5223676773559539,-0.513525725952188,-0.5044480248485511,-0.4951342633302199,-0.4855844073756057,-0.4757987054701258,-0.4657776939926397,-0.45552220214736816,-0.44503335642627323,-0.4343125846039693,-0.4233616192651824,-0.41218250085631186,-0.40077758025405136,-0.3891495208473709,-0.3773013001246192,-0.365236210751896,-0.35295786113075406,-0.34047017543059505,-0.327777393097414,-0.3148840678404999,-0.30179506609255147,-0.2885155649358462,-0.27505104949252246,-0.261407309779778,-0.2475904370245133,-0.233606819431826,-0.21946313741624798,-0.20516635831210425,-0.1907237305662165,-0.17614277740822304,-0.16143129000925216,-0.14659732015004412,-0.1316491724042649,-0.1165953958343461,-0.10144477521905572,-0.08620632184625211,-0.07088926388202424,-0.05550303630713747,-0.04005727042585908,-0.024561782966420285,-0.00902656477761658,0.006538230881071218,0.022122300430679247,0.03771520240164501,0.05330637018009327,0.06888512506845247,0.08444068963126457,0.09996220127734275,0.11543872605625899,0.13085927267133346,0.14621280669096637,0.1614882649209891,0.17667456992290761,0.19176064468380968,0.20673542742530712,0.22158788652054703,0.23630703550398768,0.25088194816799214,0.26530177371178454,0.27955575188800286,0.2936332281169781,0.30752366856497215,0.3212166751700706,0.3347020005833684,0.3479695630075015,0.3610094609290939,0.37381198772764823,0.3863676461288359,0.3986671624809114,0.41070150084385426,0.4224618768686529,0.4339397714319081,0.44512694399984404,0.4560154457052728,0.4665976321119028,0.4768661756307833,0.4868140775609703,0.49643467973540323,0.5057216757482229,0.5146691217332066,0.52327144666607,0.5315234621641343,0.539420371746208,0.5469577795091414,0.5541316981885014,0.5609385565871718,0.5673752063627397,0.5734389281637731,0.5791274371022683,0.5844388875447319,0.5893718771979914,0.5939254504637153,0.5980991010394788,0.601892773743894,0.6053068655341501,0.608342225681504,0.6110001550838281,0.6132824047083333,0.6151911731582457,0.616729103356274,0.6178992783447711,N
