,0
0,53
1,206
2,315
3,459
4,590
5,715
6,843
7,1051
8,1150
9,1291
10,1414
11,1628
12,1801
13,1898
14,2055
15,2170
16,2312
17,2416
18,2536
19,2656
20,2818
21,2929
22,3053
23,3198
24,3364
25,3590
26,3729
27,3862
28,3993
29,4115
30,4229
31,4361
32,4470
33,4641
34,4743
35,4865
36,4966
37,5103
38,5232
39,5359
40,5476
41,5608
42,5743
43,5892
44,6025
45,6134
46,6280
47,6392
48,6494
49,6623
50,6762
51,6898
52,7012
53,7136
54,7282
55,7408
56,7520
57,7621
58,7726
59,7860
60,7973
61,8167
62,8318
63,8446
64,8603
65,8757
66,8888
67,9008
68,9123
69,9252
70,9365
71,9482
72,9612
73,9741
74,9846
75,9952
76,10070
77,10202
78,10365
79,10501
80,10631
81,10780
82,10911
83,11047
84,11159
85,11270
86,11374
87,11504
88,11661
89,11770
90,11937
91,12067
92,12219
93,12381
94,12556
95,12705
96,12881
97,12995
98,13161
99,13293
100,13434
101,13566
102,13692
103,13830
104,14000
105,14128
106,14302
107,14458
108,14562
109,14660
110,14792
111,14970
112,15085
113,15208
114,15344
115,15472
116,15602
117,15740
118,15937
119,16055
120,16168
121,16290
122,16440
123,16588
124,16699
125,16832
126,16993
127,17113
128,17223
129,17388
130,17503
131,17591
132,17759
133,17868
134,17998
135,18137
136,18239
137,18370
138,18479
139,18629
140,18741
141,18840
142,18949
143,19113
144,19233
145,19331
146,19503
147,19638
148,19745
149,19892
150,20066
151,20207
152,20337
153,20473
154,20601
155,20767
156,20948
157,21118
158,21234
159,21382
160,21561
161,21677
162,21834
163,21973
164,22129
165,22289
166,22427
167,22571
168,22692
169,22822
170,22962
171,23108
172,23272
173,23421
174,23580
175,23763
176,23933
177,24068
178,24190
179,24350
180,24497
181,24661
182,24778
183,24914
184,25023
185,25131
186,25247
187,25369
188,25489
189,25604
190,25734
191,25860
192,25956
193,26063
194,26214
195,26360
196,26468
197,26575
198,26704
199,26850
200,26975
201,27134
202,27285
203,27400
204,27527
205,27631
206,27807
207,27932
208,28086
209,28217
210,28364
211,28475
212,28585
213,28729
214,28843
215,28976
216,29107
217,29239
218,29438
219,29601
220,29719
221,29853
222,29981
223,30110
224,30262
225,30376
226,30495
227,30645
228,30815
229,30976
230,31086
231,31234
232,31347
233,31465
234,31634
235,31798
236,31935
237,32089
238,32210
239,32319
240,32475
241,32619
242,32810
243,32991
244,33160
245,33337
246,33500
247,33629
248,33740
249,33899
250,34050
251,34203
252,34307
253,34489
254,34635
255,34776
256,34926
257,35045
258,35225
259,35333
260,35443
261,35564
262,35725
263,35853
264,35982
265,36160
266,36297
267,36405
268,36549
269,36690
270,36801
271,36914
272,37040
273,37173
274,37297
275,37409
276,37572
277,37677
278,37857
279,38023
280,38172
281,38297
282,38432
283,38559
284,38679
285,38792
286,38927
287,39068
288,39176
289,39289
290,39408
291,39510
292,39606
293,39744
294,39862
295,39988
296,40128
297,40271
298,40434
299,40546
300,40650
301,40742
302,40856
303,41027
304,41141
305,41270
306,41403
307,41531
308,41648
309,41758
310,41931
311,42066
312,42227
313,42361
314,42534
315,42633
316,42748
317,42881
318,43051
319,43194
320,43400
321,43521
322,43637
323,43751
324,43888
325,44056
326,44195
327,44318
328,44462
329,44575
330,44698
331,44832
332,44953
333,45158
334,45269
335,45404
336,45568
337,45750
338,45919
339,46055
340,46186
341,46373
342,46505
343,46606
344,46769
345,46910
346,47011
347,47159
348,47281
349,47457
350,47642
351,47753
352,47954
353,48090
354,48219
355,48331
356,48518
357,48664
358,48834
359,48943
360,49096
361,49195
362,49328
363,49459
364,49583
365,49701
366,49842
367,49981
368,50092
369,50280
370,50435
371,50561
372,50696
373,50814
374,51012
375,51204
376,51334
377,51494
378,51629
379,51768
380,51883
381,52021
382,52165
383,52308
384,52447
385,52606
386,52799
387,52943
388,53065
389,53252
390,53385
391,53562
392,53684
393,53793
394,53902
395,54077
396,54418
397,54523
398,54679
399,54820
400,54969
401,55211
402,55311
403,55530
404,55633
405,55777
406,56018
407,56120
408,56255
409,56387
410,56533
411,56682
412,56803
413,56958
414,57082
415,57248
416,57395
417,57548
418,57651
419,57789
420,57977
421,58126
422,58303
423,58444
424,58561
425,58709
426,58841
427,58988
428,59150
429,59292
430,59436
431,59587
432,59728
433,59891
434,60025
435,60161
436,60339
437,60472
438,60669
439,60841
440,61006
441,61126
442,61246
443,61366
444,61498
445,61605
446,61707
447,61856
448,62038
449,62183
450,62301
451,62426
452,62571
453,62696
454,63010
455,63228
456,63327
457,63449
458,63680
459,63780
460,63924
461,64057
462,64200
463,64320
464,64450
465,64690
466,64792
467,64931
468,65071
469,65183
470,65294
471,65426
472,65536
473,65673
474,65811
475,65917
476,66048
477,66174
478,66295
479,66449
480,66582
481,66685
482,66800
483,66954
484,67095
485,67204
486,67390
487,67585
488,67716
489,67882
490,68047
491,68172
492,68283
493,68424
494,68596
495,68754
496,68868
497,69077
498,69418
499,69523
500,69679
501,69820
502,69969
503,70211
504,70311
505,70530
506,70633
507,70777
508,71018
509,71120
510,71255
511,71387
512,71533
513,71682
514,71803
515,71958
516,72082
517,72248
518,72395
519,72548
520,72651
521,72789
522,72977
523,73126
524,73303
525,73444
526,73561
527,73709
528,73841
529,73988
530,74150
531,74292
532,74436
533,74587
534,74728
535,74891
536,75025
537,75161
538,75339
539,75472
540,75669
541,75841
542,76006
543,76126
544,76246
545,76366
546,76498
547,76605
548,76707
549,76856
550,77038
551,77183
552,77301
553,77426
554,77571
555,77696
556,78010
557,78228
558,78327
559,78449
560,78680
561,78780
562,78924
563,79057
564,79200
565,79320
566,79450
567,79690
568,79792
569,79931
570,80071
571,80183
572,80294
573,80426
574,80536
575,80673
576,80811
577,80917
578,81048
579,81174
580,81295
581,81449
582,81582
583,81685
584,81800
585,81954
586,82095
587,82204
588,82390
589,82585
590,82716
591,82882
592,83047
593,83172
594,83283
595,83424
596,83596
597,83754
598,83868
599,84048
600,84181
601,84352
602,84470
603,84617
604,84770
605,84978
606,85092
607,85229
608,85342
609,85472
610,85603
611,85781
612,85937
613,86060
614,86226
615,86358
616,86536
617,86714
618,86880
619,87009
620,87141
621,87278
622,87381
623,87501
624,87638
625,87785
626,87917
627,88066
628,88208
629,88322
630,88436
631,88611
632,88757
633,88886
634,89054
635,89204
636,89338
637,89502
638,89620
639,89842
640,89973
641,90116
642,90254
643,90394
644,90585
645,90688
646,90852
647,90964
648,91101
649,91223
650,91389
651,91552
652,91671
653,91803
654,91960
655,92082
656,92191
657,92359
658,92538
659,92698
660,92837
661,92945
662,93145
663,93266
664,93419
665,93569
666,93684
667,93793
668,93919
669,94110
670,94243
671,94359
672,94506
673,94736
674,94861
675,94967
676,95078
677,95225
678,95431
679,95555
680,95683
681,95826
682,95931
683,96037
684,96158
685,96312
686,96485
687,96656
688,96789
689,96922
690,97073
691,97191
692,97446
693,97598
694,97710
695,97853
696,97971
697,98110
698,98255
699,98364
700,98484
701,98578
702,98721
703,98874
704,99033
705,99181
706,99367
707,99492
708,99609
709,99716
710,99826
711,99951
712,100064
713,100207
714,100326
715,100466
716,100625
717,100795
718,101009
719,101145
720,101304
721,101431
722,101549
723,101691
724,101871
725,102008
726,102123
727,102273
728,102387
729,102521
730,102663
731,102776
732,102955
733,103097
734,103282
735,103434
736,103577
737,103713
738,103882
739,104007
740,104126
741,104268
742,104419
743,104522
744,104664
745,104789
746,104962
747,105150
748,105279
749,105402
750,105557
751,105727
752,105851
753,105964
754,106153
755,106301
756,106447
757,106561
758,106686
759,106802
760,106963
761,107098
762,107223
763,107339
764,107473
765,107622
766,107755
767,107869
768,107969
769,108099
770,108212
771,108464
772,108678
773,108862
774,109042
775,109218
776,109345
777,109553
778,109655
779,109817
780,109977
781,110083
782,110186
783,110291
784,110431
785,110572
786,110710
787,110860
788,110998
789,111109
790,111222
791,111332
792,111490
793,111616
794,111734
795,111851
796,112033
797,112140
798,112272
799,112409
800,112527
801,112702
802,112822
803,112991
804,113118
805,113280
806,113402
807,113510
808,113691
809,113879
810,114000
811,114109
812,114212
813,114355
814,114466
815,114612
816,114748
817,114896
818,115017
819,115143
820,115285
821,115433
822,115593
823,115738
824,115861
825,116049
826,116180
827,116327
828,116445
829,116564
830,116816
831,116936
832,117078
833,117228
834,117345
835,117501
836,117616
837,117714
838,117795
839,117928
840,118064
841,118278
842,118440
843,118562
844,118697
845,118809
846,118922
847,119065
848,119223
849,119370
850,119541
851,119756
852,119904
853,120024
854,120177
855,120323
856,120456
857,120592
858,120709
859,120859
860,120976
861,121116
862,121275
863,121424
864,121533
865,121717
866,121897
867,122057
868,122174
869,122312
870,122439
871,122616
872,122738
873,122966
874,123070
875,123183
876,123309
877,123426
878,123573
879,123739
880,123879
881,123997
882,124138
883,124326
884,124451
885,124577
886,124725
887,124872
888,125024
889,125153
890,125297
891,125445
892,125596
893,125748
894,125869
895,126036
896,126152
897,126305
898,126418
899,126563
900,126723
901,126846
902,126979
903,127135
904,127280
905,127391
906,127583
907,127723
908,127872
909,128019
910,128138
911,128299
912,128446
913,128555
914,128673
915,128817
916,129021
917,129178
918,129335
919,129484
920,129640
921,129786
922,129892
923,130057
924,130185
925,130305
926,130434
927,130565
928,130711
929,130889
930,131003
931,131149
932,131259
933,131404
934,131524
935,131671
936,131780
937,131931
938,132083
939,132205
940,132348
941,132454
942,132588
943,132781
944,132900
945,133039
946,133196
947,133349
948,133504
949,133660
950,133773
951,133921
952,134068
953,134233
954,134386
955,134545
956,134694
957,134866
958,134969
959,135106
960,135266
961,135407
962,135510
963,135632
964,135756
965,135908
966,136033
967,136167
968,136282
969,136404
970,136565
971,136700
972,136839
973,136955
974,137063
975,137193
976,137309
977,137460
978,137569
979,137716
980,137870
981,137990
982,138117
983,138267
984,138397
985,138516
986,138655
987,138840
988,139002
989,139107
990,139248
991,139418
992,139588
993,139767
994,139913
995,140107
996,140238
997,140405
998,140554
999,140668
1000,140814
1001,140992
1002,141111
1003,141222
1004,141343
1005,141563
1006,141986
1007,142238
1008,142345
1009,142500
1010,142627
1011,142773
1012,142881
1013,143015
1014,143163
1015,143269
1016,143394
1017,143523
1018,143652
1019,143781
1020,143897
1021,143990
1022,144164
1023,144318
1024,144473
1025,144640
1026,144800
1027,144947
1028,145062
1029,145240
1030,145377
1031,145501
1032,145640
1033,145787
1034,145901
1035,146019
1036,146163
1037,146314
1038,146431
1039,146625
1040,146771
1041,146918
1042,147079
1043,147222
1044,147332
1045,147440
1046,147572
1047,147717
1048,147824
1049,147961
1050,148102
1051,148263
1052,148392
1053,148541
1054,148688
1055,148817
1056,148966
1057,149067
1058,149249
1059,149399
1060,149513
1061,149631
1062,149718
1063,149886
1064,150014
1065,150173
1066,150303
1067,150449
1068,150593
1069,150700
1070,150839
1071,150988
1072,151123
1073,151279
1074,151416
1075,151552
1076,151691
1077,151824
1078,151984
1079,152167
1080,152315
1081,152435
1082,152560
1083,152669
1084,152781
1085,152910
1086,153073
1087,153230
1088,153385
1089,153594
1090,153718
1091,153900
1092,154012
1093,154147
1094,154293
1095,154463
1096,154638
1097,154748
1098,154844
1099,155025
1100,155159
1101,155292
1102,155492
1103,155652
1104,155794
1105,155926
1106,156116
1107,156283
1108,156392
1109,156587
1110,156753
1111,156916
1112,157078
1113,157239
1114,157400
1115,157562
1116,157722
1117,157869
1118,158044
1119,158143
1120,158332
1121,158496
1122,158649
1123,158820
1124,158918
1125,159068
1126,159205
1127,159488
1128,159672
1129,159841
1130,159969
1131,160158
1132,160322
1133,160469
1134,160645
1135,160742
1136,160896
1137,161037
1138,161191
1139,161370
1140,161534
1141,161677
1142,161821
1143,161950
1144,162060
1145,162169
1146,162302
1147,162401
1148,162536
1149,162710
1150,162882
1151,163024
1152,163188
1153,163339
1154,163442
1155,163570
1156,163690
1157,163823
1158,163971
1159,164119
1160,164216
1161,164319
1162,164418
1163,164562
1164,164681
1165,164808
1166,164933
1167,165120
1168,165260
1169,165370
1170,165526
1171,165661
1172,165802
1173,165953
1174,166063
1175,166191
1176,166328
1177,166445
1178,166587
1179,166706
1180,166917
1181,167031
1182,167147
1183,167313
1184,167474
1185,167587
1186,167711
1187,167891
1188,168029
1189,168170
1190,168310
1191,168480
1192,168631
1193,168818
1194,168934
1195,169057
1196,169188
1197,169320
1198,169428
1199,169542
1200,169752
1201,169929
1202,170072
1203,170186
1204,170285
1205,170416
1206,170574
1207,170714
1208,170915
1209,171059
1210,171190
1211,171336
1212,171452
1213,171583
1214,171692
1215,171808
1216,171939
1217,172040
1218,172204
1219,172333
1220,172489
1221,172670
1222,172843
1223,172983
1224,173102
1225,173258
1226,173506
1227,173619
1228,173785
1229,173902
1230,174045
1231,174216
1232,174429
1233,174559
1234,174671
1235,174824
1236,175000
1237,175136
1238,175270
1239,175403
1240,175563
1241,175672
1242,175776
1243,175909
1244,176085
1245,176208
1246,176387
1247,176535
1248,176693
1249,176836
1250,176956
1251,177076
1252,177219
1253,177402
1254,177531
1255,177655
1256,177795
1257,177908
1258,178035
1259,178147
1260,178252
1261,178396
1262,178521
1263,178629
1264,178729
1265,178863
1266,178987
1267,179143
1268,179274
1269,179455
1270,179582
1271,179686
1272,179795
1273,179926
1274,180114
1275,180247
1276,180404
1277,180528
1278,180669
1279,180824
1280,180961
1281,181066
1282,181165
1283,181297
1284,181445
1285,181620
1286,181737
1287,181843
1288,181992
1289,182157
1290,182302
1291,182420
1292,182565
1293,182724
1294,182877
1295,183001
1296,183152
1297,183291
1298,183413
1299,183515
1300,183661
1301,183777
1302,183913
1303,184034
1304,184189
1305,184323
1306,184479
1307,184657
1308,184765
1309,184918
1310,185038
1311,185177
1312,185339
1313,185486
1314,185608
1315,185721
1316,186006
1317,186132
1318,186269
1319,186389
1320,186534
1321,186651
1322,186761
1323,186886
1324,187017
1325,187166
1326,187321
1327,187470
1328,187635
1329,187789
1330,187910
1331,188028
1332,188135
1333,188266
1334,188424
1335,188539
1336,188673
1337,188788
1338,188903
1339,189011
1340,189142
1341,189317
1342,189434
1343,189571
1344,189734
1345,189850
1346,189950
1347,190086
1348,190258
1349,190377
1350,190505
1351,190658
1352,190798
1353,190944
1354,191055
1355,191188
1356,191309
1357,191455
1358,191573
1359,191711
1360,191828
1361,191968
1362,192091
1363,192203
1364,192334
1365,192461
1366,192575
1367,192684
1368,192884
1369,192995
1370,193100
1371,193204
1372,193340
1373,193513
1374,193628
1375,193742
1376,193860
1377,194032
1378,194197
1379,194316
1380,194418
1381,194521
1382,194626
1383,194735
1384,194839
1385,194942
1386,195054
1387,195271
1388,195444
1389,195593
1390,195773
1391,195905
1392,196021
1393,196186
1394,196327
1395,196462
1396,196653
1397,196845
1398,196964
1399,197109
1400,197265
1401,197434
1402,197563
1403,197718
1404,197843
1405,197956
1406,198088
1407,198232
1408,198363
1409,198489
1410,198625
1411,198820
1412,198980
1413,199101
1414,199250
1415,199389
1416,199556
1417,199700
1418,199944
1419,200079
1420,200224
1421,200354
1422,200491
1423,200644
1424,200789
1425,200912
1426,201062
1427,201208
1428,201332
1429,201475
1430,201630
1431,201785
1432,201912
1433,202048
1434,202175
1435,202403
1436,202531
1437,202691
1438,202818
1439,202968
1440,203119
1441,203265
1442,203397
1443,203535
1444,203649
1445,203759
1446,203879
1447,203981
1448,204142
1449,204274
1450,204387
1451,204496
1452,204592
1453,204699
1454,204794
1455,204901
1456,205034
1457,205146
1458,205261
1459,205409
1460,205564
1461,205708
1462,205827
1463,205977
1464,206092
1465,206232
1466,206426
1467,206557
1468,206677
1469,206806
1470,206923
1471,207069
1472,207223
1473,207338
1474,207478
1475,207597
1476,207745
1477,207882
1478,207983
1479,208083
1480,208213
1481,208371
1482,208516
1483,208635
1484,208781
1485,208893
1486,209000
1487,209109
1488,209531
1489,209791
1490,209925
1491,210045
1492,210161
1493,210284
1494,210417
1495,210574
1496,210713
1497,210862
1498,210974
1499,211091
1500,211200
1501,211325
1502,211507
1503,211635
1504,211743
1505,211886
1506,212066
1507,212252
1508,212393
1509,212546
1510,212695
1511,212824
1512,212970
1513,213102
1514,213230
1515,213368
1516,213473
1517,213600
1518,213731
1519,213913
1520,214073
1521,214201
1522,214354
1523,214515
1524,214643
1525,214785
1526,214911
1527,215045
1528,215178
1529,215327
1530,215478
1531,215611
1532,215768
1533,215901
1534,216060
1535,216222
1536,216344
1537,216485
1538,216642
1539,216798
1540,216928
1541,217032
1542,217147
1543,217288
1544,217421
1545,217584
1546,217715
1547,217824
1548,217984
1549,218130
1550,218251
1551,218376
1552,218549
1553,218702
1554,218833
1555,218945
1556,219094
1557,219249
1558,219408
1559,219559
1560,219762
1561,219896
1562,220048
1563,220193
1564,220317
1565,220430
1566,220579
1567,220720
1568,220851
1569,220960
1570,221122
1571,221307
1572,221471
1573,221611
1574,221738
1575,221867
1576,221976
1577,222079
1578,222210
1579,222328
1580,222478
1581,222615
1582,222767
1583,222880
1584,223045
1585,223180
1586,223308
1587,223475
1588,223645
1589,223795
1590,224000
1591,224182
1592,224329
1593,224462
1594,224616
1595,224753
1596,224875
1597,225067
1598,225214
1599,225321
1600,225495
1601,225623
1602,225755
1603,225904
1604,226057
1605,226232
1606,226393
1607,226551
1608,226694
1609,226862
1610,226980
1611,227110
1612,227239
1613,227396
1614,227499
1615,227612
1616,227763
1617,227885
1618,228028
1619,228192
1620,228346
1621,228518
1622,228662
1623,228810
1624,228945
1625,229126
1626,229350
1627,229499
1628,229622
1629,229776
1630,229921
1631,230053
1632,230226
1633,230378
1634,230519
1635,230707
1636,230901
1637,231052
1638,231213
1639,231322
1640,231419
1641,231596
1642,231736
1643,231901
1644,232046
1645,232164
1646,232300
1647,232407
1648,232547
1649,232671
1650,232753
1651,232813
1652,232930
1653,233086
1654,233231
1655,233368
1656,233475
1657,233604
1658,233735
1659,233856
1660,234004
1661,234113
1662,234279
1663,234432
1664,234600
1665,234738
1666,234852
1667,235110
1668,235267
1669,235435
1670,235570
1671,235715
1672,235836
1673,235960
1674,236111
1675,236267
1676,236420
1677,236585
1678,236753
1679,236897
1680,237025
1681,237155
1682,237281
1683,237435
1684,237586
1685,237693
1686,237863
1687,237978
1688,238154
1689,238292
1690,238419
1691,238548
1692,238655
1693,238813
1694,238974
1695,239139
1696,239276
1697,239451
1698,239594
1699,239765
1700,239930
1701,240077
1702,240222
1703,240368
1704,240536
1705,240743
1706,240867
1707,240985
1708,241097
1709,241252
1710,241442
1711,241592
1712,241732
1713,241839
1714,241975
1715,242148
1716,242273
1717,242398
1718,242509
1719,242673
1720,242807
1721,242950
1722,243096
1723,243225
1724,243353
1725,243506
1726,243631
1727,243761
1728,243912
1729,244043
1730,244185
1731,244366
1732,244556
1733,244693
1734,244831
1735,244957
1736,245077
1737,245193
1738,245344
1739,245458
1740,245600
1741,245746
1742,245888
1743,246026
1744,246214
1745,246327
1746,246448
1747,246578
1748,246714
1749,246840
1750,246964
1751,247124
1752,247270
1753,247410
1754,247595
1755,247723
1756,247841
1757,248025
1758,248216
1759,248388
1760,248544
1761,248731
1762,248855
1763,248987
1764,249128
1765,249263
1766,249449
1767,249640
1768,249777
1769,249893
1770,250062
1771,250221
1772,250390
1773,250546
1774,250664
1775,250780
1776,250901
1777,251030
1778,251142
1779,251273
1780,251408
1781,251564
1782,251778
1783,251898
1784,252027
1785,252175
1786,252322
1787,252498
1788,252626
1789,252771
1790,252966
1791,253117
1792,253358
1793,253571
1794,253721
1795,253852
1796,253961
1797,254082
1798,254226
1799,254364
1800,254487
1801,254616
1802,254727
1803,254854
1804,254964
1805,255105
1806,255311
1807,255486
1808,255691
1809,255829
1810,256118
1811,256260
1812,256375
1813,256473
1814,256610
1815,256716
1816,256869
1817,257005
1818,257134
1819,257262
1820,257406
1821,257531
1822,257638
1823,257736
1824,257862
1825,258000
1826,258120
1827,258242
1828,258374
1829,258482
1830,258593
1831,258704
1832,258802
1833,258906
1834,259064
1835,259194
1836,259373
1837,259508
1838,259626
1839,259733
1840,259847
1841,259968
1842,260115
1843,260251
1844,260381
1845,260621
1846,260726
1847,260897
1848,261014
1849,261135
1850,261282
1851,261479
1852,261626
1853,261791
1854,261908
1855,262040
1856,262157
1857,262274
1858,262406
1859,262566
1860,262739
1861,262875
1862,263008
1863,263184
1864,263313
1865,263439
1866,263553
1867,263670
1868,263813
1869,263940
1870,264075
1871,264243
1872,264387
1873,264533
1874,264674
1875,264856
1876,265097
1877,265286
1878,265389
1879,265529
1880,265787
1881,265895
1882,266104
1883,266209
1884,266345
1885,266478
1886,266601
1887,266749
1888,266870
1889,267059
1890,267183
1891,267298
1892,267432
1893,267613
1894,267739
1895,267884
1896,268099
1897,268273
1898,268565
1899,268746
1900,268846
1901,269173
1902,269282
1903,269424
1904,269576
1905,269732
1906,269895
1907,270027
1908,270149
1909,270265
1910,270437
1911,270600
1912,270724
1913,270852
1914,270994
1915,271106
1916,271218
1917,271337
1918,271472
1919,271590
1920,271710
1921,271844
1922,271999
1923,272128
1924,272299
1925,272438
1926,272562
1927,272746
1928,272879
1929,273009
1930,273167
1931,273269
1932,273411
1933,273552
1934,273695
1935,273820
1936,273944
1937,274060
1938,274181
1939,274323
1940,274487
1941,274672
1942,274800
1943,274921
1944,275035
1945,275157
1946,275276
1947,275442
1948,275569
1949,275715
1950,275933
1951,276126
1952,276272
1953,276437
1954,276649
1955,276751
1956,276864
1957,277008
1958,277208
1959,277432
1960,277566
1961,277725
1962,277861
1963,278006
1964,278166
1965,278290
1966,278472
1967,278648
1968,278775
1969,278903
1970,279006
1971,279180
1972,279294
1973,279495
1974,279636
1975,279772
1976,279946
1977,280096
1978,280233
1979,280413
1980,280532
1981,280639
1982,280781
1983,280919
1984,281021
1985,281130
1986,281292
1987,281436
1988,281620
1989,281925
1990,282141
1991,282335
1992,282513
1993,282689
1994,282862
1995,283033
1996,283202
1997,283371
1998,283541
1999,283655
2000,283858
2001,283959
2002,284095
2003,284243
2004,284407
2005,284561
2006,284687
2007,284842
2008,284983
2009,285129
2010,285231
2011,285396
2012,285528
2013,285628
2014,285770
2015,285915
2016,286061
2017,286196
2018,286323
2019,286442
2020,286547
2021,286681
2022,286809
2023,286933
2024,287049
2025,287185
2026,287338
2027,287504
2028,287664
2029,287772
2030,287937
2031,288069
2032,288199
2033,288302
2034,288436
2035,288559
2036,288743
2037,289026
2038,289223
2039,289329
2040,289461
2041,289596
2042,289802
2043,289918
2044,290053
2045,290169
2046,290297
2047,290417
2048,290541
2049,290665
2050,290805
2051,290938
2052,291064
2053,291173
2054,291284
2055,291440
2056,291557
2057,291675
2058,291772
2059,291868
2060,292029
2061,292161
2062,292271
2063,292429
2064,292548
2065,292654
2066,292769
2067,292908
2068,293085
2069,293220
2070,293333
2071,293459
2072,293590
2073,293705
2074,293818
2075,293934
2076,294080
2077,294237
2078,294402
2079,294553
2080,294692
2081,294818
2082,294926
2083,295037
2084,295224
2085,295346
2086,295448
2087,295620
2088,295749
2089,295901
2090,296099
2091,296297
2092,296470
2093,296618
2094,296784
2095,296895
2096,297022
2097,297139
2098,297298
2099,297472
2100,297629
2101,297760
2102,297917
2103,298038
2104,298170
2105,298302
2106,298429
2107,298591
2108,298722
2109,298899
2110,299082
2111,299201
2112,299310
2113,299425
2114,299540
2115,299657
2116,299798
2117,299921
2118,300115
2119,300249
2120,300415
2121,300578
2122,300774
2123,300883
2124,301014
2125,301181
2126,301331
2127,301485
2128,301629
2129,301756
2130,301880
2131,302026
2132,302215
2133,302343
2134,302476
2135,302575
2136,302723
2137,302872
2138,303082
2139,303219
2140,303354
2141,303471
2142,303587
2143,303704
2144,303861
2145,304018
2146,304204
2147,304338
2148,304444
2149,304589
2150,304748
2151,304896
2152,305039
2153,305196
2154,305310
2155,305415
2156,305543
2157,305695
2158,305819
2159,305977
2160,306123
2161,306235
2162,306469
2163,306583
2164,306709
2165,306850
2166,306966
2167,307066
2168,307177
2169,307308
2170,307461
2171,307596
2172,307702
2173,307808
2174,307904
2175,308061
2176,308193
2177,308316
2178,308449
2179,308580
2180,308703
2181,308839
2182,308951
2183,309149
2184,309274
2185,309369
2186,309527
2187,309666
2188,309788
2189,309908
2190,310033
2191,310215
2192,310347
2193,310469
2194,310627
2195,310765
2196,310897
2197,311048
2198,311190
2199,311329
2200,311501
2201,311623
2202,311770
2203,311934
2204,312066
2205,312191
2206,312318
2207,312462
2208,312564
2209,312763
2210,312904
2211,313026
2212,313197
2213,313329
2214,313431
2215,313563
2216,313751
2217,313882
2218,314061
2219,314248
2220,314443
2221,314617
2222,314755
2223,314901
2224,315043
2225,315186
2226,315361
2227,315480
2228,315600
2229,315743
2230,315899
2231,316015
2232,316110
2233,316316
2234,316503
2235,316659
2236,316768
2237,316933
2238,317035
2239,317196
2240,317315
2241,317449
2242,317595
2243,317719
2244,317840
2245,318021
2246,318152
2247,318282
2248,318405
2249,318562
2250,318747
2251,318874
2252,319001
2253,319154
2254,319321
2255,319461
2256,319624
2257,319804
2258,319962
2259,320093
2260,320229
2261,320387
2262,320522
2263,320646
2264,320765
2265,320915
2266,321086
2267,321226
2268,321358
2269,321480
2270,321629
2271,321847
2272,322097
2273,322288
2274,322471
2275,322649
2276,322821
2277,322938
2278,323153
2279,323327
2280,323497
2281,323666
2282,323835
2283,324002
2284,324168
2285,324336
2286,324504
2287,324622
2288,324821
2289,324992
2290,325159
2291,325276
2292,325476
2293,325645
2294,325809
2295,325926
2296,326125
2297,326241
2298,326443
2299,326610
2300,326774
2301,326939
2302,327104
2303,327221
2304,327417
2305,327583
2306,327745
2307,327861
2308,328059
2309,328224
2310,328320
2311,328518
2312,328628
2313,328774
2314,328869
2315,328995
2316,329113
2317,329294
2318,329447
2319,329583
2320,329694
2321,329804
2322,329903
2323,329996
2324,330139
2325,330278
2326,330408
2327,330524
2328,330648
2329,330754
2330,330865
2331,330969
2332,331158
2333,331291
2334,331427
2335,331617
2336,331787
2337,331999
2338,332099
2339,332389
2340,332494
2341,332703
2342,332805
2343,333011
2344,333112
2345,333260
2346,333445
2347,333543
2348,333690
2349,333840
2350,333946
2351,334056
2352,334171
2353,334348
2354,334499
2355,334722
2356,334821
2357,334904
2358,335025
2359,335125
2360,335255
2361,335365
2362,335493
2363,335632
2364,335795
2365,335933
2366,336036
2367,336135
2368,336221
2369,336391
2370,336535
2371,336680
2372,336859
2373,336986
2374,337121
2375,337249
2376,337380
2377,337607
2378,337795
2379,337894
2380,338104
2381,338205
2382,338349
2383,338452
2384,338642
2385,338815
2386,339018
2387,339119
2388,339323
2389,339424
2390,339565
2391,339743
2392,339866
2393,340002
2394,340164
2395,340292
2396,340453
2397,340598
2398,340728
2399,340850
2400,340950
2401,341049
2402,341213
2403,341337
2404,341503
2405,341609
2406,341797
2407,341931
2408,342072
2409,342200
2410,342330
2411,342506
2412,342656
2413,342814
2414,342963
2415,343091
2416,343206
2417,343313
2418,343414
2419,343515
2420,343648
2421,343767
2422,343888
2423,344012
2424,344167
2425,344329
2426,344543
2427,344684
2428,344825
2429,344956
2430,345123
2431,345268
2432,345384
2433,345507
2434,345631
2435,345732
2436,345916
2437,346060
2438,346359
2439,346581
2440,346684
2441,346902
2442,347040
2443,347172
2444,347312
2445,347440
2446,347561
2447,347688
2448,347824
2449,347984
2450,348130
2451,348272
2452,348405
2453,348515
2454,348627
2455,348755
2456,348896
2457,349057
2458,349196
2459,349339
2460,349471
2461,349577
2462,349685
2463,349844
2464,350015
2465,350210
2466,350376
2467,350494
2468,350675
2469,350807
2470,350928
2471,351104
2472,351243
2473,351347
2474,351452
2475,351569
2476,351756
2477,351899
2478,352039
2479,352156
2480,352297
2481,352436
2482,352608
2483,352742
2484,352871
2485,352990
2486,353109
2487,353259
2488,353397
2489,353554
2490,353695
2491,353896
2492,354015
2493,354254
2494,354367
2495,354547
2496,354684
2497,354835
2498,355051
2499,355163
2500,355291
2501,355440
2502,355560
2503,355690
2504,355806
2505,355977
2506,356117
2507,356281
2508,356423
2509,356551
2510,356659
2511,356786
2512,356912
2513,357044
2514,357162
2515,357308
2516,357465
2517,357601
2518,357742
2519,357855
2520,358035
2521,358169
2522,358378
2523,358516
2524,358657
2525,358782
2526,358941
2527,359075
2528,359231
2529,359340
2530,359437
2531,359568
2532,359668
2533,359829
2534,359939
2535,360082
2536,360237
2537,360364
2538,360473
2539,360609
2540,360746
2541,360869
2542,360997
2543,361141
2544,361260
2545,361391
2546,361572
2547,361680
2548,361853
2549,361987
2550,362127
2551,362302
2552,362433
2553,362621
2554,362792
2555,362933
2556,363031
2557,363186
2558,363316
2559,363436
2560,363548
2561,363657
2562,363760
2563,363969
2564,364140
2565,364249
2566,364376
2567,364518
2568,364632
2569,364757
2570,364866
2571,364972
2572,365074
2573,365199
2574,365296
2575,365415
2576,365511
2577,365629
2578,365755
2579,365877
2580,366017
2581,366126
2582,366247
2583,366351
2584,366489
2585,366638
2586,366780
2587,366908
2588,367035
2589,367146
2590,367257
2591,367356
2592,367473
2593,367576
2594,367699
2595,367798
2596,367955
2597,368129
2598,368263
2599,368377
2600,368484
2601,368587
2602,368706
2603,368807
2604,368939
2605,369049
2606,369150
2607,369249
2608,369366
2609,369518
2610,369703
2611,369830
2612,369949
2613,370063
2614,370188
2615,370308
2616,370436
2617,370539
2618,370651
2619,370763
2620,370865
2621,371020
2622,371207
2623,371329
2624,371446
2625,371578
2626,371715
2627,371823
2628,371931
2629,372045
2630,372152
2631,372269
2632,372370
2633,372494
2634,372604
2635,372705
2636,372827
2637,372928
2638,373046
2639,373156
2640,373261
2641,373381
2642,373497
2643,373604
2644,373713
2645,373815
2646,373934
2647,374056
2648,374177
2649,374320
2650,374436
2651,374548
2652,374662
2653,374765
2654,374878
2655,374998
2656,375112
2657,375214
2658,375340
2659,375455
2660,375553
2661,375670
2662,375781
2663,375883
2664,376003
2665,376106
2666,376275
2667,376392
2668,376496
2669,376615
2670,376719
2671,376836
2672,376948
2673,377061
2674,377162
2675,377285
2676,377395
2677,377505
2678,377619
2679,377722
2680,377843
2681,377954
2682,378066
2683,378168
2684,378292
2685,378399
2686,378501
2687,378619
2688,378732
2689,378848
2690,378949
2691,379116
2692,379238
2693,379342
2694,379460
2695,379563
2696,379680
2697,379790
2698,379896
2699,380016
2700,380124
2701,380249
2702,380394
2703,380526
2704,380630
2705,380784
2706,380947
2707,381070
2708,381184
2709,381294
2710,381412
2711,381521
2712,381634
2713,381743
2714,381855
2715,381956
2716,382129
2717,382294
2718,382419
2719,382558
2720,382691
2721,382793
2722,382913
2723,383016
2724,383138
2725,383244
2726,383346
2727,383466
2728,383569
2729,383742
2730,383847
2731,383961
2732,384065
2733,384227
2734,384400
2735,384513
2736,384616
2737,384730
2738,384847
2739,384954
2740,385055
2741,385173
2742,385289
2743,385399
2744,385507
2745,385608
2746,385731
2747,385839
2748,385947
2749,386066
2750,386172
2751,386272
2752,386394
2753,386502
2754,386604
2755,386724
2756,386831
2757,386931
2758,387050
2759,387160
2760,387269
2761,387367
2762,387493
2763,387601
2764,387700
2765,387816
2766,387929
2767,388028
2768,388132
2769,388303
2770,388419
2771,388533
2772,388632
2773,388735
2774,388861
2775,388968
2776,389099
2777,389237
2778,389407
2779,389535
2780,389720
2781,389842
2782,389945
2783,390064
2784,390172
2785,390274
2786,390395
2787,390502
2788,390603
2789,390722
2790,390835
2791,390937
2792,391111
2793,391274
2794,391388
2795,391502
2796,391615
2797,391724
2798,391828
2799,391936
2800,392085
2801,392200
2802,392370
2803,392504
2804,392620
2805,392724
2806,392869
2807,392982
2808,393096
2809,393197
2810,393358
2811,393508
2812,393643
2813,393763
2814,393864
2815,394020
2816,394156
2817,394282
2818,394514
2819,394632
2820,394750
2821,394860
2822,394961
2823,395080
2824,395187
2825,395289
2826,395408
2827,395518
2828,395617
2829,395731
2830,395838
2831,395951
2832,396056
2833,396228
2834,396338
2835,396441
2836,396561
2837,396671
2838,396772
2839,396889
2840,396993
2841,397107
2842,397211
2843,397333
2844,397439
2845,397540
2846,397653
2847,397804
2848,397930
2849,398045
2850,398144
2851,398265
2852,398365
2853,398483
2854,398593
2855,398694
2856,398816
2857,398921
2858,399030
2859,399143
2860,399256
2861,399359
2862,399464
2863,399585
2864,399696
2865,399806
2866,399915
2867,400019
2868,400136
2869,400265
2870,400429
2871,400629
2872,400750
2873,400909
2874,401022
2875,401137
2876,401238
2877,401344
2878,401462
2879,401577
2880,401681
2881,401798
2882,401906
2883,402008
2884,402125
2885,402240
2886,402351
2887,402459
2888,402567
2889,402682
2890,402794
2891,402900
2892,403056
2893,403181
2894,403294
2895,403400
2896,403522
2897,403629
2898,403733
2899,403851
2900,403964
2901,404077
2902,404190
2903,404292
2904,404411
2905,404523
2906,404636
2907,404749
2908,404859
2909,404963
2910,405086
2911,405195
2912,405301
2913,405418
2914,405530
2915,405642
2916,405757
2917,405870
2918,405982
2919,406092
2920,406205
2921,406318
2922,406433
2923,406547
2924,406656
2925,406771
2926,406884
2927,406992
2928,407112
2929,407217
2930,407335
2931,407450
2932,407565
2933,407678
2934,407794
2935,407903
2936,408017
2937,408128
2938,408244
2939,408356
2940,408469
2941,408572
2942,408691
2943,408805
2944,408916
2945,409023
2946,409129
2947,409249
2948,409359
2949,409472
2950,409580
2951,409690
2952,409794
2953,409913
2954,410025
2955,410131
2956,410245
2957,410374
2958,410488
2959,410595
2960,410711
2961,410822
2962,410969
2963,411084
2964,411200
2965,411308
2966,411434
2967,411554
2968,411696
2969,411820
2970,411971
2971,412090
2972,412202
2973,412307
2974,412424
2975,412526
2976,412647
2977,412760
2978,412873
2979,412975
2980,413095
2981,413206
2982,413314
2983,413428
2984,413544
2985,413650
2986,413756
2987,413877
2988,413990
2989,414104
2990,414211
2991,414322
2992,414432
2993,414546
2994,414657
2995,414773
2996,414881
2997,414990
2998,415103
2999,415216
3000,415325
3001,415452
3002,415556
3003,415657
3004,415774
3005,415887
3006,415996
3007,416100
3008,416215
3009,416327
3010,416440
3011,416549
3012,416652
3013,416769
3014,416878
3015,416991
3016,417102
3017,417214
3018,417315
3019,417435
3020,417543
3021,417655
3022,417768
3023,417879
3024,417983
3025,418098
3026,418213
3027,418327
3028,418441
3029,418550
3030,418655
3031,418777
3032,418889
3033,419004
3034,419120
3035,419233
3036,419517
3037,419953
3038,420093
3039,420218
3040,420344
3041,420439
3042,420533
3043,420708
3044,420823
3045,420953
3046,421086
3047,421186
3048,421334
3049,421441
3050,421573
3051,421686
3052,421794
3053,421934
3054,422071
3055,422197
3056,422307
3057,422401
3058,422535
3059,422668
3060,422811
3061,422940
3062,423048
3063,423232
3064,423362
3065,423532
3066,423671
3067,423833
3068,423985
3069,424151
3070,424280
3071,424382
3072,424507
3073,424675
3074,424789
3075,424955
3076,425097
3077,425228
3078,425368
3079,425478
3080,425674
3081,425807
3082,425912
3083,426012
3084,426175
3085,426322
3086,426498
3087,426624
3088,426753
3089,426918
3090,427041
3091,427187
3092,427331
3093,427473
3094,427595
3095,427796
3096,427954
3097,428077
3098,428198
3099,428339
3100,428521
3101,428664
3102,428842
3103,428970
3104,429094
3105,429252
3106,429392
3107,429542
3108,429718
3109,429935
3110,430059
3111,430170
3112,430321
3113,430472
3114,430598
3115,430773
3116,430958
3117,431112
3118,431293
3119,431422
3120,431592
3121,431762
3122,431915
3123,432065
3124,432192
3125,432362
3126,432531
3127,432664
3128,432786
3129,432902
3130,433014
3131,433165
3132,433318
3133,433477
3134,433618
3135,433806
3136,433960
3137,434145
3138,434278
3139,434452
3140,434595
3141,434767
3142,434895
3143,435036
3144,435160
3145,435277
3146,435397
3147,435530
3148,435649
3149,435810
3150,435965
3151,436090
3152,436192
3153,436328
3154,436460
3155,436625
3156,436790
3157,436971
3158,437104
3159,437283
3160,437386
3161,437531
3162,437690
3163,437832
3164,437964
3165,438095
3166,438212
3167,438339
3168,438451
3169,438585
3170,438716
3171,438855
3172,438991
3173,439104
3174,439231
3175,439332
3176,439476
3177,439620
3178,439748
3179,439896
3180,440029
3181,440152
3182,440261
3183,440394
3184,440531
3185,440675
3186,440817
3187,440925
3188,441070
3189,441187
3190,441339
3191,441477
3192,441622
3193,441810
3194,441970
3195,442138
3196,442278
3197,442385
3198,442515
3199,442635
3200,442787
3201,442897
3202,443041
3203,443148
3204,443281
3205,443426
3206,443570
3207,443734
3208,443907
3209,444029
3210,444216
3211,444370
3212,444547
3213,444713
3214,444818
3215,444956
3216,445123
3217,445249
3218,445381
3219,445501
3220,445643
3221,445807
3222,445901
3223,446008
3224,446170
3225,446366
3226,446502
3227,446607
3228,446714
3229,446807
3230,446974
3231,447095
3232,447209
3233,447316
3234,447453
3235,447638
3236,447802
3237,447910
3238,448080
3239,448228
3240,448344
3241,448504
3242,448693
3243,448848
3244,448974
3245,449125
3246,449243
3247,449378
3248,449527
3249,449714
3250,449829
3251,450042
3252,450172
3253,450323
3254,450445
3255,450597
3256,450786
3257,450901
3258,451069
3259,451206
3260,451324
3261,451434
3262,451590
3263,451734
3264,451906
3265,452046
3266,452184
3267,452309
3268,452429
3269,452590
3270,452719
3271,452850
3272,452957
3273,453089
3274,453206
3275,453357
3276,453489
3277,453663
3278,453814
3279,453996
3280,454144
3281,454278
3282,454383
3283,454499
3284,454655
3285,454823
3286,454952
3287,455087
3288,455222
3289,455336
3290,455587
3291,455722
3292,455873
3293,456022
3294,456148
3295,456321
3296,456484
3297,456624
3298,456820
3299,456955
3300,457092
3301,457226
3302,457399
3303,457601
3304,457722
3305,457842
3306,457961
3307,458076
3308,458179
3309,458320
3310,458476
3311,458632
3312,458749
3313,458923
3314,459066
3315,459239
3316,459351
3317,459505
3318,459642
3319,459762
3320,459894
3321,460071
3322,460214
3323,460361
3324,460491
3325,460633
3326,460751
3327,460872
3328,460991
3329,461116
3330,461273
3331,461443
3332,461561
3333,461662
3334,461826
3335,461971
3336,462105
3337,462232
3338,462340
3339,462441
3340,462587
3341,462703
3342,462828
3343,463004
3344,463155
3345,463290
3346,463394
3347,463517
3348,463662
3349,463819
3350,463957
3351,464068
3352,464198
3353,464351
3354,464480
3355,464625
3356,464800
3357,464919
3358,465083
3359,465248
3360,465438
3361,465595
3362,465751
3363,465889
3364,466042
3365,466153
3366,466289
3367,466434
3368,466564
3369,466670
3370,466771
3371,466932
3372,467038
3373,467222
3374,467386
3375,467579
3376,467736
3377,467849
3378,468019
3379,468131
3380,468264
3381,468404
3382,468580
3383,468694
3384,468824
3385,468970
3386,469168
3387,469299
3388,469410
3389,469539
3390,469701
3391,469847
3392,469984
3393,470121
3394,470251
3395,470381
3396,470552
3397,470726
3398,470852
3399,470958
3400,471095
3401,471225
3402,471333
3403,471471
3404,471589
3405,471715
3406,471858
3407,472026
3408,472141
3409,472318
3410,472456
3411,472588
3412,472715
3413,472823
3414,472957
3415,473098
3416,473233
3417,473350
3418,473483
3419,473597
3420,473720
3421,473834
3422,473987
3423,474186
3424,474375
3425,474498
3426,474623
3427,474734
3428,474864
3429,474992
3430,475145
3431,475259
3432,475420
3433,475540
3434,475712
3435,475820
3436,475931
3437,476070
3438,476178
3439,476315
3440,476459
3441,476588
3442,476706
3443,476808
3444,476967
3445,477115
3446,477255
3447,477404
3448,477572
3449,477699
3450,477824
3451,477984
3452,478109
3453,478259
3454,478423
3455,478577
3456,478719
3457,478862
3458,478994
3459,479123
3460,479314
3461,479454
3462,479566
3463,479700
3464,479815
3465,479931
3466,480129
3467,480306
3468,480435
3469,480566
3470,480703
3471,480851
3472,481000
3473,481128
3474,481269
3475,481401
3476,481590
3477,481723
3478,481870
3479,481996
3480,482118
3481,482241
3482,482358
3483,482490
3484,482604
3485,482716
3486,482834
3487,482976
3488,483107
3489,483208
3490,483390
3491,483583
3492,483698
3493,483827
3494,483993
3495,484151
3496,484309
3497,484432
3498,484579
3499,484770
3500,484876
3501,485062
3502,485181
3503,485303
3504,485457
3505,485652
3506,485767
3507,485883
3508,486012
3509,486133
3510,486253
3511,486362
3512,486487
3513,486709
3514,486884
3515,487055
3516,487225
3517,487392
3518,487525
3519,487712
3520,487812
3521,487951
3522,488107
3523,488228
3524,488366
3525,488489
3526,488626
3527,488745
3528,488842
3529,488963
3530,489057
3531,489192
3532,489506
3533,489608
3534,489817
3535,489922
3536,490119
3537,490223
3538,490358
3539,490562
3540,490734
3541,490903
3542,491067
3543,491233
3544,491332
3545,491531
3546,491633
3547,491768
3548,491886
3549,491990
3550,492148
3551,492277
3552,492434
3553,492557
3554,492745
3555,492917
3556,493040
3557,493160
3558,493293
3559,493464
3560,493582
3561,493737
3562,493918
3563,494091
3564,494222
3565,494339
3566,494531
3567,494676
3568,494791
3569,494967
3570,495133
3571,495294
3572,495458
3573,495625
3574,495805
3575,495961
3576,496088
3577,496254
3578,496383
3579,496500
3580,496613
3581,496799
3582,496932
3583,497079
3584,497233
3585,497416
3586,497542
3587,497661
3588,497780
3589,497894
3590,498011
3591,498137
3592,498267
3593,498379
3594,498627
3595,498813
3596,498988
3597,499114
3598,499317
3599,499489
3600,499656
3601,499823
3602,499942
3603,500141
3604,500308
3605,500473
3606,500637
3607,500799
3608,500961
3609,501125
3610,501288
3611,501408
3612,501600
3613,501767
3614,501886
3615,502078
3616,502244
3617,502364
3618,502558
3619,502657
3620,502851
3621,503018
3622,503118
3623,503315
3624,503479
3625,503642
3626,503756
3627,503860
3628,504063
3629,504163
3630,504280
3631,504367
3632,504472
3633,504646
3634,504839
3635,505004
3636,505122
3637,505320
3638,505483
3639,505579
3640,505703
3641,505828
3642,505958
3643,506078
3644,506201
3645,506317
3646,506428
3647,506538
