,0
0,68
1,188
2,321
3,438
4,574
5,678
6,809
7,948
8,1093
9,1229
10,1358
11,1465
12,1602
13,1704
14,1839
15,1968
16,2151
17,2308
18,2445
19,2569
20,2690
21,2801
22,2939
23,3113
24,3251
25,3382
26,3514
27,3642
28,3748
29,3857
30,3965
31,4117
32,4253
33,4392
34,4521
35,4621
36,4725
37,4863
38,5006
39,5144
40,5275
41,5446
42,5626
43,5807
44,5906
45,6037
46,6172
47,6361
48,6474
49,6601
50,6710
51,6828
52,6949
53,7071
54,7193
55,7315
56,7445
57,7593
58,7717
59,7859
60,8025
61,8147
62,8298
63,8468
64,8634
65,8767
66,8941
67,9122
68,9241
69,9375
70,9511
71,9651
72,9775
73,9911
74,10061
75,10199
76,10299
77,10357
78,10460
79,10565
80,10672
81,10808
82,10905
83,11059
84,11159
85,11274
86,11402
87,11584
88,11692
89,11812
90,11933
91,12047
92,12171
93,12311
94,12415
95,12545
96,12707
97,12843
98,13037
99,13137
100,13223
101,13358
102,13471
103,13628
104,13773
105,13909
106,14013
107,14162
108,14295
109,14436
110,14567
111,14765
112,14938
113,15076
114,15215
115,15369
116,15511
117,15688
118,15804
119,15985
120,16103
121,16254
122,16410
123,16566
124,16705
125,16845
126,16997
127,17184
128,17385
129,17527
130,17639
131,17749
132,17896
133,18042
134,18178
135,18289
136,18471
137,18686
138,18834
139,18971
140,19101
141,19264
142,19418
143,19617
144,19768
145,19942
146,20102
147,20257
148,20401
149,20547
150,20733
151,20891
152,21020
153,21177
154,21325
155,21509
156,21653
157,21788
158,21959
159,22113
160,22258
161,22457
162,22611
163,22792
164,22943
165,23077
166,23235
167,23380
168,23521
169,23645
170,23879
171,24049
172,24178
173,24308
174,24448
175,24596
176,24744
177,24880
178,25027
179,25168
180,25312
181,25520
182,25648
183,25769
184,25939
185,26093
186,26239
187,26425
188,26567
189,26715
190,26859
191,26999
192,27135
193,27347
194,27496
195,27645
196,27770
197,27925
198,28037
199,28216
200,28354
201,28476
202,28654
203,28809
204,28965
205,29108
206,29246
207,29402
208,29546
209,29685
210,29832
211,29941
212,30091
213,30225
214,30347
215,30483
216,30636
217,30779
218,30959
219,31132
220,31274
221,31414
222,31554
223,31697
224,31826
225,31985
226,32102
227,32250
228,32393
229,32571
230,32733
231,33002
232,33151
233,33297
234,33445
235,33573
236,33723
237,33861
238,33998
239,34182
240,34322
241,34452
242,34626
243,34732
244,34835
245,34972
246,35155
247,35358
248,35490
249,35637
250,35789
251,35940
252,36098
253,36239
254,36374
255,36530
256,36663
257,36841
258,36951
259,37092
260,37227
261,37352
262,37477
263,37596
264,37719
265,37922
266,38071
267,38238
268,38381
269,38499
270,38589
271,38728
272,38871
273,39018
274,39141
275,39310
276,39445
277,39595
278,39704
279,39893
280,39994
281,40134
282,40281
283,40385
284,40526
285,40642
286,40778
287,40898
288,41031
289,41123
290,43830
291,43967
292,44090
293,44265
294,44424
295,44562
296,44735
297,44802
298,44885
299,45019
300,45163
301,45309
302,45448
303,45578
304,45719
305,45855
306,45972
307,46156
308,46270
309,46366
310,46507
311,46629
312,46769
313,46899
314,47033
315,47169
316,47307
317,47435
318,47624
319,47747
320,47880
321,48033
322,48155
323,48271
324,48408
325,48526
326,48662
327,48804
328,48936
329,49077
330,49189
331,49323
332,49471
333,49620
334,49752
335,49874
336,50013
337,50177
338,50314
339,50513
340,50648
341,50791
342,50890
343,51067
344,51234
345,51386
346,51530
347,51720
348,51872
349,51975
350,52122
351,52263
352,52435
353,52571
354,52718
355,52858
356,53056
357,53198
358,53343
359,53471
360,53624
361,53764
362,53890
363,54034
364,54180
365,54324
366,54462
367,54591
368,54730
369,54920
370,55071
371,55173
372,55312
373,55452
374,55586
375,55721
376,55851
377,55988
378,56161
379,56299
380,56446
381,56613
382,56752
383,56875
384,57054
385,57173
386,57304
387,57497
388,57709
389,57899
390,58048
391,58185
392,58333
393,58448
394,58595
395,58756
396,58880
397,59037
398,59200
399,59380
400,59524
401,59662
402,59830
403,60018
404,60220
405,60363
406,60512
407,60650
408,60816
409,60969
410,61078
411,61212
412,61347
413,61485
414,61664
415,61809
416,61953
417,62090
418,62226
419,62365
420,62511
421,62660
422,62794
423,62974
424,63148
425,63334
426,63469
427,63659
428,63789
429,63969
430,64157
431,64306
432,64516
433,64681
434,64817
435,65028
436,65185
437,65315
438,65449
439,65593
440,65770
441,65919
442,66036
443,66169
444,66347
445,66496
446,66678
447,66841
448,66978
449,67163
450,67339
451,67475
452,67618
453,67782
454,67944
455,68074
456,68194
457,68337
458,68476
459,68609
460,68756
461,68912
462,69053
463,69231
464,69390
465,69522
466,69692
467,69883
468,70006
469,70190
470,70348
471,70485
472,70605
473,70750
474,70891
475,71041
476,71220
477,71349
478,71531
479,71686
480,71864
481,72008
482,72149
483,72347
484,72470
485,72613
486,72779
487,72949
488,73120
489,73263
490,73402
491,73559
492,73714
493,73853
494,74042
495,74186
496,74358
497,74508
498,74643
499,74773
500,74956
501,75148
502,75309
503,75543
504,75721
505,75875
506,76015
507,76189
508,76327
509,76497
510,76657
511,76804
512,76994
513,77174
514,77297
515,77479
516,77637
517,77828
518,77961
519,78095
520,78292
521,78422
522,78542
523,78710
524,78833
525,79013
526,79190
527,79331
528,79462
529,79590
530,79729
531,79859
532,79992
533,80129
534,80262
535,80404
536,80537
537,80670
538,80800
539,80987
540,81132
541,81312
542,81459
543,81678
544,81797
545,81970
546,82107
547,82251
548,82388
549,82519
550,82646
551,82829
552,82981
553,83115
554,83245
555,83380
556,83515
557,83634
558,83868
559,84000
560,84183
561,84360
562,84540
563,84676
564,84861
565,84992
566,85170
567,85294
568,85444
569,85579
570,85714
571,85877
572,86013
573,86148
574,86308
575,86453
576,86591
577,86747
578,86899
579,87006
580,87172
581,87334
582,87486
583,87628
584,87748
585,87931
586,88124
587,88233
588,88372
589,88517
590,88647
591,88786
592,88932
593,89110
594,89260
595,89439
596,89595
597,89746
598,89924
599,90109
600,90322
601,90463
602,90582
603,90713
604,90904
605,91089
606,91275
607,91422
608,91557
609,91754
610,91896
611,92034
612,92205
613,92343
614,92480
615,92625
616,92792
617,92961
618,93113
619,93257
620,93486
621,93598
622,93789
623,93971
624,94135
625,94287
626,94427
627,94616
628,94735
629,94871
630,95004
631,95202
632,95405
633,95599
634,95710
635,95856
636,95990
637,96131
638,96269
639,96418
640,96589
641,96724
642,96908
643,97049
644,97205
645,97452
646,97639
647,97780
648,97911
649,98086
650,98226
651,98394
652,98539
653,98676
654,98818
655,98963
656,99100
657,99270
658,99458
659,99615
660,99752
661,99895
662,100029
663,100208
664,100412
665,100604
666,100826
667,100968
668,101159
669,101297
670,101432
671,101572
672,101706
673,101904
674,102095
675,102279
676,102479
677,102653
678,102794
679,102914
680,103088
681,103266
682,103419
683,103601
684,103744
685,103911
686,104050
687,104195
688,104338
689,104553
690,104702
691,104845
692,104967
693,105203
694,105393
695,105536
696,105712
697,105918
698,106059
699,106194
700,106321
701,106462
702,106608
703,106736
704,106870
705,107004
706,107128
707,107401
708,107541
709,107664
710,107806
711,107944
712,108074
713,108256
714,108413
715,108552
716,108728
717,108873
718,109030
719,109180
720,109319
721,109499
722,109620
723,109769
724,109977
725,110279
726,110444
727,110554
728,110690
729,110871
730,111110
731,111329
732,111497
733,111683
734,111855
735,111978
736,112138
737,112239
738,112384
739,112490
740,112661
741,112802
742,112986
743,113185
744,113370
745,113514
746,113637
747,113829
748,113970
749,114106
750,114292
751,114486
752,114645
753,114777
754,114961
755,115150
756,115283
757,115457
758,115587
759,115755
760,115884
761,116009
762,116156
763,116295
764,116435
765,116605
766,116797
767,116956
768,117136
769,117280
770,117486
771,117624
772,117792
773,117970
774,118162
775,118343
776,118486
777,118675
778,118838
779,119025
780,119204
781,119318
782,119481
783,119627
784,119780
785,119921
786,120101
787,120256
788,120376
789,120561
790,120705
791,120838
792,120993
793,121129
794,121294
795,121411
796,121592
797,121787
798,121931
799,122119
800,122269
801,122435
802,122572
803,122751
804,122924
805,123164
806,123311
807,123454
808,123603
809,123737
810,123912
811,124054
812,124188
813,124325
814,124492
815,124681
816,124863
817,125101
818,125279
819,125378
820,125520
821,125666
822,125842
823,125977
824,126210
825,126337
826,126520
827,126713
828,126952
829,127094
830,127235
831,127428
832,127676
833,127817
834,128017
835,128147
836,128301
837,128449
838,128596
839,128735
840,128906
841,129029
842,129222
843,129361
844,129548
845,129680
846,129856
847,130045
848,130195
849,130332
850,130474
851,130614
852,130875
853,131033
854,131172
855,131353
856,131496
857,131644
858,131791
859,131919
860,132045
861,132184
862,132421
863,132574
864,132744
865,132891
866,133020
867,133145
868,133295
869,133431
870,133558
871,133721
872,134014
873,134216
874,134361
875,134535
876,134679
877,134862
878,134962
879,135166
880,135307
881,135492
882,135657
883,135804
884,135922
885,136055
886,136190
887,136325
888,136514
889,136659
890,136815
891,136960
892,137090
893,137210
894,137396
895,137552
896,137675
897,137813
898,137982
899,138119
900,138273
901,138454
902,138646
903,138830
904,138971
905,139155
906,139310
907,139459
908,139598
909,139771
910,139961
911,140106
912,140256
913,140423
914,140559
915,140688
916,140829
917,141036
918,141230
919,141379
920,141531
921,141671
922,141835
923,141975
924,142164
925,142342
926,142497
927,142659
928,142799
929,142927
930,143118
931,143262
932,143398
933,143541
934,143700
935,143849
936,144058
937,144237
938,144389
939,144528
940,144700
941,144893
942,145035
943,145176
944,145339
945,145517
946,145665
947,145818
948,146001
949,146160
950,146371
951,146484
952,146658
953,146803
954,146944
955,147062
956,147252
957,147392
958,147555
959,147703
960,147851
961,148042
962,148217
963,148401
964,148542
965,148723
966,148869
967,149002
968,149203
969,149386
970,149581
971,149784
972,149911
973,150081
974,150285
975,150425
976,150567
977,150722
978,150902
979,151044
980,151194
981,151366
982,151499
983,151627
984,151743
985,151925
986,152113
987,152261
988,152450
989,152601
990,152789
991,152928
992,153087
993,153234
994,153394
995,153593
996,153728
997,153852
998,154022
999,154174
1000,154296
1001,154470
1002,154635
1003,154805
1004,154935
1005,155105
1006,155274
1007,155450
1008,155615
1009,155774
1010,155918
1011,156047
1012,156180
1013,156414
1014,156542
1015,156679
1016,156819
1017,156959
1018,157120
1019,157275
1020,157435
1021,157595
1022,157723
1023,157847
1024,158009
1025,158129
1026,158270
1027,158444
1028,158585
1029,158735
1030,158868
1031,158989
1032,159142
1033,159273
1034,159401
1035,159546
1036,159701
1037,159831
1038,159967
1039,160101
1040,160251
1041,160418
1042,160544
1043,160669
1044,160953
1045,161149
1046,161324
1047,161472
1048,161637
1049,161778
1050,161931
1051,162070
1052,162191
1053,162324
1054,162464
1055,162599
1056,162735
1057,162926
1058,163161
1059,163355
1060,163500
1061,163690
1062,163858
1063,164007
1064,164144
1065,164313
1066,164451
1067,164574
1068,164707
1069,164842
1070,164985
1071,165191
1072,165318
1073,165449
1074,165612
1075,165755
1076,165947
1077,166139
1078,166289
1079,166422
1080,166612
1081,166807
1082,166936
1083,167118
1084,167297
1085,167443
1086,167631
1087,167811
1088,167978
1089,168177
1090,168312
1091,168484
1092,168643
1093,168764
1094,169008
1095,169181
1096,169367
1097,169525
1098,169664
1099,169852
1100,170117
1101,170262
1102,170394
1103,170519
1104,170660
1105,170848
1106,170979
1107,171113
1108,171294
1109,171478
1110,171651
1111,171788
1112,171910
1113,172051
1114,172184
1115,172318
1116,172463
1117,172605
1118,172738
1119,172928
1120,173066
1121,173202
1122,173383
1123,173533
1124,173720
1125,173852
1126,174010
1127,174150
1128,174323
1129,174462
1130,174640
1131,174836
1132,174966
1133,175108
1134,175305
1135,175436
1136,175563
1137,175747
1138,175884
1139,176011
1140,176136
1141,176277
1142,176475
1143,176620
1144,176757
1145,176931
1146,177055
1147,177198
1148,177334
1149,177562
1150,177750
1151,177898
1152,178035
1153,178173
1154,178365
1155,178501
1156,178713
1157,178884
1158,179050
1159,179203
1160,179388
1161,179540
1162,179732
1163,179876
1164,180071
1165,180227
1166,180361
1167,180552
1168,180690
1169,180840
1170,180974
1171,181131
1172,181333
1173,181478
1174,181648
1175,181800
1176,181981
1177,182166
1178,182315
1179,182423
1180,182559
1181,182696
1182,182882
1183,183016
1184,183188
1185,183315
1186,183473
1187,183574
1188,183717
1189,183883
1190,184010
1191,184156
1192,184292
1193,184433
1194,184571
1195,184718
1196,184902
1197,185023
1198,185158
1199,185317
1200,185469
1201,185601
1202,185784
1203,185937
1204,186077
1205,186251
1206,186399
1207,186544
1208,186731
1209,186895
1210,187040
1211,187214
1212,187392
1213,187535
1214,187694
1215,187792
1216,187919
1217,188103
1218,188299
1219,188447
1220,188634
1221,188773
1222,188915
1223,189059
1224,189215
1225,189347
1226,189525
1227,189718
1228,189848
1229,190019
1230,190145
1231,190272
1232,190451
1233,190598
1234,190740
1235,190883
1236,191007
1237,191156
1238,191345
1239,191502
1240,191624
1241,191786
1242,191928
1243,192120
1244,192263
1245,192419
1246,192604
1247,192740
1248,192880
1249,193066
1250,193267
1251,193453
1252,193594
1253,193781
1254,193966
1255,194124
1256,194276
1257,194422
1258,194555
1259,194737
1260,194934
1261,195106
1262,195245
1263,195380
1264,195565
1265,195781
1266,195920
1267,196073
1268,196264
1269,196436
1270,196562
1271,196703
1272,196856
1273,196990
1274,197157
1275,197314
1276,197467
1277,197655
1278,197825
1279,197946
1280,198056
1281,198186
1282,198323
1283,198489
1284,198640
1285,198780
1286,198962
1287,199098
1288,199271
1289,199407
1290,199547
1291,199677
1292,199803
1293,199981
1294,200119
1295,200255
1296,200420
1297,200551
1298,200729
1299,200861
1300,201067
1301,201217
1302,201345
1303,201483
1304,201660
1305,201800
1306,201942
1307,202084
1308,202273
1309,202427
1310,202584
1311,202734
1312,202882
1313,203016
1314,203210
1315,203368
1316,203496
1317,203667
1318,203862
1319,204029
1320,204193
1321,204344
1322,204519
1323,204660
1324,204791
1325,204937
1326,205075
1327,205215
1328,205361
1329,205494
1330,205691
1331,205821
1332,206002
1333,206165
1334,206349
1335,206520
1336,206665
1337,206836
1338,206966
1339,207144
1340,207321
1341,207460
1342,207644
1343,207797
1344,207978
1345,208127
1346,208274
1347,208391
1348,208511
1349,208652
1350,208825
1351,209014
1352,209150
1353,209290
1354,209414
1355,209554
1356,209695
1357,209839
1358,209962
1359,210128
1360,210287
1361,210425
1362,210656
1363,210793
1364,210939
1365,211094
1366,211236
1367,211434
1368,211584
1369,211800
1370,211943
1371,212070
1372,212195
1373,212323
1374,212492
1375,212618
1376,212736
1377,212920
1378,213078
1379,213230
1380,213365
1381,213510
1382,213683
1383,213818
1384,213935
1385,214066
1386,214207
1387,214345
1388,214526
1389,214663
1390,214834
1391,214971
1392,215144
1393,215301
1394,215432
1395,215564
1396,215792
1397,215939
1398,216060
1399,216237
1400,216358
1401,216519
1402,216644
1403,216764
1404,216909
1405,217041
1406,217215
1407,217355
1408,217499
1409,217638
1410,217772
1411,217917
1412,218111
1413,218232
1414,218422
1415,218616
1416,218782
1417,218964
1418,219139
1419,219265
1420,219411
1421,219555
1422,219700
1423,219842
1424,220078
1425,220221
1426,220347
1427,220525
1428,220713
1429,220894
1430,221035
1431,221180
1432,221321
1433,221496
1434,221754
1435,221954
1436,222093
1437,222270
1438,222408
1439,222547
1440,222680
1441,222820
1442,223025
1443,223181
1444,223313
1445,223497
1446,223647
1447,223808
1448,223922
1449,224056
1450,224193
1451,224330
1452,224527
1453,224708
1454,224853
1455,225040
1456,225168
1457,225328
1458,225469
1459,225619
1460,225763
1461,225935
1462,226072
1463,226264
1464,226375
1465,226506
1466,226679
1467,226828
1468,227024
1469,227164
1470,227280
1471,227422
1472,227561
1473,227727
1474,227904
1475,228051
1476,228216
1477,228336
1478,228457
1479,228590
1480,228729
1481,228894
1482,229047
1483,229226
1484,229420
1485,229556
1486,229679
1487,229863
1488,230072
1489,230265
1490,230405
1491,230546
1492,230688
1493,230864
1494,231112
1495,231242
1496,231374
1497,231502
1498,231667
1499,231778
1500,231919
1501,232050
1502,232191
1503,232334
1504,232529
1505,232662
1506,232819
1507,232988
1508,233145
1509,233263
1510,233389
1511,233517
1512,233654
1513,233834
1514,233974
1515,234104
1516,234247
1517,234397
1518,234526
1519,234664
1520,234838
1521,234974
1522,235105
1523,235241
1524,235390
1525,235528
1526,235780
1527,235922
1528,236051
1529,236195
1530,236458
1531,236648
1532,236789
1533,236927
1534,237110
1535,237250
1536,237416
1537,237591
1538,237817
1539,237961
1540,238124
1541,238258
1542,238394
1543,238529
1544,238652
1545,238854
1546,239081
1547,239229
1548,239352
1549,239517
1550,239664
1551,239794
1552,239939
1553,240056
1554,240180
1555,240361
1556,240528
1557,240670
1558,240802
1559,240981
1560,241165
1561,241343
1562,241481
1563,241612
1564,241753
1565,241936
1566,242084
1567,242238
1568,242381
1569,242527
1570,242662
1571,242835
1572,243021
1573,243209
1574,243347
1575,243496
1576,243626
1577,243794
1578,243922
1579,244051
1580,244205
1581,244351
1582,244491
1583,244646
1584,244820
1585,244958
1586,245092
1587,245333
1588,245492
1589,245623
1590,245752
1591,245967
1592,246061
1593,246191
1594,246375
1595,246658
1596,246894
1597,247003
1598,247140
1599,247328
1600,247459
1601,247632
1602,247738
1603,247847
1604,247980
1605,248120
1606,248287
1607,248530
1608,248677
1609,248824
1610,249006
1611,249141
1612,249343
1613,249448
1614,249620
1615,249808
1616,249936
1617,250121
1618,250269
1619,250408
1620,250585
1621,250701
1622,250839
1623,250964
1624,251144
1625,251326
1626,251518
1627,251645
1628,251775
1629,251902
1630,252022
1631,252151
1632,252282
1633,252404
1634,252602
1635,252745
1636,252909
1637,253069
1638,253192
1639,253366
1640,253513
1641,253655
1642,253784
1643,253919
1644,254051
1645,254244
1646,254385
1647,254512
1648,254686
1649,254823
1650,254955
1651,255092
1652,255266
1653,255392
1654,255519
1655,255657
1656,255784
1657,255909
1658,256075
1659,256205
1660,256333
1661,256505
1662,256642
1663,256789
1664,256928
1665,257096
1666,257227
1667,257431
1668,257545
1669,257716
1670,257839
1671,258019
1672,258158
1673,258286
1674,258411
1675,258540
1676,258665
1677,258841
1678,258962
1679,259169
1680,259311
1681,259444
1682,259578
1683,259702
1684,259836
1685,259956
1686,260132
1687,260269
1688,260437
1689,260571
1690,260747
1691,260924
1692,261080
1693,261220
1694,261369
1695,261516
1696,261684
1697,261831
1698,262006
1699,262142
1700,262271
1701,262405
1702,262566
1703,262762
1704,262928
1705,263043
1706,263218
1707,263394
1708,263583
1709,263713
1710,263896
1711,264011
1712,264125
1713,264267
1714,264455
1715,264638
1716,264775
1717,264932
1718,265077
1719,265205
1720,265332
1721,265508
1722,265687
1723,265820
1724,265991
1725,266115
1726,266300
1727,266444
1728,266560
1729,266708
1730,266848
1731,267015
1732,267143
1733,267272
1734,267421
1735,267557
1736,267690
1737,267861
1738,267992
1739,268154
1740,268335
1741,268464
1742,268590
1743,268769
1744,268890
1745,269110
1746,269240
1747,269366
1748,269498
1749,269627
1750,269800
1751,269977
1752,270153
1753,270322
1754,270485
1755,270666
1756,270937
1757,271071
1758,271209
1759,271369
1760,271520
1761,271637
1762,271772
1763,271930
1764,272069
1765,272202
1766,272321
1767,272474
1768,272639
1769,272785
1770,272953
1771,273114
1772,273240
1773,273414
1774,273541
1775,273661
1776,273804
1777,273942
1778,274071
1779,274253
1780,274437
1781,274607
1782,274745
1783,274870
1784,275066
1785,275198
1786,275326
1787,275466
1788,275611
1789,275772
1790,275906
1791,276065
1792,276200
1793,276336
1794,276516
1795,276710
1796,276944
1797,277075
1798,277264
1799,277463
1800,277613
1801,277732
1802,277859
1803,277992
1804,278125
1805,278254
1806,278419
1807,278569
1808,278710
1809,278875
1810,279008
1811,279132
1812,279298
1813,279501
1814,279639
1815,279790
1816,279910
1817,280049
1818,280186
1819,280370
1820,280506
1821,280659
1822,280802
1823,280949
1824,281159
1825,281331
1826,281519
1827,281671
1828,281812
1829,281948
1830,282143
1831,282285
1832,282468
1833,282611
1834,282753
1835,282884
1836,283013
1837,283137
1838,283314
1839,283442
1840,283621
1841,283763
1842,284007
1843,284133
1844,284309
1845,284441
1846,284622
1847,284738
1848,284869
1849,285007
1850,285168
1851,285303
1852,285439
1853,285562
1854,285701
1855,285913
1856,286048
1857,286225
1858,286355
1859,286549
1860,286684
1861,286819
1862,286975
1863,287102
1864,287245
1865,287382
1866,287511
1867,287732
1868,287865
1869,287996
1870,288132
1871,288255
1872,288433
1873,288624
1874,288757
1875,288927
1876,289071
1877,289250
1878,289364
1879,289542
1880,289692
1881,289895
1882,289994
1883,290126
1884,290317
1885,290447
1886,290620
1887,290749
1888,290941
1889,291074
1890,291209
1891,291331
1892,291499
1893,291634
1894,291764
1895,291907
1896,292045
1897,292218
1898,292470
1899,292599
1900,292784
1901,292915
1902,293073
1903,293251
1904,293382
1905,293521
1906,293735
1907,293877
1908,294016
1909,294150
1910,294338
1911,294510
1912,294647
1913,294776
1914,294957
1915,295099
1916,295285
1917,295514
1918,295658
1919,295788
1920,295917
1921,296096
1922,296230
1923,296358
1924,296483
1925,296611
1926,296758
1927,296894
1928,297082
1929,297256
1930,297392
1931,297513
1932,297695
1933,297875
1934,298049
1935,298209
1936,298397
1937,298510
1938,298675
1939,298819
1940,298981
1941,299129
1942,299345
1943,299485
1944,299644
1945,299790
1946,299923
1947,300053
1948,300223
1949,300474
1950,300590
1951,300749
1952,300906
1953,301032
1954,301197
1955,301334
1956,301521
1957,301690
1958,301859
1959,302026
1960,302153
1961,302276
1962,302398
1963,302536
1964,302662
1965,302798
1966,302926
1967,303102
1968,303297
1969,303483
1970,303619
1971,303851
1972,303975
1973,304107
1974,304234
1975,304359
1976,304584
1977,304765
1978,304922
1979,305054
1980,305182
1981,305316
1982,305452
1983,305645
1984,305810
1985,305970
1986,306092
1987,306249
1988,306378
1989,306530
1990,306660
1991,306851
1992,306982
1993,307162
1994,307314
1995,307506
1996,307685
1997,307857
1998,307970
1999,308115
2000,308326
2001,308479
2002,308710
2003,308860
2004,309012
2005,309150
2006,309280
2007,309409
2008,309531
2009,309761
2010,309897
2011,310053
2012,310196
2013,310362
2014,310544
2015,310730
2016,310884
2017,311025
2018,311142
2019,311271
2020,311400
2021,311531
2022,311678
2023,311816
2024,311990
2025,312165
2026,312261
2027,312445
2028,312587
2029,312754
2030,312887
2031,313070
2032,313206
2033,313381
2034,313537
2035,313663
2036,313814
2037,313952
2038,314069
2039,314246
2040,314386
2041,314518
2042,314697
2043,314880
2044,315015
2045,315203
2046,315327
2047,315498
2048,315625
2049,315781
2050,315912
2051,316093
2052,316231
2053,316364
2054,316499
2055,316628
2056,316768
2057,316913
2058,317086
2059,317250
2060,317387
2061,317544
2062,317820
2063,317973
2064,318110
2065,318236
2066,318370
2067,318542
2068,318734
2069,318902
2070,319087
2071,319226
2072,319355
2073,319477
2074,319657
2075,319802
2076,319975
2077,320128
2078,320267
2079,320445
2080,320626
2081,320807
2082,320917
2083,321042
2084,321181
2085,321367
2086,321490
2087,321679
2088,321821
2089,321959
2090,322105
2091,322234
2092,322451
2093,322688
2094,322818
2095,322953
2096,323130
2097,323325
2098,323511
2099,323656
2100,323799
2101,323937
2102,324116
2103,324261
2104,324408
2105,324546
2106,324676
2107,324817
2108,324959
2109,325143
2110,325278
2111,325453
2112,325628
2113,325761
2114,325929
2115,326094
2116,326235
2117,326365
2118,326541
2119,326723
2120,326859
2121,327037
2122,327224
2123,327369
2124,327559
2125,327743
2126,327901
2127,328034
2128,328154
2129,328273
2130,328413
2131,328589
2132,328767
2133,328919
2134,329055
2135,329232
2136,329413
2137,329534
2138,329760
2139,329934
2140,330073
2141,330216
2142,330346
2143,330472
2144,330589
2145,330759
2146,330925
2147,331078
2148,331204
2149,331379
2150,331526
2151,331777
2152,331923
2153,332039
2154,332168
2155,332295
2156,332460
2157,332594
2158,332722
2159,332905
2160,333124
2161,333289
2162,333454
2163,333572
2164,333742
2165,333883
2166,334050
2167,334209
2168,334346
2169,334481
2170,334657
2171,334782
2172,334962
2173,335090
2174,335271
2175,335407
2176,335553
2177,335686
2178,335913
2179,336100
2180,336241
2181,336367
2182,336519
2183,336650
2184,336824
2185,336973
2186,337145
2187,337348
2188,337487
2189,337618
2190,337744
2191,337915
2192,338049
2193,338198
2194,338339
2195,338494
2196,338644
2197,338832
2198,338974
2199,339160
2200,339295
2201,339434
2202,339583
2203,339734
2204,339848
2205,339987
2206,340113
2207,340250
2208,340384
2209,340530
2210,340666
2211,340807
2212,340984
2213,341113
2214,341251
2215,341385
2216,341585
2217,341699
2218,341817
2219,341961
2220,342096
2221,342226
2222,342415
2223,342586
2224,342727
2225,342848
2226,342981
2227,343159
2228,343338
2229,343475
2230,343602
2231,343835
2232,343958
2233,344131
2234,344264
2235,344459
2236,344593
2237,344765
2238,344911
2239,345037
2240,345159
2241,345294
2242,345507
2243,345649
2244,345759
2245,345877
2246,346015
2247,346167
2248,346299
2249,346473
2250,346612
2251,346795
2252,347008
2253,347130
2254,347257
2255,347453
2256,347590
2257,347778
2258,347919
2259,348056
2260,348252
2261,348460
2262,348660
2263,348783
2264,348949
2265,349112
2266,349237
2267,349355
2268,349526
2269,349710
2270,349926
2271,350066
2272,350197
2273,350320
2274,350455
2275,350590
2276,350774
2277,351098
2278,351281
2279,351455
2280,351644
2281,351831
2282,351958
2283,352102
2284,352232
2285,352355
2286,352482
2287,352670
2288,352830
2289,352974
2290,353108
2291,353209
2292,353337
2293,353477
2294,353594
2295,353783
2296,354020
2297,354210
2298,354404
2299,354529
2300,354714
2301,354852
2302,355036
2303,355171
2304,355301
2305,355427
2306,355551
2307,355727
