,0
0,60
1,168
2,282
3,403
4,571
5,725
6,874
7,1015
8,1124
9,1236
10,1340
11,1457
12,1588
13,1717
14,1843
15,1977
16,2096
17,2230
18,2362
19,2523
20,2654
21,2754
22,2893
23,3009
24,3138
25,3270
26,3387
27,3501
28,3619
29,3737
30,3843
31,3994
32,4102
33,4241
34,4348
35,4463
36,4589
37,4740
38,4862
39,4985
40,5107
41,5223
42,5348
43,5460
44,5590
45,5761
46,5885
47,6013
48,6137
49,6240
50,6340
51,6458
52,6576
53,6744
54,6895
55,7069
56,7225
57,7424
58,7549
59,7671
60,7779
61,7902
62,8014
63,8140
64,8269
65,8389
66,8550
67,8681
68,8808
69,8929
70,9029
71,9148
72,9276
73,9383
74,9501
75,9631
76,9748
77,9864
78,9988
79,10109
80,10231
81,10352
82,10480
83,10611
84,10749
85,10868
86,10994
87,11120
88,11258
89,11387
90,11541
91,11652
92,11763
93,11883
94,12025
95,12151
96,12257
97,12376
98,12504
99,12609
100,12722
101,12840
102,12948
103,13070
104,13186
105,13300
106,13417
107,13530
108,13637
109,13815
110,13973
111,14104
112,14245
113,14394
114,14514
115,14646
116,14759
117,14871
118,15001
119,15104
120,15231
121,15368
122,15518
123,15632
124,15753
125,15865
126,15980
127,16099
128,16213
129,16330
130,16444
131,16561
132,16689
133,16809
134,16925
135,17037
136,17171
137,17283
138,17407
139,17514
140,17631
141,17758
142,17873
143,17983
144,18107
145,18224
146,18349
147,18502
148,18628
149,18831
150,19011
151,19206
152,19306
153,19451
154,19588
155,19794
156,19931
157,20044
158,20174
159,20315
160,20468
161,20594
162,20722
163,20835
164,20940
165,21059
166,21178
167,21295
168,21398
169,21505
170,21640
171,21777
172,21924
173,22050
174,22182
175,22338
176,22491
177,22605
178,22727
179,22900
180,23020
181,23148
182,23253
183,23390
184,23512
185,23636
186,23784
187,23922
188,24047
189,24167
190,24302
191,24425
192,24527
193,24652
194,24772
195,24909
196,25032
197,25149
198,25272
199,25422
200,25540
201,25737
202,25901
203,25998
204,26121
205,26286
206,26421
207,26556
208,26685
209,26815
210,26926
211,27065
212,27186
213,27335
214,27486
215,27698
216,27867
217,28001
218,28156
219,28293
220,28452
221,28626
222,28784
223,28922
224,29039
225,29156
226,29298
227,29470
228,29628
229,29767
230,29933
231,30060
232,30170
233,30290
234,30395
235,30501
236,30621
237,30735
238,30853
239,30992
240,31099
241,31195
242,31317
243,31428
244,31562
245,31687
246,31806
247,32067
248,32169
249,32332
250,32433
251,32596
252,32784
253,32904
254,33040
255,33159
256,33276
257,33428
258,33548
259,33663
260,33770
261,33951
262,34072
263,34188
264,34283
265,34437
266,34576
267,34696
268,34809
269,34943
270,35038
271,35145
272,35246
273,35373
274,35509
275,35635
276,35768
277,35904
278,36030
279,36175
280,36317
281,36436
282,36548
283,36658
284,36773
285,36894
286,37027
287,37168
288,37294
289,37461
290,37575
291,37781
292,37922
293,38057
294,38225
295,38368
296,38478
297,38624
298,38740
299,38859
300,38965
301,39098
302,39202
303,39322
304,39461
305,39594
306,39728
307,39841
308,39956
309,40071
310,40205
311,40385
312,40548
313,40681
314,40812
315,40948
316,41089
317,41208
318,41308
319,41449
320,41571
321,41757
322,41942
323,42075
324,42199
325,42309
326,42430
327,42578
328,42730
329,42864
330,42979
331,43098
332,43254
333,43370
334,43490
335,43603
336,43716
337,43849
338,43963
339,44086
340,44195
341,44321
342,44440
343,44554
344,44665
345,44777
346,44885
347,45008
348,45139
349,45247
350,45355
351,45490
352,45637
353,45775
354,45892
355,46019
356,46133
357,46263
358,46424
359,46543
360,46664
361,46783
362,46901
363,47014
364,47146
365,47257
366,47362
367,47479
368,47608
369,47711
370,47807
371,47984
372,48109
373,48278
374,48430
375,48588
376,48790
377,48900
378,49008
379,49147
380,49294
381,49423
382,49584
383,49713
384,49835
385,49966
386,50075
387,50187
388,50308
389,50430
390,50535
391,50656
392,50771
393,50877
394,50983
395,51102
396,51227
397,51346
398,51457
399,51554
400,51673
401,51802
402,51929
403,52099
404,52226
405,52344
406,52503
407,52642
408,52818
409,52982
410,53094
411,53189
412,53312
413,53433
414,53559
415,53679
416,53836
417,53965
418,54154
419,54362
420,54483
421,54602
422,54717
423,54832
424,54959
425,55073
426,55200
427,55358
428,55472
429,55595
430,55730
431,55872
432,55990
433,56108
434,56228
435,56558
436,56689
437,56805
438,56966
439,57099
440,57203
441,57326
442,57456
443,57588
444,57715
445,57837
446,57975
447,58101
448,58253
449,58379
450,58580
451,58725
452,58872
453,58991
454,59104
455,59234
456,59361
457,59526
458,59667
459,59801
460,59943
461,60056
462,60241
463,60398
464,60532
465,60651
466,60805
467,60938
468,61044
469,61203
470,61383
471,61501
472,61660
473,61804
474,61940
475,62076
476,62224
477,62344
478,62468
479,62585
480,62686
481,62812
482,62917
483,63028
484,63158
485,63284
486,63392
487,63508
488,63618
489,63735
490,63860
491,63987
492,64149
493,64299
494,64419
495,64537
496,64659
497,64758
498,64935
499,65044
500,65151
501,65257
502,65360
503,65466
504,65570
505,65681
506,65786
507,65930
508,66066
509,66196
510,66337
511,66474
512,66630
513,66761
514,66880
515,67000
516,67151
517,67299
518,67446
519,67578
520,67712
521,67861
522,67980
523,68088
524,68192
525,68302
526,68417
527,68546
528,68655
529,68768
530,68879
531,68999
532,69116
533,69277
534,69399
535,69539
536,69668
537,69791
538,69913
539,70019
540,70144
541,70280
542,70479
543,70630
544,70748
545,70874
546,71013
547,71139
548,71301
549,71424
550,71572
551,71755
552,71884
553,72024
554,72215
555,72351
556,72478
557,72608
558,72726
559,72857
560,73023
561,73170
562,73295
563,73422
564,73592
565,73774
566,73896
567,74012
568,74130
569,74234
570,74421
571,74594
572,74714
573,74864
574,74973
575,75091
576,75257
577,75360
578,75463
579,75576
580,75684
581,75806
582,75961
583,76099
584,76215
585,76364
586,76499
587,76655
588,76813
589,76953
590,77061
591,77175
592,77391
593,77547
594,77674
595,77795
596,77907
597,78021
598,78133
599,78261
600,78386
601,78545
602,78684
603,78828
604,78949
605,79074
606,79233
607,79429
608,79582
609,79703
610,79837
611,79970
612,80093
613,80205
614,80317
615,80426
616,80592
617,80732
618,80839
619,80980
620,81083
621,81206
622,81367
623,81480
624,81597
625,81767
626,81908
627,82025
628,82143
629,82265
630,82372
631,82484
632,82617
633,82782
634,82928
635,83059
636,83192
637,83317
638,83452
639,83566
640,83789
641,83915
642,84097
643,84222
644,84339
645,84444
646,84562
647,84670
648,84784
649,84928
650,85076
651,85198
652,85310
653,85414
654,85533
655,85646
656,85756
657,85880
658,86037
659,86158
660,86277
661,86390
662,86541
663,86724
664,86845
665,86969
666,87072
667,87197
668,87315
669,87429
670,87604
671,87739
672,87858
673,87959
674,88079
675,88201
676,88331
677,88488
678,88613
679,88726
680,88841
681,88947
682,89125
683,89301
684,89467
685,89589
686,89700
687,89824
688,89977
689,90127
690,90271
691,90393
692,90520
693,90651
694,90796
695,90928
696,91045
697,91169
698,91295
699,91477
700,91605
701,91738
702,91855
703,92005
704,92125
705,92254
706,92416
707,92554
708,92685
709,92836
710,92958
711,93070
712,93267
713,93384
714,93517
715,93678
716,93838
717,93951
718,94068
719,94230
720,94353
721,94464
722,94657
723,94777
724,94901
725,95022
726,95130
727,95262
728,95394
729,95528
730,95682
731,95796
732,95916
733,96041
734,96202
735,96326
736,96441
737,96555
738,96678
739,96799
740,96924
741,97026
742,97193
743,97368
744,97500
745,97621
746,97737
747,97840
748,97951
749,98070
750,98173
751,98292
752,98423
753,98557
754,98675
755,98885
756,99070
757,99189
758,99339
759,99503
760,99633
761,99764
762,99876
763,100032
764,100172
765,100284
766,100386
767,100550
768,100675
769,100791
770,100926
771,101075
772,101191
773,101313
774,101429
775,101542
776,101672
777,101810
778,101937
779,102062
780,102174
781,102304
782,102418
783,102534
784,102663
785,102804
786,102932
787,103095
788,103213
789,103323
790,103442
791,103565
792,103695
793,103839
794,103965
795,104110
796,104227
797,104349
798,104465
799,104582
800,104698
801,104821
802,104943
803,105098
804,105213
805,105335
806,105484
807,105607
808,105727
809,105846
810,105951
811,106073
812,106178
813,106330
814,106449
815,106593
816,106738
817,106858
818,107045
819,107182
820,107304
821,107449
822,107569
823,107691
824,107810
825,107927
826,108029
827,108137
828,108235
829,108333
830,108524
831,108649
832,108771
833,108881
834,109011
835,109174
836,109298
837,109452
838,109569
839,109688
840,109792
841,109888
842,109998
843,110132
844,110292
845,110419
846,110531
847,110648
848,110775
849,110927
850,111046
851,111205
852,111350
853,111477
854,111596
855,111708
856,111882
857,111998
858,112100
859,112226
860,112377
861,112504
862,112607
863,112733
864,112851
865,113025
866,113145
867,113334
868,113494
869,113615
870,113731
871,113846
872,113966
873,114117
874,114231
875,114336
876,114446
877,114560
878,114662
879,114781
880,114890
881,115005
882,115125
883,115268
884,115390
885,115555
886,115663
887,115778
888,115942
889,116101
890,116221
891,116366
892,116518
893,116641
894,116765
895,116902
896,117091
897,117211
898,117345
899,117506
900,117640
901,117769
902,117890
903,118012
904,118120
905,118234
906,118344
907,118465
908,118637
909,118803
910,118928
911,119039
912,119202
913,119309
914,119421
915,119602
916,119738
917,119854
918,119973
919,120124
920,120253
921,120370
922,120493
923,120618
924,120780
925,120898
926,120996
927,121111
928,121225
929,121344
930,121452
931,121560
932,121671
933,121784
934,121900
935,122041
936,122180
937,122316
938,122436
939,122567
940,122732
941,122870
942,122984
943,123118
944,123233
945,123348
946,123493
947,123611
948,123727
949,123858
950,123983
951,124098
952,124231
953,124352
954,124506
955,124673
956,124842
957,124960
958,125065
959,125192
960,125306
961,125465
962,125590
963,125707
964,125830
965,125932
966,126039
967,126157
968,126309
969,126450
970,126608
971,126718
972,126851
973,126968
974,127076
975,127238
976,127352
977,127459
978,127558
979,127676
980,127794
981,127926
982,128026
983,128201
984,128354
985,128470
986,128582
987,128684
988,128865
989,128978
990,129091
991,129193
992,129315
993,129436
994,129597
995,129715
996,129881
997,129991
998,130111
999,130237
1000,130358
1001,130465
1002,130582
1003,130684
1004,130799
1005,130911
1006,131069
1007,131223
1008,131353
1009,131476
1010,131603
1011,131751
1012,131905
1013,132059
1014,132169
1015,132351
1016,132468
1017,132578
1018,132704
1019,132850
1020,132975
1021,133134
1022,133247
1023,133356
1024,133464
1025,133573
1026,133692
1027,133802
1028,133914
1029,134063
1030,134191
1031,134343
1032,134459
1033,134575
1034,134696
1035,134845
1036,134986
1037,135095
1038,135204
1039,135327
1040,135431
1041,135548
1042,135649
1043,135769
1044,135916
1045,136027
1046,136135
1047,136305
1048,136426
1049,136550
1050,136681
1051,136795
1052,136907
1053,137017
1054,137120
1055,137288
1056,137408
1057,137523
1058,137638
1059,137777
1060,137926
1061,138135
1062,138268
1063,138401
1064,138554
1065,138686
1066,138794
1067,138922
1068,139107
1069,139218
1070,139345
1071,139509
1072,139633
1073,139750
1074,139870
1075,139970
1076,140090
1077,140216
1078,140335
1079,140462
1080,140579
1081,140691
1082,140802
1083,140977
1084,141211
1085,141311
1086,141409
1087,141543
1088,141654
1089,141777
1090,141899
1091,142015
1092,142125
1093,142241
1094,142363
1095,142515
1096,142616
1097,142733
1098,142852
1099,142960
1100,143147
1101,143262
1102,143430
1103,143538
1104,143654
1105,143768
1106,143946
1107,144077
1108,144237
1109,144348
1110,144480
1111,144634
1112,144750
1113,144860
1114,144984
1115,145123
1116,145253
1117,145367
1118,145552
1119,145686
1120,145808
1121,145925
1122,146065
1123,146164
1124,146295
1125,146463
1126,146567
1127,146675
1128,146788
1129,146928
1130,147049
1131,147190
1132,147333
1133,147441
1134,147589
1135,147714
1136,147821
1137,147927
1138,148106
1139,148228
1140,148361
1141,148550
1142,148729
1143,148854
1144,148975
1145,149071
1146,149173
1147,149300
1148,149408
1149,149521
1150,149630
1151,149740
1152,149897
1153,150004
1154,150118
1155,150262
1156,150387
1157,150551
1158,150740
1159,150867
1160,150988
1161,151135
1162,151264
1163,151369
1164,151502
1165,151673
1166,151810
1167,151929
1168,152031
1169,152141
1170,152304
1171,152437
1172,152580
1173,152701
1174,152800
1175,152901
1176,153027
1177,153251
1178,153407
1179,153527
1180,153647
1181,153788
1182,153903
1183,154027
1184,154155
1185,154291
1186,154408
1187,154533
1188,154658
1189,154800
1190,154915
1191,155025
1192,155132
1193,155244
1194,155385
1195,155516
1196,155668
1197,155769
1198,155870
1199,155973
1200,156072
1201,156180
1202,156293
1203,156441
1204,156549
1205,156663
1206,156772
1207,156948
1208,157118
1209,157278
1210,157435
1211,157556
1212,157686
1213,157809
1214,157923
1215,158075
1216,158169
1217,158276
1218,158389
1219,158497
1220,158602
1221,158759
1222,158909
1223,159087
1224,159220
1225,159346
1226,159485
1227,159614
1228,159800
1229,159913
1230,160031
1231,160204
1232,160351
1233,160473
1234,160618
1235,160741
1236,160876
1237,160988
1238,161128
1239,161232
1240,161344
1241,161463
1242,161583
1243,161698
1244,161801
1245,162459
1246,162585
1247,162718
1248,162833
1249,162988
1250,163110
1251,163220
1252,163333
1253,163446
1254,163582
1255,163745
1256,163865
1257,164039
1258,164177
1259,164307
1260,164478
1261,164597
1262,164699
1263,164820
1264,164928
1265,165034
1266,165146
1267,165271
1268,165399
1269,165518
1270,165664
1271,165777
1272,165893
1273,166019
1274,166175
1275,166304
1276,166460
1277,166586
1278,166733
1279,166833
1280,166942
1281,167104
1282,167226
1283,167409
1284,167525
1285,167642
1286,167764
1287,167883
1288,167987
1289,168132
1290,168269
1291,168388
1292,168524
1293,168652
1294,168788
1295,168949
1296,169081
1297,169195
1298,169310
1299,169408
1300,169514
1301,169624
1302,169735
1303,169859
1304,169965
1305,170112
1306,170225
1307,170332
1308,170468
1309,170594
1310,170720
1311,170879
1312,170986
1313,171136
1314,171261
1315,171369
1316,171565
1317,171688
1318,171846
1319,171968
1320,172091
1321,172220
1322,172340
1323,172479
1324,172602
1325,172712
1326,172810
1327,172912
1328,173019
1329,173152
1330,173282
1331,173404
1332,173569
1333,173721
1334,173850
1335,173992
1336,174111
1337,174225
1338,174328
1339,174433
1340,174563
1341,174687
1342,174850
1343,174973
1344,175103
1345,175235
1346,175352
1347,175455
1348,175583
1349,175712
1350,175837
1351,175946
1352,176073
1353,176198
1354,176313
1355,176436
1356,176583
1357,176705
1358,176808
1359,177025
1360,177144
1361,177309
1362,177420
1363,177635
1364,177741
1365,177910
1366,178054
1367,178216
1368,178376
1369,178521
1370,178650
1371,178850
1372,178966
1373,179077
1374,179198
1375,179319
1376,179432
1377,179551
1378,179667
1379,179831
1380,179996
1381,180126
1382,180265
1383,180403
1384,180535
1385,180660
1386,180757
1387,180864
1388,180981
1389,181104
1390,181220
1391,181336
1392,181446
1393,181552
1394,181655
1395,181776
1396,181888
1397,182029
1398,182141
1399,182248
1400,182355
1401,182462
1402,182574
1403,182676
1404,182778
1405,182919
1406,183052
1407,183169
1408,183301
1409,183444
1410,183568
1411,183675
1412,183782
1413,183949
1414,184109
1415,184230
1416,184342
1417,184464
1418,184569
1419,184739
1420,184895
1421,185007
1422,185128
1423,185234
1424,185406
1425,185538
1426,185643
1427,185768
1428,185931
1429,186040
1430,186209
1431,186313
1432,186415
1433,186517
1434,186645
1435,186745
1436,186865
1437,186992
1438,187098
1439,187201
1440,187302
1441,187405
1442,187544
1443,187664
1444,187775
1445,187889
1446,188002
1447,188167
1448,188319
1449,188422
1450,188539
1451,188649
1452,188758
1453,188870
1454,188997
1455,189118
1456,189229
1457,189350
1458,189464
1459,189617
1460,189738
1461,189884
1462,189969
1463,190015
1464,190160
1465,190297
1466,190427
1467,190543
1468,190688
1469,190797
1470,190905
1471,191039
1472,191147
1473,191267
1474,191375
1475,191494
1476,191695
1477,191811
1478,192012
1479,192189
1480,192310
1481,192417
1482,192531
1483,192699
1484,192935
1485,193061
1486,193175
1487,193285
1488,193414
1489,193578
1490,193690
1491,193854
1492,194020
1493,194128
1494,194239
1495,194449
1496,194579
1497,194699
1498,194822
1499,194938
1500,195071
1501,195221
1502,195333
1503,195551
1504,195688
1505,195858
1506,195995
1507,196151
1508,196285
1509,196396
1510,196512
1511,196625
1512,196735
1513,196849
1514,196984
1515,197125
1516,197255
1517,197372
1518,197523
1519,197651
1520,197768
1521,197888
1522,198011
1523,198120
1524,198227
1525,198329
1526,198461
1527,198565
1528,198663
1529,198777
1530,198917
1531,199021
1532,199130
1533,199310
1534,199411
1535,199519
1536,199633
1537,199832
1538,199953
1539,200065
1540,200203
1541,200361
1542,200498
1543,200652
1544,200765
1545,200882
1546,201026
1547,201186
1548,201301
1549,201419
1550,201536
1551,201683
1552,201825
1553,201946
1554,202076
1555,202224
1556,202389
1557,202535
1558,202659
1559,202763
1560,202864
1561,202982
1562,203108
1563,203209
1564,203337
1565,203470
1566,203588
1567,203707
1568,203869
1569,203985
1570,204105
1571,204224
1572,204374
1573,204499
1574,204620
1575,204740
1576,204847
1577,204970
1578,205093
1579,205249
1580,205379
1581,205491
1582,205618
1583,205727
1584,205828
1585,205940
1586,206047
1587,206162
1588,206269
1589,206378
1590,206535
1591,206635
1592,206733
1593,206838
1594,207032
1595,207146
1596,207299
1597,207415
1598,207535
1599,207635
1600,207751
1601,207892
1602,208056
1603,208168
1604,208271
1605,208366
1606,208467
1607,208571
1608,208689
1609,208821
1610,208932
1611,209068
1612,209174
1613,209279
1614,209422
1615,209571
1616,209705
1617,209814
1618,209931
1619,210072
1620,210210
1621,210335
1622,210441
1623,210548
1624,210651
1625,210784
1626,210999
1627,211126
1628,211229
1629,211335
1630,211485
1631,211605
1632,211715
1633,211846
1634,211952
1635,212059
1636,212192
1637,212311
1638,212423
1639,212609
1640,212737
1641,212904
1642,213017
1643,213147
1644,213275
1645,213401
1646,213520
1647,213633
1648,213743
1649,213910
1650,214036
1651,214173
1652,214293
1653,214402
1654,214505
1655,214618
1656,214755
1657,214901
1658,215020
1659,215148
1660,215272
1661,215381
1662,215492
1663,215606
1664,215734
1665,215851
1666,215969
1667,216087
1668,216203
1669,216314
1670,216407
1671,216518
1672,216618
1673,216717
1674,216819
1675,216950
1676,217076
1677,217189
1678,217336
1679,217480
1680,217602
1681,217714
1682,217865
1683,218022
1684,218126
1685,218237
1686,218345
1687,218448
1688,218550
1689,218659
1690,218769
1691,218871
1692,219004
1693,219117
1694,219211
1695,219310
1696,219409
1697,219559
1698,219705
1699,219831
1700,219972
1701,220082
1702,220186
1703,220331
1704,220426
1705,220540
1706,220696
1707,220803
1708,220974
1709,221100
1710,221200
1711,221303
1712,221409
1713,221524
1714,221632
1715,221729
1716,221857
1717,221967
1718,222070
1719,222173
1720,222283
1721,222404
1722,222542
1723,222661
1724,222790
1725,222952
1726,223055
1727,223162
1728,223273
1729,223386
1730,223493
1731,223592
1732,223682
1733,223805
1734,223923
1735,224073
1736,224190
1737,224333
1738,224462
1739,224568
1740,224672
1741,224786
1742,224932
1743,225049
1744,225158
1745,225275
1746,225387
1747,225506
1748,225680
1749,225781
1750,225923
1751,226033
1752,226150
1753,226321
1754,226438
1755,226591
1756,226737
1757,226877
1758,226986
1759,227104
1760,227223
1761,227325
1762,227530
1763,227633
1764,227734
1765,227840
1766,227944
1767,228050
1768,228147
1769,228252
1770,228367
1771,228502
1772,228656
1773,228775
1774,228866
1775,228970
1776,229074
1777,229185
1778,229301
1779,229484
1780,229589
1781,229711
1782,229837
1783,229960
1784,230074
1785,230190
1786,230302
1787,230445
1788,230574
1789,230696
1790,230808
1791,230912
1792,231016
1793,231126
1794,231231
1795,231343
1796,231522
1797,231620
1798,231724
1799,231828
1800,231919
1801,232023
1802,232135
1803,232240
1804,232387
1805,232491
1806,232590
1807,232700
1808,232861
1809,232975
1810,233079
1811,233173
1812,233268
1813,233359
1814,233452
1815,233550
1816,233654
1817,233795
1818,233909
1819,234012
1820,234116
1821,234255
1822,234374
1823,234549
1824,234655
1825,234770
1826,234885
1827,235023
1828,235132
1829,235226
1830,235360
1831,235465
1832,235565
1833,235718
1834,235850
1835,235963
1836,236129
1837,236237
1838,236376
1839,236491
1840,236596
1841,236714
1842,236839
1843,236935
1844,237049
1845,237193
1846,237306
1847,237412
1848,237568
1849,237722
1850,237891
1851,237991
1852,238089
1853,238187
1854,238375
1855,238515
1856,238656
1857,238773
1858,238879
1859,239042
1860,239153
1861,239250
1862,239383
1863,239534
1864,239653
1865,239830
1866,239985
1867,240113
1868,240238
1869,240346
1870,240468
1871,240612
1872,240758
1873,240871
1874,240992
1875,241110
1876,241258
1877,241388
1878,241529
1879,241643
1880,241796
1881,241927
1882,242025
1883,242164
1884,242346
1885,242459
1886,242568
1887,242683
1888,242865
1889,242983
1890,243104
1891,243257
1892,243376
1893,243493
1894,243618
1895,243728
1896,243847
1897,243982
1898,244086
1899,244196
1900,244310
1901,244425
1902,244540
1903,244637
1904,244799
1905,244941
1906,245059
1907,245203
1908,245321
1909,245447
1910,245582
1911,245678
1912,245787
1913,245904
1914,246017
1915,246176
1916,246296
1917,246466
1918,246627
1919,246744
1920,246851
1921,246965
1922,247082
1923,247177
1924,247287
1925,247458
1926,247583
1927,247693
1928,247856
1929,247962
1930,248065
1931,248164
1932,248309
1933,248446
1934,248552
1935,248638
1936,248741
1937,248855
1938,248966
1939,249071
1940,249182
1941,249308
1942,249455
1943,249577
1944,249693
1945,249855
1946,249965
1947,250102
1948,250238
1949,250360
1950,250503
1951,250620
1952,250736
1953,250871
1954,251012
1955,251119
1956,251245
1957,251362
1958,251488
1959,251617
1960,251747
1961,251880
1962,251994
1963,252154
1964,252262
1965,252383
1966,252512
1967,252617
1968,252718
1969,252866
1970,253038
1971,253197
1972,253323
1973,253421
1974,253540
1975,253656
1976,253803
1977,253908
1978,254024
1979,254130
1980,254239
1981,254350
1982,254462
1983,254589
1984,254703
1985,254874
1986,254992
1987,255097
1988,255218
1989,255328
1990,255460
1991,255583
1992,255694
1993,255750
1994,255801
1995,255902
1996,256006
1997,256106
1998,256240
1999,256368
2000,256502
2001,256632
2002,256771
2003,256885
2004,256989
2005,257102
2006,257210
2007,257317
2008,257432
2009,257554
2010,257669
2011,257839
2012,257951
2013,258063
2014,258237
2015,258357
2016,258463
2017,258579
2018,258751
2019,258863
2020,259007
2021,259123
2022,259245
2023,259365
2024,259536
2025,259635
2026,259763
2027,259901
2028,260010
2029,260124
2030,260232
2031,260346
2032,260470
2033,260605
2034,260733
2035,260861
2036,260962
2037,261068
2038,261263
2039,261379
2040,261478
2041,261578
2042,261670
2043,261784
2044,261890
2045,262014
2046,262130
2047,262267
2048,262419
2049,262560
2050,262704
2051,262854
2052,262960
2053,263065
2054,263254
2055,263364
2056,263485
2057,263600
2058,263730
2059,263873
2060,263996
2061,264097
2062,264202
2063,264306
2064,264420
2065,264517
2066,264634
2067,264779
2068,264889
2069,265000
2070,265126
2071,265259
2072,265370
2073,265521
2074,265633
2075,265736
2076,265848
2077,265955
2078,266055
2079,266158
2080,266267
2081,266376
2082,266500
2083,266601
2084,266717
2085,266809
2086,266908
2087,267019
2088,267134
2089,267241
2090,267344
2091,267492
2092,267611
2093,267736
2094,267875
2095,268019
2096,268176
2097,268291
2098,268401
2099,268502
2100,268619
2101,268720
2102,268835
2103,268981
2104,269122
2105,269268
2106,269383
2107,269487
2108,269592
2109,269720
2110,269855
2111,269962
2112,270085
2113,270193
2114,270310
2115,270446
2116,270570
2117,270686
2118,270815
2119,270926
2120,271061
2121,271225
2122,271382
2123,271497
2124,271652
2125,271756
2126,271855
2127,272004
2128,272128
2129,272234
2130,272330
2131,272476
2132,272592
2133,272701
2134,272820
2135,272930
2136,273056
2137,273148
2138,273240
2139,273339
2140,273441
2141,273543
2142,273649
2143,273818
2144,273927
2145,274042
2146,274167
2147,274276
2148,274381
2149,274501
2150,274650
2151,274781
2152,274887
2153,275034
2154,275141
2155,275255
2156,275375
2157,275492
2158,275600
2159,275717
2160,275835
2161,275946
2162,276082
2163,276182
2164,276282
2165,276384
2166,276479
2167,276579
2168,276722
2169,276849
2170,276969
2171,277077
2172,277231
2173,277359
2174,277504
2175,277625
2176,277737
2177,277853
2178,277963
2179,278064
2180,278171
2181,278282
2182,278456
2183,278613
2184,278755
2185,278904
2186,279015
2187,279127
2188,279226
2189,279338
2190,279454
2191,279558
2192,279666
2193,279781
2194,279876
2195,279986
2196,280115
2197,280236
2198,280373
2199,280508
2200,280624
2201,280754
2202,280893
2203,281015
2204,281124
2205,281229
2206,281329
2207,281447
2208,281606
2209,281721
2210,281827
2211,281940
2212,282097
2213,282228
2214,282353
2215,282494
2216,282605
2217,282727
2218,282859
2219,283006
2220,283113
2221,283260
2222,283375
2223,283533
2224,283632
2225,283733
2226,283834
2227,284031
2228,284171
2229,284277
2230,284383
2231,284497
2232,284611
2233,284706
2234,284801
2235,284897
2236,285009
2237,285122
2238,285261
2239,285382
2240,285474
2241,285581
2242,285704
2243,285827
2244,285923
2245,286025
2246,286133
2247,286233
2248,286333
2249,286485
2250,286593
2251,286694
2252,286790
2253,286904
2254,286994
2255,287110
2256,287221
2257,287358
2258,287487
2259,287600
2260,287756
2261,287864
2262,288008
2263,288139
2264,288251
2265,288398
2266,288605
2267,288748
2268,288882
2269,289024
2270,289139
2271,289252
2272,289369
2273,289476
2274,289579
2275,289683
2276,289791
2277,289893
2278,290014
2279,290124
2280,290224
2281,290321
2282,290415
2283,290516
2284,290610
2285,290711
2286,290811
2287,290933
2288,291039
2289,291194
2290,291330
2291,291437
2292,291556
2293,291668
2294,291768
2295,291867
2296,291968
2297,292076
2298,292213
2299,292336
2300,292499
2301,292593
2302,292694
2303,292801
2304,292910
2305,293013
2306,293138
2307,293275
2308,293412
2309,293524
2310,293630
2311,293735
2312,293890
2313,293990
2314,294155
2315,294305
2316,294424
2317,294532
2318,294647
2319,294753
2320,294877
2321,295017
2322,295128
2323,295330
2324,295451
2325,295592
2326,295736
2327,295841
2328,296011
2329,296141
2330,296257
2331,296367
2332,296532
2333,296687
2334,296788
2335,296930
2336,297047
2337,297153
2338,297249
2339,297386
2340,297500
2341,297671
2342,297781
2343,297894
2344,298010
2345,298125
2346,298261
2347,298381
2348,298492
2349,298608
2350,298698
2351,298836
2352,298940
2353,299053
2354,299224
2355,299339
2356,299446
2357,299543
2358,299713
2359,299834
2360,299980
2361,300091
2362,300208
2363,300310
2364,300406
2365,300517
2366,300622
2367,300734
2368,300855
2369,300977
2370,301108
2371,301219
2372,301331
2373,301447
2374,301567
2375,301676
2376,301781
2377,301907
2378,302027
2379,302158
2380,302269
2381,302425
2382,302551
2383,302653
2384,302796
2385,302965
2386,303096
2387,303203
2388,303307
2389,303427
2390,303556
2391,303673
2392,303782
2393,303887
2394,303994
2395,304107
2396,304215
2397,304335
2398,304438
2399,304546
2400,304653
2401,304769
2402,304921
2403,305037
2404,305145
2405,305291
2406,305403
2407,305515
2408,305626
2409,305732
2410,305848
2411,305972
2412,306085
2413,306200
2414,306352
2415,306505
2416,306659
2417,306771
2418,306883
2419,307035
2420,307149
2421,307257
2422,307365
2423,307465
2424,307571
2425,307673
2426,307788
2427,307912
2428,308020
2429,308134
2430,308244
2431,308341
2432,308456
2433,308572
2434,308677
2435,308786
2436,308890
2437,308994
2438,309090
2439,309193
2440,309297
2441,309409
2442,309515
2443,309628
2444,309778
2445,309907
2446,310038
2447,310182
2448,310300
2449,310429
2450,310544
2451,310644
2452,310805
2453,310914
2454,311031
2455,311139
2456,311293
2457,311401
2458,311513
2459,311635
2460,311773
2461,311880
2462,311981
2463,312096
2464,312202
2465,312316
2466,312456
2467,312566
2468,312714
2469,312819
2470,312921
2471,313015
2472,313107
2473,313203
2474,313308
2475,313375
2476,313426
2477,313561
2478,313662
2479,313891
2480,314029
2481,314185
2482,314303
2483,314450
2484,314558
2485,314665
2486,314772
2487,314880
2488,314977
2489,315068
2490,315198
2491,315331
2492,315441
2493,315545
2494,315653
2495,315768
2496,315934
2497,316067
2498,316220
2499,316336
2500,316452
2501,316615
2502,316755
2503,316871
2504,316970
2505,317070
2506,317176
2507,317340
2508,317446
2509,317552
2510,317661
2511,317774
2512,317890
2513,317990
2514,318172
2515,318313
2516,318420
2517,318524
2518,318629
2519,318736
2520,318877
2521,319010
2522,319140
2523,319276
2524,319384
2525,319480
2526,319605
2527,319734
2528,319836
2529,319965
2530,320090
2531,320206
2532,320323
2533,320451
2534,320557
2535,320652
2536,320786
2537,320901
2538,321002
2539,321093
2540,321195
2541,321314
2542,321460
2543,321575
2544,321749
2545,321898
2546,322039
2547,322173
2548,322281
2549,322415
2550,322546
2551,322717
2552,322831
2553,322944
2554,323092
2555,323210
2556,323313
2557,323430
2558,323550
2559,323661
2560,323860
2561,323967
2562,324068
2563,324234
2564,324332
2565,324433
2566,324611
2567,324752
2568,324882
2569,324991
2570,325097
2571,325199
2572,325310
2573,325455
2574,325589
2575,325701
2576,325804
2577,325922
2578,326041
2579,326145
2580,326247
2581,326443
2582,326580
2583,326708
2584,326803
2585,326923
2586,327056
2587,327152
2588,327251
2589,327367
2590,327473
2591,327589
2592,327726
2593,327873
2594,327994
2595,328130
2596,328292
2597,328407
2598,328517
2599,328629
2600,328739
2601,328846
2602,329011
2603,329109
2604,329214
2605,329336
2606,329477
2607,329591
2608,329705
2609,329808
2610,329929
2611,330037
2612,330196
2613,330332
2614,330481
2615,330626
2616,330738
2617,330855
2618,330994
2619,331112
2620,331245
2621,331367
2622,331467
2623,331582
2624,331693
2625,331801
2626,331897
2627,331996
2628,332095
2629,332199
2630,332318
2631,332425
2632,332529
2633,332637
2634,332743
2635,332850
2636,332957
2637,333060
2638,333182
2639,333293
2640,333403
2641,333532
2642,333720
2643,333872
2644,334024
2645,334145
2646,334259
2647,334371
2648,334496
2649,334605
2650,334707
2651,334896
2652,335041
2653,335163
2654,335275
2655,335387
2656,335550
2657,335730
2658,335841
2659,335990
2660,336101
2661,336254
2662,336386
2663,336498
2664,336645
2665,336773
2666,336911
2667,337038
2668,337153
2669,337300
2670,337407
2671,337511
2672,337623
2673,337739
2674,337853
2675,337960
2676,338092
2677,338194
2678,338293
2679,338386
2680,338496
2681,338603
2682,338702
2683,338811
2684,338914
2685,339065
2686,339237
2687,339361
2688,339475
2689,339613
2690,339799
2691,339903
2692,340005
2693,340121
2694,340242
2695,340347
2696,340465
2697,340581
2698,340693
2699,340824
2700,340950
2701,341065
2702,341175
2703,341326
2704,341424
2705,341519
2706,341614
2707,341707
2708,341809
2709,341907
2710,342006
2711,342103
2712,342214
2713,342324
2714,342484
2715,342578
2716,342677
2717,342780
2718,342878
2719,342976
2720,343092
2721,343196
2722,343320
2723,343416
2724,343515
2725,343615
2726,343737
2727,343862
2728,343979
2729,344088
2730,344185
2731,344293
2732,344434
2733,344555
2734,344662
2735,344790
2736,344896
2737,344999
2738,345110
2739,345208
2740,345407
2741,345519
2742,345635
2743,345748
2744,345897
2745,346010
2746,346114
2747,346222
2748,346322
2749,346423
2750,346565
2751,346683
2752,346797
2753,346898
2754,347022
2755,347148
2756,347286
2757,347399
2758,347503
2759,347625
2760,347823
2761,347978
2762,348164
2763,348314
2764,348470
2765,348643
2766,348745
2767,348839
2768,348938
2769,349116
2770,349304
2771,349418
2772,349587
2773,349712
2774,349818
2775,349976
2776,350094
2777,350221
2778,350365
2779,350492
2780,350618
2781,350723
2782,350828
2783,350939
2784,351044
2785,351166
2786,351306
2787,351423
2788,351534
2789,351698
2790,351811
2791,351962
2792,352088
2793,352216
2794,352376
2795,352486
2796,352596
2797,352708
2798,352816
2799,352916
2800,353021
2801,353121
2802,353238
2803,353362
2804,353468
2805,353576
2806,353690
2807,353791
2808,353909
2809,354009
2810,354113
2811,354234
2812,354382
2813,354499
2814,354653
2815,354775
2816,354890
2817,354998
2818,355110
2819,355209
2820,355411
2821,355530
2822,355624
2823,355734
2824,355861
2825,355965
2826,356087
2827,356197
2828,356302
2829,356400
2830,356500
2831,356620
2832,356741
2833,356849
2834,356987
2835,357083
2836,357184
2837,357280
2838,357380
2839,357473
2840,357612
2841,357729
2842,357835
2843,357959
2844,358054
2845,358151
2846,358261
2847,358358
2848,358456
2849,358632
2850,358763
2851,358872
2852,358979
2853,359081
2854,359184
2855,359289
2856,359391
2857,359519
2858,359622
2859,359752
2860,359873
2861,359994
2862,360138
2863,360266
2864,360449
2865,360579
2866,360686
2867,360783
2868,360878
2869,360974
2870,361066
2871,361162
2872,361271
2873,361370
2874,361474
2875,361586
2876,361692
2877,361791
2878,361930
2879,362064
2880,362197
2881,362310
2882,362422
2883,362562
2884,362674
2885,362785
2886,362890
2887,362992
2888,363090
2889,363187
2890,363309
2891,363430
2892,363568
2893,363692
2894,363815
2895,363928
2896,364031
2897,364152
2898,364265
2899,364375
2900,364493
2901,364603
2902,364744
2903,364875
2904,364979
2905,365094
2906,365208
2907,365323
2908,365437
2909,365546
2910,365672
2911,365773
2912,365895
2913,366002
2914,366098
2915,366207
2916,366353
2917,366480
2918,366600
2919,366718
2920,366824
2921,366926
2922,367036
2923,367139
2924,367234
2925,367357
2926,367469
2927,367588
2928,367692
2929,367805
2930,367914
2931,368041
2932,368139
2933,368243
2934,368350
2935,368492
2936,368600
2937,368701
2938,368795
2939,368922
2940,369033
2941,369139
2942,369245
2943,369368
2944,369503
2945,369615
2946,369740
2947,369843
2948,369937
2949,370124
2950,370261
2951,370383
2952,370488
2953,370597
2954,370730
2955,370822
2956,370922
2957,371019
2958,371115
2959,371248
2960,371397
2961,371506
2962,371623
2963,371734
2964,371840
2965,371972
2966,372087
2967,372233
2968,372344
2969,372464
2970,372575
2971,372684
2972,372782
2973,372879
2974,372984
2975,373102
2976,373236
2977,373357
2978,373450
2979,373550
2980,373646
2981,373803
2982,373935
2983,374067
2984,374197
2985,374297
2986,374402
2987,374504
2988,374648
2989,374751
2990,374857
2991,374955
2992,375052
2993,375193
2994,375331
2995,375449
2996,375556
2997,375660
2998,375830
2999,375970
3000,376082
3001,376242
3002,376370
3003,376514
3004,376645
3005,376751
3006,376863
3007,377019
3008,377123
3009,377230
3010,377421
3011,377560
3012,377682
3013,377794
3014,377901
3015,378007
3016,378108
3017,378207
3018,378307
3019,378407
3020,378505
3021,378605
3022,378725
3023,378844
3024,378955
3025,379094
3026,379199
3027,379348
3028,379486
3029,379598
3030,379707
3031,379816
3032,379969
3033,380082
3034,380198
3035,380308
3036,380416
3037,380521
3038,380625
3039,380722
3040,380831
3041,380984
3042,381128
3043,381251
3044,381363
3045,381462
3046,381553
3047,381644
3048,381735
3049,381828
3050,381924
3051,382022
3052,382190
3053,382333
3054,382440
3055,382558
3056,382657
3057,382786
3058,382900
3059,383018
3060,383145
3061,383291
3062,383432
3063,383550
3064,383669
3065,383781
3066,383892
3067,383999
3068,384114
3069,384285
3070,384408
3071,384541
3072,384661
3073,384801
3074,384931
3075,385068
3076,385181
3077,385297
3078,385397
3079,385510
3080,385630
3081,385736
3082,385856
3083,385961
3084,386072
3085,386177
3086,386279
3087,386382
3088,386542
3089,386638
3090,386732
3091,386818
3092,386917
3093,387021
3094,387140
3095,387248
3096,387495
3097,387602
3098,387705
3099,387811
3100,387919
3101,388011
3102,388143
3103,388260
3104,388366
3105,388482
3106,388637
3107,388740
3108,388859
3109,389023
3110,389154
3111,389275
3112,389379
3113,389498
3114,389614
3115,389779
3116,389893
3117,390027
3118,390145
3119,390258
3120,390361
3121,390465
3122,390618
3123,390718
3124,390818
3125,390922
3126,391062
3127,391209
3128,391379
3129,391492
3130,391588
3131,391687
3132,391843
3133,391948
3134,392046
3135,392173
3136,392313
3137,392441
3138,392603
3139,392731
3140,392827
3141,392930
3142,393130
3143,393249
3144,393370
3145,393542
3146,393640
3147,393735
3148,393837
3149,393980
3150,394080
3151,394181
3152,394293
3153,394432
3154,394544
3155,394672
3156,394777
3157,394873
3158,394977
3159,395138
3160,395277
3161,395394
3162,395516
3163,395633
3164,395751
3165,395859
3166,395969
3167,396068
3168,396179
3169,396266
3170,396374
3171,396473
3172,396577
3173,396678
3174,396834
3175,396966
3176,397066
3177,397173
3178,397274
3179,397381
3180,397482
3181,397589
3182,397707
3183,397799
3184,397900
3185,397999
3186,398107
3187,398200
3188,398369
3189,398478
3190,398596
3191,398691
3192,398780
3193,398877
3194,398983
3195,399087
3196,399201
3197,399348
3198,399458
3199,399602
3200,399738
3201,399874
3202,399988
3203,400101
3204,400216
3205,400319
3206,400415
3207,400512
3208,400622
3209,400734
3210,400853
3211,401000
3212,401099
3213,401288
3214,401396
3215,401502
3216,401635
3217,401748
3218,401905
3219,402032
3220,402145
3221,402286
3222,402403
3223,402576
3224,402675
3225,402781
3226,402885
3227,403045
3228,403150
3229,403307
3230,403421
3231,403531
3232,403645
3233,403741
3234,403877
3235,403992
3236,404089
3237,404223
3238,404336
3239,404447
3240,404544
3241,404658
3242,404750
3243,404847
3244,404947
3245,405049
3246,405156
3247,405263
3248,405460
3249,405561
3250,405671
3251,405791
3252,405894
3253,405996
3254,406117
3255,406242
3256,406362
3257,406468
3258,406634
3259,406743
3260,406843
3261,406936
3262,407041
3263,407151
3264,407262
3265,407386
3266,407491
3267,407593
3268,407698
3269,407807
3270,407919
3271,408032
3272,408167
3273,408280
3274,408377
3275,408485
3276,408592
3277,408716
3278,408819
3279,408919
3280,409062
3281,409214
3282,409348
3283,409488
3284,409601
3285,409701
3286,409815
3287,409923
3288,410094
3289,410188
3290,410298
3291,410415
3292,410548
3293,410674
3294,410783
3295,410890
3296,411068
3297,411209
3298,411332
3299,411443
3300,411565
3301,411667
3302,411815
3303,411913
3304,412008
3305,412105
3306,412205
3307,412319
3308,412439
3309,412603
3310,412734
3311,412844
3312,412975
3313,413081
3314,413213
3315,413359
3316,413464
3317,413579
3318,413681
3319,413800
3320,413912
3321,414035
3322,414139
3323,414291
3324,414397
3325,414506
3326,414620
3327,414730
3328,414844
3329,414954
3330,415061
3331,415171
3332,415281
3333,415394
3334,415497
3335,415606
3336,415708
3337,415814
3338,415923
3339,416034
3340,416168
3341,416302
3342,416414
3343,416525
3344,416632
3345,416778
3346,416895
3347,417014
3348,417126
3349,417230
3350,417331
3351,417446
3352,417553
3353,417649
3354,417751
3355,417854
3356,417956
3357,418056
3358,418184
3359,418352
3360,418476
3361,418598
3362,418711
3363,418873
3364,418974
3365,419072
3366,419177
3367,419297
3368,419410
3369,419520
3370,419619
3371,419763
3372,419857
3373,419959
3374,420059
3375,420158
3376,420262
3377,420428
3378,420537
3379,420640
3380,420748
3381,420864
3382,421027
3383,421142
3384,421247
3385,421347
3386,421459
3387,421577
3388,421681
3389,421795
3390,421902
3391,422009
3392,422113
3393,422234
3394,422357
3395,422467
3396,422613
3397,422713
3398,422810
3399,422919
3400,423026
3401,423136
3402,423243
3403,423359
3404,423459
3405,423560
3406,423656
3407,423764
3408,423858
3409,423953
3410,424044
3411,424139
3412,424237
3413,424354
3414,424485
3415,424586
3416,424690
3417,424795
3418,424905
3419,425090
3420,425230
3421,425339
3422,425440
3423,425548
3424,425647
3425,425746
3426,425840
3427,425943
3428,426086
3429,426213
3430,426325
3431,426443
3432,426539
3433,426633
3434,426749
3435,426884
3436,426995
3437,427116
3438,427229
3439,427339
3440,427439
3441,427539
3442,427632
3443,427743
3444,427869
3445,428003
3446,428115
3447,428213
3448,428311
3449,428470
3450,428592
3451,428702
3452,428807
3453,428913
3454,429008
3455,429121
3456,429223
3457,429329
3458,429428
3459,429519
3460,429630
3461,429756
3462,429872
3463,429999
3464,430153
3465,430263
3466,430356
3467,430451
3468,430555
3469,430670
3470,430768
3471,430875
3472,430982
3473,431076
3474,431189
3475,431286
3476,431424
3477,431536
3478,431633
3479,431731
3480,431825
3481,432002
3482,432097
3483,432188
3484,432280
3485,432374
3486,432468
3487,432611
3488,432716
3489,432854
3490,432997
3491,433143
3492,433258
3493,433367
3494,433463
3495,433561
3496,433695
3497,433846
3498,433945
3499,434033
3500,434130
3501,434285
3502,434403
3503,434500
3504,434635
3505,434774
3506,434919
3507,435028
3508,435148
3509,435263
3510,435377
3511,435494
3512,435589
3513,435691
3514,435795
3515,435895
3516,435994
3517,436148
3518,436261
3519,436396
3520,436503
3521,436602
3522,436701
3523,436809
3524,436910
3525,437011
3526,437119
3527,437232
3528,437394
3529,437493
3530,437604
3531,437745
3532,437849
3533,437958
3534,438065
3535,438162
3536,438271
3537,438461
3538,438580
3539,438702
3540,438801
3541,438897
3542,439002
3543,439161
3544,439324
3545,439433
3546,439554
3547,439672
3548,439803
3549,439916
3550,440022
3551,440192
3552,440281
3553,440417
3554,440583
3555,440690
3556,440807
3557,440905
3558,441009
3559,441124
3560,441224
3561,441322
3562,441493
3563,441593
3564,441701
3565,441802
3566,441903
3567,442051
3568,442158
3569,442322
3570,442456
3571,442570
3572,442678
3573,442783
3574,442891
3575,443005
3576,443160
3577,443277
3578,443377
3579,443538
3580,443638
3581,443770
3582,443873
3583,443981
3584,444086
3585,444223
3586,444359
3587,444467
3588,444574
3589,444713
3590,444812
3591,444908
3592,445011
3593,445138
3594,445256
3595,445443
3596,445583
3597,445715
3598,445846
3599,445976
3600,446087
3601,446190
3602,446299
3603,446399
3604,446496
3605,446592
3606,446709
3607,446810
3608,446939
3609,447032
3610,447132
3611,447234
3612,447358
3613,447460
3614,447554
3615,447744
3616,447875
3617,447992
3618,448105
3619,448227
3620,448333
3621,448436
3622,448544
3623,448650
3624,448757
3625,448889
3626,449022
3627,449146
3628,449267
3629,449413
3630,449536
3631,449655
3632,449771
3633,449874
3634,449973
3635,450073
3636,450170
3637,450259
3638,450346
3639,450442
3640,450590
3641,450697
3642,450806
3643,450904
3644,450994
3645,451093
3646,451208
3647,451354
3648,451465
3649,451585
3650,451713
3651,451830
3652,451934
3653,452037
3654,452203
3655,452311
3656,452411
3657,452561
3658,452695
3659,452834
3660,452943
3661,453056
3662,453189
3663,453347
3664,453454
3665,453547
3666,453668
3667,453796
3668,453928
3669,454034
3670,454175
3671,454323
3672,454418
3673,454586
3674,454690
3675,454850
3676,454973
3677,455100
3678,455222
3679,455350
3680,455457
3681,455557
3682,455662
3683,455753
3684,455841
3685,455942
3686,456033
3687,456124
3688,456215
3689,456311
3690,456407
3691,456505
3692,456599
3693,456700
3694,456803
3695,456964
3696,457062
3697,457179
3698,457258
3699,457417
3700,457522
3701,457631
3702,457733
3703,457828
3704,457940
3705,458057
3706,458164
3707,458263
3708,458379
3709,458512
3710,458654
3711,458744
3712,458859
3713,458977
3714,459079
3715,459179
3716,459275
3717,459370
3718,459467
3719,459568
3720,459713
3721,459814
3722,459921
3723,460034
3724,460137
3725,460288
3726,460409
3727,460543
3728,460659
3729,460766
3730,460867
3731,460968
3732,461078
3733,461183
3734,461282
3735,461384
3736,461489
3737,461644
3738,461775
3739,461922
3740,462035
3741,462170
3742,462299
3743,462400
3744,462506
3745,462637
3746,462725
3747,462837
3748,462968
3749,463072
3750,463215
3751,463330
3752,463435
3753,463536
3754,463653
3755,463750
3756,463862
3757,463955
3758,464057
3759,464195
3760,464332
3761,464444
3762,464563
3763,464671
3764,464790
3765,464901
3766,465009
3767,465117
3768,465253
3769,465455
3770,465618
3771,465756
3772,465899
3773,466042
3774,466267
3775,466428
3776,466560
3777,466680
3778,466780
3779,466877
3780,466996
3781,467130
3782,467258
3783,467381
3784,467480
3785,467578
3786,467743
3787,467850
3788,467955
3789,468065
3790,468171
3791,468272
3792,468441
3793,468554
3794,468663
3795,468765
3796,468912
3797,469023
3798,469122
3799,469227
3800,469325
3801,469427
3802,469544
3803,469702
3804,469814
3805,469924
3806,470029
3807,470143
3808,470234
3809,470388
3810,470531
3811,470656
3812,470768
3813,470882
3814,470988
3815,471092
3816,471207
3817,471354
3818,471485
3819,471606
3820,471704
3821,471796
3822,471897
3823,472006
3824,472169
3825,472309
3826,472422
3827,472523
3828,472628
3829,472734
3830,472837
3831,472951
3832,473063
3833,473166
3834,473318
3835,473420
3836,473587
3837,473698
3838,473811
3839,473914
3840,474020
3841,474193
3842,474351
3843,474450
3844,474565
3845,474677
3846,474773
3847,474879
3848,475046
3849,475166
3850,475268
3851,475370
3852,475495
3853,475601
3854,475703
3855,475810
3856,475911
3857,476009
3858,476112
3859,476212
3860,476312
3861,476414
3862,476514
3863,476606
3864,476698
3865,476790
3866,476902
3867,477035
3868,477157
3869,477264
3870,477366
3871,477464
3872,477658
3873,477808
3874,477920
3875,478024
3876,478142
3877,478289
3878,478414
3879,478548
3880,478669
3881,478790
3882,478930
3883,479032
3884,479179
3885,479285
3886,479397
3887,479548
3888,479654
3889,479755
3890,479861
3891,479969
3892,480149
3893,480247
3894,480354
3895,480472
3896,480582
3897,480736
3898,480866
3899,480975
3900,481093
3901,481200
3902,481299
3903,481470
3904,481620
3905,481732
3906,481842
3907,481996
3908,482130
3909,482258
3910,482381
3911,482480
3912,482578
3913,482743
3914,482850
3915,482955
3916,483065
3917,483171
3918,483272
3919,483441
3920,483554
3921,483663
3922,483765
3923,483912
3924,484023
3925,484122
3926,484227
3927,484325
3928,484427
3929,484544
3930,484702
3931,484814
3932,484924
3933,485029
3934,485143
3935,485234
3936,485388
3937,485531
3938,485656
3939,485768
3940,485882
3941,485988
3942,486092
3943,486207
3944,486354
3945,486485
3946,486606
3947,486704
3948,486796
3949,486897
3950,487006
3951,487169
3952,487309
3953,487422
3954,487523
3955,487628
3956,487734
3957,487837
3958,487951
3959,488063
3960,488166
3961,488318
3962,488420
3963,488587
3964,488698
3965,488811
3966,488914
3967,489020
3968,489193
3969,489351
3970,489450
3971,489565
3972,489677
3973,489773
3974,489879
3975,490046
3976,490166
3977,490268
3978,490370
3979,490495
3980,490601
3981,490703
3982,490810
3983,490911
3984,491009
3985,491112
3986,491212
3987,491312
3988,491414
3989,491514
3990,491606
3991,491698
3992,491790
3993,491902
3994,492035
3995,492157
3996,492264
3997,492366
3998,492464
3999,492658
4000,492808
4001,492920
4002,493024
4003,493142
4004,493289
4005,493414
4006,493548
4007,493669
4008,493790
4009,493930
4010,494032
4011,494179
4012,494285
4013,494397
4014,494548
4015,494654
4016,494755
4017,494861
4018,494969
4019,495149
4020,495247
4021,495354
4022,495472
4023,495582
4024,495736
4025,495866
4026,495975
4027,496093
4028,496200
4029,496299
4030,496470
4031,496620
4032,496732
4033,496842
4034,496935
4035,497050
4036,497160
4037,497263
4038,497367
4039,497516
4040,497685
4041,497802
4042,497899
4043,498006
4044,498108
4045,498222
4046,498334
4047,498516
4048,498664
4049,498776
4050,498892
4051,499009
4052,499123
4053,499269
4054,499453
4055,499568
4056,499689
4057,499799
4058,499944
4059,500054
4060,500175
4061,500315
4062,500426
4063,500559
4064,500642
4065,500897
4066,501032
4067,501188
4068,501294
4069,501406
4070,501613
4071,501722
4072,501818
4073,501967
4074,502095
4075,502195
4076,502293
4077,502410
4078,502526
4079,502649
4080,502781
4081,502893
4082,503003
4083,503158
4084,503283
4085,503386
4086,503487
4087,503582
4088,503673
4089,503775
4090,503876
4091,503972
4092,504074
4093,504188
4094,504299
4095,504420
4096,504539
4097,504654
4098,504768
4099,504870
4100,504972
4101,505067
4102,505169
4103,505298
4104,505466
4105,505597
4106,505706
4107,505816
4108,505941
4109,506071
4110,506183
4111,506346
4112,506472
4113,506579
4114,506736
4115,506852
4116,506949
4117,507047
4118,507150
4119,507254
4120,507441
4121,507547
4122,507696
4123,507838
4124,507980
4125,508094
4126,508237
4127,508373
4128,508514
4129,508634
4130,508747
4131,508845
4132,508943
4133,509060
4134,509210
4135,509318
4136,509426
4137,509532
4138,509636
4139,509745
4140,509845
4141,509959
4142,510068
4143,510173
4144,510273
4145,510403
4146,510524
4147,510708
4148,510821
4149,510951
4150,511055
4151,511158
4152,511260
4153,511364
4154,511466
4155,511563
4156,511658
4157,511765
4158,511868
4159,511976
4160,512082
4161,512197
4162,512302
4163,512405
4164,512526
4165,512644
4166,512809
4167,512934
4168,513042
4169,513153
4170,513281
4171,513400
4172,513505
4173,513610
4174,513723
4175,513891
4176,514010
4177,514168
4178,514266
4179,514409
4180,514495
4181,514635
4182,514724
4183,514880
4184,514997
4185,515102
4186,515205
4187,515306
4188,515413
4189,515574
4190,515687
4191,515796
4192,515921
4193,516039
4194,516148
4195,516287
4196,516389
4197,516497
4198,516595
4199,516713
4200,516819
4201,516918
4202,517024
4203,517133
4204,517267
4205,517421
4206,517579
4207,517685
4208,517787
4209,517882
4210,517988
4211,518091
4212,518198
4213,518303
4214,518405
4215,518506
4216,518597
4217,518695
4218,518801
4219,518922
4220,519081
4221,519202
4222,519340
4223,519450
4224,519576
4225,519685
4226,519799
4227,519916
4228,520034
4229,520152
4230,520318
4231,520423
4232,520530
4233,520628
4234,520729
4235,520838
4236,520992
4237,521102
4238,521204
4239,521318
4240,521476
4241,521590
4242,521709
4243,521824
4244,521934
4245,522047
4246,522205
4247,522312
4248,522418
4249,522576
4250,522692
4251,522825
4252,522944
4253,523057
4254,523161
4255,523308
4256,523426
4257,523545
4258,523677
4259,523830
4260,523989
4261,524110
4262,524211
4263,524309
4264,524408
4265,524523
4266,524667
4267,524792
4268,524909
4269,525027
4270,525130
4271,525327
4272,525496
4273,525659
4274,525785
4275,525898
4276,526056
4277,526173
4278,526272
4279,526416
4280,526521
4281,526617
4282,526741
