,0
0,201
1,308
2,505
3,626
4,885
5,998
6,1206
7,1346
8,1531
9,1696
10,1798
11,1939
12,2139
13,2316
14,2522
15,2650
16,2837
17,2986
18,3109
19,3300
20,3452
21,3639
22,3793
23,3909
24,4073
25,4203
26,4441
27,4595
28,4726
29,4900
30,5028
31,5174
32,5349
33,5532
34,5684
35,5813
36,5917
37,6057
38,6206
39,6383
40,6618
41,6753
42,6913
43,7050
44,7169
45,7315
46,7480
47,7607
48,7759
49,7902
50,8053
51,8196
52,8333
53,8454
54,8574
55,8684
56,8791
57,8910
58,9022
59,9123
60,9279
61,9384
62,9537
63,9664
64,9786
65,9931
66,10069
67,10197
68,10311
69,10421
70,10531
71,10656
72,10803
73,10984
74,11121
75,11283
76,11404
77,11514
78,11640
79,11755
80,11906
81,12016
82,12157
83,12282
84,12419
85,12559
86,12711
87,12837
88,12949
89,13080
90,13210
91,13369
92,13516
93,13657
94,13800
95,13970
96,14105
97,14265
98,14423
99,14550
100,14694
101,14819
102,14994
103,15177
104,15345
105,15511
106,15622
107,15740
108,15893
109,16035
110,16152
111,16279
112,16403
113,16591
114,16752
115,16924
116,17060
117,17213
118,17365
119,17491
120,17639
121,17773
122,17917
123,18040
124,18191
125,18350
126,18471
127,18613
128,18786
129,18902
130,19057
131,19191
132,19366
133,19485
134,19609
135,19754
136,19920
137,20080
138,20261
139,20372
140,20527
141,20669
142,20790
143,20951
144,21117
145,21229
146,21387
147,21566
148,21743
149,21881
150,22008
151,22139
152,22276
153,22400
154,22522
155,22703
156,22847
157,22988
158,23119
159,23289
160,23413
161,23585
162,23749
163,23865
164,23998
165,24129
166,24254
167,24377
168,24481
169,24599
170,24757
171,24919
172,25077
173,25246
174,25379
175,25570
176,25706
177,25849
178,26021
179,26191
180,26356
181,26503
182,26627
183,26756
184,26866
185,26995
186,27118
187,27314
188,27507
189,27708
190,27855
191,28056
192,28269
193,28401
194,28614
195,28784
196,28924
197,29095
198,29250
199,29425
200,29566
201,29731
202,29881
203,30035
204,30210
205,30411
206,30582
207,30732
208,30862
209,31041
210,31243
211,31398
212,31538
213,31707
214,31853
215,32016
216,32139
217,32360
218,32481
219,32616
220,32763
221,32933
222,33119
223,33281
224,33438
225,33580
226,33753
227,33929
228,34043
229,34224
230,34391
231,34574
232,34698
233,34868
234,35024
235,35210
236,35363
237,35491
238,35622
239,35762
240,35895
241,36094
242,36220
243,36365
244,36544
245,36711
246,36890
247,37061
248,37254
249,37420
250,37732
251,37882
252,38075
253,38245
254,38412
255,38567
256,38711
257,38924
258,39091
259,39257
260,39420
261,39545
262,39681
263,39853
264,40015
265,40126
266,40257
267,40430
268,40570
269,40744
270,40874
271,41062
272,41213
273,41332
274,41483
275,41623
276,41817
277,41991
278,42206
279,42337
280,42491
281,42656
282,42821
283,42964
284,43152
285,43317
286,43446
287,43571
288,43691
289,43837
290,44022
291,44189
292,44325
293,44468
294,44579
295,44735
296,44961
297,45097
298,45248
299,45401
300,45530
301,45648
302,45784
303,45971
304,46166
305,46335
306,46463
307,46598
308,46774
309,46976
310,47123
311,47259
312,47448
313,47619
314,47795
315,47953
316,48178
317,48351
318,48486
319,48612
320,48777
321,48933
322,49070
323,49191
324,49344
325,49475
326,49602
327,49866
328,50000
329,50158
330,50331
331,50500
332,50662
333,50818
334,51000
335,51185
336,51380
337,51498
338,51696
339,51834
340,51991
341,52142
342,52260
343,52427
344,52558
345,52675
346,52778
347,52975
348,53107
349,53270
350,53411
351,53596
352,53704
353,53912
354,54043
355,54217
356,54414
357,54616
358,54786
359,55029
360,55201
361,55365
362,55558
363,55687
364,55855
365,56003
366,56160
367,56354
368,56563
369,56752
370,56959
371,57073
372,57203
373,57316
374,57505
375,57687
376,57916
377,58042
378,58264
379,58449
380,58660
381,58795
382,58978
383,59149
384,59313
385,59554
386,59704
387,59898
388,60057
389,60207
390,60427
391,60610
392,60744
393,60940
394,61173
395,61359
396,61628
397,61806
398,62079
399,62218
400,62419
401,62543
402,62731
403,62916
404,63094
405,63273
406,63458
407,63593
408,63763
409,63902
410,64060
411,64385
412,64539
413,64666
414,64836
415,64958
416,65071
417,65304
418,65516
419,65777
420,65925
421,66119
422,66287
423,66486
424,66671
425,66862
426,66986
427,67185
428,67305
429,67470
430,67627
431,67760
432,67878
433,68094
434,68217
435,68441
436,68694
437,68856
438,69017
439,69166
440,69339
441,69459
442,69598
443,69759
444,69886
445,70103
446,70306
447,70502
448,70713
449,70828
450,70959
451,71118
452,71232
453,71406
454,71513
455,71613
456,71708
457,71804
458,71903
459,72006
460,72181
461,72295
462,72399
463,72558
464,72688
465,72856
466,73046
467,73251
468,73453
469,73643
470,73835
471,74033
472,74227
473,74378
474,74535
475,74717
476,74896
477,75036
478,75189
479,75340
480,75481
481,75625
482,75765
483,75913
484,76056
485,76213
486,76360
487,76522
488,76661
489,76810
490,76951
491,77099
492,77244
493,77397
494,77534
495,77685
496,77873
497,78012
498,78203
499,78397
500,78539
501,78715
502,78889
503,79040
504,79258
505,79380
506,79526
507,79698
508,79831
509,80030
510,80225
511,80511
512,80712
513,80894
514,81079
515,81268
516,81457
517,81635
518,81808
519,81985
520,82170
521,82502
522,82696
523,82879
524,83048
525,83198
526,83344
527,83485
528,83647
529,83774
530,83900
531,84013
532,84196
533,84337
534,84543
535,84691
536,84900
537,85042
538,85193
539,85372
540,85567
541,85712
542,85894
543,86069
544,86239
545,86370
546,86515
547,86712
548,86886
549,87027
550,87171
551,87330
552,87550
553,87738
554,87847
555,88024
556,88193
557,88308
558,88526
559,88665
560,88815
561,88982
562,89113
563,89274
564,89427
565,89552
566,89735
567,89856
568,90010
569,90165
570,90333
571,90586
572,90729
573,90834
574,90936
575,91070
576,91208
577,91360
578,91522
579,91661
580,91810
581,91951
582,92099
583,92244
584,92397
585,92534
586,92685
587,92873
588,93012
589,93203
590,93397
591,93539
592,93715
593,93889
594,94040
595,94258
596,94380
597,94526
598,94698
599,94831
600,95030
601,95225
602,95511
603,95712
604,95894
605,96079
606,96268
607,96457
608,96635
609,96808
610,96985
611,97170
612,97502
613,97696
614,97879
615,98048
616,98198
617,98344
618,98485
619,98647
620,98774
621,98900
622,99013
623,99196
624,99337
625,99543
626,99691
627,99900
628,100042
629,100193
630,100372
631,100567
632,100712
633,100894
634,101069
635,101239
636,101370
637,101515
638,101712
639,101886
640,102027
641,102171
642,102330
643,102550
644,102738
645,102847
646,103024
647,103193
648,103308
649,103526
650,103665
651,103815
652,103982
653,104113
654,104274
655,104427
656,104552
657,104735
658,104856
659,105010
660,105165
661,105333
662,105586
663,105729
664,105834
665,105936
666,106070
667,106232
668,106366
669,106517
670,106659
671,106823
672,106986
673,107206
674,107459
675,107649
676,107812
677,107979
678,108088
679,108249
680,108443
681,108605
682,108778
683,108912
684,109078
685,109240
686,109399
687,109555
688,109735
689,109862
690,109996
691,110138
692,110287
693,110438
694,110581
695,110752
696,110946
697,111106
698,111280
699,111480
700,111655
701,111797
702,111977
703,112133
704,112289
705,112452
706,112611
707,112777
708,112933
709,113053
710,113197
711,113381
712,113523
713,113634
714,113872
715,114120
716,114329
717,114525
718,114721
719,114910
720,115040
721,115285
722,115649
723,115855
724,116050
725,116232
726,116419
727,116605
728,116932
729,117126
730,117310
731,117502
732,117674
733,117807
734,117952
735,118072
736,118207
737,118360
738,118553
739,118741
740,118900
741,119081
742,119194
743,119355
744,119684
745,119828
746,119959
747,120138
748,120268
749,120402
750,120611
751,120807
752,120948
753,121087
754,121352
755,121536
756,121672
757,121849
758,122024
759,122142
760,122246
761,122349
762,122507
763,122767
764,122993
765,123234
766,123454
767,123660
768,123857
769,124043
770,124230
771,124420
772,124608
773,124800
774,124979
775,125160
776,125339
777,125526
778,125722
779,125905
780,126083
781,126257
782,126375
783,126550
784,126689
785,126866
786,126986
787,127157
788,127287
789,127456
790,127671
791,127863
792,128150
793,128321
794,128484
795,128659
796,128844
797,129005
798,129146
799,129419
800,129613
801,129754
802,129932
803,130107
804,130226
805,130383
806,130577
807,130788
808,130962
809,131163
810,131355
811,131480
812,131635
813,131771
814,131895
815,132076
816,132279
817,132455
818,132594
819,132719
820,132931
821,133082
822,133226
823,133385
824,133640
825,133868
826,133997
827,134217
828,134382
829,134494
830,134696
831,134848
832,134999
833,135121
834,135290
835,135471
836,135620
837,135754
838,135880
839,136080
840,136291
841,136475
842,136605
843,136770
844,136975
845,137169
846,137344
847,137552
848,137700
849,137947
850,138088
851,138277
852,138449
853,138669
854,138824
855,139030
856,139189
857,139336
858,139482
859,139608
860,139808
861,139964
862,140109
863,140272
864,140419
865,140552
866,140746
867,140907
868,141059
869,141265
870,141426
871,141574
872,141742
873,141896
874,142038
875,142198
876,142373
877,142576
878,142728
879,142886
880,143046
881,143190
882,143360
883,143514
884,143661
885,143823
886,143961
887,144127
888,144291
889,144440
890,144575
891,144691
892,144875
893,145007
894,145144
895,145349
896,145465
897,145665
898,145845
899,146064
900,146217
901,146359
902,146576
903,146743
904,146961
905,147124
906,147314
907,147510
908,147642
909,147821
910,148055
911,148204
912,148404
913,148576
914,148722
915,148940
916,149093
917,149222
918,149337
919,149490
920,149641
921,149796
922,149925
923,150151
924,150320
925,150459
926,150622
927,150758
928,150930
929,151112
930,151230
931,151409
932,151556
933,151697
934,151833
935,152022
936,152200
937,152314
938,152466
939,152619
940,152810
941,152984
942,153111
943,153289
944,153475
945,153640
946,153786
947,153972
948,154136
949,154255
950,154426
951,154572
952,154706
953,154874
954,155011
955,155276
956,155542
957,155719
958,155865
959,156045
960,156197
961,156381
962,156573
963,156764
964,156903
965,157026
966,157186
967,157329
968,157524
969,157695
970,157846
971,158032
972,158173
973,158295
974,158530
975,158682
976,158796
977,159006
978,159160
979,159449
980,159592
981,159756
982,159914
983,160042
984,160230
985,160387
986,160505
987,160673
988,160798
989,160934
990,161116
991,161272
992,161434
993,161575
994,161687
995,161895
996,162066
997,162330
998,162476
999,162637
1000,162895
1001,163121
1002,163274
1003,163386
1004,163498
1005,163636
1006,163838
1007,163985
1008,164135
1009,164278
1010,164451
1011,164567
1012,164736
1013,164892
1014,165061
1015,165218
1016,165427
1017,165605
1018,165762
1019,165942
1020,166108
1021,166245
1022,166406
1023,166600
1024,166773
1025,166883
1026,167026
1027,167185
1028,167354
1029,167606
1030,167801
1031,167957
1032,168111
1033,168262
1034,168429
1035,168576
1036,168780
1037,168940
1038,169111
1039,169241
1040,169419
1041,169536
1042,169699
1043,169866
1044,170063
1045,170221
1046,170415
1047,170610
1048,170781
1049,170938
1050,171100
1051,171260
1052,171417
1053,171645
1054,171877
1055,172029
1056,172213
1057,172419
1058,172576
1059,172783
1060,172995
1061,173166
1062,173329
1063,173483
1064,173621
1065,173736
1066,173882
1067,174103
1068,174282
1069,174454
1070,174599
1071,174734
1072,174919
1073,175034
1074,175200
1075,175354
1076,175480
1077,175714
1078,175863
1079,175986
1080,176177
1081,176372
1082,176561
1083,176683
1084,176811
1085,177010
1086,177263
1087,177417
1088,177562
1089,177723
1090,177878
1091,178182
1092,178423
1093,178593
1094,178783
1095,178911
1096,179147
1097,179330
1098,179452
1099,179635
1100,179762
1101,179941
1102,180151
1103,180314
1104,180494
1105,180686
1106,180872
1107,181068
1108,181224
1109,181386
1110,181540
1111,181848
1112,182038
1113,182202
1114,182340
1115,182497
1116,182660
1117,182807
1118,182990
1119,183231
1120,183420
1121,183613
1122,183776
1123,183962
1124,184202
1125,184362
1126,184525
1127,184713
1128,184865
1129,185039
1130,185170
1131,185368
1132,185560
1133,185715
1134,185829
1135,186015
1136,186128
1137,186278
1138,186439
1139,186577
1140,186725
1141,186866
1142,187061
1143,187203
1144,187413
1145,187534
1146,187674
1147,187834
1148,187983
1149,188202
1150,188384
1151,188606
1152,188766
1153,188909
1154,189063
1155,189280
1156,189471
1157,189601
1158,189731
1159,189903
1160,190092
1161,190261
1162,190400
1163,190592
1164,190766
1165,190915
1166,191099
1167,191242
1168,191397
1169,191580
1170,191760
1171,191945
1172,192130
1173,192272
1174,192427
1175,192611
1176,192786
1177,192921
1178,193076
1179,193267
1180,193458
1181,193645
1182,193786
1183,193930
1184,194112
1185,194274
1186,194421
1187,194595
1188,194778
1189,194963
1190,195150
1191,195300
1192,195453
1193,195629
1194,195769
1195,195915
1196,196095
1197,196287
1198,196506
1199,196624
1200,196792
1201,196972
1202,197160
1203,197356
1204,197548
1205,197732
1206,197917
1207,198107
1208,198300
1209,198492
1210,198680
1211,198868
1212,199054
1213,199244
1214,199443
1215,199637
1216,199820
1217,200003
1218,200195
1219,200390
1220,200581
1221,200767
1222,200953
1223,201142
1224,201334
1225,201526
1226,201717
1227,201904
1228,202087
1229,202279
1230,202478
1231,202668
1232,202849
1233,203033
1234,203224
1235,203418
1236,203609
1237,203792
1238,203973
1239,204159
1240,204349
1241,204541
1242,204729
1243,204918
1244,205026
1245,205195
1246,205387
1247,205578
1248,205727
1249,205855
1250,206001
1251,206128
1252,206278
1253,206415
1254,206569
1255,206701
1256,206847
1257,206976
1258,207125
1259,207261
1260,207413
1261,207601
1262,207792
1263,207970
1264,208152
1265,208341
1266,208535
1267,208718
1268,208898
1269,209078
1270,209263
1271,209457
1272,209643
1273,209827
1274,210008
1275,210192
1276,210380
1277,210573
1278,210759
1279,210945
1280,211121
1281,211306
1282,211497
1283,211688
1284,211867
1285,212048
1286,212234
1287,212429
1288,212615
1289,212803
1290,212986
1291,213170
1292,213353
1293,213550
1294,213706
1295,213850
1296,214014
1297,214194
1298,214382
1299,214574
1300,214764
1301,214942
1302,215086
1303,215229
1304,215410
1305,215601
1306,215786
1307,215967
1308,216120
1309,216258
1310,216435
1311,216623
1312,216804
1313,216981
1314,217128
1315,217276
1316,217455
1317,217647
1318,217859
1319,217974
1320,218140
1321,218254
1322,218421
1323,218540
1324,218710
1325,218830
1326,218985
1327,219161
1328,219347
1329,219543
1330,219732
1331,219910
1332,220088
1333,220253
1334,220419
1335,220589
1336,220753
1337,220862
1338,220990
1339,221168
1340,221313
1341,221492
1342,221668
1343,221819
1344,221982
1345,222145
1346,222305
1347,222472
1348,222644
1349,222812
1350,222973
1351,223168
1352,223312
1353,223502
1354,223674
1355,223839
1356,223989
1357,224160
1358,224307
1359,224477
1360,224599
1361,224742
1362,224914
1363,225077
1364,225222
1365,225383
1366,225512
1367,225671
1368,225875
1369,226038
1370,226198
1371,226334
1372,226524
1373,226743
1374,226881
1375,227006
1376,227216
1377,227393
1378,227550
1379,227726
1380,227878
1381,228036
1382,228211
1383,228426
1384,228644
1385,228861
1386,229038
1387,229209
1388,229381
1389,229534
1390,229745
1391,229918
1392,230090
1393,230258
1394,230382
1395,230510
1396,230706
1397,230834
1398,231095
1399,231300
1400,231471
1401,231654
1402,231848
1403,231979
1404,232146
1405,232355
1406,232551
1407,232703
1408,232891
1409,233107
1410,233287
1411,233487
1412,233661
1413,233814
1414,233934
1415,234110
1416,234308
1417,234561
1418,234806
1419,234994
1420,235119
1421,235247
1422,235400
1423,235681
1424,235849
1425,236047
1426,236160
1427,236369
1428,236506
1429,236646
1430,236836
1431,237028
1432,237173
1433,237296
1434,237500
1435,237713
1436,237882
1437,238052
1438,238210
1439,238418
1440,238588
1441,238730
1442,238898
1443,239083
1444,239250
1445,239423
1446,239616
1447,239807
1448,240070
1449,240262
1450,240420
1451,240569
1452,240739
1453,241004
1454,241162
1455,241349
1456,241484
1457,241674
1458,241800
1459,241988
1460,242165
1461,242296
1462,242448
1463,242654
1464,242828
1465,243000
1466,243299
1467,243488
1468,243675
1469,243846
1470,244032
1471,244157
1472,244329
1473,244497
1474,244673
1475,244866
1476,245020
1477,245179
1478,245409
1479,245575
1480,245766
1481,245948
1482,246087
1483,246295
1484,246566
1485,246787
1486,246962
1487,247162
1488,247371
1489,247519
1490,247719
1491,247918
1492,248161
1493,248286
1494,248460
1495,248595
1496,248771
1497,248930
1498,249073
1499,249221
1500,249411
1501,249549
1502,249735
1503,249935
1504,250075
1505,250282
1506,250443
1507,250675
1508,250883
1509,251157
1510,251296
1511,251464
1512,251658
1513,251798
1514,252087
1515,252303
1516,252452
1517,252585
1518,252873
1519,253089
1520,253306
1521,253487
1522,253692
1523,253877
1524,254007
1525,254188
1526,254319
1527,254498
1528,254723
1529,255038
1530,255257
1531,255443
1532,255624
1533,255805
1534,255987
1535,256166
1536,256509
1537,256695
1538,256831
1539,256980
1540,257194
1541,257316
1542,257439
1543,257571
1544,257760
1545,257900
1546,258034
1547,258176
1548,258308
1549,258446
1550,258589
1551,258702
1552,258836
1553,259056
1554,259191
1555,259322
1556,259519
1557,259645
1558,259769
1559,259882
1560,260022
1561,260203
1562,260353
1563,260460
1564,260568
1565,260701
1566,260944
1567,261074
1568,261240
1569,261401
1570,261532
1571,261642
1572,261820
1573,261928
1574,262122
1575,262261
1576,262425
1577,262564
1578,262724
1579,262965
1580,263100
1581,263266
1582,263393
1583,263502
1584,263617
1585,263738
1586,263924
1587,264117
1588,264239
1589,264342
1590,264493
1591,264660
1592,264778
1593,264912
1594,265105
1595,265221
1596,265328
1597,265448
1598,265636
1599,265756
1600,265868
1601,265965
1602,266081
1603,266256
1604,266380
1605,266552
1606,266701
1607,266843
1608,266983
1609,267132
1610,267245
1611,267389
1612,267510
1613,267629
1614,267843
1615,267977
1616,268198
1617,268364
1618,268479
1619,268652
1620,268762
1621,268957
1622,269080
1623,269203
1624,269397
1625,269535
1626,269651
1627,269797
1628,269938
1629,270113
1630,270312
1631,270485
1632,270638
1633,270817
1634,271012
1635,271163
1636,271314
1637,271490
1638,271633
1639,271755
1640,271954
1641,272132
1642,272274
1643,272524
1644,272725
1645,272925
1646,273033
1647,273212
1648,273350
1649,273566
1650,273705
1651,273829
1652,273990
1653,274129
1654,274253
1655,274397
1656,274539
1657,274770
1658,274967
1659,275092
1660,275218
1661,275342
1662,275492
1663,275643
1664,275751
1665,275918
1666,276057
1667,276188
1668,276299
1669,276446
1670,276652
1671,276749
1672,276908
1673,277068
1674,277257
1675,277404
1676,277518
1677,277647
1678,277836
1679,277990
1680,278157
1681,278291
1682,278414
1683,278561
1684,278674
1685,278814
1686,278958
1687,279173
1688,279297
1689,279444
1690,279600
1691,279714
1692,279853
1693,279995
1694,280151
1695,280337
1696,280511
1697,280665
1698,280782
1699,280954
1700,281089
1701,281227
1702,281397
1703,281567
1704,281709
1705,281922
1706,282090
1707,282228
1708,282379
1709,282536
1710,282648
1711,282780
1712,282898
1713,283026
1714,283191
1715,283339
1716,283510
1717,283686
1718,283802
1719,283937
1720,284057
1721,284177
1722,284305
1723,284472
1724,284656
1725,284790
1726,284932
1727,285059
1728,285168
1729,285348
1730,285532
1731,285670
1732,285824
1733,286000
1734,286172
1735,286330
1736,286522
1737,286680
1738,286873
1739,287066
1740,287226
1741,287353
1742,287474
1743,287620
1744,287737
1745,287885
1746,288037
1747,288238
1748,288423
1749,288555
1750,288690
1751,288850
1752,289028
1753,289152
1754,289308
1755,289447
1756,289584
1757,289749
1758,289878
1759,290017
1760,290195
1761,290342
1762,290479
1763,290635
1764,290754
1765,290919
1766,291045
1767,291195
1768,291349
1769,291527
1770,291729
1771,291976
1772,292113
1773,292255
1774,292396
1775,292578
1776,292716
1777,292889
1778,293110
1779,293306
1780,293500
1781,293685
1782,293861
1783,294045
1784,294240
1785,294429
1786,294613
1787,294800
1788,294986
1789,295170
1790,295362
1791,295558
1792,295745
1793,295907
1794,296196
1795,296385
1796,296584
1797,296764
1798,296959
1799,297138
1800,297369
1801,297554
1802,297750
1803,297901
1804,298075
1805,298202
1806,298406
1807,298554
1808,298688
1809,298823
1810,298957
1811,299124
1812,299326
1813,299498
1814,299697
1815,299815
1816,300041
1817,300187
1818,300363
1819,300536
1820,300704
1821,300844
1822,300984
1823,301204
1824,301457
1825,301593
1826,301794
1827,301910
1828,302069
1829,302234
1830,302385
1831,302573
1832,302687
1833,302838
1834,302987
1835,303166
1836,303306
1837,303457
1838,303638
1839,303817
1840,303991
1841,304171
1842,304309
1843,304463
1844,304613
1845,304753
1846,304926
1847,305045
1848,305226
1849,305354
1850,305518
1851,305633
1852,305791
1853,305973
1854,306104
1855,306252
1856,306372
1857,306537
1858,306651
1859,306810
1860,306929
1861,307077
1862,307263
1863,307383
1864,307546
1865,307663
1866,307821
1867,307933
1868,308094
1869,308210
1870,308373
1871,308494
1872,308659
1873,308773
1874,308933
1875,309106
1876,309289
1877,309481
1878,309667
1879,309790
1880,309917
1881,310092
1882,310272
1883,310420
1884,310573
1885,310747
1886,310922
1887,311104
1888,311286
1889,311420
1890,311606
1891,311790
1892,311969
1893,312146
1894,312330
1895,312459
1896,312617
1897,312797
1898,312976
1899,313156
1900,313337
1901,313502
1902,313674
1903,313852
1904,313978
1905,314088
1906,314223
1907,314394
1908,314585
1909,314771
1910,314949
1911,315125
1912,315309
1913,315497
1914,315686
1915,315867
1916,316048
1917,316227
1918,316414
1919,316602
1920,316813
1921,317001
1922,317180
1923,317300
1924,317459
1925,317588
1926,317748
1927,317867
1928,318017
1929,318197
1930,318377
1931,318567
1932,318754
1933,318936
1934,319111
1935,319293
1936,319411
1937,319549
1938,319729
1939,319912
1940,320089
1941,320269
1942,320457
1943,320646
1944,320834
1945,321017
1946,321201
1947,321382
1948,321586
1949,321761
1950,321945
1951,322069
1952,322186
1953,322334
1954,322459
1955,322614
1956,322736
1957,322898
1958,323013
1959,323169
1960,323346
1961,323470
1962,323636
1963,323825
1964,324005
1965,324185
1966,324334
1967,324523
1968,324717
1969,324894
1970,325084
1971,325283
1972,325398
1973,325567
1974,325756
1975,325877
1976,326036
1977,326146
1978,326305
1979,326422
1980,326588
1981,326776
1982,326962
1983,327139
1984,327319
1985,327454
1986,327607
1987,327761
1988,327901
1989,328067
1990,328229
1991,328376
1992,328501
1993,328667
1994,328816
1995,328961
1996,329194
1997,329335
1998,329463
1999,329694
2000,329841
2001,330018
2002,330220
2003,330383
2004,330584
2005,330728
2006,330917
2007,331088
2008,331279
2009,331417
2010,331537
2011,331742
2012,331867
2013,332026
2014,332190
2015,332349
2016,332648
2017,332884
2018,333081
2019,333235
2020,333362
2021,333526
2022,333661
2023,333902
2024,334091
2025,334309
2026,334464
2027,334607
2028,334750
2029,335022
2030,335198
2031,335402
2032,335566
2033,335737
2034,335871
2035,336025
2036,336294
2037,336476
2038,336619
2039,336825
2040,336973
2041,337157
2042,337297
2043,337434
2044,337596
2045,337766
2046,337958
2047,338149
2048,338283
2049,338437
2050,338609
2051,338752
2052,338928
2053,339133
2054,339276
2055,339391
2056,339542
2057,339697
2058,339842
2059,340013
2060,340210
2061,340349
2062,340480
2063,340655
2064,340809
2065,340961
2066,341109
2067,341257
2068,341376
2069,341513
2070,341639
2071,341818
2072,341938
2073,342115
2074,342298
2075,342475
2076,342609
2077,342717
2078,342839
2079,343042
2080,343220
2081,343346
2082,343551
2083,343672
2084,343817
2085,343945
2086,344059
2087,344172
2088,344356
2089,344477
2090,344602
2091,344803
2092,344948
2093,345112
2094,345261
2095,345465
2096,345624
2097,345811
2098,345957
2099,346073
2100,346237
2101,346417
2102,346570
2103,346762
2104,346891
2105,347068
2106,347300
2107,347452
2108,347582
2109,347708
2110,347886
2111,348074
2112,348200
2113,348374
2114,348523
2115,348667
2116,348824
2117,349032
2118,349211
2119,349326
2120,349521
2121,349675
2122,349818
2123,350041
2124,350195
2125,350363
2126,350569
2127,350727
2128,350900
2129,351108
2130,351285
2131,351409
2132,351631
2133,351831
2134,352072
2135,352203
2136,352352
2137,352473
2138,352660
2139,352814
2140,352958
2141,353188
2142,353410
2143,353542
2144,353739
2145,353907
2146,354070
2147,354264
2148,354382
2149,354562
2150,354715
2151,354856
2152,355054
2153,355267
2154,355475
2155,355678
2156,355837
2157,355993
2158,356166
2159,356418
2160,356557
2161,356691
2162,356881
2163,357101
2164,357319
2165,357452
2166,357614
2167,357753
2168,357923
2169,358062
2170,358193
2171,358372
2172,358537
2173,358669
2174,358841
2175,358977
2176,359183
2177,359457
2178,359660
2179,359837
2180,360005
2181,360189
2182,360319
2183,360442
2184,360553
2185,360725
2186,360872
2187,361046
2188,361174
2189,361330
2190,361468
2191,361661
2192,361849
2193,361993
2194,362158
2195,362368
2196,362560
2197,362714
2198,362842
2199,363070
2200,363256
2201,363428
2202,363562
2203,363710
2204,363870
2205,364035
2206,364236
2207,364429
2208,364645
2209,364857
2210,365088
2211,365280
2212,365456
2213,365596
2214,365813
2215,366000
2216,366213
2217,366397
2218,366545
2219,366743
2220,366887
2221,367115
2222,367288
2223,367440
2224,367610
2225,367776
2226,367972
2227,368125
2228,368291
2229,368418
2230,368536
2231,368677
2232,368842
2233,369019
2234,369195
2235,369425
2236,369578
2237,369732
2238,369858
2239,370015
2240,370278
2241,370459
2242,370689
2243,370828
2244,371003
2245,371207
2246,371365
2247,371512
2248,371693
2249,371936
2250,372055
2251,372262
2252,372565
2253,372715
2254,372868
2255,373003
2256,373224
2257,373391
2258,373521
2259,373667
2260,373809
2261,374020
2262,374243
2263,374468
2264,374601
2265,374770
2266,374969
2267,375157
2268,375342
2269,375481
2270,375648
2271,375839
2272,375982
2273,376147
2274,376332
2275,376494
2276,376703
2277,376894
2278,377023
2279,377222
2280,377383
2281,377609
2282,377730
2283,377962
2284,378121
2285,378263
2286,378412
2287,378571
2288,378706
2289,378867
2290,379010
2291,379225
2292,379459
2293,379631
2294,379782
2295,379929
2296,380080
2297,380248
2298,380441
2299,380638
2300,380842
2301,380999
2302,381162
2303,381315
2304,381496
2305,381685
2306,381865
2307,382045
2308,382205
2309,382355
2310,382577
2311,382699
2312,382901
2313,383075
2314,383228
2315,383407
2316,383589
2317,383776
2318,383941
2319,384082
2320,384202
2321,384432
2322,384614
2323,384816
2324,384977
2325,385129
2326,385289
2327,385465
2328,385643
2329,385840
2330,386053
2331,386194
2332,386319
2333,386478
2334,386654
2335,386860
2336,387000
2337,387123
2338,387280
2339,387449
2340,387656
2341,387804
2342,387985
2343,388157
2344,388345
2345,388482
2346,388668
2347,388966
2348,389170
2349,389367
2350,389480
2351,389722
2352,389924
2353,390114
2354,390305
2355,390495
2356,390675
2357,390847
2358,391024
2359,391212
2360,391403
2361,391583
2362,391760
2363,391928
2364,392061
2365,392281
2366,392434
2367,392729
2368,392869
2369,393038
2370,393226
2371,393373
2372,393530
2373,393700
2374,393867
2375,394000
2376,394119
2377,394301
2378,394418
2379,394583
2380,394776
2381,394946
2382,395115
2383,395284
2384,395458
2385,395611
2386,395765
2387,395915
2388,396030
2389,396138
2390,396395
2391,396644
2392,396867
2393,397066
2394,397264
2395,397453
2396,397643
2397,397827
2398,398002
2399,398182
2400,398376
2401,398577
2402,398761
2403,398864
2404,399041
2405,399245
2406,399408
2407,399564
2408,399756
2409,399919
2410,400089
2411,400279
2412,400553
2413,400794
2414,400992
2415,401122
2416,401407
2417,401609
2418,401785
2419,401952
2420,402144
2421,402326
2422,402468
2423,402630
2424,402818
2425,402993
2426,403192
2427,403374
2428,403604
2429,403792
2430,403999
2431,404140
2432,404332
2433,404543
2434,404690
2435,404846
2436,405047
2437,405227
2438,405370
2439,405528
2440,405662
2441,405851
2442,406108
2443,406246
2444,406477
2445,406624
2446,406799
2447,406954
2448,407083
2449,407267
2450,407435
2451,407653
2452,407835
2453,407961
2454,408126
2455,408259
2456,408448
2457,408565
2458,408699
2459,408874
2460,409061
2461,409291
2462,409499
2463,409702
2464,409945
2465,410181
2466,410404
2467,410544
2468,410728
2469,410897
2470,411075
2471,411242
2472,411446
2473,411644
2474,411860
2475,412038
2476,412227
2477,412436
2478,412577
2479,412788
2480,412964
2481,413150
2482,413287
2483,413456
2484,413594
2485,413884
2486,414031
2487,414226
2488,414380
2489,414539
2490,414762
2491,414962
2492,415130
2493,415264
2494,415408
2495,415569
2496,415724
2497,415919
2498,416078
2499,416251
2500,416466
2501,416624
2502,416770
2503,416895
2504,417065
2505,417242
2506,417405
2507,417557
2508,417809
2509,418025
2510,418164
2511,418371
2512,418593
2513,418770
2514,419007
2515,419175
2516,419348
2517,419607
2518,419758
2519,419882
2520,420075
2521,420228
2522,420372
2523,420524
2524,420685
2525,420834
2526,420971
2527,421123
2528,421281
2529,421462
2530,421663
2531,421851
2532,422053
2533,422228
2534,422374
2535,422568
2536,422728
2537,422866
2538,423032
2539,423185
2540,423352
2541,423513
2542,423720
2543,423912
2544,424061
2545,424223
2546,424379
2547,424513
2548,424844
2549,425013
2550,425172
2551,425364
2552,425564
2553,425768
2554,425934
2555,426087
2556,426224
2557,426432
2558,426574
2559,426783
2560,426942
2561,427174
2562,427344
2563,427492
2564,427649
2565,427797
2566,427925
2567,428168
2568,428318
2569,428514
2570,428647
2571,428794
2572,429005
2573,429200
2574,429363
2575,429579
2576,429717
2577,429947
2578,430081
2579,430257
2580,430399
2581,430589
2582,430721
2583,430890
2584,431018
2585,431187
2586,431407
2587,431618
2588,431790
2589,431939
2590,432059
2591,432191
2592,432374
2593,432567
2594,432752
2595,432896
2596,433058
2597,433176
2598,433349
2599,433492
2600,433663
2601,433797
2602,433984
2603,434164
2604,434275
2605,434551
2606,434709
2607,434900
2608,435105
2609,435297
2610,435434
2611,435579
2612,435725
2613,435934
2614,436109
2615,436239
2616,436475
2617,436622
2618,436768
2619,436949
2620,437104
2621,437227
2622,437448
2623,437654
2624,437780
2625,437964
2626,438148
2627,438337
2628,438481
2629,438702
2630,438874
2631,439073
2632,439273
2633,439487
2634,439675
2635,439892
2636,441390
2637,441845
2638,441983
2639,442153
2640,442372
2641,442580
2642,442781
2643,443053
2644,443250
2645,443425
2646,443620
2647,443764
2648,443955
2649,444137
2650,444329
2651,444906
2652,445048
2653,445222
2654,445349
2655,445512
2656,445640
2657,445834
2658,446016
2659,446183
2660,446342
2661,446484
2662,446751
2663,446956
2664,447155
2665,447298
2666,447433
2667,447583
2668,447736
2669,447884
2670,448007
2671,448146
2672,448283
2673,448445
2674,448581
2675,448833
2676,448976
2677,449147
2678,449319
2679,449467
2680,449627
2681,449749
2682,449918
2683,450057
2684,450210
2685,450377
2686,450583
2687,450767
2688,450907
2689,451058
2690,451257
2691,451375
2692,451571
2693,451705
2694,451904
2695,452072
2696,452315
2697,452437
2698,452605
2699,452905
2700,453112
2701,453289
2702,453476
2703,453651
2704,453820
2705,454050
2706,454251
2707,454407
2708,454590
2709,454768
2710,454965
2711,455221
2712,455378
2713,455529
2714,455731
2715,455906
2716,456058
2717,456216
2718,456348
2719,456528
2720,456677
2721,456876
2722,457033
2723,457221
2724,457409
2725,457578
2726,457810
2727,457998
2728,458200
2729,458378
2730,458555
2731,458756
2732,458915
2733,459069
2734,459204
2735,459383
2736,459542
2737,459719
2738,459860
2739,460015
2740,460220
2741,460341
2742,460474
2743,460657
2744,460781
2745,460909
2746,461073
2747,461225
2748,461360
2749,461554
2750,461696
2751,461852
2752,462030
2753,462298
2754,462442
2755,462623
2756,462793
2757,463059
2758,463271
2759,463501
2760,463646
2761,463806
2762,463978
2763,464190
2764,464356
2765,464497
2766,464645
2767,464780
2768,464906
2769,465062
2770,465196
2771,465368
2772,465617
2773,465761
2774,465989
2775,466143
2776,466362
2777,466511
2778,466650
2779,466777
2780,466941
2781,467133
2782,467331
2783,467499
2784,467716
2785,467936
2786,468094
2787,468208
2788,468441
2789,468595
2790,468723
2791,468849
2792,468984
2793,469174
2794,469353
2795,469551
2796,469701
2797,469853
2798,470001
2799,470151
2800,470355
2801,470507
2802,470697
2803,470864
2804,471012
2805,471169
2806,471290
2807,471415
2808,471519
2809,471746
2810,471909
2811,472084
2812,472317
2813,472530
2814,472660
2815,472835
2816,473028
2817,473222
2818,473386
2819,473553
2820,473756
2821,473922
2822,474051
2823,474171
2824,474376
2825,474554
2826,474670
2827,474796
2828,474959
2829,475150
2830,475286
2831,475448
2832,475601
2833,475786
2834,475919
2835,476071
2836,476200
2837,476325
2838,476507
2839,476624
2840,476794
2841,476902
2842,477029
2843,477252
2844,477504
2845,477759
2846,477962
2847,478175
2848,478345
2849,478471
2850,478614
2851,478751
2852,478929
2853,479047
2854,479185
2855,479315
2856,479486
2857,479672
2858,479840
2859,479986
2860,480152
2861,480306
2862,480434
2863,480615
2864,480854
2865,481027
2866,481213
2867,481423
2868,481598
2869,481745
2870,481956
2871,482088
2872,482214
2873,482356
2874,482541
2875,482696
2876,482817
2877,482943
2878,483098
2879,483273
2880,483406
2881,483598
2882,483705
2883,483872
2884,484026
2885,484168
2886,484313
2887,484441
2888,484618
2889,484820
2890,484992
2891,485205
2892,485324
2893,485492
2894,485699
2895,485861
2896,485991
2897,486219
2898,486438
2899,486636
2900,487646
2901,488038
2902,488282
2903,488452
2904,489254
2905,489438
2906,495029
2907,495346
2908,495540
2909,496341
2910,496500
2911,496716
2912,496843
2913,496982
2914,497145
2915,497341
2916,497529
2917,497729
2918,497947
2919,498081
2920,498245
2921,498370
2922,498555
2923,498678
2924,498825
2925,499013
2926,499158
2927,499301
2928,499473
2929,499613
2930,499758
2931,499946
2932,500074
2933,500257
2934,500380
2935,500554
2936,500703
2937,500873
2938,501033
2939,501250
2940,501374
2941,501537
2942,501683
2943,501883
2944,502080
2945,502221
2946,502392
2947,502596
2948,502745
2949,502924
2950,503122
2951,503326
2952,503517
2953,503767
2954,503981
2955,504116
2956,504256
2957,504430
2958,504585
2959,504762
2960,504911
2961,505048
2962,505246
2963,505382
2964,505561
2965,505781
2966,505927
2967,506085
2968,506265
2969,506424
2970,506575
2971,506745
2972,506921
2973,507106
2974,507300
2975,507469
2976,507610
2977,507800
2978,507940
2979,508168
2980,508338
2981,508489
2982,508648
2983,508819
2984,509059
2985,509255
2986,509440
2987,509592
2988,509799
2989,509951
2990,510144
2991,510365
2992,510508
2993,510657
2994,510801
2995,510980
2996,511136
2997,511309
2998,511431
2999,511558
3000,511748
3001,511933
3002,512123
3003,512336
3004,512536
3005,512668
3006,512861
3007,513073
3008,513270
3009,513396
3010,513608
3011,513809
3012,514078
3013,514223
3014,514404
3015,514524
3016,514737
3017,514989
3018,515127
3019,515264
3020,515416
3021,515589
3022,515761
3023,516009
3024,516311
3025,516511
3026,516702
3027,516816
3028,517001
3029,517194
3030,517365
3031,517563
3032,517742
3033,518012
3034,518143
3035,518322
3036,518520
3037,518761
3038,518904
3039,519044
3040,519291
3041,519421
3042,519555
3043,519750
3044,519935
3045,520108
3046,520275
3047,520422
3048,520625
3049,520810
3050,521020
3051,521233
3052,521367
3053,521553
3054,521711
3055,521867
3056,522052
3057,522236
3058,522447
3059,522587
3060,522697
3061,522888
3062,523084
3063,523287
3064,523421
3065,523596
3066,523778
3067,523926
3068,524058
3069,524236
3070,524419
3071,524639
3072,524784
3073,524934
3074,525100
3075,525235
3076,525413
3077,525591
3078,525796
3079,525980
3080,526170
3081,526401
3082,526603
3083,526746
3084,526928
3085,527122
3086,527279
3087,527437
3088,527651
3089,527853
3090,527991
3091,528202
3092,528341
3093,528554
3094,528724
3095,528908
3096,529103
3097,529235
3098,529413
3099,529582
3100,529800
3101,529977
3102,530137
3103,530300
3104,530427
3105,530658
3106,530843
3107,530989
3108,531111
3109,531248
3110,531377
3111,531522
3112,531728
3113,531905
3114,532033
3115,532182
3116,532393
3117,532591
3118,532726
3119,532977
3120,533172
3121,533343
3122,533483
3123,533668
3124,533845
3125,533965
3126,534148
3127,534327
3128,534490
3129,534640
3130,534850
3131,535060
3132,535203
3133,535393
3134,535592
3135,535828
3136,536007
3137,536170
3138,536304
3139,536439
3140,536615
3141,536776
3142,536967
3143,537123
3144,537269
3145,537464
3146,537635
3147,537800
3148,537933
3149,538135
3150,538317
3151,538500
3152,538675
3153,538850
3154,539017
3155,539247
3156,539617
3157,539765
3158,539943
3159,540064
3160,540261
3161,540416
3162,540598
3163,540719
3164,540933
3165,541118
3166,541283
3167,541416
3168,541621
3169,541778
3170,541920
3171,542074
3172,542219
3173,542356
3174,542509
3175,542705
3176,542908
3177,543045
3178,543250
3179,543413
3180,543628
3181,543827
3182,544034
3183,544187
3184,544332
3185,544506
3186,544686
3187,544888
3188,545033
3189,545178
3190,545403
3191,545644
3192,545852
3193,546030
3194,546188
3195,546419
3196,546559
3197,546754
3198,546906
3199,547127
3200,547295
3201,547505
3202,547693
3203,547835
3204,548040
3205,548237
3206,548390
3207,548591
3208,548808
3209,549021
3210,549320
3211,549469
3212,549646
3213,549816
3214,549956
3215,550132
3216,550267
3217,550461
3218,550666
3219,550860
3220,551058
3221,551249
3222,551444
3223,551604
3224,551799
3225,551995
3226,552130
3227,552258
3228,552394
3229,552563
3230,552696
3231,552893
3232,553091
3233,553226
3234,553395
3235,553578
3236,553746
3237,553863
3238,554126
3239,554270
3240,554431
3241,554567
3242,554698
3243,554868
3244,555069
3245,555266
3246,555409
3247,555574
3248,555682
3249,555805
3250,555971
3251,556105
3252,556271
3253,556404
3254,556678
3255,556801
3256,556930
3257,557065
3258,557217
3259,557443
3260,557570
3261,557750
3262,557904
3263,558073
3264,558291
3265,558477
3266,558589
3267,558694
3268,558829
3269,558963
3270,559134
3271,559278
3272,559456
3273,559599
3274,559733
3275,559918
3276,560071
3277,560317
3278,560518
3279,560717
3280,560890
3281,561052
3282,561213
3283,561358
3284,561476
3285,561602
3286,561781
3287,561922
3288,562069
3289,562215
3290,562378
3291,562657
3292,562889
3293,563084
3294,563332
3295,563535
3296,563677
3297,563830
3298,564004
3299,564136
3300,564315
3301,564460
3302,564671
3303,564831
3304,564985
3305,565130
3306,565311
3307,565509
3308,565666
3309,565799
3310,565917
3311,566089
3312,566203
3313,566345
3314,566491
3315,566636
3316,566814
3317,566997
3318,567198
3319,567340
3320,567487
3321,567655
3322,567809
3323,567936
3324,568088
3325,568221
3326,568378
3327,568514
3328,568672
3329,568804
3330,568954
3331,569084
3332,569240
3333,569378
3334,569541
3335,569675
3336,569827
3337,569961
3338,570110
3339,570249
3340,570408
3341,570606
3342,570794
3343,570963
3344,571155
3345,571439
3346,571634
3347,571805
3348,571970
3349,572105
3350,572361
3351,572499
3352,572668
3353,572853
3354,573012
3355,573211
3356,573388
3357,573649
3358,573870
3359,574038
3360,574210
3361,574425
3362,574594
3363,574787
3364,575014
3365,575179
3366,575328
3367,575500
3368,575663
3369,575777
3370,575996
3371,576177
3372,576317
3373,576487
3374,576680
3375,576906
3376,577045
3377,577228
3378,577368
3379,577549
3380,577687
3381,577828
3382,578028
3383,578229
3384,578430
3385,578556
3386,578748
3387,578915
3388,579068
3389,579208
3390,579365
3391,579489
3392,579693
3393,579895
3394,580023
3395,580167
3396,580357
3397,580545
3398,580657
3399,580793
3400,580958
3401,581077
3402,581184
3403,581343
3404,581481
3405,581646
3406,581786
3407,581904
3408,582044
3409,582189
3410,582304
3411,582454
3412,582625
3413,582750
3414,582914
3415,583116
3416,583295
3417,583421
3418,583644
3419,583830
3420,583984
3421,584160
3422,584353
3423,584559
3424,584725
3425,584925
3426,585110
3427,585263
3428,585563
3429,585731
3430,585932
3431,586143
3432,586337
3433,586551
3434,586674
3435,586829
3436,587032
3437,587188
3438,587337
3439,587472
3440,587638
3441,587828
3442,588005
3443,588183
3444,588340
3445,588518
3446,588694
3447,588835
3448,589058
3449,589211
3450,589384
3451,589567
3452,589707
3453,589897
3454,590070
3455,590232
3456,590372
3457,590601
3458,590861
3459,591041
3460,591179
3461,591390
3462,591576
3463,591797
3464,591953
3465,592177
3466,592383
3467,592555
3468,592771
3469,592925
3470,593145
3471,593286
3472,593465
3473,593629
3474,593855
3475,594075
3476,594261
3477,594424
3478,594589
3479,594764
3480,594938
3481,595274
3482,595432
3483,595577
3484,595811
3485,596014
3486,596186
3487,596399
3488,596578
3489,596752
3490,596972
3491,597118
3492,597277
3493,597394
3494,597584
3495,597720
3496,597929
3497,598142
3498,598332
3499,598549
3500,598729
3501,598869
3502,599047
3503,599247
3504,599473
3505,599671
3506,599918
3507,600111
3508,600235
3509,600397
3510,600599
3511,600760
3512,600933
3513,601113
3514,601236
3515,601350
3516,601474
3517,601658
3518,601789
3519,601985
3520,602228
3521,602395
3522,602587
3523,602796
3524,603104
3525,603276
3526,603452
3527,603587
3528,603794
3529,604004
3530,604182
3531,604466
3532,604664
3533,604785
3534,604968
3535,605145
3536,605296
3537,605496
3538,605674
3539,605809
3540,605946
3541,606100
3542,606238
3543,606442
3544,606635
3545,606798
3546,606951
3547,607135
3548,607327
3549,607535
3550,607733
3551,607896
3552,608134
3553,608432
3554,608657
3555,608859
3556,609032
3557,609194
3558,609445
3559,609607
3560,609804
3561,609984
3562,610162
3563,610313
3564,610501
3565,610688
3566,610842
3567,610997
3568,611158
3569,611297
3570,611480
3571,611605
3572,611740
3573,611902
3574,612103
3575,612296
3576,612474
3577,612672
3578,612805
3579,613014
3580,613186
3581,613341
3582,613474
3583,613669
3584,613848
3585,614011
3586,614201
3587,614334
3588,614521
3589,614704
3590,614925
3591,615130
3592,615317
3593,615529
3594,615703
3595,615870
3596,616030
3597,616258
3598,616380
3599,616529
3600,616673
3601,616805
3602,617047
3603,617264
3604,617460
3605,617588
3606,617771
3607,617986
3608,618176
3609,618326
3610,618508
3611,618659
3612,618846
3613,619017
3614,619226
3615,619405
3616,619528
3617,619674
3618,619827
3619,620027
3620,620221
3621,620396
3622,620597
3623,620763
3624,620911
3625,621084
3626,621241
3627,621481
3628,621620
3629,621767
3630,621924
3631,622072
3632,622307
3633,622488
3634,622634
3635,622854
3636,623011
3637,623165
3638,623302
3639,623482
3640,623634
3641,623806
3642,623998
3643,624196
3644,624338
3645,624525
3646,624664
3647,624889
3648,625091
3649,625221
3650,625454
3651,625640
3652,625835
3653,626017
3654,626188
3655,626324
3656,626457
3657,626595
3658,626778
3659,626979
3660,627164
3661,627337
3662,627549
3663,627717
3664,627880
3665,628082
3666,628397
3667,628609
3668,628773
3669,628930
3670,629065
3671,629261
3672,629488
3673,629696
3674,629889
3675,630112
3676,630340
3677,630558
3678,630791
3679,630982
3680,631175
3681,631312
3682,631517
3683,631671
3684,631811
3685,631959
3686,632089
3687,632249
3688,632414
3689,632630
3690,632753
3691,632956
3692,633119
3693,633314
3694,633509
3695,633640
3696,633827
3697,634023
3698,634220
3699,634380
3700,634614
3701,634832
3702,634988
3703,635131
3704,635344
3705,635505
3706,635695
3707,635830
3708,636004
3709,636178
3710,636338
3711,636482
3712,636670
3713,636875
3714,637048
3715,637251
3716,637433
3717,637645
3718,637823
3719,637952
3720,638135
3721,638329
3722,638526
3723,638656
3724,638812
3725,638964
3726,639136
3727,639340
3728,639486
3729,639672
3730,639818
3731,639987
3732,640170
3733,640506
3734,640695
3735,640849
3736,641017
3737,641194
3738,641413
3739,641630
3740,641823
3741,642001
3742,642146
3743,642306
3744,642488
3745,642669
3746,642869
3747,643032
3748,643224
3749,643434
3750,643590
3751,643803
3752,644006
3753,644176
3754,644388
3755,644516
3756,644708
3757,644948
3758,645132
3759,645333
3760,645476
3761,645794
3762,646082
3763,646234
3764,646368
3765,646505
3766,646669
3767,646827
3768,646948
3769,647088
3770,647207
3771,647324
3772,647519
3773,647725
3774,647875
3775,648022
3776,648140
3777,648261
3778,648454
3779,648579
3780,648711
3781,648856
3782,649017
3783,649172
3784,649343
3785,649538
3786,649761
3787,649885
3788,650050
3789,650163
3790,650349
3791,650544
3792,650681
3793,650868
3794,651048
3795,651175
3796,651462
3797,651611
3798,651760
3799,651949
3800,652152
3801,652326
3802,652483
3803,652641
3804,652820
3805,653086
3806,653272
3807,653483
3808,653666
3809,653895
3810,654076
3811,654201
3812,654336
3813,654511
3814,654665
3815,654816
