,ECG,PPG
0,-0.043,-0.401
1,-0.057,-0.401
2,-0.072,-0.401
3,-0.087,-0.401
4,-0.087,-0.405
5,-0.102,-0.405
6,-0.102,-0.405
7,-0.102,-0.405
8,-0.102,-0.407
9,-0.102,-0.407
10,-0.087,-0.407
11,-0.087,-0.407
12,-0.087,-0.411
13,-0.072,-0.411
14,-0.087,-0.411
15,-0.087,-0.411
16,-0.072,-0.414
17,-0.072,-0.414
18,-0.072,-0.414
19,-0.072,-0.414
20,-0.072,-0.417
21,-0.072,-0.417
22,-0.072,-0.417
23,-0.072,-0.417
24,-0.072,-0.421
25,-0.057,-0.421
26,-0.057,-0.421
27,-0.057,-0.421
28,-0.057,-0.426
29,-0.043,-0.426
30,-0.028,-0.426
31,-0.013,-0.426
32,0.001,-0.431
33,0.001,-0.431
34,0.001,-0.431
35,0.001,-0.431
36,0.015,-0.435
37,0.015,-0.435
38,0.030,-0.435
39,0.045,-0.435
40,0.059,-0.440
41,0.059,-0.440
42,0.074,-0.440
43,0.074,-0.440
44,0.089,-0.444
45,0.104,-0.444
46,0.104,-0.444
47,0.118,-0.444
48,0.148,-0.448
49,0.148,-0.448
50,0.162,-0.448
51,0.177,-0.448
52,0.162,-0.453
53,0.177,-0.453
54,0.192,-0.453
55,0.192,-0.453
56,0.207,-0.458
57,0.207,-0.458
58,0.207,-0.458
59,0.207,-0.458
60,0.221,-0.463
61,0.235,-0.463
62,0.250,-0.463
63,0.250,-0.463
64,0.265,-0.463
65,0.279,-0.463
66,0.279,-0.463
67,0.279,-0.463
68,0.279,-0.468
69,0.279,-0.468
70,0.279,-0.468
71,0.265,-0.468
72,0.250,-0.470
73,0.250,-0.470
74,0.235,-0.470
75,0.221,-0.470
76,0.207,-0.470
77,0.192,-0.470
78,0.192,-0.470
79,0.162,-0.470
80,0.148,-0.468
81,0.133,-0.468
82,0.118,-0.468
83,0.104,-0.468
84,0.089,-0.459
85,0.074,-0.459
86,0.059,-0.459
87,0.045,-0.459
88,0.030,-0.442
89,0.015,-0.442
90,0.015,-0.442
91,0.015,-0.442
92,0.015,-0.414
93,0.001,-0.414
94,-0.013,-0.414
95,-0.028,-0.414
96,-0.043,-0.373
97,-0.043,-0.373
98,-0.057,-0.373
99,-0.072,-0.373
100,-0.087,-0.321
101,-0.087,-0.321
102,-0.102,-0.321
103,-0.102,-0.321
104,-0.102,-0.255
105,-0.102,-0.255
106,-0.102,-0.255
107,-0.102,-0.255
108,-0.087,-0.178
109,-0.087,-0.178
110,-0.072,-0.178
111,-0.072,-0.178
112,-0.072,-0.095
113,-0.072,-0.095
114,-0.072,-0.095
115,-0.072,-0.095
116,-0.072,-0.007
117,-0.072,-0.007
118,-0.057,-0.007
119,-0.057,-0.007
120,-0.057,0.081
121,-0.057,0.081
122,-0.057,0.081
123,-0.057,0.081
124,-0.057,0.164
125,-0.057,0.164
126,-0.043,0.164
127,-0.028,0.164
128,-0.028,0.240
129,-0.028,0.240
130,-0.028,0.240
131,-0.028,0.240
132,-0.028,0.305
133,-0.028,0.305
134,-0.028,0.305
135,-0.013,0.305
136,-0.013,0.359
137,0.001,0.359
138,0.015,0.359
139,0.030,0.359
140,0.045,0.402
141,0.059,0.402
142,0.045,0.402
143,0.045,0.402
144,0.030,0.432
145,0.030,0.432
146,0.015,0.432
147,0.015,0.432
148,0.015,0.452
149,0.015,0.452
150,0.001,0.452
151,0.001,0.452
152,0.001,0.463
153,0.001,0.463
154,0.001,0.463
155,0.001,0.463
156,-0.013,0.466
157,-0.013,0.466
158,-0.013,0.466
159,-0.028,0.466
160,-0.028,0.460
161,-0.028,0.460
162,-0.043,0.460
163,-0.057,0.460
164,-0.057,0.448
165,-0.057,0.448
166,-0.057,0.448
167,-0.057,0.448
168,-0.072,0.429
169,-0.057,0.429
170,-0.072,0.429
171,-0.072,0.429
172,-0.072,0.405
173,-0.072,0.405
174,-0.072,0.405
175,-0.072,0.405
176,-0.072,0.375
177,-0.072,0.375
178,-0.072,0.375
179,-0.072,0.375
180,-0.087,0.342
181,-0.087,0.342
182,-0.087,0.342
183,-0.102,0.342
184,-0.087,0.302
185,-0.072,0.302
186,-0.072,0.302
187,-0.072,0.302
188,-0.057,0.260
189,-0.057,0.260
190,-0.057,0.260
191,-0.072,0.260
192,-0.072,0.215
193,-0.072,0.215
194,-0.072,0.215
195,-0.072,0.215
196,-0.072,0.169
197,-0.057,0.169
198,-0.057,0.169
199,-0.057,0.169
200,-0.057,0.122
201,-0.057,0.122
202,-0.057,0.122
203,-0.043,0.122
204,-0.043,0.073
205,-0.057,0.073
206,-0.057,0.073
207,-0.057,0.073
208,-0.057,0.028
209,-0.057,0.028
210,-0.057,0.028
211,-0.072,0.028
212,-0.057,-0.018
213,-0.057,-0.018
214,-0.057,-0.018
215,-0.028,-0.018
216,-0.013,-0.059
217,-0.013,-0.059
218,-0.013,-0.059
219,-0.013,-0.059
220,0.001,-0.100
221,0.001,-0.100
222,0.001,-0.100
223,-0.013,-0.100
224,0.001,-0.137
225,0.001,-0.137
226,0.001,-0.137
227,0.001,-0.137
228,-0.013,-0.170
229,-0.013,-0.170
230,-0.013,-0.170
231,-0.028,-0.170
232,-0.028,-0.200
233,-0.043,-0.200
234,-0.057,-0.200
235,-0.043,-0.200
236,-0.043,-0.225
237,-0.057,-0.225
238,-0.057,-0.225
239,-0.057,-0.225
240,-0.057,-0.247
241,-0.057,-0.247
242,-0.057,-0.247
243,-0.057,-0.247
244,-0.043,-0.267
245,-0.028,-0.267
246,-0.013,-0.267
247,-0.013,-0.267
248,0.001,-0.282
249,0.001,-0.282
250,0.030,-0.282
251,0.074,-0.282
252,0.162,-0.297
253,0.221,-0.297
254,0.309,-0.297
255,0.426,-0.297
256,0.470,-0.308
257,0.455,-0.308
258,0.412,-0.308
259,0.324,-0.308
260,0.162,-0.319
261,0.030,-0.319
262,-0.072,-0.319
263,-0.205,-0.319
264,-0.292,-0.328
265,-0.366,-0.328
266,-0.439,-0.328
267,-0.497,-0.328
268,-0.512,-0.335
269,-0.512,-0.335
270,-0.512,-0.335
271,-0.497,-0.335
272,-0.453,-0.340
273,-0.395,-0.340
274,-0.336,-0.340
275,-0.277,-0.340
276,-0.219,-0.346
277,-0.160,-0.346
278,-0.146,-0.346
279,-0.116,-0.346
280,-0.102,-0.349
281,-0.102,-0.349
282,-0.102,-0.349
283,-0.102,-0.349
284,-0.087,-0.353
285,-0.087,-0.353
286,-0.087,-0.353
287,-0.072,-0.353
288,-0.072,-0.357
289,-0.072,-0.357
290,-0.072,-0.357
291,-0.072,-0.357
292,-0.072,-0.361
293,-0.072,-0.361
294,-0.057,-0.361
295,-0.057,-0.361
296,-0.057,-0.364
297,-0.057,-0.364
298,-0.057,-0.364
299,-0.057,-0.364
300,-0.028,-0.367
301,-0.028,-0.367
302,-0.013,-0.367
303,0.001,-0.367
304,0.015,-0.372
305,0.030,-0.372
306,0.030,-0.372
307,0.030,-0.372
308,0.030,-0.378
309,0.015,-0.378
310,0.015,-0.378
311,0.015,-0.378
312,0.001,-0.382
313,0.001,-0.382
314,0.001,-0.382
315,0.001,-0.382
316,0.001,-0.387
317,-0.013,-0.387
318,-0.013,-0.387
319,-0.013,-0.387
320,-0.013,-0.409
321,-0.013,-0.409
322,-0.013,-0.409
323,-0.013,-0.409
324,-0.013,-0.416
325,-0.013,-0.416
326,-0.013,-0.416
327,-0.013,-0.416
328,-0.013,-0.424
329,-0.013,-0.424
330,-0.013,-0.424
331,-0.013,-0.424
332,0.001,-0.429
333,0.001,-0.429
334,0.001,-0.429
335,0.015,-0.429
336,0.015,-0.436
337,0.015,-0.436
338,0.015,-0.436
339,0.030,-0.436
340,0.030,-0.443
341,0.045,-0.443
342,0.059,-0.443
343,0.074,-0.443
344,0.074,-0.449
345,0.089,-0.449
346,0.104,-0.449
347,0.118,-0.449
348,0.133,-0.455
349,0.148,-0.455
350,0.162,-0.455
351,0.162,-0.455
352,0.177,-0.461
353,0.192,-0.461
354,0.192,-0.461
355,0.207,-0.461
356,0.207,-0.468
357,0.207,-0.468
358,0.207,-0.468
359,0.207,-0.468
360,0.221,-0.474
361,0.221,-0.474
362,0.221,-0.474
363,0.235,-0.474
364,0.235,-0.479
365,0.250,-0.479
366,0.250,-0.479
367,0.250,-0.479
368,0.250,-0.485
369,0.250,-0.485
370,0.235,-0.485
371,0.235,-0.485
372,0.235,-0.488
373,0.221,-0.488
374,0.221,-0.488
375,0.221,-0.488
376,0.207,-0.490
377,0.207,-0.490
378,0.207,-0.490
379,0.192,-0.490
380,0.192,-0.488
381,0.162,-0.488
382,0.162,-0.488
383,0.148,-0.488
384,0.133,-0.479
385,0.118,-0.479
386,0.118,-0.479
387,0.104,-0.479
388,0.104,-0.463
389,0.104,-0.463
390,0.104,-0.463
391,0.104,-0.463
392,0.089,-0.435
393,0.074,-0.435
394,0.074,-0.435
395,0.059,-0.435
396,0.059,-0.394
397,0.045,-0.394
398,0.030,-0.394
399,0.030,-0.394
400,0.030,-0.339
401,0.015,-0.339
402,0.015,-0.339
403,0.001,-0.339
404,0.001,-0.272
405,0.001,-0.272
406,-0.013,-0.272
407,-0.013,-0.272
408,-0.013,-0.190
409,-0.028,-0.190
410,-0.028,-0.190
411,-0.028,-0.190
412,-0.013,-0.101
413,-0.028,-0.101
414,-0.028,-0.101
415,-0.028,-0.101
416,-0.028,-0.007
417,-0.043,-0.007
418,-0.043,-0.007
419,-0.028,-0.007
420,-0.028,0.087
421,-0.013,0.087
422,-0.013,0.087
423,-0.013,0.087
424,-0.013,0.178
425,-0.013,0.178
426,-0.013,0.178
427,-0.028,0.178
428,-0.028,0.263
429,-0.028,0.263
430,-0.028,0.263
431,-0.013,0.263
432,-0.013,0.336
433,-0.013,0.336
434,-0.013,0.336
435,0.001,0.336
436,0.001,0.397
437,-0.013,0.397
438,0.001,0.397
439,0.001,0.397
440,0.001,0.446
441,0.001,0.446
442,0.001,0.446
443,-0.013,0.446
444,-0.013,0.481
445,-0.013,0.481
446,0.001,0.481
447,0.001,0.481
448,0.001,0.507
449,0.001,0.507
450,0.001,0.507
451,0.001,0.507
452,0.001,0.520
453,-0.013,0.520
454,-0.013,0.520
455,-0.013,0.520
456,-0.013,0.523
457,-0.013,0.523
458,-0.013,0.523
459,-0.028,0.523
460,-0.028,0.519
461,-0.043,0.519
462,-0.043,0.519
463,-0.043,0.519
464,-0.043,0.505
465,-0.028,0.505
466,-0.028,0.505
467,-0.013,0.505
468,-0.013,0.487
469,0.001,0.487
470,0.001,0.487
471,0.015,0.487
472,0.030,0.463
473,0.030,0.463
474,0.015,0.463
475,0.001,0.463
476,0.015,0.432
477,0.001,0.432
478,0.001,0.432
479,0.001,0.432
480,0.001,0.396
481,0.001,0.396
482,-0.013,0.396
483,-0.013,0.396
484,-0.028,0.356
485,-0.028,0.356
486,-0.028,0.356
487,-0.028,0.356
488,-0.028,0.310
489,-0.043,0.310
490,-0.057,0.310
491,-0.057,0.310
492,-0.072,0.263
493,-0.072,0.263
494,-0.072,0.263
495,-0.057,0.263
496,-0.057,0.213
497,-0.057,0.213
498,-0.072,0.213
499,-0.072,0.213
500,-0.087,0.161
501,-0.102,0.161
502,-0.102,0.161
503,-0.087,0.161
504,-0.087,0.108
505,-0.087,0.108
506,-0.087,0.108
507,-0.087,0.108
508,-0.072,0.056
509,-0.072,0.056
510,-0.072,0.056
511,-0.072,0.056
512,-0.072,0.004
513,-0.072,0.004
514,-0.072,0.004
515,-0.072,0.004
516,-0.072,-0.045
517,-0.072,-0.045
518,-0.072,-0.045
519,-0.072,-0.045
520,-0.072,-0.092
521,-0.072,-0.092
522,-0.057,-0.092
523,-0.057,-0.092
524,-0.028,-0.136
525,-0.028,-0.136
526,-0.028,-0.136
527,-0.028,-0.136
528,-0.028,-0.174
529,-0.028,-0.174
530,-0.043,-0.174
531,-0.043,-0.174
532,-0.043,-0.210
533,-0.028,-0.210
534,-0.028,-0.210
535,-0.028,-0.210
536,-0.028,-0.240
537,-0.013,-0.240
538,-0.013,-0.240
539,-0.013,-0.240
540,-0.013,-0.268
541,-0.013,-0.268
542,-0.013,-0.268
543,0.001,-0.268
544,0.001,-0.291
545,0.001,-0.291
546,0.015,-0.291
547,0.030,-0.291
548,0.074,-0.309
549,0.133,-0.309
550,0.207,-0.309
551,0.294,-0.309
552,0.397,-0.327
553,0.499,-0.327
554,0.558,-0.327
555,0.558,-0.327
556,0.529,-0.340
557,0.441,-0.340
558,0.294,-0.340
559,0.148,-0.340
560,0.015,-0.352
561,-0.102,-0.352
562,-0.175,-0.352
563,-0.248,-0.352
564,-0.307,-0.359
565,-0.351,-0.359
566,-0.380,-0.359
567,-0.395,-0.359
568,-0.410,-0.368
569,-0.410,-0.368
570,-0.395,-0.368
571,-0.351,-0.368
572,-0.292,-0.375
573,-0.248,-0.375
574,-0.205,-0.375
575,-0.160,-0.375
576,-0.146,-0.384
577,-0.116,-0.384
578,-0.102,-0.384
579,-0.102,-0.384
580,-0.087,-0.389
581,-0.087,-0.389
582,-0.072,-0.389
583,-0.072,-0.389
584,-0.072,-0.395
585,-0.087,-0.395
586,-0.102,-0.395
587,-0.102,-0.395
588,-0.102,-0.399
589,-0.102,-0.399
590,-0.102,-0.399
591,-0.102,-0.399
592,-0.102,-0.404
593,-0.087,-0.404
594,-0.087,-0.404
595,-0.087,-0.404
596,-0.072,-0.406
597,-0.087,-0.406
598,-0.102,-0.406
599,-0.102,-0.406
600,-0.102,-0.412
601,-0.087,-0.412
602,-0.072,-0.412
603,-0.072,-0.412
604,-0.072,-0.415
605,-0.072,-0.415
606,-0.072,-0.415
607,-0.072,-0.415
608,-0.072,-0.419
609,-0.072,-0.419
610,-0.072,-0.419
611,-0.072,-0.419
612,-0.072,-0.424
613,-0.072,-0.424
614,-0.057,-0.424
615,-0.057,-0.424
616,-0.057,-0.429
617,-0.043,-0.429
618,-0.043,-0.429
619,-0.028,-0.429
620,-0.028,-0.432
621,-0.028,-0.432
622,-0.028,-0.432
623,-0.028,-0.432
624,-0.013,-0.438
625,-0.013,-0.438
626,-0.013,-0.438
627,0.001,-0.438
628,0.001,-0.444
629,0.015,-0.444
630,0.030,-0.444
631,0.059,-0.444
632,0.089,-0.451
633,0.118,-0.451
634,0.133,-0.451
635,0.148,-0.451
636,0.162,-0.459
637,0.177,-0.459
638,0.192,-0.459
639,0.192,-0.459
640,0.192,-0.467
641,0.192,-0.467
642,0.207,-0.467
643,0.207,-0.467
644,0.207,-0.476
645,0.207,-0.476
646,0.207,-0.476
647,0.207,-0.476
648,0.192,-0.483
649,0.192,-0.483
650,0.192,-0.483
651,0.207,-0.483
652,0.235,-0.492
653,0.235,-0.492
654,0.235,-0.492
655,0.250,-0.492
656,0.250,-0.500
657,0.235,-0.500
658,0.235,-0.500
659,0.235,-0.500
660,0.250,-0.508
661,0.250,-0.508
662,0.250,-0.508
663,0.235,-0.508
664,0.235,-0.516
665,0.235,-0.516
666,0.221,-0.516
667,0.207,-0.516
668,0.221,-0.521
669,0.221,-0.521
670,0.235,-0.521
671,0.221,-0.521
672,0.221,-0.526
673,0.221,-0.526
674,0.221,-0.526
675,0.221,-0.526
676,0.192,-0.528
677,0.192,-0.528
678,0.162,-0.528
679,0.148,-0.528
680,0.133,-0.522
681,0.118,-0.522
682,0.118,-0.522
683,0.104,-0.522
684,0.104,-0.514
685,0.104,-0.514
686,0.104,-0.514
687,0.089,-0.514
688,0.059,-0.493
689,0.045,-0.493
690,0.015,-0.493
691,0.001,-0.493
692,0.001,-0.462
693,0.001,-0.462
694,0.001,-0.462
695,0.001,-0.462
696,-0.013,-0.417
697,-0.013,-0.417
698,-0.013,-0.417
699,-0.013,-0.417
700,-0.013,-0.361
701,-0.013,-0.361
702,-0.028,-0.361
703,-0.028,-0.361
704,-0.043,-0.290
705,-0.043,-0.290
706,-0.028,-0.290
707,-0.013,-0.290
708,-0.013,-0.211
709,-0.013,-0.211
710,-0.013,-0.211
711,-0.013,-0.211
712,-0.028,-0.123
713,-0.028,-0.123
714,-0.028,-0.123
715,-0.043,-0.123
716,-0.028,-0.032
717,-0.013,-0.032
718,-0.013,-0.032
719,0.001,-0.032
720,0.001,0.060
721,0.001,0.060
722,0.015,0.060
723,0.030,0.060
724,0.045,0.144
725,0.059,0.144
726,0.074,0.144
727,0.089,0.144
728,0.104,0.221
729,0.104,0.221
730,0.104,0.221
731,0.089,0.221
732,0.074,0.287
733,0.059,0.287
734,0.045,0.287
735,0.030,0.287
736,0.015,0.339
737,0.001,0.339
738,0.015,0.339
739,0.001,0.339
740,0.001,0.380
741,0.001,0.380
742,0.001,0.380
743,0.001,0.380
744,0.001,0.407
745,0.015,0.407
746,0.001,0.407
747,0.001,0.407
748,0.001,0.421
749,0.001,0.421
750,0.001,0.421
751,0.001,0.421
752,-0.013,0.426
753,-0.013,0.426
754,-0.013,0.426
755,-0.013,0.426
756,-0.028,0.424
757,-0.028,0.424
758,-0.028,0.424
759,-0.028,0.424
760,-0.028,0.412
761,-0.028,0.412
762,-0.028,0.412
763,-0.028,0.412
764,-0.013,0.396
765,-0.028,0.396
766,-0.028,0.396
767,-0.013,0.396
768,-0.013,0.371
769,-0.028,0.371
770,-0.028,0.371
771,-0.043,0.371
772,-0.043,0.343
773,-0.057,0.343
774,-0.057,0.343
775,-0.043,0.343
776,-0.028,0.309
777,-0.028,0.309
778,-0.057,0.309
779,-0.057,0.309
780,-0.057,0.270
781,-0.057,0.270
782,-0.057,0.270
783,-0.057,0.270
784,-0.057,0.228
785,-0.043,0.228
786,-0.043,0.228
787,-0.043,0.228
788,-0.057,0.182
789,-0.057,0.182
790,-0.043,0.182
791,-0.057,0.182
792,-0.057,0.133
793,-0.057,0.133
794,-0.057,0.133
795,-0.043,0.133
796,-0.043,0.082
797,-0.043,0.082
798,-0.043,0.082
799,-0.043,0.082
800,-0.043,0.031
801,-0.057,0.031
802,-0.057,0.031
803,-0.043,0.031
804,-0.028,-0.022
805,-0.028,-0.022
806,-0.013,-0.022
807,-0.013,-0.022
808,-0.013,-0.073
809,0.001,-0.073
810,0.001,-0.073
811,0.001,-0.073
812,0.001,-0.122
813,0.015,-0.122
814,0.015,-0.122
815,0.015,-0.122
816,0.030,-0.167
817,0.030,-0.167
818,0.030,-0.167
819,0.030,-0.167
820,0.045,-0.207
821,0.045,-0.207
822,0.030,-0.207
823,0.015,-0.207
824,0.001,-0.247
825,0.001,-0.247
826,-0.013,-0.247
827,-0.013,-0.247
828,0.001,-0.281
829,0.001,-0.281
830,0.015,-0.281
831,0.030,-0.281
832,0.030,-0.303
833,0.015,-0.303
834,0.001,-0.303
835,0.001,-0.303
836,0.015,-0.328
837,0.030,-0.328
838,0.059,-0.328
839,0.059,-0.328
840,0.059,-0.348
841,0.059,-0.348
842,0.059,-0.348
843,0.089,-0.348
844,0.118,-0.366
845,0.192,-0.366
846,0.279,-0.366
847,0.368,-0.366
848,0.485,-0.380
849,0.588,-0.380
850,0.646,-0.380
851,0.617,-0.380
852,0.573,-0.393
853,0.441,-0.393
854,0.279,-0.393
855,0.133,-0.393
856,0.001,-0.402
857,-0.087,-0.402
858,-0.146,-0.402
859,-0.205,-0.402
860,-0.263,-0.407
861,-0.322,-0.407
862,-0.380,-0.407
863,-0.395,-0.407
864,-0.424,-0.414
865,-0.424,-0.414
866,-0.424,-0.414
867,-0.380,-0.414
868,-0.336,-0.418
869,-0.292,-0.418
870,-0.233,-0.418
871,-0.190,-0.418
872,-0.160,-0.421
873,-0.131,-0.421
874,-0.116,-0.421
875,-0.116,-0.421
876,-0.102,-0.424
877,-0.102,-0.424
878,-0.102,-0.424
879,-0.116,-0.424
880,-0.116,-0.425
881,-0.116,-0.425
882,-0.116,-0.425
883,-0.102,-0.425
884,-0.087,-0.427
885,-0.072,-0.427
886,-0.072,-0.427
887,-0.087,-0.427
888,-0.087,-0.428
889,-0.087,-0.428
890,-0.102,-0.428
891,-0.087,-0.428
892,-0.072,-0.430
893,-0.072,-0.430
894,-0.072,-0.430
895,-0.057,-0.430
896,-0.028,-0.430
897,-0.028,-0.430
898,-0.028,-0.430
899,-0.028,-0.430
900,-0.028,-0.431
901,-0.043,-0.431
902,-0.057,-0.431
903,-0.057,-0.431
904,-0.043,-0.431
905,-0.043,-0.431
906,-0.013,-0.431
907,0.001,-0.431
908,0.001,-0.433
909,0.015,-0.433
910,0.030,-0.433
911,0.059,-0.433
912,0.059,-0.434
913,0.074,-0.434
914,0.074,-0.434
915,0.089,-0.434
916,0.074,-0.436
917,0.074,-0.436
918,0.074,-0.436
919,0.059,-0.436
920,0.059,-0.440
921,0.045,-0.440
922,0.045,-0.440
923,0.045,-0.440
924,0.059,-0.441
925,0.059,-0.441
926,0.074,-0.441
927,0.059,-0.441
928,0.059,-0.445
929,0.059,-0.445
930,0.059,-0.445
931,0.045,-0.445
932,0.045,-0.446
933,0.059,-0.446
934,0.059,-0.446
935,0.074,-0.446
936,0.089,-0.449
937,0.104,-0.449
938,0.118,-0.449
939,0.118,-0.449
940,0.148,-0.452
941,0.162,-0.452
942,0.162,-0.452
943,0.162,-0.452
944,0.162,-0.456
945,0.162,-0.456
946,0.162,-0.456
947,0.177,-0.456
948,0.192,-0.457
949,0.192,-0.457
950,0.207,-0.457
951,0.207,-0.457
952,0.192,-0.463
953,0.192,-0.463
954,0.192,-0.463
955,0.192,-0.463
956,0.207,-0.468
957,0.235,-0.468
958,0.235,-0.468
959,0.235,-0.468
960,0.235,-0.472
961,0.235,-0.472
962,0.235,-0.472
963,0.250,-0.472
964,0.235,-0.477
965,0.221,-0.477
966,0.207,-0.477
967,0.207,-0.477
968,0.192,-0.482
969,0.192,-0.482
970,0.192,-0.482
971,0.177,-0.482
972,0.162,-0.483
973,0.148,-0.483
974,0.148,-0.483
975,0.118,-0.483
976,0.118,-0.483
977,0.118,-0.483
978,0.104,-0.483
979,0.104,-0.483
980,0.104,-0.479
981,0.089,-0.479
982,0.074,-0.479
983,0.074,-0.479
984,0.059,-0.463
985,0.059,-0.463
986,0.030,-0.463
987,0.030,-0.463
988,0.030,-0.439
989,0.015,-0.439
990,0.015,-0.439
991,0.015,-0.439
992,0.015,-0.401
993,0.015,-0.401
994,0.030,-0.401
995,0.030,-0.401
996,0.030,-0.349
997,0.059,-0.349
998,0.059,-0.349
999,0.074,-0.349
1000,0.089,-0.284
1001,0.104,-0.284
1002,0.104,-0.284
1003,0.089,-0.284
1004,0.089,-0.206
1005,0.074,-0.206
1006,0.074,-0.206
1007,0.074,-0.206
1008,0.074,-0.120
1009,0.074,-0.120
1010,0.059,-0.120
1011,0.059,-0.120
1012,0.030,-0.029
1013,0.030,-0.029
1014,0.015,-0.029
1015,0.015,-0.029
1016,0.001,0.065
1017,0.001,0.065
1018,0.001,0.065
1019,0.001,0.065
1020,-0.013,0.153
1021,-0.028,0.153
1022,-0.028,0.153
1023,-0.028,0.153
1024,-0.028,0.235
1025,-0.028,0.235
1026,-0.028,0.235
1027,-0.028,0.235
1028,-0.028,0.305
1029,-0.028,0.305
1030,-0.028,0.305
1031,-0.028,0.305
1032,-0.028,0.362
1033,-0.028,0.362
1034,-0.028,0.362
1035,-0.013,0.362
1036,-0.013,0.406
1037,-0.013,0.406
1038,-0.028,0.406
1039,-0.043,0.406
1040,-0.028,0.438
1041,-0.043,0.438
1042,-0.057,0.438
1043,-0.057,0.438
1044,-0.057,0.455
1045,-0.057,0.455
1046,-0.057,0.455
1047,-0.057,0.455
1048,-0.057,0.463
1049,-0.057,0.463
1050,-0.057,0.463
1051,-0.057,0.463
1052,-0.057,0.460
1053,-0.057,0.460
1054,-0.057,0.460
1055,-0.057,0.460
1056,-0.057,0.451
1057,-0.057,0.451
1058,-0.057,0.451
1059,-0.043,0.451
1060,-0.057,0.433
1061,-0.057,0.433
1062,-0.057,0.433
1063,-0.057,0.433
1064,-0.057,0.408
1065,-0.057,0.408
1066,-0.057,0.408
1067,-0.072,0.408
1068,-0.072,0.380
1069,-0.072,0.380
1070,-0.072,0.380
1071,-0.072,0.380
1072,-0.057,0.345
1073,-0.057,0.345
1074,-0.057,0.345
1075,-0.028,0.345
1076,-0.013,0.306
1077,0.001,0.306
1078,0.001,0.306
1079,0.015,0.306
1080,0.015,0.264
1081,0.015,0.264
1082,0.015,0.264
1083,0.001,0.264
1084,0.001,0.217
1085,0.001,0.217
1086,0.015,0.217
1087,0.015,0.217
1088,0.015,0.169
1089,0.015,0.169
1090,0.015,0.169
1091,0.001,0.169
1092,0.001,0.120
1093,0.001,0.120
1094,0.001,0.120
1095,0.001,0.120
1096,0.001,0.070
1097,0.001,0.070
1098,-0.013,0.070
1099,-0.013,0.070
1100,-0.013,0.021
1101,-0.013,0.021
1102,0.001,0.021
1103,0.001,0.021
1104,-0.013,-0.028
1105,-0.043,-0.028
1106,-0.072,-0.028
1107,-0.072,-0.028
1108,-0.072,-0.074
1109,-0.087,-0.074
1110,-0.087,-0.074
1111,-0.072,-0.074
1112,-0.072,-0.117
1113,-0.072,-0.117
1114,-0.072,-0.117
1115,-0.087,-0.117
1116,-0.102,-0.156
1117,-0.102,-0.156
1118,-0.102,-0.156
1119,-0.102,-0.156
1120,-0.102,-0.190
1121,-0.102,-0.190
1122,-0.102,-0.190
1123,-0.102,-0.190
1124,-0.102,-0.222
1125,-0.116,-0.222
1126,-0.116,-0.222
1127,-0.116,-0.222
1128,-0.116,-0.249
1129,-0.116,-0.249
1130,-0.102,-0.249
1131,-0.102,-0.249
1132,-0.102,-0.271
1133,-0.102,-0.271
1134,-0.102,-0.271
1135,-0.102,-0.271
1136,-0.102,-0.290
1137,-0.102,-0.290
1138,-0.116,-0.290
1139,-0.102,-0.290
1140,-0.116,-0.306
1141,-0.102,-0.306
1142,-0.102,-0.306
1143,-0.102,-0.306
1144,-0.102,-0.320
1145,-0.102,-0.320
1146,-0.102,-0.320
1147,-0.102,-0.320
1148,-0.102,-0.329
1149,-0.116,-0.329
1150,-0.102,-0.329
1151,-0.102,-0.329
1152,-0.102,-0.338
1153,-0.102,-0.338
1154,-0.102,-0.338
1155,-0.087,-0.338
1156,-0.102,-0.344
1157,-0.087,-0.344
1158,-0.072,-0.344
1159,-0.057,-0.344
1160,-0.043,-0.349
1161,-0.028,-0.349
1162,-0.028,-0.349
1163,-0.013,-0.349
1164,0.001,-0.353
1165,0.001,-0.353
1166,0.001,-0.353
1167,0.015,-0.353
1168,0.030,-0.358
1169,0.045,-0.358
1170,0.045,-0.358
1171,0.045,-0.358
1172,0.059,-0.363
1173,0.074,-0.363
1174,0.104,-0.363
1175,0.133,-0.363
1176,0.207,-0.365
1177,0.309,-0.365
1178,0.397,-0.365
1179,0.514,-0.365
1180,0.588,-0.368
1181,0.588,-0.368
1182,0.558,-0.368
1183,0.470,-0.368
1184,0.309,-0.372
1185,0.162,-0.372
1186,0.030,-0.372
1187,-0.072,-0.372
1188,-0.160,-0.374
1189,-0.219,-0.374
1190,-0.292,-0.374
1191,-0.351,-0.374
1192,-0.424,-0.377
1193,-0.453,-0.377
1194,-0.483,-0.377
1195,-0.483,-0.377
1196,-0.483,-0.379
1197,-0.439,-0.379
1198,-0.410,-0.379
1199,-0.351,-0.379
1200,-0.307,-0.382
1201,-0.263,-0.382
1202,-0.233,-0.382
1203,-0.205,-0.382
1204,-0.205,-0.385
1205,-0.190,-0.385
1206,-0.190,-0.385
1207,-0.190,-0.385
1208,-0.175,-0.389
1209,-0.175,-0.389
1210,-0.190,-0.389
1211,-0.160,-0.389
1212,-0.160,-0.393
1213,-0.160,-0.393
1214,-0.160,-0.393
1215,-0.160,-0.393
1216,-0.160,-0.398
1217,-0.160,-0.398
1218,-0.160,-0.398
1219,-0.160,-0.398
1220,-0.160,-0.403
1221,-0.160,-0.403
1222,-0.160,-0.403
1223,-0.146,-0.403
1224,-0.146,-0.410
1225,-0.131,-0.410
1226,-0.146,-0.410
1227,-0.131,-0.410
1228,-0.116,-0.417
1229,-0.116,-0.417
1230,-0.116,-0.417
1231,-0.116,-0.417
1232,-0.116,-0.424
1233,-0.131,-0.424
1234,-0.116,-0.424
1235,-0.116,-0.424
1236,-0.102,-0.432
1237,-0.087,-0.432
1238,-0.057,-0.432
1239,-0.043,-0.432
1240,-0.028,-0.440
1241,-0.013,-0.440
1242,0.001,-0.440
1243,0.001,-0.440
1244,0.001,-0.445
1245,0.001,-0.445
1246,0.001,-0.445
1247,0.015,-0.445
1248,0.015,-0.452
1249,0.015,-0.452
1250,0.015,-0.452
1251,0.015,-0.452
1252,0.015,-0.457
1253,0.015,-0.457
1254,0.015,-0.457
1255,0.015,-0.457
1256,0.015,-0.463
1257,0.015,-0.463
1258,0.015,-0.463
1259,0.015,-0.463
1260,0.030,-0.468
1261,0.030,-0.468
1262,0.030,-0.468
1263,0.045,-0.468
1264,0.059,-0.473
1265,0.059,-0.473
1266,0.074,-0.473
1267,0.074,-0.473
1268,0.074,-0.477
1269,0.089,-0.477
1270,0.104,-0.477
1271,0.104,-0.477
1272,0.118,-0.481
1273,0.118,-0.481
1274,0.118,-0.481
1275,0.118,-0.481
1276,0.133,-0.484
1277,0.118,-0.484
1278,0.148,-0.484
1279,0.148,-0.484
1280,0.148,-0.488
1281,0.162,-0.488
1282,0.162,-0.488
1283,0.162,-0.488
1284,0.162,-0.490
1285,0.177,-0.490
1286,0.177,-0.490
1287,0.177,-0.490
1288,0.177,-0.491
1289,0.177,-0.491
1290,0.162,-0.491
1291,0.162,-0.491
1292,0.162,-0.494
1293,0.162,-0.494
1294,0.162,-0.494
1295,0.162,-0.494
1296,0.177,-0.494
1297,0.162,-0.494
1298,0.177,-0.494
1299,0.177,-0.494
1300,0.177,-0.492
1301,0.177,-0.492
1302,0.162,-0.492
1303,0.162,-0.492
1304,0.162,-0.485
1305,0.162,-0.485
1306,0.148,-0.485
1307,0.133,-0.485
1308,0.118,-0.472
1309,0.104,-0.472
1310,0.104,-0.472
1311,0.089,-0.472
1312,0.074,-0.449
1313,0.074,-0.449
1314,0.074,-0.449
1315,0.074,-0.449
1316,0.089,-0.415
1317,0.089,-0.415
1318,0.089,-0.415
1319,0.104,-0.415
1320,0.104,-0.366
1321,0.089,-0.366
1322,0.074,-0.366
1323,0.059,-0.366
1324,0.045,-0.302
1325,0.045,-0.302
1326,0.045,-0.302
1327,0.030,-0.302
1328,0.030,-0.227
1329,0.015,-0.227
1330,0.015,-0.227
1331,0.015,-0.227
1332,0.015,-0.137
1333,0.001,-0.137
1334,0.001,-0.137
1335,0.001,-0.137
1336,0.001,-0.039
1337,-0.013,-0.039
1338,-0.013,-0.039
1339,-0.013,-0.039
1340,-0.028,0.061
1341,-0.028,0.061
1342,-0.028,0.061
1343,-0.028,0.061
1344,-0.028,0.160
1345,-0.013,0.160
1346,-0.028,0.160
1347,-0.028,0.160
1348,-0.028,0.255
1349,-0.028,0.255
1350,-0.028,0.255
1351,-0.028,0.255
1352,-0.028,0.339
1353,-0.028,0.339
1354,-0.028,0.339
1355,-0.028,0.339
1356,-0.043,0.413
1357,-0.028,0.413
1358,-0.028,0.413
1359,-0.028,0.413
1360,-0.028,0.473
1361,-0.028,0.473
1362,-0.028,0.473
1363,-0.028,0.473
1364,-0.028,0.517
1365,-0.028,0.517
1366,-0.028,0.517
1367,-0.028,0.517
1368,-0.028,0.550
1369,-0.013,0.550
1370,-0.013,0.550
1371,-0.013,0.550
1372,-0.013,0.571
1373,-0.013,0.571
1374,-0.013,0.571
1375,-0.013,0.571
1376,-0.013,0.580
1377,-0.013,0.580
1378,-0.013,0.580
1379,0.001,0.580
1380,0.001,0.580
1381,0.001,0.580
1382,0.001,0.580
1383,-0.013,0.580
1384,-0.013,0.572
1385,-0.013,0.572
1386,-0.013,0.572
1387,-0.013,0.572
1388,-0.013,0.556
1389,-0.013,0.556
1390,-0.013,0.556
1391,-0.013,0.556
1392,-0.013,0.534
1393,0.001,0.534
1394,0.001,0.534
1395,0.001,0.534
1396,0.015,0.507
1397,0.030,0.507
1398,0.030,0.507
1399,0.045,0.507
1400,0.045,0.474
1401,0.059,0.474
1402,0.059,0.474
1403,0.059,0.474
1404,0.045,0.434
1405,0.030,0.434
1406,0.030,0.434
1407,0.015,0.434
1408,0.015,0.391
1409,0.001,0.391
1410,0.001,0.391
1411,0.001,0.391
1412,-0.013,0.344
1413,-0.028,0.344
1414,-0.028,0.344
1415,-0.028,0.344
1416,-0.013,0.293
1417,0.001,0.293
1418,0.030,0.293
1419,0.118,0.293
1420,0.207,0.240
1421,0.309,0.240
1422,0.441,0.240
1423,0.514,0.240
1424,0.529,0.184
1425,0.485,0.184
1426,0.353,0.184
1427,0.192,0.184
1428,0.045,0.130
1429,-0.072,0.130
1430,-0.160,0.130
1431,-0.248,0.130
1432,-0.322,0.076
1433,-0.366,0.076
1434,-0.395,0.076
1435,-0.395,0.076
1436,-0.380,0.025
1437,-0.351,0.025
1438,-0.307,0.025
1439,-0.277,0.025
1440,-0.233,-0.024
1441,-0.190,-0.024
1442,-0.160,-0.024
1443,-0.146,-0.024
1444,-0.131,-0.069
1445,-0.131,-0.069
1446,-0.116,-0.069
1447,-0.116,-0.069
1448,-0.131,-0.110
1449,-0.131,-0.110
1450,-0.131,-0.110
1451,-0.146,-0.110
1452,-0.131,-0.147
1453,-0.131,-0.147
1454,-0.131,-0.147
1455,-0.116,-0.147
1456,-0.116,-0.179
1457,-0.116,-0.179
1458,-0.116,-0.179
1459,-0.102,-0.179
1460,-0.102,-0.209
1461,-0.102,-0.209
1462,-0.102,-0.209
1463,-0.102,-0.209
1464,-0.102,-0.233
1465,-0.087,-0.233
1466,-0.072,-0.233
1467,-0.072,-0.233
1468,-0.057,-0.257
1469,-0.072,-0.257
1470,-0.057,-0.257
1471,-0.057,-0.257
1472,-0.057,-0.276
1473,-0.057,-0.276
1474,-0.043,-0.276
1475,-0.043,-0.276
1476,-0.028,-0.293
1477,-0.013,-0.293
1478,0.001,-0.293
1479,0.001,-0.293
1480,0.015,-0.309
1481,0.015,-0.309
1482,0.030,-0.309
1483,0.030,-0.309
1484,0.030,-0.322
1485,0.045,-0.322
1486,0.045,-0.322
1487,0.045,-0.322
1488,0.030,-0.333
1489,0.030,-0.333
1490,0.030,-0.333
1491,0.030,-0.333
1492,0.015,-0.344
1493,0.015,-0.344
1494,0.015,-0.344
1495,0.015,-0.344
1496,0.015,-0.351
1497,0.015,-0.351
1498,0.015,-0.351
1499,0.015,-0.351
1500,0.015,-0.358
1501,0.015,-0.358
1502,0.030,-0.358
1503,0.030,-0.358
1504,0.030,-0.364
1505,0.030,-0.364
1506,0.045,-0.364
1507,0.059,-0.364
1508,0.059,-0.368
1509,0.074,-0.368
1510,0.074,-0.368
1511,0.089,-0.368
1512,0.104,-0.374
1513,0.089,-0.374
1514,0.104,-0.374
1515,0.104,-0.374
1516,0.118,-0.379
1517,0.118,-0.379
1518,0.118,-0.379
1519,0.148,-0.379
1520,0.148,-0.382
1521,0.148,-0.382
1522,0.148,-0.382
1523,0.162,-0.382
1524,0.162,-0.387
1525,0.177,-0.387
1526,0.192,-0.387
1527,0.192,-0.387
1528,0.177,-0.392
1529,0.192,-0.392
1530,0.192,-0.392
1531,0.192,-0.392
1532,0.192,-0.396
1533,0.192,-0.396
1534,0.192,-0.396
1535,0.192,-0.396
1536,0.192,-0.399
1537,0.192,-0.399
1538,0.192,-0.399
1539,0.192,-0.399
1540,0.177,-0.404
1541,0.162,-0.404
1542,0.162,-0.404
1543,0.162,-0.404
1544,0.148,-0.406
1545,0.148,-0.406
1546,0.118,-0.406
1547,0.118,-0.406
1548,0.118,-0.408
1549,0.118,-0.408
1550,0.118,-0.408
1551,0.104,-0.408
1552,0.104,-0.406
1553,0.118,-0.406
1554,0.118,-0.406
1555,0.104,-0.406
1556,0.104,-0.402
1557,0.104,-0.402
1558,0.104,-0.402
1559,0.089,-0.402
1560,0.074,-0.392
1561,0.059,-0.392
1562,0.059,-0.392
1563,0.045,-0.392
1564,0.045,-0.374
1565,0.030,-0.374
1566,0.030,-0.374
1567,0.030,-0.374
1568,0.030,-0.346
1569,0.015,-0.346
1570,0.015,-0.346
1571,0.001,-0.346
1572,0.001,-0.309
1573,-0.028,-0.309
1574,-0.028,-0.309
1575,-0.028,-0.309
1576,-0.028,-0.263
1577,-0.043,-0.263
1578,-0.057,-0.263
1579,-0.057,-0.263
1580,-0.072,-0.210
1581,-0.072,-0.210
1582,-0.072,-0.210
1583,-0.072,-0.210
1584,-0.072,-0.150
1585,-0.072,-0.150
1586,-0.057,-0.150
1587,-0.057,-0.150
1588,-0.057,-0.086
1589,-0.057,-0.086
1590,-0.057,-0.086
1591,-0.057,-0.086
1592,-0.057,-0.021
1593,-0.043,-0.021
1594,-0.043,-0.021
1595,-0.043,-0.021
1596,-0.057,0.041
1597,-0.057,0.041
1598,-0.057,0.041
1599,-0.057,0.041
1600,-0.057,0.096
1601,-0.057,0.096
1602,-0.057,0.096
1603,-0.072,0.096
1604,-0.057,0.145
1605,-0.057,0.145
1606,-0.057,0.145
1607,-0.072,0.145
1608,-0.072,0.184
1609,-0.072,0.184
1610,-0.072,0.184
1611,-0.057,0.184
1612,-0.057,0.214
1613,-0.057,0.214
1614,-0.057,0.214
1615,-0.057,0.214
1616,-0.043,0.234
1617,-0.028,0.234
1618,-0.028,0.234
1619,-0.028,0.234
1620,-0.028,0.244
1621,-0.028,0.244
1622,-0.028,0.244
1623,-0.028,0.244
1624,-0.028,0.246
1625,-0.028,0.246
1626,-0.013,0.246
1627,-0.013,0.246
1628,-0.013,0.242
1629,0.001,0.242
1630,0.001,0.242
1631,0.015,0.242
1632,0.030,0.229
1633,0.045,0.229
1634,0.059,0.229
1635,0.059,0.229
1636,0.045,0.210
1637,0.030,0.210
1638,0.015,0.210
1639,0.015,0.210
1640,0.015,0.185
1641,0.015,0.185
1642,0.015,0.185
1643,0.015,0.185
1644,0.001,0.154
1645,0.001,0.154
1646,0.001,0.154
1647,0.001,0.154
1648,0.001,0.118
1649,-0.013,0.118
1650,-0.013,0.118
1651,-0.013,0.118
1652,-0.013,0.078
1653,-0.028,0.078
1654,-0.028,0.078
1655,-0.028,0.078
1656,-0.028,0.035
1657,-0.013,0.035
1658,-0.013,0.035
1659,-0.028,0.035
1660,-0.028,-0.009
1661,-0.028,-0.009
1662,-0.028,-0.009
1663,-0.028,-0.009
1664,-0.028,-0.057
1665,-0.013,-0.057
1666,0.001,-0.057
1667,0.015,-0.057
1668,0.059,-0.104
1669,0.133,-0.104
1670,0.221,-0.104
1671,0.309,-0.104
1672,0.412,-0.150
1673,0.485,-0.150
1674,0.499,-0.150
1675,0.485,-0.150
1676,0.426,-0.195
1677,0.279,-0.195
1678,0.162,-0.195
1679,0.030,-0.195
1680,-0.043,-0.236
1681,-0.116,-0.236
1682,-0.146,-0.236
1683,-0.190,-0.236
1684,-0.248,-0.275
1685,-0.277,-0.275
1686,-0.322,-0.275
1687,-0.351,-0.275
1688,-0.395,-0.310
1689,-0.395,-0.310
1690,-0.366,-0.310
1691,-0.336,-0.310
1692,-0.292,-0.343
1693,-0.248,-0.343
1694,-0.219,-0.343
1695,-0.190,-0.343
1696,-0.160,-0.370
1697,-0.131,-0.370
1698,-0.116,-0.370
1699,-0.102,-0.370
1700,-0.102,-0.393
1701,-0.116,-0.393
1702,-0.131,-0.393
1703,-0.131,-0.393
1704,-0.131,-0.414
1705,-0.116,-0.414
1706,-0.116,-0.414
1707,-0.102,-0.414
1708,-0.087,-0.430
1709,-0.072,-0.430
1710,-0.057,-0.430
1711,-0.043,-0.430
1712,-0.028,-0.444
1713,-0.013,-0.444
1714,-0.013,-0.444
1715,-0.013,-0.444
1716,-0.013,-0.453
1717,0.001,-0.453
1718,0.001,-0.453
1719,0.001,-0.453
1720,0.015,-0.460
1721,0.015,-0.460
1722,0.001,-0.460
1723,-0.013,-0.460
1724,-0.028,-0.464
1725,-0.028,-0.464
1726,-0.028,-0.464
1727,-0.028,-0.464
1728,-0.028,-0.467
1729,-0.043,-0.467
1730,-0.057,-0.467
1731,-0.057,-0.467
1732,-0.057,-0.467
1733,-0.057,-0.467
1734,-0.057,-0.467
1735,-0.057,-0.467
1736,-0.043,-0.467
1737,-0.043,-0.467
1738,-0.028,-0.467
1739,-0.043,-0.467
1740,-0.043,-0.466
1741,-0.043,-0.466
1742,-0.043,-0.466
1743,-0.043,-0.466
1744,-0.043,-0.466
1745,-0.057,-0.466
1746,-0.057,-0.466
1747,-0.057,-0.466
1748,-0.043,-0.466
1749,-0.028,-0.466
1750,-0.028,-0.466
1751,-0.028,-0.466
1752,-0.028,-0.466
1753,-0.013,-0.466
1754,0.001,-0.466
1755,0.001,-0.466
1756,0.030,-0.466
1757,0.059,-0.466
1758,0.074,-0.466
1759,0.074,-0.466
1760,0.074,-0.468
1761,0.074,-0.468
1762,0.074,-0.468
1763,0.104,-0.468
1764,0.104,-0.470
1765,0.118,-0.470
1766,0.118,-0.470
1767,0.118,-0.470
1768,0.133,-0.472
1769,0.148,-0.472
1770,0.162,-0.472
1771,0.177,-0.472
1772,0.192,-0.476
1773,0.192,-0.476
1774,0.207,-0.476
1775,0.207,-0.476
1776,0.207,-0.478
1777,0.207,-0.478
1778,0.221,-0.478
1779,0.221,-0.478
1780,0.235,-0.483
1781,0.235,-0.483
1782,0.235,-0.483
1783,0.235,-0.483
1784,0.235,-0.486
1785,0.250,-0.486
1786,0.265,-0.486
1787,0.279,-0.486
1788,0.294,-0.489
1789,0.294,-0.489
1790,0.294,-0.489
1791,0.294,-0.489
1792,0.294,-0.492
1793,0.294,-0.492
1794,0.309,-0.492
1795,0.309,-0.492
1796,0.309,-0.491
1797,0.294,-0.491
1798,0.279,-0.491
1799,0.250,-0.491
1800,0.207,-0.487
1801,0.192,-0.487
1802,0.162,-0.487
1803,0.133,-0.487
1804,0.133,-0.477
1805,0.118,-0.477
1806,0.104,-0.477
1807,0.074,-0.477
1808,0.059,-0.457
1809,0.059,-0.457
1810,0.059,-0.457
1811,0.045,-0.457
1812,0.030,-0.427
1813,0.015,-0.427
1814,0.001,-0.427
1815,0.001,-0.427
1816,0.001,-0.387
1817,0.001,-0.387
1818,-0.013,-0.387
1819,-0.013,-0.387
1820,-0.028,-0.334
1821,-0.028,-0.334
1822,-0.043,-0.334
1823,-0.043,-0.334
1824,-0.057,-0.269
1825,-0.057,-0.269
1826,-0.057,-0.269
1827,-0.057,-0.269
1828,-0.057,-0.194
1829,-0.057,-0.194
1830,-0.057,-0.194
1831,-0.043,-0.194
1832,-0.028,-0.113
1833,-0.028,-0.113
1834,-0.043,-0.113
1835,-0.043,-0.113
1836,-0.057,-0.028
1837,-0.057,-0.028
1838,-0.043,-0.028
1839,-0.043,-0.028
1840,-0.028,0.055
1841,-0.043,0.055
1842,-0.028,0.055
1843,-0.028,0.055
1844,-0.028,0.131
1845,-0.028,0.131
1846,-0.028,0.131
1847,-0.013,0.131
1848,-0.013,0.202
1849,-0.013,0.202
1850,-0.028,0.202
1851,-0.028,0.202
1852,-0.013,0.259
1853,0.001,0.259
1854,0.001,0.259
1855,0.001,0.259
1856,0.001,0.364
1857,0.001,0.364
1858,-0.013,0.364
1859,-0.013,0.364
1860,-0.013,0.400
1861,-0.013,0.400
1862,0.001,0.400
1863,0.001,0.400
1864,0.015,0.421
1865,0.030,0.421
1866,0.030,0.421
1867,0.030,0.421
1868,0.030,0.432
1869,0.045,0.432
1870,0.059,0.432
1871,0.059,0.432
1872,0.074,0.432
1873,0.074,0.432
1874,0.074,0.432
1875,0.074,0.432
1876,0.074,0.421
1877,0.059,0.421
1878,0.059,0.421
1879,0.059,0.421
1880,0.045,0.403
1881,0.045,0.403
1882,0.045,0.403
1883,0.015,0.403
1884,0.001,0.379
1885,-0.013,0.379
1886,-0.013,0.379
1887,-0.013,0.379
1888,0.001,0.348
1889,0.030,0.348
1890,0.089,0.348
1891,0.162,0.348
1892,0.279,0.312
1893,0.397,0.312
1894,0.485,0.312
1895,0.514,0.312
1896,0.470,0.270
1897,0.338,0.270
1898,0.192,0.270
1899,0.059,0.270
1900,-0.028,0.225
1901,-0.116,0.225
1902,-0.146,0.225
1903,-0.190,0.225
1904,-0.248,0.174
1905,-0.292,0.174
1906,-0.322,0.174
1907,-0.336,0.174
1908,-0.351,0.122
1909,-0.336,0.122
1910,-0.307,0.122
1911,-0.277,0.122
1912,-0.233,0.068
1913,-0.205,0.068
1914,-0.190,0.068
1915,-0.160,0.068
1916,-0.160,0.013
1917,-0.146,0.013
1918,-0.146,0.013
1919,-0.131,0.013
1920,-0.116,-0.044
1921,-0.116,-0.044
1922,-0.116,-0.044
1923,-0.116,-0.044
1924,-0.116,-0.099
1925,-0.116,-0.099
1926,-0.116,-0.099
1927,-0.116,-0.099
1928,-0.116,-0.152
1929,-0.116,-0.152
1930,-0.116,-0.152
1931,-0.131,-0.152
1932,-0.131,-0.201
1933,-0.116,-0.201
1934,-0.116,-0.201
1935,-0.116,-0.201
1936,-0.102,-0.248
1937,-0.087,-0.248
1938,-0.087,-0.248
1939,-0.072,-0.248
1940,-0.057,-0.289
1941,-0.057,-0.289
1942,-0.043,-0.289
1943,-0.043,-0.289
1944,-0.057,-0.326
1945,-0.057,-0.326
1946,-0.057,-0.326
1947,-0.057,-0.326
1948,-0.057,-0.357
1949,-0.057,-0.357
1950,-0.043,-0.357
1951,-0.043,-0.357
1952,-0.043,-0.385
1953,-0.028,-0.385
1954,-0.043,-0.385
1955,-0.057,-0.385
1956,-0.057,-0.407
1957,-0.057,-0.407
1958,-0.072,-0.407
1959,-0.072,-0.407
1960,-0.072,-0.424
1961,-0.072,-0.424
1962,-0.072,-0.424
1963,-0.072,-0.424
1964,-0.072,-0.438
1965,-0.072,-0.438
1966,-0.072,-0.438
1967,-0.072,-0.438
1968,-0.072,-0.448
1969,-0.057,-0.448
1970,-0.057,-0.448
1971,-0.043,-0.448
1972,-0.028,-0.456
1973,-0.028,-0.456
1974,0.001,-0.456
1975,0.001,-0.456
1976,0.015,-0.460
1977,0.015,-0.460
1978,0.015,-0.460
1979,0.015,-0.460
1980,0.015,-0.464
1981,0.015,-0.464
1982,0.015,-0.464
1983,0.015,-0.464
1984,0.030,-0.465
1985,0.045,-0.465
1986,0.045,-0.465
1987,0.059,-0.465
1988,0.074,-0.466
1989,0.074,-0.466
1990,0.089,-0.466
1991,0.104,-0.466
1992,0.104,-0.466
1993,0.118,-0.466
1994,0.118,-0.466
1995,0.148,-0.466
1996,0.148,-0.464
1997,0.148,-0.464
1998,0.148,-0.464
1999,0.148,-0.464
2000,0.148,-0.460
2001,0.148,-0.460
2002,0.148,-0.460
2003,0.148,-0.460
2004,0.148,-0.457
2005,0.148,-0.457
2006,0.148,-0.457
2007,0.133,-0.457
2008,0.118,-0.451
2009,0.118,-0.451
2010,0.118,-0.451
2011,0.133,-0.451
2012,0.133,-0.444
2013,0.118,-0.444
2014,0.118,-0.444
2015,0.133,-0.444
2016,0.118,-0.438
2017,0.118,-0.438
2018,0.133,-0.438
2019,0.118,-0.438
2020,0.104,-0.430
2021,0.089,-0.430
2022,0.074,-0.430
2023,0.059,-0.430
2024,0.045,-0.416
2025,0.030,-0.416
2026,0.030,-0.416
2027,0.030,-0.416
2028,0.015,-0.401
2029,0.015,-0.401
2030,0.015,-0.401
2031,0.001,-0.401
2032,0.001,-0.380
2033,-0.013,-0.380
2034,-0.013,-0.380
2035,-0.028,-0.380
2036,-0.028,-0.348
2037,-0.028,-0.348
2038,-0.043,-0.348
2039,-0.043,-0.348
2040,-0.057,-0.312
2041,-0.043,-0.312
2042,-0.057,-0.312
2043,-0.057,-0.312
2044,-0.057,-0.264
2045,-0.072,-0.264
2046,-0.072,-0.264
2047,-0.072,-0.264
2048,-0.072,-0.207
2049,-0.087,-0.207
2050,-0.087,-0.207
2051,-0.087,-0.207
2052,-0.087,-0.143
2053,-0.087,-0.143
2054,-0.087,-0.143
2055,-0.102,-0.143
2056,-0.102,-0.075
2057,-0.102,-0.075
2058,-0.102,-0.075
2059,-0.102,-0.075
2060,-0.102,-0.004
2061,-0.087,-0.004
2062,-0.072,-0.004
2063,-0.072,-0.004
2064,-0.072,0.068
2065,-0.087,0.068
2066,-0.087,0.068
2067,-0.102,0.068
2068,-0.087,0.134
2069,-0.102,0.134
2070,-0.102,0.134
2071,-0.102,0.134
2072,-0.102,0.193
2073,-0.087,0.193
2074,-0.087,0.193
2075,-0.087,0.193
2076,-0.087,0.242
2077,-0.087,0.242
2078,-0.087,0.242
2079,-0.087,0.242
2080,-0.087,0.279
2081,-0.072,0.279
2082,-0.072,0.279
2083,-0.072,0.279
2084,-0.072,0.306
2085,-0.072,0.306
2086,-0.072,0.306
2087,-0.072,0.306
2088,-0.072,0.320
2089,-0.057,0.320
2090,-0.043,0.320
2091,-0.028,0.320
2092,-0.013,0.325
2093,0.001,0.325
2094,0.001,0.325
2095,0.015,0.325
2096,0.015,0.320
2097,0.001,0.320
2098,0.001,0.320
2099,0.001,0.320
2100,-0.013,0.306
2101,-0.013,0.306
2102,-0.028,0.306
2103,-0.028,0.306
2104,-0.028,0.286
2105,-0.028,0.286
2106,-0.028,0.286
2107,-0.028,0.286
2108,-0.028,0.260
2109,-0.028,0.260
2110,-0.028,0.260
2111,-0.043,0.260
2112,-0.043,0.241
2113,-0.057,0.241
2114,-0.057,0.241
2115,-0.057,0.241
2116,-0.057,0.204
2117,-0.057,0.204
2118,-0.057,0.204
2119,-0.057,0.204
2120,-0.072,0.163
2121,-0.072,0.163
2122,-0.072,0.163
2123,-0.087,0.163
2124,-0.102,0.116
2125,-0.102,0.116
2126,-0.102,0.116
2127,-0.102,0.116
2128,-0.102,0.068
2129,-0.102,0.068
2130,-0.102,0.068
2131,-0.102,0.068
2132,-0.116,0.020
2133,-0.116,0.020
2134,-0.102,0.020
2135,-0.102,0.020
2136,-0.102,-0.032
2137,-0.116,-0.032
2138,-0.116,-0.032
2139,-0.116,-0.032
2140,-0.116,-0.081
2141,-0.116,-0.081
2142,-0.116,-0.081
2143,-0.116,-0.081
2144,-0.116,-0.131
2145,-0.116,-0.131
2146,-0.116,-0.131
2147,-0.116,-0.131
2148,-0.116,-0.175
2149,-0.116,-0.175
2150,-0.102,-0.175
2151,-0.102,-0.175
2152,-0.102,-0.218
2153,-0.102,-0.218
2154,-0.102,-0.218
2155,-0.116,-0.218
2156,-0.102,-0.255
2157,-0.116,-0.255
2158,-0.116,-0.255
2159,-0.102,-0.255
2160,-0.102,-0.290
2161,-0.102,-0.290
2162,-0.102,-0.290
2163,-0.102,-0.290
2164,-0.102,-0.321
2165,-0.102,-0.321
2166,-0.102,-0.321
2167,-0.102,-0.321
2168,-0.087,-0.347
2169,-0.072,-0.347
2170,-0.057,-0.347
2171,-0.057,-0.347
2172,-0.028,-0.368
2173,-0.028,-0.368
2174,-0.013,-0.368
2175,-0.013,-0.368
2176,-0.013,-0.387
2177,-0.013,-0.387
2178,-0.013,-0.387
2179,-0.028,-0.387
2180,-0.028,-0.400
2181,-0.028,-0.400
2182,-0.028,-0.400
2183,-0.043,-0.400
2184,-0.043,-0.410
2185,-0.028,-0.410
2186,-0.028,-0.410
2187,-0.028,-0.410
2188,-0.028,-0.420
2189,-0.028,-0.420
2190,-0.028,-0.420
2191,-0.028,-0.420
2192,-0.057,-0.428
2193,-0.057,-0.428
2194,-0.072,-0.428
2195,-0.057,-0.428
2196,-0.057,-0.432
2197,-0.057,-0.432
2198,-0.072,-0.432
2199,-0.072,-0.432
2200,-0.072,-0.433
2201,-0.057,-0.433
2202,-0.072,-0.433
2203,-0.072,-0.433
2204,-0.072,-0.434
2205,-0.072,-0.434
2206,-0.072,-0.434
2207,-0.072,-0.434
2208,-0.072,-0.434
2209,-0.072,-0.434
2210,-0.087,-0.434
2211,-0.087,-0.434
2212,-0.087,-0.435
2213,-0.087,-0.435
2214,-0.087,-0.435
2215,-0.102,-0.435
2216,-0.087,-0.433
2217,-0.102,-0.433
2218,-0.102,-0.433
2219,-0.102,-0.433
2220,-0.102,-0.433
2221,-0.102,-0.433
2222,-0.087,-0.433
2223,-0.102,-0.433
2224,-0.102,-0.430
2225,-0.102,-0.430
2226,-0.087,-0.430
2227,-0.087,-0.430
2228,-0.087,-0.429
2229,-0.072,-0.429
2230,-0.072,-0.429
2231,-0.072,-0.429
2232,-0.072,-0.428
2233,-0.072,-0.428
2234,-0.072,-0.428
2235,-0.057,-0.428
2236,-0.043,-0.428
2237,-0.028,-0.428
2238,-0.028,-0.428
2239,-0.013,-0.428
2240,-0.013,-0.428
2241,0.001,-0.428
2242,0.030,-0.428
2243,0.089,-0.428
2244,0.148,-0.428
2245,0.235,-0.428
2246,0.353,-0.428
2247,0.485,-0.428
2248,0.602,-0.428
2249,0.646,-0.428
2250,0.617,-0.428
2251,0.558,-0.428
2252,0.426,-0.430
2253,0.265,-0.430
2254,0.104,-0.430
2255,-0.028,-0.430
2256,-0.146,-0.430
2257,-0.263,-0.430
2258,-0.351,-0.430
2259,-0.424,-0.430
2260,-0.439,-0.433
2261,-0.439,-0.433
2262,-0.439,-0.433
2263,-0.424,-0.433
2264,-0.395,-0.435
2265,-0.351,-0.435
2266,-0.307,-0.435
2267,-0.248,-0.435
2268,-0.190,-0.439
2269,-0.160,-0.439
2270,-0.131,-0.439
2271,-0.116,-0.439
2272,-0.116,-0.441
2273,-0.116,-0.441
2274,-0.116,-0.441
2275,-0.116,-0.441
2276,-0.116,-0.445
2277,-0.102,-0.445
2278,-0.116,-0.445
2279,-0.102,-0.445
2280,-0.116,-0.448
2281,-0.116,-0.448
2282,-0.116,-0.448
2283,-0.116,-0.448
2284,-0.116,-0.452
2285,-0.116,-0.452
2286,-0.116,-0.452
2287,-0.116,-0.452
2288,-0.116,-0.456
2289,-0.116,-0.456
2290,-0.116,-0.456
2291,-0.102,-0.456
2292,-0.102,-0.458
2293,-0.102,-0.458
2294,-0.102,-0.458
2295,-0.102,-0.458
2296,-0.102,-0.461
2297,-0.102,-0.461
2298,-0.102,-0.461
2299,-0.102,-0.461
2300,-0.102,-0.464
2301,-0.102,-0.464
2302,-0.087,-0.464
2303,-0.072,-0.464
2304,-0.087,-0.468
2305,-0.072,-0.468
2306,-0.072,-0.468
2307,-0.072,-0.468
2308,-0.072,-0.470
2309,-0.072,-0.470
2310,-0.057,-0.470
2311,-0.057,-0.470
2312,-0.057,-0.472
2313,-0.043,-0.472
2314,-0.043,-0.472
2315,-0.043,-0.472
2316,-0.028,-0.475
2317,-0.028,-0.475
2318,-0.028,-0.475
2319,-0.028,-0.475
2320,-0.013,-0.476
2321,-0.013,-0.476
2322,0.001,-0.476
2323,0.015,-0.476
2324,0.045,-0.479
2325,0.059,-0.479
2326,0.089,-0.479
2327,0.104,-0.479
2328,0.104,-0.483
2329,0.104,-0.483
2330,0.118,-0.483
2331,0.118,-0.483
2332,0.133,-0.484
2333,0.133,-0.484
2334,0.148,-0.484
2335,0.162,-0.484
2336,0.162,-0.490
2337,0.177,-0.490
2338,0.192,-0.490
2339,0.192,-0.490
2340,0.192,-0.494
2341,0.192,-0.494
2342,0.207,-0.494
2343,0.207,-0.494
2344,0.207,-0.496
2345,0.207,-0.496
2346,0.207,-0.496
2347,0.207,-0.496
2348,0.207,-0.501
2349,0.221,-0.501
2350,0.235,-0.501
2351,0.235,-0.501
2352,0.250,-0.504
2353,0.250,-0.504
2354,0.265,-0.504
2355,0.279,-0.504
2356,0.279,-0.505
2357,0.265,-0.505
2358,0.265,-0.505
2359,0.250,-0.505
2360,0.250,-0.504
2361,0.250,-0.504
2362,0.250,-0.504
2363,0.250,-0.504
2364,0.250,-0.496
2365,0.250,-0.496
2366,0.250,-0.496
2367,0.250,-0.496
2368,0.250,-0.492
2369,0.250,-0.492
2370,0.250,-0.492
2371,0.235,-0.492
2372,0.221,-0.461
2373,0.207,-0.461
2374,0.207,-0.461
2375,0.192,-0.461
2376,0.192,-0.408
2377,0.192,-0.408
2378,0.177,-0.408
2379,0.177,-0.408
2380,0.162,-0.338
2381,0.148,-0.338
2382,0.148,-0.338
2383,0.118,-0.338
2384,0.104,-0.242
2385,0.104,-0.242
2386,0.089,-0.242
2387,0.074,-0.242
2388,0.074,-0.128
2389,0.074,-0.128
2390,0.059,-0.128
2391,0.059,-0.128
2392,0.059,0.004
2393,0.059,0.004
2394,0.045,0.004
2395,0.030,0.004
2396,0.015,0.152
2397,0.015,0.152
2398,0.015,0.152
2399,0.030,0.152
2400,0.059,0.303
2401,0.059,0.303
2402,0.059,0.303
2403,0.059,0.303
2404,0.059,0.455
2405,0.045,0.455
2406,0.030,0.455
2407,0.030,0.455
2408,0.030,0.599
2409,0.030,0.599
2410,0.030,0.599
2411,0.015,0.599
2412,0.015,0.728
2413,0.001,0.728
2414,0.001,0.728
2415,0.001,0.728
2416,-0.013,0.838
2417,-0.013,0.838
2418,-0.013,0.838
2419,-0.013,0.838
2420,-0.028,0.929
2421,-0.028,0.929
2422,-0.028,0.929
2423,-0.028,0.929
2424,-0.028,1.001
2425,-0.028,1.001
2426,-0.013,1.001
2427,-0.013,1.001
2428,-0.013,1.024
2429,-0.013,1.024
2430,0.001,1.024
2431,-0.013,1.024
2432,0.001,1.024
2433,-0.013,1.024
2434,-0.013,1.024
2435,-0.013,1.024
2436,0.001,1.024
2437,0.001,1.024
2438,0.001,1.024
2439,0.001,1.024
2440,0.001,1.024
2441,-0.013,1.024
2442,-0.013,1.024
2443,-0.013,1.024
2444,-0.013,1.024
2445,-0.013,1.024
2446,-0.013,1.024
2447,-0.013,1.024
2448,-0.013,1.024
2449,-0.013,1.024
2450,-0.013,1.024
2451,-0.028,1.024
2452,-0.043,1.024
2453,-0.043,1.024
2454,-0.028,1.024
2455,-0.028,1.024
2456,-0.028,1.016
2457,-0.028,1.016
2458,-0.028,1.016
2459,-0.028,1.016
2460,-0.028,0.974
2461,-0.057,0.974
2462,-0.072,0.974
2463,-0.072,0.974
2464,-0.072,0.924
2465,-0.057,0.924
2466,-0.028,0.924
2467,-0.028,0.924
2468,-0.028,0.867
2469,-0.028,0.867
2470,-0.043,0.867
2471,-0.043,0.867
2472,-0.057,0.802
2473,-0.072,0.802
2474,-0.072,0.802
2475,-0.072,0.802
2476,-0.072,0.735
2477,-0.057,0.735
2478,-0.057,0.735
2479,-0.057,0.735
2480,-0.057,0.663
2481,-0.057,0.663
2482,-0.057,0.663
2483,-0.057,0.663
2484,-0.057,0.589
2485,-0.028,0.589
2486,-0.028,0.589
2487,-0.028,0.589
2488,-0.013,0.515
2489,0.001,0.515
2490,0.001,0.515
2491,0.015,0.515
2492,0.015,0.440
2493,0.015,0.440
2494,0.015,0.440
2495,0.015,0.440
2496,0.001,0.366
2497,0.001,0.366
2498,0.001,0.366
2499,-0.013,0.366
2500,-0.013,0.293
2501,-0.013,0.293
2502,-0.028,0.293
2503,-0.028,0.293
2504,-0.043,0.226
2505,-0.028,0.226
2506,-0.028,0.226
2507,-0.028,0.226
2508,-0.043,0.165
2509,-0.057,0.165
2510,-0.057,0.165
2511,-0.057,0.165
2512,-0.057,0.108
2513,-0.057,0.108
2514,-0.057,0.108
2515,-0.057,0.108
2516,-0.072,0.056
2517,-0.057,0.056
2518,-0.057,0.056
2519,-0.072,0.056
2520,-0.072,0.009
2521,-0.072,0.009
2522,-0.072,0.009
2523,-0.072,0.009
2524,-0.072,-0.031
2525,-0.087,-0.031
2526,-0.102,-0.031
2527,-0.102,-0.031
2528,-0.102,-0.067
2529,-0.102,-0.067
2530,-0.087,-0.067
2531,-0.072,-0.067
2532,-0.072,-0.099
2533,-0.072,-0.099
2534,-0.072,-0.099
2535,-0.087,-0.099
2536,-0.087,-0.128
2537,-0.087,-0.128
2538,-0.087,-0.128
2539,-0.102,-0.128
2540,-0.102,-0.150
2541,-0.102,-0.150
2542,-0.072,-0.150
2543,-0.028,-0.150
2544,-0.013,-0.173
2545,-0.028,-0.173
2546,-0.057,-0.173
2547,-0.072,-0.173
2548,-0.087,-0.190
2549,-0.087,-0.190
2550,-0.072,-0.190
2551,-0.072,-0.190
2552,-0.072,-0.207
2553,-0.102,-0.207
2554,-0.102,-0.207
2555,-0.116,-0.207
2556,-0.131,-0.221
2557,-0.131,-0.221
2558,-0.116,-0.221
2559,-0.102,-0.221
2560,-0.087,-0.234
2561,-0.072,-0.234
2562,-0.087,-0.234
2563,-0.087,-0.234
2564,-0.072,-0.245
2565,-0.057,-0.245
2566,-0.043,-0.245
2567,-0.043,-0.245
2568,-0.043,-0.255
2569,-0.057,-0.255
2570,-0.057,-0.255
2571,-0.072,-0.255
2572,-0.072,-0.265
2573,-0.072,-0.265
2574,-0.072,-0.265
2575,-0.057,-0.265
2576,-0.028,-0.275
2577,-0.013,-0.275
2578,0.001,-0.275
2579,0.015,-0.275
2580,0.059,-0.283
2581,0.059,-0.283
2582,0.074,-0.283
2583,0.089,-0.283
2584,0.118,-0.293
2585,0.148,-0.293
2586,0.192,-0.293
2587,0.294,-0.293
2588,0.397,-0.305
2589,0.485,-0.305
2590,0.573,-0.305
2591,0.631,-0.305
2592,0.631,-0.318
2593,0.573,-0.318
2594,0.485,-0.318
2595,0.324,-0.318
2596,0.177,-0.328
2597,0.045,-0.328
2598,-0.057,-0.328
2599,-0.146,-0.328
2600,-0.190,-0.339
2601,-0.263,-0.339
2602,-0.322,-0.339
2603,-0.395,-0.339
2604,-0.424,-0.349
2605,-0.453,-0.349
2606,-0.483,-0.349
2607,-0.468,-0.349
2608,-0.439,-0.356
2609,-0.380,-0.356
2610,-0.322,-0.356
2611,-0.277,-0.356
2612,-0.233,-0.363
2613,-0.205,-0.363
2614,-0.175,-0.363
2615,-0.160,-0.363
2616,-0.146,-0.366
2617,-0.146,-0.366
2618,-0.116,-0.366
2619,-0.116,-0.366
2620,-0.116,-0.363
2621,-0.116,-0.363
2622,-0.102,-0.363
2623,-0.087,-0.363
2624,-0.087,-0.407
2625,-0.087,-0.407
2626,-0.102,-0.407
2627,-0.116,-0.407
2628,-0.116,-0.397
2629,-0.102,-0.397
2630,-0.116,-0.397
2631,-0.116,-0.397
2632,-0.116,-0.385
2633,-0.116,-0.385
2634,-0.116,-0.385
2635,-0.102,-0.385
2636,-0.072,-0.371
2637,-0.072,-0.371
2638,-0.057,-0.371
2639,-0.043,-0.371
2640,-0.028,-0.354
2641,-0.028,-0.354
2642,-0.028,-0.354
2643,-0.028,-0.354
2644,-0.043,-0.338
2645,-0.057,-0.338
2646,-0.072,-0.338
2647,-0.072,-0.338
2648,-0.057,-0.325
2649,-0.057,-0.325
2650,-0.057,-0.325
2651,-0.043,-0.325
2652,-0.028,-0.309
2653,-0.013,-0.309
2654,-0.013,-0.309
2655,-0.028,-0.309
2656,-0.013,-0.301
2657,0.001,-0.301
2658,0.001,-0.301
2659,0.015,-0.301
2660,0.015,-0.292
2661,0.030,-0.292
2662,0.045,-0.292
2663,0.059,-0.292
2664,0.074,-0.289
2665,0.089,-0.289
2666,0.089,-0.289
2667,0.104,-0.289
2668,0.118,-0.292
2669,0.148,-0.292
2670,0.148,-0.292
2671,0.148,-0.292
2672,0.118,-0.296
2673,0.118,-0.296
2674,0.118,-0.296
2675,0.118,-0.296
2676,0.118,-0.303
2677,0.148,-0.303
2678,0.162,-0.303
2679,0.162,-0.303
2680,0.162,-0.314
2681,0.162,-0.314
2682,0.148,-0.314
2683,0.118,-0.314
2684,0.133,-0.325
2685,0.118,-0.325
2686,0.118,-0.325
2687,0.148,-0.325
2688,0.162,-0.338
2689,0.177,-0.338
2690,0.177,-0.338
2691,0.177,-0.338
2692,0.177,-0.352
2693,0.192,-0.352
2694,0.207,-0.352
2695,0.207,-0.352
2696,0.221,-0.363
2697,0.235,-0.363
2698,0.235,-0.363
2699,0.250,-0.363
2700,0.250,-0.374
2701,0.235,-0.374
2702,0.221,-0.374
2703,0.207,-0.374
2704,0.207,-0.388
2705,0.207,-0.388
2706,0.235,-0.388
2707,0.250,-0.388
2708,0.279,-0.395
2709,0.279,-0.395
2710,0.250,-0.395
2711,0.207,-0.395
2712,0.192,-0.397
2713,0.192,-0.397
2714,0.192,-0.397
2715,0.192,-0.397
2716,0.162,-0.395
2717,0.162,-0.395
2718,0.162,-0.395
2719,0.162,-0.395
2720,0.162,-0.382
2721,0.148,-0.382
2722,0.133,-0.382
2723,0.118,-0.382
2724,0.089,-0.354
2725,0.074,-0.354
2726,0.045,-0.354
2727,0.030,-0.354
2728,0.015,-0.315
2729,0.001,-0.315
2730,0.001,-0.315
2731,-0.013,-0.315
2732,-0.028,-0.257
2733,-0.057,-0.257
2734,-0.057,-0.257
2735,-0.057,-0.257
2736,-0.043,-0.183
2737,-0.013,-0.183
2738,0.001,-0.183
2739,0.001,-0.183
2740,0.015,-0.094
2741,0.030,-0.094
2742,0.045,-0.094
2743,0.045,-0.094
2744,0.045,0.009
2745,0.030,0.009
2746,0.015,0.009
2747,0.015,0.009
2748,0.001,0.119
2749,0.001,0.119
2750,0.001,0.119
2751,0.001,0.119
2752,0.001,0.233
2753,0.015,0.233
2754,0.001,0.233
2755,0.015,0.233
2756,0.015,0.343
2757,0.015,0.343
2758,0.001,0.343
2759,-0.013,0.343
2760,-0.013,0.448
2761,-0.028,0.448
2762,-0.043,0.448
2763,-0.057,0.448
2764,-0.057,0.538
2765,-0.072,0.538
2766,-0.072,0.538
2767,-0.072,0.538
2768,-0.057,0.615
2769,-0.057,0.615
2770,-0.057,0.615
2771,-0.057,0.615
2772,-0.057,0.676
2773,-0.043,0.676
2774,-0.057,0.676
2775,-0.057,0.676
2776,-0.057,0.723
2777,-0.057,0.723
2778,-0.043,0.723
2779,-0.028,0.723
2780,-0.028,0.753
2781,-0.043,0.753
2782,-0.028,0.753
2783,-0.028,0.753
2784,-0.028,0.765
2785,-0.028,0.765
2786,-0.028,0.765
2787,-0.028,0.765
2788,-0.043,0.767
2789,-0.043,0.767
2790,-0.028,0.767
2791,-0.028,0.767
2792,-0.028,0.755
2793,-0.028,0.755
2794,-0.028,0.755
2795,-0.028,0.755
2796,-0.013,0.732
2797,-0.013,0.732
2798,0.001,0.732
2799,0.001,0.732
2800,0.001,0.699
2801,0.001,0.699
2802,0.001,0.699
2803,-0.013,0.699
2804,-0.028,0.656
2805,-0.028,0.656
2806,-0.028,0.656
2807,-0.028,0.656
2808,-0.028,0.606
2809,-0.028,0.606
2810,-0.028,0.606
2811,-0.028,0.606
2812,-0.013,0.546
2813,-0.013,0.546
2814,0.001,0.546
2815,0.001,0.546
2816,0.015,0.479
2817,0.015,0.479
2818,0.015,0.479
2819,0.001,0.479
2820,0.015,0.408
2821,0.001,0.408
2822,0.001,0.408
2823,0.001,0.408
2824,0.015,0.333
2825,0.015,0.333
2826,0.001,0.333
2827,0.001,0.333
2828,0.001,0.257
2829,0.001,0.257
2830,0.001,0.257
2831,0.001,0.257
2832,0.001,0.180
2833,-0.013,0.180
2834,-0.013,0.180
2835,-0.013,0.180
2836,-0.028,0.103
2837,-0.028,0.103
2838,-0.028,0.103
2839,-0.057,0.103
2840,-0.057,0.029
2841,-0.057,0.029
2842,-0.057,0.029
2843,-0.057,0.029
2844,-0.057,-0.043
2845,-0.057,-0.043
2846,-0.057,-0.043
2847,-0.057,-0.043
2848,-0.057,-0.111
2849,-0.057,-0.111
2850,-0.057,-0.111
2851,-0.057,-0.111
2852,-0.072,-0.176
2853,-0.072,-0.176
2854,-0.072,-0.176
2855,-0.087,-0.176
2856,-0.072,-0.238
2857,-0.087,-0.238
2858,-0.087,-0.238
2859,-0.072,-0.238
2860,-0.072,-0.296
2861,-0.072,-0.296
2862,-0.057,-0.296
2863,-0.057,-0.296
2864,-0.057,-0.352
2865,-0.057,-0.352
2866,-0.057,-0.352
2867,-0.057,-0.352
2868,-0.057,-0.405
2869,-0.057,-0.405
2870,-0.057,-0.405
2871,-0.057,-0.405
2872,-0.043,-0.450
2873,-0.043,-0.450
2874,-0.028,-0.450
2875,-0.028,-0.450
2876,-0.013,-0.491
2877,0.001,-0.491
2878,0.001,-0.491
2879,0.015,-0.491
2880,0.030,-0.514
2881,0.059,-0.514
2882,0.074,-0.514
2883,0.118,-0.514
2884,0.207,-0.544
2885,0.279,-0.544
2886,0.382,-0.544
2887,0.470,-0.544
2888,0.543,-0.568
2889,0.543,-0.568
2890,0.499,-0.568
2891,0.441,-0.568
2892,0.294,-0.588
2893,0.162,-0.588
2894,0.059,-0.588
2895,-0.013,-0.588
2896,-0.072,-0.603
2897,-0.116,-0.603
2898,-0.160,-0.603
2899,-0.205,-0.603
2900,-0.277,-0.616
2901,-0.307,-0.616
2902,-0.336,-0.616
2903,-0.366,-0.616
2904,-0.366,-0.623
2905,-0.336,-0.623
2906,-0.292,-0.623
2907,-0.248,-0.623
2908,-0.205,-0.628
2909,-0.175,-0.628
2910,-0.146,-0.628
2911,-0.146,-0.628
2912,-0.116,-0.629
2913,-0.116,-0.629
2914,-0.116,-0.629
2915,-0.116,-0.629
2916,-0.116,-0.629
2917,-0.116,-0.629
2918,-0.116,-0.629
2919,-0.116,-0.629
2920,-0.116,-0.627
2921,-0.116,-0.627
2922,-0.116,-0.627
2923,-0.116,-0.627
2924,-0.116,-0.624
2925,-0.131,-0.624
2926,-0.131,-0.624
2927,-0.116,-0.624
2928,-0.116,-0.619
2929,-0.116,-0.619
2930,-0.116,-0.619
2931,-0.116,-0.619
2932,-0.116,-0.615
2933,-0.116,-0.615
2934,-0.116,-0.615
2935,-0.102,-0.615
2936,-0.102,-0.609
2937,-0.116,-0.609
2938,-0.102,-0.609
2939,-0.116,-0.609
2940,-0.116,-0.605
2941,-0.116,-0.605
2942,-0.102,-0.605
2943,-0.102,-0.605
2944,-0.102,-0.599
2945,-0.087,-0.599
2946,-0.087,-0.599
2947,-0.087,-0.599
2948,-0.072,-0.594
2949,-0.072,-0.594
2950,-0.072,-0.594
2951,-0.057,-0.594
2952,-0.057,-0.591
2953,-0.043,-0.591
2954,-0.028,-0.591
2955,-0.028,-0.591
2956,-0.013,-0.588
2957,-0.013,-0.588
2958,-0.013,-0.588
2959,-0.013,-0.588
2960,-0.013,-0.585
2961,-0.013,-0.585
2962,0.001,-0.585
2963,0.001,-0.585
2964,0.015,-0.585
2965,0.030,-0.585
2966,0.045,-0.585
2967,0.059,-0.585
2968,0.074,-0.583
2969,0.074,-0.583
2970,0.074,-0.583
2971,0.089,-0.583
2972,0.104,-0.582
2973,0.118,-0.582
2974,0.118,-0.582
2975,0.133,-0.582
2976,0.148,-0.585
2977,0.162,-0.585
2978,0.162,-0.585
2979,0.162,-0.585
2980,0.177,-0.587
2981,0.192,-0.587
2982,0.192,-0.587
2983,0.192,-0.587
2984,0.207,-0.591
2985,0.207,-0.591
2986,0.207,-0.591
2987,0.207,-0.591
2988,0.207,-0.596
2989,0.207,-0.596
2990,0.207,-0.596
2991,0.221,-0.596
2992,0.221,-0.603
2993,0.207,-0.603
2994,0.207,-0.603
2995,0.207,-0.603
2996,0.207,-0.612
2997,0.207,-0.612
2998,0.192,-0.612
2999,0.192,-0.612
3000,0.192,-0.619
3001,0.192,-0.619
3002,0.192,-0.619
3003,0.177,-0.619
3004,0.177,-0.626
3005,0.162,-0.626
3006,0.148,-0.626
3007,0.148,-0.626
3008,0.133,-0.632
3009,0.133,-0.632
3010,0.118,-0.632
3011,0.118,-0.632
3012,0.104,-0.637
3013,0.104,-0.637
3014,0.104,-0.637
3015,0.074,-0.637
3016,0.074,-0.637
3017,0.059,-0.637
3018,0.059,-0.637
3019,0.059,-0.637
3020,0.045,-0.626
3021,0.030,-0.626
3022,0.015,-0.626
3023,0.015,-0.626
3024,0.015,-0.609
3025,0.001,-0.609
3026,0.001,-0.609
3027,0.001,-0.609
3028,0.001,-0.580
3029,0.001,-0.580
3030,0.001,-0.580
3031,-0.013,-0.580
3032,-0.013,-0.538
3033,-0.013,-0.538
3034,-0.013,-0.538
3035,-0.013,-0.538
3036,0.001,-0.483
3037,0.001,-0.483
3038,0.015,-0.483
3039,0.015,-0.483
3040,0.030,-0.419
3041,0.030,-0.419
3042,0.030,-0.419
3043,0.030,-0.419
3044,0.015,-0.346
3045,0.015,-0.346
3046,0.015,-0.346
3047,0.015,-0.346
3048,0.001,-0.267
3049,0.001,-0.267
3050,0.001,-0.267
3051,0.001,-0.267
3052,0.001,-0.184
3053,-0.013,-0.184
3054,-0.013,-0.184
3055,0.001,-0.184
3056,0.001,-0.109
3057,0.001,-0.109
3058,-0.013,-0.109
3059,-0.013,-0.109
3060,-0.013,-0.038
3061,-0.013,-0.038
3062,-0.028,-0.038
3063,-0.028,-0.038
3064,-0.028,0.027
3065,-0.028,0.027
3066,-0.028,0.027
3067,-0.028,0.027
3068,-0.028,0.080
3069,-0.043,0.080
3070,-0.043,0.080
3071,-0.043,0.080
3072,-0.057,0.118
3073,-0.057,0.118
3074,-0.043,0.118
3075,-0.057,0.118
3076,-0.057,0.150
3077,-0.043,0.150
3078,-0.043,0.150
3079,-0.043,0.150
3080,-0.057,0.170
3081,-0.043,0.170
3082,-0.057,0.170
3083,-0.057,0.170
3084,-0.043,0.181
3085,-0.043,0.181
3086,-0.043,0.181
3087,-0.043,0.181
3088,-0.043,0.182
3089,-0.043,0.182
3090,-0.043,0.182
3091,-0.043,0.182
3092,-0.043,0.179
3093,-0.057,0.179
3094,-0.043,0.179
3095,-0.043,0.179
3096,-0.043,0.169
3097,-0.043,0.169
3098,-0.043,0.169
3099,-0.043,0.169
3100,-0.028,0.153
3101,-0.043,0.153
3102,-0.028,0.153
3103,-0.028,0.153
3104,-0.028,0.132
3105,-0.028,0.132
3106,-0.028,0.132
3107,-0.028,0.132
3108,-0.013,0.105
3109,-0.028,0.105
3110,-0.028,0.105
3111,-0.028,0.105
3112,-0.013,0.077
3113,-0.013,0.077
3114,-0.013,0.077
3115,0.001,0.077
3116,0.015,0.042
3117,0.015,0.042
3118,0.030,0.042
3119,0.030,0.042
3120,0.045,0.004
3121,0.045,0.004
3122,0.030,0.004
3123,0.030,0.004
3124,0.030,-0.038
3125,0.030,-0.038
3126,0.030,-0.038
3127,0.015,-0.038
3128,0.015,-0.082
3129,0.015,-0.082
3130,0.015,-0.082
3131,0.001,-0.082
3132,0.001,-0.124
3133,0.001,-0.124
3134,0.001,-0.124
3135,0.001,-0.124
3136,-0.013,-0.170
3137,-0.013,-0.170
3138,-0.013,-0.170
3139,-0.013,-0.170
3140,-0.028,-0.216
3141,-0.028,-0.216
3142,-0.028,-0.216
3143,-0.043,-0.216
3144,-0.043,-0.258
3145,-0.057,-0.258
3146,-0.057,-0.258
3147,-0.057,-0.258
3148,-0.057,-0.299
3149,-0.057,-0.299
3150,-0.057,-0.299
3151,-0.057,-0.299
3152,-0.057,-0.336
3153,-0.057,-0.336
3154,-0.057,-0.336
3155,-0.057,-0.336
3156,-0.057,-0.370
3157,-0.057,-0.370
3158,-0.057,-0.370
3159,-0.072,-0.370
3160,-0.072,-0.400
3161,-0.072,-0.400
3162,-0.072,-0.400
3163,-0.072,-0.400
3164,-0.072,-0.425
3165,-0.087,-0.425
3166,-0.072,-0.425
3167,-0.072,-0.425
3168,-0.072,-0.447
3169,-0.072,-0.447
3170,-0.072,-0.447
3171,-0.072,-0.447
3172,-0.072,-0.465
3173,-0.072,-0.465
3174,-0.087,-0.465
3175,-0.072,-0.465
3176,-0.072,-0.479
3177,-0.072,-0.479
3178,-0.072,-0.479
3179,-0.072,-0.479
3180,-0.072,-0.491
3181,-0.072,-0.491
3182,-0.072,-0.491
3183,-0.072,-0.491
3184,-0.072,-0.501
3185,-0.057,-0.501
3186,-0.057,-0.501
3187,-0.057,-0.501
3188,-0.057,-0.508
3189,-0.057,-0.508
3190,-0.057,-0.508
3191,-0.057,-0.508
3192,-0.057,-0.513
3193,-0.043,-0.513
3194,-0.043,-0.513
3195,-0.057,-0.513
3196,-0.057,-0.518
3197,-0.057,-0.518
3198,-0.057,-0.518
3199,-0.057,-0.518
3200,-0.043,-0.521
3201,-0.028,-0.521
3202,-0.013,-0.521
3203,0.001,-0.521
3204,0.001,-0.522
3205,0.015,-0.522
3206,0.015,-0.522
3207,0.030,-0.522
3208,0.045,-0.523
3209,0.059,-0.523
3210,0.059,-0.523
3211,0.059,-0.523
3212,0.059,-0.525
3213,0.059,-0.525
3214,0.059,-0.525
3215,0.059,-0.525
3216,0.059,-0.527
3217,0.045,-0.527
3218,0.030,-0.527
3219,0.030,-0.527
3220,0.015,-0.527
3221,0.015,-0.527
3222,0.015,-0.527
3223,0.015,-0.527
3224,0.015,-0.529
3225,0.030,-0.529
3226,0.030,-0.529
3227,0.030,-0.529
3228,0.030,-0.530
3229,0.045,-0.530
3230,0.074,-0.530
3231,0.118,-0.530
3232,0.192,-0.532
3233,0.279,-0.532
3234,0.368,-0.532
3235,0.470,-0.532
3236,0.558,-0.533
3237,0.558,-0.533
3238,0.514,-0.533
3239,0.426,-0.533
3240,0.279,-0.535
3241,0.118,-0.535
3242,-0.013,-0.535
3243,-0.146,-0.535
3244,-0.248,-0.537
3245,-0.351,-0.537
3246,-0.424,-0.537
3247,-0.483,-0.537
3248,-0.512,-0.539
3249,-0.512,-0.539
3250,-0.497,-0.539
3251,-0.483,-0.539
3252,-0.439,-0.541
3253,-0.395,-0.541
3254,-0.322,-0.541
3255,-0.263,-0.541
3256,-0.205,-0.545
3257,-0.160,-0.545
3258,-0.146,-0.545
3259,-0.116,-0.545
3260,-0.102,-0.548
3261,-0.102,-0.548
3262,-0.102,-0.548
3263,-0.087,-0.548
3264,-0.072,-0.552
3265,-0.072,-0.552
3266,-0.072,-0.552
3267,-0.072,-0.552
3268,-0.072,-0.555
3269,-0.072,-0.555
3270,-0.057,-0.555
3271,-0.057,-0.555
3272,-0.057,-0.561
3273,-0.057,-0.561
3274,-0.057,-0.561
3275,-0.057,-0.561
3276,-0.057,-0.565
3277,-0.057,-0.565
3278,-0.057,-0.565
3279,-0.057,-0.565
3280,-0.043,-0.570
3281,-0.028,-0.570
3282,-0.028,-0.570
3283,-0.013,-0.570
3284,0.001,-0.576
3285,0.001,-0.576
3286,0.015,-0.576
3287,0.015,-0.576
3288,0.015,-0.581
3289,0.015,-0.581
3290,0.015,-0.581
3291,0.015,-0.581
3292,0.015,-0.586
3293,0.015,-0.586
3294,0.015,-0.586
3295,0.015,-0.586
3296,0.015,-0.591
3297,0.015,-0.591
3298,0.015,-0.591
3299,0.001,-0.591
3300,0.001,-0.596
3301,0.001,-0.596
3302,0.001,-0.596
3303,0.001,-0.596
3304,0.001,-0.601
3305,0.001,-0.601
3306,0.001,-0.601
3307,0.001,-0.601
3308,0.015,-0.605
3309,0.015,-0.605
3310,0.030,-0.605
3311,0.030,-0.605
3312,0.030,-0.610
3313,0.045,-0.610
3314,0.045,-0.610
3315,0.045,-0.610
3316,0.059,-0.614
3317,0.059,-0.614
3318,0.059,-0.614
3319,0.059,-0.614
3320,0.074,-0.618
3321,0.074,-0.618
3322,0.074,-0.618
3323,0.074,-0.618
3324,0.104,-0.620
3325,0.104,-0.620
3326,0.118,-0.620
3327,0.133,-0.620
3328,0.148,-0.621
3329,0.162,-0.621
3330,0.162,-0.621
3331,0.192,-0.621
3332,0.192,-0.625
3333,0.207,-0.625
3334,0.207,-0.625
3335,0.221,-0.625
3336,0.235,-0.625
3337,0.235,-0.625
3338,0.250,-0.625
3339,0.265,-0.625
3340,0.265,-0.627
3341,0.265,-0.627
3342,0.265,-0.627
3343,0.265,-0.627
3344,0.279,-0.626
3345,0.279,-0.626
3346,0.279,-0.626
3347,0.279,-0.626
3348,0.279,-0.626
3349,0.279,-0.626
3350,0.279,-0.626
3351,0.279,-0.626
3352,0.279,-0.621
3353,0.279,-0.621
3354,0.265,-0.621
3355,0.265,-0.621
3356,0.250,-0.614
3357,0.250,-0.614
3358,0.235,-0.614
3359,0.235,-0.614
3360,0.221,-0.599
3361,0.207,-0.599
3362,0.207,-0.599
3363,0.207,-0.599
3364,0.207,-0.576
3365,0.207,-0.576
3366,0.207,-0.576
3367,0.207,-0.576
3368,0.207,-0.540
3369,0.192,-0.540
3370,0.192,-0.540
3371,0.192,-0.540
3372,0.177,-0.490
3373,0.162,-0.490
3374,0.148,-0.490
3375,0.148,-0.490
3376,0.118,-0.426
3377,0.104,-0.426
3378,0.089,-0.426
3379,0.074,-0.426
3380,0.059,-0.347
3381,0.059,-0.347
3382,0.059,-0.347
3383,0.059,-0.347
3384,0.030,-0.257
3385,0.030,-0.257
3386,0.015,-0.257
3387,0.001,-0.257
3388,0.001,-0.157
3389,0.001,-0.157
3390,0.001,-0.157
3391,0.001,-0.157
3392,0.001,-0.024
3393,0.001,-0.024
3394,-0.013,-0.024
3395,-0.013,-0.024
3396,-0.013,0.083
3397,-0.013,0.083
3398,-0.013,0.083
3399,-0.028,0.083
3400,-0.028,0.183
3401,-0.028,0.183
3402,-0.028,0.183
3403,-0.028,0.183
3404,-0.013,0.273
3405,-0.028,0.273
3406,-0.028,0.273
3407,-0.013,0.273
3408,-0.028,0.352
3409,-0.028,0.352
3410,-0.028,0.352
3411,-0.028,0.352
3412,-0.013,0.415
3413,-0.013,0.415
3414,0.001,0.415
3415,0.001,0.415
3416,0.015,0.465
3417,0.015,0.465
3418,0.030,0.465
3419,0.030,0.465
3420,0.030,0.501
3421,0.030,0.501
3422,0.015,0.501
3423,0.001,0.501
3424,0.001,0.524
3425,0.001,0.524
3426,0.015,0.524
3427,0.015,0.524
3428,0.015,0.536
3429,0.015,0.536
3430,0.015,0.536
3431,0.015,0.536
3432,0.015,0.539
3433,0.001,0.539
3434,0.001,0.539
3435,0.001,0.539
3436,0.001,0.534
3437,0.001,0.534
3438,0.001,0.534
3439,0.001,0.534
3440,0.001,0.520
3441,0.001,0.520
3442,0.001,0.520
3443,0.001,0.520
3444,0.015,0.501
3445,0.015,0.501
3446,0.030,0.501
3447,0.045,0.501
3448,0.045,0.475
3449,0.045,0.475
3450,0.030,0.475
3451,0.030,0.475
3452,0.015,0.446
3453,0.015,0.446
3454,0.045,0.446
3455,0.104,0.446
3456,0.162,0.410
3457,0.250,0.410
3458,0.338,0.410
3459,0.397,0.410
3460,0.426,0.368
3461,0.382,0.368
3462,0.294,0.368
3463,0.148,0.368
3464,0.015,0.323
3465,-0.102,0.323
3466,-0.205,0.323
3467,-0.277,0.323
3468,-0.292,0.274
3469,-0.336,0.274
3470,-0.351,0.274
3471,-0.380,0.274
3472,-0.380,0.224
3473,-0.380,0.224
3474,-0.351,0.224
3475,-0.336,0.224
3476,-0.292,0.170
3477,-0.248,0.170
3478,-0.205,0.170
3479,-0.190,0.170
3480,-0.160,0.116
3481,-0.160,0.116
3482,-0.160,0.116
3483,-0.146,0.116
3484,-0.146,0.062
3485,-0.146,0.062
3486,-0.146,0.062
3487,-0.146,0.062
3488,-0.146,0.009
3489,-0.146,0.009
3490,-0.146,0.009
3491,-0.146,0.009
3492,-0.146,-0.040
3493,-0.146,-0.040
3494,-0.131,-0.040
3495,-0.131,-0.040
3496,-0.116,-0.088
3497,-0.116,-0.088
3498,-0.102,-0.088
3499,-0.102,-0.088
3500,-0.102,-0.131
3501,-0.116,-0.131
3502,-0.116,-0.131
3503,-0.116,-0.131
3504,-0.102,-0.169
3505,-0.102,-0.169
3506,-0.102,-0.169
3507,-0.102,-0.169
3508,-0.102,-0.204
3509,-0.102,-0.204
3510,-0.102,-0.204
3511,-0.102,-0.204
3512,-0.087,-0.234
3513,-0.087,-0.234
3514,-0.087,-0.234
3515,-0.072,-0.234
3516,-0.072,-0.260
3517,-0.072,-0.260
3518,-0.057,-0.260
3519,-0.057,-0.260
3520,-0.043,-0.280
3521,-0.028,-0.280
3522,0.001,-0.280
3523,0.015,-0.280
3524,0.015,-0.299
3525,0.030,-0.299
3526,0.030,-0.299
3527,0.030,-0.299
3528,0.030,-0.316
3529,0.045,-0.316
3530,0.045,-0.316
3531,0.059,-0.316
3532,0.059,-0.329
3533,0.059,-0.329
3534,0.074,-0.329
3535,0.074,-0.329
3536,0.074,-0.339
3537,0.074,-0.339
3538,0.074,-0.339
3539,0.074,-0.339
3540,0.074,-0.350
3541,0.074,-0.350
3542,0.074,-0.350
3543,0.074,-0.350
3544,0.089,-0.357
3545,0.118,-0.357
3546,0.133,-0.357
3547,0.148,-0.357
3548,0.148,-0.363
3549,0.148,-0.363
3550,0.162,-0.363
3551,0.162,-0.363
3552,0.192,-0.368
3553,0.192,-0.368
3554,0.192,-0.368
3555,0.177,-0.368
3556,0.177,-0.374
3557,0.192,-0.374
3558,0.192,-0.374
3559,0.221,-0.374
3560,0.250,-0.379
3561,0.265,-0.379
3562,0.265,-0.379
3563,0.265,-0.379
3564,0.279,-0.384
3565,0.279,-0.384
3566,0.250,-0.384
3567,0.235,-0.384
3568,0.235,-0.388
3569,0.207,-0.388
3570,0.221,-0.388
3571,0.207,-0.388
3572,0.207,-0.393
3573,0.192,-0.393
3574,0.207,-0.393
3575,0.207,-0.393
3576,0.192,-0.399
3577,0.162,-0.399
3578,0.162,-0.399
3579,0.162,-0.399
3580,0.148,-0.403
3581,0.148,-0.403
3582,0.148,-0.403
3583,0.148,-0.403
3584,0.133,-0.406
3585,0.104,-0.406
3586,0.104,-0.406
3587,0.074,-0.406
3588,0.074,-0.409
3589,0.059,-0.409
3590,0.059,-0.409
3591,0.059,-0.409
3592,0.059,-0.413
3593,0.059,-0.413
3594,0.059,-0.413
3595,0.059,-0.413
3596,0.059,-0.414
3597,0.059,-0.414
3598,0.059,-0.414
3599,0.074,-0.414
3600,0.074,-0.412
3601,0.059,-0.412
3602,0.059,-0.412
3603,0.045,-0.412
3604,0.030,-0.406
3605,0.030,-0.406
3606,0.030,-0.406
3607,0.015,-0.406
3608,0.015,-0.392
3609,0.015,-0.392
3610,0.015,-0.392
3611,0.015,-0.392
3612,0.001,-0.372
3613,0.001,-0.372
3614,0.001,-0.372
3615,0.001,-0.372
3616,0.001,-0.344
3617,0.001,-0.344
3618,0.001,-0.344
3619,0.001,-0.344
3620,-0.013,-0.307
3621,-0.013,-0.307
3622,-0.028,-0.307
3623,-0.028,-0.307
3624,-0.028,-0.267
3625,-0.028,-0.267
3626,-0.028,-0.267
3627,-0.028,-0.267
3628,-0.057,-0.220
3629,-0.043,-0.220
3630,-0.057,-0.220
3631,-0.057,-0.220
3632,-0.043,-0.172
3633,-0.028,-0.172
3634,-0.028,-0.172
3635,-0.028,-0.172
3636,-0.028,-0.122
3637,-0.028,-0.122
3638,-0.013,-0.122
3639,-0.013,-0.122
3640,-0.028,-0.079
3641,-0.028,-0.079
3642,-0.028,-0.079
3643,-0.028,-0.079
3644,-0.028,-0.037
3645,-0.028,-0.037
3646,-0.028,-0.037
3647,-0.028,-0.037
3648,-0.028,-0.023
3649,-0.013,-0.023
3650,-0.013,-0.023
3651,-0.013,-0.023
3652,-0.013,0.000
3653,0.001,0.000
3654,0.001,0.000
3655,0.001,0.000
3656,0.001,0.013
3657,0.001,0.013
3658,0.001,0.013
3659,0.001,0.013
3660,0.001,0.018
3661,0.001,0.018
3662,0.001,0.018
3663,0.015,0.018
3664,0.015,0.015
3665,0.030,0.015
3666,0.030,0.015
3667,0.030,0.015
3668,0.030,0.003
3669,0.030,0.003
3670,0.030,0.003
3671,0.030,0.003
3672,0.015,-0.017
3673,0.015,-0.017
3674,0.001,-0.017
3675,0.001,-0.017
3676,0.001,-0.044
3677,0.001,-0.044
3678,0.001,-0.044
3679,0.001,-0.044
3680,0.001,-0.076
3681,0.015,-0.076
3682,0.074,-0.076
3683,0.133,-0.076
3684,0.221,-0.114
3685,0.309,-0.114
3686,0.412,-0.114
3687,0.514,-0.114
3688,0.573,-0.154
3689,0.558,-0.154
3690,0.470,-0.154
3691,0.309,-0.154
3692,0.162,-0.198
3693,0.030,-0.198
3694,-0.057,-0.198
3695,-0.116,-0.198
3696,-0.146,-0.246
3697,-0.190,-0.246
3698,-0.248,-0.246
3699,-0.307,-0.246
3700,-0.336,-0.293
3701,-0.380,-0.293
3702,-0.380,-0.293
3703,-0.380,-0.293
3704,-0.366,-0.340
3705,-0.336,-0.340
3706,-0.292,-0.340
3707,-0.248,-0.340
3708,-0.233,-0.386
3709,-0.219,-0.386
3710,-0.190,-0.386
3711,-0.160,-0.386
3712,-0.146,-0.430
3713,-0.131,-0.430
3714,-0.131,-0.430
3715,-0.146,-0.430
3716,-0.146,-0.472
3717,-0.146,-0.472
3718,-0.146,-0.472
3719,-0.146,-0.472
3720,-0.131,-0.510
3721,-0.131,-0.510
3722,-0.131,-0.510
3723,-0.146,-0.510
3724,-0.131,-0.546
3725,-0.146,-0.546
3726,-0.131,-0.546
3727,-0.146,-0.546
3728,-0.146,-0.576
3729,-0.146,-0.576
3730,-0.146,-0.576
3731,-0.116,-0.576
3732,-0.116,-0.605
3733,-0.116,-0.605
3734,-0.116,-0.605
3735,-0.102,-0.605
3736,-0.102,-0.627
3737,-0.102,-0.627
3738,-0.102,-0.627
3739,-0.087,-0.627
3740,-0.072,-0.649
3741,-0.057,-0.649
3742,-0.057,-0.649
3743,-0.043,-0.649
3744,-0.028,-0.666
3745,-0.013,-0.666
3746,0.001,-0.666
3747,0.015,-0.666
3748,0.015,-0.681
3749,0.015,-0.681
3750,0.001,-0.681
3751,0.001,-0.681
3752,-0.013,-0.696
3753,-0.013,-0.696
3754,-0.013,-0.696
3755,-0.013,-0.696
3756,-0.013,-0.708
3757,-0.013,-0.708
3758,0.001,-0.708
3759,0.001,-0.708
3760,0.001,-0.716
3761,0.001,-0.716
3762,0.001,-0.716
3763,0.001,-0.716
3764,0.001,-0.724
3765,0.015,-0.724
3766,0.015,-0.724
3767,0.015,-0.724
3768,0.015,-0.728
3769,0.030,-0.728
3770,0.030,-0.728
3771,0.030,-0.728
3772,0.059,-0.730
3773,0.059,-0.730
3774,0.074,-0.730
3775,0.104,-0.730
3776,0.104,-0.732
3777,0.118,-0.732
3778,0.118,-0.732
3779,0.118,-0.732
3780,0.118,-0.732
3781,0.118,-0.732
3782,0.118,-0.732
3783,0.118,-0.732
3784,0.104,-0.727
3785,0.118,-0.727
3786,0.118,-0.727
3787,0.133,-0.727
3788,0.148,-0.719
3789,0.162,-0.719
3790,0.162,-0.719
3791,0.192,-0.719
3792,0.177,-0.711
3793,0.177,-0.711
3794,0.177,-0.711
3795,0.192,-0.711
3796,0.192,-0.697
3797,0.192,-0.697
3798,0.192,-0.697
3799,0.192,-0.697
3800,0.177,-0.682
3801,0.177,-0.682
3802,0.177,-0.682
3803,0.177,-0.682
3804,0.162,-0.662
3805,0.162,-0.662
3806,0.162,-0.662
3807,0.148,-0.662
3808,0.133,-0.638
3809,0.118,-0.638
3810,0.118,-0.638
3811,0.118,-0.638
3812,0.104,-0.610
3813,0.104,-0.610
3814,0.104,-0.610
3815,0.074,-0.610
3816,0.074,-0.576
3817,0.059,-0.576
3818,0.045,-0.576
3819,0.030,-0.576
3820,0.015,-0.534
3821,0.015,-0.534
3822,0.015,-0.534
3823,0.001,-0.534
3824,0.015,-0.486
3825,0.015,-0.486
3826,0.015,-0.486
3827,0.030,-0.486
3828,0.030,-0.428
3829,0.045,-0.428
3830,0.059,-0.428
3831,0.059,-0.428
3832,0.074,-0.363
3833,0.074,-0.363
3834,0.059,-0.363
3835,0.059,-0.363
3836,0.045,-0.288
3837,0.030,-0.288
3838,0.030,-0.288
3839,0.015,-0.288
3840,0.015,-0.210
3841,0.015,-0.210
3842,0.015,-0.210
3843,0.001,-0.210
3844,0.001,-0.127
3845,-0.013,-0.127
3846,-0.013,-0.127
3847,-0.028,-0.127
3848,-0.028,-0.043
3849,-0.028,-0.043
3850,-0.043,-0.043
3851,-0.057,-0.043
3852,-0.057,0.039
3853,-0.057,0.039
3854,-0.072,0.039
3855,-0.057,0.039
3856,-0.072,0.115
3857,-0.072,0.115
3858,-0.072,0.115
3859,-0.072,0.115
3860,-0.072,0.183
3861,-0.072,0.183
3862,-0.087,0.183
3863,-0.072,0.183
3864,-0.087,0.240
3865,-0.072,0.240
3866,-0.072,0.240
3867,-0.087,0.240
3868,-0.072,0.284
3869,-0.087,0.284
3870,-0.072,0.284
3871,-0.072,0.284
3872,-0.072,0.317
3873,-0.072,0.317
3874,-0.072,0.317
3875,-0.072,0.317
3876,-0.072,0.337
3877,-0.087,0.337
3878,-0.087,0.337
3879,-0.087,0.337
3880,-0.072,0.347
3881,-0.072,0.347
3882,-0.072,0.347
3883,-0.072,0.347
3884,-0.057,0.347
3885,-0.057,0.347
3886,-0.057,0.347
3887,-0.057,0.347
3888,-0.057,0.339
3889,-0.057,0.339
3890,-0.057,0.339
3891,-0.057,0.339
3892,-0.057,0.325
3893,-0.057,0.325
3894,-0.057,0.325
3895,-0.057,0.325
3896,-0.057,0.302
3897,-0.057,0.302
3898,-0.057,0.302
3899,-0.057,0.302
3900,-0.057,0.276
3901,-0.057,0.276
3902,-0.057,0.276
3903,-0.057,0.276
3904,-0.043,0.244
3905,-0.028,0.244
3906,-0.028,0.244
3907,-0.013,0.244
3908,-0.013,0.207
3909,0.001,0.207
3910,0.001,0.207
3911,0.001,0.207
3912,0.001,0.166
3913,0.001,0.166
3914,0.001,0.166
3915,0.001,0.166
3916,0.001,0.120
3917,0.001,0.120
3918,-0.013,0.120
3919,-0.013,0.120
3920,-0.013,0.073
3921,-0.013,0.073
3922,-0.013,0.073
3923,-0.028,0.073
3924,-0.028,0.023
3925,-0.028,0.023
3926,-0.043,0.023
3927,-0.043,0.023
3928,-0.057,-0.026
3929,-0.057,-0.026
3930,-0.072,-0.026
3931,-0.072,-0.026
3932,-0.072,-0.075
3933,-0.072,-0.075
3934,-0.072,-0.075
3935,-0.072,-0.075
3936,-0.072,-0.123
3937,-0.087,-0.123
3938,-0.087,-0.123
3939,-0.102,-0.123
3940,-0.102,-0.168
3941,-0.102,-0.168
3942,-0.102,-0.168
3943,-0.116,-0.168
3944,-0.116,-0.208
3945,-0.102,-0.208
3946,-0.102,-0.208
3947,-0.102,-0.208
3948,-0.102,-0.244
3949,-0.102,-0.244
3950,-0.102,-0.244
3951,-0.102,-0.244
3952,-0.102,-0.275
3953,-0.102,-0.275
3954,-0.102,-0.275
3955,-0.102,-0.275
3956,-0.102,-0.301
3957,-0.102,-0.301
3958,-0.102,-0.301
3959,-0.102,-0.301
3960,-0.102,-0.321
3961,-0.102,-0.321
3962,-0.102,-0.321
3963,-0.102,-0.321
3964,-0.102,-0.339
3965,-0.102,-0.339
3966,-0.087,-0.339
3967,-0.087,-0.339
3968,-0.072,-0.352
3969,-0.087,-0.352
3970,-0.087,-0.352
3971,-0.087,-0.352
3972,-0.087,-0.364
3973,-0.087,-0.364
3974,-0.072,-0.364
3975,-0.087,-0.364
3976,-0.072,-0.373
3977,-0.072,-0.373
3978,-0.072,-0.373
3979,-0.072,-0.373
3980,-0.057,-0.381
3981,-0.057,-0.381
3982,-0.057,-0.381
3983,-0.043,-0.381
3984,-0.043,-0.386
3985,-0.028,-0.386
3986,-0.028,-0.386
3987,-0.028,-0.386
3988,-0.028,-0.393
3989,-0.028,-0.393
3990,-0.013,-0.393
3991,-0.013,-0.393
3992,-0.013,-0.399
3993,-0.013,-0.399
3994,0.001,-0.399
3995,0.001,-0.399
3996,0.001,-0.403
3997,0.001,-0.403
3998,0.015,-0.403
3999,0.030,-0.403
4000,0.074,-0.409
4001,0.118,-0.409
4002,0.192,-0.409
4003,0.279,-0.409
4004,0.382,-0.416
4005,0.499,-0.416
4006,0.558,-0.416
4007,0.529,-0.416
4008,0.485,-0.422
4009,0.382,-0.422
4010,0.221,-0.422
4011,0.059,-0.422
4012,-0.043,-0.430
4013,-0.160,-0.430
4014,-0.248,-0.430
4015,-0.322,-0.430
4016,-0.395,-0.439
4017,-0.468,-0.439
4018,-0.497,-0.439
4019,-0.512,-0.439
4020,-0.512,-0.448
4021,-0.512,-0.448
4022,-0.483,-0.448
4023,-0.424,-0.448
4024,-0.380,-0.455
4025,-0.307,-0.455
4026,-0.277,-0.455
4027,-0.233,-0.455
4028,-0.205,-0.463
4029,-0.190,-0.463
4030,-0.175,-0.463
4031,-0.160,-0.463
4032,-0.160,-0.470
4033,-0.146,-0.470
4034,-0.146,-0.470
4035,-0.146,-0.470
4036,-0.146,-0.479
4037,-0.146,-0.479
4038,-0.146,-0.479
4039,-0.146,-0.479
4040,-0.131,-0.490
4041,-0.131,-0.490
4042,-0.116,-0.490
4043,-0.116,-0.490
4044,-0.116,-0.499
4045,-0.116,-0.499
4046,-0.116,-0.499
4047,-0.102,-0.499
4048,-0.102,-0.511
4049,-0.102,-0.511
4050,-0.087,-0.511
4051,-0.087,-0.511
4052,-0.087,-0.524
4053,-0.072,-0.524
4054,-0.072,-0.524
4055,-0.072,-0.524
4056,-0.057,-0.537
4057,-0.057,-0.537
4058,-0.043,-0.537
4059,-0.028,-0.537
4060,-0.028,-0.553
4061,-0.028,-0.553
4062,-0.028,-0.553
4063,-0.028,-0.553
4064,-0.028,-0.569
4065,-0.028,-0.569
4066,-0.028,-0.569
4067,-0.028,-0.569
4068,-0.028,-0.587
4069,-0.028,-0.587
4070,-0.028,-0.587
4071,-0.028,-0.587
4072,-0.028,-0.606
4073,-0.028,-0.606
4074,-0.028,-0.606
4075,-0.028,-0.606
4076,-0.013,-0.624
4077,-0.028,-0.624
4078,-0.013,-0.624
4079,-0.013,-0.624
4080,-0.013,-0.642
4081,-0.013,-0.642
4082,-0.013,-0.642
4083,-0.013,-0.642
4084,-0.013,-0.658
4085,-0.013,-0.658
4086,0.001,-0.658
4087,0.001,-0.658
4088,0.001,-0.674
4089,0.015,-0.674
4090,0.015,-0.674
4091,0.030,-0.674
4092,0.030,-0.686
4093,0.045,-0.686
4094,0.059,-0.686
4095,0.059,-0.686
4096,0.074,-0.696
4097,0.089,-0.696
4098,0.104,-0.696
4099,0.104,-0.696
4100,0.104,-0.704
4101,0.118,-0.704
4102,0.118,-0.704
4103,0.133,-0.704
4104,0.148,-0.706
4105,0.162,-0.706
4106,0.162,-0.706
4107,0.177,-0.706
4108,0.192,-0.709
4109,0.192,-0.709
4110,0.192,-0.709
4111,0.192,-0.709
4112,0.192,-0.708
4113,0.192,-0.708
4114,0.192,-0.708
4115,0.192,-0.708
4116,0.207,-0.701
4117,0.207,-0.701
4118,0.207,-0.701
4119,0.192,-0.701
4120,0.192,-0.692
4121,0.192,-0.692
4122,0.192,-0.692
4123,0.192,-0.692
4124,0.192,-0.676
4125,0.177,-0.676
4126,0.177,-0.676
4127,0.192,-0.676
4128,0.192,-0.651
4129,0.192,-0.651
4130,0.192,-0.651
4131,0.192,-0.651
4132,0.207,-0.613
4133,0.207,-0.613
4134,0.192,-0.613
4135,0.192,-0.613
4136,0.192,-0.561
4137,0.162,-0.561
4138,0.148,-0.561
4139,0.148,-0.561
4140,0.133,-0.492
4141,0.118,-0.492
4142,0.104,-0.492
4143,0.074,-0.492
4144,0.059,-0.407
4145,0.059,-0.407
4146,0.030,-0.407
4147,0.030,-0.407
4148,0.030,-0.306
4149,0.015,-0.306
4150,0.015,-0.306
4151,0.001,-0.306
4152,0.001,-0.195
4153,0.001,-0.195
4154,-0.013,-0.195
4155,-0.013,-0.195
4156,-0.028,-0.072
4157,-0.028,-0.072
4158,-0.028,-0.072
4159,-0.043,-0.072
4160,-0.057,0.051
4161,-0.057,0.051
4162,-0.057,0.051
4163,-0.057,0.051
4164,-0.057,0.173
4165,-0.057,0.173
4166,-0.057,0.173
4167,-0.057,0.173
4168,-0.057,0.284
4169,-0.057,0.284
4170,-0.057,0.284
4171,-0.057,0.284
4172,-0.043,0.383
4173,-0.043,0.383
4174,-0.028,0.383
4175,-0.028,0.383
4176,-0.028,0.464
4177,-0.028,0.464
4178,-0.028,0.464
4179,-0.028,0.464
4180,-0.028,0.527
4181,-0.028,0.527
4182,-0.028,0.527
4183,-0.013,0.527
4184,-0.013,0.575
4185,-0.013,0.575
4186,-0.013,0.575
4187,-0.013,0.575
4188,-0.013,0.607
4189,-0.013,0.607
4190,-0.013,0.607
4191,-0.013,0.607
4192,-0.013,0.625
4193,0.001,0.625
4194,-0.013,0.625
4195,-0.013,0.625
4196,0.001,0.634
4197,0.001,0.634
4198,0.001,0.634
4199,0.001,0.634
4200,0.001,0.630
4201,0.001,0.630
4202,0.001,0.630
4203,0.001,0.630
4204,0.015,0.623
4205,0.015,0.623
4206,0.030,0.623
4207,0.030,0.623
4208,0.030,0.608
4209,0.030,0.608
4210,0.030,0.608
4211,0.030,0.608
4212,0.030,0.589
4213,0.015,0.589
4214,0.015,0.589
4215,0.015,0.589
4216,0.001,0.563
4217,0.001,0.563
4218,0.001,0.563
4219,-0.013,0.563
4220,-0.013,0.532
4221,-0.013,0.532
4222,-0.013,0.532
4223,-0.028,0.532
4224,-0.028,0.495
4225,-0.028,0.495
4226,-0.028,0.495
4227,-0.028,0.495
4228,-0.028,0.457
4229,-0.028,0.457
4230,-0.043,0.457
4231,-0.043,0.457
4232,-0.043,0.413
4233,-0.057,0.413
4234,-0.057,0.413
4235,-0.057,0.413
4236,-0.057,0.367
4237,-0.057,0.367
4238,-0.057,0.367
4239,-0.057,0.367
4240,-0.057,0.318
4241,-0.057,0.318
4242,-0.057,0.318
4243,-0.057,0.318
4244,-0.057,0.269
4245,-0.057,0.269
4246,-0.057,0.269
4247,-0.072,0.269
4248,-0.072,0.220
4249,-0.072,0.220
4250,-0.087,0.220
4251,-0.087,0.220
4252,-0.087,0.172
4253,-0.087,0.172
4254,-0.072,0.172
4255,-0.072,0.172
4256,-0.072,0.126
4257,-0.072,0.126
4258,-0.072,0.126
4259,-0.087,0.126
4260,-0.072,0.084
4261,-0.072,0.084
4262,-0.072,0.084
4263,-0.072,0.084
4264,-0.087,0.046
4265,-0.072,0.046
4266,-0.072,0.046
4267,-0.072,0.046
4268,-0.072,0.011
4269,-0.072,0.011
4270,-0.072,0.011
4271,-0.072,0.011
4272,-0.072,-0.017
4273,-0.072,-0.017
4274,-0.072,-0.017
4275,-0.072,-0.017
4276,-0.057,-0.043
4277,-0.057,-0.043
4278,-0.028,-0.043
4279,-0.013,-0.043
4280,0.001,-0.064
4281,0.015,-0.064
4282,0.015,-0.064
4283,0.030,-0.064
4284,0.030,-0.083
4285,0.015,-0.083
4286,0.015,-0.083
4287,0.015,-0.083
4288,0.015,-0.096
4289,0.030,-0.096
4290,0.015,-0.096
4291,0.015,-0.096
4292,0.015,-0.110
4293,0.001,-0.110
4294,0.001,-0.110
4295,0.001,-0.110
4296,0.001,-0.119
4297,0.001,-0.119
4298,-0.013,-0.119
4299,-0.028,-0.119
4300,-0.028,-0.130
4301,-0.028,-0.130
4302,-0.028,-0.130
4303,-0.043,-0.130
4304,-0.043,-0.140
4305,-0.057,-0.140
4306,-0.057,-0.140
4307,-0.057,-0.140
4308,-0.072,-0.150
4309,-0.057,-0.150
4310,-0.057,-0.150
4311,-0.072,-0.150
4312,-0.057,-0.160
4313,-0.057,-0.160
4314,-0.057,-0.160
4315,-0.057,-0.160
4316,-0.057,-0.173
4317,-0.057,-0.173
4318,-0.072,-0.173
4319,-0.072,-0.173
4320,-0.072,-0.186
4321,-0.072,-0.186
4322,-0.087,-0.186
4323,-0.087,-0.186
4324,-0.087,-0.202
4325,-0.072,-0.202
4326,-0.072,-0.202
4327,-0.072,-0.202
4328,-0.072,-0.222
4329,-0.057,-0.222
4330,-0.057,-0.222
4331,-0.057,-0.222
4332,-0.057,-0.245
4333,-0.057,-0.245
4334,-0.057,-0.245
4335,-0.057,-0.245
4336,-0.057,-0.271
4337,-0.057,-0.271
4338,-0.057,-0.271
4339,-0.057,-0.271
4340,-0.057,-0.302
4341,-0.057,-0.302
4342,-0.057,-0.302
4343,-0.057,-0.302
4344,-0.057,-0.337
4345,-0.057,-0.337
4346,-0.057,-0.337
4347,-0.043,-0.337
4348,-0.028,-0.376
4349,-0.043,-0.376
4350,-0.043,-0.376
4351,-0.057,-0.376
4352,-0.043,-0.415
4353,-0.028,-0.415
4354,-0.013,-0.415
4355,0.001,-0.415
4356,0.001,-0.458
4357,0.015,-0.458
4358,0.015,-0.458
4359,0.030,-0.458
4360,0.030,-0.501
4361,0.030,-0.501
4362,0.015,-0.501
4363,0.015,-0.501
4364,0.015,-0.542
4365,0.015,-0.542
4366,0.015,-0.542
4367,0.030,-0.542
4368,0.045,-0.586
4369,0.059,-0.586
4370,0.059,-0.586
4371,0.059,-0.586
4372,0.059,-0.625
4373,0.059,-0.625
4374,0.045,-0.625
4375,0.045,-0.625
4376,0.074,-0.662
4377,0.118,-0.662
4378,0.192,-0.662
4379,0.250,-0.662
4380,0.353,-0.698
4381,0.470,-0.698
4382,0.573,-0.698
4383,0.588,-0.698
4384,0.529,-0.729
4385,0.441,-0.729
4386,0.294,-0.729
4387,0.148,-0.729
4388,-0.013,-0.757
4389,-0.146,-0.757
4390,-0.248,-0.757
4391,-0.351,-0.757
4392,-0.424,-0.780
4393,-0.483,-0.780
4394,-0.497,-0.780
4395,-0.497,-0.780
4396,-0.483,-0.797
4397,-0.468,-0.797
4398,-0.424,-0.797
4399,-0.380,-0.797
4400,-0.336,-0.809
4401,-0.277,-0.809
4402,-0.233,-0.809
4403,-0.190,-0.809
4404,-0.160,-0.815
4405,-0.160,-0.815
4406,-0.146,-0.815
4407,-0.146,-0.815
4408,-0.146,-0.811
4409,-0.146,-0.811
4410,-0.131,-0.811
4411,-0.131,-0.811
4412,-0.116,-0.797
4413,-0.116,-0.797
4414,-0.116,-0.797
4415,-0.102,-0.797
4416,-0.102,-0.680
4417,-0.102,-0.680
4418,-0.087,-0.680
4419,-0.072,-0.680
4420,-0.087,-0.645
4421,-0.087,-0.645
4422,-0.102,-0.645
4423,-0.102,-0.645
4424,-0.102,-0.602
4425,-0.102,-0.602
4426,-0.087,-0.602
4427,-0.072,-0.602
4428,-0.072,-0.547
4429,-0.057,-0.547
4430,-0.057,-0.547
4431,-0.043,-0.547
4432,-0.057,-0.485
4433,-0.043,-0.485
4434,-0.043,-0.485
4435,-0.028,-0.485
4436,-0.013,-0.417
4437,-0.013,-0.417
4438,0.001,-0.417
4439,0.015,-0.417
4440,0.015,-0.347
4441,0.030,-0.347
4442,0.030,-0.347
4443,0.030,-0.347
4444,0.030,-0.276
4445,0.015,-0.276
4446,0.015,-0.276
4447,0.015,-0.276
4448,0.015,-0.207
4449,0.015,-0.207
4450,0.015,-0.207
4451,0.015,-0.207
4452,0.015,-0.145
4453,0.015,-0.145
4454,0.001,-0.145
4455,0.001,-0.145
4456,0.001,-0.090
4457,0.001,-0.090
4458,0.001,-0.090
4459,0.015,-0.090
4460,0.030,-0.043
4461,0.045,-0.043
4462,0.059,-0.043
4463,0.074,-0.043
4464,0.074,-0.004
4465,0.074,-0.004
4466,0.089,-0.004
4467,0.089,-0.004
4468,0.089,0.023
4469,0.089,0.023
4470,0.104,0.023
4471,0.118,0.023
4472,0.133,0.039
4473,0.162,0.039
4474,0.162,0.039
4475,0.177,0.039
4476,0.177,0.045
4477,0.177,0.045
4478,0.177,0.045
4479,0.192,0.045
4480,0.207,0.040
4481,0.207,0.040
4482,0.207,0.040
4483,0.207,0.040
4484,0.221,0.028
4485,0.235,0.028
4486,0.235,0.028
4487,0.250,0.028
4488,0.250,0.005
4489,0.265,0.005
4490,0.265,0.005
4491,0.265,0.005
4492,0.279,-0.021
4493,0.265,-0.021
4494,0.279,-0.021
4495,0.279,-0.021
4496,0.265,-0.051
4497,0.265,-0.051
4498,0.250,-0.051
4499,0.265,-0.051
4500,0.265,-0.081
4501,0.250,-0.081
4502,0.250,-0.081
4503,0.250,-0.081
4504,0.250,-0.106
4505,0.235,-0.106
4506,0.221,-0.106
4507,0.207,-0.106
4508,0.207,-0.120
4509,0.192,-0.120
4510,0.207,-0.120
4511,0.192,-0.120
4512,0.192,-0.122
4513,0.192,-0.122
4514,0.207,-0.122
4515,0.207,-0.122
4516,0.192,-0.105
4517,0.192,-0.105
4518,0.192,-0.105
4519,0.177,-0.105
4520,0.162,-0.070
4521,0.148,-0.070
4522,0.133,-0.070
4523,0.104,-0.070
4524,0.104,-0.015
4525,0.104,-0.015
4526,0.104,-0.015
4527,0.089,-0.015
4528,0.074,0.059
4529,0.074,0.059
4530,0.059,0.059
4531,0.045,0.059
4532,0.030,0.146
4533,0.030,0.146
4534,0.015,0.146
4535,0.015,0.146
4536,0.001,0.243
4537,-0.013,0.243
4538,-0.028,0.243
4539,-0.043,0.243
4540,-0.057,0.342
4541,-0.072,0.342
4542,-0.057,0.342
4543,-0.057,0.342
4544,-0.043,0.439
4545,-0.043,0.439
4546,-0.043,0.439
4547,-0.043,0.439
4548,-0.028,0.529
4549,-0.028,0.529
4550,-0.028,0.529
4551,-0.028,0.529
4552,-0.028,0.609
4553,-0.028,0.609
4554,-0.043,0.609
4555,-0.043,0.609
4556,-0.028,0.671
4557,-0.043,0.671
4558,-0.043,0.671
4559,-0.028,0.671
4560,-0.028,0.722
4561,-0.043,0.722
4562,-0.043,0.722
4563,-0.028,0.722
4564,-0.043,0.757
4565,-0.043,0.757
4566,-0.028,0.757
4567,-0.028,0.757
4568,-0.028,0.777
4569,-0.013,0.777
4570,-0.013,0.777
4571,-0.028,0.777
4572,-0.028,0.784
4573,-0.028,0.784
4574,-0.013,0.784
4575,-0.013,0.784
4576,-0.013,0.783
4577,-0.013,0.783
4578,-0.028,0.783
4579,-0.028,0.783
4580,-0.028,0.774
4581,-0.028,0.774
4582,-0.028,0.774
4583,-0.028,0.774
4584,-0.028,0.757
4585,-0.013,0.757
4586,-0.013,0.757
4587,-0.013,0.757
4588,0.001,0.733
4589,0.001,0.733
4590,0.001,0.733
4591,0.001,0.733
4592,0.001,0.703
4593,0.001,0.703
4594,0.001,0.703
4595,-0.013,0.703
4596,-0.028,0.666
4597,-0.028,0.666
4598,-0.028,0.666
4599,-0.028,0.666
4600,-0.013,0.625
4601,-0.013,0.625
4602,0.001,0.625
4603,0.015,0.625
4604,0.015,0.580
4605,0.030,0.580
4606,0.030,0.580
4607,0.030,0.580
4608,0.045,0.530
4609,0.045,0.530
4610,0.030,0.530
4611,0.015,0.530
4612,0.015,0.477
4613,0.001,0.477
4614,0.001,0.477
4615,0.001,0.477
4616,0.030,0.420
4617,0.030,0.420
4618,0.015,0.420
4619,0.015,0.420
4620,0.015,0.364
4621,0.015,0.364
4622,0.015,0.364
4623,0.015,0.364
4624,0.001,0.307
4625,0.001,0.307
4626,-0.013,0.307
4627,-0.013,0.307
4628,-0.013,0.251
4629,-0.013,0.251
4630,0.001,0.251
4631,0.001,0.251
4632,0.001,0.196
4633,-0.013,0.196
4634,-0.013,0.196
4635,-0.013,0.196
4636,-0.013,0.141
4637,-0.028,0.141
4638,-0.028,0.141
4639,-0.043,0.141
4640,-0.043,0.092
4641,-0.028,0.092
4642,-0.028,0.092
4643,-0.043,0.092
4644,-0.043,0.047
4645,-0.057,0.047
4646,-0.057,0.047
4647,-0.057,0.047
4648,-0.043,0.004
4649,-0.043,0.004
4650,-0.043,0.004
4651,-0.043,0.004
4652,-0.057,-0.033
4653,-0.057,-0.033
4654,-0.057,-0.033
4655,-0.043,-0.033
4656,-0.043,-0.068
4657,-0.043,-0.068
4658,-0.043,-0.068
4659,-0.043,-0.068
4660,-0.057,-0.097
4661,-0.057,-0.097
4662,-0.057,-0.097
4663,-0.057,-0.097
4664,-0.057,-0.124
4665,-0.043,-0.124
4666,-0.043,-0.124
4667,-0.043,-0.124
4668,-0.028,-0.146
4669,-0.028,-0.146
4670,-0.043,-0.146
4671,-0.057,-0.146
4672,-0.057,-0.171
4673,-0.043,-0.171
4674,-0.028,-0.171
4675,-0.028,-0.171
4676,-0.028,-0.186
4677,-0.028,-0.186
4678,-0.013,-0.186
4679,0.001,-0.186
4680,0.001,-0.200
4681,0.001,-0.200
4682,-0.013,-0.200
4683,-0.013,-0.200
4684,-0.013,-0.212
4685,-0.028,-0.212
4686,-0.043,-0.212
4687,-0.057,-0.212
4688,-0.043,-0.222
4689,-0.028,-0.222
4690,-0.013,-0.222
4691,0.001,-0.222
4692,0.001,-0.230
4693,0.015,-0.230
4694,0.030,-0.230
4695,0.045,-0.230
4696,0.045,-0.236
4697,0.059,-0.236
4698,0.059,-0.236
4699,0.059,-0.236
4700,0.059,-0.239
4701,0.045,-0.239
4702,0.030,-0.239
4703,0.030,-0.239
4704,0.015,-0.242
4705,0.015,-0.242
4706,0.015,-0.242
4707,0.015,-0.242
4708,0.015,-0.242
4709,0.015,-0.242
4710,0.015,-0.242
4711,0.001,-0.242
4712,0.001,-0.240
4713,0.001,-0.240
4714,0.015,-0.240
4715,0.015,-0.240
4716,0.015,-0.237
4717,0.030,-0.237
4718,0.059,-0.237
4719,0.074,-0.237
4720,0.118,-0.234
4721,0.177,-0.234
4722,0.250,-0.234
4723,0.353,-0.234
4724,0.455,-0.230
4725,0.558,-0.230
4726,0.617,-0.230
4727,0.602,-0.230
4728,0.573,-0.228
4729,0.455,-0.228
4730,0.279,-0.228
4731,0.118,-0.228
4732,0.001,-0.224
4733,-0.102,-0.224
4734,-0.160,-0.224
4735,-0.205,-0.224
4736,-0.248,-0.221
4737,-0.322,-0.221
4738,-0.380,-0.221
4739,-0.410,-0.221
4740,-0.439,-0.218
4741,-0.453,-0.218
4742,-0.453,-0.218
4743,-0.395,-0.218
4744,-0.351,-0.220
4745,-0.307,-0.220
4746,-0.263,-0.220
4747,-0.205,-0.220
4748,-0.160,-0.217
4749,-0.146,-0.217
4750,-0.116,-0.217
4751,-0.102,-0.217
4752,-0.087,-0.218
4753,-0.087,-0.218
4754,-0.087,-0.218
4755,-0.102,-0.218
4756,-0.102,-0.220
4757,-0.102,-0.220
4758,-0.116,-0.220
4759,-0.116,-0.220
4760,-0.102,-0.223
4761,-0.102,-0.223
4762,-0.102,-0.223
4763,-0.087,-0.223
4764,-0.072,-0.224
4765,-0.072,-0.224
4766,-0.043,-0.224
4767,-0.028,-0.224
4768,-0.028,-0.227
4769,0.001,-0.227
4770,0.001,-0.227
4771,0.001,-0.227
4772,0.001,-0.230
4773,0.001,-0.230
4774,0.001,-0.230
4775,0.001,-0.230
4776,0.001,-0.233
4777,0.001,-0.233
4778,0.015,-0.233
4779,0.015,-0.233
4780,0.015,-0.234
4781,0.001,-0.234
4782,0.001,-0.234
4783,-0.013,-0.234
4784,-0.013,-0.236
4785,-0.028,-0.236
4786,-0.028,-0.236
4787,-0.028,-0.236
4788,-0.028,-0.238
4789,-0.028,-0.238
4790,-0.028,-0.238
4791,-0.028,-0.238
4792,-0.028,-0.238
4793,-0.028,-0.238
4794,-0.028,-0.238
4795,-0.028,-0.238
4796,-0.028,-0.238
4797,-0.028,-0.238
4798,-0.013,-0.238
4799,-0.013,-0.238
4800,0.001,-0.239
4801,0.001,-0.239
4802,0.001,-0.239
4803,0.001,-0.239
4804,0.001,-0.238
4805,0.001,-0.238
4806,0.001,-0.238
4807,0.001,-0.238
4808,0.015,-0.237
4809,0.015,-0.237
4810,0.030,-0.237
4811,0.030,-0.237
4812,0.059,-0.237
4813,0.059,-0.237
4814,0.074,-0.237
4815,0.089,-0.237
4816,0.089,-0.236
4817,0.104,-0.236
4818,0.118,-0.236
4819,0.133,-0.236
4820,0.148,-0.236
4821,0.148,-0.236
4822,0.162,-0.236
4823,0.162,-0.236
4824,0.177,-0.237
4825,0.192,-0.237
4826,0.192,-0.237
4827,0.207,-0.237
4828,0.207,-0.241
4829,0.207,-0.241
4830,0.221,-0.241
4831,0.221,-0.241
4832,0.235,-0.243
4833,0.235,-0.243
4834,0.235,-0.243
4835,0.235,-0.243
4836,0.235,-0.249
4837,0.235,-0.249
4838,0.235,-0.249
4839,0.250,-0.249
4840,0.250,-0.256
4841,0.250,-0.256
4842,0.265,-0.256
4843,0.279,-0.256
4844,0.279,-0.262
4845,0.279,-0.262
4846,0.294,-0.262
4847,0.279,-0.262
4848,0.265,-0.270
4849,0.250,-0.270
4850,0.235,-0.270
4851,0.235,-0.270
4852,0.207,-0.275
4853,0.207,-0.275
4854,0.192,-0.275
4855,0.192,-0.275
4856,0.162,-0.277
4857,0.148,-0.277
4858,0.118,-0.277
4859,0.118,-0.277
4860,0.089,-0.276
4861,0.074,-0.276
4862,0.059,-0.276
4863,0.030,-0.276
4864,0.015,-0.270
4865,0.001,-0.270
4866,0.001,-0.270
4867,0.001,-0.270
4868,-0.013,-0.254
4869,-0.028,-0.254
4870,-0.028,-0.254
4871,-0.043,-0.254
4872,-0.057,-0.232
4873,-0.057,-0.232
4874,-0.057,-0.232
4875,-0.072,-0.232
4876,-0.072,-0.200
4877,-0.072,-0.200
4878,-0.072,-0.200
4879,-0.072,-0.200
4880,-0.072,-0.157
4881,-0.072,-0.157
4882,-0.072,-0.157
4883,-0.072,-0.157
4884,-0.072,-0.104
4885,-0.072,-0.104
4886,-0.087,-0.104
4887,-0.087,-0.104
4888,-0.072,-0.046
4889,-0.072,-0.046
4890,-0.072,-0.046
4891,-0.072,-0.046
4892,-0.072,0.019
4893,-0.072,0.019
4894,-0.072,0.019
4895,-0.072,0.019
4896,-0.072,0.086
4897,-0.072,0.086
4898,-0.072,0.086
4899,-0.072,0.086
4900,-0.057,0.153
4901,-0.057,0.153
4902,-0.043,0.153
4903,-0.043,0.153
4904,-0.028,0.216
4905,-0.028,0.216
4906,-0.028,0.216
4907,-0.028,0.216
4908,-0.028,0.271
4909,-0.028,0.271
4910,-0.028,0.271
4911,-0.028,0.271
4912,-0.028,0.317
4913,-0.028,0.317
4914,-0.028,0.317
4915,-0.028,0.317
4916,-0.028,0.351
4917,-0.028,0.351
4918,-0.028,0.351
4919,-0.028,0.351
4920,-0.013,0.375
4921,0.001,0.375
4922,0.001,0.375
4923,0.001,0.375
4924,0.015,0.388
4925,0.015,0.388
4926,0.015,0.388
4927,0.030,0.388
4928,0.015,0.390
4929,0.015,0.390
4930,0.015,0.390
4931,0.015,0.390
4932,0.015,0.385
4933,0.015,0.385
4934,0.015,0.385
4935,0.015,0.385
4936,0.001,0.374
4937,0.001,0.374
4938,0.001,0.374
4939,0.001,0.374
4940,-0.013,0.358
4941,-0.013,0.358
4942,-0.013,0.358
4943,-0.028,0.358
4944,-0.028,0.338
4945,-0.028,0.338
4946,-0.028,0.338
4947,-0.043,0.338
4948,-0.057,0.316
4949,-0.057,0.316
4950,-0.057,0.316
4951,-0.057,0.316
4952,-0.057,0.290
4953,-0.072,0.290
4954,-0.057,0.290
4955,-0.057,0.290
4956,-0.057,0.263
4957,-0.072,0.263
4958,-0.057,0.263
4959,-0.057,0.263
4960,-0.072,0.233
4961,-0.072,0.233
4962,-0.072,0.233
4963,-0.072,0.233
4964,-0.072,0.201
4965,-0.072,0.201
4966,-0.072,0.201
4967,-0.072,0.201
4968,-0.072,0.166
4969,-0.072,0.166
4970,-0.072,0.166
4971,-0.087,0.166
4972,-0.072,0.130
4973,-0.072,0.130
4974,-0.072,0.130
4975,-0.072,0.130
4976,-0.072,0.096
4977,-0.072,0.096
4978,-0.057,0.096
4979,-0.057,0.096
4980,-0.072,0.059
4981,-0.072,0.059
4982,-0.072,0.059
4983,-0.072,0.059
4984,-0.072,0.021
4985,-0.057,0.021
4986,-0.057,0.021
4987,-0.057,0.021
4988,-0.043,-0.015
4989,-0.043,-0.015
4990,-0.028,-0.015
4991,-0.028,-0.015
4992,-0.028,-0.050
4993,-0.028,-0.050
4994,-0.028,-0.050
4995,0.001,-0.050
4996,0.015,-0.085
4997,0.074,-0.085
4998,0.148,-0.085
4999,0.235,-0.085
5000,0.324,-0.119
5001,0.426,-0.119
5002,0.470,-0.119
5003,0.441,-0.119
5004,0.412,-0.151
5005,0.294,-0.151
5006,0.162,-0.151
5007,0.045,-0.151
5008,-0.043,-0.180
5009,-0.146,-0.180
5010,-0.190,-0.180
5011,-0.233,-0.180
5012,-0.277,-0.207
5013,-0.307,-0.207
5014,-0.336,-0.207
5015,-0.366,-0.207
5016,-0.395,-0.230
5017,-0.395,-0.230
5018,-0.366,-0.230
5019,-0.322,-0.230
5020,-0.277,-0.249
5021,-0.233,-0.249
5022,-0.190,-0.249
5023,-0.146,-0.249
5024,-0.146,-0.264
5025,-0.116,-0.264
5026,-0.116,-0.264
5027,-0.116,-0.264
5028,-0.116,-0.275
5029,-0.116,-0.275
5030,-0.131,-0.275
5031,-0.131,-0.275
5032,-0.131,-0.281
5033,-0.131,-0.281
5034,-0.131,-0.281
5035,-0.131,-0.281
5036,-0.131,-0.286
5037,-0.131,-0.286
5038,-0.116,-0.286
5039,-0.116,-0.286
5040,-0.116,-0.290
5041,-0.116,-0.290
5042,-0.116,-0.290
5043,-0.116,-0.290
5044,-0.116,-0.291
5045,-0.116,-0.291
5046,-0.102,-0.291
5047,-0.102,-0.291
5048,-0.102,-0.291
5049,-0.102,-0.291
5050,-0.116,-0.291
5051,-0.116,-0.291
5052,-0.102,-0.290
5053,-0.102,-0.290
5054,-0.102,-0.290
5055,-0.102,-0.290
5056,-0.102,-0.290
5057,-0.102,-0.290
5058,-0.087,-0.290
5059,-0.072,-0.290
5060,-0.072,-0.290
5061,-0.057,-0.290
5062,-0.057,-0.290
5063,-0.057,-0.290
5064,-0.057,-0.291
5065,-0.057,-0.291
5066,-0.057,-0.291
5067,-0.057,-0.291
5068,-0.043,-0.293
5069,-0.043,-0.293
5070,-0.028,-0.293
5071,-0.028,-0.293
5072,-0.013,-0.296
5073,-0.013,-0.296
5074,-0.013,-0.296
5075,-0.013,-0.296
5076,0.001,-0.297
5077,0.001,-0.297
5078,0.001,-0.297
5079,0.015,-0.297
5080,0.015,-0.301
5081,0.045,-0.301
5082,0.059,-0.301
5083,0.089,-0.301
5084,0.118,-0.304
5085,0.133,-0.304
5086,0.162,-0.304
5087,0.177,-0.304
5088,0.192,-0.309
5089,0.192,-0.309
5090,0.207,-0.309
5091,0.207,-0.309
5092,0.207,-0.314
5093,0.235,-0.314
5094,0.235,-0.314
5095,0.250,-0.314
5096,0.250,-0.319
5097,0.250,-0.319
5098,0.250,-0.319
5099,0.250,-0.319
5100,0.250,-0.322
5101,0.250,-0.322
5102,0.235,-0.322
5103,0.235,-0.322
5104,0.235,-0.326
5105,0.235,-0.326
5106,0.235,-0.326
5107,0.221,-0.326
5108,0.207,-0.329
5109,0.207,-0.329
5110,0.207,-0.329
5111,0.207,-0.329
5112,0.207,-0.330
5113,0.207,-0.330
5114,0.192,-0.330
5115,0.192,-0.330
5116,0.192,-0.330
5117,0.192,-0.330
5118,0.177,-0.330
5119,0.177,-0.330
5120,0.162,-0.328
5121,0.162,-0.328
5122,0.162,-0.328
5123,0.148,-0.328
5124,0.133,-0.327
5125,0.118,-0.327
5126,0.118,-0.327
5127,0.118,-0.327
5128,0.104,-0.320
5129,0.089,-0.320
5130,0.074,-0.320
5131,0.059,-0.320
5132,0.059,-0.312
5133,0.030,-0.312
5134,0.030,-0.312
5135,0.015,-0.312
5136,0.015,-0.298
5137,0.015,-0.298
5138,0.001,-0.298
5139,0.001,-0.298
5140,0.001,-0.280
5141,-0.013,-0.280
5142,-0.013,-0.280
5143,-0.013,-0.280
5144,-0.028,-0.255
5145,-0.028,-0.255
5146,-0.028,-0.255
5147,-0.028,-0.255
5148,-0.028,-0.218
5149,-0.057,-0.218
5150,-0.057,-0.218
5151,-0.057,-0.218
5152,-0.057,-0.175
5153,-0.057,-0.175
5154,-0.043,-0.175
5155,-0.028,-0.175
5156,-0.028,-0.125
5157,-0.013,-0.125
5158,0.001,-0.125
5159,0.001,-0.125
5160,0.015,-0.069
5161,0.030,-0.069
5162,0.045,-0.069
5163,0.045,-0.069
5164,0.045,-0.007
5165,0.045,-0.007
5166,0.030,-0.007
5167,0.030,-0.007
5168,0.030,0.054
5169,0.030,0.054
5170,0.015,0.054
5171,0.015,0.054
5172,0.015,0.111
5173,0.015,0.111
5174,0.001,0.111
5175,0.001,0.111
5176,0.001,0.164
5177,0.001,0.164
5178,-0.013,0.164
5179,-0.013,0.164
5180,-0.013,0.210
5181,-0.028,0.210
5182,-0.028,0.210
5183,-0.028,0.210
5184,-0.028,0.260
5185,-0.043,0.260
5186,-0.057,0.260
5187,-0.057,0.260
5188,-0.057,0.289
5189,-0.043,0.289
5190,-0.043,0.289
5191,-0.043,0.289
5192,-0.043,0.306
5193,-0.043,0.306
5194,-0.043,0.306
5195,-0.043,0.306
5196,-0.028,0.316
5197,-0.043,0.316
5198,-0.043,0.316
5199,-0.043,0.316
5200,-0.028,0.319
5201,-0.028,0.319
5202,-0.028,0.319
5203,-0.028,0.319
5204,-0.028,0.316
5205,-0.043,0.316
5206,-0.028,0.316
5207,-0.043,0.316
5208,-0.043,0.308
5209,-0.043,0.308
5210,-0.028,0.308
5211,-0.043,0.308
5212,-0.043,0.296
5213,-0.057,0.296
5214,-0.072,0.296
5215,-0.102,0.296
5216,-0.116,0.278
5217,-0.116,0.278
5218,-0.116,0.278
5219,-0.102,0.278
5220,-0.057,0.258
5221,-0.013,0.258
5222,0.059,0.258
5223,0.162,0.258
5224,0.279,0.234
5225,0.382,0.234
5226,0.441,0.234
5227,0.441,0.234
5228,0.382,0.208
5229,0.250,0.208
5230,0.118,0.208
5231,0.001,0.208
5232,-0.116,0.178
5233,-0.205,0.178
5234,-0.277,0.178
5235,-0.322,0.178
5236,-0.351,0.146
5237,-0.351,0.146
5238,-0.336,0.146
5239,-0.307,0.146
5240,-0.248,0.111
5241,-0.205,0.111
5242,-0.175,0.111
5243,-0.131,0.111
5244,-0.102,0.076
5245,-0.072,0.076
5246,-0.072,0.076
5247,-0.057,0.076
5248,-0.057,0.040
5249,-0.057,0.040
5250,-0.057,0.040
5251,-0.057,0.040
5252,-0.057,0.003
5253,-0.072,0.003
5254,-0.072,0.003
5255,-0.087,0.003
5256,-0.087,-0.033
5257,-0.087,-0.033
5258,-0.102,-0.033
5259,-0.102,-0.033
5260,-0.102,-0.066
5261,-0.102,-0.066
5262,-0.102,-0.066
5263,-0.102,-0.066
5264,-0.102,-0.098
5265,-0.102,-0.098
5266,-0.102,-0.098
5267,-0.102,-0.098
5268,-0.102,-0.126
5269,-0.102,-0.126
5270,-0.116,-0.126
5271,-0.116,-0.126
5272,-0.116,-0.150
5273,-0.102,-0.150
5274,-0.102,-0.150
5275,-0.102,-0.150
5276,-0.102,-0.171
5277,-0.102,-0.171
5278,-0.087,-0.171
5279,-0.072,-0.171
5280,-0.072,-0.187
5281,-0.072,-0.187
5282,-0.057,-0.187
5283,-0.057,-0.187
5284,-0.057,-0.199
5285,-0.057,-0.199
5286,-0.057,-0.199
5287,-0.057,-0.199
5288,-0.057,-0.207
5289,-0.057,-0.207
5290,-0.057,-0.207
5291,-0.043,-0.207
5292,-0.043,-0.213
5293,-0.043,-0.213
5294,-0.028,-0.213
5295,-0.028,-0.213
5296,-0.013,-0.216
5297,-0.013,-0.216
5298,0.001,-0.216
5299,0.001,-0.216
5300,0.001,-0.218
5301,0.001,-0.218
5302,0.001,-0.218
5303,0.001,-0.218
5304,0.015,-0.219
5305,0.030,-0.219
5306,0.059,-0.219
5307,0.074,-0.219
5308,0.104,-0.218
5309,0.118,-0.218
5310,0.148,-0.218
5311,0.177,-0.218
5312,0.192,-0.219
5313,0.221,-0.219
5314,0.235,-0.219
5315,0.235,-0.219
5316,0.250,-0.220
5317,0.250,-0.220
5318,0.235,-0.220
5319,0.235,-0.220
5320,0.235,-0.220
5321,0.235,-0.220
5322,0.221,-0.220
5323,0.221,-0.220
5324,0.221,-0.222
5325,0.221,-0.222
5326,0.221,-0.222
5327,0.221,-0.222
5328,0.221,-0.224
5329,0.221,-0.224
5330,0.221,-0.224
5331,0.207,-0.224
5332,0.221,-0.226
5333,0.207,-0.226
5334,0.221,-0.226
5335,0.207,-0.226
5336,0.207,-0.229
5337,0.192,-0.229
5338,0.192,-0.229
5339,0.177,-0.229
5340,0.162,-0.230
5341,0.162,-0.230
5342,0.162,-0.230
5343,0.148,-0.230
5344,0.148,-0.231
5345,0.133,-0.231
5346,0.118,-0.231
5347,0.118,-0.231
5348,0.118,-0.232
5349,0.104,-0.232
5350,0.104,-0.232
5351,0.074,-0.232
5352,0.059,-0.230
5353,0.059,-0.230
5354,0.045,-0.230
5355,0.030,-0.230
5356,0.015,-0.224
5357,0.015,-0.224
5358,0.001,-0.224
5359,0.001,-0.224
5360,0.001,-0.217
5361,0.001,-0.217
5362,-0.013,-0.217
5363,-0.013,-0.217
5364,-0.013,-0.203
5365,-0.013,-0.203
5366,-0.013,-0.203
5367,-0.013,-0.203
5368,-0.013,-0.184
5369,-0.013,-0.184
5370,0.001,-0.184
5371,0.001,-0.184
5372,0.001,-0.158
5373,-0.013,-0.158
5374,-0.013,-0.158
5375,-0.028,-0.158
5376,-0.028,-0.125
5377,-0.028,-0.125
5378,-0.028,-0.125
5379,-0.028,-0.125
5380,-0.013,-0.089
5381,-0.013,-0.089
5382,-0.013,-0.089
5383,0.001,-0.089
5384,0.015,-0.046
5385,0.030,-0.046
5386,0.045,-0.046
5387,0.059,-0.046
5388,0.059,0.000
5389,0.059,0.000
5390,0.059,0.000
5391,0.045,0.000
5392,0.045,0.049
5393,0.045,0.049
5394,0.030,0.049
5395,0.045,0.049
5396,0.045,0.095
5397,0.030,0.095
5398,0.030,0.095
5399,0.030,0.095
5400,0.030,0.137
5401,0.015,0.137
5402,0.015,0.137
5403,0.015,0.137
5404,0.015,0.173
5405,0.001,0.173
5406,0.001,0.173
5407,0.001,0.173
5408,0.001,0.204
5409,0.001,0.204
5410,0.001,0.204
5411,0.001,0.204
5412,0.001,0.225
5413,-0.013,0.225
5414,-0.013,0.225
5415,-0.028,0.225
5416,-0.028,0.240
5417,-0.028,0.240
5418,-0.028,0.240
5419,-0.028,0.240
5420,-0.013,0.246
5421,-0.013,0.246
5422,-0.013,0.246
5423,-0.013,0.246
5424,-0.028,0.246
5425,-0.028,0.246
5426,-0.028,0.246
5427,-0.028,0.246
5428,-0.028,0.240
5429,-0.028,0.240
5430,-0.028,0.240
5431,-0.028,0.240
5432,-0.043,0.228
5433,-0.057,0.228
5434,-0.057,0.228
5435,-0.057,0.228
5436,-0.057,0.210
5437,-0.043,0.210
5438,-0.057,0.210
5439,-0.057,0.210
5440,-0.057,0.174
5441,-0.057,0.174
5442,-0.043,0.174
5443,-0.043,0.174
5444,-0.057,0.145
5445,-0.057,0.145
5446,-0.057,0.145
5447,-0.057,0.145
5448,-0.057,0.113
5449,-0.057,0.113
5450,-0.057,0.113
5451,-0.057,0.113
5452,-0.043,0.076
5453,-0.043,0.076
5454,-0.028,0.076
5455,-0.028,0.076
5456,-0.043,0.036
5457,-0.057,0.036
5458,-0.057,0.036
5459,-0.057,0.036
5460,-0.057,-0.006
5461,-0.072,-0.006
5462,-0.057,-0.006
5463,-0.043,-0.006
5464,-0.013,-0.050
5465,-0.013,-0.050
5466,-0.013,-0.050
5467,0.001,-0.050
5468,0.001,-0.092
5469,0.001,-0.092
5470,0.001,-0.092
5471,-0.013,-0.092
5472,-0.013,-0.135
5473,-0.013,-0.135
5474,-0.013,-0.135
5475,-0.013,-0.135
5476,-0.013,-0.173
5477,-0.013,-0.173
5478,-0.013,-0.173
5479,-0.013,-0.173
5480,-0.013,-0.206
5481,-0.013,-0.206
5482,-0.013,-0.206
5483,-0.028,-0.206
5484,-0.013,-0.236
5485,-0.028,-0.236
5486,-0.028,-0.236
5487,-0.028,-0.236
5488,-0.028,-0.261
5489,-0.057,-0.261
5490,-0.057,-0.261
5491,-0.057,-0.261
5492,-0.057,-0.282
5493,-0.057,-0.282
5494,-0.043,-0.282
5495,-0.028,-0.282
5496,-0.028,-0.299
5497,-0.028,-0.299
5498,-0.043,-0.299
5499,-0.057,-0.299
5500,-0.072,-0.312
5501,-0.072,-0.312
5502,-0.072,-0.312
5503,-0.072,-0.312
5504,-0.072,-0.324
5505,-0.072,-0.324
5506,-0.072,-0.324
5507,-0.072,-0.324
5508,-0.072,-0.333
5509,-0.072,-0.333
5510,-0.057,-0.333
5511,-0.057,-0.333
5512,-0.057,-0.341
5513,-0.057,-0.341
5514,-0.057,-0.341
5515,-0.057,-0.341
5516,-0.057,-0.346
5517,-0.057,-0.346
5518,-0.057,-0.346
5519,-0.057,-0.346
5520,-0.072,-0.352
5521,-0.072,-0.352
5522,-0.057,-0.352
5523,-0.057,-0.352
5524,-0.043,-0.357
5525,-0.028,-0.357
5526,-0.028,-0.357
5527,-0.028,-0.357
5528,-0.013,-0.362
5529,-0.028,-0.362
5530,-0.043,-0.362
5531,-0.057,-0.362
5532,-0.057,-0.365
5533,-0.057,-0.365
5534,-0.057,-0.365
5535,-0.043,-0.365
5536,-0.028,-0.368
5537,-0.043,-0.368
5538,-0.057,-0.368
5539,-0.057,-0.368
5540,-0.057,-0.369
5541,-0.057,-0.369
5542,-0.043,-0.369
5543,-0.057,-0.369
5544,-0.043,-0.370
5545,-0.028,-0.370
5546,-0.028,-0.370
5547,-0.028,-0.370
5548,-0.028,-0.369
5549,-0.043,-0.369
5550,-0.043,-0.369
5551,-0.057,-0.369
5552,-0.057,-0.369
5553,-0.072,-0.369
5554,-0.057,-0.369
5555,-0.057,-0.369
5556,-0.057,-0.367
5557,-0.028,-0.367
5558,-0.028,-0.367
5559,-0.013,-0.367
5560,-0.013,-0.367
5561,0.001,-0.367
5562,0.001,-0.367
5563,0.001,-0.367
5564,0.001,-0.365
5565,-0.013,-0.365
5566,0.001,-0.365
5567,0.001,-0.365
5568,0.001,-0.364
5569,0.001,-0.364
5570,0.001,-0.364
5571,0.001,-0.364
5572,0.001,-0.363
5573,0.001,-0.363
5574,0.001,-0.363
5575,0.001,-0.363
5576,0.001,-0.363
5577,0.001,-0.363
5578,0.001,-0.363
5579,0.001,-0.363
5580,0.015,-0.363
5581,0.015,-0.363
5582,0.015,-0.363
5583,0.001,-0.363
5584,0.001,-0.365
5585,0.001,-0.365
5586,0.001,-0.365
5587,0.001,-0.365
5588,0.001,-0.367
5589,0.001,-0.367
5590,0.001,-0.367
5591,0.001,-0.367
5592,0.015,-0.370
5593,0.045,-0.370
5594,0.059,-0.370
5595,0.074,-0.370
5596,0.074,-0.375
5597,0.074,-0.375
5598,0.104,-0.375
5599,0.118,-0.375
5600,0.162,-0.381
5601,0.207,-0.381
5602,0.279,-0.381
5603,0.368,-0.381
5604,0.470,-0.386
5605,0.573,-0.386
5606,0.660,-0.386
5607,0.660,-0.386
5608,0.617,-0.391
5609,0.529,-0.391
5610,0.353,-0.391
5611,0.207,-0.391
5612,0.074,-0.398
5613,-0.028,-0.398
5614,-0.102,-0.398
5615,-0.160,-0.398
5616,-0.205,-0.403
5617,-0.277,-0.403
5618,-0.322,-0.403
5619,-0.366,-0.403
5620,-0.380,-0.407
5621,-0.395,-0.407
5622,-0.380,-0.407
5623,-0.351,-0.407
5624,-0.307,-0.412
5625,-0.248,-0.412
5626,-0.205,-0.412
5627,-0.146,-0.412
5628,-0.102,-0.415
5629,-0.072,-0.415
5630,-0.057,-0.415
5631,-0.043,-0.415
5632,-0.043,-0.418
5633,-0.057,-0.418
5634,-0.043,-0.418
5635,-0.043,-0.418
5636,-0.028,-0.420
5637,-0.028,-0.420
5638,-0.028,-0.420
5639,-0.028,-0.420
5640,-0.013,-0.422
5641,-0.013,-0.422
5642,-0.013,-0.422
5643,-0.013,-0.422
5644,0.001,-0.422
5645,0.001,-0.422
5646,0.001,-0.422
5647,0.001,-0.422
5648,0.001,-0.423
5649,0.001,-0.423
5650,0.001,-0.423
5651,-0.013,-0.423
5652,-0.013,-0.421
5653,-0.013,-0.421
5654,-0.013,-0.421
5655,-0.013,-0.421
5656,-0.013,-0.421
5657,-0.028,-0.421
5658,-0.043,-0.421
5659,-0.057,-0.421
5660,-0.057,-0.420
5661,-0.072,-0.420
5662,-0.072,-0.420
5663,-0.072,-0.420
5664,-0.057,-0.419
5665,-0.057,-0.419
5666,-0.057,-0.419
5667,-0.057,-0.419
5668,-0.057,-0.418
5669,-0.043,-0.418
5670,-0.043,-0.418
5671,-0.043,-0.418
5672,-0.028,-0.415
5673,-0.028,-0.415
5674,-0.028,-0.415
5675,-0.028,-0.415
5676,-0.028,-0.414
5677,-0.028,-0.414
5678,-0.028,-0.414
5679,-0.013,-0.414
5680,-0.013,-0.414
5681,-0.013,-0.414
5682,0.001,-0.414
5683,0.001,-0.414
5684,0.001,-0.415
5685,0.015,-0.415
5686,0.030,-0.415
5687,0.030,-0.415
5688,0.030,-0.418
5689,0.030,-0.418
5690,0.045,-0.418
5691,0.059,-0.418
5692,0.059,-0.419
5693,0.074,-0.419
5694,0.089,-0.419
5695,0.089,-0.419
5696,0.104,-0.508
5697,0.118,-0.508
5698,0.133,-0.508
5699,0.148,-0.508
5700,0.148,-0.512
5701,0.162,-0.512
5702,0.177,-0.512
5703,0.192,-0.512
5704,0.207,-0.513
5705,0.221,-0.513
5706,0.235,-0.513
5707,0.250,-0.513
5708,0.265,-0.516
5709,0.279,-0.516
5710,0.279,-0.516
5711,0.294,-0.516
5712,0.279,-0.519
5713,0.279,-0.519
5714,0.279,-0.519
5715,0.279,-0.519
5716,0.279,-0.517
5717,0.279,-0.517
5718,0.294,-0.517
5719,0.294,-0.517
5720,0.294,-0.513
5721,0.294,-0.513
5722,0.294,-0.513
5723,0.309,-0.513
5724,0.324,-0.507
5725,0.338,-0.507
5726,0.368,-0.507
5727,0.382,-0.507
5728,0.397,-0.498
5729,0.382,-0.498
5730,0.368,-0.498
5731,0.353,-0.498
5732,0.353,-0.475
5733,0.353,-0.475
5734,0.338,-0.475
5735,0.309,-0.475
5736,0.294,-0.445
5737,0.265,-0.445
5738,0.235,-0.445
5739,0.207,-0.445
5740,0.207,-0.402
5741,0.192,-0.402
5742,0.192,-0.402
5743,0.177,-0.402
5744,0.162,-0.340
5745,0.148,-0.340
5746,0.133,-0.340
5747,0.118,-0.340
5748,0.104,-0.261
5749,0.074,-0.261
5750,0.059,-0.261
5751,0.059,-0.261
5752,0.059,-0.165
5753,0.059,-0.165
5754,0.045,-0.165
5755,0.015,-0.165
5756,0.001,-0.056
5757,-0.013,-0.056
5758,0.001,-0.056
5759,0.001,-0.056
5760,0.001,0.061
5761,0.001,0.061
5762,0.001,0.061
5763,0.001,0.061
5764,0.001,0.184
5765,-0.013,0.184
5766,-0.028,0.184
5767,-0.028,0.184
5768,-0.043,0.304
5769,-0.043,0.304
5770,-0.043,0.304
5771,-0.043,0.304
5772,-0.028,0.417
5773,-0.028,0.417
5774,-0.013,0.417
5775,0.001,0.417
5776,0.001,0.516
5777,0.001,0.516
5778,0.001,0.516
5779,0.001,0.516
5780,0.001,0.599
5781,0.001,0.599
5782,0.001,0.599
5783,0.015,0.599
5784,0.015,0.666
5785,0.015,0.666
5786,0.015,0.666
5787,0.015,0.666
5788,0.015,0.714
5789,0.001,0.714
5790,0.015,0.714
5791,0.015,0.714
5792,0.015,0.744
5793,0.015,0.744
5794,0.030,0.744
5795,0.030,0.744
5796,0.030,0.760
5797,0.030,0.760
5798,0.030,0.760
5799,0.030,0.760
5800,0.015,0.767
5801,0.015,0.767
5802,0.015,0.767
5803,0.030,0.767
5804,0.045,0.762
5805,0.059,0.762
5806,0.059,0.762
5807,0.074,0.762
5808,0.074,0.749
5809,0.074,0.749
5810,0.089,0.749
5811,0.104,0.749
5812,0.089,0.728
5813,0.074,0.728
5814,0.074,0.728
5815,0.059,0.728
5816,0.059,0.700
5817,0.030,0.700
5818,0.030,0.700
5819,0.015,0.700
5820,0.015,0.666
5821,0.015,0.666
5822,0.015,0.666
5823,0.015,0.666
5824,0.001,0.626
5825,0.001,0.626
5826,0.001,0.626
5827,-0.013,0.626
5828,-0.013,0.585
5829,-0.013,0.585
5830,-0.028,0.585
5831,-0.028,0.585
5832,-0.043,0.534
5833,-0.057,0.534
5834,-0.043,0.534
5835,-0.043,0.534
5836,-0.043,0.484
5837,-0.043,0.484
5838,-0.043,0.484
5839,-0.043,0.484
5840,-0.057,0.427
5841,-0.057,0.427
5842,-0.057,0.427
5843,-0.057,0.427
5844,-0.057,0.372
5845,-0.057,0.372
5846,-0.057,0.372
5847,-0.057,0.372
5848,-0.057,0.317
5849,-0.072,0.317
5850,-0.072,0.317
5851,-0.087,0.317
5852,-0.087,0.259
5853,-0.102,0.259
5854,-0.102,0.259
5855,-0.087,0.259
5856,-0.087,0.204
5857,-0.072,0.204
5858,-0.072,0.204
5859,-0.072,0.204
5860,-0.072,0.152
5861,-0.072,0.152
5862,-0.057,0.152
5863,-0.057,0.152
5864,-0.057,0.100
5865,-0.057,0.100
5866,-0.057,0.100
5867,-0.057,0.100
5868,-0.057,0.054
5869,-0.057,0.054
5870,-0.072,0.054
5871,-0.057,0.054
5872,-0.057,0.009
5873,-0.072,0.009
5874,-0.072,0.009
5875,-0.072,0.009
5876,-0.072,-0.030
5877,-0.072,-0.030
5878,-0.072,-0.030
5879,-0.057,-0.030
5880,-0.057,-0.065
5881,-0.043,-0.065
5882,-0.028,-0.065
5883,-0.028,-0.065
5884,-0.013,-0.097
5885,-0.013,-0.097
5886,-0.013,-0.097
5887,-0.013,-0.097
5888,-0.028,-0.124
5889,-0.028,-0.124
5890,-0.028,-0.124
5891,-0.028,-0.124
5892,-0.028,-0.145
5893,-0.028,-0.145
5894,-0.028,-0.145
5895,-0.028,-0.145
5896,-0.028,-0.166
5897,-0.028,-0.166
5898,-0.028,-0.166
5899,-0.043,-0.166
5900,-0.057,-0.183
5901,-0.057,-0.183
5902,-0.072,-0.183
5903,-0.072,-0.183
5904,-0.072,-0.195
5905,-0.072,-0.195
5906,-0.072,-0.195
5907,-0.072,-0.195
5908,-0.072,-0.207
5909,-0.072,-0.207
5910,-0.072,-0.207
5911,-0.072,-0.207
5912,-0.072,-0.215
5913,-0.072,-0.215
5914,-0.087,-0.215
5915,-0.087,-0.215
5916,-0.087,-0.223
5917,-0.087,-0.223
5918,-0.087,-0.223
5919,-0.087,-0.223
5920,-0.072,-0.231
5921,-0.087,-0.231
5922,-0.087,-0.231
5923,-0.087,-0.231
5924,-0.102,-0.237
5925,-0.102,-0.237
5926,-0.102,-0.237
5927,-0.102,-0.237
5928,-0.102,-0.243
5929,-0.102,-0.243
5930,-0.087,-0.243
5931,-0.087,-0.243
5932,-0.072,-0.249
5933,-0.072,-0.249
5934,-0.057,-0.249
5935,-0.057,-0.249
5936,-0.043,-0.257
5937,-0.057,-0.257
5938,-0.043,-0.257
5939,-0.057,-0.257
5940,-0.057,-0.264
5941,-0.057,-0.264
5942,-0.057,-0.264
5943,-0.072,-0.264
5944,-0.072,-0.269
5945,-0.072,-0.269
5946,-0.072,-0.269
5947,-0.072,-0.269
5948,-0.057,-0.277
5949,-0.057,-0.277
5950,-0.057,-0.277
5951,-0.057,-0.277
5952,-0.057,-0.322
5953,-0.057,-0.322
5954,-0.043,-0.322
5955,-0.057,-0.322
5956,-0.057,-0.328
5957,-0.057,-0.328
5958,-0.057,-0.328
5959,-0.043,-0.328
5960,-0.043,-0.337
5961,-0.028,-0.337
5962,-0.013,-0.337
5963,-0.013,-0.337
5964,0.001,-0.345
5965,0.001,-0.345
5966,0.015,-0.345
5967,0.015,-0.345
5968,0.030,-0.353
5969,0.015,-0.353
5970,0.030,-0.353
5971,0.030,-0.353
5972,0.045,-0.359
5973,0.045,-0.359
5974,0.030,-0.359
5975,0.045,-0.359
5976,0.059,-0.370
5977,0.074,-0.370
5978,0.104,-0.370
5979,0.162,-0.370
5980,0.250,-0.378
5981,0.338,-0.378
5982,0.441,-0.378
5983,0.529,-0.378
5984,0.558,-0.386
5985,0.529,-0.386
5986,0.485,-0.386
5987,0.382,-0.386
5988,0.221,-0.395
5989,0.074,-0.395
5990,-0.028,-0.395
5991,-0.116,-0.395
5992,-0.205,-0.405
5993,-0.248,-0.405
5994,-0.322,-0.405
5995,-0.380,-0.405
5996,-0.424,-0.415
5997,-0.468,-0.415
5998,-0.483,-0.415
5999,-0.483,-0.415
6000,-0.468,-0.424
6001,-0.424,-0.424
6002,-0.395,-0.424
6003,-0.336,-0.424
6004,-0.307,-0.434
6005,-0.263,-0.434
6006,-0.233,-0.434
6007,-0.205,-0.434
6008,-0.205,-0.444
6009,-0.190,-0.444
6010,-0.160,-0.444
6011,-0.160,-0.444
6012,-0.160,-0.455
6013,-0.160,-0.455
6014,-0.146,-0.455
6015,-0.146,-0.455
6016,-0.146,-0.465
6017,-0.131,-0.465
6018,-0.131,-0.465
6019,-0.116,-0.465
6020,-0.116,-0.475
6021,-0.116,-0.475
6022,-0.116,-0.475
6023,-0.116,-0.475
6024,-0.116,-0.487
6025,-0.116,-0.487
6026,-0.116,-0.487
6027,-0.116,-0.487
6028,-0.116,-0.499
6029,-0.116,-0.499
6030,-0.116,-0.499
6031,-0.116,-0.499
6032,-0.116,-0.509
6033,-0.102,-0.509
6034,-0.102,-0.509
6035,-0.102,-0.509
6036,-0.102,-0.520
6037,-0.102,-0.520
6038,-0.102,-0.520
6039,-0.102,-0.520
6040,-0.102,-0.530
6041,-0.102,-0.530
6042,-0.087,-0.530
6043,-0.072,-0.530
6044,-0.057,-0.540
6045,-0.043,-0.540
6046,-0.028,-0.540
6047,-0.013,-0.540
6048,-0.013,-0.550
6049,0.001,-0.550
6050,0.001,-0.550
6051,0.001,-0.550
6052,0.001,-0.555
6053,0.001,-0.555
6054,0.001,-0.555
6055,0.001,-0.555
6056,0.001,-0.562
6057,0.001,-0.562
6058,-0.013,-0.562
6059,0.001,-0.562
6060,0.001,-0.565
6061,-0.013,-0.565
6062,0.001,-0.565
6063,0.001,-0.565
6064,0.001,-0.568
6065,0.001,-0.568
6066,0.001,-0.568
6067,0.015,-0.568
6068,0.015,-0.569
6069,0.015,-0.569
6070,0.030,-0.569
6071,0.030,-0.569
6072,0.045,-0.569
6073,0.059,-0.569
6074,0.059,-0.569
6075,0.074,-0.569
6076,0.089,-0.569
6077,0.104,-0.569
6078,0.104,-0.569
6079,0.118,-0.569
6080,0.118,-0.568
6081,0.118,-0.568
6082,0.118,-0.568
6083,0.133,-0.568
6084,0.133,-0.566
6085,0.148,-0.566
6086,0.148,-0.566
6087,0.148,-0.566
6088,0.162,-0.566
6089,0.162,-0.566
6090,0.177,-0.566
6091,0.192,-0.566
6092,0.192,-0.565
6093,0.192,-0.565
6094,0.192,-0.565
6095,0.207,-0.565
6096,0.207,-0.566
6097,0.207,-0.566
6098,0.207,-0.566
6099,0.221,-0.566
6100,0.221,-0.565
6101,0.221,-0.565
6102,0.221,-0.565
6103,0.207,-0.565
6104,0.207,-0.558
6105,0.207,-0.558
6106,0.207,-0.558
6107,0.192,-0.558
6108,0.192,-0.551
6109,0.177,-0.551
6110,0.162,-0.551
6111,0.162,-0.551
6112,0.148,-0.534
6113,0.148,-0.534
6114,0.133,-0.534
6115,0.118,-0.534
6116,0.104,-0.509
6117,0.104,-0.509
6118,0.074,-0.509
6119,0.074,-0.509
6120,0.059,-0.470
6121,0.059,-0.470
6122,0.045,-0.470
6123,0.045,-0.470
6124,0.059,-0.419
6125,0.059,-0.419
6126,0.059,-0.419
6127,0.059,-0.419
6128,0.059,-0.353
6129,0.059,-0.353
6130,0.059,-0.353
6131,0.045,-0.353
6132,0.030,-0.272
6133,0.030,-0.272
6134,0.015,-0.272
6135,0.015,-0.272
6136,0.001,-0.178
6137,0.001,-0.178
6138,0.001,-0.178
6139,-0.013,-0.178
6140,-0.013,-0.076
6141,-0.028,-0.076
6142,-0.043,-0.076
6143,-0.057,-0.076
6144,-0.043,0.032
6145,-0.057,0.032
6146,-0.057,0.032
6147,-0.057,0.032
6148,-0.057,0.137
6149,-0.057,0.137
6150,-0.057,0.137
6151,-0.057,0.137
6152,-0.057,0.237
6153,-0.057,0.237
6154,-0.072,0.237
6155,-0.072,0.237
6156,-0.072,0.325
6157,-0.072,0.325
6158,-0.087,0.325
6159,-0.087,0.325
6160,-0.087,0.403
6161,-0.087,0.403
6162,-0.072,0.403
6163,-0.072,0.403
6164,-0.072,0.466
6165,-0.072,0.466
6166,-0.087,0.466
6167,-0.072,0.466
6168,-0.072,0.512
6169,-0.057,0.512
6170,-0.057,0.512
6171,-0.057,0.512
6172,-0.043,0.542
6173,-0.057,0.542
6174,-0.043,0.542
6175,-0.043,0.542
6176,-0.043,0.562
6177,-0.028,0.562
6178,-0.028,0.562
6179,-0.028,0.562
6180,-0.013,0.567
6181,-0.013,0.567
6182,-0.013,0.567
6183,-0.013,0.567
6184,-0.013,0.565
6185,-0.013,0.565
6186,-0.028,0.565
6187,-0.028,0.565
6188,-0.028,0.551
6189,-0.028,0.551
6190,-0.028,0.551
6191,-0.028,0.551
6192,-0.028,0.533
6193,-0.028,0.533
6194,-0.028,0.533
6195,-0.043,0.533
6196,-0.043,0.506
6197,-0.043,0.506
6198,-0.028,0.506
6199,-0.028,0.506
6200,-0.013,0.472
6201,-0.013,0.472
6202,0.001,0.472
6203,0.001,0.472
6204,0.001,0.435
6205,0.001,0.435
6206,0.015,0.435
6207,0.015,0.435
6208,0.015,0.394
6209,0.001,0.394
6210,0.001,0.394
6211,0.001,0.394
6212,0.001,0.346
6213,0.001,0.346
6214,0.001,0.346
6215,0.001,0.346
6216,0.001,0.298
6217,0.001,0.298
6218,-0.013,0.298
6219,-0.013,0.298
6220,-0.028,0.247
6221,-0.028,0.247
6222,-0.028,0.247
6223,-0.028,0.247
6224,-0.043,0.194
6225,-0.043,0.194
6226,-0.043,0.194
6227,-0.043,0.194
6228,-0.043,0.140
6229,-0.057,0.140
6230,-0.057,0.140
6231,-0.057,0.140
6232,-0.072,0.088
6233,-0.072,0.088
6234,-0.072,0.088
6235,-0.072,0.088
6236,-0.072,0.035
6237,-0.072,0.035
6238,-0.087,0.035
6239,-0.087,0.035
6240,-0.087,-0.013
6241,-0.102,-0.013
6242,-0.102,-0.013
6243,-0.102,-0.013
6244,-0.102,-0.060
6245,-0.087,-0.060
6246,-0.072,-0.060
6247,-0.072,-0.060
6248,-0.057,-0.103
6249,-0.057,-0.103
6250,-0.028,-0.103
6251,-0.028,-0.103
6252,-0.013,-0.142
6253,-0.013,-0.142
6254,0.001,-0.142
6255,0.045,-0.142
6256,0.104,-0.179
6257,0.177,-0.179
6258,0.265,-0.179
6259,0.353,-0.179
6260,0.441,-0.209
6261,0.485,-0.209
6262,0.441,-0.209
6263,0.397,-0.209
6264,0.279,-0.238
6265,0.118,-0.238
6266,0.001,-0.238
6267,-0.116,-0.238
6268,-0.219,-0.264
6269,-0.292,-0.264
6270,-0.351,-0.264
6271,-0.395,-0.264
6272,-0.439,-0.284
6273,-0.453,-0.284
6274,-0.453,-0.284
6275,-0.468,-0.284
6276,-0.453,-0.304
6277,-0.410,-0.304
6278,-0.351,-0.304
6279,-0.307,-0.304
6280,-0.248,-0.319
6281,-0.190,-0.319
6282,-0.131,-0.319
6283,-0.102,-0.319
6284,-0.072,-0.331
6285,-0.057,-0.331
6286,-0.043,-0.331
6287,-0.028,-0.331
6288,-0.028,-0.343
6289,-0.013,-0.343
6290,-0.013,-0.343
6291,-0.013,-0.343
6292,-0.013,-0.350
6293,-0.013,-0.350
6294,-0.028,-0.350
6295,-0.028,-0.350
6296,-0.028,-0.357
6297,-0.043,-0.357
6298,-0.057,-0.357
6299,-0.057,-0.357
6300,-0.057,-0.362
6301,-0.057,-0.362
6302,-0.057,-0.362
6303,-0.072,-0.362
6304,-0.072,-0.366
6305,-0.072,-0.366
6306,-0.072,-0.366
6307,-0.072,-0.366
6308,-0.072,-0.368
6309,-0.072,-0.368
6310,-0.072,-0.368
6311,-0.087,-0.368
6312,-0.087,-0.371
6313,-0.102,-0.371
6314,-0.102,-0.371
6315,-0.102,-0.371
6316,-0.102,-0.374
6317,-0.102,-0.374
6318,-0.102,-0.374
6319,-0.102,-0.374
6320,-0.102,-0.378
6321,-0.102,-0.378
6322,-0.102,-0.378
6323,-0.087,-0.378
6324,-0.087,-0.381
6325,-0.072,-0.381
6326,-0.072,-0.381
6327,-0.072,-0.381
6328,-0.072,-0.386
6329,-0.057,-0.386
6330,-0.057,-0.386
6331,-0.057,-0.386
6332,-0.043,-0.390
6333,-0.028,-0.390
6334,-0.028,-0.390
6335,-0.028,-0.390
6336,-0.013,-0.397
6337,-0.013,-0.397
6338,0.001,-0.397
6339,0.001,-0.397
6340,0.015,-0.402
6341,0.015,-0.402
6342,0.030,-0.402
6343,0.030,-0.402
6344,0.045,-0.409
6345,0.059,-0.409
6346,0.074,-0.409
6347,0.074,-0.409
6348,0.104,-0.417
6349,0.104,-0.417
6350,0.118,-0.417
6351,0.133,-0.417
6352,0.148,-0.424
6353,0.162,-0.424
6354,0.177,-0.424
6355,0.192,-0.424
6356,0.192,-0.433
6357,0.207,-0.433
6358,0.207,-0.433
6359,0.235,-0.433
6360,0.235,-0.443
6361,0.250,-0.443
6362,0.279,-0.443
6363,0.279,-0.443
6364,0.294,-0.451
6365,0.309,-0.451
6366,0.324,-0.451
6367,0.338,-0.451
6368,0.338,-0.459
6369,0.338,-0.459
6370,0.324,-0.459
6371,0.309,-0.459
6372,0.309,-0.468
6373,0.309,-0.468
6374,0.294,-0.468
6375,0.294,-0.468
6376,0.294,-0.474
6377,0.279,-0.474
6378,0.279,-0.474
6379,0.265,-0.474
6380,0.250,-0.480
6381,0.235,-0.480
6382,0.221,-0.480
6383,0.207,-0.480
6384,0.192,-0.484
6385,0.192,-0.484
6386,0.162,-0.484
6387,0.148,-0.484
6388,0.133,-0.484
6389,0.118,-0.484
6390,0.104,-0.484
6391,0.089,-0.484
6392,0.074,-0.479
6393,0.059,-0.479
6394,0.045,-0.479
6395,0.030,-0.479
6396,0.030,-0.464
6397,0.015,-0.464
6398,0.001,-0.464
6399,0.001,-0.464
6400,-0.013,-0.440
6401,-0.028,-0.440
6402,-0.028,-0.440
6403,-0.043,-0.440
6404,-0.043,-0.405
6405,-0.028,-0.405
6406,-0.028,-0.405
6407,-0.028,-0.405
6408,-0.013,-0.355
6409,-0.013,-0.355
6410,-0.013,-0.355
6411,-0.013,-0.355
6412,-0.013,-0.295
6413,-0.013,-0.295
6414,-0.028,-0.295
6415,-0.028,-0.295
6416,-0.028,-0.226
6417,-0.028,-0.226
6418,-0.043,-0.226
6419,-0.043,-0.226
6420,-0.028,-0.145
6421,-0.028,-0.145
6422,-0.028,-0.145
6423,-0.013,-0.145
6424,-0.013,-0.065
6425,-0.013,-0.065
6426,-0.013,-0.065
6427,-0.013,-0.065
6428,0.001,0.015
6429,0.001,0.015
6430,0.001,0.015
6431,0.001,0.015
6432,0.001,0.093
6433,0.001,0.093
6434,0.001,0.093
6435,-0.013,0.093
6436,-0.013,0.162
6437,-0.013,0.162
6438,-0.013,0.162
6439,-0.013,0.162
6440,0.001,0.223
6441,0.001,0.223
6442,0.015,0.223
6443,0.030,0.223
6444,0.030,0.269
6445,0.045,0.269
6446,0.059,0.269
6447,0.059,0.269
6448,0.074,0.301
6449,0.074,0.301
6450,0.059,0.301
6451,0.045,0.301
6452,0.030,0.323
6453,0.030,0.323
6454,0.015,0.323
6455,0.015,0.323
6456,0.015,0.334
6457,0.015,0.334
6458,0.001,0.334
6459,0.001,0.334
6460,0.001,0.337
6461,-0.013,0.337
6462,-0.013,0.337
6463,-0.013,0.337
6464,-0.028,0.354
6465,-0.028,0.354
6466,-0.028,0.354
6467,-0.028,0.354
6468,-0.043,0.340
6469,-0.057,0.340
6470,-0.043,0.340
6471,-0.043,0.340
6472,-0.057,0.316
6473,-0.057,0.316
6474,-0.072,0.316
6475,-0.102,0.316
6476,-0.102,0.289
6477,-0.131,0.289
6478,-0.146,0.289
6479,-0.160,0.289
6480,-0.175,0.257
6481,-0.175,0.257
6482,-0.146,0.257
6483,-0.116,0.257
6484,-0.057,0.218
6485,0.001,0.218
6486,0.104,0.218
6487,0.221,0.218
6488,0.338,0.175
6489,0.397,0.175
6490,0.382,0.175
6491,0.324,0.175
6492,0.192,0.130
6493,0.045,0.130
6494,-0.072,0.130
6495,-0.175,0.130
6496,-0.248,0.083
6497,-0.292,0.083
6498,-0.336,0.083
6499,-0.380,0.083
6500,-0.410,0.032
6501,-0.424,0.032
6502,-0.424,0.032
6503,-0.395,0.032
6504,-0.351,-0.018
6505,-0.307,-0.018
6506,-0.277,-0.018
6507,-0.219,-0.018
6508,-0.175,-0.069
6509,-0.160,-0.069
6510,-0.146,-0.069
6511,-0.146,-0.069
6512,-0.146,-0.118
6513,-0.131,-0.118
6514,-0.131,-0.118
6515,-0.131,-0.118
6516,-0.116,-0.167
6517,-0.116,-0.167
6518,-0.102,-0.167
6519,-0.102,-0.167
6520,-0.087,-0.213
6521,-0.072,-0.213
6522,-0.072,-0.213
6523,-0.057,-0.213
6524,-0.057,-0.257
6525,-0.057,-0.257
6526,-0.057,-0.257
6527,-0.057,-0.257
6528,-0.057,-0.298
6529,-0.057,-0.298
6530,-0.057,-0.298
6531,-0.043,-0.298
6532,-0.043,-0.335
6533,-0.028,-0.335
6534,-0.057,-0.335
6535,-0.057,-0.335
6536,-0.043,-0.368
6537,-0.028,-0.368
6538,-0.043,-0.368
6539,-0.057,-0.368
6540,-0.057,-0.397
6541,-0.057,-0.397
6542,-0.072,-0.397
6543,-0.072,-0.397
6544,-0.072,-0.424
6545,-0.072,-0.424
6546,-0.072,-0.424
6547,-0.072,-0.424
6548,-0.072,-0.447
6549,-0.072,-0.447
6550,-0.057,-0.447
6551,-0.057,-0.447
6552,-0.057,-0.465
6553,-0.043,-0.465
6554,-0.057,-0.465
6555,-0.057,-0.465
6556,-0.028,-0.480
6557,-0.028,-0.480
6558,-0.043,-0.480
6559,-0.043,-0.480
6560,-0.043,-0.489
6561,-0.028,-0.489
6562,-0.013,-0.489
6563,0.001,-0.489
6564,0.001,-0.499
6565,0.001,-0.499
6566,0.015,-0.499
6567,0.015,-0.499
6568,0.015,-0.504
6569,0.030,-0.504
6570,0.045,-0.504
6571,0.074,-0.504
6572,0.074,-0.508
6573,0.104,-0.508
6574,0.104,-0.508
6575,0.118,-0.508
6576,0.118,-0.508
6577,0.133,-0.508
6578,0.148,-0.508
6579,0.148,-0.508
6580,0.162,-0.510
6581,0.162,-0.510
6582,0.177,-0.510
6583,0.192,-0.510
6584,0.207,-0.507
6585,0.207,-0.507
6586,0.221,-0.507
6587,0.235,-0.507
6588,0.235,-0.507
6589,0.235,-0.507
6590,0.250,-0.507
6591,0.250,-0.507
6592,0.265,-0.504
6593,0.279,-0.504
6594,0.279,-0.504
6595,0.279,-0.504
6596,0.279,-0.502
6597,0.294,-0.502
6598,0.294,-0.502
6599,0.294,-0.502
6600,0.309,-0.500
6601,0.309,-0.500
6602,0.294,-0.500
6603,0.294,-0.500
6604,0.294,-0.500
6605,0.279,-0.500
6606,0.279,-0.500
6607,0.250,-0.500
6608,0.221,-0.499
6609,0.207,-0.499
6610,0.177,-0.499
6611,0.162,-0.499
6612,0.148,-0.499
6613,0.133,-0.499
6614,0.118,-0.499
6615,0.118,-0.499
6616,0.104,-0.499
6617,0.074,-0.499
6618,0.045,-0.499
6619,0.030,-0.499
6620,0.015,-0.497
6621,0.015,-0.497
6622,0.001,-0.497
6623,0.001,-0.497
6624,0.001,-0.489
6625,0.001,-0.489
6626,-0.013,-0.489
6627,-0.028,-0.489
6628,-0.043,-0.478
6629,-0.057,-0.478
6630,-0.057,-0.478
6631,-0.057,-0.478
