,ECG,PPG
0,-0.028,0.227
1,-0.056,0.227
2,-0.071,0.227
3,-0.085,0.227
4,-0.085,0.195
5,-0.100,0.195
6,-0.100,0.195
7,-0.100,0.195
8,-0.114,0.168
9,-0.114,0.168
10,-0.114,0.168
11,-0.114,0.168
12,-0.100,0.138
13,-0.100,0.138
14,-0.085,0.138
15,-0.100,0.138
16,-0.100,0.108
17,-0.100,0.108
18,-0.100,0.108
19,-0.100,0.108
20,-0.100,0.081
21,-0.100,0.081
22,-0.100,0.081
23,-0.085,0.081
24,-0.100,0.051
25,-0.100,0.051
26,-0.100,0.051
27,-0.085,0.051
28,-0.085,0.024
29,-0.100,0.024
30,-0.100,0.024
31,-0.100,0.024
32,-0.085,-0.004
33,-0.071,-0.004
34,-0.056,-0.004
35,-0.028,-0.004
36,0.001,-0.028
37,0.030,-0.028
38,0.058,-0.028
39,0.102,-0.028
40,0.145,-0.053
41,0.203,-0.053
42,0.289,-0.053
43,0.375,-0.053
44,0.461,-0.076
45,0.562,-0.076
46,0.619,-0.076
47,0.677,-0.076
48,0.706,-0.103
49,0.720,-0.103
50,0.692,-0.103
51,0.619,-0.103
52,0.505,-0.125
53,0.404,-0.125
54,0.289,-0.125
55,0.188,-0.125
56,0.087,-0.148
57,0.001,-0.148
58,-0.056,-0.148
59,-0.114,-0.148
60,-0.143,-0.173
61,-0.157,-0.173
62,-0.186,-0.173
63,-0.186,-0.173
64,-0.186,-0.195
65,-0.172,-0.195
66,-0.186,-0.195
67,-0.157,-0.195
68,-0.157,-0.220
69,-0.143,-0.220
70,-0.143,-0.220
71,-0.129,-0.220
72,-0.114,-0.241
73,-0.114,-0.241
74,-0.114,-0.241
75,-0.129,-0.241
76,-0.114,-0.263
77,-0.114,-0.263
78,-0.114,-0.263
79,-0.100,-0.263
80,-0.114,-0.286
81,-0.100,-0.286
82,-0.100,-0.286
83,-0.100,-0.286
84,-0.100,-0.307
85,-0.100,-0.307
86,-0.114,-0.307
87,-0.114,-0.307
88,-0.100,-0.328
89,-0.100,-0.328
90,-0.100,-0.328
91,-0.100,-0.328
92,-0.100,-0.347
93,-0.100,-0.347
94,-0.114,-0.347
95,-0.114,-0.347
96,-0.114,-0.364
97,-0.100,-0.364
98,-0.100,-0.364
99,-0.100,-0.364
100,-0.100,-0.381
101,-0.100,-0.381
102,-0.100,-0.381
103,-0.100,-0.381
104,-0.100,-0.400
105,-0.085,-0.400
106,-0.085,-0.400
107,-0.085,-0.400
108,-0.085,-0.417
109,-0.085,-0.417
110,-0.085,-0.417
111,-0.071,-0.417
112,-0.071,-0.432
113,-0.071,-0.432
114,-0.071,-0.432
115,-0.071,-0.432
116,-0.071,-0.447
117,-0.056,-0.447
118,-0.056,-0.447
119,-0.056,-0.447
120,-0.056,-0.462
121,-0.056,-0.462
122,-0.056,-0.462
123,-0.056,-0.462
124,-0.056,-0.474
125,-0.056,-0.474
126,-0.056,-0.474
127,-0.042,-0.474
128,-0.042,-0.489
129,-0.042,-0.489
130,-0.028,-0.489
131,-0.028,-0.489
132,-0.028,-0.499
133,-0.028,-0.499
134,-0.028,-0.499
135,-0.028,-0.499
136,-0.028,-0.516
137,-0.013,-0.516
138,-0.013,-0.516
139,-0.013,-0.516
140,-0.013,-0.527
141,0.001,-0.527
142,0.001,-0.527
143,0.001,-0.527
144,0.001,-0.532
145,0.001,-0.532
146,0.001,-0.532
147,0.001,-0.532
148,0.015,-0.544
149,0.001,-0.544
150,0.015,-0.544
151,0.015,-0.544
152,0.015,-0.557
153,0.015,-0.557
154,0.015,-0.557
155,0.030,-0.557
156,0.030,-0.563
157,0.044,-0.563
158,0.044,-0.563
159,0.044,-0.563
160,0.044,-0.565
161,0.044,-0.565
162,0.058,-0.565
163,0.058,-0.565
164,0.058,-0.567
165,0.058,-0.567
166,0.058,-0.567
167,0.058,-0.567
168,0.058,-0.559
169,0.058,-0.559
170,0.073,-0.559
171,0.073,-0.559
172,0.087,-0.549
173,0.087,-0.549
174,0.102,-0.549
175,0.087,-0.549
176,0.102,-0.528
177,0.087,-0.528
178,0.087,-0.528
179,0.102,-0.528
180,0.102,-0.499
181,0.102,-0.499
182,0.102,-0.499
183,0.102,-0.499
184,0.102,-0.463
185,0.116,-0.463
186,0.116,-0.463
187,0.116,-0.463
188,0.116,-0.419
189,0.131,-0.419
190,0.131,-0.419
191,0.131,-0.419
192,0.131,-0.370
193,0.131,-0.370
194,0.131,-0.370
195,0.145,-0.370
196,0.131,-0.315
197,0.145,-0.315
198,0.145,-0.315
199,0.145,-0.315
200,0.145,-0.257
201,0.131,-0.257
202,0.145,-0.257
203,0.131,-0.257
204,0.131,-0.196
205,0.116,-0.196
206,0.116,-0.196
207,0.102,-0.196
208,0.102,-0.136
209,0.102,-0.136
210,0.102,-0.136
211,0.102,-0.136
212,0.073,-0.074
213,0.073,-0.074
214,0.073,-0.074
215,0.058,-0.074
216,0.058,-0.018
217,0.044,-0.018
218,0.044,-0.018
219,0.030,-0.018
220,0.030,0.041
221,0.030,0.041
222,0.030,0.041
223,0.030,0.041
224,0.030,0.092
225,0.030,0.092
226,0.015,0.092
227,0.015,0.092
228,0.001,0.143
229,0.001,0.143
230,0.001,0.143
231,0.001,0.143
232,0.001,0.191
233,0.001,0.191
234,0.001,0.191
235,0.001,0.191
236,0.001,0.238
237,0.001,0.238
238,0.001,0.238
239,0.001,0.238
240,0.001,0.277
241,0.015,0.277
242,0.001,0.277
243,0.001,0.277
244,0.001,0.314
245,0.001,0.314
246,0.001,0.314
247,0.015,0.314
248,0.001,0.347
249,0.001,0.347
250,0.001,0.347
251,0.001,0.347
252,0.015,0.376
253,0.015,0.376
254,0.015,0.376
255,0.015,0.376
256,0.015,0.405
257,0.015,0.405
258,0.015,0.405
259,0.015,0.405
260,0.015,0.425
261,0.001,0.425
262,0.015,0.425
263,0.001,0.425
264,0.001,0.442
265,0.001,0.442
266,0.001,0.442
267,0.001,0.442
268,0.001,0.456
269,0.001,0.456
270,0.001,0.456
271,0.001,0.456
272,0.001,0.467
273,0.001,0.467
274,0.001,0.467
275,0.001,0.467
276,0.001,0.472
277,0.001,0.472
278,0.001,0.472
279,0.001,0.472
280,0.001,0.472
281,0.001,0.472
282,0.001,0.472
283,0.001,0.472
284,0.001,0.472
285,0.001,0.472
286,-0.013,0.472
287,-0.013,0.472
288,0.001,0.469
289,0.001,0.469
290,0.001,0.469
291,0.001,0.469
292,-0.013,0.458
293,-0.013,0.458
294,-0.013,0.458
295,0.001,0.458
296,0.001,0.446
297,0.001,0.446
298,0.001,0.446
299,0.001,0.446
300,0.001,0.431
301,0.001,0.431
302,0.001,0.431
303,0.001,0.431
304,0.001,0.413
305,0.001,0.413
306,0.001,0.413
307,0.001,0.413
308,0.001,0.390
309,0.015,0.390
310,0.015,0.390
311,0.030,0.390
312,0.058,0.369
313,0.058,0.369
314,0.058,0.369
315,0.073,0.369
316,0.073,0.341
317,0.073,0.341
318,0.073,0.341
319,0.073,0.341
320,0.058,0.319
321,0.058,0.319
322,0.058,0.319
323,0.058,0.319
324,0.044,0.287
325,0.044,0.287
326,0.044,0.287
327,0.030,0.287
328,0.030,0.261
329,0.015,0.261
330,0.015,0.261
331,0.015,0.261
332,0.015,0.232
333,0.001,0.232
334,0.001,0.232
335,0.001,0.232
336,-0.013,0.201
337,-0.028,0.201
338,-0.042,0.201
339,-0.056,0.201
340,-0.071,0.176
341,-0.071,0.176
342,-0.071,0.176
343,-0.085,0.176
344,-0.085,0.148
345,-0.085,0.148
346,-0.085,0.148
347,-0.071,0.148
348,-0.085,0.121
349,-0.085,0.121
350,-0.100,0.121
351,-0.100,0.121
352,-0.085,0.097
353,-0.085,0.097
354,-0.071,0.097
355,-0.071,0.097
356,-0.071,0.070
357,-0.071,0.070
358,-0.071,0.070
359,-0.071,0.070
360,-0.071,0.045
361,-0.071,0.045
362,-0.071,0.045
363,-0.071,0.045
364,-0.071,0.021
365,-0.085,0.021
366,-0.085,0.021
367,-0.085,0.021
368,-0.071,-0.002
369,-0.071,-0.002
370,-0.042,-0.002
371,-0.013,-0.002
372,0.015,-0.027
373,0.044,-0.027
374,0.087,-0.027
375,0.131,-0.027
376,0.188,-0.050
377,0.245,-0.050
378,0.332,-0.050
379,0.418,-0.050
380,0.519,-0.076
381,0.591,-0.076
382,0.663,-0.076
383,0.720,-0.076
384,0.749,-0.099
385,0.749,-0.099
386,0.735,-0.099
387,0.663,-0.099
388,0.548,-0.123
389,0.432,-0.123
390,0.303,-0.123
391,0.203,-0.123
392,0.102,-0.144
393,0.001,-0.144
394,-0.056,-0.144
395,-0.100,-0.144
396,-0.129,-0.169
397,-0.143,-0.169
398,-0.157,-0.169
399,-0.172,-0.169
400,-0.172,-0.172
401,-0.172,-0.172
402,-0.157,-0.172
403,-0.143,-0.172
404,-0.129,-0.193
405,-0.114,-0.193
406,-0.114,-0.193
407,-0.114,-0.193
408,-0.100,-0.215
409,-0.100,-0.215
410,-0.100,-0.215
411,-0.085,-0.215
412,-0.071,-0.234
413,-0.071,-0.234
414,-0.071,-0.234
415,-0.071,-0.234
416,-0.071,-0.254
417,-0.071,-0.254
418,-0.071,-0.254
419,-0.071,-0.254
420,-0.071,-0.272
421,-0.071,-0.272
422,-0.071,-0.272
423,-0.071,-0.272
424,-0.071,-0.290
425,-0.071,-0.290
426,-0.071,-0.290
427,-0.071,-0.290
428,-0.071,-0.308
429,-0.071,-0.308
430,-0.071,-0.308
431,-0.071,-0.308
432,-0.071,-0.323
433,-0.071,-0.323
434,-0.071,-0.323
435,-0.071,-0.323
436,-0.071,-0.339
437,-0.071,-0.339
438,-0.071,-0.339
439,-0.056,-0.339
440,-0.056,-0.353
441,-0.056,-0.353
442,-0.056,-0.353
443,-0.056,-0.353
444,-0.056,-0.365
445,-0.056,-0.365
446,-0.056,-0.365
447,-0.042,-0.365
448,-0.028,-0.380
449,-0.042,-0.380
450,-0.028,-0.380
451,-0.028,-0.380
452,-0.028,-0.392
453,-0.028,-0.392
454,-0.028,-0.392
455,-0.028,-0.392
456,-0.028,-0.402
457,-0.028,-0.402
458,-0.028,-0.402
459,-0.028,-0.402
460,-0.013,-0.414
461,-0.013,-0.414
462,-0.013,-0.414
463,-0.013,-0.414
464,-0.013,-0.424
465,-0.013,-0.424
466,0.001,-0.424
467,0.001,-0.424
468,-0.013,-0.436
469,0.001,-0.436
470,0.001,-0.436
471,0.001,-0.436
472,0.001,-0.449
473,0.015,-0.449
474,0.015,-0.449
475,0.015,-0.449
476,0.015,-0.459
477,0.015,-0.459
478,0.015,-0.459
479,0.030,-0.459
480,0.030,-0.467
481,0.030,-0.467
482,0.030,-0.467
483,0.030,-0.467
484,0.030,-0.475
485,0.044,-0.475
486,0.044,-0.475
487,0.058,-0.475
488,0.058,-0.481
489,0.058,-0.481
490,0.073,-0.481
491,0.073,-0.481
492,0.073,-0.485
493,0.073,-0.485
494,0.073,-0.485
495,0.073,-0.485
496,0.073,-0.487
497,0.087,-0.487
498,0.087,-0.487
499,0.087,-0.487
500,0.087,-0.481
501,0.102,-0.481
502,0.102,-0.481
503,0.102,-0.481
504,0.102,-0.473
505,0.102,-0.473
506,0.102,-0.473
507,0.102,-0.473
508,0.116,-0.459
509,0.116,-0.459
510,0.116,-0.459
511,0.116,-0.459
512,0.116,-0.436
513,0.116,-0.436
514,0.116,-0.436
515,0.116,-0.436
516,0.116,-0.408
517,0.131,-0.408
518,0.145,-0.408
519,0.131,-0.408
520,0.145,-0.371
521,0.145,-0.371
522,0.159,-0.371
523,0.159,-0.371
524,0.159,-0.329
525,0.159,-0.329
526,0.159,-0.329
527,0.159,-0.329
528,0.145,-0.276
529,0.159,-0.276
530,0.159,-0.276
531,0.159,-0.276
532,0.159,-0.224
533,0.159,-0.224
534,0.159,-0.224
535,0.159,-0.224
536,0.159,-0.165
537,0.159,-0.165
538,0.159,-0.165
539,0.145,-0.165
540,0.159,-0.107
541,0.145,-0.107
542,0.145,-0.107
543,0.131,-0.107
544,0.131,-0.049
545,0.131,-0.049
546,0.116,-0.049
547,0.102,-0.049
548,0.102,0.013
549,0.102,0.013
550,0.087,0.013
551,0.073,0.013
552,0.073,0.067
553,0.058,0.067
554,0.073,0.067
555,0.058,0.067
556,0.058,0.122
557,0.058,0.122
558,0.058,0.122
559,0.044,0.122
560,0.044,0.175
561,0.044,0.175
562,0.044,0.175
563,0.044,0.175
564,0.030,0.222
565,0.030,0.222
566,0.030,0.222
567,0.030,0.222
568,0.030,0.269
569,0.030,0.269
570,0.030,0.269
571,0.030,0.269
572,0.030,0.311
573,0.015,0.311
574,0.015,0.311
575,0.015,0.311
576,0.015,0.349
577,0.015,0.349
578,0.030,0.349
579,0.015,0.349
580,0.030,0.388
581,0.030,0.388
582,0.015,0.388
583,0.015,0.388
584,0.015,0.418
585,0.015,0.418
586,0.015,0.418
587,0.030,0.418
588,0.030,0.445
589,0.030,0.445
590,0.030,0.445
591,0.030,0.445
592,0.030,0.469
593,0.030,0.469
594,0.030,0.469
595,0.030,0.469
596,0.030,0.489
597,0.030,0.489
598,0.015,0.489
599,0.015,0.489
600,0.015,0.506
601,0.015,0.506
602,0.015,0.506
603,0.030,0.506
604,0.030,0.518
605,0.030,0.518
606,0.030,0.518
607,0.030,0.518
608,0.015,0.530
609,0.015,0.530
610,0.015,0.530
611,0.015,0.530
612,0.015,0.534
613,0.015,0.534
614,0.001,0.534
615,0.001,0.534
616,0.001,0.536
617,0.015,0.536
618,0.015,0.536
619,0.001,0.536
620,0.001,0.534
621,0.001,0.534
622,0.001,0.534
623,0.001,0.534
624,0.001,0.528
625,0.001,0.528
626,0.001,0.528
627,0.001,0.528
628,0.001,0.520
629,0.001,0.520
630,0.001,0.520
631,0.001,0.520
632,0.015,0.508
633,0.001,0.508
634,0.001,0.508
635,0.015,0.508
636,0.015,0.491
637,0.015,0.491
638,0.015,0.491
639,0.015,0.491
640,0.015,0.471
641,0.030,0.471
642,0.015,0.471
643,0.030,0.471
644,0.030,0.451
645,0.030,0.451
646,0.044,0.451
647,0.058,0.451
648,0.058,0.426
649,0.073,0.426
650,0.073,0.426
651,0.073,0.426
652,0.073,0.401
653,0.073,0.401
654,0.073,0.401
655,0.073,0.401
656,0.073,0.378
657,0.073,0.378
658,0.058,0.378
659,0.058,0.378
660,0.044,0.347
661,0.044,0.347
662,0.044,0.347
663,0.044,0.347
664,0.044,0.315
665,0.030,0.315
666,0.030,0.315
667,0.030,0.315
668,0.030,0.286
669,0.015,0.286
670,0.001,0.286
671,0.001,0.286
672,0.001,0.254
673,-0.013,0.254
674,-0.028,0.254
675,-0.056,0.254
676,-0.056,0.224
677,-0.071,0.224
678,-0.071,0.224
679,-0.071,0.224
680,-0.071,0.193
681,-0.071,0.193
682,-0.071,0.193
683,-0.071,0.193
684,-0.085,0.161
685,-0.085,0.161
686,-0.071,0.161
687,-0.071,0.161
688,-0.071,0.134
689,-0.071,0.134
690,-0.085,0.134
691,-0.085,0.134
692,-0.100,0.103
693,-0.085,0.103
694,-0.085,0.103
695,-0.071,0.103
696,-0.071,0.077
697,-0.071,0.077
698,-0.071,0.077
699,-0.071,0.077
700,-0.071,0.049
701,-0.085,0.049
702,-0.085,0.049
703,-0.085,0.049
704,-0.071,0.021
705,-0.056,0.021
706,-0.042,0.021
707,-0.013,0.021
708,0.015,-0.004
709,0.058,-0.004
710,0.102,-0.004
711,0.159,-0.004
712,0.217,-0.029
713,0.289,-0.029
714,0.375,-0.029
715,0.476,-0.029
716,0.577,-0.052
717,0.663,-0.052
718,0.735,-0.052
719,0.793,-0.052
720,0.821,-0.079
721,0.835,-0.079
722,0.793,-0.079
723,0.692,-0.079
724,0.577,-0.105
725,0.432,-0.105
726,0.303,-0.105
727,0.203,-0.105
728,0.073,-0.128
729,0.001,-0.128
730,-0.056,-0.128
731,-0.100,-0.128
732,-0.129,-0.152
733,-0.157,-0.152
734,-0.172,-0.152
735,-0.186,-0.152
736,-0.186,-0.174
737,-0.186,-0.174
738,-0.172,-0.174
739,-0.157,-0.174
740,-0.143,-0.201
741,-0.143,-0.201
742,-0.143,-0.201
743,-0.114,-0.201
744,-0.114,-0.224
745,-0.114,-0.224
746,-0.100,-0.224
747,-0.100,-0.224
748,-0.100,-0.243
749,-0.100,-0.243
750,-0.100,-0.243
751,-0.100,-0.243
752,-0.100,-0.266
753,-0.100,-0.266
754,-0.100,-0.266
755,-0.100,-0.266
756,-0.100,-0.286
757,-0.100,-0.286
758,-0.114,-0.286
759,-0.114,-0.286
760,-0.100,-0.302
761,-0.100,-0.302
762,-0.100,-0.302
763,-0.100,-0.302
764,-0.100,-0.321
765,-0.100,-0.321
766,-0.085,-0.321
767,-0.100,-0.321
768,-0.100,-0.337
769,-0.085,-0.337
770,-0.085,-0.337
771,-0.085,-0.337
772,-0.085,-0.353
773,-0.085,-0.353
774,-0.085,-0.353
775,-0.085,-0.353
776,-0.071,-0.371
777,-0.071,-0.371
778,-0.071,-0.371
779,-0.071,-0.371
780,-0.071,-0.384
781,-0.071,-0.384
782,-0.071,-0.384
783,-0.071,-0.384
784,-0.071,-0.398
785,-0.071,-0.398
786,-0.071,-0.398
787,-0.071,-0.398
788,-0.071,-0.410
789,-0.056,-0.410
790,-0.056,-0.410
791,-0.071,-0.410
792,-0.056,-0.422
793,-0.056,-0.422
794,-0.056,-0.422
795,-0.056,-0.422
796,-0.042,-0.436
797,-0.056,-0.436
798,-0.042,-0.436
799,-0.042,-0.436
800,-0.042,-0.447
801,-0.042,-0.447
802,-0.028,-0.447
803,-0.028,-0.447
804,-0.028,-0.461
805,-0.028,-0.461
806,-0.013,-0.461
807,-0.013,-0.461
808,-0.013,-0.471
809,-0.013,-0.471
810,-0.013,-0.471
811,-0.013,-0.471
812,-0.013,-0.483
813,-0.013,-0.483
814,0.001,-0.483
815,0.001,-0.483
816,0.001,-0.493
817,0.001,-0.493
818,0.001,-0.493
819,0.001,-0.493
820,0.015,-0.503
821,0.015,-0.503
822,0.015,-0.503
823,0.015,-0.503
824,0.015,-0.507
825,0.015,-0.507
826,0.015,-0.507
827,0.030,-0.507
828,0.015,-0.516
829,0.030,-0.516
830,0.030,-0.516
831,0.030,-0.516
832,0.044,-0.516
833,0.044,-0.516
834,0.044,-0.516
835,0.044,-0.516
836,0.058,-0.514
837,0.058,-0.514
838,0.058,-0.514
839,0.058,-0.514
840,0.058,-0.505
841,0.058,-0.505
842,0.058,-0.505
843,0.058,-0.505
844,0.058,-0.491
845,0.058,-0.491
846,0.073,-0.491
847,0.073,-0.491
848,0.073,-0.467
849,0.073,-0.467
850,0.073,-0.467
851,0.073,-0.467
852,0.073,-0.439
853,0.087,-0.439
854,0.073,-0.439
855,0.087,-0.439
856,0.087,-0.404
857,0.087,-0.404
858,0.102,-0.404
859,0.102,-0.404
860,0.102,-0.357
861,0.102,-0.357
862,0.102,-0.357
863,0.116,-0.357
864,0.116,-0.310
865,0.116,-0.310
866,0.116,-0.310
867,0.116,-0.310
868,0.116,-0.256
869,0.116,-0.256
870,0.116,-0.256
871,0.116,-0.256
872,0.116,-0.197
873,0.116,-0.197
874,0.116,-0.197
875,0.102,-0.197
876,0.102,-0.140
877,0.102,-0.140
878,0.102,-0.140
879,0.102,-0.140
880,0.102,-0.081
881,0.102,-0.081
882,0.073,-0.081
883,0.073,-0.081
884,0.058,-0.020
885,0.058,-0.020
886,0.044,-0.020
887,0.044,-0.020
888,0.044,0.035
889,0.030,0.035
890,0.030,0.035
891,0.015,0.035
892,0.015,0.089
893,0.015,0.089
894,0.001,0.089
895,0.001,0.089
896,0.001,0.140
897,0.001,0.140
898,0.001,0.140
899,0.001,0.140
900,0.001,0.191
901,0.001,0.191
902,0.001,0.191
903,0.001,0.191
904,0.001,0.237
905,0.001,0.237
906,-0.013,0.237
907,-0.013,0.237
908,0.001,0.281
909,-0.013,0.281
910,-0.013,0.281
911,0.001,0.281
912,0.001,0.319
913,0.001,0.319
914,0.001,0.319
915,0.001,0.319
916,0.001,0.355
917,0.001,0.355
918,0.001,0.355
919,0.001,0.355
920,0.001,0.388
921,0.001,0.388
922,0.001,0.388
923,0.001,0.388
924,0.001,0.414
925,0.001,0.414
926,0.001,0.414
927,0.001,0.414
928,0.001,0.443
929,0.001,0.443
930,0.001,0.443
931,0.001,0.443
932,0.001,0.463
933,0.001,0.463
934,0.001,0.463
935,0.001,0.463
936,0.001,0.477
937,-0.013,0.477
938,0.001,0.477
939,0.001,0.477
940,0.001,0.491
941,0.001,0.491
942,0.001,0.491
943,0.001,0.491
944,0.001,0.502
945,-0.013,0.502
946,0.001,0.502
947,-0.013,0.502
948,-0.013,0.504
949,-0.013,0.504
950,-0.013,0.504
951,-0.013,0.504
952,-0.013,0.504
953,-0.013,0.504
954,-0.013,0.504
955,-0.013,0.504
956,-0.028,0.502
957,-0.028,0.502
958,-0.028,0.502
959,-0.028,0.502
960,-0.028,0.498
961,-0.028,0.498
962,-0.042,0.498
963,-0.042,0.498
964,-0.042,0.487
965,-0.042,0.487
966,-0.042,0.487
967,-0.028,0.487
968,-0.028,0.473
969,-0.028,0.473
970,-0.028,0.473
971,-0.013,0.473
972,-0.013,0.455
973,-0.013,0.455
974,0.001,0.455
975,-0.013,0.455
976,-0.013,0.437
977,-0.013,0.437
978,-0.013,0.437
979,0.001,0.437
980,0.001,0.414
981,0.001,0.414
982,0.001,0.414
983,0.001,0.414
984,0.015,0.388
985,0.015,0.388
986,0.030,0.388
987,0.030,0.388
988,0.030,0.361
989,0.030,0.361
990,0.030,0.361
991,0.030,0.361
992,0.030,0.336
993,0.030,0.336
994,0.015,0.336
995,0.015,0.336
996,0.015,0.307
997,0.015,0.307
998,0.015,0.307
999,0.001,0.307
1000,0.001,0.275
1001,0.001,0.275
1002,-0.013,0.275
1003,-0.013,0.275
1004,-0.013,0.242
1005,-0.013,0.242
1006,-0.028,0.242
1007,-0.028,0.242
1008,-0.056,0.213
1009,-0.056,0.213
1010,-0.071,0.213
1011,-0.071,0.213
1012,-0.100,0.183
1013,-0.100,0.183
1014,-0.114,0.183
1015,-0.114,0.183
1016,-0.129,0.154
1017,-0.129,0.154
1018,-0.129,0.154
1019,-0.129,0.154
1020,-0.114,0.126
1021,-0.129,0.126
1022,-0.114,0.126
1023,-0.129,0.126
1024,-0.129,0.098
1025,-0.129,0.098
1026,-0.114,0.098
1027,-0.114,0.098
1028,-0.114,0.071
1029,-0.114,0.071
1030,-0.114,0.071
1031,-0.114,0.071
1032,-0.100,0.045
1033,-0.100,0.045
1034,-0.114,0.045
1035,-0.114,0.045
1036,-0.114,0.018
1037,-0.114,0.018
1038,-0.114,0.018
1039,-0.114,0.018
1040,-0.114,-0.006
1041,-0.114,-0.006
1042,-0.100,-0.006
1043,-0.071,-0.006
1044,-0.042,-0.030
1045,0.001,-0.030
1046,0.030,-0.030
1047,0.073,-0.030
1048,0.116,-0.057
1049,0.188,-0.057
1050,0.260,-0.057
1051,0.346,-0.057
1052,0.447,-0.083
1053,0.548,-0.083
1054,0.619,-0.083
1055,0.692,-0.083
1056,0.735,-0.107
1057,0.764,-0.107
1058,0.749,-0.107
1059,0.692,-0.107
1060,0.577,-0.132
1061,0.461,-0.132
1062,0.332,-0.132
1063,0.231,-0.132
1064,0.116,-0.159
1065,0.015,-0.159
1066,-0.056,-0.159
1067,-0.114,-0.159
1068,-0.172,-0.178
1069,-0.186,-0.178
1070,-0.201,-0.178
1071,-0.215,-0.178
1072,-0.229,-0.203
1073,-0.229,-0.203
1074,-0.215,-0.203
1075,-0.201,-0.203
1076,-0.186,-0.224
1077,-0.172,-0.224
1078,-0.157,-0.224
1079,-0.157,-0.224
1080,-0.143,-0.243
1081,-0.143,-0.243
1082,-0.143,-0.243
1083,-0.143,-0.243
1084,-0.129,-0.264
1085,-0.129,-0.264
1086,-0.129,-0.264
1087,-0.129,-0.264
1088,-0.114,-0.284
1089,-0.114,-0.284
1090,-0.129,-0.284
1091,-0.129,-0.284
1092,-0.129,-0.302
1093,-0.129,-0.302
1094,-0.129,-0.302
1095,-0.129,-0.302
1096,-0.129,-0.321
1097,-0.129,-0.321
1098,-0.129,-0.321
1099,-0.129,-0.321
1100,-0.129,-0.339
1101,-0.129,-0.339
1102,-0.114,-0.339
1103,-0.114,-0.339
1104,-0.114,-0.353
1105,-0.114,-0.353
1106,-0.114,-0.353
1107,-0.129,-0.353
1108,-0.129,-0.367
1109,-0.129,-0.367
1110,-0.129,-0.367
1111,-0.129,-0.367
1112,-0.114,-0.384
1113,-0.114,-0.384
1114,-0.114,-0.384
1115,-0.114,-0.384
1116,-0.114,-0.396
1117,-0.114,-0.396
1118,-0.100,-0.396
1119,-0.100,-0.396
1120,-0.100,-0.408
1121,-0.100,-0.408
1122,-0.100,-0.408
1123,-0.100,-0.408
1124,-0.100,-0.422
1125,-0.100,-0.422
1126,-0.114,-0.422
1127,-0.114,-0.422
1128,-0.100,-0.436
1129,-0.100,-0.436
1130,-0.100,-0.436
1131,-0.085,-0.436
1132,-0.085,-0.447
1133,-0.085,-0.447
1134,-0.085,-0.447
1135,-0.071,-0.447
1136,-0.071,-0.459
1137,-0.071,-0.459
1138,-0.071,-0.459
1139,-0.071,-0.459
1140,-0.071,-0.469
1141,-0.056,-0.469
1142,-0.056,-0.469
1143,-0.056,-0.469
1144,-0.042,-0.483
1145,-0.042,-0.483
1146,-0.042,-0.483
1147,-0.028,-0.483
1148,-0.028,-0.491
1149,-0.028,-0.491
1150,-0.028,-0.491
1151,-0.028,-0.491
1152,-0.028,-0.499
1153,-0.013,-0.499
1154,-0.013,-0.499
1155,-0.013,-0.499
1156,-0.013,-0.507
1157,-0.013,-0.507
1158,-0.013,-0.507
1159,-0.013,-0.507
1160,-0.013,-0.514
1161,0.001,-0.514
1162,0.001,-0.514
1163,0.001,-0.514
1164,0.001,-0.518
1165,0.001,-0.518
1166,0.001,-0.518
1167,0.001,-0.518
1168,0.015,-0.516
1169,0.015,-0.516
1170,0.015,-0.516
1171,0.015,-0.516
1172,0.030,-0.512
1173,0.030,-0.512
1174,0.030,-0.512
1175,0.030,-0.512
1176,0.030,-0.501
1177,0.030,-0.501
1178,0.030,-0.501
1179,0.030,-0.501
1180,0.030,-0.485
1181,0.030,-0.485
1182,0.030,-0.485
1183,0.030,-0.485
1184,0.030,-0.465
1185,0.030,-0.465
1186,0.044,-0.465
1187,0.058,-0.465
1188,0.058,-0.432
1189,0.058,-0.432
1190,0.073,-0.432
1191,0.073,-0.432
1192,0.073,-0.398
1193,0.073,-0.398
1194,0.073,-0.398
1195,0.073,-0.398
1196,0.073,-0.355
1197,0.073,-0.355
1198,0.073,-0.355
1199,0.073,-0.355
1200,0.073,-0.306
1201,0.087,-0.306
1202,0.102,-0.306
1203,0.102,-0.306
1204,0.116,-0.254
1205,0.116,-0.254
1206,0.116,-0.254
1207,0.102,-0.254
1208,0.116,-0.195
1209,0.102,-0.195
1210,0.102,-0.195
1211,0.102,-0.195
1212,0.102,-0.136
1213,0.102,-0.136
1214,0.102,-0.136
1215,0.073,-0.136
1216,0.073,-0.077
1217,0.058,-0.077
1218,0.058,-0.077
1219,0.058,-0.077
1220,0.058,-0.016
1221,0.030,-0.016
1222,0.030,-0.016
1223,0.030,-0.016
1224,0.015,0.038
1225,0.015,0.038
1226,0.001,0.038
1227,0.001,0.038
1228,0.001,0.096
1229,0.001,0.096
1230,0.001,0.096
1231,0.001,0.096
1232,0.001,0.150
1233,0.001,0.150
1234,-0.013,0.150
1235,-0.013,0.150
1236,-0.013,0.199
1237,-0.013,0.199
1238,0.001,0.199
1239,-0.013,0.199
1240,-0.013,0.248
1241,-0.013,0.248
1242,-0.013,0.248
1243,-0.028,0.248
1244,-0.028,0.292
1245,-0.028,0.292
1246,-0.028,0.292
1247,-0.013,0.292
1248,-0.013,0.333
1249,-0.028,0.333
1250,-0.013,0.333
1251,-0.013,0.333
1252,-0.013,0.370
1253,-0.013,0.370
1254,0.001,0.370
1255,-0.013,0.370
1256,-0.013,0.403
1257,-0.013,0.403
1258,-0.013,0.403
1259,-0.013,0.403
1260,-0.013,0.435
1261,-0.013,0.435
1262,-0.013,0.435
1263,-0.013,0.435
1264,-0.013,0.457
1265,-0.013,0.457
1266,-0.013,0.457
1267,-0.013,0.457
1268,-0.013,0.481
1269,-0.013,0.481
1270,-0.013,0.481
1271,0.001,0.481
1272,0.001,0.498
1273,0.001,0.498
1274,-0.013,0.498
1275,-0.013,0.498
1276,-0.013,0.512
1277,-0.013,0.512
1278,-0.013,0.512
1279,-0.013,0.512
1280,-0.028,0.522
1281,-0.013,0.522
1282,-0.028,0.522
1283,-0.013,0.522
1284,-0.013,0.526
1285,-0.028,0.526
1286,-0.028,0.526
1287,-0.028,0.526
1288,-0.028,0.528
1289,-0.028,0.528
1290,-0.028,0.528
1291,-0.028,0.528
1292,-0.028,0.526
1293,-0.028,0.526
1294,-0.028,0.526
1295,-0.028,0.526
1296,-0.028,0.520
1297,-0.042,0.520
1298,-0.042,0.520
1299,-0.042,0.520
1300,-0.056,0.510
1301,-0.056,0.510
1302,-0.056,0.510
1303,-0.056,0.510
1304,-0.042,0.498
1305,-0.042,0.498
1306,-0.028,0.498
1307,-0.028,0.498
1308,-0.028,0.483
1309,-0.028,0.483
1310,-0.028,0.483
1311,-0.013,0.483
1312,-0.013,0.461
1313,-0.013,0.461
1314,-0.013,0.461
1315,-0.013,0.461
1316,-0.013,0.443
1317,-0.013,0.443
1318,-0.028,0.443
1319,-0.013,0.443
1320,0.001,0.416
1321,0.001,0.416
1322,0.015,0.416
1323,0.015,0.416
1324,0.030,0.392
1325,0.030,0.392
1326,0.030,0.392
1327,0.030,0.392
1328,0.030,0.361
1329,0.030,0.361
1330,0.015,0.361
1331,0.015,0.361
1332,0.015,0.331
1333,0.015,0.331
1334,0.015,0.331
1335,0.001,0.331
1336,0.001,0.300
1337,0.001,0.300
1338,0.001,0.300
1339,-0.013,0.300
1340,0.001,0.275
1341,-0.013,0.275
1342,-0.013,0.275
1343,-0.028,0.275
1344,-0.028,0.244
1345,-0.042,0.244
1346,-0.056,0.244
1347,-0.071,0.244
1348,-0.100,0.211
1349,-0.114,0.211
1350,-0.129,0.211
1351,-0.129,0.211
1352,-0.143,0.185
1353,-0.129,0.185
1354,-0.129,0.185
1355,-0.114,0.185
1356,-0.114,0.157
1357,-0.129,0.157
1358,-0.129,0.157
1359,-0.129,0.157
1360,-0.129,0.130
1361,-0.114,0.130
1362,-0.114,0.130
1363,-0.114,0.130
1364,-0.114,0.103
1365,-0.114,0.103
1366,-0.114,0.103
1367,-0.114,0.103
1368,-0.114,0.077
1369,-0.114,0.077
1370,-0.114,0.077
1371,-0.114,0.077
1372,-0.114,0.051
1373,-0.114,0.051
1374,-0.129,0.051
1375,-0.129,0.051
1376,-0.143,0.022
1377,-0.143,0.022
1378,-0.129,0.022
1379,-0.114,0.022
1380,-0.071,-0.002
1381,-0.056,-0.002
1382,0.001,-0.002
1383,0.015,-0.002
1384,0.058,-0.030
1385,0.116,-0.030
1386,0.174,-0.030
1387,0.245,-0.030
1388,0.332,-0.054
1389,0.418,-0.054
1390,0.505,-0.054
1391,0.577,-0.054
1392,0.648,-0.077
1393,0.692,-0.077
1394,0.735,-0.077
1395,0.735,-0.077
1396,0.692,-0.103
1397,0.591,-0.103
1398,0.476,-0.103
1399,0.346,-0.103
1400,0.231,-0.130
1401,0.116,-0.130
1402,0.015,-0.130
1403,-0.056,-0.130
1404,-0.114,-0.150
1405,-0.157,-0.150
1406,-0.172,-0.150
1407,-0.186,-0.150
1408,-0.201,-0.176
1409,-0.229,-0.176
1410,-0.201,-0.176
1411,-0.201,-0.176
1412,-0.186,-0.197
1413,-0.186,-0.197
1414,-0.172,-0.197
1415,-0.157,-0.197
1416,-0.157,-0.217
1417,-0.143,-0.217
1418,-0.143,-0.217
1419,-0.129,-0.217
1420,-0.114,-0.241
1421,-0.114,-0.241
1422,-0.129,-0.241
1423,-0.143,-0.241
1424,-0.129,-0.259
1425,-0.129,-0.259
1426,-0.129,-0.259
1427,-0.129,-0.259
1428,-0.114,-0.277
1429,-0.114,-0.277
1430,-0.114,-0.277
1431,-0.114,-0.277
1432,-0.143,-0.295
1433,-0.143,-0.295
1434,-0.143,-0.295
1435,-0.143,-0.295
1436,-0.143,-0.311
1437,-0.143,-0.311
1438,-0.129,-0.311
1439,-0.114,-0.311
1440,-0.114,-0.326
1441,-0.114,-0.326
1442,-0.129,-0.326
1443,-0.143,-0.326
1444,-0.129,-0.344
1445,-0.114,-0.344
1446,-0.129,-0.344
1447,-0.114,-0.344
1448,-0.114,-0.356
1449,-0.114,-0.356
1450,-0.100,-0.356
1451,-0.100,-0.356
1452,-0.100,-0.370
1453,-0.114,-0.370
1454,-0.100,-0.370
1455,-0.100,-0.370
1456,-0.100,-0.387
1457,-0.100,-0.387
1458,-0.100,-0.387
1459,-0.100,-0.387
1460,-0.100,-0.397
1461,-0.100,-0.397
1462,-0.100,-0.397
1463,-0.085,-0.397
1464,-0.085,-0.411
1465,-0.071,-0.411
1466,-0.071,-0.411
1467,-0.085,-0.411
1468,-0.085,-0.425
1469,-0.085,-0.425
1470,-0.071,-0.425
1471,-0.071,-0.425
1472,-0.071,-0.439
1473,-0.071,-0.439
1474,-0.071,-0.439
1475,-0.071,-0.439
1476,-0.056,-0.447
1477,-0.056,-0.447
1478,-0.042,-0.447
1479,-0.042,-0.447
1480,-0.028,-0.460
1481,-0.028,-0.460
1482,-0.028,-0.460
1483,-0.028,-0.460
1484,-0.028,-0.469
1485,-0.013,-0.469
1486,-0.028,-0.469
1487,-0.013,-0.469
1488,-0.013,-0.479
1489,-0.013,-0.479
1490,-0.013,-0.479
1491,-0.013,-0.479
1492,-0.013,-0.487
1493,-0.013,-0.487
1494,0.001,-0.487
1495,0.001,-0.487
1496,0.001,-0.493
1497,0.001,-0.493
1498,0.001,-0.493
1499,0.015,-0.493
1500,0.015,-0.496
1501,0.015,-0.496
1502,0.015,-0.496
1503,0.030,-0.496
1504,0.030,-0.500
1505,0.030,-0.500
1506,0.030,-0.500
1507,0.030,-0.500
1508,0.030,-0.496
1509,0.030,-0.496
1510,0.030,-0.496
1511,0.030,-0.496
1512,0.058,-0.491
1513,0.058,-0.491
1514,0.058,-0.491
1515,0.058,-0.491
1516,0.058,-0.477
1517,0.058,-0.477
1518,0.073,-0.477
1519,0.073,-0.477
1520,0.073,-0.460
1521,0.058,-0.460
1522,0.073,-0.460
1523,0.073,-0.460
1524,0.073,-0.433
1525,0.073,-0.433
1526,0.058,-0.433
1527,0.058,-0.433
1528,0.058,-0.399
1529,0.073,-0.399
1530,0.073,-0.399
1531,0.073,-0.399
1532,0.073,-0.358
1533,0.073,-0.358
1534,0.087,-0.358
1535,0.087,-0.358
1536,0.087,-0.311
1537,0.102,-0.311
1538,0.102,-0.311
1539,0.116,-0.311
1540,0.116,-0.257
1541,0.116,-0.257
1542,0.116,-0.257
1543,0.116,-0.257
1544,0.116,-0.203
1545,0.116,-0.203
1546,0.116,-0.203
1547,0.116,-0.203
1548,0.102,-0.143
1549,0.102,-0.143
1550,0.087,-0.143
1551,0.087,-0.143
1552,0.087,-0.085
1553,0.087,-0.085
1554,0.087,-0.085
1555,0.073,-0.085
1556,0.073,-0.029
1557,0.058,-0.029
1558,0.058,-0.029
1559,0.044,-0.029
1560,0.044,0.033
1561,0.030,0.033
1562,0.030,0.033
1563,0.015,0.033
1564,0.015,0.087
1565,0.001,0.087
1566,0.001,0.087
1567,0.001,0.087
1568,0.001,0.141
1569,-0.013,0.141
1570,-0.013,0.141
1571,-0.013,0.141
1572,-0.013,0.194
1573,-0.013,0.194
1574,-0.013,0.194
1575,-0.013,0.194
1576,0.001,0.241
1577,0.001,0.241
1578,0.001,0.241
1579,-0.013,0.241
1580,-0.013,0.287
1581,-0.013,0.287
1582,-0.013,0.287
1583,-0.013,0.287
1584,-0.013,0.330
1585,-0.013,0.330
1586,-0.013,0.330
1587,-0.013,0.330
1588,-0.013,0.366
1589,-0.013,0.366
1590,-0.013,0.366
1591,-0.013,0.366
1592,-0.013,0.401
1593,-0.013,0.401
1594,-0.013,0.401
1595,-0.013,0.401
1596,-0.013,0.431
1597,-0.013,0.431
1598,-0.013,0.431
1599,0.001,0.431
1600,-0.013,0.458
1601,-0.013,0.458
1602,-0.013,0.458
1603,0.001,0.458
1604,0.001,0.479
1605,-0.013,0.479
1606,-0.013,0.479
1607,-0.028,0.479
1608,-0.028,0.498
1609,-0.028,0.498
1610,-0.028,0.498
1611,-0.028,0.498
1612,-0.013,0.516
1613,-0.013,0.516
1614,-0.013,0.516
1615,-0.013,0.516
1616,-0.013,0.526
1617,-0.013,0.526
1618,-0.013,0.526
1619,-0.013,0.526
1620,-0.013,0.532
1621,-0.013,0.532
1622,-0.013,0.532
1623,-0.013,0.532
1624,-0.013,0.538
1625,-0.028,0.538
1626,-0.028,0.538
1627,-0.028,0.538
1628,-0.028,0.538
1629,-0.028,0.538
1630,-0.028,0.538
1631,-0.028,0.538
1632,-0.028,0.534
1633,-0.028,0.534
1634,-0.028,0.534
1635,-0.028,0.534
1636,-0.042,0.528
1637,-0.042,0.528
1638,-0.042,0.528
1639,-0.042,0.528
1640,-0.028,0.516
1641,-0.028,0.516
1642,-0.028,0.516
1643,-0.028,0.516
1644,-0.028,0.504
1645,-0.028,0.504
1646,-0.028,0.504
1647,-0.028,0.504
1648,-0.028,0.485
1649,-0.028,0.485
1650,-0.028,0.485
1651,-0.028,0.485
1652,-0.028,0.466
1653,-0.028,0.466
1654,-0.013,0.466
1655,-0.013,0.466
1656,0.001,0.439
1657,0.001,0.439
1658,0.001,0.439
1659,0.015,0.439
1660,0.030,0.415
1661,0.030,0.415
1662,0.030,0.415
1663,0.044,0.415
1664,0.044,0.389
1665,0.030,0.389
1666,0.030,0.389
1667,0.030,0.389
1668,0.030,0.360
1669,0.015,0.360
1670,0.015,0.360
1671,0.015,0.360
1672,0.015,0.332
1673,0.015,0.332
1674,0.001,0.332
1675,0.001,0.332
1676,0.001,0.301
1677,0.001,0.301
1678,0.001,0.301
1679,-0.013,0.301
1680,-0.013,0.269
1681,-0.028,0.269
1682,-0.042,0.269
1683,-0.056,0.269
1684,-0.071,0.240
1685,-0.071,0.240
1686,-0.100,0.240
1687,-0.100,0.240
1688,-0.114,0.214
1689,-0.114,0.214
1690,-0.143,0.214
1691,-0.143,0.214
1692,-0.129,0.183
1693,-0.143,0.183
1694,-0.129,0.183
1695,-0.129,0.183
1696,-0.129,0.157
1697,-0.114,0.157
1698,-0.114,0.157
1699,-0.114,0.157
1700,-0.129,0.128
1701,-0.129,0.128
1702,-0.129,0.128
1703,-0.114,0.128
1704,-0.114,0.102
1705,-0.114,0.102
1706,-0.114,0.102
1707,-0.114,0.102
1708,-0.114,0.075
1709,-0.114,0.075
1710,-0.100,0.075
1711,-0.114,0.075
1712,-0.114,0.049
1713,-0.114,0.049
1714,-0.100,0.049
1715,-0.100,0.049
1716,-0.100,0.024
1717,-0.056,0.024
1718,-0.028,0.024
1719,0.001,0.024
1720,0.015,-0.003
1721,0.058,-0.003
1722,0.102,-0.003
1723,0.145,-0.003
1724,0.217,-0.022
1725,0.303,-0.022
1726,0.390,-0.022
1727,0.476,-0.022
1728,0.548,-0.049
1729,0.619,-0.049
1730,0.663,-0.049
1731,0.692,-0.049
1732,0.720,-0.071
1733,0.692,-0.071
1734,0.606,-0.071
1735,0.505,-0.071
1736,0.390,-0.098
1737,0.274,-0.098
1738,0.174,-0.098
1739,0.058,-0.098
1740,-0.013,-0.120
1741,-0.100,-0.120
1742,-0.143,-0.120
1743,-0.172,-0.120
1744,-0.186,-0.143
1745,-0.201,-0.143
1746,-0.215,-0.143
1747,-0.229,-0.143
1748,-0.215,-0.168
1749,-0.201,-0.168
1750,-0.201,-0.168
1751,-0.186,-0.168
1752,-0.172,-0.188
1753,-0.157,-0.188
1754,-0.143,-0.188
1755,-0.143,-0.188
1756,-0.143,-0.212
1757,-0.129,-0.212
1758,-0.129,-0.212
1759,-0.143,-0.212
1760,-0.143,-0.233
1761,-0.129,-0.233
1762,-0.129,-0.233
1763,-0.143,-0.233
1764,-0.129,-0.253
1765,-0.129,-0.253
1766,-0.129,-0.253
1767,-0.114,-0.253
1768,-0.114,-0.274
1769,-0.114,-0.274
1770,-0.114,-0.274
1771,-0.143,-0.274
1772,-0.143,-0.292
1773,-0.143,-0.292
1774,-0.143,-0.292
1775,-0.143,-0.292
1776,-0.143,-0.310
1777,-0.129,-0.310
1778,-0.114,-0.310
1779,-0.114,-0.310
1780,-0.114,-0.329
1781,-0.100,-0.329
1782,-0.114,-0.329
1783,-0.114,-0.329
1784,-0.114,-0.349
1785,-0.114,-0.349
1786,-0.114,-0.349
1787,-0.100,-0.349
1788,-0.114,-0.363
1789,-0.100,-0.363
1790,-0.100,-0.363
1791,-0.100,-0.363
1792,-0.100,-0.378
1793,-0.100,-0.378
1794,-0.100,-0.378
1795,-0.100,-0.378
1796,-0.085,-0.390
1797,-0.085,-0.390
1798,-0.085,-0.390
1799,-0.100,-0.390
1800,-0.100,-0.406
1801,-0.100,-0.406
1802,-0.100,-0.406
1803,-0.085,-0.406
1804,-0.085,-0.418
1805,-0.071,-0.418
1806,-0.071,-0.418
1807,-0.071,-0.418
1808,-0.071,-0.430
1809,-0.071,-0.430
1810,-0.071,-0.430
1811,-0.056,-0.430
1812,-0.056,-0.445
1813,-0.056,-0.445
1814,-0.056,-0.445
1815,-0.056,-0.445
1816,-0.071,-0.453
1817,-0.056,-0.453
1818,-0.056,-0.453
1819,-0.042,-0.453
1820,-0.028,-0.465
1821,-0.028,-0.465
1822,-0.028,-0.465
1823,-0.028,-0.465
1824,-0.028,-0.477
1825,-0.028,-0.477
1826,-0.013,-0.477
1827,-0.013,-0.477
1828,-0.013,-0.487
1829,-0.013,-0.487
1830,-0.013,-0.487
1831,0.001,-0.487
1832,0.001,-0.498
1833,0.001,-0.498
1834,0.001,-0.498
1835,0.001,-0.498
1836,0.001,-0.504
1837,0.015,-0.504
1838,0.015,-0.504
1839,0.015,-0.504
1840,0.015,-0.506
1841,0.030,-0.506
1842,0.030,-0.506
1843,0.030,-0.506
1844,0.030,-0.508
1845,0.030,-0.508
1846,0.044,-0.508
1847,0.058,-0.508
1848,0.058,-0.504
1849,0.058,-0.504
1850,0.044,-0.504
1851,0.044,-0.504
1852,0.058,-0.493
1853,0.044,-0.493
1854,0.058,-0.493
1855,0.058,-0.493
1856,0.058,-0.475
1857,0.058,-0.475
1858,0.058,-0.475
1859,0.058,-0.475
1860,0.073,-0.453
1861,0.073,-0.453
1862,0.073,-0.453
1863,0.073,-0.453
1864,0.073,-0.420
1865,0.073,-0.420
1866,0.073,-0.420
1867,0.073,-0.420
1868,0.073,-0.382
1869,0.087,-0.382
1870,0.087,-0.382
1871,0.102,-0.382
1872,0.102,-0.337
1873,0.102,-0.337
1874,0.102,-0.337
1875,0.102,-0.337
1876,0.116,-0.285
1877,0.116,-0.285
1878,0.116,-0.285
1879,0.116,-0.285
1880,0.116,-0.231
1881,0.116,-0.231
1882,0.116,-0.231
1883,0.102,-0.231
1884,0.116,-0.175
1885,0.102,-0.175
1886,0.102,-0.175
1887,0.102,-0.175
1888,0.102,-0.117
1889,0.087,-0.117
1890,0.087,-0.117
1891,0.073,-0.117
1892,0.073,-0.056
1893,0.073,-0.056
1894,0.058,-0.056
1895,0.058,-0.056
1896,0.058,0.004
1897,0.058,0.004
1898,0.044,0.004
1899,0.030,0.004
1900,0.030,0.059
1901,0.030,0.059
1902,0.015,0.059
1903,0.015,0.059
1904,0.001,0.114
1905,0.001,0.114
1906,0.001,0.114
1907,0.001,0.114
1908,0.001,0.167
1909,0.001,0.167
1910,0.001,0.167
1911,0.001,0.167
1912,0.001,0.216
1913,-0.013,0.216
1914,-0.013,0.216
1915,-0.013,0.216
1916,-0.013,0.259
1917,-0.013,0.259
1918,-0.013,0.259
1919,-0.013,0.259
1920,-0.013,0.301
1921,-0.013,0.301
1922,0.001,0.301
1923,0.001,0.301
1924,0.001,0.344
1925,-0.013,0.344
1926,-0.013,0.344
1927,-0.013,0.344
1928,-0.013,0.379
1929,0.001,0.379
1930,-0.013,0.379
1931,0.001,0.379
1932,0.001,0.411
1933,-0.013,0.411
1934,-0.013,0.411
1935,-0.013,0.411
1936,0.001,0.434
1937,0.001,0.434
1938,0.001,0.434
1939,0.001,0.434
1940,0.001,0.461
1941,0.001,0.461
1942,0.001,0.461
1943,0.001,0.461
1944,0.001,0.477
1945,0.001,0.477
1946,-0.013,0.477
1947,-0.013,0.477
1948,-0.013,0.493
1949,-0.013,0.493
1950,-0.013,0.493
1951,-0.013,0.493
1952,-0.013,0.503
1953,-0.013,0.503
1954,0.001,0.503
1955,-0.013,0.503
1956,-0.013,0.511
1957,-0.013,0.511
1958,-0.013,0.511
1959,-0.013,0.511
1960,-0.013,0.518
1961,-0.013,0.518
1962,-0.013,0.518
1963,-0.013,0.518
1964,-0.013,0.518
1965,-0.028,0.518
1966,-0.028,0.518
1967,-0.028,0.518
1968,-0.028,0.511
1969,-0.028,0.511
1970,-0.028,0.511
1971,-0.028,0.511
1972,-0.028,0.507
1973,-0.028,0.507
1974,-0.028,0.507
1975,-0.028,0.507
1976,-0.028,0.495
1977,-0.028,0.495
1978,-0.028,0.495
1979,-0.028,0.495
1980,-0.028,0.479
1981,-0.028,0.479
1982,-0.013,0.479
1983,-0.013,0.479
1984,-0.013,0.461
1985,-0.013,0.461
1986,-0.013,0.461
1987,0.001,0.461
1988,-0.013,0.443
1989,-0.013,0.443
1990,-0.013,0.443
1991,-0.013,0.443
1992,-0.013,0.416
1993,-0.013,0.416
1994,0.001,0.416
1995,0.001,0.416
1996,0.015,0.390
1997,0.015,0.390
1998,0.030,0.390
1999,0.044,0.390
2000,0.044,0.361
2001,0.044,0.361
2002,0.044,0.361
2003,0.030,0.361
2004,0.030,0.332
2005,0.030,0.332
2006,0.030,0.332
2007,0.015,0.332
2008,0.015,0.301
2009,0.015,0.301
2010,0.001,0.301
2011,0.001,0.301
2012,0.015,0.269
2013,0.001,0.269
2014,0.001,0.269
2015,0.001,0.269
2016,0.001,0.238
2017,0.001,0.238
2018,-0.013,0.238
2019,-0.013,0.238
2020,-0.028,0.203
2021,-0.056,0.203
2022,-0.071,0.203
2023,-0.071,0.203
2024,-0.100,0.173
2025,-0.100,0.173
2026,-0.114,0.173
2027,-0.114,0.173
2028,-0.100,0.144
2029,-0.100,0.144
2030,-0.114,0.144
2031,-0.114,0.144
2032,-0.114,0.114
2033,-0.114,0.114
2034,-0.114,0.114
2035,-0.114,0.114
2036,-0.114,0.084
2037,-0.114,0.084
2038,-0.100,0.084
2039,-0.114,0.084
2040,-0.114,0.057
2041,-0.114,0.057
2042,-0.114,0.057
2043,-0.114,0.057
2044,-0.100,0.029
2045,-0.100,0.029
2046,-0.100,0.029
2047,-0.100,0.029
2048,-0.114,0.002
2049,-0.114,0.002
2050,-0.114,0.002
2051,-0.114,0.002
2052,-0.100,-0.025
2053,-0.085,-0.025
2054,-0.071,-0.025
2055,-0.042,-0.025
2056,-0.013,-0.049
2057,0.015,-0.049
2058,0.030,-0.049
2059,0.073,-0.049
2060,0.131,-0.073
2061,0.203,-0.073
2062,0.274,-0.073
2063,0.375,-0.073
2064,0.447,-0.102
2065,0.533,-0.102
2066,0.606,-0.102
2067,0.663,-0.102
2068,0.692,-0.122
2069,0.720,-0.122
2070,0.706,-0.122
2071,0.619,-0.122
2072,0.519,-0.147
2073,0.390,-0.147
2074,0.274,-0.147
2075,0.188,-0.147
2076,0.073,-0.172
2077,0.001,-0.172
2078,-0.056,-0.172
2079,-0.114,-0.172
2080,-0.143,-0.194
2081,-0.172,-0.194
2082,-0.201,-0.194
2083,-0.215,-0.194
2084,-0.201,-0.214
2085,-0.215,-0.214
2086,-0.201,-0.214
2087,-0.201,-0.214
2088,-0.186,-0.236
2089,-0.186,-0.236
2090,-0.172,-0.236
2091,-0.157,-0.236
2092,-0.143,-0.257
2093,-0.129,-0.257
2094,-0.114,-0.257
2095,-0.114,-0.257
2096,-0.100,-0.278
2097,-0.114,-0.278
2098,-0.114,-0.278
2099,-0.114,-0.278
2100,-0.114,-0.296
2101,-0.114,-0.296
2102,-0.114,-0.296
2103,-0.114,-0.296
2104,-0.114,-0.314
2105,-0.114,-0.314
2106,-0.114,-0.314
2107,-0.114,-0.314
2108,-0.114,-0.331
2109,-0.114,-0.331
2110,-0.114,-0.331
2111,-0.114,-0.331
2112,-0.114,-0.347
2113,-0.114,-0.347
2114,-0.114,-0.347
2115,-0.129,-0.347
2116,-0.129,-0.363
2117,-0.129,-0.363
2118,-0.114,-0.363
2119,-0.114,-0.363
2120,-0.114,-0.380
2121,-0.114,-0.380
2122,-0.114,-0.380
2123,-0.114,-0.380
2124,-0.114,-0.396
2125,-0.114,-0.396
2126,-0.100,-0.396
2127,-0.100,-0.396
2128,-0.100,-0.408
2129,-0.100,-0.408
2130,-0.100,-0.408
2131,-0.100,-0.408
2132,-0.100,-0.420
2133,-0.100,-0.420
2134,-0.100,-0.420
2135,-0.100,-0.420
2136,-0.100,-0.434
2137,-0.085,-0.434
2138,-0.085,-0.434
2139,-0.071,-0.434
2140,-0.071,-0.445
2141,-0.071,-0.445
2142,-0.071,-0.445
2143,-0.071,-0.445
2144,-0.071,-0.457
2145,-0.071,-0.457
2146,-0.071,-0.457
2147,-0.056,-0.457
2148,-0.056,-0.467
2149,-0.056,-0.467
2150,-0.056,-0.467
2151,-0.056,-0.467
2152,-0.056,-0.479
2153,-0.042,-0.479
2154,-0.042,-0.479
2155,-0.028,-0.479
2156,-0.028,-0.489
2157,-0.028,-0.489
2158,-0.028,-0.489
2159,-0.028,-0.489
2160,-0.028,-0.497
2161,-0.013,-0.497
2162,-0.013,-0.497
2163,-0.013,-0.497
2164,-0.013,-0.508
2165,-0.013,-0.508
2166,-0.013,-0.508
2167,0.001,-0.508
2168,0.001,-0.516
2169,0.001,-0.516
2170,0.001,-0.516
2171,0.001,-0.516
2172,0.001,-0.522
2173,0.001,-0.522
2174,0.001,-0.522
2175,0.001,-0.522
2176,0.001,-0.526
2177,0.015,-0.526
2178,0.015,-0.526
2179,0.030,-0.526
2180,0.030,-0.528
2181,0.030,-0.528
2182,0.030,-0.528
2183,0.030,-0.528
2184,0.030,-0.524
2185,0.044,-0.524
2186,0.044,-0.524
2187,0.044,-0.524
2188,0.058,-0.514
2189,0.058,-0.514
2190,0.058,-0.514
2191,0.058,-0.514
2192,0.058,-0.490
2193,0.073,-0.490
2194,0.073,-0.490
2195,0.073,-0.490
2196,0.073,-0.470
2197,0.073,-0.470
2198,0.073,-0.470
2199,0.073,-0.470
2200,0.073,-0.442
2201,0.073,-0.442
2202,0.073,-0.442
2203,0.073,-0.442
2204,0.087,-0.406
2205,0.102,-0.406
2206,0.087,-0.406
2207,0.102,-0.406
2208,0.102,-0.364
2209,0.102,-0.364
2210,0.102,-0.364
2211,0.116,-0.364
2212,0.116,-0.314
2213,0.116,-0.314
2214,0.116,-0.314
2215,0.116,-0.314
2216,0.116,-0.262
2217,0.102,-0.262
2218,0.102,-0.262
2219,0.116,-0.262
2220,0.116,-0.204
2221,0.116,-0.204
2222,0.116,-0.204
2223,0.102,-0.204
2224,0.102,-0.146
2225,0.102,-0.146
2226,0.087,-0.146
2227,0.087,-0.146
2228,0.087,-0.086
2229,0.087,-0.086
2230,0.073,-0.086
2231,0.073,-0.086
2232,0.058,-0.028
2233,0.058,-0.028
2234,0.058,-0.028
2235,0.044,-0.028
2236,0.044,0.028
2237,0.030,0.028
2238,0.030,0.028
2239,0.015,0.028
2240,0.015,0.082
2241,0.015,0.082
2242,0.001,0.082
2243,0.001,0.082
2244,0.001,0.136
2245,0.001,0.136
2246,0.001,0.136
2247,0.001,0.136
2248,0.001,0.186
2249,0.001,0.186
2250,-0.013,0.186
2251,-0.013,0.186
2252,-0.013,0.232
2253,-0.013,0.232
2254,0.001,0.232
2255,-0.013,0.232
2256,-0.013,0.272
2257,-0.013,0.272
2258,-0.013,0.272
2259,-0.013,0.272
2260,-0.013,0.308
2261,0.001,0.308
2262,0.001,0.308
2263,0.001,0.308
2264,0.001,0.344
2265,0.001,0.344
2266,0.001,0.344
2267,0.001,0.344
2268,0.001,0.378
2269,-0.013,0.378
2270,0.001,0.378
2271,0.001,0.378
2272,0.001,0.404
2273,-0.013,0.404
2274,0.001,0.404
2275,0.001,0.404
2276,0.001,0.428
2277,0.001,0.428
2278,0.001,0.428
2279,0.001,0.428
2280,0.001,0.450
2281,0.001,0.450
2282,0.001,0.450
2283,0.001,0.450
2284,0.001,0.466
2285,-0.013,0.466
2286,-0.013,0.466
2287,0.001,0.466
2288,0.001,0.478
2289,0.001,0.478
2290,0.001,0.478
2291,0.001,0.478
2292,-0.013,0.488
2293,-0.013,0.488
2294,-0.013,0.488
2295,-0.013,0.488
2296,-0.013,0.496
2297,-0.013,0.496
2298,-0.013,0.496
2299,-0.013,0.496
2300,-0.013,0.496
2301,-0.013,0.496
2302,-0.013,0.496
2303,-0.013,0.496
2304,-0.013,0.492
2305,-0.013,0.492
2306,-0.028,0.492
2307,-0.028,0.492
2308,-0.028,0.486
2309,-0.028,0.486
2310,-0.028,0.486
2311,-0.013,0.486
2312,-0.013,0.476
2313,-0.028,0.476
2314,-0.028,0.476
2315,-0.028,0.476
2316,-0.028,0.462
2317,-0.028,0.462
2318,-0.013,0.462
2319,-0.013,0.462
2320,-0.013,0.446
2321,-0.013,0.446
2322,-0.013,0.446
2323,-0.013,0.446
2324,-0.013,0.426
2325,-0.013,0.426
2326,-0.013,0.426
2327,-0.013,0.426
2328,0.001,0.404
2329,0.001,0.404
2330,0.001,0.404
2331,0.001,0.404
2332,0.015,0.380
2333,0.030,0.380
2334,0.044,0.380
2335,0.058,0.380
2336,0.058,0.352
2337,0.058,0.352
2338,0.058,0.352
2339,0.058,0.352
2340,0.058,0.324
2341,0.044,0.324
2342,0.030,0.324
2343,0.030,0.324
2344,0.030,0.294
2345,0.030,0.294
2346,0.030,0.294
2347,0.015,0.294
2348,0.015,0.262
2349,0.015,0.262
2350,0.001,0.262
2351,0.001,0.262
2352,0.001,0.232
2353,0.001,0.232
2354,-0.013,0.232
2355,-0.013,0.232
2356,-0.013,0.204
2357,-0.028,0.204
2358,-0.056,0.204
2359,-0.071,0.204
2360,-0.085,0.174
2361,-0.100,0.174
2362,-0.100,0.174
2363,-0.114,0.174
2364,-0.114,0.144
2365,-0.114,0.144
2366,-0.114,0.144
2367,-0.114,0.144
2368,-0.114,0.118
2369,-0.114,0.118
2370,-0.100,0.118
2371,-0.114,0.118
2372,-0.100,0.090
2373,-0.100,0.090
2374,-0.114,0.090
2375,-0.114,0.090
2376,-0.114,0.062
2377,-0.114,0.062
2378,-0.100,0.062
2379,-0.100,0.062
2380,-0.100,0.038
2381,-0.100,0.038
2382,-0.100,0.038
2383,-0.100,0.038
2384,-0.100,0.012
2385,-0.100,0.012
2386,-0.100,0.012
2387,-0.100,0.012
2388,-0.100,-0.012
2389,-0.100,-0.012
2390,-0.085,-0.012
2391,-0.071,-0.012
2392,-0.042,-0.038
2393,-0.013,-0.038
2394,0.015,-0.038
2395,0.044,-0.038
2396,0.087,-0.060
2397,0.145,-0.060
2398,0.203,-0.060
2399,0.289,-0.060
2400,0.375,-0.084
2401,0.447,-0.084
2402,0.533,-0.084
2403,0.606,-0.084
2404,0.663,-0.108
2405,0.706,-0.108
2406,0.706,-0.108
2407,0.692,-0.108
2408,0.619,-0.132
2409,0.505,-0.132
2410,0.390,-0.132
2411,0.289,-0.132
2412,0.188,-0.154
2413,0.073,-0.154
2414,0.001,-0.154
2415,-0.071,-0.154
2416,-0.114,-0.180
2417,-0.143,-0.180
2418,-0.172,-0.180
2419,-0.186,-0.180
2420,-0.201,-0.202
2421,-0.201,-0.202
2422,-0.201,-0.202
2423,-0.201,-0.202
2424,-0.186,-0.224
2425,-0.186,-0.224
2426,-0.157,-0.224
2427,-0.157,-0.224
2428,-0.143,-0.246
2429,-0.143,-0.246
2430,-0.143,-0.246
2431,-0.143,-0.246
2432,-0.129,-0.266
2433,-0.143,-0.266
2434,-0.129,-0.266
2435,-0.129,-0.266
2436,-0.129,-0.286
2437,-0.129,-0.286
2438,-0.114,-0.286
2439,-0.114,-0.286
2440,-0.114,-0.304
2441,-0.129,-0.304
2442,-0.114,-0.304
2443,-0.114,-0.304
2444,-0.114,-0.322
2445,-0.114,-0.322
2446,-0.114,-0.322
2447,-0.114,-0.322
2448,-0.114,-0.341
2449,-0.114,-0.341
2450,-0.114,-0.341
2451,-0.114,-0.341
2452,-0.129,-0.355
2453,-0.129,-0.355
2454,-0.129,-0.355
2455,-0.114,-0.355
2456,-0.114,-0.371
2457,-0.114,-0.371
2458,-0.114,-0.371
2459,-0.114,-0.371
2460,-0.114,-0.385
2461,-0.114,-0.385
2462,-0.100,-0.385
2463,-0.100,-0.385
2464,-0.114,-0.395
2465,-0.100,-0.395
2466,-0.100,-0.395
2467,-0.100,-0.395
2468,-0.100,-0.407
2469,-0.100,-0.407
2470,-0.100,-0.407
2471,-0.100,-0.407
2472,-0.100,-0.421
2473,-0.085,-0.421
2474,-0.085,-0.421
2475,-0.085,-0.421
2476,-0.085,-0.433
2477,-0.085,-0.433
2478,-0.085,-0.433
2479,-0.071,-0.433
2480,-0.071,-0.446
2481,-0.071,-0.446
2482,-0.071,-0.446
2483,-0.071,-0.446
2484,-0.071,-0.456
2485,-0.071,-0.456
2486,-0.071,-0.456
2487,-0.056,-0.456
2488,-0.056,-0.468
2489,-0.056,-0.468
2490,-0.056,-0.468
2491,-0.056,-0.468
2492,-0.056,-0.479
2493,-0.042,-0.479
2494,-0.028,-0.479
2495,-0.028,-0.479
2496,-0.013,-0.488
2497,-0.013,-0.488
2498,-0.013,-0.488
2499,-0.013,-0.488
2500,-0.013,-0.500
2501,-0.013,-0.500
2502,-0.013,-0.500
2503,0.001,-0.500
2504,0.001,-0.510
2505,0.001,-0.510
2506,0.001,-0.510
2507,0.001,-0.510
2508,0.001,-0.514
2509,0.001,-0.514
2510,0.001,-0.514
2511,0.015,-0.514
2512,0.015,-0.520
2513,0.015,-0.520
2514,0.030,-0.520
2515,0.015,-0.520
2516,0.030,-0.522
2517,0.030,-0.522
2518,0.030,-0.522
2519,0.044,-0.522
2520,0.044,-0.518
2521,0.058,-0.518
2522,0.058,-0.518
2523,0.058,-0.518
2524,0.058,-0.510
2525,0.058,-0.510
2526,0.073,-0.510
2527,0.073,-0.510
2528,0.073,-0.494
2529,0.058,-0.494
2530,0.073,-0.494
2531,0.073,-0.494
2532,0.073,-0.473
2533,0.073,-0.473
2534,0.073,-0.473
2535,0.073,-0.473
2536,0.073,-0.446
2537,0.087,-0.446
2538,0.073,-0.446
2539,0.073,-0.446
2540,0.073,-0.413
2541,0.073,-0.413
2542,0.087,-0.413
2543,0.087,-0.413
2544,0.102,-0.369
2545,0.116,-0.369
2546,0.116,-0.369
2547,0.116,-0.369
2548,0.116,-0.325
2549,0.131,-0.325
2550,0.131,-0.325
2551,0.131,-0.325
2552,0.131,-0.274
2553,0.145,-0.274
2554,0.131,-0.274
2555,0.131,-0.274
2556,0.131,-0.217
2557,0.116,-0.217
2558,0.116,-0.217
2559,0.116,-0.217
2560,0.116,-0.162
2561,0.116,-0.162
2562,0.116,-0.162
2563,0.116,-0.162
2564,0.102,-0.105
2565,0.102,-0.105
2566,0.073,-0.105
2567,0.073,-0.105
2568,0.073,-0.044
2569,0.058,-0.044
2570,0.058,-0.044
2571,0.044,-0.044
2572,0.044,0.010
2573,0.030,0.010
2574,0.030,0.010
2575,0.030,0.010
2576,0.030,0.065
2577,0.030,0.065
2578,0.030,0.065
2579,0.015,0.065
2580,0.015,0.121
2581,0.015,0.121
2582,0.001,0.121
2583,0.001,0.121
2584,0.001,0.172
2585,0.001,0.172
2586,0.001,0.172
2587,0.001,0.172
2588,0.001,0.217
2589,0.001,0.217
2590,0.001,0.217
2591,0.001,0.217
2592,0.001,0.260
2593,0.001,0.260
2594,0.001,0.260
2595,0.001,0.260
2596,0.001,0.300
2597,0.001,0.300
2598,0.001,0.300
2599,0.001,0.300
2600,0.001,0.335
2601,0.001,0.335
2602,0.001,0.335
2603,0.001,0.335
2604,0.001,0.367
2605,0.001,0.367
2606,-0.013,0.367
2607,0.001,0.367
2608,0.001,0.397
2609,0.001,0.397
2610,0.001,0.397
2611,0.001,0.397
2612,0.001,0.421
2613,0.001,0.421
2614,0.001,0.421
2615,0.001,0.421
2616,0.001,0.442
2617,0.001,0.442
2618,0.001,0.442
2619,0.001,0.442
2620,0.001,0.462
2621,0.001,0.462
2622,0.001,0.462
2623,0.001,0.462
2624,0.001,0.475
2625,0.001,0.475
2626,0.001,0.475
2627,0.001,0.475
2628,0.001,0.483
2629,0.001,0.483
2630,0.001,0.483
2631,0.001,0.483
2632,0.001,0.488
2633,0.001,0.488
2634,0.001,0.488
2635,-0.013,0.488
2636,-0.013,0.490
2637,-0.013,0.490
2638,-0.028,0.490
2639,-0.028,0.490
2640,-0.028,0.488
2641,-0.013,0.488
2642,-0.013,0.488
2643,-0.028,0.488
2644,-0.028,0.481
2645,-0.013,0.481
2646,-0.028,0.481
2647,-0.028,0.481
2648,-0.028,0.469
2649,-0.028,0.469
2650,-0.028,0.469
2651,-0.028,0.469
2652,-0.028,0.456
2653,-0.028,0.456
2654,-0.013,0.456
2655,-0.013,0.456
2656,0.001,0.442
2657,-0.013,0.442
2658,-0.013,0.442
2659,-0.013,0.442
2660,-0.013,0.419
2661,-0.013,0.419
2662,-0.013,0.419
2663,0.001,0.419
2664,-0.013,0.399
2665,0.001,0.399
2666,0.001,0.399
2667,0.001,0.399
2668,0.015,0.375
2669,0.030,0.375
2670,0.058,0.375
2671,0.058,0.375
2672,0.073,0.346
2673,0.073,0.346
2674,0.073,0.346
2675,0.073,0.346
2676,0.073,0.321
2677,0.073,0.321
2678,0.058,0.321
2679,0.058,0.321
2680,0.044,0.290
2681,0.044,0.290
2682,0.030,0.290
2683,0.030,0.290
2684,0.030,0.258
2685,0.015,0.258
2686,0.015,0.258
2687,0.015,0.258
2688,0.001,0.230
2689,0.001,0.230
2690,0.001,0.230
2691,-0.013,0.230
2692,-0.013,0.200
2693,-0.028,0.200
2694,-0.028,0.200
2695,-0.056,0.200
2696,-0.056,0.173
2697,-0.071,0.173
2698,-0.100,0.173
2699,-0.100,0.173
2700,-0.114,0.143
2701,-0.114,0.143
2702,-0.114,0.143
2703,-0.114,0.143
2704,-0.114,0.118
2705,-0.114,0.118
2706,-0.114,0.118
2707,-0.114,0.118
2708,-0.100,0.090
2709,-0.100,0.090
2710,-0.100,0.090
2711,-0.085,0.090
2712,-0.085,0.066
2713,-0.100,0.066
2714,-0.071,0.066
2715,-0.085,0.066
2716,-0.071,0.040
2717,-0.085,0.040
2718,-0.085,0.040
2719,-0.085,0.040
2720,-0.085,0.016
2721,-0.071,0.016
2722,-0.071,0.016
2723,-0.085,0.016
2724,-0.100,-0.008
2725,-0.085,-0.008
2726,-0.085,-0.008
2727,-0.071,-0.008
2728,-0.028,-0.035
2729,0.001,-0.035
2730,0.015,-0.035
2731,0.058,-0.035
2732,0.102,-0.059
2733,0.131,-0.059
2734,0.188,-0.059
2735,0.260,-0.059
2736,0.332,-0.083
2737,0.404,-0.083
2738,0.476,-0.083
2739,0.562,-0.083
2740,0.619,-0.104
2741,0.663,-0.104
2742,0.706,-0.104
2743,0.720,-0.104
2744,0.677,-0.129
2745,0.577,-0.129
2746,0.476,-0.129
2747,0.361,-0.129
2748,0.245,-0.150
2749,0.145,-0.150
2750,0.044,-0.150
2751,-0.013,-0.150
2752,-0.085,-0.169
2753,-0.114,-0.169
2754,-0.143,-0.169
2755,-0.172,-0.169
2756,-0.186,-0.191
2757,-0.186,-0.191
2758,-0.201,-0.191
2759,-0.186,-0.191
2760,-0.186,-0.211
2761,-0.157,-0.211
2762,-0.143,-0.211
2763,-0.143,-0.211
2764,-0.129,-0.235
2765,-0.129,-0.235
2766,-0.114,-0.235
2767,-0.114,-0.235
2768,-0.114,-0.255
2769,-0.114,-0.255
2770,-0.100,-0.255
2771,-0.100,-0.255
2772,-0.100,-0.273
2773,-0.100,-0.273
2774,-0.100,-0.273
2775,-0.100,-0.273
2776,-0.100,-0.289
2777,-0.100,-0.289
2778,-0.100,-0.289
2779,-0.100,-0.289
2780,-0.100,-0.303
2781,-0.100,-0.303
2782,-0.100,-0.303
2783,-0.100,-0.303
2784,-0.100,-0.320
2785,-0.100,-0.320
2786,-0.100,-0.320
2787,-0.100,-0.320
2788,-0.100,-0.336
2789,-0.100,-0.336
2790,-0.100,-0.336
2791,-0.100,-0.336
2792,-0.085,-0.347
2793,-0.085,-0.347
2794,-0.071,-0.347
2795,-0.071,-0.347
2796,-0.071,-0.361
2797,-0.085,-0.361
2798,-0.085,-0.361
2799,-0.085,-0.361
2800,-0.085,-0.373
2801,-0.085,-0.373
2802,-0.085,-0.373
2803,-0.071,-0.373
2804,-0.071,-0.384
2805,-0.071,-0.384
2806,-0.071,-0.384
2807,-0.071,-0.384
2808,-0.071,-0.396
2809,-0.071,-0.396
2810,-0.071,-0.396
2811,-0.056,-0.396
2812,-0.056,-0.407
2813,-0.056,-0.407
2814,-0.042,-0.407
2815,-0.042,-0.407
2816,-0.028,-0.420
2817,-0.028,-0.420
2818,-0.028,-0.420
2819,-0.028,-0.420
2820,-0.028,-0.434
2821,-0.028,-0.434
2822,-0.028,-0.434
2823,-0.028,-0.434
2824,-0.013,-0.442
2825,-0.013,-0.442
2826,-0.013,-0.442
2827,-0.013,-0.442
2828,-0.013,-0.452
2829,-0.013,-0.452
2830,-0.013,-0.452
2831,0.001,-0.452
2832,0.001,-0.460
2833,0.001,-0.460
2834,0.001,-0.460
2835,0.001,-0.460
2836,0.001,-0.468
2837,0.001,-0.468
2838,0.001,-0.468
2839,0.001,-0.468
2840,0.001,-0.478
2841,0.015,-0.478
2842,0.015,-0.478
2843,0.030,-0.478
2844,0.030,-0.484
2845,0.044,-0.484
2846,0.044,-0.484
2847,0.044,-0.484
2848,0.044,-0.488
2849,0.058,-0.488
2850,0.044,-0.488
2851,0.044,-0.488
2852,0.058,-0.490
2853,0.058,-0.490
2854,0.058,-0.490
2855,0.058,-0.490
2856,0.058,-0.488
2857,0.058,-0.488
2858,0.058,-0.488
2859,0.073,-0.488
2860,0.073,-0.480
2861,0.073,-0.480
2862,0.073,-0.480
2863,0.073,-0.480
2864,0.073,-0.468
2865,0.073,-0.468
2866,0.073,-0.468
2867,0.087,-0.468
2868,0.087,-0.448
2869,0.073,-0.448
2870,0.087,-0.448
2871,0.087,-0.448
2872,0.102,-0.420
2873,0.102,-0.420
2874,0.102,-0.420
2875,0.102,-0.420
2876,0.116,-0.386
2877,0.116,-0.386
2878,0.116,-0.386
2879,0.116,-0.386
2880,0.116,-0.347
2881,0.116,-0.347
2882,0.116,-0.347
2883,0.116,-0.347
2884,0.131,-0.301
2885,0.131,-0.301
2886,0.145,-0.301
2887,0.145,-0.301
2888,0.145,-0.249
2889,0.145,-0.249
2890,0.145,-0.249
2891,0.131,-0.249
2892,0.131,-0.195
2893,0.131,-0.195
2894,0.131,-0.195
2895,0.145,-0.195
2896,0.145,-0.139
2897,0.145,-0.139
2898,0.145,-0.139
2899,0.131,-0.139
2900,0.116,-0.083
2901,0.116,-0.083
2902,0.102,-0.083
2903,0.102,-0.083
2904,0.102,-0.026
2905,0.073,-0.026
2906,0.073,-0.026
2907,0.073,-0.026
2908,0.058,0.030
2909,0.058,0.030
2910,0.044,0.030
2911,0.044,0.030
2912,0.044,0.084
2913,0.030,0.084
2914,0.030,0.084
2915,0.030,0.084
2916,0.015,0.133
2917,0.015,0.133
2918,0.001,0.133
2919,0.001,0.133
2920,0.001,0.182
2921,0.001,0.182
2922,0.001,0.182
2923,0.001,0.182
2924,0.001,0.229
2925,0.001,0.229
2926,0.001,0.229
2927,0.001,0.229
2928,0.001,0.271
2929,0.001,0.271
2930,0.001,0.271
2931,0.001,0.271
2932,0.001,0.311
2933,0.001,0.311
2934,0.001,0.311
2935,0.001,0.311
2936,0.001,0.347
2937,0.001,0.347
2938,0.001,0.347
2939,0.001,0.347
2940,0.001,0.380
2941,0.001,0.380
2942,0.001,0.380
2943,0.001,0.380
2944,0.001,0.411
2945,0.001,0.411
2946,0.001,0.411
2947,0.001,0.411
2948,0.001,0.438
2949,0.001,0.438
2950,0.001,0.438
2951,0.001,0.438
2952,0.001,0.458
2953,0.001,0.458
2954,0.001,0.458
2955,0.001,0.458
2956,0.001,0.475
2957,-0.013,0.475
2958,-0.013,0.475
2959,-0.013,0.475
2960,-0.013,0.492
2961,-0.013,0.492
2962,-0.013,0.492
2963,0.001,0.492
2964,-0.013,0.502
2965,-0.013,0.502
2966,0.001,0.502
2967,0.001,0.502
2968,0.001,0.506
2969,0.001,0.506
2970,0.001,0.506
2971,0.001,0.506
2972,0.001,0.510
2973,0.001,0.510
2974,0.001,0.510
2975,0.001,0.510
2976,0.001,0.508
2977,-0.013,0.508
2978,-0.013,0.508
2979,0.001,0.508
2980,-0.013,0.502
2981,-0.013,0.502
2982,-0.013,0.502
2983,-0.028,0.502
2984,-0.028,0.496
2985,-0.028,0.496
2986,-0.028,0.496
2987,-0.028,0.496
2988,-0.013,0.481
2989,-0.013,0.481
2990,0.001,0.481
2991,0.001,0.481
2992,0.001,0.466
2993,0.001,0.466
2994,0.001,0.466
2995,0.001,0.466
2996,0.001,0.448
2997,0.001,0.448
2998,0.001,0.448
2999,0.001,0.448
3000,0.001,0.425
3001,0.001,0.425
3002,0.001,0.425
3003,0.001,0.425
3004,0.015,0.404
3005,0.030,0.404
3006,0.044,0.404
3007,0.044,0.404
3008,0.058,0.376
3009,0.058,0.376
3010,0.058,0.376
3011,0.058,0.376
3012,0.058,0.349
3013,0.058,0.349
3014,0.058,0.349
3015,0.044,0.349
3016,0.044,0.323
3017,0.030,0.323
3018,0.030,0.323
3019,0.030,0.323
3020,0.015,0.297
3021,0.015,0.297
3022,0.001,0.297
3023,0.015,0.297
3024,0.001,0.267
3025,0.001,0.267
3026,0.001,0.267
3027,0.001,0.267
3028,-0.013,0.243
3029,-0.013,0.243
3030,-0.028,0.243
3031,-0.042,0.243
3032,-0.056,0.216
3033,-0.071,0.216
3034,-0.085,0.216
3035,-0.100,0.216
3036,-0.100,0.191
3037,-0.100,0.191
3038,-0.100,0.191
3039,-0.100,0.191
3040,-0.100,0.167
3041,-0.100,0.167
3042,-0.100,0.167
3043,-0.100,0.167
3044,-0.085,0.142
3045,-0.100,0.142
3046,-0.085,0.142
3047,-0.085,0.142
3048,-0.071,0.117
3049,-0.071,0.117
3050,-0.071,0.117
3051,-0.071,0.117
3052,-0.071,0.094
3053,-0.071,0.094
3054,-0.071,0.094
3055,-0.071,0.094
3056,-0.085,0.066
3057,-0.085,0.066
3058,-0.085,0.066
3059,-0.085,0.066
3060,-0.071,0.042
3061,-0.071,0.042
3062,-0.056,0.042
3063,-0.042,0.042
3064,-0.013,0.020
3065,0.015,0.020
3066,0.058,0.020
3067,0.087,0.020
3068,0.131,-0.006
3069,0.188,-0.006
3070,0.245,-0.006
3071,0.332,-0.006
3072,0.432,-0.030
3073,0.519,-0.030
3074,0.606,-0.030
3075,0.692,-0.030
3076,0.749,-0.051
3077,0.793,-0.051
3078,0.821,-0.051
3079,0.821,-0.051
3080,0.749,-0.074
3081,0.634,-0.074
3082,0.505,-0.074
3083,0.361,-0.074
3084,0.245,-0.095
3085,0.131,-0.095
3086,0.030,-0.095
3087,-0.042,-0.095
3088,-0.100,-0.117
3089,-0.143,-0.117
3090,-0.157,-0.117
3091,-0.186,-0.117
3092,-0.186,-0.137
3093,-0.201,-0.137
3094,-0.186,-0.137
3095,-0.186,-0.137
3096,-0.172,-0.157
3097,-0.157,-0.157
3098,-0.157,-0.157
3099,-0.143,-0.157
3100,-0.129,-0.175
3101,-0.114,-0.175
3102,-0.114,-0.175
3103,-0.114,-0.175
3104,-0.114,-0.195
3105,-0.100,-0.195
3106,-0.100,-0.195
3107,-0.100,-0.195
3108,-0.114,-0.215
3109,-0.114,-0.215
3110,-0.100,-0.215
3111,-0.100,-0.215
3112,-0.100,-0.233
3113,-0.100,-0.233
3114,-0.100,-0.233
3115,-0.100,-0.233
3116,-0.100,-0.251
3117,-0.114,-0.251
3118,-0.100,-0.251
3119,-0.100,-0.251
3120,-0.100,-0.265
3121,-0.100,-0.265
3122,-0.100,-0.265
3123,-0.100,-0.265
3124,-0.100,-0.279
3125,-0.100,-0.279
3126,-0.100,-0.279
3127,-0.100,-0.279
3128,-0.100,-0.293
3129,-0.100,-0.293
3130,-0.100,-0.293
3131,-0.100,-0.293
3132,-0.100,-0.307
3133,-0.085,-0.307
3134,-0.085,-0.307
3135,-0.085,-0.307
3136,-0.071,-0.318
3137,-0.071,-0.318
3138,-0.071,-0.318
3139,-0.071,-0.318
3140,-0.071,-0.332
3141,-0.071,-0.332
3142,-0.071,-0.332
3143,-0.071,-0.332
3144,-0.071,-0.342
3145,-0.071,-0.342
3146,-0.071,-0.342
3147,-0.071,-0.342
3148,-0.071,-0.353
3149,-0.056,-0.353
3150,-0.056,-0.353
3151,-0.056,-0.353
3152,-0.042,-0.363
3153,-0.056,-0.363
3154,-0.042,-0.363
3155,-0.042,-0.363
3156,-0.056,-0.373
3157,-0.042,-0.373
3158,-0.028,-0.373
3159,-0.028,-0.373
3160,-0.028,-0.384
3161,-0.028,-0.384
3162,-0.028,-0.384
3163,-0.028,-0.384
3164,-0.028,-0.396
3165,-0.028,-0.396
3166,-0.028,-0.396
3167,-0.013,-0.396
3168,-0.013,-0.402
3169,-0.013,-0.402
3170,-0.013,-0.402
3171,-0.013,-0.402
3172,0.001,-0.411
3173,-0.013,-0.411
3174,0.001,-0.411
3175,0.001,-0.411
3176,0.001,-0.418
3177,0.001,-0.418
3178,0.015,-0.418
3179,0.001,-0.418
3180,0.001,-0.424
3181,0.001,-0.424
3182,0.001,-0.424
3183,0.015,-0.424
3184,0.015,-0.430
3185,0.015,-0.430
3186,0.030,-0.430
3187,0.030,-0.430
3188,0.030,-0.428
3189,0.030,-0.428
3190,0.030,-0.428
3191,0.044,-0.428
3192,0.058,-0.428
3193,0.058,-0.428
3194,0.058,-0.428
3195,0.058,-0.428
3196,0.058,-0.420
3197,0.058,-0.420
3198,0.058,-0.420
3199,0.044,-0.420
3200,0.044,-0.404
3201,0.058,-0.404
3202,0.058,-0.404
3203,0.058,-0.404
3204,0.073,-0.382
3205,0.073,-0.382
3206,0.073,-0.382
3207,0.058,-0.382
3208,0.073,-0.355
3209,0.058,-0.355
3210,0.073,-0.355
3211,0.073,-0.355
3212,0.073,-0.320
3213,0.073,-0.320
3214,0.073,-0.320
3215,0.073,-0.320
3216,0.073,-0.282
3217,0.073,-0.282
3218,0.087,-0.282
3219,0.102,-0.282
3220,0.102,-0.234
3221,0.102,-0.234
3222,0.116,-0.234
3223,0.116,-0.234
3224,0.116,-0.178
3225,0.116,-0.178
3226,0.116,-0.178
3227,0.116,-0.178
3228,0.116,-0.128
3229,0.116,-0.128
3230,0.116,-0.128
3231,0.102,-0.128
3232,0.102,-0.069
3233,0.102,-0.069
3234,0.102,-0.069
3235,0.087,-0.069
3236,0.073,-0.016
3237,0.073,-0.016
3238,0.073,-0.016
3239,0.058,-0.016
3240,0.058,0.041
3241,0.044,0.041
3242,0.030,0.041
3243,0.030,0.041
3244,0.030,0.093
3245,0.030,0.093
3246,0.030,0.093
3247,0.015,0.093
3248,0.015,0.146
3249,0.015,0.146
3250,0.001,0.146
3251,0.001,0.146
3252,0.001,0.193
3253,0.001,0.193
3254,0.001,0.193
3255,0.001,0.193
3256,-0.013,0.242
3257,-0.013,0.242
3258,-0.028,0.242
3259,-0.028,0.242
3260,-0.028,0.284
3261,-0.028,0.284
3262,-0.028,0.284
3263,-0.028,0.284
3264,-0.028,0.328
3265,-0.028,0.328
3266,-0.028,0.328
3267,-0.028,0.328
3268,-0.028,0.366
3269,-0.013,0.366
3270,-0.013,0.366
3271,-0.013,0.366
3272,-0.013,0.401
3273,-0.013,0.401
3274,-0.013,0.401
3275,-0.013,0.401
3276,-0.013,0.433
3277,-0.013,0.433
3278,-0.013,0.433
3279,-0.013,0.433
3280,-0.013,0.462
3281,-0.013,0.462
3282,-0.013,0.462
3283,-0.013,0.462
3284,-0.013,0.485
3285,-0.013,0.485
3286,-0.013,0.485
3287,-0.013,0.485
3288,-0.013,0.504
3289,-0.013,0.504
3290,-0.013,0.504
3291,-0.013,0.504
3292,-0.013,0.522
3293,-0.013,0.522
3294,-0.013,0.522
3295,-0.013,0.522
3296,-0.013,0.534
3297,-0.013,0.534
3298,-0.013,0.534
3299,-0.013,0.534
3300,-0.028,0.544
3301,-0.013,0.544
3302,-0.013,0.544
3303,-0.013,0.544
3304,-0.013,0.550
3305,-0.013,0.550
3306,-0.028,0.550
3307,-0.028,0.550
3308,-0.028,0.552
3309,-0.028,0.552
3310,-0.028,0.552
3311,-0.028,0.552
3312,-0.028,0.552
3313,-0.013,0.552
3314,-0.028,0.552
3315,-0.013,0.552
3316,-0.028,0.550
3317,-0.028,0.550
3318,-0.028,0.550
3319,-0.028,0.550
3320,-0.042,0.542
3321,-0.042,0.542
3322,-0.042,0.542
3323,-0.042,0.542
3324,-0.042,0.534
3325,-0.042,0.534
3326,-0.028,0.534
3327,-0.028,0.534
3328,-0.013,0.520
3329,-0.013,0.520
3330,-0.013,0.520
3331,-0.013,0.520
3332,-0.013,0.502
3333,-0.013,0.502
3334,-0.013,0.502
3335,-0.013,0.502
3336,0.001,0.481
3337,0.001,0.481
3338,0.001,0.481
3339,0.001,0.481
3340,0.001,0.455
3341,0.001,0.455
3342,0.015,0.455
3343,0.015,0.455
3344,0.015,0.427
3345,0.015,0.427
3346,0.015,0.427
3347,0.015,0.427
3348,0.015,0.397
3349,0.015,0.397
3350,0.015,0.397
3351,0.015,0.397
3352,0.015,0.362
3353,0.015,0.362
3354,0.001,0.362
3355,0.001,0.362
3356,0.001,0.325
3357,0.001,0.325
3358,0.001,0.325
3359,-0.028,0.325
3360,-0.013,0.288
3361,-0.028,0.288
3362,-0.028,0.288
3363,-0.042,0.288
3364,-0.042,0.250
3365,-0.056,0.250
3366,-0.056,0.250
3367,-0.071,0.250
3368,-0.085,0.215
3369,-0.100,0.215
3370,-0.114,0.215
3371,-0.114,0.215
3372,-0.114,0.179
3373,-0.129,0.179
3374,-0.129,0.179
3375,-0.143,0.179
3376,-0.143,0.146
3377,-0.129,0.146
3378,-0.129,0.146
3379,-0.114,0.146
3380,-0.114,0.116
3381,-0.114,0.116
3382,-0.114,0.116
3383,-0.114,0.116
3384,-0.114,0.086
3385,-0.114,0.086
3386,-0.114,0.086
3387,-0.114,0.086
3388,-0.114,0.055
3389,-0.114,0.055
3390,-0.114,0.055
3391,-0.114,0.055
3392,-0.114,0.029
3393,-0.114,0.029
3394,-0.114,0.029
3395,-0.100,0.029
3396,-0.114,-0.002
3397,-0.114,-0.002
3398,-0.114,-0.002
3399,-0.100,-0.002
3400,-0.071,-0.028
3401,-0.056,-0.028
3402,-0.013,-0.028
3403,0.015,-0.028
3404,0.058,-0.057
3405,0.102,-0.057
3406,0.159,-0.057
3407,0.245,-0.057
3408,0.332,-0.083
3409,0.432,-0.083
3410,0.533,-0.083
3411,0.619,-0.083
3412,0.692,-0.107
3413,0.749,-0.107
3414,0.778,-0.107
3415,0.778,-0.107
3416,0.749,-0.134
3417,0.648,-0.134
3418,0.533,-0.134
3419,0.404,-0.134
3420,0.274,-0.158
3421,0.159,-0.158
3422,0.044,-0.158
3423,-0.028,-0.158
3424,-0.114,-0.182
3425,-0.157,-0.182
3426,-0.186,-0.182
3427,-0.215,-0.182
3428,-0.229,-0.203
3429,-0.229,-0.203
3430,-0.229,-0.203
3431,-0.229,-0.203
3432,-0.229,-0.228
3433,-0.215,-0.228
3434,-0.201,-0.228
3435,-0.201,-0.228
3436,-0.186,-0.247
3437,-0.172,-0.247
3438,-0.157,-0.247
3439,-0.143,-0.247
3440,-0.143,-0.268
3441,-0.129,-0.268
3442,-0.129,-0.268
3443,-0.129,-0.268
3444,-0.143,-0.290
3445,-0.143,-0.290
3446,-0.129,-0.290
3447,-0.129,-0.290
3448,-0.129,-0.312
3449,-0.129,-0.312
3450,-0.143,-0.312
3451,-0.143,-0.312
3452,-0.143,-0.335
3453,-0.143,-0.335
3454,-0.143,-0.335
3455,-0.129,-0.335
3456,-0.143,-0.353
3457,-0.143,-0.353
3458,-0.129,-0.353
3459,-0.129,-0.353
3460,-0.129,-0.373
3461,-0.129,-0.373
3462,-0.129,-0.373
3463,-0.129,-0.373
3464,-0.129,-0.392
3465,-0.114,-0.392
3466,-0.129,-0.392
3467,-0.114,-0.392
3468,-0.114,-0.410
3469,-0.114,-0.410
3470,-0.114,-0.410
3471,-0.114,-0.410
3472,-0.114,-0.437
3473,-0.129,-0.437
3474,-0.129,-0.437
3475,-0.129,-0.437
3476,-0.129,-0.452
3477,-0.114,-0.452
3478,-0.114,-0.452
3479,-0.100,-0.452
3480,-0.100,-0.466
3481,-0.100,-0.466
3482,-0.100,-0.466
3483,-0.100,-0.466
3484,-0.100,-0.478
3485,-0.100,-0.478
3486,-0.085,-0.478
3487,-0.085,-0.478
3488,-0.085,-0.492
3489,-0.100,-0.492
3490,-0.085,-0.492
3491,-0.085,-0.492
3492,-0.071,-0.503
3493,-0.071,-0.503
3494,-0.071,-0.503
3495,-0.071,-0.503
3496,-0.071,-0.513
3497,-0.071,-0.513
3498,-0.071,-0.513
3499,-0.071,-0.513
3500,-0.056,-0.524
3501,-0.056,-0.524
3502,-0.056,-0.524
3503,-0.056,-0.524
3504,-0.056,-0.536
3505,-0.056,-0.536
3506,-0.056,-0.536
3507,-0.056,-0.536
3508,-0.042,-0.542
3509,-0.042,-0.542
3510,-0.028,-0.542
3511,-0.028,-0.542
3512,-0.028,-0.553
3513,-0.028,-0.553
3514,-0.028,-0.553
3515,-0.028,-0.553
3516,-0.013,-0.561
3517,-0.013,-0.561
3518,0.001,-0.561
3519,0.001,-0.561
3520,0.001,-0.567
3521,0.001,-0.567
3522,0.001,-0.567
3523,0.001,-0.567
3524,0.001,-0.570
3525,0.001,-0.570
3526,0.001,-0.570
3527,0.015,-0.570
3528,0.015,-0.567
3529,0.015,-0.567
3530,0.030,-0.567
3531,0.030,-0.567
3532,0.030,-0.561
3533,0.015,-0.561
3534,0.030,-0.561
3535,0.030,-0.561
3536,0.044,-0.546
3537,0.030,-0.546
3538,0.030,-0.546
3539,0.030,-0.546
3540,0.030,-0.526
3541,0.030,-0.526
3542,0.044,-0.526
3543,0.058,-0.526
3544,0.058,-0.499
3545,0.058,-0.499
3546,0.073,-0.499
3547,0.073,-0.499
3548,0.073,-0.464
3549,0.073,-0.464
3550,0.073,-0.464
3551,0.073,-0.464
3552,0.073,-0.422
3553,0.087,-0.422
3554,0.087,-0.422
3555,0.102,-0.422
3556,0.102,-0.374
3557,0.102,-0.374
3558,0.102,-0.374
3559,0.102,-0.374
3560,0.102,-0.321
3561,0.102,-0.321
3562,0.102,-0.321
3563,0.116,-0.321
3564,0.116,-0.265
3565,0.102,-0.265
3566,0.116,-0.265
3567,0.102,-0.265
3568,0.102,-0.205
3569,0.102,-0.205
3570,0.102,-0.205
3571,0.102,-0.205
3572,0.102,-0.147
3573,0.087,-0.147
3574,0.073,-0.147
3575,0.058,-0.147
3576,0.058,-0.087
3577,0.044,-0.087
3578,0.030,-0.087
3579,0.030,-0.087
3580,0.030,-0.027
3581,0.030,-0.027
3582,0.030,-0.027
3583,0.015,-0.027
3584,0.015,0.029
3585,0.015,0.029
3586,0.001,0.029
3587,0.001,0.029
3588,0.001,0.079
3589,-0.013,0.079
3590,-0.013,0.079
3591,-0.013,0.079
3592,-0.013,0.131
3593,-0.013,0.131
3594,-0.013,0.131
3595,-0.013,0.131
3596,-0.013,0.180
3597,-0.013,0.180
3598,-0.013,0.180
3599,-0.013,0.180
3600,-0.013,0.226
3601,-0.013,0.226
3602,-0.013,0.226
3603,-0.013,0.226
3604,-0.013,0.269
3605,-0.013,0.269
3606,-0.028,0.269
3607,-0.013,0.269
3608,-0.013,0.306
3609,-0.013,0.306
3610,-0.028,0.306
3611,-0.013,0.306
3612,-0.013,0.342
3613,-0.013,0.342
3614,-0.013,0.342
3615,-0.013,0.342
3616,-0.013,0.372
3617,-0.013,0.372
3618,-0.013,0.372
3619,-0.013,0.372
3620,-0.013,0.402
3621,-0.013,0.402
3622,-0.013,0.402
3623,-0.013,0.402
3624,-0.013,0.422
3625,-0.013,0.422
3626,-0.028,0.422
3627,-0.013,0.422
3628,-0.013,0.445
3629,-0.028,0.445
3630,-0.028,0.445
3631,-0.028,0.445
3632,-0.028,0.458
3633,-0.028,0.458
3634,-0.028,0.458
3635,-0.028,0.458
3636,-0.028,0.472
3637,-0.028,0.472
3638,-0.028,0.472
3639,-0.013,0.472
3640,-0.028,0.480
3641,-0.013,0.480
3642,-0.028,0.480
3643,-0.028,0.480
3644,-0.028,0.482
3645,-0.028,0.482
3646,-0.028,0.482
3647,-0.028,0.482
3648,-0.028,0.484
3649,-0.028,0.484
3650,-0.042,0.484
3651,-0.042,0.484
3652,-0.042,0.482
3653,-0.042,0.482
3654,-0.056,0.482
3655,-0.056,0.482
3656,-0.056,0.476
3657,-0.056,0.476
3658,-0.056,0.476
3659,-0.056,0.476
3660,-0.056,0.464
3661,-0.056,0.464
3662,-0.056,0.464
3663,-0.056,0.464
3664,-0.042,0.450
3665,-0.028,0.450
3666,-0.028,0.450
3667,-0.013,0.450
3668,-0.013,0.435
3669,-0.013,0.435
3670,-0.013,0.435
3671,-0.028,0.435
3672,-0.028,0.412
3673,-0.028,0.412
3674,-0.028,0.412
3675,-0.028,0.412
3676,-0.013,0.387
3677,-0.013,0.387
3678,0.001,0.387
3679,0.015,0.387
3680,0.015,0.358
3681,0.030,0.358
3682,0.030,0.358
3683,0.030,0.358
3684,0.030,0.332
3685,0.030,0.332
3686,0.030,0.332
3687,0.030,0.332
3688,0.015,0.300
3689,0.015,0.300
3690,0.015,0.300
3691,0.015,0.300
3692,0.001,0.271
3693,0.001,0.271
3694,0.001,0.271
3695,0.001,0.271
3696,-0.013,0.240
3697,-0.013,0.240
3698,-0.013,0.240
3699,-0.028,0.240
3700,-0.028,0.207
3701,-0.028,0.207
3702,-0.042,0.207
3703,-0.056,0.207
3704,-0.071,0.176
3705,-0.071,0.176
3706,-0.100,0.176
3707,-0.114,0.176
3708,-0.114,0.147
3709,-0.129,0.147
3710,-0.129,0.147
3711,-0.129,0.147
3712,-0.129,0.116
3713,-0.129,0.116
3714,-0.143,0.116
3715,-0.143,0.116
3716,-0.129,0.085
3717,-0.129,0.085
3718,-0.114,0.085
3719,-0.114,0.085
3720,-0.114,0.058
3721,-0.114,0.058
3722,-0.114,0.058
3723,-0.114,0.058
3724,-0.114,0.029
3725,-0.114,0.029
3726,-0.114,0.029
3727,-0.114,0.029
3728,-0.114,0.000
3729,-0.129,0.000
3730,-0.129,0.000
3731,-0.129,0.000
3732,-0.143,-0.026
3733,-0.143,-0.026
3734,-0.143,-0.026
3735,-0.143,-0.026
3736,-0.129,-0.055
3737,-0.100,-0.055
3738,-0.071,-0.055
3739,-0.028,-0.055
3740,0.001,-0.080
3741,0.030,-0.080
3742,0.073,-0.080
3743,0.131,-0.080
3744,0.203,-0.102
3745,0.289,-0.102
3746,0.375,-0.102
3747,0.461,-0.102
3748,0.548,-0.127
3749,0.619,-0.127
3750,0.692,-0.127
3751,0.720,-0.127
3752,0.735,-0.149
3753,0.706,-0.149
3754,0.619,-0.149
3755,0.519,-0.149
3756,0.404,-0.172
3757,0.289,-0.172
3758,0.174,-0.172
3759,0.073,-0.172
3760,0.001,-0.195
3761,-0.071,-0.195
3762,-0.143,-0.195
3763,-0.172,-0.195
3764,-0.186,-0.219
3765,-0.201,-0.219
3766,-0.229,-0.219
3767,-0.229,-0.219
3768,-0.229,-0.239
3769,-0.201,-0.239
3770,-0.201,-0.239
3771,-0.186,-0.239
3772,-0.172,-0.260
3773,-0.172,-0.260
3774,-0.157,-0.260
3775,-0.157,-0.260
3776,-0.157,-0.282
3777,-0.157,-0.282
3778,-0.143,-0.282
3779,-0.143,-0.282
3780,-0.143,-0.303
3781,-0.129,-0.303
3782,-0.129,-0.303
3783,-0.114,-0.303
3784,-0.129,-0.324
3785,-0.129,-0.324
3786,-0.129,-0.324
3787,-0.129,-0.324
3788,-0.143,-0.342
3789,-0.143,-0.342
3790,-0.143,-0.342
3791,-0.143,-0.342
3792,-0.143,-0.360
3793,-0.129,-0.360
3794,-0.129,-0.360
3795,-0.114,-0.360
3796,-0.114,-0.379
3797,-0.114,-0.379
3798,-0.129,-0.379
3799,-0.129,-0.379
3800,-0.129,-0.395
3801,-0.129,-0.395
3802,-0.129,-0.395
3803,-0.114,-0.395
3804,-0.129,-0.409
3805,-0.143,-0.409
3806,-0.129,-0.409
3807,-0.114,-0.409
3808,-0.114,-0.423
3809,-0.114,-0.423
3810,-0.114,-0.423
3811,-0.114,-0.423
3812,-0.114,-0.438
3813,-0.129,-0.438
3814,-0.114,-0.438
3815,-0.114,-0.438
3816,-0.114,-0.450
3817,-0.114,-0.450
3818,-0.114,-0.450
3819,-0.100,-0.450
3820,-0.100,-0.463
3821,-0.100,-0.463
3822,-0.100,-0.463
3823,-0.100,-0.463
3824,-0.100,-0.474
3825,-0.100,-0.474
3826,-0.100,-0.474
3827,-0.085,-0.474
3828,-0.085,-0.485
3829,-0.085,-0.485
3830,-0.085,-0.485
3831,-0.085,-0.485
3832,-0.071,-0.497
3833,-0.071,-0.497
3834,-0.056,-0.497
3835,-0.056,-0.497
3836,-0.056,-0.505
3837,-0.042,-0.505
3838,-0.056,-0.505
3839,-0.042,-0.505
3840,-0.056,-0.515
3841,-0.056,-0.515
3842,-0.042,-0.515
3843,-0.042,-0.515
3844,-0.028,-0.526
3845,-0.028,-0.526
3846,-0.028,-0.526
3847,-0.028,-0.526
3848,-0.028,-0.536
3849,-0.028,-0.536
3850,-0.028,-0.536
3851,-0.013,-0.536
3852,-0.013,-0.542
3853,-0.013,-0.542
3854,0.001,-0.542
3855,0.001,-0.542
3856,-0.013,-0.548
3857,-0.013,-0.548
3858,-0.013,-0.548
3859,0.001,-0.548
3860,0.001,-0.550
3861,0.015,-0.550
3862,0.030,-0.550
3863,0.030,-0.550
3864,0.030,-0.550
3865,0.030,-0.550
3866,0.044,-0.550
3867,0.030,-0.550
3868,0.044,-0.544
3869,0.030,-0.544
3870,0.030,-0.544
3871,0.030,-0.544
3872,0.030,-0.536
3873,0.030,-0.536
3874,0.030,-0.536
3875,0.030,-0.536
3876,0.030,-0.520
3877,0.030,-0.520
3878,0.058,-0.520
3879,0.058,-0.520
3880,0.058,-0.495
3881,0.058,-0.495
3882,0.058,-0.495
3883,0.058,-0.495
3884,0.058,-0.465
3885,0.058,-0.465
3886,0.058,-0.465
3887,0.073,-0.465
3888,0.073,-0.425
3889,0.073,-0.425
3890,0.073,-0.425
3891,0.073,-0.425
3892,0.073,-0.379
3893,0.087,-0.379
3894,0.102,-0.379
3895,0.102,-0.379
3896,0.102,-0.328
3897,0.116,-0.328
3898,0.102,-0.328
3899,0.116,-0.328
3900,0.116,-0.272
3901,0.116,-0.272
3902,0.102,-0.272
3903,0.102,-0.272
3904,0.102,-0.215
3905,0.087,-0.215
3906,0.087,-0.215
3907,0.087,-0.215
3908,0.087,-0.155
3909,0.073,-0.155
3910,0.073,-0.155
3911,0.073,-0.155
3912,0.073,-0.098
3913,0.058,-0.098
3914,0.058,-0.098
3915,0.058,-0.098
3916,0.044,-0.041
3917,0.030,-0.041
3918,0.015,-0.041
3919,0.015,-0.041
3920,0.001,0.015
3921,0.001,0.015
3922,0.001,0.015
3923,0.001,0.015
3924,0.001,0.068
3925,0.001,0.068
3926,0.001,0.068
3927,0.001,0.068
3928,0.001,0.117
3929,0.001,0.117
3930,0.001,0.117
3931,0.001,0.117
3932,-0.013,0.168
3933,-0.013,0.168
3934,-0.013,0.168
3935,-0.028,0.168
3936,-0.013,0.211
3937,-0.013,0.211
3938,-0.013,0.211
3939,-0.013,0.211
3940,-0.013,0.252
3941,-0.028,0.252
3942,-0.028,0.252
3943,-0.028,0.252
3944,-0.028,0.291
3945,-0.028,0.291
3946,-0.013,0.291
3947,-0.028,0.291
3948,-0.028,0.326
3949,-0.028,0.326
3950,-0.013,0.326
3951,-0.013,0.326
3952,-0.013,0.358
3953,-0.013,0.358
3954,0.001,0.358
3955,-0.013,0.358
3956,0.001,0.385
3957,0.001,0.385
3958,0.001,0.385
3959,0.001,0.385
3960,0.001,0.407
3961,0.001,0.407
3962,-0.013,0.407
3963,-0.013,0.407
3964,-0.013,0.428
3965,-0.013,0.428
3966,-0.013,0.428
3967,-0.013,0.428
3968,-0.013,0.443
3969,-0.013,0.443
3970,-0.013,0.443
3971,-0.013,0.443
3972,-0.013,0.455
3973,-0.013,0.455
3974,-0.013,0.455
3975,-0.028,0.455
3976,-0.013,0.461
3977,-0.028,0.461
3978,-0.028,0.461
3979,-0.028,0.461
3980,-0.028,0.467
3981,-0.028,0.467
3982,-0.028,0.467
3983,-0.028,0.467
3984,-0.042,0.469
3985,-0.028,0.469
3986,-0.042,0.469
3987,-0.042,0.469
3988,-0.042,0.467
3989,-0.042,0.467
3990,-0.028,0.467
3991,-0.028,0.467
3992,-0.028,0.461
3993,-0.028,0.461
3994,-0.028,0.461
3995,-0.028,0.461
3996,-0.028,0.453
3997,-0.028,0.453
3998,-0.028,0.453
3999,-0.028,0.453
4000,-0.028,0.438
4001,-0.028,0.438
4002,-0.028,0.438
4003,-0.028,0.438
4004,-0.028,0.421
4005,-0.028,0.421
4006,-0.028,0.421
4007,-0.028,0.421
4008,-0.028,0.404
4009,-0.028,0.404
4010,-0.028,0.404
4011,-0.013,0.404
4012,-0.013,0.379
4013,-0.013,0.379
4014,0.001,0.379
4015,0.001,0.379
4016,0.015,0.356
4017,0.015,0.356
4018,0.030,0.356
4019,0.030,0.356
4020,0.030,0.330
4021,0.030,0.330
4022,0.030,0.330
4023,0.015,0.330
4024,0.015,0.301
4025,0.015,0.301
4026,0.001,0.301
4027,0.001,0.301
4028,0.001,0.273
4029,0.001,0.273
4030,0.015,0.273
4031,0.015,0.273
4032,0.001,0.243
4033,0.001,0.243
4034,0.001,0.243
4035,0.001,0.243
4036,-0.013,0.215
4037,-0.013,0.215
4038,-0.028,0.215
4039,-0.042,0.215
4040,-0.056,0.184
4041,-0.071,0.184
4042,-0.085,0.184
4043,-0.085,0.184
4044,-0.100,0.155
4045,-0.100,0.155
4046,-0.114,0.155
4047,-0.114,0.155
4048,-0.114,0.127
4049,-0.114,0.127
4050,-0.114,0.127
4051,-0.129,0.127
4052,-0.114,0.101
4053,-0.129,0.101
4054,-0.114,0.101
4055,-0.129,0.101
4056,-0.129,0.071
4057,-0.129,0.071
4058,-0.114,0.071
4059,-0.114,0.071
4060,-0.114,0.045
4061,-0.114,0.045
4062,-0.114,0.045
4063,-0.114,0.045
4064,-0.114,0.021
4065,-0.114,0.021
4066,-0.114,0.021
4067,-0.114,0.021
4068,-0.129,-0.004
4069,-0.129,-0.004
4070,-0.129,-0.004
4071,-0.114,-0.004
4072,-0.114,-0.029
4073,-0.100,-0.029
4074,-0.085,-0.029
4075,-0.056,-0.029
4076,-0.013,-0.053
4077,0.015,-0.053
4078,0.044,-0.053
4079,0.073,-0.053
4080,0.131,-0.075
4081,0.203,-0.075
4082,0.274,-0.075
4083,0.361,-0.075
4084,0.447,-0.100
4085,0.533,-0.100
4086,0.606,-0.100
4087,0.663,-0.100
4088,0.692,-0.123
4089,0.706,-0.123
4090,0.692,-0.123
4091,0.619,-0.123
4092,0.519,-0.147
4093,0.404,-0.147
4094,0.303,-0.147
4095,0.188,-0.147
4096,0.073,-0.168
4097,-0.013,-0.168
4098,-0.085,-0.168
4099,-0.129,-0.168
4100,-0.157,-0.193
4101,-0.186,-0.193
4102,-0.186,-0.193
4103,-0.201,-0.193
4104,-0.201,-0.213
4105,-0.215,-0.213
4106,-0.201,-0.213
4107,-0.201,-0.213
4108,-0.186,-0.235
4109,-0.186,-0.235
4110,-0.157,-0.235
4111,-0.143,-0.235
4112,-0.143,-0.254
4113,-0.143,-0.254
4114,-0.143,-0.254
4115,-0.143,-0.254
4116,-0.143,-0.274
4117,-0.143,-0.274
4118,-0.129,-0.274
4119,-0.129,-0.274
4120,-0.114,-0.292
4121,-0.129,-0.292
4122,-0.114,-0.292
4123,-0.129,-0.292
4124,-0.129,-0.309
4125,-0.129,-0.309
4126,-0.129,-0.309
4127,-0.114,-0.309
4128,-0.114,-0.328
4129,-0.114,-0.328
4130,-0.114,-0.328
4131,-0.129,-0.328
4132,-0.129,-0.344
4133,-0.129,-0.344
4134,-0.129,-0.344
4135,-0.114,-0.344
4136,-0.114,-0.360
4137,-0.114,-0.360
4138,-0.129,-0.360
4139,-0.129,-0.360
4140,-0.114,-0.374
4141,-0.114,-0.374
4142,-0.114,-0.374
4143,-0.114,-0.374
4144,-0.114,-0.391
4145,-0.114,-0.391
4146,-0.114,-0.391
4147,-0.114,-0.391
4148,-0.114,-0.401
4149,-0.114,-0.401
4150,-0.114,-0.401
4151,-0.114,-0.401
4152,-0.114,-0.413
4153,-0.100,-0.413
4154,-0.100,-0.413
4155,-0.100,-0.413
4156,-0.100,-0.427
4157,-0.100,-0.427
4158,-0.100,-0.427
4159,-0.100,-0.427
4160,-0.100,-0.440
4161,-0.100,-0.440
4162,-0.100,-0.440
4163,-0.085,-0.440
4164,-0.085,-0.451
4165,-0.085,-0.451
4166,-0.085,-0.451
4167,-0.071,-0.451
4168,-0.071,-0.463
4169,-0.071,-0.463
4170,-0.071,-0.463
4171,-0.071,-0.463
4172,-0.056,-0.470
4173,-0.056,-0.470
4174,-0.056,-0.470
4175,-0.056,-0.470
4176,-0.042,-0.481
4177,-0.042,-0.481
4178,-0.028,-0.481
4179,-0.028,-0.481
4180,-0.028,-0.491
4181,-0.028,-0.491
4182,-0.013,-0.491
4183,-0.013,-0.491
4184,-0.013,-0.501
4185,0.001,-0.501
4186,0.001,-0.501
4187,0.001,-0.501
4188,0.001,-0.509
4189,0.001,-0.509
4190,0.001,-0.509
4191,0.001,-0.509
4192,0.001,-0.516
4193,0.001,-0.516
4194,0.015,-0.516
4195,0.015,-0.516
4196,0.015,-0.518
4197,0.015,-0.518
4198,0.015,-0.518
4199,0.015,-0.518
4200,0.030,-0.518
4201,0.015,-0.518
4202,0.030,-0.518
4203,0.044,-0.518
4204,0.030,-0.511
4205,0.044,-0.511
4206,0.044,-0.511
4207,0.044,-0.511
4208,0.058,-0.505
4209,0.058,-0.505
4210,0.058,-0.505
4211,0.058,-0.505
4212,0.058,-0.489
4213,0.058,-0.489
4214,0.044,-0.489
4215,0.058,-0.489
4216,0.058,-0.469
4217,0.073,-0.469
4218,0.073,-0.469
4219,0.073,-0.469
4220,0.073,-0.438
4221,0.073,-0.438
4222,0.073,-0.438
4223,0.073,-0.438
4224,0.073,-0.405
4225,0.073,-0.405
4226,0.073,-0.405
4227,0.087,-0.405
4228,0.087,-0.362
4229,0.102,-0.362
4230,0.102,-0.362
4231,0.102,-0.362
4232,0.102,-0.317
4233,0.102,-0.317
4234,0.116,-0.317
4235,0.116,-0.317
4236,0.116,-0.264
4237,0.116,-0.264
4238,0.116,-0.264
4239,0.116,-0.264
4240,0.116,-0.211
4241,0.116,-0.211
4242,0.116,-0.211
4243,0.116,-0.211
4244,0.116,-0.155
4245,0.116,-0.155
4246,0.102,-0.155
4247,0.102,-0.155
4248,0.102,-0.096
4249,0.087,-0.096
4250,0.073,-0.096
4251,0.073,-0.096
4252,0.058,-0.043
4253,0.058,-0.043
4254,0.058,-0.043
4255,0.044,-0.043
4256,0.030,0.013
4257,0.015,0.013
4258,0.015,0.013
4259,0.015,0.013
4260,0.001,0.064
4261,0.001,0.064
4262,0.001,0.064
4263,0.001,0.064
4264,0.001,0.115
4265,0.001,0.115
4266,0.001,0.115
4267,0.001,0.115
4268,0.001,0.158
4269,0.001,0.158
4270,-0.013,0.158
4271,-0.013,0.158
4272,-0.028,0.201
4273,-0.013,0.201
4274,-0.013,0.201
4275,-0.013,0.201
4276,-0.013,0.243
4277,-0.013,0.243
4278,-0.013,0.243
4279,-0.013,0.243
4280,-0.013,0.281
4281,-0.013,0.281
4282,-0.013,0.281
4283,-0.013,0.281
4284,0.001,0.316
4285,0.001,0.316
4286,-0.013,0.316
4287,-0.013,0.316
4288,-0.013,0.344
4289,-0.013,0.344
4290,-0.013,0.344
4291,-0.013,0.344
4292,-0.013,0.372
4293,0.001,0.372
4294,0.001,0.372
4295,0.001,0.372
4296,0.001,0.395
4297,0.001,0.395
4298,-0.013,0.395
4299,0.001,0.395
4300,-0.013,0.415
4301,-0.013,0.415
4302,-0.013,0.415
4303,-0.013,0.415
4304,-0.013,0.432
4305,-0.013,0.432
4306,-0.013,0.432
4307,-0.013,0.432
4308,-0.013,0.444
4309,-0.013,0.444
4310,-0.013,0.444
4311,-0.013,0.444
4312,-0.013,0.451
4313,-0.013,0.451
4314,-0.013,0.451
4315,-0.013,0.451
4316,-0.013,0.455
4317,-0.013,0.455
4318,-0.013,0.455
4319,-0.013,0.455
4320,-0.013,0.455
4321,-0.028,0.455
4322,-0.028,0.455
4323,-0.028,0.455
4324,-0.028,0.451
4325,-0.028,0.451
4326,-0.028,0.451
4327,-0.028,0.451
4328,-0.028,0.447
4329,-0.028,0.447
4330,-0.028,0.447
4331,-0.028,0.447
4332,-0.028,0.434
4333,-0.042,0.434
4334,-0.028,0.434
4335,-0.028,0.434
4336,-0.028,0.421
4337,-0.028,0.421
4338,-0.028,0.421
4339,-0.013,0.421
4340,-0.013,0.404
4341,-0.013,0.404
4342,-0.013,0.404
4343,-0.013,0.404
4344,-0.013,0.383
4345,-0.013,0.383
4346,-0.013,0.383
4347,-0.013,0.383
4348,-0.013,0.362
4349,-0.013,0.362
4350,0.001,0.362
4351,0.001,0.362
4352,0.015,0.340
4353,0.015,0.340
4354,0.030,0.340
4355,0.044,0.340
4356,0.058,0.316
4357,0.058,0.316
4358,0.058,0.316
4359,0.058,0.316
4360,0.058,0.288
4361,0.044,0.288
4362,0.030,0.288
4363,0.030,0.288
4364,0.015,0.264
4365,0.015,0.264
4366,0.015,0.264
4367,0.015,0.264
4368,0.001,0.237
4369,0.001,0.237
4370,0.001,0.237
4371,0.001,0.237
4372,-0.013,0.209
4373,-0.013,0.209
4374,-0.013,0.209
4375,-0.028,0.209
4376,-0.028,0.182
4377,-0.042,0.182
4378,-0.056,0.182
4379,-0.071,0.182
4380,-0.071,0.158
4381,-0.100,0.158
4382,-0.114,0.158
4383,-0.114,0.158
4384,-0.129,0.129
4385,-0.114,0.129
4386,-0.114,0.129
4387,-0.114,0.129
4388,-0.129,0.102
4389,-0.129,0.102
4390,-0.129,0.102
4391,-0.129,0.102
4392,-0.114,0.078
4393,-0.114,0.078
4394,-0.100,0.078
4395,-0.114,0.078
4396,-0.114,0.051
4397,-0.114,0.051
4398,-0.114,0.051
4399,-0.129,0.051
4400,-0.114,0.025
4401,-0.100,0.025
4402,-0.114,0.025
4403,-0.114,0.025
4404,-0.100,0.002
4405,-0.100,0.002
4406,-0.114,0.002
4407,-0.114,0.002
4408,-0.114,-0.022
4409,-0.100,-0.022
4410,-0.071,-0.022
4411,-0.071,-0.022
4412,-0.028,-0.049
4413,-0.013,-0.049
4414,0.015,-0.049
4415,0.058,-0.049
4416,0.102,-0.071
4417,0.159,-0.071
4418,0.231,-0.071
4419,0.303,-0.071
4420,0.390,-0.096
4421,0.476,-0.096
4422,0.562,-0.096
4423,0.619,-0.096
4424,0.663,-0.118
4425,0.706,-0.118
4426,0.706,-0.118
4427,0.663,-0.118
4428,0.577,-0.145
4429,0.461,-0.145
4430,0.346,-0.145
4431,0.245,-0.145
4432,0.145,-0.170
4433,0.044,-0.170
4434,-0.028,-0.170
4435,-0.100,-0.170
4436,-0.143,-0.195
4437,-0.157,-0.195
4438,-0.186,-0.195
4439,-0.201,-0.195
4440,-0.229,-0.219
4441,-0.215,-0.219
4442,-0.201,-0.219
4443,-0.201,-0.219
4444,-0.186,-0.243
4445,-0.186,-0.243
4446,-0.172,-0.243
4447,-0.157,-0.243
4448,-0.157,-0.264
4449,-0.143,-0.264
4450,-0.129,-0.264
4451,-0.114,-0.264
4452,-0.114,-0.282
4453,-0.114,-0.282
4454,-0.114,-0.282
4455,-0.129,-0.282
4456,-0.129,-0.299
4457,-0.129,-0.299
4458,-0.129,-0.299
4459,-0.114,-0.299
4460,-0.143,-0.313
4461,-0.143,-0.313
4462,-0.143,-0.313
4463,-0.129,-0.313
4464,-0.129,-0.326
4465,-0.114,-0.326
4466,-0.114,-0.326
4467,-0.114,-0.326
4468,-0.114,-0.336
4469,-0.114,-0.336
4470,-0.114,-0.336
4471,-0.114,-0.336
4472,-0.114,-0.344
4473,-0.114,-0.344
4474,-0.114,-0.344
4475,-0.129,-0.344
4476,-0.114,-0.354
4477,-0.114,-0.354
4478,-0.114,-0.354
4479,-0.114,-0.354
4480,-0.114,-0.366
4481,-0.114,-0.366
4482,-0.114,-0.366
4483,-0.114,-0.366
4484,-0.100,-0.377
4485,-0.100,-0.377
4486,-0.100,-0.377
4487,-0.100,-0.377
4488,-0.100,-0.389
4489,-0.100,-0.389
4490,-0.100,-0.389
4491,-0.100,-0.389
4492,-0.100,-0.401
4493,-0.085,-0.401
4494,-0.071,-0.401
4495,-0.071,-0.401
4496,-0.071,-0.407
4497,-0.071,-0.407
4498,-0.071,-0.407
4499,-0.071,-0.407
4500,-0.071,-0.419
4501,-0.071,-0.419
4502,-0.071,-0.419
4503,-0.056,-0.419
4504,-0.056,-0.432
4505,-0.056,-0.432
4506,-0.056,-0.432
4507,-0.071,-0.432
4508,-0.056,-0.442
4509,-0.056,-0.442
4510,-0.042,-0.442
4511,-0.042,-0.442
4512,-0.042,-0.453
4513,-0.042,-0.453
4514,-0.042,-0.453
4515,-0.028,-0.453
4516,-0.042,-0.463
4517,-0.042,-0.463
4518,-0.028,-0.463
4519,-0.013,-0.463
4520,-0.013,-0.469
4521,-0.013,-0.469
4522,-0.013,-0.469
4523,-0.013,-0.469
4524,-0.013,-0.477
4525,-0.013,-0.477
4526,0.001,-0.477
4527,0.001,-0.477
4528,0.001,-0.481
4529,0.001,-0.481
4530,0.015,-0.481
4531,0.015,-0.481
4532,0.001,-0.483
4533,0.001,-0.483
4534,0.015,-0.483
4535,0.015,-0.483
4536,0.015,-0.483
4537,0.015,-0.483
4538,0.030,-0.483
4539,0.030,-0.483
4540,0.044,-0.481
4541,0.030,-0.481
4542,0.044,-0.481
4543,0.044,-0.481
4544,0.058,-0.471
4545,0.058,-0.471
4546,0.058,-0.471
4547,0.058,-0.471
4548,0.058,-0.459
4549,0.058,-0.459
4550,0.058,-0.459
4551,0.058,-0.459
4552,0.058,-0.440
4553,0.058,-0.440
4554,0.058,-0.440
4555,0.058,-0.440
4556,0.058,-0.413
4557,0.073,-0.413
4558,0.073,-0.413
4559,0.087,-0.413
4560,0.102,-0.383
4561,0.102,-0.383
4562,0.102,-0.383
4563,0.102,-0.383
4564,0.102,-0.342
4565,0.102,-0.342
4566,0.087,-0.342
4567,0.073,-0.342
4568,0.102,-0.297
4569,0.102,-0.297
4570,0.116,-0.297
4571,0.102,-0.297
4572,0.116,-0.250
4573,0.116,-0.250
4574,0.116,-0.250
4575,0.116,-0.250
4576,0.116,-0.197
4577,0.116,-0.197
4578,0.102,-0.197
4579,0.116,-0.197
4580,0.102,-0.145
4581,0.102,-0.145
4582,0.102,-0.145
4583,0.102,-0.145
4584,0.087,-0.090
4585,0.087,-0.090
4586,0.073,-0.090
4587,0.073,-0.090
4588,0.058,-0.037
4589,0.058,-0.037
4590,0.044,-0.037
4591,0.030,-0.037
4592,0.030,0.014
4593,0.015,0.014
4594,0.015,0.014
4595,0.015,0.014
4596,0.015,0.066
4597,0.001,0.066
4598,0.001,0.066
4599,0.001,0.066
4600,0.001,0.113
4601,0.001,0.113
4602,0.001,0.113
4603,0.001,0.113
4604,0.001,0.160
4605,-0.013,0.160
4606,-0.013,0.160
4607,-0.013,0.160
4608,-0.013,0.203
4609,-0.013,0.203
4610,-0.013,0.203
4611,-0.013,0.203
4612,-0.028,0.243
4613,-0.028,0.243
4614,-0.028,0.243
4615,-0.028,0.243
4616,-0.028,0.279
4617,-0.013,0.279
4618,-0.013,0.279
4619,-0.013,0.279
4620,-0.013,0.313
4621,-0.013,0.313
4622,0.001,0.313
4623,0.001,0.313
4624,-0.013,0.344
4625,-0.013,0.344
4626,-0.013,0.344
4627,-0.013,0.344
4628,0.001,0.366
4629,0.001,0.366
4630,-0.013,0.366
4631,0.001,0.366
4632,-0.013,0.391
4633,-0.013,0.391
4634,0.001,0.391
4635,0.001,0.391
4636,0.001,0.409
4637,0.001,0.409
4638,0.001,0.409
4639,0.001,0.409
4640,-0.013,0.423
4641,-0.013,0.423
4642,-0.013,0.423
4643,-0.013,0.423
4644,-0.013,0.438
4645,-0.013,0.438
4646,-0.013,0.438
4647,-0.013,0.438
4648,-0.028,0.444
4649,-0.028,0.444
4650,-0.028,0.444
4651,-0.028,0.444
4652,-0.028,0.450
4653,-0.028,0.450
4654,-0.028,0.450
4655,-0.028,0.450
4656,-0.028,0.453
4657,-0.028,0.453
4658,-0.028,0.453
4659,-0.028,0.453
4660,-0.028,0.450
4661,-0.028,0.450
4662,-0.028,0.450
4663,-0.028,0.450
4664,-0.028,0.448
4665,-0.042,0.448
4666,-0.042,0.448
4667,-0.042,0.448
4668,-0.042,0.442
4669,-0.056,0.442
4670,-0.056,0.442
4671,-0.042,0.442
4672,-0.042,0.430
4673,-0.028,0.430
4674,-0.042,0.430
4675,-0.028,0.430
4676,-0.013,0.415
4677,-0.013,0.415
4678,-0.013,0.415
4679,-0.013,0.415
4680,-0.028,0.399
4681,-0.013,0.399
4682,-0.013,0.399
4683,-0.013,0.399
4684,-0.013,0.379
4685,-0.013,0.379
4686,0.001,0.379
4687,0.001,0.379
4688,0.001,0.358
4689,0.015,0.358
4690,0.015,0.358
4691,0.030,0.358
4692,0.030,0.338
4693,0.030,0.338
4694,0.044,0.338
4695,0.030,0.338
4696,0.030,0.315
4697,0.030,0.315
4698,0.015,0.315
4699,0.015,0.315
4700,0.015,0.290
4701,0.015,0.290
4702,0.015,0.290
4703,0.001,0.290
4704,0.001,0.266
4705,0.001,0.266
4706,-0.013,0.266
4707,-0.013,0.266
4708,-0.028,0.243
4709,-0.028,0.243
4710,-0.028,0.243
4711,-0.042,0.243
4712,-0.056,0.217
4713,-0.056,0.217
4714,-0.071,0.217
4715,-0.071,0.217
4716,-0.085,0.193
4717,-0.100,0.193
4718,-0.100,0.193
4719,-0.114,0.193
4720,-0.114,0.166
4721,-0.129,0.166
4722,-0.129,0.166
4723,-0.143,0.166
4724,-0.129,0.143
4725,-0.143,0.143
4726,-0.129,0.143
4727,-0.129,0.143
4728,-0.129,0.118
4729,-0.114,0.118
4730,-0.114,0.118
4731,-0.114,0.118
4732,-0.129,0.096
4733,-0.114,0.096
4734,-0.114,0.096
4735,-0.114,0.096
4736,-0.114,0.070
4737,-0.114,0.070
4738,-0.114,0.070
4739,-0.114,0.070
4740,-0.114,0.047
4741,-0.114,0.047
4742,-0.143,0.047
4743,-0.143,0.047
4744,-0.143,0.026
4745,-0.129,0.026
4746,-0.114,0.026
4747,-0.100,0.026
4748,-0.071,0.004
4749,-0.028,0.004
4750,0.001,0.004
4751,0.030,0.004
4752,0.073,-0.006
4753,0.131,-0.006
4754,0.203,-0.006
4755,0.274,-0.006
4756,0.346,-0.029
4757,0.432,-0.029
4758,0.519,-0.029
4759,0.591,-0.029
4760,0.648,-0.048
4761,0.692,-0.048
4762,0.706,-0.048
4763,0.677,-0.048
4764,0.606,-0.070
4765,0.505,-0.070
4766,0.390,-0.070
4767,0.289,-0.070
4768,0.188,-0.091
4769,0.073,-0.091
4770,0.001,-0.091
4771,-0.071,-0.091
4772,-0.129,-0.112
4773,-0.157,-0.112
4774,-0.186,-0.112
4775,-0.201,-0.112
4776,-0.215,-0.130
4777,-0.229,-0.130
4778,-0.229,-0.130
4779,-0.215,-0.130
4780,-0.201,-0.146
4781,-0.201,-0.146
4782,-0.186,-0.146
4783,-0.172,-0.146
4784,-0.157,-0.165
4785,-0.143,-0.165
4786,-0.143,-0.165
4787,-0.143,-0.165
4788,-0.143,-0.179
4789,-0.143,-0.179
4790,-0.143,-0.179
4791,-0.143,-0.179
4792,-0.143,-0.198
4793,-0.143,-0.198
4794,-0.129,-0.198
4795,-0.129,-0.198
4796,-0.114,-0.212
4797,-0.114,-0.212
4798,-0.114,-0.212
4799,-0.129,-0.212
4800,-0.129,-0.227
4801,-0.143,-0.227
4802,-0.143,-0.227
4803,-0.143,-0.227
4804,-0.143,-0.243
4805,-0.143,-0.243
4806,-0.143,-0.243
4807,-0.129,-0.243
4808,-0.129,-0.258
4809,-0.129,-0.258
4810,-0.114,-0.258
4811,-0.129,-0.258
4812,-0.129,-0.271
4813,-0.114,-0.271
4814,-0.129,-0.271
4815,-0.129,-0.271
4816,-0.129,-0.283
4817,-0.114,-0.283
4818,-0.114,-0.283
4819,-0.114,-0.283
4820,-0.114,-0.297
4821,-0.114,-0.297
4822,-0.114,-0.297
4823,-0.114,-0.297
4824,-0.100,-0.309
4825,-0.114,-0.309
4826,-0.100,-0.309
4827,-0.100,-0.309
4828,-0.100,-0.322
4829,-0.100,-0.322
4830,-0.100,-0.322
4831,-0.100,-0.322
4832,-0.100,-0.335
4833,-0.085,-0.335
4834,-0.100,-0.335
4835,-0.100,-0.335
4836,-0.100,-0.344
4837,-0.100,-0.344
4838,-0.085,-0.344
4839,-0.071,-0.344
4840,-0.071,-0.357
4841,-0.071,-0.357
4842,-0.056,-0.357
4843,-0.056,-0.357
4844,-0.056,-0.367
4845,-0.056,-0.367
4846,-0.056,-0.367
4847,-0.056,-0.367
4848,-0.056,-0.380
4849,-0.042,-0.380
4850,-0.056,-0.380
4851,-0.056,-0.380
4852,-0.028,-0.388
4853,-0.028,-0.388
4854,-0.028,-0.388
4855,-0.028,-0.388
4856,-0.013,-0.394
4857,-0.013,-0.394
4858,-0.013,-0.394
4859,-0.013,-0.394
4860,-0.013,-0.405
4861,0.001,-0.405
4862,0.001,-0.405
4863,0.001,-0.405
4864,0.001,-0.410
4865,0.001,-0.410
4866,0.001,-0.410
4867,0.015,-0.410
4868,0.001,-0.415
4869,0.001,-0.415
4870,0.015,-0.415
4871,0.015,-0.415
4872,0.015,-0.419
4873,0.015,-0.419
4874,0.015,-0.419
4875,0.015,-0.419
4876,0.030,-0.415
4877,0.030,-0.415
4878,0.030,-0.415
4879,0.030,-0.415
4880,0.030,-0.412
4881,0.030,-0.412
4882,0.044,-0.412
4883,0.044,-0.412
4884,0.058,-0.401
4885,0.058,-0.401
4886,0.058,-0.401
4887,0.058,-0.401
4888,0.058,-0.384
4889,0.058,-0.384
4890,0.044,-0.384
4891,0.058,-0.384
4892,0.058,-0.363
4893,0.058,-0.363
4894,0.058,-0.363
4895,0.058,-0.363
4896,0.073,-0.335
4897,0.073,-0.335
4898,0.087,-0.335
4899,0.087,-0.335
4900,0.102,-0.299
4901,0.102,-0.299
4902,0.102,-0.299
4903,0.102,-0.299
4904,0.102,-0.260
4905,0.116,-0.260
4906,0.116,-0.260
4907,0.116,-0.260
4908,0.102,-0.217
4909,0.102,-0.217
4910,0.102,-0.217
4911,0.102,-0.217
4912,0.102,-0.168
4913,0.102,-0.168
4914,0.102,-0.168
4915,0.102,-0.168
4916,0.102,-0.120
4917,0.102,-0.120
4918,0.102,-0.120
4919,0.102,-0.120
4920,0.087,-0.070
4921,0.073,-0.070
4922,0.073,-0.070
4923,0.058,-0.070
4924,0.058,-0.021
4925,0.058,-0.021
4926,0.058,-0.021
4927,0.044,-0.021
4928,0.044,0.029
4929,0.030,0.029
4930,0.030,0.029
4931,0.015,0.029
4932,0.001,0.074
4933,0.001,0.074
4934,0.001,0.074
4935,0.001,0.074
4936,0.001,0.121
4937,0.001,0.121
4938,0.001,0.121
4939,0.001,0.121
4940,0.001,0.163
4941,0.001,0.163
4942,0.001,0.163
4943,-0.013,0.163
4944,-0.013,0.204
4945,-0.013,0.204
4946,-0.028,0.204
4947,-0.013,0.204
4948,-0.028,0.239
4949,-0.013,0.239
4950,-0.013,0.239
4951,-0.013,0.239
4952,-0.013,0.278
4953,-0.013,0.278
4954,-0.013,0.278
4955,-0.013,0.278
4956,0.001,0.307
4957,-0.013,0.307
4958,0.001,0.307
4959,0.001,0.307
4960,-0.013,0.334
4961,0.001,0.334
4962,-0.013,0.334
4963,-0.013,0.334
4964,-0.013,0.360
4965,-0.013,0.360
4966,-0.013,0.360
4967,-0.013,0.360
4968,0.001,0.382
4969,-0.013,0.382
4970,0.001,0.382
4971,0.001,0.382
4972,0.001,0.400
4973,0.001,0.400
4974,-0.013,0.400
4975,-0.013,0.400
4976,-0.013,0.414
4977,-0.013,0.414
4978,-0.013,0.414
4979,-0.013,0.414
4980,-0.013,0.426
4981,-0.013,0.426
4982,-0.013,0.426
4983,-0.013,0.426
4984,-0.013,0.433
4985,-0.013,0.433
4986,-0.013,0.433
4987,-0.013,0.433
4988,-0.013,0.437
4989,-0.028,0.437
4990,-0.028,0.437
4991,-0.028,0.437
4992,-0.028,0.441
4993,-0.028,0.441
4994,-0.028,0.441
4995,-0.028,0.441
4996,-0.028,0.443
4997,-0.042,0.443
4998,-0.028,0.443
4999,-0.028,0.443
5000,-0.028,0.439
5001,-0.042,0.439
5002,-0.028,0.439
5003,-0.042,0.439
5004,-0.028,0.429
5005,-0.028,0.429
5006,-0.028,0.429
5007,-0.042,0.429
5008,-0.028,0.418
5009,-0.028,0.418
5010,-0.028,0.418
5011,-0.013,0.418
5012,-0.013,0.404
5013,-0.013,0.404
5014,-0.013,0.404
5015,-0.013,0.404
5016,-0.028,0.388
5017,-0.028,0.388
5018,-0.028,0.388
5019,-0.013,0.388
5020,-0.028,0.367
5021,-0.028,0.367
5022,-0.028,0.367
5023,-0.013,0.367
5024,0.001,0.346
5025,0.001,0.346
5026,0.030,0.346
5027,0.030,0.346
5028,0.058,0.324
5029,0.058,0.324
5030,0.058,0.324
5031,0.044,0.324
5032,0.044,0.297
5033,0.030,0.297
5034,0.030,0.297
5035,0.030,0.297
5036,0.030,0.272
5037,0.015,0.272
5038,0.015,0.272
5039,0.015,0.272
5040,0.015,0.247
5041,0.015,0.247
5042,0.015,0.247
5043,0.001,0.247
5044,0.001,0.221
5045,0.001,0.221
5046,-0.013,0.221
5047,-0.013,0.221
5048,-0.028,0.194
5049,-0.028,0.194
5050,-0.056,0.194
5051,-0.071,0.194
5052,-0.071,0.167
5053,-0.100,0.167
5054,-0.100,0.167
5055,-0.114,0.167
5056,-0.129,0.142
5057,-0.129,0.142
5058,-0.129,0.142
5059,-0.114,0.142
5060,-0.114,0.119
5061,-0.114,0.119
5062,-0.114,0.119
5063,-0.114,0.119
5064,-0.114,0.092
5065,-0.114,0.092
5066,-0.114,0.092
5067,-0.129,0.092
5068,-0.114,0.070
5069,-0.114,0.070
5070,-0.114,0.070
5071,-0.114,0.070
5072,-0.100,0.048
5073,-0.100,0.048
5074,-0.100,0.048
5075,-0.100,0.048
5076,-0.100,0.022
5077,-0.100,0.022
5078,-0.100,0.022
5079,-0.114,0.022
5080,-0.114,0.000
5081,-0.114,0.000
5082,-0.114,0.000
5083,-0.100,0.000
5084,-0.071,-0.023
5085,-0.028,-0.023
5086,0.001,-0.023
5087,0.030,-0.023
5088,0.073,-0.043
5089,0.116,-0.043
5090,0.174,-0.043
5091,0.260,-0.043
5092,0.346,-0.068
5093,0.418,-0.068
5094,0.505,-0.068
5095,0.577,-0.068
5096,0.648,-0.087
5097,0.677,-0.087
5098,0.706,-0.087
5099,0.692,-0.087
5100,0.648,-0.110
5101,0.562,-0.110
5102,0.461,-0.110
5103,0.346,-0.110
5104,0.231,-0.128
5105,0.116,-0.128
5106,0.015,-0.128
5107,-0.042,-0.128
5108,-0.100,-0.148
5109,-0.143,-0.148
5110,-0.157,-0.148
5111,-0.186,-0.148
5112,-0.186,-0.167
5113,-0.201,-0.167
5114,-0.201,-0.167
5115,-0.201,-0.167
5116,-0.201,-0.186
5117,-0.186,-0.186
5118,-0.186,-0.186
5119,-0.157,-0.186
5120,-0.157,-0.203
5121,-0.143,-0.203
5122,-0.143,-0.203
5123,-0.129,-0.203
5124,-0.129,-0.223
5125,-0.114,-0.223
5126,-0.114,-0.223
5127,-0.114,-0.223
5128,-0.114,-0.241
5129,-0.114,-0.241
5130,-0.114,-0.241
5131,-0.114,-0.241
5132,-0.114,-0.260
5133,-0.114,-0.260
5134,-0.114,-0.260
5135,-0.129,-0.260
5136,-0.129,-0.277
5137,-0.129,-0.277
5138,-0.143,-0.277
5139,-0.143,-0.277
5140,-0.143,-0.293
5141,-0.129,-0.293
5142,-0.114,-0.293
5143,-0.114,-0.293
5144,-0.114,-0.309
5145,-0.114,-0.309
5146,-0.114,-0.309
5147,-0.114,-0.309
5148,-0.114,-0.322
5149,-0.114,-0.322
5150,-0.114,-0.322
5151,-0.114,-0.322
5152,-0.114,-0.339
5153,-0.114,-0.339
5154,-0.114,-0.339
5155,-0.114,-0.339
5156,-0.114,-0.351
5157,-0.114,-0.351
5158,-0.100,-0.351
5159,-0.100,-0.351
5160,-0.100,-0.363
5161,-0.100,-0.363
5162,-0.100,-0.363
5163,-0.100,-0.363
5164,-0.100,-0.378
5165,-0.100,-0.378
5166,-0.100,-0.378
5167,-0.100,-0.378
5168,-0.085,-0.388
5169,-0.071,-0.388
5170,-0.071,-0.388
5171,-0.071,-0.388
5172,-0.071,-0.396
5173,-0.085,-0.396
5174,-0.071,-0.396
5175,-0.056,-0.396
5176,-0.056,-0.408
5177,-0.056,-0.408
5178,-0.056,-0.408
5179,-0.056,-0.408
5180,-0.056,-0.417
5181,-0.056,-0.417
5182,-0.056,-0.417
5183,-0.056,-0.417
5184,-0.042,-0.423
5185,-0.042,-0.423
5186,-0.042,-0.423
5187,-0.028,-0.423
5188,-0.028,-0.431
5189,-0.028,-0.431
5190,-0.028,-0.431
5191,-0.028,-0.431
5192,-0.013,-0.442
5193,-0.013,-0.442
5194,-0.013,-0.442
5195,-0.013,-0.442
5196,0.001,-0.446
5197,0.001,-0.446
5198,0.001,-0.446
5199,0.001,-0.446
5200,0.001,-0.452
5201,0.001,-0.452
5202,0.001,-0.452
5203,0.001,-0.452
5204,0.001,-0.458
5205,0.015,-0.458
5206,0.015,-0.458
5207,0.015,-0.458
5208,0.015,-0.462
5209,0.015,-0.462
5210,0.030,-0.462
5211,0.030,-0.462
5212,0.030,-0.460
5213,0.030,-0.460
5214,0.044,-0.460
5215,0.044,-0.460
5216,0.044,-0.458
5217,0.044,-0.458
5218,0.044,-0.458
5219,0.058,-0.458
5220,0.058,-0.446
5221,0.058,-0.446
5222,0.058,-0.446
5223,0.073,-0.446
5224,0.073,-0.433
5225,0.058,-0.433
5226,0.073,-0.433
5227,0.073,-0.433
5228,0.073,-0.410
5229,0.073,-0.410
5230,0.073,-0.410
5231,0.058,-0.410
5232,0.073,-0.386
5233,0.073,-0.386
5234,0.087,-0.386
5235,0.102,-0.386
5236,0.102,-0.353
5237,0.102,-0.353
5238,0.102,-0.353
5239,0.102,-0.353
5240,0.102,-0.314
5241,0.102,-0.314
5242,0.102,-0.314
5243,0.116,-0.314
5244,0.116,-0.273
5245,0.116,-0.273
5246,0.116,-0.273
5247,0.116,-0.273
5248,0.102,-0.227
5249,0.102,-0.227
5250,0.116,-0.227
5251,0.102,-0.227
5252,0.102,-0.179
5253,0.102,-0.179
5254,0.102,-0.179
5255,0.102,-0.179
5256,0.087,-0.132
5257,0.073,-0.132
5258,0.073,-0.132
5259,0.073,-0.132
5260,0.073,-0.083
5261,0.058,-0.083
5262,0.058,-0.083
5263,0.030,-0.083
5264,0.030,-0.040
5265,0.030,-0.040
5266,0.015,-0.040
5267,0.030,-0.040
5268,0.015,0.009
5269,0.015,0.009
5270,0.001,0.009
5271,0.001,0.009
5272,0.001,0.052
5273,0.001,0.052
5274,0.001,0.052
5275,0.001,0.052
5276,0.001,0.099
5277,0.001,0.099
5278,0.001,0.099
5279,0.001,0.099
5280,0.001,0.140
5281,-0.013,0.140
5282,-0.013,0.140
5283,-0.013,0.140
5284,-0.013,0.177
5285,-0.013,0.177
5286,-0.013,0.177
5287,-0.013,0.177
5288,-0.013,0.212
5289,-0.013,0.212
5290,-0.013,0.212
5291,-0.013,0.212
5292,-0.013,0.247
5293,-0.013,0.247
5294,-0.013,0.247
5295,-0.013,0.247
5296,-0.013,0.274
5297,-0.013,0.274
5298,0.001,0.274
5299,0.001,0.274
5300,0.001,0.299
5301,0.001,0.299
5302,0.001,0.299
5303,0.001,0.299
5304,-0.013,0.326
5305,-0.013,0.326
5306,-0.013,0.326
5307,-0.013,0.326
5308,-0.013,0.345
5309,-0.013,0.345
5310,-0.013,0.345
5311,-0.013,0.345
5312,-0.013,0.363
5313,-0.013,0.363
5314,-0.013,0.363
5315,-0.013,0.363
5316,-0.013,0.376
5317,0.001,0.376
5318,0.001,0.376
5319,0.001,0.376
5320,-0.013,0.385
5321,-0.013,0.385
5322,-0.013,0.385
5323,-0.013,0.385
5324,-0.013,0.390
5325,-0.013,0.390
5326,-0.013,0.390
5327,-0.013,0.390
5328,-0.013,0.394
5329,-0.028,0.394
5330,-0.028,0.394
5331,-0.028,0.394
5332,-0.042,0.390
5333,-0.028,0.390
5334,-0.028,0.390
5335,-0.028,0.390
5336,-0.028,0.385
5337,-0.028,0.385
5338,-0.028,0.385
5339,-0.028,0.385
5340,-0.028,0.379
5341,-0.028,0.379
5342,-0.028,0.379
5343,-0.028,0.379
5344,-0.042,0.367
5345,-0.042,0.367
5346,-0.042,0.367
5347,-0.028,0.367
5348,-0.028,0.356
5349,-0.013,0.356
5350,-0.013,0.356
5351,-0.013,0.356
5352,-0.013,0.341
5353,-0.013,0.341
5354,-0.013,0.341
5355,-0.013,0.341
5356,-0.013,0.324
5357,-0.013,0.324
5358,-0.013,0.324
5359,0.001,0.324
5360,0.015,0.304
5361,0.030,0.304
5362,0.030,0.304
5363,0.044,0.304
5364,0.044,0.286
5365,0.044,0.286
5366,0.044,0.286
5367,0.044,0.286
5368,0.044,0.263
5369,0.044,0.263
5370,0.030,0.263
5371,0.030,0.263
5372,0.030,0.243
5373,0.015,0.243
5374,0.015,0.243
5375,0.015,0.243
5376,0.015,0.223
5377,0.001,0.223
5378,0.001,0.223
5379,0.001,0.223
5380,0.001,0.201
5381,0.001,0.201
5382,0.001,0.201
5383,-0.013,0.201
5384,-0.028,0.177
5385,-0.028,0.177
5386,-0.042,0.177
5387,-0.071,0.177
5388,-0.071,0.158
5389,-0.100,0.158
5390,-0.114,0.158
5391,-0.114,0.158
5392,-0.129,0.134
5393,-0.129,0.134
5394,-0.129,0.134
5395,-0.129,0.134
5396,-0.129,0.110
5397,-0.129,0.110
5398,-0.114,0.110
5399,-0.114,0.110
5400,-0.114,0.089
5401,-0.114,0.089
5402,-0.114,0.089
5403,-0.114,0.089
5404,-0.100,0.066
5405,-0.100,0.066
5406,-0.114,0.066
5407,-0.114,0.066
5408,-0.114,0.043
5409,-0.114,0.043
5410,-0.114,0.043
5411,-0.100,0.043
5412,-0.100,0.022
5413,-0.114,0.022
5414,-0.100,0.022
5415,-0.114,0.022
5416,-0.114,-0.002
5417,-0.114,-0.002
5418,-0.100,-0.002
5419,-0.085,-0.002
5420,-0.071,-0.024
5421,-0.042,-0.024
5422,-0.013,-0.024
5423,0.015,-0.024
5424,0.058,-0.046
5425,0.102,-0.046
5426,0.159,-0.046
5427,0.231,-0.046
5428,0.332,-0.066
5429,0.404,-0.066
5430,0.476,-0.066
5431,0.562,-0.066
5432,0.634,-0.087
5433,0.677,-0.087
5434,0.706,-0.087
5435,0.706,-0.087
5436,0.663,-0.105
5437,0.577,-0.105
5438,0.461,-0.105
5439,0.346,-0.105
5440,0.245,-0.127
5441,0.145,-0.127
5442,0.058,-0.127
5443,-0.028,-0.127
5444,-0.100,-0.146
5445,-0.129,-0.146
5446,-0.157,-0.146
5447,-0.172,-0.146
5448,-0.186,-0.164
5449,-0.201,-0.164
5450,-0.201,-0.164
5451,-0.201,-0.164
5452,-0.186,-0.184
5453,-0.186,-0.184
5454,-0.172,-0.184
5455,-0.157,-0.184
5456,-0.157,-0.202
5457,-0.143,-0.202
5458,-0.143,-0.202
5459,-0.129,-0.202
5460,-0.114,-0.219
5461,-0.114,-0.219
5462,-0.114,-0.219
5463,-0.114,-0.219
5464,-0.114,-0.234
5465,-0.114,-0.234
5466,-0.114,-0.234
5467,-0.114,-0.234
5468,-0.114,-0.252
5469,-0.114,-0.252
5470,-0.114,-0.252
5471,-0.114,-0.252
5472,-0.114,-0.265
5473,-0.114,-0.265
5474,-0.114,-0.265
5475,-0.114,-0.265
5476,-0.114,-0.280
5477,-0.114,-0.280
5478,-0.114,-0.280
5479,-0.114,-0.280
5480,-0.114,-0.293
5481,-0.114,-0.293
5482,-0.114,-0.293
5483,-0.114,-0.293
5484,-0.114,-0.304
5485,-0.114,-0.304
5486,-0.114,-0.304
5487,-0.114,-0.304
5488,-0.100,-0.317
5489,-0.100,-0.317
5490,-0.100,-0.317
5491,-0.100,-0.317
5492,-0.100,-0.331
5493,-0.100,-0.331
5494,-0.100,-0.331
5495,-0.100,-0.331
5496,-0.100,-0.344
5497,-0.100,-0.344
5498,-0.100,-0.344
5499,-0.100,-0.344
5500,-0.085,-0.354
5501,-0.085,-0.354
5502,-0.085,-0.354
5503,-0.071,-0.354
5504,-0.071,-0.367
5505,-0.071,-0.367
5506,-0.071,-0.367
5507,-0.071,-0.367
5508,-0.071,-0.379
5509,-0.071,-0.379
5510,-0.071,-0.379
5511,-0.056,-0.379
5512,-0.056,-0.390
5513,-0.056,-0.390
5514,-0.056,-0.390
5515,-0.056,-0.390
5516,-0.056,-0.398
5517,-0.056,-0.398
5518,-0.056,-0.398
5519,-0.042,-0.398
5520,-0.042,-0.426
5521,-0.042,-0.426
5522,-0.042,-0.426
5523,-0.042,-0.426
5524,-0.028,-0.435
5525,-0.028,-0.435
5526,-0.028,-0.435
5527,-0.013,-0.435
5528,-0.013,-0.444
5529,-0.013,-0.444
5530,-0.013,-0.444
5531,0.001,-0.444
5532,0.001,-0.449
5533,0.001,-0.449
5534,0.001,-0.449
5535,0.001,-0.449
5536,0.001,-0.458
5537,0.001,-0.458
5538,0.001,-0.458
5539,0.001,-0.458
5540,0.001,-0.460
5541,0.001,-0.460
5542,0.001,-0.460
5543,0.015,-0.460
5544,0.030,-0.463
5545,0.030,-0.463
5546,0.044,-0.463
5547,0.030,-0.463
5548,0.044,-0.465
5549,0.044,-0.465
5550,0.044,-0.465
5551,0.044,-0.465
5552,0.044,-0.460
5553,0.044,-0.460
5554,0.044,-0.460
5555,0.058,-0.460
5556,0.058,-0.449
5557,0.058,-0.449
5558,0.058,-0.449
5559,0.058,-0.449
5560,0.058,-0.433
5561,0.058,-0.433
5562,0.073,-0.433
5563,0.073,-0.433
5564,0.073,-0.410
5565,0.073,-0.410
5566,0.073,-0.410
5567,0.073,-0.410
5568,0.087,-0.385
5569,0.087,-0.385
5570,0.102,-0.385
5571,0.102,-0.385
5572,0.102,-0.346
5573,0.102,-0.346
5574,0.102,-0.346
5575,0.102,-0.346
5576,0.102,-0.312
5577,0.116,-0.312
5578,0.102,-0.312
5579,0.116,-0.312
5580,0.116,-0.270
5581,0.116,-0.270
5582,0.116,-0.270
5583,0.116,-0.270
5584,0.116,-0.225
5585,0.116,-0.225
5586,0.116,-0.225
5587,0.116,-0.225
5588,0.116,-0.174
5589,0.102,-0.174
5590,0.102,-0.174
5591,0.087,-0.174
5592,0.087,-0.127
5593,0.087,-0.127
5594,0.073,-0.127
5595,0.073,-0.127
5596,0.073,-0.080
5597,0.058,-0.080
5598,0.058,-0.080
5599,0.058,-0.080
5600,0.044,-0.032
5601,0.030,-0.032
5602,0.030,-0.032
5603,0.030,-0.032
5604,0.015,0.016
5605,0.015,0.016
5606,0.015,0.016
5607,0.001,0.016
5608,0.001,0.064
5609,0.001,0.064
5610,0.001,0.064
5611,0.001,0.064
5612,0.001,0.106
5613,0.001,0.106
5614,0.001,0.106
5615,-0.013,0.106
5616,0.001,0.147
5617,0.001,0.147
5618,0.001,0.147
5619,0.001,0.147
5620,0.001,0.185
5621,0.001,0.185
5622,-0.013,0.185
5623,-0.013,0.185
5624,-0.013,0.222
5625,-0.013,0.222
5626,0.001,0.222
5627,0.001,0.222
5628,0.001,0.252
5629,-0.013,0.252
5630,-0.013,0.252
5631,-0.013,0.252
5632,0.001,0.281
5633,0.001,0.281
5634,0.001,0.281
5635,0.001,0.281
5636,0.001,0.306
5637,0.001,0.306
5638,0.001,0.306
5639,0.001,0.306
5640,0.001,0.326
5641,0.001,0.326
5642,0.001,0.326
5643,0.001,0.326
5644,0.001,0.344
5645,0.001,0.344
5646,0.001,0.344
5647,0.001,0.344
5648,0.001,0.362
5649,0.001,0.362
5650,0.001,0.362
5651,0.001,0.362
5652,0.001,0.373
5653,0.001,0.373
5654,-0.013,0.373
5655,-0.013,0.373
5656,-0.013,0.385
5657,-0.013,0.385
5658,-0.013,0.385
5659,-0.013,0.385
5660,-0.013,0.392
5661,-0.013,0.392
5662,-0.013,0.392
5663,-0.013,0.392
5664,-0.013,0.397
5665,0.001,0.397
5666,-0.013,0.397
5667,-0.013,0.397
5668,0.001,0.401
5669,-0.013,0.401
5670,-0.013,0.401
5671,-0.028,0.401
5672,-0.028,0.397
5673,-0.028,0.397
5674,-0.028,0.397
5675,-0.028,0.397
5676,-0.028,0.394
5677,-0.028,0.394
5678,-0.028,0.394
5679,-0.028,0.394
5680,-0.013,0.388
5681,-0.013,0.388
5682,-0.013,0.388
5683,-0.013,0.388
5684,0.001,0.376
5685,0.001,0.376
5686,0.001,0.376
5687,-0.013,0.376
5688,-0.013,0.362
5689,-0.013,0.362
5690,-0.013,0.362
5691,-0.013,0.362
5692,-0.013,0.349
5693,-0.013,0.349
5694,0.001,0.349
5695,0.001,0.349
5696,0.015,0.331
5697,0.030,0.331
5698,0.044,0.331
5699,0.058,0.331
5700,0.058,0.308
5701,0.073,0.308
5702,0.058,0.308
5703,0.058,0.308
5704,0.058,0.285
5705,0.058,0.285
5706,0.044,0.285
5707,0.030,0.285
5708,0.030,0.265
5709,0.030,0.265
5710,0.015,0.265
5711,0.015,0.265
5712,0.015,0.242
5713,0.015,0.242
5714,0.015,0.242
5715,0.001,0.242
5716,0.001,0.213
5717,0.001,0.213
5718,0.001,0.213
5719,-0.013,0.213
5720,-0.013,0.190
5721,-0.028,0.190
5722,-0.042,0.190
5723,-0.056,0.190
5724,-0.071,0.168
5725,-0.085,0.168
5726,-0.100,0.168
5727,-0.114,0.168
5728,-0.114,0.145
5729,-0.114,0.145
5730,-0.114,0.145
5731,-0.114,0.145
5732,-0.114,0.120
5733,-0.114,0.120
5734,-0.114,0.120
5735,-0.100,0.120
5736,-0.114,0.100
5737,-0.100,0.100
5738,-0.100,0.100
5739,-0.100,0.100
5740,-0.100,0.074
5741,-0.100,0.074
5742,-0.114,0.074
5743,-0.114,0.074
5744,-0.100,0.054
5745,-0.100,0.054
5746,-0.100,0.054
5747,-0.100,0.054
5748,-0.100,0.032
5749,-0.100,0.032
5750,-0.100,0.032
5751,-0.100,0.032
5752,-0.100,0.011
5753,-0.100,0.011
5754,-0.100,0.011
5755,-0.071,0.011
5756,-0.056,-0.007
5757,-0.013,-0.007
5758,0.001,-0.007
5759,0.030,-0.007
5760,0.073,-0.029
5761,0.116,-0.029
5762,0.159,-0.029
5763,0.231,-0.029
5764,0.318,-0.048
5765,0.390,-0.048
5766,0.476,-0.048
5767,0.562,-0.048
5768,0.619,-0.064
5769,0.663,-0.064
5770,0.706,-0.064
5771,0.720,-0.064
5772,0.692,-0.080
5773,0.591,-0.080
5774,0.490,-0.080
5775,0.390,-0.080
5776,0.274,-0.098
5777,0.159,-0.098
5778,0.058,-0.098
5779,-0.013,-0.098
5780,-0.071,-0.117
5781,-0.114,-0.117
5782,-0.143,-0.117
5783,-0.172,-0.117
5784,-0.186,-0.137
5785,-0.186,-0.137
5786,-0.201,-0.137
5787,-0.186,-0.137
5788,-0.172,-0.158
5789,-0.157,-0.158
5790,-0.143,-0.158
5791,-0.143,-0.158
5792,-0.143,-0.174
5793,-0.129,-0.174
5794,-0.114,-0.174
5795,-0.114,-0.174
5796,-0.129,-0.194
5797,-0.114,-0.194
5798,-0.114,-0.194
5799,-0.114,-0.194
5800,-0.100,-0.213
5801,-0.100,-0.213
5802,-0.100,-0.213
5803,-0.100,-0.213
5804,-0.100,-0.227
5805,-0.100,-0.227
5806,-0.100,-0.227
5807,-0.100,-0.227
5808,-0.100,-0.244
5809,-0.100,-0.244
5810,-0.100,-0.244
5811,-0.100,-0.244
5812,-0.100,-0.263
5813,-0.114,-0.263
5814,-0.100,-0.263
5815,-0.100,-0.263
5816,-0.100,-0.278
5817,-0.100,-0.278
5818,-0.100,-0.278
5819,-0.100,-0.278
5820,-0.100,-0.289
5821,-0.100,-0.289
5822,-0.100,-0.289
5823,-0.100,-0.289
5824,-0.100,-0.306
5825,-0.085,-0.306
5826,-0.071,-0.306
5827,-0.071,-0.306
5828,-0.071,-0.318
5829,-0.071,-0.318
5830,-0.071,-0.318
5831,-0.071,-0.318
5832,-0.071,-0.333
5833,-0.071,-0.333
5834,-0.071,-0.333
5835,-0.071,-0.333
5836,-0.071,-0.344
5837,-0.071,-0.344
5838,-0.056,-0.344
5839,-0.056,-0.344
5840,-0.056,-0.356
5841,-0.056,-0.356
5842,-0.056,-0.356
5843,-0.056,-0.356
5844,-0.056,-0.366
5845,-0.042,-0.366
5846,-0.042,-0.366
5847,-0.042,-0.366
5848,-0.042,-0.376
5849,-0.042,-0.376
5850,-0.028,-0.376
5851,-0.028,-0.376
5852,-0.028,-0.385
5853,-0.028,-0.385
5854,-0.042,-0.385
5855,-0.042,-0.385
5856,-0.042,-0.392
5857,-0.042,-0.392
5858,-0.042,-0.392
5859,-0.028,-0.392
5860,-0.028,-0.402
5861,-0.013,-0.402
5862,0.001,-0.402
5863,0.001,-0.402
5864,0.001,-0.409
5865,0.001,-0.409
5866,0.001,-0.409
5867,0.001,-0.409
5868,0.015,-0.416
5869,0.015,-0.416
5870,0.015,-0.416
5871,0.015,-0.416
5872,0.015,-0.421
5873,0.015,-0.421
5874,0.030,-0.421
5875,0.030,-0.421
5876,0.030,-0.428
5877,0.030,-0.428
5878,0.030,-0.428
5879,0.030,-0.428
5880,0.030,-0.430
5881,0.030,-0.430
5882,0.044,-0.430
5883,0.058,-0.430
5884,0.058,-0.433
5885,0.058,-0.433
5886,0.073,-0.433
5887,0.058,-0.433
5888,0.073,-0.430
5889,0.073,-0.430
5890,0.073,-0.430
5891,0.073,-0.430
5892,0.073,-0.425
5893,0.073,-0.425
5894,0.073,-0.425
5895,0.073,-0.425
5896,0.073,-0.411
5897,0.073,-0.411
5898,0.073,-0.411
5899,0.073,-0.411
5900,0.087,-0.395
5901,0.087,-0.395
5902,0.102,-0.395
5903,0.102,-0.395
5904,0.102,-0.370
5905,0.116,-0.370
5906,0.116,-0.370
5907,0.116,-0.370
5908,0.116,-0.342
5909,0.116,-0.342
5910,0.116,-0.342
5911,0.116,-0.342
5912,0.116,-0.301
5913,0.116,-0.301
5914,0.116,-0.301
5915,0.131,-0.301
5916,0.131,-0.261
5917,0.145,-0.261
5918,0.145,-0.261
5919,0.145,-0.261
5920,0.145,-0.215
5921,0.145,-0.215
5922,0.145,-0.215
5923,0.145,-0.215
5924,0.131,-0.170
5925,0.131,-0.170
5926,0.131,-0.170
5927,0.116,-0.170
5928,0.116,-0.117
5929,0.102,-0.117
5930,0.102,-0.117
5931,0.102,-0.117
5932,0.087,-0.067
5933,0.087,-0.067
5934,0.073,-0.067
5935,0.058,-0.067
5936,0.058,-0.017
5937,0.058,-0.017
5938,0.044,-0.017
5939,0.044,-0.017
5940,0.030,0.029
5941,0.044,0.029
5942,0.030,0.029
5943,0.015,0.029
5944,0.015,0.079
5945,0.015,0.079
5946,0.015,0.079
5947,0.001,0.079
5948,0.015,0.122
5949,0.001,0.122
5950,0.015,0.122
5951,0.001,0.122
5952,0.001,0.165
5953,0.001,0.165
5954,0.001,0.165
5955,0.001,0.165
5956,0.001,0.203
5957,0.001,0.203
5958,0.001,0.203
5959,0.001,0.203
5960,0.001,0.239
5961,0.001,0.239
5962,0.001,0.239
5963,0.001,0.239
5964,0.001,0.273
5965,0.001,0.273
5966,0.001,0.273
5967,0.001,0.273
5968,0.001,0.301
5969,0.001,0.301
5970,0.001,0.301
5971,0.001,0.301
5972,0.001,0.330
5973,0.001,0.330
5974,0.015,0.330
5975,0.015,0.330
5976,0.015,0.353
5977,0.015,0.353
5978,0.015,0.353
5979,0.001,0.353
5980,0.001,0.373
5981,0.001,0.373
5982,0.001,0.373
5983,0.001,0.373
5984,0.001,0.390
5985,0.015,0.390
5986,0.001,0.390
5987,0.001,0.390
5988,0.001,0.406
5989,0.015,0.406
5990,0.015,0.406
5991,0.001,0.406
5992,0.015,0.416
5993,0.001,0.416
5994,0.001,0.416
5995,0.001,0.416
5996,0.001,0.423
5997,0.001,0.423
5998,0.001,0.423
5999,0.001,0.423
6000,0.001,0.430
6001,0.001,0.430
6002,0.001,0.430
6003,0.001,0.430
6004,0.001,0.430
6005,0.001,0.430
6006,-0.013,0.430
6007,-0.013,0.430
6008,-0.013,0.430
6009,0.001,0.430
6010,0.001,0.430
6011,0.001,0.430
6012,0.001,0.430
6013,0.001,0.430
6014,0.001,0.430
6015,-0.013,0.430
6016,0.001,0.423
6017,0.001,0.423
6018,0.001,0.423
6019,0.001,0.423
6020,0.001,0.413
6021,0.001,0.413
6022,0.001,0.413
6023,0.001,0.413
6024,0.001,0.404
6025,0.001,0.404
6026,0.001,0.404
6027,0.001,0.404
6028,0.001,0.387
6029,0.001,0.387
6030,0.015,0.387
6031,0.030,0.387
6032,0.044,0.370
6033,0.058,0.370
6034,0.073,0.370
6035,0.073,0.370
6036,0.073,0.351
6037,0.073,0.351
6038,0.073,0.351
6039,0.073,0.351
6040,0.073,0.330
6041,0.058,0.330
6042,0.058,0.330
6043,0.058,0.330
6044,0.058,0.310
6045,0.044,0.310
6046,0.030,0.310
6047,0.030,0.310
6048,0.030,0.289
6049,0.030,0.289
6050,0.030,0.289
6051,0.015,0.289
6052,0.015,0.265
6053,0.015,0.265
6054,0.015,0.265
6055,0.001,0.265
6056,0.001,0.241
6057,-0.013,0.241
6058,-0.013,0.241
6059,-0.028,0.241
6060,-0.028,0.217
6061,-0.056,0.217
6062,-0.071,0.217
6063,-0.085,0.217
6064,-0.085,0.196
6065,-0.100,0.196
6066,-0.100,0.196
6067,-0.085,0.196
6068,-0.085,0.174
6069,-0.085,0.174
6070,-0.071,0.174
6071,-0.071,0.174
6072,-0.071,0.153
6073,-0.071,0.153
6074,-0.071,0.153
6075,-0.071,0.153
6076,-0.071,0.129
6077,-0.071,0.129
6078,-0.071,0.129
6079,-0.071,0.129
6080,-0.071,0.107
6081,-0.071,0.107
6082,-0.071,0.107
6083,-0.071,0.107
6084,-0.071,0.086
6085,-0.071,0.086
6086,-0.071,0.086
6087,-0.071,0.086
6088,-0.085,0.062
6089,-0.085,0.062
6090,-0.071,0.062
6091,-0.042,0.062
6092,-0.013,0.043
6093,0.015,0.043
6094,0.044,0.043
6095,0.073,0.043
6096,0.116,0.021
6097,0.159,0.021
6098,0.231,0.021
6099,0.303,0.021
6100,0.390,0.003
6101,0.476,0.003
6102,0.562,0.003
6103,0.634,0.003
6104,0.692,-0.019
6105,0.735,-0.019
6106,0.749,-0.019
6107,0.735,-0.019
6108,0.677,-0.038
6109,0.577,-0.038
6110,0.461,-0.038
6111,0.346,-0.038
6112,0.231,-0.055
6113,0.116,-0.055
6114,0.030,-0.055
6115,-0.028,-0.055
6116,-0.085,-0.076
6117,-0.114,-0.076
6118,-0.143,-0.076
6119,-0.157,-0.076
6120,-0.172,-0.096
6121,-0.172,-0.096
6122,-0.172,-0.096
6123,-0.157,-0.096
6124,-0.143,-0.115
6125,-0.143,-0.115
6126,-0.114,-0.115
6127,-0.114,-0.115
6128,-0.114,-0.129
6129,-0.100,-0.129
6130,-0.100,-0.129
6131,-0.100,-0.129
6132,-0.100,-0.148
6133,-0.100,-0.148
6134,-0.085,-0.148
6135,-0.085,-0.148
6136,-0.071,-0.165
6137,-0.071,-0.165
6138,-0.071,-0.165
6139,-0.071,-0.165
6140,-0.071,-0.182
6141,-0.071,-0.182
6142,-0.085,-0.182
6143,-0.085,-0.182
6144,-0.071,-0.199
6145,-0.071,-0.199
6146,-0.085,-0.199
6147,-0.085,-0.199
6148,-0.100,-0.210
6149,-0.085,-0.210
6150,-0.071,-0.210
6151,-0.071,-0.210
6152,-0.071,-0.223
6153,-0.071,-0.223
6154,-0.071,-0.223
6155,-0.056,-0.223
6156,-0.071,-0.237
6157,-0.056,-0.237
6158,-0.056,-0.237
6159,-0.056,-0.237
6160,-0.056,-0.248
6161,-0.056,-0.248
6162,-0.056,-0.248
6163,-0.056,-0.248
6164,-0.056,-0.259
6165,-0.056,-0.259
6166,-0.056,-0.259
6167,-0.056,-0.259
6168,-0.056,-0.268
6169,-0.056,-0.268
6170,-0.056,-0.268
6171,-0.042,-0.268
6172,-0.042,-0.278
6173,-0.042,-0.278
6174,-0.028,-0.278
6175,-0.028,-0.278
6176,-0.013,-0.289
6177,-0.013,-0.289
6178,-0.028,-0.289
6179,-0.028,-0.289
6180,-0.028,-0.299
6181,-0.028,-0.299
6182,-0.028,-0.299
6183,-0.013,-0.299
6184,-0.013,-0.311
6185,-0.013,-0.311
6186,-0.013,-0.311
6187,0.001,-0.311
6188,0.001,-0.321
6189,-0.013,-0.321
6190,0.001,-0.321
6191,0.001,-0.321
6192,0.001,-0.333
6193,0.001,-0.333
6194,0.001,-0.333
6195,0.001,-0.333
6196,0.001,-0.342
6197,0.001,-0.342
6198,0.001,-0.342
6199,0.001,-0.342
6200,0.001,-0.349
6201,0.001,-0.349
6202,0.015,-0.349
6203,0.015,-0.349
6204,0.015,-0.358
6205,0.015,-0.358
6206,0.015,-0.358
6207,0.030,-0.358
6208,0.030,-0.370
6209,0.044,-0.370
6210,0.058,-0.370
6211,0.058,-0.370
6212,0.058,-0.376
6213,0.058,-0.376
6214,0.058,-0.376
6215,0.058,-0.376
6216,0.073,-0.383
6217,0.073,-0.383
6218,0.087,-0.383
6219,0.087,-0.383
6220,0.087,-0.380
6221,0.087,-0.380
6222,0.087,-0.380
6223,0.073,-0.380
6224,0.087,-0.378
6225,0.073,-0.378
6226,0.087,-0.378
6227,0.087,-0.378
6228,0.073,-0.368
6229,0.087,-0.368
6230,0.087,-0.368
6231,0.087,-0.368
6232,0.102,-0.356
6233,0.102,-0.356
6234,0.102,-0.356
6235,0.102,-0.356
6236,0.116,-0.337
6237,0.116,-0.337
6238,0.116,-0.337
6239,0.116,-0.337
6240,0.102,-0.314
6241,0.102,-0.314
6242,0.102,-0.314
6243,0.116,-0.314
6244,0.116,-0.278
6245,0.131,-0.278
6246,0.145,-0.278
6247,0.145,-0.278
6248,0.145,-0.244
6249,0.145,-0.244
6250,0.145,-0.244
6251,0.159,-0.244
6252,0.159,-0.203
6253,0.159,-0.203
6254,0.159,-0.203
6255,0.159,-0.203
6256,0.159,-0.158
6257,0.159,-0.158
6258,0.145,-0.158
6259,0.145,-0.158
6260,0.145,-0.110
6261,0.145,-0.110
6262,0.145,-0.110
6263,0.131,-0.110
6264,0.131,-0.062
6265,0.116,-0.062
6266,0.116,-0.062
6267,0.116,-0.062
6268,0.102,-0.015
6269,0.102,-0.015
6270,0.087,-0.015
6271,0.073,-0.015
6272,0.073,0.031
6273,0.058,0.031
6274,0.058,0.031
6275,0.058,0.031
6276,0.058,0.076
6277,0.044,0.076
6278,0.030,0.076
6279,0.030,0.076
6280,0.030,0.119
6281,0.030,0.119
6282,0.015,0.119
6283,0.015,0.119
6284,0.015,0.165
6285,0.015,0.165
6286,0.015,0.165
6287,0.015,0.165
6288,0.001,0.232
6289,0.001,0.232
6290,0.015,0.232
6291,0.015,0.232
6292,0.015,0.275
6293,0.015,0.275
6294,0.015,0.275
6295,0.001,0.275
6296,0.001,0.313
6297,0.001,0.313
6298,0.001,0.313
6299,0.001,0.313
6300,0.015,0.348
6301,0.015,0.348
6302,0.015,0.348
6303,0.015,0.348
6304,0.015,0.380
6305,0.015,0.380
6306,0.015,0.380
6307,0.015,0.380
6308,0.015,0.407
6309,0.015,0.407
6310,0.015,0.407
6311,0.015,0.407
6312,0.015,0.431
6313,0.015,0.431
6314,0.015,0.431
6315,0.015,0.431
6316,0.015,0.453
6317,0.015,0.453
6318,0.030,0.453
6319,0.030,0.453
6320,0.015,0.474
6321,0.015,0.474
6322,0.015,0.474
6323,0.015,0.474
6324,0.015,0.490
6325,0.015,0.490
6326,0.015,0.490
6327,0.030,0.490
6328,0.030,0.501
6329,0.015,0.501
6330,0.015,0.501
6331,0.015,0.501
6332,0.015,0.509
6333,0.015,0.509
6334,0.015,0.509
6335,0.015,0.509
6336,0.015,0.515
6337,0.015,0.515
6338,0.001,0.515
6339,0.001,0.515
6340,0.001,0.515
6341,0.001,0.515
6342,0.001,0.515
6343,0.001,0.515
6344,0.001,0.515
6345,0.001,0.515
6346,-0.013,0.515
6347,-0.013,0.515
6348,0.001,0.509
6349,0.001,0.509
6350,0.001,0.509
6351,0.001,0.509
6352,0.001,0.501
6353,0.001,0.501
6354,0.015,0.501
6355,0.015,0.501
6356,0.015,0.490
6357,0.015,0.490
6358,0.015,0.490
6359,0.015,0.490
6360,0.015,0.474
6361,0.015,0.474
6362,0.015,0.474
6363,0.015,0.474
6364,0.015,0.459
6365,0.015,0.459
6366,0.030,0.459
6367,0.044,0.459
6368,0.058,0.440
6369,0.073,0.440
6370,0.073,0.440
6371,0.073,0.440
6372,0.073,0.418
6373,0.073,0.418
6374,0.073,0.418
6375,0.073,0.418
6376,0.073,0.397
6377,0.058,0.397
6378,0.058,0.397
6379,0.058,0.397
6380,0.044,0.372
6381,0.044,0.372
6382,0.030,0.372
6383,0.030,0.372
6384,0.030,0.348
6385,0.030,0.348
6386,0.015,0.348
6387,0.015,0.348
6388,0.015,0.327
6389,0.015,0.327
6390,0.001,0.327
6391,0.001,0.327
6392,-0.013,0.296
6393,-0.013,0.296
6394,-0.028,0.296
6395,-0.042,0.296
6396,-0.056,0.275
6397,-0.071,0.275
6398,-0.071,0.275
6399,-0.071,0.275
6400,-0.085,0.248
6401,-0.085,0.248
6402,-0.085,0.248
6403,-0.071,0.248
6404,-0.071,0.224
6405,-0.071,0.224
6406,-0.071,0.224
6407,-0.085,0.224
6408,-0.071,0.203
6409,-0.071,0.203
6410,-0.071,0.203
6411,-0.071,0.203
6412,-0.071,0.178
6413,-0.071,0.178
6414,-0.071,0.178
6415,-0.071,0.178
6416,-0.071,0.157
6417,-0.071,0.157
6418,-0.071,0.157
6419,-0.071,0.157
6420,-0.071,0.130
6421,-0.085,0.130
6422,-0.100,0.130
6423,-0.100,0.130
6424,-0.085,0.108
6425,-0.071,0.108
6426,-0.056,0.108
6427,-0.013,0.108
6428,0.001,0.086
6429,0.030,0.086
6430,0.073,0.086
6431,0.116,0.086
6432,0.174,0.062
6433,0.245,0.062
6434,0.332,0.062
6435,0.418,0.062
6436,0.519,0.041
6437,0.606,0.041
6438,0.706,0.041
6439,0.778,0.041
6440,0.821,0.019
6441,0.850,0.019
6442,0.835,0.019
6443,0.778,0.019
6444,0.663,-0.005
6445,0.548,-0.005
6446,0.404,-0.005
6447,0.274,-0.005
6448,0.159,-0.029
6449,0.058,-0.029
6450,-0.013,-0.029
6451,-0.085,-0.029
6452,-0.129,-0.049
6453,-0.143,-0.049
6454,-0.172,-0.049
6455,-0.186,-0.049
6456,-0.186,-0.075
6457,-0.186,-0.075
6458,-0.172,-0.075
6459,-0.157,-0.075
6460,-0.143,-0.097
6461,-0.143,-0.097
6462,-0.129,-0.097
6463,-0.129,-0.097
6464,-0.114,-0.116
6465,-0.114,-0.116
6466,-0.100,-0.116
6467,-0.100,-0.116
6468,-0.100,-0.140
6469,-0.100,-0.140
6470,-0.114,-0.140
6471,-0.100,-0.140
6472,-0.100,-0.162
6473,-0.100,-0.162
6474,-0.100,-0.162
6475,-0.100,-0.162
6476,-0.085,-0.180
6477,-0.085,-0.180
6478,-0.100,-0.180
6479,-0.100,-0.180
6480,-0.100,-0.202
6481,-0.100,-0.202
6482,-0.100,-0.202
6483,-0.100,-0.202
6484,-0.100,-0.221
6485,-0.100,-0.221
6486,-0.100,-0.221
6487,-0.100,-0.221
6488,-0.100,-0.237
6489,-0.100,-0.237
6490,-0.100,-0.237
6491,-0.100,-0.237
6492,-0.100,-0.253
6493,-0.100,-0.253
6494,-0.085,-0.253
6495,-0.085,-0.253
6496,-0.085,-0.270
6497,-0.085,-0.270
6498,-0.100,-0.270
6499,-0.071,-0.270
6500,-0.085,-0.283
6501,-0.071,-0.283
6502,-0.071,-0.283
6503,-0.071,-0.283
6504,-0.085,-0.299
6505,-0.085,-0.299
6506,-0.085,-0.299
6507,-0.071,-0.299
6508,-0.071,-0.312
6509,-0.071,-0.312
6510,-0.071,-0.312
6511,-0.056,-0.312
6512,-0.071,-0.329
6513,-0.056,-0.329
6514,-0.056,-0.329
6515,-0.056,-0.329
6516,-0.056,-0.342
6517,-0.056,-0.342
6518,-0.056,-0.342
6519,-0.056,-0.342
6520,-0.056,-0.355
6521,-0.056,-0.355
6522,-0.056,-0.355
6523,-0.056,-0.355
6524,-0.042,-0.369
6525,-0.042,-0.369
6526,-0.028,-0.369
6527,-0.013,-0.369
6528,-0.013,-0.386
6529,-0.013,-0.386
6530,-0.013,-0.386
6531,-0.013,-0.386
6532,-0.013,-0.396
6533,-0.013,-0.396
6534,0.001,-0.396
6535,0.001,-0.396
6536,0.001,-0.409
6537,0.001,-0.409
6538,0.001,-0.409
6539,0.001,-0.409
6540,0.001,-0.417
6541,0.001,-0.417
6542,0.015,-0.417
6543,0.015,-0.417
6544,0.015,-0.428
6545,0.015,-0.428
6546,0.015,-0.428
6547,0.015,-0.428
6548,0.030,-0.439
6549,0.030,-0.439
6550,0.044,-0.439
6551,0.044,-0.439
6552,0.044,-0.442
6553,0.044,-0.442
6554,0.030,-0.442
6555,0.030,-0.442
6556,0.030,-0.445
6557,0.030,-0.445
6558,0.030,-0.445
6559,0.058,-0.445
6560,0.058,-0.442
6561,0.058,-0.442
6562,0.058,-0.442
6563,0.058,-0.442
6564,0.073,-0.439
6565,0.073,-0.439
6566,0.073,-0.439
6567,0.073,-0.439
6568,0.073,-0.423
6569,0.073,-0.423
6570,0.073,-0.423
6571,0.073,-0.423
6572,0.073,-0.404
6573,0.073,-0.404
6574,0.073,-0.404
6575,0.087,-0.404
6576,0.102,-0.377
6577,0.102,-0.377
6578,0.102,-0.377
6579,0.102,-0.377
6580,0.102,-0.345
6581,0.102,-0.345
6582,0.116,-0.345
6583,0.116,-0.345
6584,0.116,-0.302
6585,0.131,-0.302
6586,0.116,-0.302
6587,0.116,-0.302
6588,0.116,-0.256
6589,0.116,-0.256
6590,0.116,-0.256
6591,0.116,-0.256
6592,0.116,-0.207
6593,0.116,-0.207
6594,0.116,-0.207
6595,0.116,-0.207
6596,0.116,-0.153
6597,0.102,-0.153
6598,0.102,-0.153
6599,0.102,-0.153
6600,0.102,-0.102
6601,0.102,-0.102
6602,0.087,-0.102
6603,0.073,-0.102
6604,0.073,-0.051
6605,0.058,-0.051
6606,0.058,-0.051
6607,0.030,-0.051
6608,0.044,0.005
6609,0.030,0.005
6610,0.030,0.005
6611,0.030,0.005
6612,0.030,0.054
6613,0.015,0.054
6614,0.015,0.054
6615,0.015,0.054
6616,0.015,0.105
6617,0.015,0.105
6618,0.001,0.105
6619,0.001,0.105
6620,0.001,0.151
6621,0.001,0.151
6622,0.001,0.151
6623,0.001,0.151
6624,0.001,0.200
6625,0.001,0.200
6626,-0.013,0.200
6627,0.001,0.200
6628,0.001,0.240
6629,0.001,0.240
6630,-0.013,0.240
6631,0.001,0.240
6632,0.001,0.281
6633,0.001,0.281
6634,0.001,0.281
6635,0.001,0.281
6636,0.001,0.313
6637,0.001,0.313
6638,0.001,0.313
6639,-0.013,0.313
6640,-0.013,0.343
6641,-0.013,0.343
6642,0.001,0.343
6643,0.001,0.343
6644,0.001,0.375
6645,0.001,0.375
6646,0.001,0.375
6647,0.001,0.375
6648,-0.013,0.399
6649,0.001,0.399
6650,-0.013,0.399
6651,0.001,0.399
6652,0.001,0.420
6653,0.001,0.420
6654,0.001,0.420
6655,0.001,0.420
6656,0.001,0.442
6657,0.001,0.442
6658,0.001,0.442
6659,0.001,0.442
6660,-0.013,0.456
6661,-0.013,0.456
6662,-0.013,0.456
6663,-0.028,0.456
6664,-0.013,0.472
6665,-0.013,0.472
6666,-0.013,0.472
6667,-0.013,0.472
6668,-0.013,0.477
6669,-0.013,0.477
6670,-0.013,0.477
6671,-0.013,0.477
6672,-0.013,0.482
6673,-0.013,0.482
6674,-0.013,0.482
6675,-0.013,0.482
6676,-0.013,0.485
6677,-0.013,0.485
6678,-0.013,0.485
6679,-0.028,0.485
6680,-0.028,0.480
6681,-0.028,0.480
6682,-0.028,0.480
6683,-0.028,0.480
6684,-0.028,0.477
6685,-0.028,0.477
6686,-0.028,0.477
6687,-0.013,0.477
6688,-0.013,0.469
6689,-0.013,0.469
6690,-0.013,0.469
6691,-0.013,0.469
6692,-0.013,0.456
6693,-0.013,0.456
6694,-0.013,0.456
6695,-0.013,0.456
6696,-0.013,0.440
6697,-0.013,0.440
6698,-0.013,0.440
6699,-0.013,0.440
6700,-0.013,0.420
6701,0.001,0.420
6702,0.001,0.420
