,ECG,PPG
0,0.001,-0.019
1,0.007,-0.019
2,0.007,-0.019
3,0.001,-0.019
4,0.007,0.013
5,0.007,0.013
6,0.007,0.013
7,0.001,0.013
8,0.014,0.065
9,0.014,0.065
10,0.007,0.065
11,0.007,0.065
12,0.007,0.122
13,0.001,0.122
14,0.001,0.122
15,0.001,0.122
16,0.001,0.197
17,0.001,0.197
18,0.001,0.197
19,0.001,0.197
20,0.001,0.280
21,0.001,0.280
22,0.001,0.280
23,0.001,0.280
24,-0.006,0.373
25,-0.006,0.373
26,-0.027,0.373
27,-0.027,0.373
28,-0.034,0.470
29,-0.034,0.470
30,-0.041,0.470
31,-0.041,0.470
32,-0.041,0.560
33,-0.041,0.560
34,-0.041,0.560
35,-0.054,0.560
36,-0.041,0.653
37,-0.041,0.653
38,-0.041,0.653
39,-0.041,0.653
40,-0.041,0.744
41,-0.041,0.744
42,-0.054,0.744
43,-0.054,0.744
44,-0.054,0.818
45,-0.041,0.818
46,-0.034,0.818
47,-0.034,0.818
48,-0.027,0.878
49,-0.027,0.878
50,-0.013,0.878
51,-0.013,0.878
52,-0.006,0.930
53,0.001,0.930
54,0.001,0.930
55,0.007,0.930
56,0.007,0.963
57,0.014,0.963
58,0.007,0.963
59,0.007,0.963
60,0.014,0.988
61,0.007,0.988
62,0.007,0.988
63,0.007,0.988
64,0.014,0.992
65,0.007,0.992
66,0.007,0.992
67,0.007,0.992
68,0.007,0.982
69,0.007,0.982
70,0.007,0.982
71,0.001,0.982
72,0.001,0.959
73,0.001,0.959
74,0.007,0.959
75,0.001,0.959
76,0.001,0.923
77,0.001,0.923
78,0.007,0.923
79,0.007,0.923
80,0.007,0.878
81,0.007,0.878
82,0.007,0.878
83,0.007,0.878
84,0.007,0.821
85,0.007,0.821
86,0.007,0.821
87,0.007,0.821
88,0.007,0.756
89,0.007,0.756
90,0.007,0.756
91,0.007,0.756
92,0.007,0.685
93,0.007,0.685
94,0.007,0.685
95,0.014,0.685
96,0.035,0.609
97,0.076,0.609
98,0.117,0.609
99,0.165,0.609
100,0.233,0.528
101,0.302,0.528
102,0.364,0.528
103,0.418,0.528
104,0.460,0.448
105,0.480,0.448
106,0.487,0.448
107,0.487,0.448
108,0.487,0.367
109,0.467,0.367
110,0.432,0.367
111,0.391,0.367
112,0.378,0.286
113,0.378,0.286
114,0.378,0.286
115,0.357,0.286
116,0.336,0.209
117,0.309,0.209
118,0.268,0.209
119,0.254,0.209
120,0.233,0.129
121,0.213,0.129
122,0.179,0.129
123,0.138,0.129
124,0.103,0.051
125,0.062,0.051
126,0.028,0.051
127,0.001,0.051
128,-0.027,-0.013
129,-0.041,-0.013
130,-0.054,-0.013
131,-0.075,-0.013
132,-0.075,-0.081
133,-0.075,-0.081
134,-0.075,-0.081
135,-0.082,-0.081
136,-0.075,-0.141
137,-0.075,-0.141
138,-0.075,-0.141
139,-0.075,-0.141
140,-0.075,-0.197
141,-0.075,-0.197
142,-0.075,-0.197
143,-0.075,-0.197
144,-0.075,-0.244
145,-0.075,-0.244
146,-0.075,-0.244
147,-0.075,-0.244
148,-0.075,-0.289
149,-0.075,-0.289
150,-0.082,-0.289
151,-0.075,-0.289
152,-0.075,-0.332
153,-0.075,-0.332
154,-0.082,-0.332
155,-0.075,-0.332
156,-0.075,-0.364
157,-0.075,-0.364
158,-0.075,-0.364
159,-0.075,-0.364
160,-0.075,-0.399
161,-0.075,-0.399
162,-0.075,-0.399
163,-0.082,-0.399
164,-0.082,-0.428
165,-0.075,-0.428
166,-0.082,-0.428
167,-0.082,-0.428
168,-0.082,-0.457
169,-0.082,-0.457
170,-0.082,-0.457
171,-0.089,-0.457
172,-0.082,-0.486
173,-0.082,-0.486
174,-0.082,-0.486
175,-0.082,-0.486
176,-0.082,-0.508
177,-0.082,-0.508
178,-0.082,-0.508
179,-0.089,-0.508
180,-0.089,-0.541
181,-0.082,-0.541
182,-0.082,-0.541
183,-0.082,-0.541
184,-0.082,-0.570
185,-0.089,-0.570
186,-0.089,-0.570
187,-0.082,-0.570
188,-0.082,-0.599
189,-0.089,-0.599
190,-0.089,-0.599
191,-0.089,-0.599
192,-0.082,-0.634
193,-0.082,-0.634
194,-0.082,-0.634
195,-0.089,-0.634
196,-0.082,-0.673
197,-0.089,-0.673
198,-0.089,-0.673
199,-0.089,-0.673
200,-0.089,-0.715
201,-0.089,-0.715
202,-0.089,-0.715
203,-0.089,-0.715
204,-0.082,-0.753
205,-0.089,-0.753
206,-0.082,-0.753
207,-0.082,-0.753
208,-0.082,-0.798
209,-0.082,-0.798
210,-0.075,-0.798
211,-0.082,-0.798
212,-0.082,-0.840
213,-0.075,-0.840
214,-0.061,-0.840
215,-0.061,-0.840
216,-0.061,-0.882
217,-0.061,-0.882
218,-0.061,-0.882
219,-0.061,-0.882
220,-0.061,-0.924
221,-0.054,-0.924
222,-0.054,-0.924
223,-0.054,-0.924
224,-0.041,-0.956
225,-0.034,-0.956
226,-0.034,-0.956
227,-0.034,-0.956
228,-0.034,-0.979
229,-0.027,-0.979
230,-0.027,-0.979
231,-0.027,-0.979
232,-0.027,-0.998
233,-0.027,-0.998
234,-0.027,-0.998
235,-0.013,-0.998
236,-0.013,-1.004
237,-0.013,-1.004
238,-0.013,-1.004
239,-0.006,-1.004
240,-0.006,-0.998
241,-0.006,-0.998
242,-0.006,-0.998
243,0.001,-0.998
244,-0.006,-0.982
245,-0.006,-0.982
246,0.001,-0.982
247,0.001,-0.982
248,0.001,-0.950
249,0.007,-0.950
250,0.007,-0.950
251,0.007,-0.950
252,0.014,-0.911
253,0.014,-0.911
254,0.007,-0.911
255,0.007,-0.911
256,0.014,-0.856
257,0.014,-0.856
258,0.007,-0.856
259,0.014,-0.856
260,0.014,-0.801
261,0.014,-0.801
262,0.014,-0.801
263,0.014,-0.801
264,0.014,-0.744
265,0.007,-0.744
266,0.007,-0.744
267,0.007,-0.744
268,0.007,-0.679
269,0.007,-0.679
270,0.007,-0.679
271,0.014,-0.679
272,0.007,-0.615
273,0.007,-0.615
274,0.007,-0.615
275,0.007,-0.615
276,0.007,-0.557
277,0.001,-0.557
278,0.001,-0.557
279,0.007,-0.557
280,0.007,-0.499
281,0.001,-0.499
282,0.001,-0.499
283,0.001,-0.499
284,0.001,-0.451
285,0.001,-0.451
286,0.001,-0.451
287,0.001,-0.451
288,0.007,-0.403
289,0.001,-0.403
290,0.001,-0.403
291,0.001,-0.403
292,-0.006,-0.367
293,0.001,-0.367
294,-0.006,-0.367
295,-0.006,-0.367
296,-0.006,-0.338
297,0.001,-0.338
298,-0.006,-0.338
299,-0.006,-0.338
300,-0.006,-0.309
301,-0.006,-0.309
302,-0.006,-0.309
303,-0.013,-0.309
304,-0.006,-0.293
305,-0.006,-0.293
306,-0.006,-0.293
307,-0.006,-0.293
308,-0.006,-0.277
309,-0.006,-0.277
310,-0.006,-0.277
311,-0.006,-0.277
312,-0.006,-0.274
313,-0.006,-0.274
314,-0.006,-0.274
315,-0.006,-0.274
316,-0.006,-0.267
317,-0.013,-0.267
318,-0.006,-0.267
319,-0.006,-0.267
320,-0.013,-0.271
321,-0.013,-0.271
322,-0.013,-0.271
323,-0.006,-0.271
324,-0.006,-0.274
325,-0.006,-0.274
326,-0.006,-0.274
327,-0.006,-0.274
328,-0.006,-0.280
329,-0.006,-0.280
330,-0.006,-0.280
331,-0.013,-0.280
332,-0.006,-0.293
333,-0.006,-0.293
334,-0.006,-0.293
335,-0.006,-0.293
336,-0.006,-0.443
337,-0.006,-0.443
338,-0.006,-0.443
339,-0.006,-0.443
340,-0.006,-0.455
341,-0.006,-0.455
342,-0.006,-0.455
343,-0.006,-0.455
344,0.001,-0.474
345,-0.006,-0.474
346,-0.006,-0.474
347,-0.006,-0.474
348,-0.006,-0.489
349,-0.006,-0.489
350,-0.006,-0.489
351,0.001,-0.489
352,0.001,-0.505
353,0.001,-0.505
354,0.001,-0.505
355,0.001,-0.505
356,0.001,-0.523
357,-0.006,-0.523
358,0.001,-0.523
359,0.001,-0.523
360,0.001,-0.533
361,0.001,-0.533
362,0.001,-0.533
363,0.001,-0.533
364,0.001,-0.539
365,0.001,-0.539
366,0.007,-0.539
367,0.007,-0.539
368,0.001,-0.539
369,0.001,-0.539
370,0.007,-0.539
371,0.007,-0.539
372,0.007,-0.530
373,0.007,-0.530
374,0.014,-0.530
375,0.014,-0.530
376,0.014,-0.511
377,0.007,-0.511
378,0.007,-0.511
379,0.001,-0.511
380,0.007,-0.474
381,0.001,-0.474
382,0.007,-0.474
383,0.001,-0.474
384,0.001,-0.430
385,0.007,-0.430
386,0.007,-0.430
387,0.001,-0.430
388,0.001,-0.371
389,0.001,-0.371
390,-0.006,-0.371
391,-0.013,-0.371
392,-0.027,-0.305
393,-0.027,-0.305
394,-0.034,-0.305
395,-0.041,-0.305
396,-0.041,-0.228
397,-0.041,-0.228
398,-0.041,-0.228
399,-0.041,-0.228
400,-0.041,-0.146
401,-0.041,-0.146
402,-0.041,-0.146
403,-0.041,-0.146
404,-0.041,-0.056
405,-0.034,-0.056
406,-0.041,-0.056
407,-0.041,-0.056
408,-0.054,0.028
409,-0.041,0.028
410,-0.054,0.028
411,-0.041,0.028
412,-0.034,0.112
413,-0.034,0.112
414,-0.027,0.112
415,-0.027,0.112
416,-0.013,0.187
417,-0.006,0.187
418,-0.006,0.187
419,0.001,0.187
420,0.001,0.256
421,0.007,0.256
422,0.007,0.256
423,0.007,0.256
424,0.014,0.311
425,0.014,0.311
426,0.014,0.311
427,0.007,0.311
428,0.007,0.358
429,0.007,0.358
430,0.007,0.358
431,0.007,0.358
432,0.007,0.396
433,0.007,0.396
434,0.007,0.396
435,0.001,0.396
436,0.007,0.414
437,0.007,0.414
438,0.007,0.414
439,0.007,0.414
440,0.007,0.430
441,0.007,0.430
442,0.007,0.430
443,0.007,0.430
444,0.007,0.424
445,0.007,0.424
446,0.007,0.424
447,0.007,0.424
448,0.001,0.414
449,0.007,0.414
450,0.007,0.414
451,0.007,0.414
452,0.007,0.393
453,0.007,0.393
454,0.007,0.393
455,0.007,0.393
456,0.007,0.358
457,0.007,0.358
458,0.007,0.358
459,0.014,0.358
460,0.007,0.318
461,0.028,0.318
462,0.042,0.318
463,0.076,0.318
464,0.117,0.271
465,0.179,0.271
466,0.240,0.271
467,0.309,0.271
468,0.378,0.215
469,0.432,0.215
470,0.467,0.215
471,0.487,0.215
472,0.494,0.152
473,0.494,0.152
474,0.487,0.152
475,0.467,0.152
476,0.432,0.087
477,0.384,0.087
478,0.378,0.087
479,0.378,0.087
480,0.378,0.018
481,0.364,0.018
482,0.336,0.018
483,0.309,0.018
484,0.282,-0.053
485,0.261,-0.053
486,0.240,-0.053
487,0.213,-0.053
488,0.186,-0.128
489,0.138,-0.128
490,0.103,-0.128
491,0.062,-0.128
492,0.028,-0.206
493,0.001,-0.206
494,-0.013,-0.206
495,-0.041,-0.206
496,-0.061,-0.281
497,-0.075,-0.281
498,-0.082,-0.281
499,-0.075,-0.281
500,-0.075,-0.361
501,-0.075,-0.361
502,-0.075,-0.361
503,-0.075,-0.361
504,-0.075,-0.440
505,-0.075,-0.440
506,-0.075,-0.440
507,-0.075,-0.440
508,-0.075,-0.511
509,-0.075,-0.511
510,-0.075,-0.511
511,-0.075,-0.511
512,-0.075,-0.586
513,-0.075,-0.586
514,-0.075,-0.586
515,-0.075,-0.586
516,-0.075,-0.648
517,-0.075,-0.648
518,-0.075,-0.648
519,-0.082,-0.648
520,-0.082,-0.705
521,-0.075,-0.705
522,-0.075,-0.705
523,-0.082,-0.705
524,-0.075,-0.748
525,-0.075,-0.748
526,-0.075,-0.748
527,-0.075,-0.748
528,-0.075,-0.779
529,-0.082,-0.779
530,-0.082,-0.779
531,-0.082,-0.779
532,-0.082,-0.798
533,-0.082,-0.798
534,-0.082,-0.798
535,-0.082,-0.798
536,-0.082,-0.795
537,-0.082,-0.795
538,-0.082,-0.795
539,-0.089,-0.795
540,-0.082,-0.779
541,-0.089,-0.779
542,-0.089,-0.779
543,-0.089,-0.779
544,-0.082,-0.751
545,-0.082,-0.751
546,-0.082,-0.751
547,-0.082,-0.751
548,-0.082,-0.717
549,-0.082,-0.717
550,-0.089,-0.717
551,-0.082,-0.717
552,-0.082,-0.670
553,-0.082,-0.670
554,-0.089,-0.670
555,-0.089,-0.670
556,-0.089,-0.629
557,-0.089,-0.629
558,-0.089,-0.629
559,-0.089,-0.629
560,-0.089,-0.596
561,-0.089,-0.596
562,-0.089,-0.596
563,-0.082,-0.596
564,-0.089,-0.565
565,-0.089,-0.565
566,-0.089,-0.565
567,-0.082,-0.565
568,-0.082,-0.548
569,-0.089,-0.548
570,-0.089,-0.548
571,-0.089,-0.548
572,-0.089,-0.545
573,-0.089,-0.545
574,-0.082,-0.545
575,-0.082,-0.545
576,-0.082,-0.548
577,-0.082,-0.548
578,-0.082,-0.548
579,-0.075,-0.548
580,-0.075,-0.558
581,-0.075,-0.558
582,-0.061,-0.558
583,-0.075,-0.558
584,-0.061,-0.577
585,-0.061,-0.577
586,-0.054,-0.577
587,-0.054,-0.577
588,-0.054,-0.593
589,-0.054,-0.593
590,-0.054,-0.593
591,-0.041,-0.593
592,-0.041,-0.447
593,-0.034,-0.447
594,-0.034,-0.447
595,-0.034,-0.447
596,-0.034,-0.457
597,-0.034,-0.457
598,-0.027,-0.457
599,-0.027,-0.457
600,-0.027,-0.457
601,-0.013,-0.457
602,-0.013,-0.457
603,-0.013,-0.457
604,-0.013,-0.452
605,-0.013,-0.452
606,-0.006,-0.452
607,-0.006,-0.452
608,-0.006,-0.440
609,-0.006,-0.440
610,-0.006,-0.440
611,0.001,-0.440
612,0.001,-0.423
613,0.001,-0.423
614,0.001,-0.423
615,0.007,-0.423
616,0.007,-0.396
617,0.007,-0.396
618,0.007,-0.396
619,0.001,-0.396
620,0.007,-0.362
621,0.007,-0.362
622,0.007,-0.362
623,0.014,-0.362
624,0.014,-0.324
625,0.014,-0.324
626,0.014,-0.324
627,0.007,-0.324
628,0.014,-0.287
629,0.007,-0.287
630,0.007,-0.287
631,0.007,-0.287
632,0.007,-0.245
633,0.014,-0.245
634,0.007,-0.245
635,0.007,-0.245
636,0.007,-0.202
637,0.007,-0.202
638,0.007,-0.202
639,0.007,-0.202
640,0.014,-0.166
641,0.007,-0.166
642,0.007,-0.166
643,0.007,-0.166
644,0.007,-0.127
645,0.007,-0.127
646,0.001,-0.127
647,0.007,-0.127
648,0.007,-0.095
649,0.001,-0.095
650,0.001,-0.095
651,0.001,-0.095
652,0.001,-0.061
653,0.001,-0.061
654,0.001,-0.061
655,0.001,-0.061
656,0.001,-0.042
657,0.001,-0.042
658,0.001,-0.042
659,0.001,-0.042
660,0.001,-0.019
661,-0.006,-0.019
662,-0.006,-0.019
663,-0.006,-0.019
664,-0.006,-0.007
665,-0.006,-0.007
666,-0.006,-0.007
667,-0.006,-0.007
668,-0.006,0.003
669,-0.013,0.003
670,-0.006,0.003
671,-0.006,0.003
672,-0.006,0.004
673,-0.013,0.004
674,-0.006,0.004
675,-0.006,0.004
676,-0.013,0.000
677,-0.013,0.000
678,-0.006,0.000
679,-0.013,0.000
680,-0.013,-0.007
681,-0.006,-0.007
682,-0.013,-0.007
683,-0.013,-0.007
684,-0.013,-0.019
685,-0.006,-0.019
686,-0.006,-0.019
687,-0.006,-0.019
688,-0.006,-0.034
689,-0.006,-0.034
690,-0.006,-0.034
691,-0.013,-0.034
692,-0.013,-0.056
693,-0.013,-0.056
694,-0.013,-0.056
695,-0.013,-0.056
696,-0.013,-0.078
697,-0.006,-0.078
698,-0.013,-0.078
699,-0.013,-0.078
700,-0.006,-0.100
701,-0.013,-0.100
702,-0.006,-0.100
703,-0.006,-0.100
704,-0.006,-0.127
705,-0.006,-0.127
706,-0.006,-0.127
707,-0.006,-0.127
708,-0.006,-0.151
709,-0.006,-0.151
710,-0.006,-0.151
711,0.001,-0.151
712,-0.006,-0.177
713,0.001,-0.177
714,-0.006,-0.177
715,0.001,-0.177
716,0.001,-0.202
717,0.001,-0.202
718,0.001,-0.202
719,-0.006,-0.202
720,0.001,-0.224
721,0.001,-0.224
722,0.001,-0.224
723,0.007,-0.224
724,0.001,-0.240
725,0.001,-0.240
726,0.007,-0.240
727,0.001,-0.240
728,0.001,-0.253
729,0.001,-0.253
730,0.001,-0.253
731,0.001,-0.253
732,0.007,-0.258
733,0.001,-0.258
734,0.007,-0.258
735,0.007,-0.258
736,0.007,-0.251
737,0.007,-0.251
738,0.007,-0.251
739,0.007,-0.251
740,0.007,-0.240
741,0.014,-0.240
742,0.007,-0.240
743,0.007,-0.240
744,0.007,-0.214
745,0.001,-0.214
746,0.001,-0.214
747,0.001,-0.214
748,0.007,-0.177
749,0.001,-0.177
750,0.007,-0.177
751,0.007,-0.177
752,0.007,-0.134
753,0.001,-0.134
754,0.001,-0.134
755,0.001,-0.134
756,-0.006,-0.078
757,-0.013,-0.078
758,-0.027,-0.078
759,-0.027,-0.078
760,-0.034,-0.010
761,-0.034,-0.010
762,-0.041,-0.010
763,-0.054,-0.010
764,-0.041,0.058
765,-0.041,0.058
766,-0.041,0.058
767,-0.041,0.058
768,-0.041,0.131
769,-0.041,0.131
770,-0.041,0.131
771,-0.041,0.131
772,-0.041,0.206
773,-0.041,0.206
774,-0.054,0.206
775,-0.054,0.206
776,-0.041,0.280
777,-0.041,0.280
778,-0.041,0.280
779,-0.034,0.280
780,-0.027,0.349
781,-0.013,0.349
782,-0.013,0.349
783,-0.006,0.349
784,0.001,0.408
785,0.001,0.408
786,0.007,0.408
787,0.007,0.408
788,0.007,0.462
789,0.007,0.462
790,0.014,0.462
791,0.007,0.462
792,0.014,0.503
793,0.007,0.503
794,0.007,0.503
795,0.007,0.503
796,0.007,0.537
797,0.007,0.537
798,0.007,0.537
799,0.007,0.537
800,0.007,0.556
801,0.007,0.556
802,0.007,0.556
803,0.007,0.556
804,0.001,0.566
805,0.007,0.566
806,0.007,0.566
807,0.007,0.566
808,0.007,0.561
809,0.007,0.561
810,0.007,0.561
811,0.001,0.561
812,0.007,0.549
813,0.007,0.549
814,0.014,0.549
815,0.007,0.549
816,0.007,0.522
817,0.007,0.522
818,0.007,0.522
819,0.007,0.522
820,0.007,0.490
821,0.007,0.490
822,0.007,0.490
823,0.007,0.490
824,0.007,0.452
825,0.007,0.452
826,0.014,0.452
827,0.035,0.452
828,0.062,0.406
829,0.103,0.406
830,0.158,0.406
831,0.213,0.406
832,0.282,0.354
833,0.343,0.354
834,0.405,0.354
835,0.453,0.354
836,0.480,0.303
837,0.494,0.303
838,0.494,0.303
839,0.494,0.303
840,0.487,0.247
841,0.453,0.247
842,0.391,0.247
843,0.384,0.247
844,0.384,0.194
845,0.378,0.194
846,0.378,0.194
847,0.357,0.194
848,0.329,0.141
849,0.288,0.141
850,0.268,0.141
851,0.254,0.141
852,0.233,0.087
853,0.206,0.087
854,0.158,0.087
855,0.117,0.087
856,0.083,0.034
857,0.042,0.034
858,0.014,0.034
859,-0.006,0.034
860,-0.027,-0.017
861,-0.041,-0.017
862,-0.061,-0.017
863,-0.075,-0.017
864,-0.082,-0.064
865,-0.075,-0.064
866,-0.075,-0.064
867,-0.075,-0.064
868,-0.075,-0.110
869,-0.075,-0.110
870,-0.075,-0.110
871,-0.075,-0.110
872,-0.075,-0.151
873,-0.075,-0.151
874,-0.075,-0.151
875,-0.075,-0.151
876,-0.075,-0.192
877,-0.075,-0.192
878,-0.082,-0.192
879,-0.075,-0.192
880,-0.075,-0.226
881,-0.075,-0.226
882,-0.075,-0.226
883,-0.075,-0.226
884,-0.075,-0.256
885,-0.075,-0.256
886,-0.082,-0.256
887,-0.075,-0.256
888,-0.075,-0.284
889,-0.075,-0.284
890,-0.075,-0.284
891,-0.075,-0.284
892,-0.075,-0.306
893,-0.082,-0.306
894,-0.082,-0.306
895,-0.082,-0.306
896,-0.082,-0.326
897,-0.082,-0.326
898,-0.075,-0.326
899,-0.082,-0.326
900,-0.082,-0.343
901,-0.082,-0.343
902,-0.082,-0.343
903,-0.082,-0.343
904,-0.089,-0.362
905,-0.082,-0.362
906,-0.082,-0.362
907,-0.082,-0.362
908,-0.082,-0.374
909,-0.082,-0.374
910,-0.082,-0.374
911,-0.089,-0.374
912,-0.089,-0.387
913,-0.089,-0.387
914,-0.082,-0.387
915,-0.082,-0.387
916,-0.082,-0.396
917,-0.082,-0.396
918,-0.082,-0.396
919,-0.089,-0.396
920,-0.089,-0.411
921,-0.089,-0.411
922,-0.089,-0.411
923,-0.102,-0.411
924,-0.089,-0.420
925,-0.089,-0.420
926,-0.089,-0.420
927,-0.089,-0.420
928,-0.089,-0.435
929,-0.089,-0.435
930,-0.089,-0.435
931,-0.089,-0.435
932,-0.082,-0.452
933,-0.089,-0.452
934,-0.082,-0.452
935,-0.082,-0.452
936,-0.089,-0.467
937,-0.082,-0.467
938,-0.089,-0.467
939,-0.082,-0.467
940,-0.082,-0.488
941,-0.082,-0.488
942,-0.082,-0.488
943,-0.075,-0.488
944,-0.075,-0.508
945,-0.075,-0.508
946,-0.075,-0.508
947,-0.061,-0.508
948,-0.061,-0.525
949,-0.061,-0.525
950,-0.061,-0.525
951,-0.054,-0.525
952,-0.054,-0.544
953,-0.054,-0.544
954,-0.054,-0.544
955,-0.041,-0.544
956,-0.041,-0.561
957,-0.041,-0.561
958,-0.041,-0.561
959,-0.034,-0.561
960,-0.034,-0.574
961,-0.034,-0.574
962,-0.034,-0.574
963,-0.027,-0.574
964,-0.027,-0.579
965,-0.027,-0.579
966,-0.013,-0.579
967,-0.013,-0.579
968,-0.013,-0.579
969,-0.013,-0.579
970,-0.013,-0.579
971,-0.013,-0.579
972,-0.006,-0.571
973,-0.006,-0.571
974,-0.006,-0.571
975,-0.006,-0.571
976,0.001,-0.554
977,0.001,-0.554
978,0.001,-0.554
979,0.001,-0.554
980,0.001,-0.534
981,0.001,-0.534
982,0.007,-0.534
983,0.007,-0.534
984,0.007,-0.505
985,0.007,-0.505
986,0.007,-0.505
987,0.007,-0.505
988,0.007,-0.471
989,0.007,-0.471
990,0.007,-0.471
991,0.007,-0.471
992,0.014,-0.438
993,0.014,-0.438
994,0.014,-0.438
995,0.014,-0.438
996,0.014,-0.399
997,0.007,-0.399
998,0.007,-0.399
999,0.007,-0.399
1000,0.007,-0.362
1001,0.007,-0.362
1002,0.007,-0.362
1003,0.007,-0.362
1004,0.007,-0.328
1005,0.007,-0.328
1006,0.007,-0.328
1007,0.007,-0.328
1008,0.001,-0.291
1009,0.007,-0.291
1010,0.007,-0.291
1011,0.001,-0.291
1012,0.001,-0.265
1013,0.001,-0.265
1014,0.001,-0.265
1015,0.001,-0.265
1016,0.001,-0.236
1017,0.001,-0.236
1018,0.001,-0.236
1019,-0.006,-0.236
1020,-0.006,-0.211
1021,-0.006,-0.211
1022,-0.006,-0.211
1023,0.001,-0.211
1024,0.001,-0.195
1025,-0.006,-0.195
1026,-0.006,-0.195
1027,-0.006,-0.195
1028,0.001,-0.180
1029,-0.006,-0.180
1030,-0.006,-0.180
1031,-0.006,-0.180
1032,-0.013,-0.166
1033,-0.006,-0.166
1034,-0.013,-0.166
1035,-0.006,-0.166
1036,-0.006,-0.161
1037,-0.013,-0.161
1038,-0.006,-0.161
1039,-0.013,-0.161
1040,-0.006,-0.161
1041,-0.006,-0.161
1042,-0.006,-0.161
1043,-0.006,-0.161
1044,-0.013,-0.166
1045,-0.013,-0.166
1046,-0.013,-0.166
1047,-0.013,-0.166
1048,-0.013,-0.172
1049,-0.006,-0.172
1050,-0.013,-0.172
1051,-0.013,-0.172
1052,-0.006,-0.182
1053,-0.013,-0.182
1054,-0.013,-0.182
1055,-0.013,-0.182
1056,-0.006,-0.202
1057,-0.013,-0.202
1058,-0.006,-0.202
1059,-0.006,-0.202
1060,-0.006,-0.219
1061,-0.013,-0.219
1062,-0.006,-0.219
1063,-0.013,-0.219
1064,-0.006,-0.240
1065,-0.006,-0.240
1066,-0.013,-0.240
1067,-0.006,-0.240
1068,-0.006,-0.265
1069,-0.006,-0.265
1070,-0.006,-0.265
1071,-0.006,-0.265
1072,-0.006,-0.289
1073,-0.006,-0.289
1074,-0.006,-0.289
1075,0.001,-0.289
1076,-0.006,-0.308
1077,-0.006,-0.308
1078,-0.006,-0.308
1079,-0.006,-0.308
1080,0.001,-0.331
1081,-0.006,-0.331
1082,-0.006,-0.331
1083,-0.006,-0.331
1084,0.001,-0.347
1085,0.001,-0.347
1086,0.001,-0.347
1087,0.001,-0.347
1088,0.001,-0.360
1089,0.001,-0.360
1090,0.001,-0.360
1091,0.001,-0.360
1092,0.001,-0.369
1093,-0.006,-0.369
1094,0.001,-0.369
1095,0.001,-0.369
1096,0.001,-0.372
1097,0.001,-0.372
1098,0.001,-0.372
1099,0.001,-0.372
1100,0.001,-0.364
1101,0.001,-0.364
1102,0.007,-0.364
1103,0.007,-0.364
1104,0.007,-0.340
1105,0.007,-0.340
1106,0.007,-0.340
1107,0.007,-0.340
1108,0.007,-0.316
1109,0.007,-0.316
1110,0.001,-0.316
1111,0.001,-0.316
1112,0.001,-0.281
1113,0.001,-0.281
1114,0.001,-0.281
1115,0.001,-0.281
1116,0.007,-0.240
1117,0.001,-0.240
1118,0.007,-0.240
1119,0.001,-0.240
1120,0.001,-0.182
1121,-0.006,-0.182
1122,-0.013,-0.182
1123,-0.027,-0.182
1124,-0.034,-0.121
1125,-0.041,-0.121
1126,-0.041,-0.121
1127,-0.041,-0.121
1128,-0.041,-0.053
1129,-0.054,-0.053
1130,-0.054,-0.053
1131,-0.054,-0.053
1132,-0.054,0.017
1133,-0.054,0.017
1134,-0.041,0.017
1135,-0.041,0.017
1136,-0.041,0.095
1137,-0.041,0.095
1138,-0.054,0.095
1139,-0.054,0.095
1140,-0.054,0.166
1141,-0.041,0.166
1142,-0.041,0.166
1143,-0.041,0.166
1144,-0.034,0.231
1145,-0.027,0.231
1146,-0.027,0.231
1147,-0.013,0.231
1148,-0.013,0.291
1149,-0.006,0.291
1150,0.001,0.291
1151,0.007,0.291
1152,0.007,0.347
1153,0.007,0.347
1154,0.007,0.347
1155,0.007,0.347
1156,0.007,0.389
1157,0.007,0.389
1158,0.007,0.389
1159,0.007,0.389
1160,0.007,0.425
1161,0.007,0.425
1162,0.007,0.425
1163,0.007,0.425
1164,0.007,0.445
1165,0.007,0.445
1166,0.007,0.445
1167,0.007,0.445
1168,0.007,0.457
1169,0.007,0.457
1170,0.007,0.457
1171,0.007,0.457
1172,0.007,0.452
1173,0.007,0.452
1174,0.007,0.452
1175,0.007,0.452
1176,0.007,0.443
1177,0.001,0.443
1178,0.001,0.443
1179,0.007,0.443
1180,0.007,0.423
1181,0.007,0.423
1182,0.007,0.423
1183,0.014,0.423
1184,0.007,0.394
1185,0.007,0.394
1186,0.007,0.394
1187,0.007,0.394
1188,0.007,0.359
1189,0.007,0.359
1190,0.014,0.359
1191,0.007,0.359
1192,0.028,0.326
1193,0.055,0.326
1194,0.083,0.326
1195,0.131,0.326
1196,0.186,0.287
1197,0.254,0.287
1198,0.316,0.287
1199,0.384,0.287
1200,0.439,0.245
1201,0.467,0.245
1202,0.487,0.245
1203,0.494,0.245
1204,0.487,0.204
1205,0.487,0.204
1206,0.467,0.204
1207,0.418,0.204
1208,0.378,0.168
1209,0.384,0.168
1210,0.378,0.168
1211,0.378,0.168
1212,0.364,0.129
1213,0.336,0.129
1214,0.309,0.129
1215,0.282,0.129
1216,0.261,0.092
1217,0.254,0.092
1218,0.227,0.092
1219,0.186,0.092
1220,0.138,0.051
1221,0.103,0.051
1222,0.062,0.051
1223,0.028,0.051
1224,0.001,0.017
1225,-0.027,0.017
1226,-0.041,0.017
1227,-0.054,0.017
1228,-0.061,-0.026
1229,-0.082,-0.026
1230,-0.082,-0.026
1231,-0.075,-0.026
1232,-0.075,-0.066
1233,-0.075,-0.066
1234,-0.075,-0.066
1235,-0.075,-0.066
1236,-0.082,-0.104
1237,-0.082,-0.104
1238,-0.082,-0.104
1239,-0.082,-0.104
1240,-0.075,-0.139
1241,-0.082,-0.139
1242,-0.075,-0.139
1243,-0.075,-0.139
1244,-0.075,-0.172
1245,-0.075,-0.172
1246,-0.075,-0.172
1247,-0.075,-0.172
1248,-0.075,-0.209
1249,-0.075,-0.209
1250,-0.075,-0.209
1251,-0.075,-0.209
1252,-0.082,-0.235
1253,-0.082,-0.235
1254,-0.082,-0.235
1255,-0.082,-0.235
1256,-0.075,-0.267
1257,-0.075,-0.267
1258,-0.075,-0.267
1259,-0.082,-0.267
1260,-0.082,-0.296
1261,-0.082,-0.296
1262,-0.082,-0.296
1263,-0.082,-0.296
1264,-0.082,-0.328
1265,-0.082,-0.328
1266,-0.082,-0.328
1267,-0.089,-0.328
1268,-0.089,-0.359
1269,-0.089,-0.359
1270,-0.089,-0.359
1271,-0.089,-0.359
1272,-0.089,-0.391
1273,-0.089,-0.391
1274,-0.089,-0.391
1275,-0.089,-0.391
1276,-0.089,-0.422
1277,-0.089,-0.422
1278,-0.089,-0.422
1279,-0.089,-0.422
1280,-0.089,-0.454
1281,-0.089,-0.454
1282,-0.089,-0.454
1283,-0.089,-0.454
1284,-0.089,-0.483
1285,-0.089,-0.483
1286,-0.089,-0.483
1287,-0.089,-0.483
1288,-0.089,-0.507
1289,-0.089,-0.507
1290,-0.089,-0.507
1291,-0.089,-0.507
1292,-0.082,-0.537
1293,-0.089,-0.537
1294,-0.082,-0.537
1295,-0.089,-0.537
1296,-0.089,-0.558
1297,-0.082,-0.558
1298,-0.089,-0.558
1299,-0.089,-0.558
1300,-0.082,-0.576
1301,-0.082,-0.576
1302,-0.089,-0.576
1303,-0.089,-0.576
1304,-0.082,-0.595
1305,-0.082,-0.595
1306,-0.082,-0.595
1307,-0.082,-0.595
1308,-0.082,-0.612
1309,-0.082,-0.612
1310,-0.075,-0.612
1311,-0.075,-0.612
1312,-0.075,-0.626
1313,-0.075,-0.626
1314,-0.061,-0.626
1315,-0.061,-0.626
1316,-0.061,-0.643
1317,-0.054,-0.643
1318,-0.054,-0.643
1319,-0.054,-0.643
1320,-0.041,-0.653
1321,-0.041,-0.653
1322,-0.041,-0.653
1323,-0.041,-0.653
1324,-0.034,-0.661
1325,-0.034,-0.661
1326,-0.034,-0.661
1327,-0.034,-0.661
1328,-0.034,-0.663
1329,-0.027,-0.663
1330,-0.027,-0.663
1331,-0.027,-0.663
1332,-0.027,-0.656
1333,-0.027,-0.656
1334,-0.013,-0.656
1335,-0.013,-0.656
1336,-0.013,-0.646
1337,-0.013,-0.646
1338,-0.013,-0.646
1339,-0.006,-0.646
1340,-0.006,-0.629
1341,-0.006,-0.629
1342,-0.006,-0.629
1343,0.001,-0.629
1344,0.001,-0.605
1345,0.001,-0.605
1346,0.001,-0.605
1347,0.001,-0.605
1348,0.001,-0.574
1349,0.001,-0.574
1350,0.007,-0.574
1351,0.007,-0.574
1352,0.007,-0.539
1353,0.007,-0.539
1354,0.007,-0.539
1355,0.007,-0.539
1356,0.007,-0.505
1357,0.007,-0.505
1358,0.007,-0.505
1359,0.007,-0.505
1360,0.007,-0.378
1361,0.007,-0.378
1362,0.007,-0.378
1363,0.007,-0.378
1364,0.014,-0.345
1365,0.007,-0.345
1366,0.007,-0.345
1367,0.007,-0.345
1368,0.007,-0.312
1369,0.007,-0.312
1370,0.007,-0.312
1371,0.007,-0.312
1372,0.007,-0.282
1373,0.007,-0.282
1374,0.007,-0.282
1375,0.007,-0.282
1376,0.001,-0.252
1377,0.001,-0.252
1378,0.001,-0.252
1379,0.001,-0.252
1380,0.001,-0.228
1381,0.001,-0.228
1382,0.001,-0.228
1383,0.001,-0.228
1384,0.001,-0.203
1385,0.001,-0.203
1386,-0.006,-0.203
1387,-0.006,-0.203
1388,0.001,-0.183
1389,-0.006,-0.183
1390,0.001,-0.183
1391,0.001,-0.183
1392,-0.006,-0.168
1393,-0.006,-0.168
1394,-0.006,-0.168
1395,-0.006,-0.168
1396,-0.006,-0.155
1397,-0.006,-0.155
1398,-0.006,-0.155
1399,-0.006,-0.155
1400,-0.006,-0.148
1401,-0.006,-0.148
1402,-0.006,-0.148
1403,-0.006,-0.148
1404,-0.006,-0.144
1405,-0.006,-0.144
1406,-0.006,-0.144
1407,-0.006,-0.144
1408,-0.013,-0.144
1409,-0.013,-0.144
1410,-0.013,-0.144
1411,-0.013,-0.144
1412,-0.013,-0.150
1413,-0.013,-0.150
1414,-0.013,-0.150
1415,-0.013,-0.150
1416,-0.006,-0.158
1417,-0.013,-0.158
1418,-0.013,-0.158
1419,-0.013,-0.158
1420,-0.013,-0.171
1421,-0.013,-0.171
1422,-0.013,-0.171
1423,-0.006,-0.171
1424,-0.013,-0.183
1425,-0.013,-0.183
1426,-0.006,-0.183
1427,-0.013,-0.183
1428,-0.013,-0.199
1429,-0.013,-0.199
1430,-0.013,-0.199
1431,-0.006,-0.199
1432,-0.006,-0.216
1433,-0.013,-0.216
1434,-0.013,-0.216
1435,-0.006,-0.216
1436,-0.006,-0.236
1437,-0.006,-0.236
1438,-0.006,-0.236
1439,-0.006,-0.236
1440,-0.006,-0.254
1441,-0.006,-0.254
1442,-0.006,-0.254
1443,0.001,-0.254
1444,-0.006,-0.276
1445,0.001,-0.276
1446,0.001,-0.276
1447,0.001,-0.276
1448,0.001,-0.290
1449,0.001,-0.290
1450,0.001,-0.290
1451,0.001,-0.290
1452,0.001,-0.304
1453,0.001,-0.304
1454,0.001,-0.304
1455,0.001,-0.304
1456,0.001,-0.317
1457,0.001,-0.317
1458,0.001,-0.317
1459,0.001,-0.317
1460,0.001,-0.324
1461,0.001,-0.324
1462,-0.006,-0.324
1463,0.001,-0.324
1464,0.001,-0.324
1465,0.001,-0.324
1466,0.007,-0.324
1467,0.001,-0.324
1468,0.007,-0.315
1469,0.007,-0.315
1470,0.014,-0.315
1471,0.014,-0.315
1472,0.007,-0.297
1473,0.007,-0.297
1474,0.001,-0.297
1475,0.007,-0.297
1476,0.007,-0.269
1477,0.001,-0.269
1478,0.001,-0.269
1479,0.001,-0.269
1480,0.001,-0.234
1481,0.001,-0.234
1482,0.001,-0.234
1483,0.001,-0.234
1484,0.007,-0.185
1485,0.001,-0.185
1486,-0.006,-0.185
1487,-0.006,-0.185
1488,-0.013,-0.131
1489,-0.027,-0.131
1490,-0.027,-0.131
1491,-0.034,-0.131
1492,-0.041,-0.070
1493,-0.041,-0.070
1494,-0.041,-0.070
1495,-0.041,-0.070
1496,-0.041,-0.002
1497,-0.041,-0.002
1498,-0.041,-0.002
1499,-0.041,-0.002
1500,-0.041,0.066
1501,-0.041,0.066
1502,-0.041,0.066
1503,-0.054,0.066
1504,-0.041,0.136
1505,-0.041,0.136
1506,-0.054,0.136
1507,-0.054,0.136
1508,-0.041,0.203
1509,-0.034,0.203
1510,-0.034,0.203
1511,-0.027,0.203
1512,-0.006,0.270
1513,-0.006,0.270
1514,0.001,0.270
1515,0.007,0.270
1516,0.001,0.331
1517,0.007,0.331
1518,0.007,0.331
1519,0.007,0.331
1520,0.007,0.383
1521,0.007,0.383
1522,0.007,0.383
1523,0.007,0.383
1524,0.014,0.427
1525,0.007,0.427
1526,0.007,0.427
1527,0.007,0.427
1528,0.007,0.462
1529,0.007,0.462
1530,0.007,0.462
1531,0.007,0.462
1532,0.007,0.488
1533,0.007,0.488
1534,0.007,0.488
1535,0.001,0.488
1536,0.007,0.501
1537,0.007,0.501
1538,0.007,0.501
1539,0.007,0.501
1540,0.001,0.505
1541,0.007,0.505
1542,0.007,0.505
1543,0.007,0.505
1544,0.007,0.499
1545,0.007,0.499
1546,0.001,0.499
1547,0.007,0.499
1548,0.007,0.479
1549,0.007,0.479
1550,0.007,0.479
1551,0.007,0.479
1552,0.007,0.451
1553,0.007,0.451
1554,0.007,0.451
1555,0.007,0.451
1556,0.007,0.416
1557,0.014,0.416
1558,0.028,0.416
1559,0.062,0.416
1560,0.103,0.372
1561,0.151,0.372
1562,0.206,0.372
1563,0.268,0.372
1564,0.343,0.322
1565,0.405,0.322
1566,0.453,0.322
1567,0.480,0.322
1568,0.487,0.267
1569,0.494,0.267
1570,0.487,0.267
1571,0.480,0.267
1572,0.453,0.214
1573,0.405,0.214
1574,0.378,0.214
1575,0.378,0.214
1576,0.378,0.155
1577,0.378,0.155
1578,0.357,0.155
1579,0.329,0.155
1580,0.302,0.099
1581,0.268,0.099
1582,0.254,0.099
1583,0.240,0.099
1584,0.213,0.040
1585,0.179,0.040
1586,0.131,0.040
1587,0.090,0.040
1588,0.042,-0.018
1589,0.014,-0.018
1590,0.001,-0.018
1591,-0.027,-0.018
1592,-0.041,-0.068
1593,-0.061,-0.068
1594,-0.082,-0.068
1595,-0.082,-0.068
1596,-0.089,-0.118
1597,-0.075,-0.118
1598,-0.075,-0.118
1599,-0.075,-0.118
1600,-0.075,-0.162
1601,-0.075,-0.162
1602,-0.082,-0.162
1603,-0.075,-0.162
1604,-0.075,-0.203
1605,-0.075,-0.203
1606,-0.075,-0.203
1607,-0.075,-0.203
1608,-0.075,-0.236
1609,-0.075,-0.236
1610,-0.082,-0.236
1611,-0.075,-0.236
1612,-0.075,-0.260
1613,-0.075,-0.260
1614,-0.075,-0.260
1615,-0.075,-0.260
1616,-0.075,-0.238
1617,-0.075,-0.238
1618,-0.075,-0.238
1619,-0.075,-0.238
1620,-0.082,-0.254
1621,-0.075,-0.254
1622,-0.075,-0.254
1623,-0.082,-0.254
1624,-0.082,-0.265
1625,-0.075,-0.265
1626,-0.082,-0.265
1627,-0.082,-0.265
1628,-0.082,-0.271
1629,-0.082,-0.271
1630,-0.082,-0.271
1631,-0.082,-0.271
1632,-0.082,-0.276
1633,-0.082,-0.276
1634,-0.082,-0.276
1635,-0.082,-0.276
1636,-0.089,-0.280
1637,-0.089,-0.280
1638,-0.089,-0.280
1639,-0.089,-0.280
1640,-0.089,-0.288
1641,-0.082,-0.288
1642,-0.089,-0.288
1643,-0.089,-0.288
1644,-0.089,-0.297
1645,-0.089,-0.297
1646,-0.089,-0.297
1647,-0.089,-0.297
1648,-0.089,-0.313
1649,-0.089,-0.313
1650,-0.089,-0.313
1651,-0.089,-0.313
1652,-0.089,-0.326
1653,-0.089,-0.326
1654,-0.089,-0.326
1655,-0.089,-0.326
1656,-0.089,-0.344
1657,-0.089,-0.344
1658,-0.089,-0.344
1659,-0.089,-0.344
1660,-0.089,-0.365
1661,-0.102,-0.365
1662,-0.089,-0.365
1663,-0.082,-0.365
1664,-0.089,-0.387
1665,-0.089,-0.387
1666,-0.089,-0.387
1667,-0.089,-0.387
1668,-0.089,-0.413
1669,-0.082,-0.413
1670,-0.082,-0.413
1671,-0.082,-0.413
1672,-0.082,-0.438
1673,-0.082,-0.438
1674,-0.082,-0.438
1675,-0.082,-0.438
1676,-0.075,-0.468
1677,-0.075,-0.468
1678,-0.075,-0.468
1679,-0.061,-0.468
1680,-0.075,-0.501
1681,-0.061,-0.501
1682,-0.061,-0.501
1683,-0.054,-0.501
1684,-0.054,-0.527
1685,-0.054,-0.527
1686,-0.054,-0.527
1687,-0.041,-0.527
1688,-0.041,-0.558
1689,-0.041,-0.558
1690,-0.041,-0.558
1691,-0.034,-0.558
1692,-0.034,-0.584
1693,-0.034,-0.584
1694,-0.034,-0.584
1695,-0.034,-0.584
1696,-0.027,-0.604
1697,-0.027,-0.604
1698,-0.013,-0.604
1699,-0.013,-0.604
1700,-0.013,-0.619
1701,-0.013,-0.619
1702,-0.013,-0.619
1703,-0.013,-0.619
1704,-0.006,-0.628
1705,-0.006,-0.628
1706,-0.006,-0.628
1707,-0.006,-0.628
1708,-0.006,-0.625
1709,-0.006,-0.625
1710,-0.006,-0.625
1711,0.001,-0.625
1712,0.001,-0.619
1713,0.007,-0.619
1714,0.007,-0.619
1715,0.007,-0.619
1716,0.001,-0.595
1717,0.007,-0.595
1718,0.007,-0.595
1719,0.007,-0.595
1720,0.007,-0.565
1721,0.007,-0.565
1722,0.007,-0.565
1723,0.007,-0.565
1724,0.014,-0.525
1725,0.007,-0.525
1726,0.007,-0.525
1727,0.007,-0.525
1728,0.007,-0.481
1729,0.007,-0.481
1730,0.007,-0.481
1731,0.007,-0.481
1732,0.007,-0.435
1733,0.007,-0.435
1734,0.007,-0.435
1735,0.007,-0.435
1736,0.007,-0.387
1737,0.001,-0.387
1738,0.001,-0.387
1739,0.001,-0.387
1740,0.001,-0.348
1741,0.001,-0.348
1742,0.001,-0.348
1743,0.001,-0.348
1744,0.001,-0.317
1745,0.001,-0.317
1746,0.001,-0.317
1747,0.001,-0.317
1748,0.001,-0.297
1749,0.001,-0.297
1750,0.001,-0.297
1751,0.001,-0.297
1752,-0.006,-0.293
1753,-0.006,-0.293
1754,-0.006,-0.293
1755,-0.006,-0.293
1756,-0.006,-0.306
1757,-0.006,-0.306
1758,-0.006,-0.306
1759,-0.006,-0.306
1760,-0.006,-0.333
1761,-0.006,-0.333
1762,-0.006,-0.333
1763,-0.006,-0.333
1764,-0.006,-0.372
1765,-0.006,-0.372
1766,-0.006,-0.372
1767,-0.006,-0.372
1768,-0.006,-0.422
1769,-0.006,-0.422
1770,-0.013,-0.422
1771,-0.013,-0.422
1772,-0.006,-0.488
1773,-0.013,-0.488
1774,-0.013,-0.488
1775,-0.013,-0.488
1776,-0.013,-0.562
1777,-0.013,-0.562
1778,-0.013,-0.562
1779,-0.013,-0.562
1780,-0.013,-0.645
1781,-0.013,-0.645
1782,-0.013,-0.645
1783,-0.027,-0.645
1784,-0.013,-0.746
1785,-0.027,-0.746
1786,-0.027,-0.746
1787,-0.027,-0.746
1788,-0.013,-0.864
1789,-0.013,-0.864
1790,-0.013,-0.864
1791,-0.013,-0.864
1792,-0.013,-1.004
1793,-0.013,-1.004
1794,-0.013,-1.004
1795,-0.013,-1.004
1796,-0.013,-
1797,-0.006,-
1798,-0.013,-
1799,-0.013,-
1800,-0.013,-
1801,-0.013,-
1802,-0.013,-
1803,-0.013,-
1804,-0.013,-
1805,-0.013,-
1806,-0.006,-
1807,-0.006,-
1808,-0.013,-
1809,-0.006,-
1810,-0.013,-
1811,-0.013,-
1812,-0.006,-
1813,-0.006,-
1814,-0.006,-
1815,-0.006,-
1816,-0.013,-
1817,-0.006,-
1818,-0.006,-
1819,-0.006,-
1820,-0.006,-
1821,-0.006,-
1822,-0.006,-
1823,-0.006,-
1824,-0.006,-
1825,0.001,-
1826,0.001,-
1827,-0.006,-
1828,-0.006,-
1829,-0.006,-
1830,0.001,-
1831,0.001,-
1832,0.001,-
1833,0.001,-
1834,0.001,-
1835,0.007,-
1836,0.001,-
1837,0.007,-
1838,0.007,-
1839,0.001,-
1840,0.001,-
1841,0.001,-
1842,0.001,-
1843,0.001,-
1844,-0.006,-
1845,-0.006,-
1846,0.001,-
1847,0.001,-
1848,0.001,-
1849,0.001,-
1850,0.001,-
1851,0.001,-
1852,-0.006,-
1853,-0.013,-
1854,-0.027,-
1855,-0.034,-
1856,-0.034,-
1857,-0.034,-
1858,-0.041,-
1859,-0.041,-
1860,-0.041,-
1861,-0.034,-
1862,-0.041,-
1863,-0.034,-
1864,-0.041,-
1865,-0.027,-
1866,-0.034,-
1867,-0.034,-
1868,-0.034,-
1869,-0.041,-
1870,-0.034,-
1871,-0.041,-
1872,-0.041,-
1873,-0.041,-
1874,-0.034,-
1875,-0.027,-
1876,-0.027,-
1877,-0.013,-
1878,-0.013,-
1879,-0.006,-
1880,0.001,-
1881,0.001,-
1882,0.007,-
1883,0.007,-
1884,0.014,-
1885,0.007,-
1886,0.014,-
1887,0.014,-
1888,0.014,-
1889,0.014,-
1890,0.007,-
1891,0.014,-
1892,0.014,-
1893,0.014,-
1894,0.014,-
1895,0.007,-
1896,0.007,-
1897,0.014,-
1898,0.014,-
1899,0.007,-
1900,0.014,-
1901,0.014,-
1902,0.014,-
1903,0.007,-
1904,0.007,-
1905,0.014,-
1906,0.014,-
1907,0.007,-
1908,0.007,-
1909,0.007,-
1910,0.014,-
1911,0.007,-
1912,0.007,-
1913,0.007,-
1914,0.007,-
1915,0.014,-
1916,0.007,-
1917,0.007,-
1918,0.014,-
1919,0.014,-
1920,0.014,-
1921,0.014,-
1922,0.014,-
1923,0.028,-
1924,0.055,-
1925,0.083,-
1926,0.131,-
1927,0.186,-
1928,0.254,-
1929,0.316,-
1930,0.378,-
1931,0.432,-
1932,0.460,-
1933,0.480,-
1934,0.480,-
1935,0.480,-
1936,0.467,-
1937,0.439,-
1938,0.405,-
1939,0.357,-
1940,0.357,-0.987
1941,0.357,-0.987
1942,0.357,-0.987
1943,0.329,-0.987
1944,0.302,-0.783
1945,0.268,-0.783
1946,0.240,-0.783
1947,0.227,-0.783
1948,0.206,-0.560
1949,0.186,-0.560
1950,0.138,-0.560
1951,0.103,-0.560
1952,0.062,-0.335
1953,0.028,-0.335
1954,0.001,-0.335
1955,-0.013,-0.335
1956,-0.041,-0.114
1957,-0.061,-0.114
1958,-0.075,-0.114
1959,-0.082,-0.114
1960,-0.082,0.089
1961,-0.082,0.089
1962,-0.082,0.089
1963,-0.075,0.089
1964,-0.075,0.272
1965,-0.082,0.272
1966,-0.075,0.272
1967,-0.082,0.272
1968,-0.075,0.429
1969,-0.075,0.429
1970,-0.075,0.429
1971,-0.075,0.429
1972,-0.075,0.560
1973,-0.075,0.560
1974,-0.075,0.560
1975,-0.075,0.560
1976,-0.075,0.669
1977,-0.075,0.669
1978,-0.075,0.669
1979,-0.075,0.669
1980,-0.075,0.757
1981,-0.075,0.757
1982,-0.075,0.757
1983,-0.075,0.757
1984,-0.075,0.829
1985,-0.075,0.829
1986,-0.075,0.829
1987,-0.075,0.829
1988,-0.075,0.888
1989,-0.075,0.888
1990,-0.075,0.888
1991,-0.075,0.888
1992,-0.075,0.939
1993,-0.082,0.939
1994,-0.082,0.939
1995,-0.082,0.939
1996,-0.082,0.982
1997,-0.082,0.982
1998,-0.082,0.982
1999,-0.082,0.982
2000,-0.082,1.020
2001,-0.082,1.020
2002,-0.082,1.020
2003,-0.089,1.020
2004,-0.082,1.024
2005,-0.082,1.024
2006,-0.082,1.024
2007,-0.082,1.024
2008,-0.082,1.024
2009,-0.089,1.024
2010,-0.089,1.024
2011,-0.089,1.024
2012,-0.089,1.024
2013,-0.089,1.024
2014,-0.082,1.024
2015,-0.082,1.024
2016,-0.089,1.024
2017,-0.089,1.024
2018,-0.089,1.024
2019,-0.089,1.024
2020,-0.089,1.024
2021,-0.089,1.024
2022,-0.089,1.024
2023,-0.089,1.024
2024,-0.089,1.024
2025,-0.082,1.024
2026,-0.089,1.024
2027,-0.089,1.024
2028,-0.089,1.024
2029,-0.089,1.024
2030,-0.082,1.024
2031,-0.089,1.024
2032,-0.082,1.024
2033,-0.082,1.024
2034,-0.082,1.024
2035,-0.082,1.024
2036,-0.082,1.024
2037,-0.082,1.024
2038,-0.082,1.024
2039,-0.075,1.024
2040,-0.075,1.024
2041,-0.075,1.024
2042,-0.075,1.024
2043,-0.075,1.024
2044,-0.061,1.024
2045,-0.075,1.024
2046,-0.061,1.024
2047,-0.054,1.024
2048,-0.054,1.024
2049,-0.054,1.024
2050,-0.054,1.024
2051,-0.041,1.024
2052,-0.041,1.024
2053,-0.041,1.024
2054,-0.041,1.024
2055,-0.041,1.024
2056,-0.034,1.024
2057,-0.034,1.024
2058,-0.034,1.024
2059,-0.027,1.024
2060,-0.027,1.024
2061,-0.027,1.024
2062,-0.027,1.024
2063,-0.006,1.024
2064,-0.013,1.024
2065,-0.013,1.024
2066,-0.013,1.024
2067,-0.013,1.024
2068,-0.006,1.024
2069,-0.006,1.024
2070,-0.006,1.024
2071,0.001,1.024
2072,0.001,1.024
2073,0.001,1.024
2074,0.001,1.024
2075,0.001,1.024
2076,0.001,1.024
2077,0.001,1.024
2078,0.001,1.024
2079,0.007,1.024
2080,0.007,1.024
2081,0.007,1.024
2082,0.014,1.024
2083,0.014,1.024
2084,0.014,1.024
2085,0.007,1.024
2086,0.014,1.024
2087,0.014,1.024
2088,0.014,1.024
2089,0.007,1.024
2090,0.007,1.024
2091,0.007,1.024
2092,0.014,1.024
2093,0.007,1.024
2094,0.007,1.024
2095,0.014,1.024
2096,0.014,1.000
2097,0.007,1.000
2098,0.014,1.000
2099,0.014,1.000
2100,0.007,0.952
2101,0.007,0.952
2102,0.007,0.952
2103,0.007,0.952
2104,0.007,0.888
2105,0.007,0.888
2106,0.001,0.888
2107,0.007,0.888
2108,0.001,0.809
2109,0.001,0.809
2110,0.001,0.809
2111,0.001,0.809
2112,0.001,0.716
2113,0.001,0.716
2114,0.001,0.716
2115,0.007,0.716
2116,0.001,0.608
2117,0.001,0.608
2118,0.001,0.608
2119,0.001,0.608
2120,-0.006,0.490
2121,0.001,0.490
2122,-0.006,0.490
2123,0.001,0.490
2124,0.001,0.367
2125,-0.006,0.367
2126,-0.006,0.367
2127,-0.006,0.367
2128,-0.006,0.234
2129,-0.006,0.234
2130,-0.006,0.234
2131,-0.013,0.234
2132,-0.006,0.099
2133,-0.006,0.099
2134,-0.006,0.099
2135,-0.006,0.099
2136,-0.006,-0.042
2137,-0.006,-0.042
2138,-0.006,-0.042
2139,-0.013,-0.042
2140,0.001,-0.181
2141,-0.006,-0.181
2142,-0.006,-0.181
2143,-0.006,-0.181
2144,-0.013,-0.324
2145,-0.013,-0.324
2146,-0.006,-0.324
2147,-0.006,-0.324
2148,-0.006,-0.462
2149,-0.013,-0.462
2150,-0.006,-0.462
2151,-0.013,-0.462
2152,-0.006,-0.600
2153,-0.013,-0.600
2154,-0.013,-0.600
2155,-0.013,-0.600
2156,-0.006,-0.737
2157,-0.006,-0.737
2158,-0.006,-0.737
2159,-0.006,-0.737
2160,-0.006,-0.871
2161,-0.006,-0.871
2162,-0.006,-0.871
2163,-0.006,-0.871
2164,-0.006,-1.004
2165,-0.013,-1.004
2166,-0.006,-1.004
2167,-0.006,-1.004
2168,-0.006,-
2169,-0.006,-
2170,-0.006,-
2171,-0.006,-
2172,-0.006,-
2173,-0.006,-
2174,-0.006,-
2175,-0.006,-
2176,-0.006,-
2177,-0.006,-
2178,0.001,-
2179,0.001,-
2180,0.001,-
2181,0.001,-
2182,0.001,-
2183,0.001,-
2184,0.001,-
2185,0.001,-
2186,0.001,-
2187,0.001,-
2188,0.001,-
2189,0.001,-
2190,0.001,-
2191,0.001,-
2192,0.001,-
2193,0.001,-
2194,0.001,-
2195,0.001,-
2196,0.001,-
2197,0.001,-
2198,0.001,-
2199,0.001,-
2200,0.007,-
2201,0.007,-
2202,0.007,-
2203,0.007,-
2204,0.007,-
2205,0.007,-
2206,0.001,-
2207,0.001,-
2208,0.001,-
2209,0.001,-
2210,0.007,-
2211,0.007,-
2212,0.001,-
2213,0.007,-
2214,0.001,-
2215,0.007,-
2216,0.007,-
2217,0.001,-
2218,-0.006,-
2219,-0.006,-
2220,-0.013,-
2221,-0.027,-
2222,-0.027,-
2223,-0.013,-
2224,-0.027,-
2225,-0.027,-
2226,-0.034,-
2227,-0.034,-
2228,-0.034,-
2229,-0.034,-
2230,-0.034,-
2231,-0.041,-
2232,-0.034,-
2233,-0.034,-
2234,-0.034,-
2235,-0.034,-
2236,-0.041,-
2237,-0.041,-
2238,-0.041,-
2239,-0.034,-
2240,-0.034,-
2241,-0.027,-
2242,-0.027,-
2243,-0.013,-
2244,-0.013,-
2245,-0.006,-
2246,0.001,-
2247,0.001,-
2248,0.007,-
2249,0.014,-
2250,0.014,-
2251,0.014,-
2252,0.007,-0.971
2253,0.014,-0.971
2254,0.014,-0.971
2255,0.014,-0.971
2256,0.028,-0.713
2257,0.014,-0.713
2258,0.014,-0.713
2259,0.014,-0.713
2260,0.014,-0.446
2261,0.014,-0.446
2262,0.014,-0.446
2263,0.014,-0.446
2264,0.014,-0.173
2265,0.014,-0.173
2266,0.014,-0.173
2267,0.014,-0.173
2268,0.014,0.097
2269,0.014,0.097
2270,0.014,0.097
2271,0.014,0.097
2272,0.014,0.365
2273,0.014,0.365
2274,0.014,0.365
2275,0.014,0.365
2276,0.014,0.619
2277,0.014,0.619
2278,0.014,0.619
2279,0.014,0.619
2280,0.014,0.853
2281,0.014,0.853
2282,0.014,0.853
2283,0.014,0.853
2284,0.014,1.024
2285,0.014,1.024
2286,0.014,1.024
2287,0.028,1.024
2288,0.014,1.024
2289,0.035,1.024
2290,0.055,1.024
2291,0.083,1.024
2292,0.131,1.024
2293,0.186,1.024
2294,0.233,1.024
2295,0.302,1.024
2296,0.364,1.024
2297,0.412,1.024
2298,0.453,1.024
2299,0.460,1.024
2300,0.467,1.024
2301,0.467,1.024
2302,0.460,1.024
2303,0.432,1.024
2304,0.384,1.024
2305,0.343,1.024
2306,0.336,1.024
2307,0.329,1.024
2308,0.316,1.024
2309,0.288,1.024
2310,0.261,1.024
2311,0.233,1.024
2312,0.206,1.024
2313,0.186,1.024
2314,0.165,1.024
2315,0.138,1.024
2316,0.103,1.024
2317,0.062,1.024
2318,0.035,1.024
2319,0.007,1.024
2320,-0.013,1.024
2321,-0.027,1.024
2322,-0.041,1.024
2323,-0.061,1.024
2324,-0.075,1.024
2325,-0.082,1.024
2326,-0.082,1.024
2327,-0.075,1.024
2328,-0.075,1.024
2329,-0.075,1.024
2330,-0.061,1.024
2331,-0.075,1.024
2332,-0.061,1.024
2333,-0.061,1.024
2334,-0.061,1.024
2335,-0.061,1.024
2336,-0.061,1.024
2337,-0.061,1.024
2338,-0.061,1.024
2339,-0.061,1.024
2340,-0.061,1.024
2341,-0.061,1.024
2342,-0.054,1.024
2343,-0.061,1.024
2344,-0.061,1.024
2345,-0.061,1.024
2346,-0.061,1.024
2347,-0.061,1.024
2348,-0.061,1.024
2349,-0.061,1.024
2350,-0.061,1.024
2351,-0.061,1.024
2352,-0.061,1.024
2353,-0.061,1.024
2354,-0.061,1.024
2355,-0.061,1.024
2356,-0.061,1.024
2357,-0.061,1.024
2358,-0.061,1.024
2359,-0.061,1.024
2360,-0.061,1.024
2361,-0.075,1.024
2362,-0.075,1.024
2363,-0.075,1.024
2364,-0.061,1.024
2365,-0.075,1.024
2366,-0.061,1.024
2367,-0.075,1.024
2368,-0.075,1.024
2369,-0.075,1.024
2370,-0.075,1.024
2371,-0.075,1.024
2372,-0.075,1.024
2373,-0.075,1.024
2374,-0.082,1.024
2375,-0.075,1.024
2376,-0.075,1.024
2377,-0.075,1.024
2378,-0.061,1.024
2379,-0.075,1.024
2380,-0.075,1.024
2381,-0.082,1.024
2382,-0.075,1.024
2383,-0.075,1.024
2384,-0.075,1.024
2385,-0.075,1.024
2386,-0.075,1.024
2387,-0.082,1.024
2388,-0.075,1.024
2389,-0.075,1.024
2390,-0.075,1.024
2391,-0.075,1.024
2392,-0.075,1.024
2393,-0.075,1.024
2394,-0.075,1.024
2395,-0.082,1.024
2396,-0.082,1.024
2397,-0.082,1.024
2398,-0.075,1.024
2399,-0.075,1.024
2400,-0.075,1.024
2401,-0.075,1.024
2402,-0.061,1.024
2403,-0.075,1.024
2404,-0.061,1.024
2405,-0.061,1.024
2406,-0.061,1.024
2407,-0.061,1.024
2408,-0.061,1.024
2409,-0.054,1.024
2410,-0.054,1.024
2411,-0.054,1.024
2412,-0.041,1.024
2413,-0.041,1.024
2414,-0.041,1.024
2415,-0.041,1.024
2416,-0.041,1.023
2417,-0.041,1.023
2418,-0.034,1.023
2419,-0.034,1.023
2420,-0.027,0.887
2421,-0.027,0.887
2422,-0.027,0.887
2423,-0.027,0.887
2424,-0.027,0.754
2425,-0.013,0.754
2426,-0.027,0.754
2427,-0.027,0.754
2428,-0.013,0.625
2429,-0.013,0.625
2430,-0.013,0.625
2431,-0.006,0.625
2432,-0.006,0.502
2433,-0.006,0.502
2434,0.001,0.502
2435,0.001,0.502
2436,-0.006,0.396
2437,0.001,0.396
2438,0.001,0.396
2439,0.001,0.396
2440,0.007,0.297
2441,0.007,0.297
2442,0.007,0.297
2443,0.007,0.297
2444,0.007,0.218
2445,0.007,0.218
2446,0.007,0.218
2447,0.014,0.218
2448,0.007,0.157
2449,0.014,0.157
2450,0.014,0.157
2451,0.014,0.157
2452,0.014,0.111
2453,0.014,0.111
2454,0.014,0.111
2455,0.014,0.111
2456,0.007,0.081
2457,0.014,0.081
2458,0.014,0.081
2459,0.014,0.081
2460,0.014,0.063
2461,0.007,0.063
2462,0.014,0.063
2463,0.007,0.063
2464,0.007,0.060
2465,0.007,0.060
2466,0.007,0.060
2467,0.007,0.060
2468,0.007,0.065
2469,0.007,0.065
2470,0.007,0.065
2471,0.007,0.065
2472,0.001,0.078
2473,0.007,0.078
2474,0.007,0.078
2475,0.007,0.078
2476,0.001,0.102
2477,0.001,0.102
2478,0.001,0.102
2479,0.001,0.102
2480,0.001,0.131
2481,0.001,0.131
2482,0.001,0.131
2483,0.001,0.131
2484,0.001,0.166
2485,-0.006,0.166
2486,-0.006,0.166
2487,0.001,0.166
2488,0.001,0.207
2489,-0.006,0.207
2490,-0.006,0.207
2491,-0.006,0.207
2492,-0.006,0.251
2493,-0.006,0.251
2494,-0.006,0.251
2495,-0.006,0.251
2496,-0.006,0.301
2497,-0.006,0.301
2498,-0.006,0.301
2499,-0.006,0.301
2500,-0.006,0.349
2501,-0.006,0.349
2502,-0.006,0.349
2503,-0.006,0.349
2504,-0.006,0.396
2505,-0.006,0.396
2506,-0.006,0.396
2507,-0.006,0.396
2508,-0.006,0.444
2509,-0.006,0.444
2510,-0.006,0.444
2511,-0.006,0.444
2512,-0.006,0.480
2513,-0.006,0.480
2514,-0.006,0.480
2515,-0.006,0.480
2516,-0.006,0.511
2517,-0.006,0.511
2518,-0.006,0.511
2519,-0.006,0.511
2520,-0.006,0.533
2521,0.001,0.533
2522,-0.006,0.533
2523,-0.006,0.533
2524,-0.006,0.546
2525,-0.006,0.546
2526,-0.006,0.546
2527,0.001,0.546
2528,0.001,0.553
2529,-0.006,0.553
2530,0.001,0.553
2531,0.001,0.553
2532,0.001,0.548
2533,0.001,0.548
2534,0.001,0.548
2535,0.001,0.548
2536,0.001,0.539
2537,-0.006,0.539
2538,-0.006,0.539
2539,-0.006,0.539
2540,0.001,0.522
2541,0.001,0.522
2542,0.001,0.522
2543,0.001,0.522
2544,0.001,0.509
2545,0.001,0.509
2546,0.001,0.509
2547,0.007,0.509
2548,0.007,0.491
2549,0.001,0.491
2550,0.001,0.491
2551,0.001,0.491
2552,0.001,0.483
2553,0.001,0.483
2554,0.001,0.483
2555,0.001,0.483
2556,0.007,0.483
2557,0.001,0.483
2558,0.001,0.483
2559,0.001,0.483
2560,0.001,0.493
2561,0.007,0.493
2562,0.001,0.493
2563,0.007,0.493
2564,0.001,0.511
2565,0.001,0.511
2566,0.001,0.511
2567,0.001,0.511
2568,0.007,0.544
2569,0.007,0.544
2570,0.007,0.544
2571,0.007,0.544
2572,0.007,0.595
2573,0.007,0.595
2574,0.001,0.595
2575,0.007,0.595
2576,0.001,0.658
2577,0.001,0.658
2578,0.007,0.658
2579,0.001,0.658
2580,0.001,0.732
2581,0.001,0.732
2582,0.001,0.732
2583,0.001,0.732
2584,0.001,0.820
2585,0.001,0.820
2586,-0.006,0.820
2587,-0.006,0.820
2588,-0.006,0.913
2589,-0.006,0.913
2590,-0.013,0.913
2591,-0.027,0.913
2592,-0.034,1.012
2593,-0.034,1.012
2594,-0.041,1.012
2595,-0.041,1.012
2596,-0.041,1.024
2597,-0.041,1.024
2598,-0.041,1.024
2599,-0.041,1.024
2600,-0.041,1.024
2601,-0.041,1.024
2602,-0.041,1.024
2603,-0.054,1.024
2604,-0.041,1.024
2605,-0.041,1.024
2606,-0.041,1.024
2607,-0.054,1.024
2608,-0.041,1.024
2609,-0.041,1.024
2610,-0.034,1.024
2611,-0.034,1.024
2612,-0.013,1.024
2613,-0.013,1.024
2614,-0.013,1.024
2615,-0.006,1.024
2616,0.001,1.024
2617,0.007,1.024
2618,0.007,1.024
2619,0.007,1.024
2620,0.014,1.024
2621,0.014,1.024
2622,0.014,1.024
2623,0.007,1.024
2624,0.014,1.024
2625,0.007,1.024
2626,0.007,1.024
2627,0.007,1.024
2628,0.007,1.024
2629,0.007,1.024
2630,0.007,1.024
2631,0.007,1.024
2632,0.007,1.024
2633,0.007,1.024
2634,0.007,1.024
2635,0.007,1.024
2636,0.014,1.024
2637,0.007,1.024
2638,0.007,1.024
2639,0.007,1.024
2640,0.007,1.024
2641,0.007,1.024
2642,0.007,1.024
2643,0.007,1.024
2644,0.007,1.024
2645,0.007,1.024
2646,0.007,1.024
2647,0.007,1.024
2648,0.007,1.024
2649,0.007,1.024
2650,0.007,1.024
2651,0.007,1.024
2652,0.007,1.024
2653,0.007,1.024
2654,0.007,1.024
2655,0.014,1.024
2656,0.028,1.024
2657,0.042,1.024
2658,0.076,1.024
2659,0.110,1.024
2660,0.165,1.024
2661,0.227,1.024
2662,0.302,1.024
2663,0.357,1.024
2664,0.412,1.024
2665,0.460,1.024
2666,0.467,1.024
2667,0.480,1.024
2668,0.480,1.024
2669,0.480,1.024
2670,0.460,1.024
2671,0.418,1.024
2672,0.378,1.024
2673,0.364,1.024
2674,0.364,1.024
2675,0.357,1.024
2676,0.336,1.024
2677,0.316,1.024
2678,0.282,1.024
2679,0.254,1.024
2680,0.233,1.024
2681,0.227,1.024
2682,0.193,1.024
2683,0.165,1.024
2684,0.131,0.989
2685,0.083,0.989
2686,0.042,0.989
2687,0.014,0.989
2688,-0.006,0.920
2689,-0.027,0.920
2690,-0.041,0.920
2691,-0.061,0.920
2692,-0.075,0.853
2693,-0.082,0.853
2694,-0.082,0.853
2695,-0.075,0.853
2696,-0.075,0.787
2697,-0.075,0.787
2698,-0.075,0.787
2699,-0.075,0.787
2700,-0.075,0.726
2701,-0.075,0.726
2702,-0.075,0.726
2703,-0.075,0.726
2704,-0.075,0.667
2705,-0.075,0.667
2706,-0.075,0.667
2707,-0.061,0.667
2708,-0.075,0.610
2709,-0.075,0.610
2710,-0.075,0.610
2711,-0.075,0.610
2712,-0.075,0.557
2713,-0.075,0.557
2714,-0.075,0.557
2715,-0.082,0.557
2716,-0.075,0.505
2717,-0.082,0.505
2718,-0.075,0.505
2719,-0.075,0.505
2720,-0.075,0.455
2721,-0.075,0.455
2722,-0.082,0.455
2723,-0.075,0.455
2724,-0.075,0.406
2725,-0.075,0.406
2726,-0.075,0.406
2727,-0.082,0.406
2728,-0.082,0.360
2729,-0.082,0.360
2730,-0.082,0.360
2731,-0.082,0.360
2732,-0.082,0.317
2733,-0.089,0.317
2734,-0.089,0.317
2735,-0.082,0.317
2736,-0.082,0.273
2737,-0.089,0.273
2738,-0.082,0.273
2739,-0.082,0.273
2740,-0.082,0.230
2741,-0.082,0.230
2742,-0.082,0.230
2743,-0.089,0.230
2744,-0.082,0.183
2745,-0.082,0.183
2746,-0.089,0.183
2747,-0.082,0.183
2748,-0.089,0.140
2749,-0.089,0.140
2750,-0.089,0.140
2751,-0.089,0.140
2752,-0.089,0.091
2753,-0.089,0.091
2754,-0.089,0.091
2755,-0.089,0.091
2756,-0.089,0.041
2757,-0.089,0.041
2758,-0.089,0.041
2759,-0.089,0.041
2760,-0.082,-0.018
2761,-0.089,-0.018
2762,-0.089,-0.018
2763,-0.082,-0.018
2764,-0.082,-0.084
2765,-0.089,-0.084
2766,-0.082,-0.084
2767,-0.082,-0.084
2768,-0.082,-0.158
2769,-0.082,-0.158
2770,-0.082,-0.158
2771,-0.075,-0.158
2772,-0.082,-0.239
2773,-0.082,-0.239
2774,-0.075,-0.239
2775,-0.075,-0.239
2776,-0.075,-0.327
2777,-0.075,-0.327
2778,-0.075,-0.327
2779,-0.061,-0.327
2780,-0.061,-0.414
2781,-0.061,-0.414
2782,-0.054,-0.414
2783,-0.054,-0.414
2784,-0.054,-0.503
2785,-0.054,-0.503
2786,-0.041,-0.503
2787,-0.041,-0.503
2788,-0.041,-0.582
2789,-0.041,-0.582
2790,-0.034,-0.582
2791,-0.034,-0.582
2792,-0.034,-0.654
2793,-0.027,-0.654
2794,-0.027,-0.654
2795,-0.027,-0.654
2796,-0.013,-0.714
2797,-0.013,-0.714
2798,-0.013,-0.714
2799,-0.013,-0.714
2800,-0.013,-0.759
2801,-0.013,-0.759
2802,-0.013,-0.759
2803,-0.013,-0.759
2804,-0.006,-0.790
2805,-0.006,-0.790
2806,-0.006,-0.790
2807,0.001,-0.790
2808,0.001,-0.809
2809,-0.006,-0.809
2810,0.001,-0.809
2811,0.001,-0.809
2812,0.001,-0.817
2813,0.001,-0.817
2814,0.007,-0.817
2815,0.007,-0.817
2816,0.007,-0.809
2817,0.007,-0.809
2818,0.007,-0.809
2819,0.007,-0.809
2820,0.014,-0.799
2821,0.007,-0.799
2822,0.007,-0.799
2823,0.007,-0.799
2824,0.007,-0.783
2825,0.007,-0.783
2826,0.007,-0.783
2827,0.007,-0.783
2828,0.007,-0.768
2829,0.007,-0.768
2830,0.007,-0.768
2831,0.007,-0.768
2832,0.007,-0.749
2833,0.007,-0.749
2834,0.007,-0.749
2835,0.007,-0.749
2836,0.007,-0.731
2837,0.007,-0.731
2838,0.007,-0.731
2839,0.007,-0.731
2840,0.001,-0.718
2841,0.001,-0.718
2842,0.001,-0.718
2843,0.001,-0.718
2844,0.001,-0.701
2845,0.001,-0.701
2846,0.001,-0.701
2847,0.001,-0.701
2848,0.001,-0.690
2849,0.001,-0.690
2850,0.001,-0.690
2851,0.001,-0.690
2852,0.001,-0.676
2853,0.001,-0.676
2854,-0.006,-0.676
2855,-0.006,-0.676
2856,-0.006,-0.667
2857,-0.006,-0.667
2858,-0.006,-0.667
2859,-0.006,-0.667
2860,-0.006,-0.663
2861,-0.006,-0.663
2862,-0.006,-0.663
2863,-0.006,-0.663
2864,-0.006,-0.659
2865,-0.006,-0.659
2866,-0.006,-0.659
2867,-0.006,-0.659
2868,-0.006,-0.659
2869,-0.006,-0.659
2870,-0.013,-0.659
2871,-0.006,-0.659
2872,-0.006,-0.661
2873,-0.006,-0.661
2874,-0.013,-0.661
2875,-0.013,-0.661
2876,-0.013,-0.667
2877,-0.013,-0.667
2878,-0.013,-0.667
2879,-0.013,-0.667
2880,-0.013,-0.676
2881,-0.006,-0.676
2882,-0.006,-0.676
2883,-0.013,-0.676
2884,-0.013,-0.687
2885,-0.013,-0.687
2886,-0.013,-0.687
2887,-0.013,-0.687
2888,-0.013,-0.703
2889,-0.006,-0.703
2890,-0.006,-0.703
2891,-0.013,-0.703
2892,-0.013,-0.718
2893,-0.013,-0.718
2894,-0.013,-0.718
2895,-0.013,-0.718
2896,-0.006,-0.736
2897,-0.006,-0.736
2898,-0.006,-0.736
2899,-0.006,-0.736
2900,-0.006,-0.753
2901,-0.006,-0.753
2902,-0.006,-0.753
2903,-0.006,-0.753
2904,0.001,-0.774
2905,-0.006,-0.774
2906,-0.006,-0.774
2907,-0.006,-0.774
2908,-0.013,-0.796
2909,-0.006,-0.796
2910,-0.006,-0.796
2911,-0.006,-0.796
2912,-0.006,-0.819
2913,0.001,-0.819
2914,0.001,-0.819
2915,0.001,-0.819
2916,0.001,-0.841
2917,-0.006,-0.841
2918,-0.006,-0.841
2919,-0.006,-0.841
2920,-0.006,-0.856
2921,-0.006,-0.856
2922,-0.006,-0.856
2923,0.001,-0.856
2924,0.001,-0.867
2925,-0.006,-0.867
2926,-0.006,-0.867
2927,-0.006,-0.867
2928,0.001,-0.867
2929,0.001,-0.867
2930,0.001,-0.867
2931,0.001,-0.867
2932,0.001,-0.858
2933,0.001,-0.858
2934,0.001,-0.858
2935,0.007,-0.858
2936,0.001,-0.834
2937,0.007,-0.834
2938,0.007,-0.834
2939,0.001,-0.834
2940,0.007,-0.794
2941,0.001,-0.794
2942,0.001,-0.794
2943,0.001,-0.794
2944,0.001,-0.747
2945,0.001,-0.747
2946,0.001,-0.747
2947,0.001,-0.747
2948,0.001,-0.687
2949,0.001,-0.687
2950,0.001,-0.687
2951,0.001,-0.687
2952,-0.006,-0.617
2953,-0.006,-0.617
2954,-0.013,-0.617
2955,-0.013,-0.617
2956,-0.013,-0.538
2957,-0.027,-0.538
2958,-0.027,-0.538
2959,-0.034,-0.538
2960,-0.034,-0.453
2961,-0.041,-0.453
2962,-0.041,-0.453
2963,-0.034,-0.453
2964,-0.034,-0.363
2965,-0.034,-0.363
2966,-0.034,-0.363
2967,-0.034,-0.363
2968,-0.034,-0.270
2969,-0.034,-0.270
2970,-0.041,-0.270
2971,-0.041,-0.270
2972,-0.041,-0.169
2973,-0.041,-0.169
2974,-0.041,-0.169
2975,-0.034,-0.169
2976,-0.034,-0.070
2977,-0.027,-0.070
2978,-0.013,-0.070
2979,-0.013,-0.070
2980,-0.006,0.030
2981,0.001,0.030
2982,0.001,0.030
2983,0.007,0.030
2984,0.014,0.129
2985,0.014,0.129
2986,0.014,0.129
2987,0.014,0.129
2988,0.014,0.225
2989,0.014,0.225
2990,0.014,0.225
2991,0.014,0.225
2992,0.014,0.308
2993,0.014,0.308
2994,0.014,0.308
2995,0.014,0.308
2996,0.014,0.387
2997,0.014,0.387
2998,0.014,0.387
2999,0.014,0.387
3000,0.014,0.455
3001,0.007,0.455
3002,0.007,0.455
3003,0.007,0.455
3004,0.007,0.511
3005,0.007,0.511
3006,0.007,0.511
3007,0.014,0.511
3008,0.014,0.555
3009,0.014,0.555
3010,0.007,0.555
3011,0.014,0.555
3012,0.014,0.593
3013,0.014,0.593
3014,0.014,0.593
3015,0.007,0.593
3016,0.007,0.617
3017,0.014,0.617
3018,0.007,0.617
3019,0.007,0.617
3020,0.014,0.632
3021,0.007,0.632
3022,0.014,0.632
3023,0.028,0.632
3024,0.055,0.640
3025,0.083,0.640
3026,0.138,0.640
3027,0.193,0.640
3028,0.254,0.645
3029,0.329,0.645
3030,0.391,0.645
3031,0.439,0.645
3032,0.460,0.638
3033,0.480,0.638
3034,0.480,0.638
3035,0.480,0.638
3036,0.480,0.629
3037,0.439,0.629
3038,0.405,0.629
3039,0.378,0.629
3040,0.378,0.621
3041,0.378,0.621
3042,0.364,0.621
3043,0.343,0.621
3044,0.316,0.606
3045,0.288,0.606
3046,0.261,0.606
3047,0.240,0.606
3048,0.233,0.586
3049,0.206,0.586
3050,0.158,0.586
3051,0.117,0.586
3052,0.083,0.569
3053,0.035,0.569
3054,0.007,0.569
3055,-0.006,0.569
3056,-0.034,0.544
3057,-0.054,0.544
3058,-0.061,0.544
3059,-0.075,0.544
3060,-0.082,0.524
3061,-0.082,0.524
3062,-0.082,0.524
3063,-0.075,0.524
3064,-0.075,0.507
3065,-0.075,0.507
3066,-0.082,0.507
3067,-0.082,0.507
3068,-0.082,0.487
3069,-0.075,0.487
3070,-0.075,0.487
3071,-0.075,0.487
3072,-0.075,0.472
3073,-0.075,0.472
3074,-0.075,0.472
3075,-0.075,0.472
3076,-0.075,0.464
3077,-0.075,0.464
3078,-0.075,0.464
3079,-0.075,0.464
3080,-0.075,0.455
3081,-0.075,0.455
3082,-0.075,0.455
3083,-0.075,0.455
3084,-0.075,0.455
3085,-0.082,0.455
3086,-0.082,0.455
3087,-0.082,0.455
3088,-0.075,0.459
3089,-0.082,0.459
3090,-0.075,0.459
3091,-0.082,0.459
3092,-0.082,0.470
3093,-0.082,0.470
3094,-0.082,0.470
3095,-0.082,0.470
3096,-0.082,0.487
3097,-0.082,0.487
3098,-0.082,0.487
3099,-0.082,0.487
3100,-0.082,0.507
3101,-0.082,0.507
3102,-0.089,0.507
3103,-0.082,0.507
3104,-0.082,0.531
3105,-0.082,0.531
3106,-0.082,0.531
3107,-0.082,0.531
3108,-0.082,0.559
3109,-0.082,0.559
3110,-0.082,0.559
3111,-0.089,0.559
3112,-0.089,0.593
3113,-0.089,0.593
3114,-0.089,0.593
3115,-0.089,0.593
3116,-0.089,0.623
3117,-0.089,0.623
3118,-0.089,0.623
3119,-0.089,0.623
3120,-0.089,0.656
3121,-0.102,0.656
3122,-0.089,0.656
3123,-0.089,0.656
3124,-0.089,0.689
3125,-0.089,0.689
3126,-0.089,0.689
3127,-0.089,0.689
3128,-0.089,0.717
3129,-0.089,0.717
3130,-0.089,0.717
3131,-0.089,0.717
3132,-0.089,0.744
3133,-0.089,0.744
3134,-0.082,0.744
3135,-0.082,0.744
3136,-0.089,0.763
3137,-0.082,0.763
3138,-0.082,0.763
3139,-0.082,0.763
3140,-0.082,0.776
3141,-0.075,0.776
3142,-0.075,0.776
3143,-0.075,0.776
3144,-0.075,0.785
3145,-0.061,0.785
3146,-0.061,0.785
3147,-0.061,0.785
3148,-0.054,0.787
3149,-0.054,0.787
3150,-0.054,0.787
3151,-0.054,0.787
3152,-0.041,0.752
3153,-0.041,0.752
3154,-0.041,0.752
3155,-0.034,0.752
3156,-0.034,0.746
3157,-0.034,0.746
3158,-0.034,0.746
3159,-0.027,0.746
3160,-0.027,0.737
3161,-0.034,0.737
3162,-0.027,0.737
3163,-0.027,0.737
3164,-0.027,0.730
3165,-0.027,0.730
3166,-0.013,0.730
3167,-0.013,0.730
3168,-0.013,0.728
3169,-0.013,0.728
3170,-0.006,0.728
3171,-0.006,0.728
3172,-0.006,0.733
3173,-0.006,0.733
3174,0.001,0.733
3175,0.007,0.733
3176,0.001,0.739
3177,0.001,0.739
3178,0.001,0.739
3179,0.001,0.739
3180,0.007,0.748
3181,0.007,0.748
3182,0.007,0.748
3183,0.007,0.748
3184,0.007,0.765
3185,0.007,0.765
3186,0.007,0.765
3187,0.007,0.765
3188,0.007,0.780
3189,0.014,0.780
3190,0.014,0.780
3191,0.014,0.780
3192,0.007,0.800
3193,0.007,0.800
3194,0.007,0.800
3195,0.007,0.800
3196,0.007,0.818
3197,0.007,0.818
3198,0.007,0.818
3199,0.007,0.818
3200,0.007,0.831
3201,0.007,0.831
3202,0.001,0.831
3203,0.007,0.831
3204,0.001,0.846
3205,0.001,0.846
3206,0.001,0.846
3207,0.001,0.846
3208,0.001,0.855
3209,0.001,0.855
3210,0.001,0.855
3211,0.001,0.855
3212,0.001,0.862
3213,0.001,0.862
3214,0.001,0.862
3215,0.001,0.862
3216,0.001,0.864
3217,-0.006,0.864
3218,-0.006,0.864
3219,0.001,0.864
3220,-0.006,0.859
3221,-0.006,0.859
3222,-0.006,0.859
3223,-0.006,0.859
3224,-0.006,0.851
3225,-0.006,0.851
3226,-0.006,0.851
3227,-0.006,0.851
3228,-0.006,0.842
3229,-0.006,0.842
3230,-0.013,0.842
3231,-0.006,0.842
3232,-0.006,0.824
3233,-0.006,0.824
3234,-0.006,0.824
3235,-0.006,0.824
3236,-0.006,0.800
3237,-0.013,0.800
3238,-0.006,0.800
3239,-0.006,0.800
3240,-0.006,0.778
3241,-0.006,0.778
3242,-0.013,0.778
3243,-0.013,0.778
3244,-0.013,0.746
3245,-0.006,0.746
3246,-0.013,0.746
3247,-0.013,0.746
3248,-0.013,0.713
3249,-0.027,0.713
3250,-0.013,0.713
3251,-0.013,0.713
3252,-0.013,0.675
3253,-0.013,0.675
3254,-0.013,0.675
3255,-0.006,0.675
3256,-0.013,0.636
3257,-0.013,0.636
3258,-0.013,0.636
3259,-0.013,0.636
3260,-0.006,0.595
3261,-0.013,0.595
3262,-0.006,0.595
3263,-0.013,0.595
3264,-0.006,0.553
3265,-0.006,0.553
3266,-0.006,0.553
3267,-0.006,0.553
3268,-0.006,0.511
3269,-0.006,0.511
3270,-0.006,0.511
3271,-0.006,0.511
3272,-0.006,0.466
3273,-0.006,0.466
3274,0.001,0.466
3275,0.001,0.466
3276,0.001,0.426
3277,0.001,0.426
3278,0.001,0.426
3279,0.001,0.426
3280,0.001,0.389
3281,0.001,0.389
3282,0.001,0.389
3283,0.001,0.389
3284,0.001,0.354
3285,0.001,0.354
3286,0.001,0.354
3287,0.001,0.354
3288,0.001,0.323
3289,0.001,0.323
3290,0.007,0.323
3291,0.001,0.323
3292,0.001,0.299
3293,-0.006,0.299
3294,0.001,0.299
3295,0.001,0.299
3296,0.001,0.281
3297,0.001,0.281
3298,0.001,0.281
3299,0.001,0.281
3300,0.001,0.278
3301,0.001,0.278
3302,0.001,0.278
3303,0.001,0.278
3304,0.007,0.280
3305,0.007,0.280
3306,0.001,0.280
3307,0.001,0.280
3308,0.001,0.295
3309,0.001,0.295
3310,0.001,0.295
3311,0.001,0.295
3312,0.001,0.319
3313,0.001,0.319
3314,0.001,0.319
3315,0.001,0.319
3316,0.001,0.356
3317,-0.006,0.356
3318,-0.006,0.356
3319,0.001,0.356
3320,-0.006,0.406
3321,-0.006,0.406
3322,-0.006,0.406
3323,-0.013,0.406
3324,-0.013,0.459
3325,-0.027,0.459
3326,-0.034,0.459
3327,-0.034,0.459
3328,-0.034,0.520
3329,-0.034,0.520
3330,-0.034,0.520
3331,-0.041,0.520
3332,-0.034,0.582
3333,-0.034,0.582
3334,-0.034,0.582
3335,-0.034,0.582
3336,-0.041,0.642
3337,-0.034,0.642
3338,-0.041,0.642
3339,-0.041,0.642
3340,-0.034,0.700
3341,-0.041,0.700
3342,-0.034,0.700
3343,-0.027,0.700
3344,-0.027,0.754
3345,-0.013,0.754
3346,-0.006,0.754
3347,-0.006,0.754
3348,0.001,0.800
3349,0.007,0.800
3350,0.007,0.800
3351,0.014,0.800
3352,0.014,0.840
3353,0.014,0.840
3354,0.014,0.840
3355,0.014,0.840
3356,0.028,0.868
3357,0.014,0.868
3358,0.014,0.868
3359,0.014,0.868
3360,0.014,0.885
3361,0.014,0.885
3362,0.014,0.885
3363,0.007,0.885
3364,0.007,0.896
3365,0.014,0.896
3366,0.014,0.896
3367,0.007,0.896
3368,0.007,0.896
3369,0.007,0.896
3370,0.007,0.896
3371,0.007,0.896
3372,0.007,0.881
3373,0.007,0.881
3374,0.014,0.881
3375,0.014,0.881
3376,0.014,0.862
3377,0.014,0.862
3378,0.014,0.862
3379,0.014,0.862
3380,0.014,0.833
3381,0.014,0.833
3382,0.014,0.833
3383,0.014,0.833
3384,0.007,0.791
3385,0.014,0.791
3386,0.007,0.791
3387,0.014,0.791
3388,0.028,0.748
3389,0.035,0.748
3390,0.062,0.748
3391,0.090,0.748
3392,0.131,0.700
3393,0.186,0.700
3394,0.254,0.700
3395,0.316,0.700
3396,0.384,0.649
3397,0.432,0.649
3398,0.467,0.649
3399,0.480,0.649
3400,0.487,0.595
3401,0.487,0.595
3402,0.480,0.595
3403,0.453,0.595
3404,0.405,0.537
3405,0.378,0.537
3406,0.378,0.537
3407,0.378,0.537
3408,0.378,0.480
3409,0.357,0.480
3410,0.329,0.480
3411,0.302,0.480
3412,0.268,0.428
3413,0.254,0.428
3414,0.233,0.428
3415,0.213,0.428
3416,0.179,0.373
3417,0.131,0.373
3418,0.083,0.373
3419,0.042,0.373
3420,0.014,0.323
3421,-0.006,0.323
3422,-0.027,0.323
3423,-0.054,0.323
3424,-0.061,0.273
3425,-0.075,0.273
3426,-0.075,0.273
3427,-0.082,0.273
3428,-0.082,0.227
3429,-0.075,0.227
3430,-0.082,0.227
3431,-0.075,0.227
3432,-0.082,0.183
3433,-0.082,0.183
3434,-0.082,0.183
3435,-0.082,0.183
3436,-0.082,0.141
3437,-0.082,0.141
3438,-0.082,0.141
3439,-0.075,0.141
3440,-0.075,0.109
3441,-0.075,0.109
3442,-0.075,0.109
3443,-0.075,0.109
3444,-0.075,0.076
3445,-0.082,0.076
3446,-0.075,0.076
3447,-0.075,0.076
3448,-0.075,0.045
3449,-0.075,0.045
3450,-0.082,0.045
3451,-0.082,0.045
3452,-0.082,0.019
3453,-0.082,0.019
3454,-0.075,0.019
3455,-0.075,0.019
3456,-0.082,-0.003
3457,-0.075,-0.003
3458,-0.089,-0.003
3459,-0.082,-0.003
3460,-0.082,-0.022
3461,-0.082,-0.022
3462,-0.082,-0.022
3463,-0.082,-0.022
3464,-0.082,-0.040
3465,-0.082,-0.040
3466,-0.082,-0.040
3467,-0.089,-0.040
3468,-0.089,-0.053
3469,-0.102,-0.053
3470,-0.089,-0.053
3471,-0.089,-0.053
3472,-0.089,-0.069
3473,-0.089,-0.069
3474,-0.089,-0.069
3475,-0.089,-0.069
3476,-0.082,-0.082
3477,-0.089,-0.082
3478,-0.082,-0.082
3479,-0.089,-0.082
3480,-0.082,-0.097
3481,-0.089,-0.097
3482,-0.089,-0.097
3483,-0.102,-0.097
3484,-0.089,-0.110
3485,-0.089,-0.110
3486,-0.089,-0.110
3487,-0.089,-0.110
3488,-0.089,-0.125
3489,-0.089,-0.125
3490,-0.102,-0.125
3491,-0.089,-0.125
3492,-0.089,-0.141
3493,-0.089,-0.141
3494,-0.089,-0.141
3495,-0.089,-0.141
3496,-0.089,-0.158
3497,-0.089,-0.158
3498,-0.089,-0.158
3499,-0.089,-0.158
3500,-0.089,-0.177
3501,-0.082,-0.177
3502,-0.082,-0.177
3503,-0.082,-0.177
3504,-0.082,-0.202
3505,-0.082,-0.202
3506,-0.082,-0.202
3507,-0.082,-0.202
3508,-0.075,-0.224
3509,-0.075,-0.224
3510,-0.075,-0.224
3511,-0.061,-0.224
3512,-0.061,-0.247
3513,-0.061,-0.247
3514,-0.061,-0.247
3515,-0.054,-0.247
3516,-0.054,-0.270
3517,-0.054,-0.270
3518,-0.041,-0.270
3519,-0.041,-0.270
3520,-0.034,-0.289
3521,-0.034,-0.289
3522,-0.034,-0.289
3523,-0.034,-0.289
3524,-0.034,-0.304
3525,-0.027,-0.304
3526,-0.027,-0.304
3527,-0.027,-0.304
3528,-0.027,-0.316
3529,-0.027,-0.316
3530,-0.013,-0.316
3531,-0.013,-0.316
3532,-0.006,-0.322
3533,-0.013,-0.322
3534,-0.006,-0.322
3535,-0.006,-0.322
3536,-0.006,-0.320
3537,-0.006,-0.320
3538,-0.006,-0.320
3539,-0.006,-0.320
3540,0.001,-0.307
3541,0.001,-0.307
3542,0.001,-0.307
3543,0.001,-0.307
3544,0.001,-0.291
3545,0.007,-0.291
3546,0.001,-0.291
3547,0.007,-0.291
3548,0.007,-0.270
3549,0.007,-0.270
3550,0.007,-0.270
3551,0.007,-0.270
3552,0.007,-0.241
3553,0.007,-0.241
3554,0.007,-0.241
3555,0.007,-0.241
3556,0.007,-0.210
3557,0.007,-0.210
3558,0.007,-0.210
3559,0.007,-0.210
3560,0.007,-0.173
3561,0.007,-0.173
3562,0.001,-0.173
3563,0.007,-0.173
3564,0.007,-0.139
3565,0.007,-0.139
3566,0.007,-0.139
3567,0.007,-0.139
3568,0.007,-0.101
3569,0.007,-0.101
3570,0.007,-0.101
3571,0.001,-0.101
3572,0.001,-0.069
3573,-0.006,-0.069
3574,0.001,-0.069
3575,0.001,-0.069
3576,0.001,-0.037
3577,0.001,-0.037
3578,0.001,-0.037
3579,0.001,-0.037
3580,-0.006,-0.009
3581,0.001,-0.009
3582,0.001,-0.009
3583,-0.006,-0.009
3584,-0.006,0.017
3585,-0.006,0.017
3586,-0.006,0.017
3587,-0.006,0.017
3588,-0.006,0.041
3589,-0.006,0.041
3590,-0.006,0.041
3591,-0.006,0.041
3592,-0.006,0.059
3593,-0.006,0.059
3594,-0.013,0.059
3595,-0.013,0.059
3596,-0.006,0.068
3597,-0.013,0.068
3598,-0.013,0.068
3599,-0.013,0.068
3600,-0.013,0.076
3601,-0.013,0.076
3602,-0.013,0.076
3603,-0.013,0.076
3604,-0.013,0.078
3605,-0.006,0.078
3606,-0.006,0.078
3607,-0.013,0.078
3608,-0.013,0.076
3609,-0.013,0.076
3610,-0.013,0.076
3611,-0.013,0.076
3612,-0.013,0.068
3613,-0.013,0.068
3614,-0.013,0.068
3615,-0.013,0.068
3616,-0.013,0.057
3617,-0.013,0.057
3618,-0.006,0.057
3619,-0.006,0.057
3620,-0.006,0.041
3621,-0.006,0.041
3622,-0.006,0.041
3623,-0.006,0.041
3624,-0.006,0.019
3625,-0.006,0.019
3626,-0.006,0.019
3627,-0.006,0.019
3628,-0.006,-0.001
3629,-0.006,-0.001
3630,-0.006,-0.001
3631,0.001,-0.001
3632,0.001,-0.022
3633,0.007,-0.022
3634,0.001,-0.022
3635,0.001,-0.022
3636,0.001,-0.049
3637,0.001,-0.049
3638,0.001,-0.049
3639,0.001,-0.049
3640,0.001,-0.070
3641,0.001,-0.070
3642,0.001,-0.070
3643,0.001,-0.070
3644,0.007,-0.095
3645,0.001,-0.095
3646,0.007,-0.095
3647,0.007,-0.095
3648,0.001,-0.117
3649,0.007,-0.117
3650,0.001,-0.117
3651,0.001,-0.117
3652,0.007,-0.134
3653,0.007,-0.134
3654,0.007,-0.134
3655,0.007,-0.134
3656,0.007,-0.147
3657,0.007,-0.147
3658,0.007,-0.147
3659,0.001,-0.147
3660,0.001,-0.160
3661,0.001,-0.160
3662,0.007,-0.160
3663,0.001,-0.160
3664,0.001,-0.165
3665,0.001,-0.165
3666,0.007,-0.165
3667,0.001,-0.165
3668,0.007,-0.160
3669,0.007,-0.160
3670,0.007,-0.160
3671,0.001,-0.160
3672,0.007,-0.149
3673,0.001,-0.149
3674,0.001,-0.149
3675,0.001,-0.149
3676,0.001,-0.130
3677,-0.006,-0.130
3678,0.001,-0.130
3679,0.001,-0.130
3680,0.007,-0.101
3681,0.001,-0.101
3682,0.001,-0.101
3683,-0.006,-0.101
3684,-0.006,-0.062
3685,-0.013,-0.062
3686,-0.006,-0.062
3687,-0.006,-0.062
3688,-0.013,-0.018
3689,-0.013,-0.018
3690,-0.027,-0.018
3691,-0.034,-0.018
3692,-0.034,0.035
3693,-0.041,0.035
3694,-0.041,0.035
3695,-0.041,0.035
3696,-0.041,0.089
3697,-0.041,0.089
3698,-0.034,0.089
3699,-0.041,0.089
3700,-0.034,0.150
3701,-0.034,0.150
3702,-0.041,0.150
3703,-0.041,0.150
3704,-0.034,0.207
3705,-0.041,0.207
3706,-0.041,0.207
3707,-0.041,0.207
3708,-0.034,0.267
3709,-0.027,0.267
3710,-0.027,0.267
3711,-0.013,0.267
3712,-0.006,0.321
3713,-0.006,0.321
3714,0.001,0.321
3715,0.007,0.321
3716,0.007,0.369
3717,0.014,0.369
3718,0.014,0.369
3719,0.007,0.369
3720,0.014,0.413
3721,0.014,0.413
3722,0.014,0.413
3723,0.014,0.413
3724,0.014,0.450
3725,0.014,0.450
3726,0.014,0.450
3727,0.014,0.450
3728,0.007,0.476
3729,0.007,0.476
3730,0.007,0.476
3731,0.007,0.476
3732,0.007,0.496
3733,0.007,0.496
3734,0.007,0.496
3735,0.007,0.496
3736,0.007,0.509
3737,0.014,0.509
3738,0.007,0.509
3739,0.014,0.509
3740,0.007,0.513
3741,0.007,0.513
3742,0.014,0.513
3743,0.007,0.513
3744,0.014,0.509
3745,0.014,0.509
3746,0.014,0.509
3747,0.014,0.509
3748,0.014,0.498
3749,0.014,0.498
3750,0.014,0.498
3751,0.014,0.498
3752,0.014,0.483
3753,0.014,0.483
3754,0.014,0.483
3755,0.028,0.483
3756,0.055,0.459
3757,0.090,0.459
3758,0.138,0.459
3759,0.179,0.459
3760,0.240,0.428
3761,0.316,0.428
3762,0.378,0.428
3763,0.432,0.428
3764,0.467,0.393
3765,0.487,0.393
3766,0.487,0.393
3767,0.487,0.393
3768,0.487,0.358
3769,0.467,0.358
3770,0.418,0.358
3771,0.378,0.358
3772,0.378,0.317
3773,0.378,0.317
3774,0.378,0.317
3775,0.364,0.317
3776,0.336,0.275
3777,0.309,0.275
3778,0.282,0.275
3779,0.261,0.275
3780,0.240,0.234
3781,0.227,0.234
3782,0.186,0.234
3783,0.138,0.234
3784,0.103,0.190
3785,0.055,0.190
3786,0.014,0.190
3787,0.001,0.190
3788,-0.027,0.148
3789,-0.041,0.148
3790,-0.061,0.148
3791,-0.075,0.148
3792,-0.082,0.109
3793,-0.082,0.109
3794,-0.082,0.109
3795,-0.075,0.109
3796,-0.075,0.070
3797,-0.082,0.070
3798,-0.082,0.070
3799,-0.082,0.070
3800,-0.082,0.030
3801,-0.082,0.030
3802,-0.082,0.030
3803,-0.082,0.030
3804,-0.075,-0.005
3805,-0.075,-0.005
3806,-0.075,-0.005
3807,-0.075,-0.005
3808,-0.082,-0.040
3809,-0.075,-0.040
3810,-0.075,-0.040
3811,-0.075,-0.040
3812,-0.075,-0.075
3813,-0.075,-0.075
3814,-0.082,-0.075
3815,-0.075,-0.075
3816,-0.075,-0.101
3817,-0.075,-0.101
3818,-0.082,-0.101
3819,-0.082,-0.101
3820,-0.082,-0.128
3821,-0.082,-0.128
3822,-0.082,-0.128
3823,-0.082,-0.128
3824,-0.082,-0.153
3825,-0.082,-0.153
3826,-0.082,-0.153
3827,-0.089,-0.153
3828,-0.082,-0.177
3829,-0.089,-0.177
3830,-0.089,-0.177
3831,-0.082,-0.177
3832,-0.082,-0.195
3833,-0.082,-0.195
3834,-0.082,-0.195
3835,-0.082,-0.195
3836,-0.082,-0.212
3837,-0.089,-0.212
3838,-0.089,-0.212
3839,-0.089,-0.212
3840,-0.089,-0.228
3841,-0.089,-0.228
3842,-0.089,-0.228
3843,-0.089,-0.228
3844,-0.089,-0.241
3845,-0.089,-0.241
3846,-0.089,-0.241
3847,-0.089,-0.241
3848,-0.089,-0.255
3849,-0.089,-0.255
3850,-0.089,-0.255
3851,-0.102,-0.255
3852,-0.102,-0.263
3853,-0.102,-0.263
3854,-0.089,-0.263
3855,-0.089,-0.263
3856,-0.089,-0.274
3857,-0.089,-0.274
3858,-0.089,-0.274
3859,-0.082,-0.274
3860,-0.089,-0.282
3861,-0.089,-0.282
3862,-0.089,-0.282
3863,-0.089,-0.282
3864,-0.089,-0.293
3865,-0.089,-0.293
3866,-0.082,-0.293
3867,-0.089,-0.293
3868,-0.089,-0.309
3869,-0.089,-0.309
3870,-0.082,-0.309
3871,-0.082,-0.309
3872,-0.082,-0.322
3873,-0.082,-0.322
3874,-0.075,-0.322
3875,-0.075,-0.322
3876,-0.075,-0.338
3877,-0.075,-0.338
3878,-0.061,-0.338
3879,-0.061,-0.338
3880,-0.061,-0.350
3881,-0.054,-0.350
3882,-0.054,-0.350
3883,-0.054,-0.350
3884,-0.054,-0.363
3885,-0.054,-0.363
3886,-0.054,-0.363
3887,-0.041,-0.363
3888,-0.041,-0.372
3889,-0.034,-0.372
3890,-0.034,-0.372
3891,-0.034,-0.372
3892,-0.027,-0.374
3893,-0.034,-0.374
3894,-0.027,-0.374
3895,-0.027,-0.374
3896,-0.027,-0.374
3897,-0.013,-0.374
3898,-0.013,-0.374
3899,-0.027,-0.374
3900,-0.013,-0.368
3901,-0.013,-0.368
3902,-0.006,-0.368
3903,-0.013,-0.368
3904,-0.006,-0.352
3905,-0.006,-0.352
3906,-0.006,-0.352
3907,0.001,-0.352
3908,0.001,-0.333
3909,0.001,-0.333
3910,0.001,-0.333
3911,0.001,-0.333
3912,0.001,-0.307
3913,0.007,-0.307
3914,0.001,-0.307
3915,0.007,-0.307
3916,0.007,-0.276
3917,0.007,-0.276
3918,0.007,-0.276
3919,0.001,-0.276
3920,0.007,-0.259
3921,0.007,-0.259
3922,0.014,-0.259
3923,0.007,-0.259
3924,0.007,-0.222
3925,0.007,-0.222
3926,0.007,-0.222
3927,0.007,-0.222
3928,0.007,-0.182
3929,0.007,-0.182
3930,0.007,-0.182
3931,0.001,-0.182
3932,0.007,-0.142
3933,0.001,-0.142
3934,0.001,-0.142
3935,0.001,-0.142
3936,0.007,-0.107
3937,0.001,-0.107
3938,0.001,-0.107
3939,0.001,-0.107
3940,0.001,-0.072
3941,0.001,-0.072
3942,-0.006,-0.072
3943,0.001,-0.072
3944,0.001,-0.040
3945,0.001,-0.040
3946,-0.006,-0.040
3947,-0.006,-0.040
3948,0.001,-0.011
3949,0.001,-0.011
3950,0.001,-0.011
3951,-0.006,-0.011
3952,-0.006,0.011
3953,0.001,0.011
3954,0.001,0.011
3955,-0.006,0.011
3956,-0.006,0.033
3957,-0.006,0.033
3958,-0.006,0.033
3959,-0.006,0.033
3960,-0.006,0.048
3961,-0.006,0.048
3962,-0.006,0.048
3963,-0.006,0.048
3964,-0.006,0.057
3965,-0.006,0.057
3966,-0.013,0.057
3967,-0.006,0.057
3968,-0.013,0.065
3969,-0.013,0.065
3970,-0.013,0.065
3971,-0.013,0.065
3972,-0.013,0.068
3973,-0.013,0.068
3974,-0.013,0.068
3975,-0.006,0.068
3976,-0.013,0.059
3977,-0.006,0.059
3978,-0.006,0.059
3979,-0.013,0.059
3980,-0.006,0.052
3981,-0.006,0.052
3982,-0.006,0.052
3983,-0.006,0.052
3984,-0.006,0.041
3985,-0.006,0.041
3986,-0.006,0.041
3987,-0.006,0.041
3988,-0.006,0.024
3989,-0.006,0.024
3990,-0.006,0.024
3991,-0.006,0.024
3992,-0.006,0.008
3993,0.001,0.008
3994,-0.006,0.008
3995,-0.006,0.008
3996,0.001,-0.011
3997,-0.006,-0.011
3998,0.001,-0.011
3999,0.001,-0.011
4000,-0.006,-0.031
4001,0.001,-0.031
4002,0.001,-0.031
4003,0.001,-0.031
4004,0.001,-0.051
4005,0.001,-0.051
4006,0.001,-0.051
4007,0.001,-0.051
4008,0.001,-0.066
4009,0.001,-0.066
4010,0.001,-0.066
4011,0.001,-0.066
4012,0.001,-0.080
4013,0.001,-0.080
4014,0.001,-0.080
4015,0.001,-0.080
4016,0.001,-0.086
4017,0.001,-0.086
4018,0.001,-0.086
4019,0.001,-0.086
4020,0.001,-0.084
4021,0.001,-0.084
4022,0.001,-0.084
4023,0.007,-0.084
4024,0.007,-0.070
4025,0.001,-0.070
4026,0.001,-0.070
4027,0.001,-0.070
4028,0.007,-0.051
4029,0.001,-0.051
4030,0.007,-0.051
4031,0.007,-0.051
4032,0.007,-0.022
4033,0.014,-0.022
4034,0.007,-0.022
4035,0.014,-0.022
4036,0.014,0.019
4037,0.014,0.019
4038,0.014,0.019
4039,0.007,0.019
4040,0.007,0.068
4041,0.007,0.068
4042,0.001,0.068
4043,0.007,0.068
4044,0.001,0.127
4045,0.001,0.127
4046,0.001,0.127
4047,0.001,0.127
4048,0.001,0.192
4049,0.001,0.192
4050,0.001,0.192
4051,0.001,0.192
4052,0.001,0.260
4053,-0.006,0.260
4054,-0.013,0.260
4055,-0.027,0.260
4056,-0.027,0.328
4057,-0.034,0.328
4058,-0.034,0.328
4059,-0.034,0.328
4060,-0.041,0.396
4061,-0.034,0.396
4062,-0.034,0.396
4063,-0.034,0.396
4064,-0.034,0.459
4065,-0.034,0.459
4066,-0.034,0.459
4067,-0.034,0.459
4068,-0.041,0.515
4069,-0.041,0.515
4070,-0.041,0.515
4071,-0.041,0.515
4072,-0.041,0.564
4073,-0.034,0.564
4074,-0.034,0.564
4075,-0.027,0.564
4076,-0.013,0.608
4077,-0.013,0.608
4078,-0.006,0.608
4079,0.001,0.608
4080,0.001,0.638
4081,0.007,0.638
4082,0.014,0.638
4083,0.014,0.638
4084,0.014,0.662
4085,0.014,0.662
4086,0.014,0.662
4087,0.014,0.662
4088,0.014,0.675
4089,0.014,0.675
4090,0.014,0.675
4091,0.028,0.675
4092,0.014,0.675
4093,0.014,0.675
4094,0.014,0.675
4095,0.014,0.675
4096,0.014,0.671
4097,0.014,0.671
4098,0.014,0.671
4099,0.014,0.671
4100,0.007,0.653
4101,0.014,0.653
4102,0.007,0.653
4103,0.007,0.653
4104,0.014,0.629
4105,0.007,0.629
4106,0.007,0.629
4107,0.007,0.629
4108,0.014,0.597
4109,0.007,0.597
4110,0.014,0.597
4111,0.014,0.597
4112,0.014,0.561
4113,0.014,0.561
4114,0.007,0.561
4115,0.014,0.561
4116,0.014,0.518
4117,0.014,0.518
4118,0.014,0.518
4119,0.014,0.518
4120,0.014,0.472
4121,0.035,0.472
4122,0.055,0.472
4123,0.090,0.472
4124,0.131,0.424
4125,0.186,0.424
4126,0.240,0.424
4127,0.316,0.424
4128,0.384,0.378
4129,0.432,0.378
4130,0.467,0.378
4131,0.487,0.378
4132,0.494,0.330
4133,0.494,0.330
4134,0.480,0.330
4135,0.460,0.330
4136,0.412,0.284
4137,0.378,0.284
4138,0.378,0.284
4139,0.378,0.284
4140,0.378,0.238
4141,0.364,0.238
4142,0.336,0.238
4143,0.309,0.238
4144,0.288,0.194
4145,0.268,0.194
4146,0.254,0.194
4147,0.227,0.194
4148,0.186,0.150
4149,0.138,0.150
4150,0.103,0.150
4151,0.055,0.150
4152,0.028,0.109
4153,0.001,0.109
4154,-0.013,0.109
4155,-0.041,0.109
4156,-0.054,0.071
4157,-0.075,0.071
4158,-0.082,0.071
4159,-0.082,0.071
4160,-0.075,0.035
4161,-0.082,0.035
4162,-0.082,0.035
4163,-0.082,0.035
4164,-0.075,0.004
4165,-0.075,0.004
4166,-0.075,0.004
4167,-0.082,0.004
4168,-0.082,-0.029
4169,-0.075,-0.029
4170,-0.082,-0.029
4171,-0.075,-0.029
4172,-0.075,-0.053
4173,-0.082,-0.053
4174,-0.061,-0.053
4175,-0.075,-0.053
4176,-0.075,-0.139
4177,-0.075,-0.139
4178,-0.075,-0.139
4179,-0.075,-0.139
4180,-0.075,-0.147
4181,-0.075,-0.147
4182,-0.075,-0.147
4183,-0.075,-0.147
4184,-0.075,-0.157
4185,-0.075,-0.157
4186,-0.082,-0.157
4187,-0.082,-0.157
4188,-0.082,-0.165
4189,-0.075,-0.165
4190,-0.075,-0.165
4191,-0.082,-0.165
4192,-0.082,-0.172
4193,-0.082,-0.172
4194,-0.082,-0.172
4195,-0.082,-0.172
4196,-0.082,-0.178
4197,-0.082,-0.178
4198,-0.082,-0.178
4199,-0.089,-0.178
4200,-0.089,-0.186
4201,-0.089,-0.186
4202,-0.082,-0.186
4203,-0.089,-0.186
4204,-0.089,-0.193
4205,-0.089,-0.193
4206,-0.082,-0.193
4207,-0.082,-0.193
4208,-0.082,-0.198
4209,-0.089,-0.198
4210,-0.089,-0.198
4211,-0.089,-0.198
4212,-0.089,-0.205
4213,-0.089,-0.205
4214,-0.089,-0.205
4215,-0.089,-0.205
4216,-0.089,-0.213
4217,-0.089,-0.213
4218,-0.102,-0.213
4219,-0.089,-0.213
4220,-0.089,-0.221
4221,-0.089,-0.221
4222,-0.089,-0.221
4223,-0.089,-0.221
4224,-0.089,-0.229
4225,-0.089,-0.229
4226,-0.089,-0.229
4227,-0.089,-0.229
4228,-0.089,-0.236
4229,-0.082,-0.236
4230,-0.082,-0.236
4231,-0.082,-0.236
4232,-0.089,-0.247
4233,-0.082,-0.247
4234,-0.089,-0.247
4235,-0.082,-0.247
4236,-0.082,-0.256
4237,-0.082,-0.256
4238,-0.082,-0.256
4239,-0.075,-0.256
4240,-0.075,-0.266
4241,-0.075,-0.266
4242,-0.061,-0.266
4243,-0.075,-0.266
4244,-0.061,-0.276
4245,-0.061,-0.276
4246,-0.054,-0.276
4247,-0.054,-0.276
4248,-0.054,-0.283
4249,-0.041,-0.283
4250,-0.041,-0.283
4251,-0.041,-0.283
4252,-0.041,-0.291
4253,-0.041,-0.291
4254,-0.034,-0.291
4255,-0.034,-0.291
4256,-0.027,-0.295
4257,-0.027,-0.295
4258,-0.027,-0.295
4259,-0.027,-0.295
4260,-0.027,-0.295
4261,-0.027,-0.295
4262,-0.013,-0.295
4263,-0.013,-0.295
4264,-0.013,-0.294
4265,-0.006,-0.294
4266,-0.013,-0.294
4267,-0.006,-0.294
4268,-0.006,-0.288
4269,0.001,-0.288
4270,-0.006,-0.288
4271,0.001,-0.288
4272,0.001,-0.279
4273,0.001,-0.279
4274,0.007,-0.279
4275,0.007,-0.279
4276,0.001,-0.266
4277,0.007,-0.266
4278,0.007,-0.266
4279,0.014,-0.266
4280,0.007,-0.249
4281,0.007,-0.249
4282,0.007,-0.249
4283,0.007,-0.249
4284,0.007,-0.232
4285,0.007,-0.232
4286,0.007,-0.232
4287,0.014,-0.232
4288,0.014,-0.212
4289,0.014,-0.212
4290,0.014,-0.212
4291,0.014,-0.212
4292,0.007,-0.191
4293,0.007,-0.191
4294,0.007,-0.191
4295,0.007,-0.191
4296,0.007,-0.170
4297,0.007,-0.170
4298,0.007,-0.170
4299,0.001,-0.170
4300,0.007,-0.151
4301,0.001,-0.151
4302,0.001,-0.151
4303,0.007,-0.151
4304,0.007,-0.134
4305,0.007,-0.134
4306,0.001,-0.134
4307,0.007,-0.134
4308,0.001,-0.117
4309,0.001,-0.117
4310,0.001,-0.117
4311,0.001,-0.117
4312,0.001,-0.103
4313,-0.006,-0.103
4314,-0.006,-0.103
4315,0.001,-0.103
4316,0.001,-0.090
4317,0.001,-0.090
4318,-0.006,-0.090
4319,-0.006,-0.090
4320,-0.006,-0.080
4321,-0.006,-0.080
4322,-0.006,-0.080
4323,-0.006,-0.080
4324,-0.006,-0.072
4325,-0.006,-0.072
4326,-0.006,-0.072
4327,-0.006,-0.072
4328,-0.006,-0.067
4329,-0.006,-0.067
4330,-0.013,-0.067
4331,-0.013,-0.067
4332,-0.006,-0.064
4333,-0.013,-0.064
4334,-0.013,-0.064
4335,-0.013,-0.064
4336,-0.013,-0.061
4337,-0.013,-0.061
4338,-0.013,-0.061
4339,-0.013,-0.061
4340,-0.013,-0.062
4341,-0.013,-0.062
4342,-0.013,-0.062
4343,-0.013,-0.062
4344,-0.013,-0.068
4345,-0.013,-0.068
4346,-0.013,-0.068
4347,-0.013,-0.068
4348,-0.013,-0.072
4349,-0.013,-0.072
4350,-0.013,-0.072
4351,-0.013,-0.072
4352,-0.013,-0.080
4353,-0.013,-0.080
4354,-0.013,-0.080
4355,-0.013,-0.080
4356,-0.013,-0.087
4357,-0.006,-0.087
4358,-0.013,-0.087
4359,-0.013,-0.087
4360,-0.013,-0.097
4361,-0.013,-0.097
4362,-0.013,-0.097
4363,-0.013,-0.097
4364,-0.006,-0.107
4365,-0.013,-0.107
4366,-0.006,-0.107
4367,-0.006,-0.107
4368,-0.006,-0.117
4369,-0.006,-0.117
4370,-0.006,-0.117
4371,-0.006,-0.117
4372,-0.006,-0.128
4373,-0.006,-0.128
4374,-0.006,-0.128
4375,-0.013,-0.128
4376,-0.006,-0.138
4377,-0.006,-0.138
4378,-0.006,-0.138
4379,-0.006,-0.138
4380,-0.006,-0.146
4381,-0.006,-0.146
4382,0.001,-0.146
4383,0.001,-0.146
4384,0.001,-0.154
4385,0.001,-0.154
4386,0.001,-0.154
4387,0.001,-0.154
4388,0.001,-0.160
4389,-0.006,-0.160
4390,0.001,-0.160
4391,-0.006,-0.160
4392,0.001,-0.162
4393,0.001,-0.162
4394,0.001,-0.162
4395,0.001,-0.162
4396,0.001,-0.163
4397,0.001,-0.163
4398,0.007,-0.163
4399,0.001,-0.163
4400,0.007,-0.159
4401,0.007,-0.159
4402,0.007,-0.159
4403,0.001,-0.159
4404,0.001,-0.153
4405,0.001,-0.153
4406,0.001,-0.153
4407,0.001,-0.153
4408,0.001,-0.141
4409,0.001,-0.141
4410,0.001,-0.141
4411,0.001,-0.141
4412,0.001,-0.124
4413,0.001,-0.124
4414,0.001,-0.124
4415,-0.006,-0.124
4416,-0.006,-0.105
4417,-0.006,-0.105
4418,-0.013,-0.105
4419,-0.027,-0.105
4420,-0.013,-0.082
4421,-0.027,-0.082
4422,-0.027,-0.082
4423,-0.034,-0.082
4424,-0.034,-0.054
4425,-0.034,-0.054
4426,-0.041,-0.054
4427,-0.041,-0.054
4428,-0.034,-0.025
4429,-0.041,-0.025
4430,-0.034,-0.025
4431,-0.034,-0.025
4432,-0.034,0.005
4433,-0.041,0.005
4434,-0.041,0.005
4435,-0.041,0.005
4436,-0.041,0.034
4437,-0.041,0.034
4438,-0.041,0.034
4439,-0.034,0.034
4440,-0.027,0.064
4441,-0.027,0.064
4442,-0.013,0.064
4443,-0.013,0.064
4444,-0.006,0.091
4445,-0.006,0.091
4446,0.007,0.091
4447,0.014,0.091
4448,0.014,0.114
4449,0.014,0.114
4450,0.014,0.114
4451,0.014,0.114
4452,0.014,0.136
4453,0.014,0.136
4454,0.014,0.136
4455,0.014,0.136
4456,0.014,0.151
4457,0.014,0.151
4458,0.007,0.151
4459,0.007,0.151
4460,0.014,0.165
4461,0.007,0.165
4462,0.007,0.165
4463,0.014,0.165
4464,0.007,0.173
4465,0.014,0.173
4466,0.014,0.173
4467,0.014,0.173
4468,0.014,0.177
4469,0.007,0.177
4470,0.014,0.177
4471,0.014,0.177
4472,0.014,0.176
4473,0.007,0.176
4474,0.014,0.176
4475,0.014,0.176
4476,0.007,0.171
4477,0.014,0.171
4478,0.014,0.171
4479,0.014,0.171
4480,0.014,0.164
4481,0.007,0.164
4482,0.014,0.164
4483,0.007,0.164
4484,0.014,0.151
4485,0.014,0.151
4486,0.014,0.151
4487,0.035,0.151
4488,0.055,0.139
4489,0.090,0.139
4490,0.131,0.139
4491,0.186,0.139
4492,0.240,0.121
4493,0.309,0.121
4494,0.378,0.121
4495,0.432,0.121
4496,0.460,0.103
4497,0.480,0.103
4498,0.487,0.103
4499,0.487,0.103
4500,0.487,0.085
4501,0.460,0.085
4502,0.412,0.085
4503,0.378,0.085
4504,0.378,0.064
4505,0.378,0.064
4506,0.378,0.064
4507,0.364,0.064
4508,0.343,0.043
4509,0.309,0.043
4510,0.288,0.043
4511,0.268,0.043
4512,0.254,0.024
4513,0.227,0.024
4514,0.193,0.024
4515,0.138,0.024
4516,0.103,0.003
4517,0.076,0.003
4518,0.028,0.003
4519,0.007,0.003
4520,-0.013,-0.017
4521,-0.041,-0.017
4522,-0.054,-0.017
4523,-0.075,-0.017
4524,-0.075,-0.035
4525,-0.082,-0.035
4526,-0.082,-0.035
4527,-0.075,-0.035
4528,-0.082,-0.053
4529,-0.082,-0.053
4530,-0.075,-0.053
4531,-0.075,-0.053
4532,-0.082,-0.070
4533,-0.082,-0.070
4534,-0.082,-0.070
4535,-0.075,-0.070
4536,-0.075,-0.084
4537,-0.075,-0.084
4538,-0.075,-0.084
4539,-0.075,-0.084
4540,-0.075,-0.098
4541,-0.075,-0.098
4542,-0.082,-0.098
4543,-0.082,-0.098
4544,-0.075,-0.111
4545,-0.075,-0.111
4546,-0.075,-0.111
4547,-0.075,-0.111
4548,-0.075,-0.121
4549,-0.075,-0.121
4550,-0.075,-0.121
4551,-0.075,-0.121
4552,-0.075,-0.131
4553,-0.082,-0.131
4554,-0.082,-0.131
4555,-0.082,-0.131
4556,-0.082,-0.141
4557,-0.082,-0.141
4558,-0.082,-0.141
4559,-0.082,-0.141
4560,-0.082,-0.149
4561,-0.082,-0.149
4562,-0.082,-0.149
4563,-0.082,-0.149
4564,-0.082,-0.157
4565,-0.082,-0.157
4566,-0.089,-0.157
4567,-0.089,-0.157
4568,-0.089,-0.163
4569,-0.089,-0.163
4570,-0.089,-0.163
4571,-0.089,-0.163
4572,-0.089,-0.171
4573,-0.089,-0.171
4574,-0.102,-0.171
4575,-0.089,-0.171
4576,-0.089,-0.177
4577,-0.089,-0.177
4578,-0.089,-0.177
4579,-0.089,-0.177
4580,-0.089,-0.184
4581,-0.102,-0.184
4582,-0.089,-0.184
4583,-0.089,-0.184
4584,-0.089,-0.192
4585,-0.089,-0.192
4586,-0.102,-0.192
4587,-0.102,-0.192
4588,-0.089,-0.200
4589,-0.089,-0.200
4590,-0.089,-0.200
4591,-0.089,-0.200
4592,-0.089,-0.208
4593,-0.089,-0.208
4594,-0.089,-0.208
4595,-0.089,-0.208
4596,-0.089,-0.218
4597,-0.089,-0.218
4598,-0.082,-0.218
4599,-0.082,-0.218
4600,-0.082,-0.229
4601,-0.082,-0.229
4602,-0.082,-0.229
4603,-0.089,-0.229
4604,-0.075,-0.238
4605,-0.082,-0.238
4606,-0.075,-0.238
4607,-0.075,-0.238
4608,-0.075,-0.248
4609,-0.075,-0.248
4610,-0.075,-0.248
4611,-0.061,-0.248
4612,-0.061,-0.258
4613,-0.061,-0.258
4614,-0.054,-0.258
4615,-0.054,-0.258
4616,-0.041,-0.267
4617,-0.054,-0.267
4618,-0.041,-0.267
4619,-0.041,-0.267
4620,-0.034,-0.273
4621,-0.034,-0.273
4622,-0.034,-0.273
4623,-0.027,-0.273
4624,-0.034,-0.277
4625,-0.027,-0.277
4626,-0.027,-0.277
4627,-0.027,-0.277
4628,-0.027,-0.279
4629,-0.013,-0.279
4630,-0.006,-0.279
4631,-0.013,-0.279
4632,-0.013,-0.277
4633,-0.013,-0.277
4634,-0.006,-0.277
4635,-0.006,-0.277
4636,-0.006,-0.272
4637,-0.006,-0.272
4638,0.001,-0.272
4639,0.001,-0.272
4640,0.001,-0.263
4641,0.001,-0.263
4642,0.001,-0.263
4643,0.001,-0.263
4644,0.001,-0.254
4645,0.001,-0.254
4646,0.001,-0.254
4647,0.007,-0.254
4648,0.007,-0.239
4649,0.007,-0.239
4650,0.007,-0.239
4651,0.007,-0.239
4652,0.007,-0.226
4653,0.007,-0.226
4654,0.014,-0.226
4655,0.007,-0.226
4656,0.007,-0.211
4657,0.007,-0.211
4658,0.007,-0.211
4659,0.007,-0.211
4660,0.001,-0.196
4661,0.001,-0.196
4662,0.001,-0.196
4663,0.007,-0.196
4664,0.007,-0.181
4665,0.001,-0.181
4666,0.001,-0.181
4667,0.001,-0.181
4668,0.001,-0.167
4669,0.001,-0.167
4670,0.001,-0.167
4671,0.001,-0.167
4672,0.001,-0.155
4673,0.001,-0.155
4674,0.001,-0.155
4675,0.001,-0.155
4676,-0.006,-0.143
4677,-0.006,-0.143
4678,-0.006,-0.143
4679,0.001,-0.143
4680,-0.006,-0.135
4681,-0.006,-0.135
4682,-0.006,-0.135
4683,-0.013,-0.135
4684,-0.006,-0.127
4685,-0.006,-0.127
4686,-0.006,-0.127
4687,-0.006,-0.127
4688,-0.006,-0.170
4689,-0.006,-0.170
4690,-0.013,-0.170
4691,-0.006,-0.170
4692,-0.013,-0.164
4693,-0.013,-0.164
4694,-0.013,-0.164
4695,-0.013,-0.164
4696,-0.013,-0.161
4697,-0.013,-0.161
4698,-0.013,-0.161
4699,-0.013,-0.161
4700,-0.013,-0.159
4701,-0.013,-0.159
4702,-0.013,-0.159
4703,-0.013,-0.159
4704,-0.013,-0.161
4705,-0.027,-0.161
4706,-0.013,-0.161
4707,-0.013,-0.161
4708,-0.013,-0.165
4709,-0.013,-0.165
4710,-0.027,-0.165
4711,-0.013,-0.165
4712,-0.013,-0.170
4713,-0.013,-0.170
4714,-0.027,-0.170
4715,-0.006,-0.170
4716,-0.006,-0.179
4717,-0.013,-0.179
4718,-0.013,-0.179
4719,-0.013,-0.179
4720,-0.013,-0.189
4721,-0.006,-0.189
4722,-0.006,-0.189
4723,-0.006,-0.189
4724,-0.013,-0.200
4725,-0.006,-0.200
4726,-0.006,-0.200
4727,-0.013,-0.200
4728,-0.006,-0.210
4729,-0.006,-0.210
4730,-0.006,-0.210
4731,-0.006,-0.210
4732,-0.006,-0.223
4733,-0.006,-0.223
4734,-0.006,-0.223
4735,-0.006,-0.223
4736,-0.006,-0.234
4737,-0.006,-0.234
4738,0.001,-0.234
4739,0.001,-0.234
4740,0.001,-0.245
4741,0.001,-0.245
4742,0.001,-0.245
4743,-0.006,-0.245
4744,0.001,-0.253
4745,0.007,-0.253
4746,-0.006,-0.253
4747,-0.006,-0.253
4748,0.001,-0.260
4749,-0.006,-0.260
4750,0.001,-0.260
4751,-0.006,-0.260
4752,0.001,-0.261
4753,0.001,-0.261
4754,0.001,-0.261
4755,0.001,-0.261
4756,0.001,-0.261
4757,0.001,-0.261
4758,-0.006,-0.261
4759,0.001,-0.261
4760,0.001,-0.253
4761,0.001,-0.253
4762,0.001,-0.253
4763,0.001,-0.253
4764,0.007,-0.242
4765,0.007,-0.242
4766,0.007,-0.242
4767,0.007,-0.242
4768,0.007,-0.222
4769,0.007,-0.222
4770,0.001,-0.222
4771,0.007,-0.222
4772,0.001,-0.197
4773,0.007,-0.197
4774,0.007,-0.197
4775,0.001,-0.197
4776,0.001,-0.165
4777,0.007,-0.165
4778,0.001,-0.165
4779,0.001,-0.165
4780,0.001,-0.124
4781,0.001,-0.124
4782,-0.006,-0.124
4783,-0.013,-0.124
4784,-0.013,-0.082
4785,-0.013,-0.082
4786,-0.027,-0.082
4787,-0.027,-0.082
4788,-0.034,-0.033
4789,-0.041,-0.033
4790,-0.041,-0.033
4791,-0.041,-0.033
4792,-0.054,0.018
4793,-0.041,0.018
4794,-0.054,0.018
4795,-0.054,0.018
4796,-0.041,0.070
4797,-0.041,0.070
4798,-0.041,0.070
4799,-0.041,0.070
4800,-0.054,0.122
4801,-0.054,0.122
4802,-0.054,0.122
4803,-0.041,0.122
4804,-0.034,0.172
4805,-0.034,0.172
4806,-0.034,0.172
4807,-0.027,0.172
4808,-0.013,0.220
4809,-0.013,0.220
4810,-0.006,0.220
4811,-0.013,0.220
4812,0.001,0.261
4813,0.001,0.261
4814,0.007,0.261
4815,0.007,0.261
4816,0.007,0.295
4817,0.007,0.295
4818,0.014,0.295
4819,0.007,0.295
4820,0.007,0.325
4821,0.007,0.325
4822,0.007,0.325
4823,0.007,0.325
4824,0.007,0.345
4825,0.007,0.345
4826,0.001,0.345
4827,0.001,0.345
4828,0.007,0.358
4829,0.001,0.358
4830,0.014,0.358
4831,0.007,0.358
4832,0.007,0.364
4833,0.001,0.364
4834,0.001,0.364
4835,0.001,0.364
4836,0.001,0.364
4837,0.001,0.364
4838,0.007,0.364
4839,0.007,0.364
4840,0.007,0.358
4841,0.007,0.358
4842,0.001,0.358
4843,0.001,0.358
4844,0.007,0.344
4845,0.007,0.344
4846,0.007,0.344
4847,0.001,0.344
4848,0.007,0.327
4849,0.007,0.327
4850,0.007,0.327
4851,0.014,0.327
4852,0.014,0.306
4853,0.035,0.306
4854,0.062,0.306
4855,0.110,0.306
4856,0.158,0.278
4857,0.213,0.278
4858,0.282,0.278
4859,0.336,0.278
4860,0.391,0.251
4861,0.439,0.251
4862,0.467,0.251
4863,0.480,0.251
4864,0.480,0.220
4865,0.480,0.220
4866,0.460,0.220
4867,0.418,0.220
4868,0.378,0.186
4869,0.357,0.186
4870,0.357,0.186
4871,0.343,0.186
4872,0.336,0.155
4873,0.316,0.155
4874,0.282,0.155
4875,0.240,0.155
4876,0.227,0.124
4877,0.206,0.124
4878,0.186,0.124
4879,0.158,0.124
4880,0.117,0.091
4881,0.083,0.091
4882,0.042,0.091
4883,0.007,0.091
4884,-0.013,0.059
4885,-0.034,0.059
4886,-0.054,0.059
4887,-0.075,0.059
4888,-0.082,0.028
4889,-0.082,0.028
4890,-0.089,0.028
4891,-0.082,0.028
4892,-0.082,0.000
4893,-0.082,0.000
4894,-0.082,0.000
4895,-0.082,0.000
4896,-0.082,-0.027
4897,-0.082,-0.027
4898,-0.082,-0.027
4899,-0.082,-0.027
4900,-0.082,-0.052
4901,-0.082,-0.052
4902,-0.075,-0.052
4903,-0.075,-0.052
4904,-0.082,-0.074
4905,-0.082,-0.074
4906,-0.082,-0.074
4907,-0.075,-0.074
4908,-0.075,-0.095
4909,-0.082,-0.095
4910,-0.075,-0.095
4911,-0.082,-0.095
4912,-0.082,-0.114
4913,-0.082,-0.114
4914,-0.075,-0.114
4915,-0.082,-0.114
4916,-0.082,-0.129
4917,-0.082,-0.129
4918,-0.075,-0.129
4919,-0.075,-0.129
4920,-0.082,-0.141
4921,-0.082,-0.141
4922,-0.082,-0.141
4923,-0.082,-0.141
4924,-0.082,-0.155
4925,-0.089,-0.155
4926,-0.082,-0.155
4927,-0.082,-0.155
4928,-0.082,-0.165
4929,-0.089,-0.165
4930,-0.082,-0.165
4931,-0.089,-0.165
4932,-0.089,-0.174
4933,-0.082,-0.174
4934,-0.089,-0.174
4935,-0.089,-0.174
4936,-0.089,-0.184
4937,-0.089,-0.184
4938,-0.089,-0.184
4939,-0.089,-0.184
4940,-0.089,-0.194
4941,-0.089,-0.194
4942,-0.089,-0.194
4943,-0.102,-0.194
4944,-0.102,-0.221
4945,-0.082,-0.221
4946,-0.089,-0.221
4947,-0.089,-0.221
4948,-0.089,-0.233
4949,-0.089,-0.233
4950,-0.102,-0.233
4951,-0.089,-0.233
4952,-0.089,-0.248
4953,-0.089,-0.248
4954,-0.089,-0.248
4955,-0.089,-0.248
4956,-0.089,-0.263
4957,-0.102,-0.263
4958,-0.089,-0.263
4959,-0.082,-0.263
4960,-0.089,-0.276
4961,-0.089,-0.276
4962,-0.089,-0.276
4963,-0.089,-0.276
4964,-0.089,-0.290
4965,-0.082,-0.290
4966,-0.082,-0.290
4967,-0.089,-0.290
4968,-0.089,-0.309
4969,-0.082,-0.309
4970,-0.075,-0.309
4971,-0.075,-0.309
4972,-0.075,-0.329
4973,-0.061,-0.329
4974,-0.061,-0.329
4975,-0.061,-0.329
4976,-0.061,-0.343
4977,-0.054,-0.343
4978,-0.054,-0.343
4979,-0.041,-0.343
4980,-0.054,-0.358
4981,-0.041,-0.358
4982,-0.041,-0.358
4983,-0.041,-0.358
4984,-0.034,-0.370
4985,-0.034,-0.370
4986,-0.034,-0.370
4987,-0.034,-0.370
4988,-0.034,-0.379
4989,-0.034,-0.379
4990,-0.027,-0.379
4991,-0.027,-0.379
4992,-0.013,-0.381
4993,-0.013,-0.381
4994,-0.013,-0.381
4995,-0.013,-0.381
4996,-0.013,-0.381
4997,-0.006,-0.381
4998,-0.006,-0.381
4999,-0.006,-0.381
5000,-0.006,-0.370
5001,-0.006,-0.370
5002,-0.006,-0.370
5003,0.001,-0.370
5004,0.001,-0.356
5005,0.001,-0.356
5006,0.007,-0.356
5007,0.007,-0.356
5008,0.007,-0.333
5009,0.007,-0.333
5010,0.007,-0.333
5011,0.007,-0.333
5012,0.014,-0.309
5013,0.014,-0.309
5014,0.014,-0.309
5015,0.014,-0.309
5016,0.014,-0.278
5017,0.014,-0.278
5018,0.014,-0.278
5019,0.007,-0.278
5020,0.014,-0.245
5021,0.014,-0.245
5022,0.014,-0.245
5023,0.014,-0.245
5024,0.014,-0.214
5025,0.014,-0.214
5026,0.007,-0.214
5027,0.014,-0.214
5028,0.014,-0.184
5029,0.014,-0.184
5030,0.014,-0.184
5031,0.014,-0.184
5032,0.014,-0.150
5033,0.007,-0.150
5034,0.007,-0.150
5035,0.007,-0.150
5036,0.007,-0.125
5037,0.007,-0.125
5038,0.007,-0.125
5039,0.007,-0.125
5040,0.007,-0.100
5041,0.007,-0.100
5042,0.001,-0.100
5043,0.001,-0.100
5044,0.007,-0.074
5045,0.001,-0.074
5046,0.001,-0.074
5047,0.001,-0.074
5048,0.007,-0.055
5049,0.007,-0.055
5050,0.001,-0.055
5051,0.001,-0.055
5052,0.001,-0.041
5053,0.001,-0.041
5054,0.001,-0.041
5055,0.001,-0.041
5056,0.001,-0.030
5057,0.001,-0.030
5058,0.001,-0.030
5059,-0.006,-0.030
5060,0.001,-0.028
5061,0.001,-0.028
5062,0.001,-0.028
5063,0.001,-0.028
5064,0.001,-0.025
5065,0.001,-0.025
5066,-0.006,-0.025
5067,-0.006,-0.025
5068,-0.006,-0.030
5069,-0.006,-0.030
5070,-0.006,-0.030
5071,-0.006,-0.030
5072,-0.006,-0.034
5073,-0.006,-0.034
5074,-0.006,-0.034
5075,-0.006,-0.034
5076,-0.006,-0.046
5077,-0.006,-0.046
5078,-0.006,-0.046
5079,-0.006,-0.046
5080,-0.006,-0.061
5081,-0.006,-0.061
5082,-0.006,-0.061
5083,-0.006,-0.061
5084,-0.006,-0.081
5085,-0.013,-0.081
5086,0.001,-0.081
5087,-0.006,-0.081
5088,-0.006,-0.102
5089,-0.006,-0.102
5090,-0.006,-0.102
5091,-0.006,-0.102
5092,0.001,-0.125
5093,-0.006,-0.125
5094,-0.006,-0.125
5095,0.001,-0.125
5096,0.001,-0.146
5097,0.001,-0.146
5098,-0.006,-0.146
5099,-0.006,-0.146
5100,-0.006,-0.168
5101,-0.006,-0.168
5102,0.001,-0.168
5103,-0.006,-0.168
5104,-0.006,-0.189
5105,0.001,-0.189
5106,0.001,-0.189
5107,0.001,-0.189
5108,0.001,-0.205
5109,0.001,-0.205
5110,0.001,-0.205
5111,0.001,-0.205
5112,0.001,-0.214
5113,0.001,-0.214
5114,0.001,-0.214
5115,0.001,-0.214
5116,0.001,-0.218
5117,0.001,-0.218
5118,0.001,-0.218
5119,0.001,-0.218
5120,0.001,-0.216
5121,0.001,-0.216
5122,0.001,-0.216
5123,0.001,-0.216
5124,0.007,-0.202
5125,0.001,-0.202
5126,0.007,-0.202
5127,0.001,-0.202
5128,0.001,-0.178
5129,0.001,-0.178
5130,0.001,-0.178
5131,0.007,-0.178
5132,0.007,-0.148
5133,0.014,-0.148
5134,0.007,-0.148
5135,0.007,-0.148
5136,0.007,-0.104
5137,0.007,-0.104
5138,0.007,-0.104
5139,0.007,-0.104
5140,0.007,-0.055
5141,0.001,-0.055
5142,0.001,-0.055
5143,0.007,-0.055
5144,0.007,0.000
5145,0.001,0.000
5146,0.001,0.000
5147,0.001,0.000
5148,0.001,0.059
5149,-0.006,0.059
5150,-0.006,0.059
5151,-0.013,0.059
5152,-0.013,0.120
5153,-0.027,0.120
5154,-0.027,0.120
5155,-0.034,0.120
5156,-0.034,0.177
5157,-0.034,0.177
5158,-0.034,0.177
5159,-0.041,0.177
5160,-0.041,0.237
5161,-0.034,0.237
5162,-0.034,0.237
5163,-0.034,0.237
5164,-0.034,0.290
5165,-0.041,0.290
5166,-0.034,0.290
5167,-0.041,0.290
5168,-0.041,0.335
5169,-0.041,0.335
5170,-0.034,0.335
5171,-0.034,0.335
5172,-0.027,0.377
5173,-0.013,0.377
5174,-0.013,0.377
5175,-0.013,0.377
5176,-0.006,0.406
5177,-0.006,0.406
5178,0.001,0.406
5179,0.007,0.406
5180,0.014,0.425
5181,0.007,0.425
5182,0.014,0.425
5183,0.014,0.425
5184,0.014,0.438
5185,0.014,0.438
5186,0.014,0.438
5187,0.014,0.438
5188,0.014,0.443
5189,0.007,0.443
5190,0.014,0.443
5191,0.007,0.443
5192,0.007,0.436
5193,0.007,0.436
5194,0.007,0.436
5195,0.007,0.436
5196,0.007,0.425
5197,0.007,0.425
5198,0.007,0.425
5199,0.007,0.425
5200,0.014,0.412
5201,0.007,0.412
5202,0.007,0.412
5203,0.007,0.412
5204,0.007,0.383
5205,0.007,0.383
5206,0.014,0.383
5207,0.007,0.383
5208,0.014,0.351
5209,0.007,0.351
5210,0.007,0.351
5211,0.007,0.351
5212,0.014,0.311
5213,0.007,0.311
5214,0.007,0.311
5215,0.007,0.311
5216,0.007,0.271
5217,0.014,0.271
5218,0.014,0.271
5219,0.035,0.271
5220,0.062,0.227
5221,0.090,0.227
5222,0.138,0.227
5223,0.193,0.227
5224,0.254,0.179
5225,0.316,0.179
5226,0.364,0.179
5227,0.418,0.179
5228,0.439,0.133
5229,0.460,0.133
5230,0.460,0.133
5231,0.460,0.133
5232,0.453,0.086
5233,0.418,0.086
5234,0.364,0.086
5235,0.336,0.086
5236,0.329,0.044
5237,0.316,0.044
5238,0.309,0.044
5239,0.282,0.044
5240,0.254,0.000
5241,0.213,0.000
5242,0.193,0.000
5243,0.179,0.000
5244,0.158,-0.041
5245,0.131,-0.041
5246,0.090,-0.041
5247,0.055,-0.041
5248,0.028,-0.083
5249,0.001,-0.083
5250,-0.013,-0.083
5251,-0.034,-0.083
5252,-0.061,-0.119
5253,-0.075,-0.119
5254,-0.089,-0.119
5255,-0.089,-0.119
5256,-0.089,-0.152
5257,-0.082,-0.152
5258,-0.082,-0.152
5259,-0.082,-0.152
5260,-0.075,-0.184
5261,-0.082,-0.184
5262,-0.075,-0.184
5263,-0.075,-0.184
5264,-0.075,-0.212
5265,-0.075,-0.212
5266,-0.075,-0.212
5267,-0.075,-0.212
5268,-0.075,-0.239
5269,-0.075,-0.239
5270,-0.061,-0.239
5271,-0.061,-0.239
5272,-0.061,-0.265
5273,-0.061,-0.265
5274,-0.061,-0.265
5275,-0.075,-0.265
5276,-0.075,-0.286
5277,-0.061,-0.286
5278,-0.061,-0.286
5279,-0.061,-0.286
5280,-0.075,-0.309
5281,-0.061,-0.309
5282,-0.061,-0.309
5283,-0.075,-0.309
5284,-0.075,-0.331
5285,-0.075,-0.331
5286,-0.075,-0.331
5287,-0.075,-0.331
5288,-0.075,-0.354
5289,-0.075,-0.354
5290,-0.075,-0.354
5291,-0.082,-0.354
5292,-0.082,-0.373
5293,-0.082,-0.373
5294,-0.082,-0.373
5295,-0.075,-0.373
5296,-0.082,-0.394
5297,-0.075,-0.394
5298,-0.075,-0.394
5299,-0.082,-0.394
5300,-0.082,-0.413
5301,-0.082,-0.413
5302,-0.082,-0.413
5303,-0.082,-0.413
5304,-0.075,-0.428
5305,-0.075,-0.428
5306,-0.082,-0.428
5307,-0.082,-0.428
5308,-0.082,-0.445
5309,-0.082,-0.445
5310,-0.082,-0.445
5311,-0.082,-0.445
5312,-0.082,-0.456
5313,-0.082,-0.456
5314,-0.082,-0.456
5315,-0.082,-0.456
5316,-0.075,-0.464
5317,-0.082,-0.464
5318,-0.082,-0.464
5319,-0.082,-0.464
5320,-0.082,-0.474
5321,-0.082,-0.474
5322,-0.082,-0.474
5323,-0.082,-0.474
5324,-0.082,-0.481
5325,-0.082,-0.481
5326,-0.082,-0.481
5327,-0.082,-0.481
5328,-0.082,-0.485
5329,-0.082,-0.485
5330,-0.075,-0.485
5331,-0.082,-0.485
5332,-0.075,-0.487
5333,-0.075,-0.487
5334,-0.061,-0.487
5335,-0.061,-0.487
5336,-0.061,-0.495
5337,-0.054,-0.495
5338,-0.054,-0.495
5339,-0.054,-0.495
5340,-0.054,-0.500
5341,-0.054,-0.500
5342,-0.054,-0.500
5343,-0.054,-0.500
5344,-0.041,-0.508
5345,-0.041,-0.508
5346,-0.034,-0.508
5347,-0.034,-0.508
5348,-0.034,-0.514
5349,-0.034,-0.514
5350,-0.027,-0.514
5351,-0.027,-0.514
5352,-0.027,-0.519
5353,-0.013,-0.519
5354,-0.027,-0.519
5355,-0.013,-0.519
5356,-0.013,-0.514
5357,-0.013,-0.514
5358,-0.006,-0.514
5359,-0.006,-0.514
5360,-0.013,-0.510
5361,-0.006,-0.510
5362,-0.006,-0.510
5363,-0.006,-0.510
5364,0.001,-0.493
5365,0.001,-0.493
5366,0.001,-0.493
5367,-0.006,-0.493
5368,0.001,-0.472
5369,0.001,-0.472
5370,0.007,-0.472
5371,0.007,-0.472
5372,0.014,-0.439
5373,0.014,-0.439
5374,0.007,-0.439
5375,0.014,-0.439
5376,0.014,-0.403
5377,0.014,-0.403
5378,0.014,-0.403
5379,0.014,-0.403
5380,0.028,-0.360
5381,0.028,-0.360
5382,0.028,-0.360
5383,0.028,-0.360
5384,0.014,-0.314
5385,0.028,-0.314
5386,0.014,-0.314
5387,0.028,-0.314
5388,0.028,-0.267
5389,0.014,-0.267
5390,0.014,-0.267
5391,0.028,-0.267
5392,0.014,-0.216
5393,0.014,-0.216
5394,0.014,-0.216
5395,0.014,-0.216
5396,0.014,-0.174
5397,0.014,-0.174
5398,0.014,-0.174
5399,0.014,-0.174
5400,0.014,-0.134
5401,0.014,-0.134
5402,0.014,-0.134
5403,0.014,-0.134
5404,0.014,-0.098
5405,0.014,-0.098
5406,0.014,-0.098
5407,0.014,-0.098
5408,0.007,-0.066
5409,0.007,-0.066
5410,0.007,-0.066
5411,0.007,-0.066
5412,0.007,-0.038
5413,0.007,-0.038
5414,0.007,-0.038
5415,0.007,-0.038
5416,0.007,-0.017
5417,0.001,-0.017
5418,0.001,-0.017
5419,0.001,-0.017
5420,0.001,0.000
5421,0.001,0.000
5422,0.001,0.000
5423,0.007,0.000
5424,0.007,0.015
5425,0.001,0.015
5426,0.001,0.015
5427,0.001,0.015
5428,0.001,0.023
5429,0.001,0.023
5430,0.001,0.023
5431,0.001,0.023
5432,0.001,0.025
5433,0.001,0.025
5434,0.001,0.025
5435,0.001,0.025
5436,0.001,0.028
5437,0.001,0.028
5438,0.001,0.028
5439,0.001,0.028
5440,0.001,0.025
5441,0.001,0.025
5442,0.001,0.025
5443,0.001,0.025
5444,0.001,0.015
5445,0.001,0.015
5446,0.001,0.015
5447,0.001,0.015
5448,0.001,0.006
5449,0.001,0.006
5450,0.001,0.006
5451,0.001,0.006
5452,0.001,-0.009
5453,0.001,-0.009
5454,0.001,-0.009
5455,0.001,-0.009
5456,0.001,-0.084
5457,0.007,-0.084
5458,0.007,-0.084
5459,0.007,-0.084
5460,0.001,-0.105
5461,0.001,-0.105
5462,0.007,-0.105
5463,0.007,-0.105
5464,0.007,-0.127
5465,0.007,-0.127
5466,0.001,-0.127
5467,0.007,-0.127
5468,0.007,-0.145
5469,0.001,-0.145
5470,0.007,-0.145
5471,0.007,-0.145
5472,0.007,-0.169
5473,0.014,-0.169
5474,0.007,-0.169
5475,0.007,-0.169
5476,0.007,-0.186
5477,0.007,-0.186
5478,0.007,-0.186
5479,0.007,-0.186
5480,0.007,-0.205
5481,0.001,-0.205
5482,0.001,-0.205
5483,0.001,-0.205
5484,0.007,-0.217
5485,0.007,-0.217
5486,0.007,-0.217
5487,0.001,-0.217
5488,0.007,-0.224
5489,0.001,-0.224
5490,0.007,-0.224
5491,0.001,-0.224
5492,0.001,-0.227
5493,0.001,-0.227
5494,0.001,-0.227
5495,0.007,-0.227
5496,0.007,-0.222
5497,0.007,-0.222
5498,0.007,-0.222
5499,0.007,-0.222
5500,0.007,-0.205
5501,0.007,-0.205
5502,0.007,-0.205
5503,0.007,-0.205
5504,0.007,-0.178
5505,0.007,-0.178
5506,0.007,-0.178
5507,0.007,-0.178
5508,0.007,-0.145
5509,0.007,-0.145
5510,0.007,-0.145
5511,0.001,-0.145
5512,0.001,-0.098
5513,0.001,-0.098
5514,0.007,-0.098
5515,-0.006,-0.098
5516,0.001,-0.045
5517,-0.006,-0.045
5518,-0.006,-0.045
5519,-0.013,-0.045
5520,-0.013,0.019
5521,-0.027,0.019
5522,-0.034,0.019
5523,-0.034,0.019
5524,-0.034,0.086
5525,-0.034,0.086
5526,-0.034,0.086
5527,-0.034,0.086
5528,-0.034,0.158
5529,-0.034,0.158
5530,-0.034,0.158
5531,-0.034,0.158
5532,-0.034,0.234
5533,-0.034,0.234
5534,-0.034,0.234
5535,-0.034,0.234
5536,-0.041,0.305
5537,-0.034,0.305
5538,-0.034,0.305
5539,-0.034,0.305
5540,-0.027,0.372
5541,-0.013,0.372
5542,-0.006,0.372
5543,-0.006,0.372
5544,0.007,0.431
5545,0.001,0.431
5546,0.007,0.431
5547,0.014,0.431
5548,0.014,0.486
5549,0.014,0.486
5550,0.014,0.486
5551,0.028,0.486
5552,0.028,0.529
5553,0.014,0.529
5554,0.028,0.529
5555,0.028,0.529
5556,0.028,0.562
5557,0.028,0.562
5558,0.014,0.562
5559,0.014,0.562
5560,0.014,0.586
5561,0.014,0.586
5562,0.014,0.586
5563,0.014,0.586
5564,0.014,0.601
5565,0.014,0.601
5566,0.014,0.601
5567,0.014,0.601
5568,0.014,0.601
5569,0.007,0.601
5570,0.014,0.601
5571,0.014,0.601
5572,0.014,0.596
5573,0.014,0.596
5574,0.014,0.596
5575,0.014,0.596
5576,0.014,0.577
5577,0.007,0.577
5578,0.007,0.577
5579,0.007,0.577
5580,0.007,0.553
5581,0.007,0.553
5582,0.007,0.553
5583,0.007,0.553
5584,0.007,0.519
5585,0.007,0.519
5586,0.028,0.519
5587,0.042,0.519
5588,0.083,0.479
5589,0.131,0.479
5590,0.186,0.479
5591,0.240,0.479
5592,0.309,0.441
5593,0.378,0.441
5594,0.432,0.441
5595,0.453,0.441
5596,0.480,0.393
5597,0.480,0.393
5598,0.480,0.393
5599,0.480,0.393
5600,0.453,0.348
5601,0.405,0.348
5602,0.357,0.348
5603,0.364,0.348
5604,0.357,0.298
5605,0.357,0.298
5606,0.336,0.298
5607,0.309,0.298
5608,0.268,0.250
5609,0.254,0.250
5610,0.233,0.250
5611,0.213,0.250
5612,0.186,0.200
5613,0.151,0.200
5614,0.110,0.200
5615,0.076,0.200
5616,0.035,0.155
5617,0.007,0.155
5618,-0.006,0.155
5619,-0.034,0.155
5620,-0.054,0.107
5621,-0.061,0.107
5622,-0.061,0.107
5623,-0.075,0.107
5624,-0.075,0.065
5625,-0.075,0.065
5626,-0.075,0.065
5627,-0.075,0.065
5628,-0.075,0.024
5629,-0.061,0.024
5630,-0.075,0.024
5631,-0.075,0.024
5632,-0.075,-0.015
5633,-0.075,-0.015
5634,-0.075,-0.015
5635,-0.061,-0.015
5636,-0.061,-0.050
5637,-0.075,-0.050
5638,-0.061,-0.050
5639,-0.061,-0.050
5640,-0.061,-0.079
5641,-0.061,-0.079
5642,-0.075,-0.079
5643,-0.075,-0.079
5644,-0.075,-0.110
5645,-0.075,-0.110
5646,-0.075,-0.110
5647,-0.061,-0.110
5648,-0.061,-0.134
5649,-0.061,-0.134
5650,-0.075,-0.134
5651,-0.075,-0.134
5652,-0.075,-0.160
5653,-0.075,-0.160
5654,-0.075,-0.160
5655,-0.061,-0.160
5656,-0.075,-0.176
5657,-0.075,-0.176
5658,-0.075,-0.176
5659,-0.075,-0.176
5660,-0.082,-0.196
5661,-0.082,-0.196
5662,-0.082,-0.196
5663,-0.075,-0.196
5664,-0.075,-0.212
5665,-0.082,-0.212
5666,-0.082,-0.212
5667,-0.082,-0.212
5668,-0.082,-0.227
5669,-0.082,-0.227
5670,-0.089,-0.227
5671,-0.082,-0.227
5672,-0.082,-0.238
5673,-0.082,-0.238
5674,-0.082,-0.238
5675,-0.082,-0.238
5676,-0.082,-0.255
5677,-0.082,-0.255
5678,-0.082,-0.255
5679,-0.082,-0.255
5680,-0.082,-0.272
5681,-0.082,-0.272
5682,-0.089,-0.272
5683,-0.082,-0.272
5684,-0.082,-0.286
5685,-0.082,-0.286
5686,-0.089,-0.286
5687,-0.082,-0.286
5688,-0.082,-0.305
5689,-0.082,-0.305
5690,-0.089,-0.305
5691,-0.089,-0.305
5692,-0.082,-0.324
5693,-0.089,-0.324
5694,-0.082,-0.324
5695,-0.082,-0.324
5696,-0.082,-0.348
5697,-0.082,-0.348
5698,-0.082,-0.348
5699,-0.075,-0.348
5700,-0.075,-0.371
5701,-0.075,-0.371
5702,-0.075,-0.371
5703,-0.075,-0.371
5704,-0.075,-0.396
5705,-0.075,-0.396
5706,-0.075,-0.396
5707,-0.061,-0.396
5708,-0.061,-0.419
5709,-0.061,-0.419
5710,-0.061,-0.419
5711,-0.054,-0.419
5712,-0.054,-0.454
5713,-0.041,-0.454
5714,-0.041,-0.454
5715,-0.041,-0.454
5716,-0.041,-0.475
5717,-0.041,-0.475
5718,-0.041,-0.475
5719,-0.034,-0.475
5720,-0.034,-0.489
5721,-0.034,-0.489
5722,-0.034,-0.489
5723,-0.034,-0.489
5724,-0.027,-0.501
5725,-0.027,-0.501
5726,-0.027,-0.501
5727,-0.027,-0.501
5728,-0.013,-0.503
5729,-0.013,-0.503
5730,-0.006,-0.503
5731,-0.006,-0.503
5732,-0.006,-0.498
5733,-0.006,-0.498
5734,-0.006,-0.498
5735,-0.006,-0.498
5736,-0.006,-0.484
5737,0.001,-0.484
5738,-0.006,-0.484
5739,0.001,-0.484
5740,0.001,-0.466
5741,0.001,-0.466
5742,0.007,-0.466
5743,0.001,-0.466
5744,0.007,-0.442
5745,0.007,-0.442
5746,0.014,-0.442
5747,0.007,-0.442
5748,0.014,-0.410
5749,0.014,-0.410
5750,0.014,-0.410
5751,0.014,-0.410
5752,0.014,-0.375
5753,0.014,-0.375
5754,0.007,-0.375
5755,0.007,-0.375
5756,0.014,-0.342
5757,0.007,-0.342
5758,0.007,-0.342
5759,0.007,-0.342
5760,0.007,-0.308
5761,0.007,-0.308
5762,0.007,-0.308
5763,0.007,-0.308
5764,0.007,-0.271
5765,0.007,-0.271
5766,0.007,-0.271
5767,0.007,-0.271
5768,0.007,-0.239
5769,0.001,-0.239
5770,0.007,-0.239
5771,0.001,-0.239
5772,0.007,-0.209
5773,0.001,-0.209
5774,0.001,-0.209
5775,0.007,-0.209
5776,0.001,-0.182
5777,0.001,-0.182
5778,0.001,-0.182
5779,0.001,-0.182
5780,0.001,-0.159
5781,0.001,-0.159
5782,0.001,-0.159
5783,0.001,-0.159
5784,-0.006,-0.140
5785,0.001,-0.140
5786,0.001,-0.140
5787,0.001,-0.140
5788,-0.006,-0.126
5789,-0.006,-0.126
5790,-0.006,-0.126
5791,0.001,-0.126
5792,-0.006,-0.118
5793,-0.006,-0.118
5794,-0.006,-0.118
5795,-0.006,-0.118
5796,-0.006,-0.114
5797,-0.006,-0.114
5798,-0.006,-0.114
5799,-0.006,-0.114
5800,-0.013,-0.116
5801,-0.006,-0.116
5802,-0.013,-0.116
5803,-0.013,-0.116
5804,-0.006,-0.118
5805,-0.013,-0.118
5806,-0.013,-0.118
5807,-0.013,-0.118
5808,-0.013,-0.128
5809,-0.013,-0.128
5810,-0.013,-0.128
5811,-0.013,-0.128
5812,-0.013,-0.142
5813,-0.013,-0.142
5814,-0.013,-0.142
5815,-0.013,-0.142
5816,-0.013,-0.162
5817,-0.006,-0.162
5818,-0.013,-0.162
5819,-0.013,-0.162
5820,-0.006,-0.178
5821,-0.013,-0.178
5822,-0.006,-0.178
5823,-0.013,-0.178
5824,-0.013,-0.202
5825,-0.013,-0.202
5826,-0.006,-0.202
5827,-0.006,-0.202
5828,-0.006,-0.221
5829,-0.006,-0.221
5830,-0.006,-0.221
5831,0.001,-0.221
5832,-0.006,-0.244
5833,-0.006,-0.244
5834,-0.006,-0.244
5835,-0.006,-0.244
5836,-0.006,-0.266
5837,-0.006,-0.266
5838,-0.006,-0.266
5839,-0.006,-0.266
5840,-0.006,-0.289
5841,0.001,-0.289
5842,-0.006,-0.289
5843,0.001,-0.289
5844,-0.006,-0.306
5845,0.001,-0.306
5846,-0.006,-0.306
5847,0.001,-0.306
5848,0.001,-0.321
5849,0.001,-0.321
5850,0.001,-0.321
5851,0.001,-0.321
5852,0.001,-0.330
5853,0.001,-0.330
5854,0.001,-0.330
5855,-0.006,-0.330
5856,-0.006,-0.335
5857,0.001,-0.335
5858,0.001,-0.335
5859,0.001,-0.335
5860,0.001,-0.328
5861,0.001,-0.328
5862,0.007,-0.328
5863,0.001,-0.328
5864,0.007,-0.314
5865,0.007,-0.314
5866,0.007,-0.314
5867,0.007,-0.314
5868,0.007,-0.287
5869,0.001,-0.287
5870,0.001,-0.287
5871,0.007,-0.287
5872,0.001,-0.247
5873,0.001,-0.247
5874,0.001,-0.247
5875,0.001,-0.247
5876,0.001,-0.204
5877,0.001,-0.204
5878,0.001,-0.204
5879,0.001,-0.204
5880,0.001,-0.147
5881,0.001,-0.147
5882,-0.006,-0.147
5883,-0.006,-0.147
5884,-0.006,-0.083
5885,-0.013,-0.083
5886,-0.013,-0.083
5887,-0.027,-0.083
5888,-0.027,-0.017
5889,-0.034,-0.017
5890,-0.034,-0.017
5891,-0.041,-0.017
5892,-0.041,0.052
5893,-0.054,0.052
5894,-0.041,0.052
5895,-0.041,0.052
5896,-0.041,0.126
5897,-0.041,0.126
5898,-0.041,0.126
5899,-0.034,0.126
5900,-0.034,0.193
5901,-0.041,0.193
5902,-0.041,0.193
5903,-0.041,0.193
5904,-0.041,0.257
5905,-0.034,0.257
5906,-0.027,0.257
5907,-0.027,0.257
5908,-0.013,0.316
5909,-0.006,0.316
5910,-0.006,0.316
5911,0.001,0.316
5912,0.001,0.368
5913,0.007,0.368
5914,0.014,0.368
5915,0.014,0.368
5916,0.014,0.406
5917,0.014,0.406
5918,0.014,0.406
5919,0.014,0.406
5920,0.028,0.442
5921,0.014,0.442
5922,0.014,0.442
5923,0.028,0.442
5924,0.014,0.466
5925,0.014,0.466
5926,0.014,0.466
5927,0.014,0.466
5928,0.014,0.473
5929,0.014,0.473
5930,0.014,0.473
5931,0.007,0.473
5932,0.014,0.477
5933,0.007,0.477
5934,0.014,0.477
5935,0.014,0.477
5936,0.014,0.470
5937,0.001,0.470
5938,0.001,0.470
5939,0.007,0.470
5940,0.007,0.454
5941,0.007,0.454
5942,0.007,0.454
5943,0.007,0.454
5944,0.007,0.430
5945,0.007,0.430
5946,0.007,0.430
5947,0.007,0.430
5948,0.007,0.402
5949,0.007,0.402
5950,0.007,0.402
5951,0.007,0.402
5952,0.028,0.363
5953,0.042,0.363
5954,0.083,0.363
5955,0.131,0.363
5956,0.179,0.328
5957,0.240,0.328
5958,0.309,0.328
5959,0.364,0.328
5960,0.418,0.287
5961,0.460,0.287
5962,0.480,0.287
5963,0.487,0.287
5964,0.487,0.245
5965,0.487,0.245
5966,0.467,0.245
5967,0.418,0.245
5968,0.378,0.198
5969,0.378,0.198
5970,0.384,0.198
5971,0.378,0.198
5972,0.357,0.152
5973,0.336,0.152
5974,0.309,0.152
5975,0.268,0.152
5976,0.254,0.110
5977,0.233,0.110
5978,0.213,0.110
5979,0.179,0.110
5980,0.138,0.065
5981,0.090,0.065
5982,0.055,0.065
5983,0.028,0.065
5984,-0.006,0.024
5985,-0.027,0.024
5986,-0.041,0.024
5987,-0.061,0.024
5988,-0.061,-0.017
5989,-0.075,-0.017
5990,-0.075,-0.017
5991,-0.075,-0.017
5992,-0.075,-0.057
5993,-0.075,-0.057
5994,-0.075,-0.057
5995,-0.075,-0.057
5996,-0.075,-0.090
5997,-0.075,-0.090
5998,-0.075,-0.090
5999,-0.075,-0.090
6000,-0.075,-0.123
6001,-0.075,-0.123
6002,-0.075,-0.123
6003,-0.075,-0.123
6004,-0.075,-0.154
6005,-0.075,-0.154
6006,-0.075,-0.154
6007,-0.075,-0.154
6008,-0.075,-0.180
6009,-0.075,-0.180
6010,-0.075,-0.180
6011,-0.075,-0.180
6012,-0.075,-0.202
6013,-0.075,-0.202
6014,-0.075,-0.202
6015,-0.075,-0.202
6016,-0.075,-0.223
6017,-0.075,-0.223
6018,-0.075,-0.223
6019,-0.075,-0.223
6020,-0.082,-0.239
6021,-0.082,-0.239
6022,-0.075,-0.239
6023,-0.082,-0.239
6024,-0.082,-0.257
6025,-0.082,-0.257
6026,-0.082,-0.257
6027,-0.082,-0.257
6028,-0.082,-0.271
6029,-0.082,-0.271
6030,-0.089,-0.271
6031,-0.082,-0.271
6032,-0.082,-0.285
6033,-0.082,-0.285
6034,-0.082,-0.285
6035,-0.089,-0.285
6036,-0.089,-0.296
6037,-0.089,-0.296
6038,-0.082,-0.296
6039,-0.089,-0.296
6040,-0.089,-0.306
6041,-0.089,-0.306
6042,-0.089,-0.306
6043,-0.089,-0.306
6044,-0.089,-0.318
6045,-0.089,-0.318
6046,-0.089,-0.318
6047,-0.089,-0.318
6048,-0.089,-0.328
6049,-0.089,-0.328
6050,-0.102,-0.328
6051,-0.089,-0.328
6052,-0.089,-0.344
6053,-0.089,-0.344
6054,-0.089,-0.344
6055,-0.089,-0.344
6056,-0.089,-0.356
6057,-0.082,-0.356
6058,-0.089,-0.356
6059,-0.089,-0.356
6060,-0.089,-0.368
6061,-0.089,-0.368
6062,-0.089,-0.368
6063,-0.082,-0.368
6064,-0.082,-0.390
6065,-0.082,-0.390
6066,-0.082,-0.390
6067,-0.082,-0.390
6068,-0.082,-0.401
6069,-0.082,-0.401
6070,-0.075,-0.401
6071,-0.075,-0.401
6072,-0.075,-0.422
6073,-0.075,-0.422
6074,-0.075,-0.422
6075,-0.075,-0.422
6076,-0.061,-0.439
6077,-0.061,-0.439
6078,-0.054,-0.439
6079,-0.054,-0.439
6080,-0.054,-0.454
6081,-0.054,-0.454
6082,-0.054,-0.454
6083,-0.041,-0.454
6084,-0.041,-0.466
6085,-0.041,-0.466
6086,-0.034,-0.466
6087,-0.034,-0.466
6088,-0.034,-0.472
6089,-0.034,-0.472
6090,-0.027,-0.472
6091,-0.013,-0.472
6092,-0.027,-0.477
6093,-0.027,-0.477
6094,-0.013,-0.477
6095,-0.027,-0.477
6096,-0.013,-0.475
6097,-0.013,-0.475
6098,-0.013,-0.475
6099,-0.006,-0.475
6100,-0.006,-0.466
6101,-0.006,-0.466
6102,-0.006,-0.466
6103,0.001,-0.466
6104,0.001,-0.444
6105,0.001,-0.444
6106,0.001,-0.444
6107,0.001,-0.444
6108,0.007,-0.420
6109,0.001,-0.420
6110,0.007,-0.420
6111,0.007,-0.420
6112,0.007,-0.390
6113,0.007,-0.390
6114,0.007,-0.390
6115,0.014,-0.390
6116,0.007,-0.351
6117,0.007,-0.351
6118,0.014,-0.351
6119,0.014,-0.351
6120,0.014,-0.316
6121,0.014,-0.316
6122,0.014,-0.316
6123,0.007,-0.316
6124,0.014,-0.278
6125,0.007,-0.278
6126,0.007,-0.278
6127,0.007,-0.278
6128,0.007,-0.235
6129,0.007,-0.235
6130,0.007,-0.235
6131,0.007,-0.235
6132,0.007,-0.200
6133,0.007,-0.200
6134,0.007,-0.200
6135,0.007,-0.200
6136,0.007,-0.164
6137,0.007,-0.164
6138,0.001,-0.164
6139,0.001,-0.164
6140,-0.006,-0.131
6141,0.001,-0.131
6142,0.001,-0.131
6143,0.001,-0.131
6144,0.001,-0.104
6145,0.001,-0.104
6146,0.001,-0.104
6147,0.001,-0.104
6148,0.001,-0.081
6149,0.001,-0.081
6150,-0.006,-0.081
6151,0.001,-0.081
6152,0.001,-0.059
6153,0.001,-0.059
6154,-0.006,-0.059
6155,-0.006,-0.059
6156,-0.006,-0.045
6157,-0.006,-0.045
6158,-0.006,-0.045
6159,-0.013,-0.045
6160,0.001,-0.035
6161,-0.006,-0.035
6162,-0.006,-0.035
6163,-0.006,-0.035
6164,-0.006,-0.029
6165,-0.006,-0.029
6166,-0.006,-0.029
6167,-0.006,-0.029
6168,-0.006,-0.029
6169,-0.013,-0.029
6170,-0.013,-0.029
6171,-0.013,-0.029
6172,-0.013,-0.030
6173,-0.013,-0.030
6174,-0.013,-0.030
6175,-0.013,-0.030
6176,-0.013,-0.038
6177,-0.006,-0.038
6178,-0.006,-0.038
6179,-0.006,-0.038
6180,-0.006,-0.045
6181,-0.006,-0.045
6182,-0.013,-0.045
6183,-0.013,-0.045
6184,-0.013,-0.061
6185,-0.013,-0.061
6186,-0.006,-0.061
6187,-0.013,-0.061
6188,-0.013,-0.076
6189,-0.006,-0.076
6190,-0.006,-0.076
6191,-0.006,-0.076
6192,-0.013,-0.092
6193,-0.006,-0.092
6194,-0.006,-0.092
6195,-0.006,-0.092
6196,-0.006,-0.112
6197,-0.013,-0.112
6198,-0.006,-0.112
6199,-0.006,-0.112
6200,0.001,-0.133
6201,-0.006,-0.133
6202,-0.006,-0.133
6203,-0.006,-0.133
6204,-0.006,-0.152
6205,-0.006,-0.152
6206,-0.006,-0.152
6207,-0.006,-0.152
6208,-0.006,-0.169
6209,-0.006,-0.169
6210,-0.006,-0.169
6211,-0.006,-0.169
6212,-0.006,-0.182
6213,0.001,-0.182
6214,0.001,-0.182
6215,-0.006,-0.182
6216,0.001,-0.197
6217,0.001,-0.197
6218,0.001,-0.197
6219,0.001,-0.197
6220,0.001,-0.204
6221,0.001,-0.204
6222,0.001,-0.204
6223,0.001,-0.204
6224,0.001,-0.224
6225,0.001,-0.224
6226,0.007,-0.224
6227,0.001,-0.224
6228,0.001,-0.218
6229,0.001,-0.218
6230,0.007,-0.218
6231,0.007,-0.218
6232,0.007,-0.204
6233,0.007,-0.204
6234,0.001,-0.204
6235,0.007,-0.204
6236,0.007,-0.183
6237,0.001,-0.183
6238,0.001,-0.183
6239,0.001,-0.183
6240,0.001,-0.152
6241,0.001,-0.152
6242,0.001,-0.152
6243,0.001,-0.152
6244,0.001,-0.112
6245,0.001,-0.112
6246,-0.006,-0.112
6247,0.001,-0.112
6248,-0.006,-0.065
6249,-0.006,-0.065
6250,-0.013,-0.065
6251,-0.013,-0.065
6252,-0.027,-0.005
6253,-0.034,-0.005
6254,-0.034,-0.005
6255,-0.034,-0.005
6256,-0.034,0.059
6257,-0.041,0.059
6258,-0.054,0.059
6259,-0.054,0.059
6260,-0.041,0.128
6261,-0.034,0.128
6262,-0.034,0.128
6263,-0.034,0.128
6264,-0.034,0.195
6265,-0.034,0.195
6266,-0.034,0.195
6267,-0.041,0.195
6268,-0.034,0.264
6269,-0.041,0.264
6270,-0.034,0.264
6271,-0.034,0.264
6272,-0.027,0.328
6273,-0.013,0.328
6274,-0.013,0.328
6275,-0.006,0.328
6276,-0.006,0.387
6277,0.001,0.387
6278,0.007,0.387
6279,0.007,0.387
6280,0.014,0.439
6281,0.014,0.439
6282,0.014,0.439
6283,0.014,0.439
6284,0.014,0.484
6285,0.014,0.484
6286,0.014,0.484
6287,0.014,0.484
6288,0.014,0.520
6289,0.028,0.520
6290,0.014,0.520
6291,0.014,0.520
6292,0.014,0.546
6293,0.014,0.546
6294,0.007,0.546
6295,0.014,0.546
6296,0.014,0.560
6297,0.014,0.560
6298,0.014,0.560
6299,0.014,0.560
6300,0.007,0.568
6301,0.007,0.568
6302,0.007,0.568
6303,0.014,0.568
6304,0.014,0.560
6305,0.014,0.560
6306,0.007,0.560
6307,0.007,0.560
6308,0.007,0.548
6309,0.007,0.548
6310,0.001,0.548
6311,0.001,0.548
6312,0.007,0.524
6313,0.007,0.524
6314,0.007,0.524
6315,0.001,0.524
6316,0.007,0.494
6317,0.007,0.494
6318,0.028,0.494
6319,0.055,0.494
6320,0.090,0.454
6321,0.138,0.454
6322,0.193,0.454
6323,0.261,0.454
6324,0.329,0.413
6325,0.391,0.413
6326,0.439,0.413
6327,0.467,0.413
6328,0.480,0.363
6329,0.487,0.363
6330,0.487,0.363
6331,0.480,0.363
6332,0.460,0.318
6333,0.405,0.318
6334,0.378,0.318
6335,0.378,0.318
6336,0.378,0.264
6337,0.378,0.264
6338,0.357,0.264
6339,0.329,0.264
6340,0.288,0.211
6341,0.268,0.211
6342,0.254,0.211
6343,0.233,0.211
6344,0.206,0.159
6345,0.165,0.159
6346,0.117,0.159
6347,0.083,0.159
6348,0.042,0.106
6349,0.014,0.106
6350,-0.006,0.106
6351,-0.034,0.106
6352,-0.041,0.054
6353,-0.061,0.054
6354,-0.082,0.054
6355,-0.082,0.054
6356,-0.082,0.007
6357,-0.082,0.007
6358,-0.082,0.007
6359,-0.082,0.007
6360,-0.075,-0.043
6361,-0.082,-0.043
6362,-0.082,-0.043
6363,-0.082,-0.043
6364,-0.075,-0.086
6365,-0.075,-0.086
6366,-0.075,-0.086
6367,-0.082,-0.086
6368,-0.082,-0.131
6369,-0.075,-0.131
6370,-0.075,-0.131
6371,-0.075,-0.131
6372,-0.075,-0.173
6373,-0.075,-0.173
6374,-0.075,-0.173
6375,-0.075,-0.173
6376,-0.075,-0.207
6377,-0.075,-0.207
6378,-0.075,-0.207
6379,-0.075,-0.207
6380,-0.075,-0.242
6381,-0.075,-0.242
6382,-0.075,-0.242
6383,-0.075,-0.242
6384,-0.075,-0.274
6385,-0.082,-0.274
6386,-0.082,-0.274
6387,-0.082,-0.274
6388,-0.075,-0.299
6389,-0.075,-0.299
6390,-0.082,-0.299
6391,-0.082,-0.299
6392,-0.089,-0.326
6393,-0.089,-0.326
6394,-0.082,-0.326
6395,-0.089,-0.326
6396,-0.082,-0.349
6397,-0.082,-0.349
6398,-0.082,-0.349
6399,-0.089,-0.349
6400,-0.075,-0.368
6401,-0.089,-0.368
6402,-0.089,-0.368
6403,-0.089,-0.368
6404,-0.089,-0.388
6405,-0.089,-0.388
6406,-0.089,-0.388
6407,-0.082,-0.388
6408,-0.089,-0.408
6409,-0.089,-0.408
6410,-0.089,-0.408
6411,-0.089,-0.408
6412,-0.089,-0.427
6413,-0.089,-0.427
6414,-0.089,-0.427
6415,-0.089,-0.427
6416,-0.089,-0.445
6417,-0.089,-0.445
6418,-0.089,-0.445
6419,-0.089,-0.445
6420,-0.089,-0.468
6421,-0.089,-0.468
6422,-0.089,-0.468
6423,-0.089,-0.468
6424,-0.089,-0.484
6425,-0.089,-0.484
6426,-0.082,-0.484
6427,-0.089,-0.484
6428,-0.089,-0.506
6429,-0.089,-0.506
6430,-0.089,-0.506
6431,-0.089,-0.506
6432,-0.082,-0.527
6433,-0.082,-0.527
6434,-0.082,-0.527
6435,-0.082,-0.527
6436,-0.075,-0.549
6437,-0.075,-0.549
6438,-0.075,-0.549
6439,-0.075,-0.549
6440,-0.061,-0.573
6441,-0.061,-0.573
6442,-0.061,-0.573
6443,-0.061,-0.573
6444,-0.061,-0.592
6445,-0.054,-0.592
6446,-0.054,-0.592
6447,-0.041,-0.592
6448,-0.041,-0.606
6449,-0.041,-0.606
6450,-0.041,-0.606
6451,-0.041,-0.606
6452,-0.034,-0.618
6453,-0.034,-0.618
6454,-0.034,-0.618
6455,-0.034,-0.618
6456,-0.027,-0.623
6457,-0.027,-0.623
6458,-0.027,-0.623
6459,-0.027,-0.623
6460,-0.027,-0.623
6461,-0.027,-0.623
6462,-0.013,-0.623
6463,-0.013,-0.623
6464,-0.013,-0.613
6465,-0.013,-0.613
6466,-0.013,-0.613
6467,-0.013,-0.613
6468,-0.006,-0.599
6469,-0.006,-0.599
6470,0.001,-0.599
6471,0.001,-0.599
6472,0.001,-0.578
6473,0.001,-0.578
6474,0.001,-0.578
6475,0.001,-0.578
6476,0.001,-0.549
6477,0.007,-0.549
6478,0.007,-0.549
6479,0.007,-0.549
6480,0.007,-0.534
6481,0.007,-0.534
6482,0.007,-0.534
6483,0.007,-0.534
6484,0.007,-0.500
6485,0.007,-0.500
6486,0.007,-0.500
6487,0.007,-0.500
6488,0.007,-0.459
6489,0.014,-0.459
6490,0.007,-0.459
6491,0.007,-0.459
6492,0.007,-0.425
6493,0.007,-0.425
6494,0.007,-0.425
6495,0.007,-0.425
6496,0.001,-0.386
6497,0.001,-0.386
6498,0.001,-0.386
6499,0.007,-0.386
6500,0.001,-0.352
6501,0.007,-0.352
6502,0.001,-0.352
6503,0.001,-0.352
6504,0.001,-0.321
6505,0.001,-0.321
6506,0.001,-0.321
6507,0.001,-0.321
6508,0.001,-0.294
6509,-0.006,-0.294
6510,-0.006,-0.294
6511,-0.006,-0.294
6512,-0.006,-0.270
6513,-0.006,-0.270
6514,-0.006,-0.270
6515,0.001,-0.270
6516,-0.006,-0.247
6517,-0.006,-0.247
6518,-0.006,-0.247
6519,-0.006,-0.247
6520,0.001,-0.228
6521,-0.006,-0.228
6522,-0.006,-0.228
6523,-0.013,-0.228
6524,-0.006,-0.218
6525,-0.013,-0.218
6526,-0.006,-0.218
6527,-0.006,-0.218
6528,-0.006,-0.211
6529,-0.013,-0.211
6530,-0.013,-0.211
6531,-0.013,-0.211
6532,-0.006,-0.211
6533,-0.006,-0.211
6534,-0.013,-0.211
6535,-0.013,-0.211
6536,-0.013,-0.213
6537,-0.013,-0.213
6538,-0.013,-0.213
6539,-0.013,-0.213
6540,-0.006,-0.218
6541,-0.013,-0.218
6542,-0.013,-0.218
6543,-0.013,-0.218
6544,-0.013,-0.226
6545,-0.013,-0.226
6546,-0.013,-0.226
6547,-0.013,-0.226
6548,-0.013,-0.240
6549,-0.013,-0.240
6550,-0.013,-0.240
6551,-0.013,-0.240
6552,-0.013,-0.250
6553,-0.013,-0.250
6554,-0.013,-0.250
6555,-0.013,-0.250
6556,-0.013,-0.270
6557,-0.013,-0.270
6558,-0.013,-0.270
6559,-0.013,-0.270
6560,-0.006,-0.286
6561,-0.013,-0.286
6562,0.001,-0.286
6563,0.001,-0.286
6564,0.001,-0.303
6565,0.001,-0.303
6566,-0.006,-0.303
6567,0.001,-0.303
6568,0.001,-0.318
6569,0.001,-0.318
6570,0.001,-0.318
6571,0.001,-0.318
6572,0.001,-0.335
6573,0.001,-0.335
6574,0.001,-0.335
6575,0.001,-0.335
6576,0.007,-0.345
6577,0.001,-0.345
6578,0.001,-0.345
6579,0.001,-0.345
6580,0.001,-0.352
6581,0.001,-0.352
6582,0.001,-0.352
6583,0.001,-0.352
6584,0.001,-0.354
6585,0.001,-0.354
6586,0.001,-0.354
6587,0.001,-0.354
6588,0.001,-0.349
6589,0.001,-0.349
6590,0.001,-0.349
6591,0.001,-0.349
6592,0.001,-0.338
6593,0.001,-0.338
6594,0.001,-0.338
6595,0.001,-0.338
6596,0.007,-0.316
6597,0.007,-0.316
6598,0.007,-0.316
6599,0.001,-0.316
6600,0.007,-0.281
6601,0.001,-0.281
6602,0.001,-0.281
6603,0.001,-0.281
6604,0.001,-0.242
6605,0.001,-0.242
6606,0.001,-0.242
6607,0.001,-0.242
6608,0.001,-0.187
6609,0.001,-0.187
6610,0.001,-0.187
6611,-0.006,-0.187
6612,-0.006,-0.126
6613,-0.006,-0.126
6614,-0.006,-0.126
6615,-0.006,-0.126
6616,-0.006,-0.060
6617,-0.006,-0.060
6618,-0.013,-0.060
6619,-0.027,-0.060
6620,-0.027,0.010
6621,-0.034,0.010
6622,-0.034,0.010
6623,-0.034,0.010
6624,-0.034,0.086
6625,-0.041,0.086
6626,-0.034,0.086
6627,-0.041,0.086
6628,-0.027,0.158
6629,-0.034,0.158
6630,-0.034,0.158
6631,-0.034,0.158
6632,-0.041,0.231
6633,-0.034,0.231
6634,-0.041,0.231
6635,-0.041,0.231
6636,-0.034,0.296
6637,-0.027,0.296
6638,-0.027,0.296
6639,-0.013,0.296
6640,-0.006,0.357
6641,-0.006,0.357
6642,-0.006,0.357
6643,0.001,0.357
6644,0.007,0.408
6645,0.014,0.408
6646,0.014,0.408
6647,0.014,0.408
6648,0.014,0.450
6649,0.014,0.450
6650,0.014,0.450
6651,0.014,0.450
6652,0.014,0.483
6653,0.007,0.483
6654,0.014,0.483
6655,0.014,0.483
6656,0.014,0.503
6657,0.014,0.503
6658,0.007,0.503
6659,0.007,0.503
6660,0.014,0.513
6661,0.007,0.513
6662,0.007,0.513
6663,0.007,0.513
6664,0.007,0.510
6665,0.014,0.510
6666,0.007,0.510
6667,0.007,0.510
6668,0.007,0.498
6669,0.007,0.498
6670,0.014,0.498
6671,0.014,0.498
6672,0.007,0.481
6673,0.007,0.481
6674,0.007,0.481
6675,0.014,0.481
6676,0.007,0.452
6677,0.007,0.452
6678,0.007,0.452
6679,0.007,0.452
6680,0.014,0.420
6681,0.014,0.420
6682,0.014,0.420
6683,0.014,0.420
6684,0.055,0.377
6685,0.083,0.377
6686,0.117,0.377
6687,0.179,0.377
6688,0.233,0.336
6689,0.302,0.336
6690,0.364,0.336
6691,0.418,0.336
6692,0.460,0.289
6693,0.480,0.289
6694,0.487,0.289
6695,0.487,0.289
6696,0.487,0.238
6697,0.460,0.238
6698,0.418,0.238
6699,0.378,0.238
6700,0.378,0.192
6701,0.378,0.192
6702,0.378,0.192
6703,0.378,0.192
6704,0.343,0.143
6705,0.309,0.143
6706,0.282,0.143
6707,0.261,0.143
6708,0.240,0.098
6709,0.213,0.098
6710,0.186,0.098
6711,0.151,0.098
6712,0.103,0.051
6713,0.076,0.051
6714,0.028,0.051
6715,0.001,0.051
6716,-0.013,0.010
6717,-0.041,0.010
6718,-0.061,0.010
6719,-0.075,0.010
6720,-0.082,-0.032
6721,-0.082,-0.032
6722,-0.082,-0.032
6723,-0.082,-0.032
6724,-0.075,-0.072
6725,-0.075,-0.072
6726,-0.082,-0.072
6727,-0.075,-0.072
6728,-0.082,-0.109
6729,-0.075,-0.109
6730,-0.082,-0.109
6731,-0.082,-0.109
6732,-0.075,-0.141
6733,-0.082,-0.141
6734,-0.082,-0.141
6735,-0.082,-0.141
6736,-0.075,-0.133
