,ECG,PPG
0,-0.140,-0.670
1,-0.140,-0.670
2,-0.140,-0.670
3,-0.140,-0.670
4,-0.140,-0.746
5,-0.140,-0.746
6,-0.176,-0.746
7,-0.176,-0.746
8,-0.176,-0.830
9,-0.140,-0.830
10,-0.104,-0.830
11,-0.068,-0.830
12,0.003,-0.905
13,0.073,-0.905
14,0.217,-0.905
15,0.396,-0.905
16,0.609,-0.972
17,0.860,-0.972
18,1.073,-0.972
19,1.252,-0.972
20,1.396,-
21,1.467,-
22,1.432,-
23,1.288,-
24,1.073,-
25,0.788,-
26,0.537,-
27,0.324,-
28,0.181,-
29,0.073,-
30,0.003,-
31,0.003,-
32,0.003,-
33,-0.068,-
34,-0.068,-
35,-0.104,-
36,-0.104,-
37,-0.104,-
38,-0.104,-
39,-0.104,-
40,-0.104,-
41,-0.140,-
42,-0.140,-
43,-0.140,-
44,-0.140,-
45,-0.176,-
46,-0.176,-
47,-0.176,-
48,-0.176,-
49,-0.176,-
50,-0.176,-
51,-0.176,-
52,-0.176,-
53,-0.140,-
54,-0.140,-
55,-0.176,-
56,-0.176,-
57,-0.176,-
58,-0.176,-
59,-0.140,-
60,-0.140,-
61,-0.140,-
62,-0.104,-
63,-0.104,-
64,-0.104,-
65,-0.104,-
66,-0.104,-
67,-0.104,-
68,-0.104,-
69,-0.104,-
70,-0.104,-
71,-0.068,-
72,-0.104,-
73,-0.104,-
74,-0.068,-
75,-0.068,-
76,0.003,-
77,0.003,-
78,0.003,-
79,0.003,-
80,0.003,-
81,0.003,-
82,0.003,-
83,0.003,-
84,0.003,-
85,0.003,-
86,0.003,-
87,0.037,-
88,0.037,-
89,0.037,-
90,0.037,-
91,0.037,-
92,0.073,-
93,0.073,-
94,0.073,-
95,0.109,-
96,0.109,-
97,0.109,-
98,0.109,-
99,0.145,-
100,0.145,-1.014
101,0.109,-1.014
102,0.109,-1.014
103,0.145,-1.014
104,0.145,-0.888
105,0.109,-0.888
106,0.145,-0.888
107,0.109,-0.888
108,0.109,-0.746
109,0.109,-0.746
110,0.109,-0.746
111,0.109,-0.746
112,0.109,-0.561
113,0.109,-0.561
114,0.109,-0.561
115,0.109,-0.561
116,0.109,-0.327
117,0.073,-0.327
118,0.073,-0.327
119,0.037,-0.327
120,0.037,-0.034
121,0.003,-0.034
122,0.003,-0.034
123,0.037,-0.034
124,0.037,0.309
125,0.003,0.309
126,0.003,0.309
127,0.037,0.309
128,0.003,0.686
129,0.003,0.686
130,0.003,0.686
131,0.003,0.686
132,-0.033,1.024
133,-0.033,1.024
134,-0.033,1.024
135,-0.033,1.024
136,-0.033,1.024
137,-0.033,1.024
138,-0.033,1.024
139,-0.033,1.024
140,-0.068,1.024
141,-0.068,1.024
142,-0.068,1.024
143,-0.068,1.024
144,-0.068,1.024
145,-0.068,1.024
146,-0.068,1.024
147,-0.068,1.024
148,-0.068,1.024
149,-0.068,1.024
150,-0.068,1.024
151,-0.033,1.024
152,-0.033,1.024
153,-0.033,1.024
154,-0.033,1.024
155,-0.033,1.024
156,-0.033,1.024
157,-0.033,1.024
158,-0.033,1.024
159,-0.068,1.024
160,-0.068,1.024
161,-0.068,1.024
162,-0.068,1.024
163,-0.068,1.024
164,-0.068,1.024
165,-0.033,1.024
166,-0.068,1.024
167,-0.068,1.024
168,-0.068,1.024
169,-0.068,1.024
170,-0.068,1.024
171,-0.033,1.024
172,-0.068,1.024
173,-0.068,1.024
174,-0.033,1.024
175,-0.033,1.024
176,0.003,1.024
177,0.003,1.024
178,0.003,1.024
179,0.003,1.024
180,0.003,1.024
181,0.003,1.024
182,0.003,1.024
183,0.003,1.024
184,0.003,1.024
185,0.003,1.024
186,0.003,1.024
187,0.003,1.024
188,0.003,1.024
189,0.003,1.024
190,0.003,1.024
191,0.003,1.024
192,0.003,1.024
193,-0.033,1.024
194,0.003,1.024
195,0.003,1.024
196,0.003,1.024
197,-0.033,1.024
198,-0.033,1.024
199,-0.033,1.024
200,-0.068,1.024
201,-0.068,1.024
202,-0.068,1.024
203,-0.033,1.024
204,-0.033,0.952
205,-0.068,0.952
206,-0.104,0.952
207,-0.068,0.952
208,-0.068,0.887
209,-0.068,0.887
210,-0.104,0.887
211,-0.104,0.887
212,-0.140,0.828
213,-0.104,0.828
214,-0.104,0.828
215,-0.104,0.828
216,-0.104,0.772
217,-0.104,0.772
218,-0.140,0.772
219,-0.140,0.772
220,-0.176,0.717
221,-0.176,0.717
222,-0.176,0.717
223,-0.176,0.717
224,-0.176,0.670
225,-0.140,0.670
226,-0.140,0.670
227,-0.140,0.670
228,-0.104,0.615
229,-0.104,0.615
230,-0.140,0.615
231,-0.140,0.615
232,-0.176,0.550
233,-0.212,0.550
234,-0.212,0.550
235,-0.212,0.550
236,-0.176,0.489
237,-0.140,0.489
238,-0.104,0.489
239,0.003,0.489
240,0.073,0.425
241,0.217,0.425
242,0.360,0.425
243,0.537,0.425
244,0.752,0.355
245,0.967,0.355
246,1.145,0.355
247,1.288,0.355
248,1.396,0.281
249,1.360,0.281
250,1.217,0.281
251,1.003,0.281
252,0.752,0.212
253,0.467,0.212
254,0.252,0.212
255,0.109,0.212
256,0.003,0.147
257,-0.033,0.147
258,-0.068,0.147
259,-0.104,0.147
260,-0.104,0.087
261,-0.104,0.087
262,-0.140,0.087
263,-0.140,0.087
264,-0.140,0.041
265,-0.176,0.041
266,-0.176,0.041
267,-0.176,0.041
268,-0.176,-0.005
269,-0.176,-0.005
270,-0.176,-0.005
271,-0.212,-0.005
272,-0.212,-0.029
273,-0.212,-0.029
274,-0.212,-0.029
275,-0.212,-0.029
276,-0.212,-0.047
277,-0.176,-0.047
278,-0.176,-0.047
279,-0.176,-0.047
280,-0.176,-0.060
281,-0.176,-0.060
282,-0.176,-0.060
283,-0.176,-0.060
284,-0.176,-0.074
285,-0.176,-0.074
286,-0.176,-0.074
287,-0.176,-0.074
288,-0.176,-0.084
289,-0.176,-0.084
290,-0.176,-0.084
291,-0.176,-0.084
292,-0.140,-0.088
293,-0.140,-0.088
294,-0.140,-0.088
295,-0.140,-0.088
296,-0.140,-0.098
297,-0.140,-0.098
298,-0.140,-0.098
299,-0.140,-0.098
300,-0.104,-0.116
301,-0.104,-0.116
302,-0.104,-0.116
303,-0.068,-0.116
304,-0.068,-0.144
305,-0.068,-0.144
306,-0.068,-0.144
307,-0.068,-0.144
308,-0.033,-0.176
309,-0.068,-0.176
310,-0.068,-0.176
311,-0.033,-0.176
312,-0.033,-0.213
313,0.003,-0.213
314,0.003,-0.213
315,0.003,-0.213
316,0.003,-0.264
317,0.003,-0.264
318,0.003,-0.264
319,0.003,-0.264
320,0.037,-0.315
321,0.037,-0.315
322,0.037,-0.315
323,0.037,-0.315
324,0.073,-0.370
325,0.073,-0.370
326,0.109,-0.370
327,0.109,-0.370
328,0.145,-0.435
329,0.145,-0.435
330,0.145,-0.435
331,0.145,-0.435
332,0.145,-0.504
333,0.109,-0.504
334,0.073,-0.504
335,0.073,-0.504
336,0.073,-0.574
337,0.073,-0.574
338,0.073,-0.574
339,0.073,-0.574
340,0.073,-0.639
341,0.073,-0.639
342,0.037,-0.639
343,0.037,-0.639
344,0.003,-0.699
345,0.003,-0.699
346,0.003,-0.699
347,0.003,-0.699
348,0.003,-0.754
349,0.003,-0.754
350,0.003,-0.754
351,0.003,-0.754
352,0.003,-0.800
353,0.003,-0.800
354,-0.033,-0.800
355,-0.033,-0.800
356,-0.033,-0.838
357,-0.033,-0.838
358,-0.033,-0.838
359,-0.068,-0.838
360,-0.068,-0.861
361,-0.068,-0.861
362,-0.068,-0.861
363,-0.068,-0.861
364,-0.068,-0.875
365,-0.068,-0.875
366,-0.068,-0.875
367,-0.068,-0.875
368,-0.068,-0.879
369,-0.068,-0.879
370,-0.068,-0.879
371,-0.068,-0.879
372,-0.068,-0.879
373,-0.068,-0.879
374,-0.104,-0.879
375,-0.068,-0.879
376,-0.068,-0.875
377,-0.068,-0.875
378,-0.068,-0.875
379,-0.068,-0.875
380,-0.068,-0.861
381,-0.104,-0.861
382,-0.104,-0.861
383,-0.104,-0.861
384,-0.068,-0.847
385,-0.068,-0.847
386,-0.068,-0.847
387,-0.068,-0.847
388,-0.068,-0.819
389,-0.068,-0.819
390,-0.068,-0.819
391,-0.068,-0.819
392,-0.068,-0.787
393,-0.068,-0.787
394,-0.068,-0.787
395,-0.068,-0.787
396,-0.033,-0.750
397,-0.068,-0.750
398,-0.068,-0.750
399,-0.068,-0.750
400,-0.068,-0.708
401,0.003,-0.708
402,0.003,-0.708
403,0.003,-0.708
404,0.003,-0.662
405,-0.033,-0.662
406,-0.033,-0.662
407,0.003,-0.662
408,-0.033,-0.611
409,0.003,-0.611
410,0.003,-0.611
411,0.003,-0.611
412,0.003,-0.565
413,0.003,-0.565
414,0.003,-0.565
415,0.037,-0.565
416,0.037,-0.518
417,0.003,-0.518
418,0.003,-0.518
419,0.003,-0.518
420,0.003,-0.472
421,0.003,-0.472
422,0.003,-0.472
423,0.003,-0.472
424,0.003,-0.435
425,0.003,-0.435
426,0.003,-0.435
427,0.003,-0.435
428,0.003,-0.407
429,0.003,-0.407
430,0.003,-0.407
431,0.003,-0.407
432,0.003,-0.370
433,0.003,-0.370
434,-0.033,-0.370
435,-0.033,-0.370
436,-0.033,-0.338
437,-0.068,-0.338
438,-0.068,-0.338
439,-0.068,-0.338
440,-0.104,-0.301
441,-0.104,-0.301
442,-0.104,-0.301
443,-0.104,-0.301
444,-0.068,-0.255
445,-0.104,-0.255
446,-0.104,-0.255
447,-0.104,-0.255
448,-0.104,-0.204
449,-0.104,-0.204
450,-0.104,-0.204
451,-0.104,-0.204
452,-0.104,-0.153
453,-0.104,-0.153
454,-0.104,-0.153
455,-0.104,-0.153
456,-0.104,-0.240
457,-0.104,-0.240
458,-0.104,-0.240
459,-0.104,-0.240
460,-0.104,-0.176
461,-0.140,-0.176
462,-0.140,-0.176
463,-0.104,-0.176
464,-0.068,-0.106
465,-0.033,-0.106
466,0.073,-0.106
467,0.145,-0.106
468,0.252,-0.046
469,0.396,-0.046
470,0.573,-0.046
471,0.824,-0.046
472,1.003,0.004
473,1.181,0.004
474,1.288,0.004
475,1.324,0.004
476,1.252,0.046
477,1.109,0.046
478,0.896,0.046
479,0.681,0.046
480,0.432,0.079
481,0.252,0.079
482,0.109,0.079
483,0.037,0.079
484,0.003,0.097
485,-0.033,0.097
486,-0.068,0.097
487,-0.104,0.097
488,-0.104,0.102
489,-0.104,0.102
490,-0.104,0.102
491,-0.104,0.102
492,-0.068,0.097
493,-0.104,0.097
494,-0.104,0.097
495,-0.104,0.097
496,-0.104,0.083
497,-0.140,0.083
498,-0.140,0.083
499,-0.176,0.083
500,-0.176,0.070
501,-0.140,0.070
502,-0.140,0.070
503,-0.140,0.070
504,-0.140,0.046
505,-0.140,0.046
506,-0.176,0.046
507,-0.140,0.046
508,-0.140,0.028
509,-0.140,0.028
510,-0.140,0.028
511,-0.140,0.028
512,-0.140,0.004
513,-0.140,0.004
514,-0.104,0.004
515,-0.104,0.004
516,-0.104,-0.009
517,-0.104,-0.009
518,-0.140,-0.009
519,-0.140,-0.009
520,-0.140,-0.028
521,-0.140,-0.028
522,-0.104,-0.028
523,-0.104,-0.028
524,-0.104,-0.051
525,-0.104,-0.051
526,-0.104,-0.051
527,-0.104,-0.051
528,-0.104,-0.070
529,-0.104,-0.070
530,-0.104,-0.070
531,-0.068,-0.070
532,-0.068,-0.092
533,-0.068,-0.092
534,-0.068,-0.092
535,-0.033,-0.092
536,0.003,-0.116
537,0.003,-0.116
538,0.003,-0.116
539,0.003,-0.116
540,0.003,-0.139
541,0.003,-0.139
542,0.037,-0.139
543,0.003,-0.139
544,0.037,-0.167
545,0.073,-0.167
546,0.073,-0.167
547,0.073,-0.167
548,0.073,-0.185
549,0.109,-0.185
550,0.109,-0.185
551,0.109,-0.185
552,0.145,-0.217
553,0.109,-0.217
554,0.109,-0.217
555,0.109,-0.217
556,0.145,-0.240
557,0.145,-0.240
558,0.109,-0.240
559,0.109,-0.240
560,0.109,-0.264
561,0.109,-0.264
562,0.109,-0.264
563,0.109,-0.264
564,0.109,-0.278
565,0.145,-0.278
566,0.145,-0.278
567,0.109,-0.278
568,0.073,-0.282
569,0.073,-0.282
570,0.037,-0.282
571,0.037,-0.282
572,0.037,-0.278
573,0.037,-0.278
574,0.037,-0.278
575,0.037,-0.278
576,0.003,-0.264
577,0.003,-0.264
578,0.003,-0.264
579,0.003,-0.264
580,0.003,-0.250
581,0.003,-0.250
582,0.003,-0.250
583,0.003,-0.250
584,0.003,-0.236
585,-0.033,-0.236
586,-0.033,-0.236
587,-0.033,-0.236
588,-0.033,-0.222
589,-0.068,-0.222
590,-0.068,-0.222
591,-0.068,-0.222
592,-0.033,-0.208
593,-0.033,-0.208
594,-0.068,-0.208
595,-0.033,-0.208
596,-0.068,-0.203
597,-0.068,-0.203
598,-0.068,-0.203
599,-0.068,-0.203
600,-0.068,-0.208
601,-0.068,-0.208
602,-0.068,-0.208
603,-0.104,-0.208
604,-0.068,-0.217
605,-0.068,-0.217
606,-0.033,-0.217
607,-0.068,-0.217
608,-0.068,-0.232
609,-0.068,-0.232
610,-0.068,-0.232
611,-0.068,-0.232
612,-0.068,-0.245
613,-0.068,-0.245
614,-0.068,-0.245
615,-0.068,-0.245
616,-0.068,-0.255
617,-0.068,-0.255
618,-0.068,-0.255
619,-0.068,-0.255
620,-0.068,-0.250
621,-0.068,-0.250
622,-0.068,-0.250
623,-0.033,-0.250
624,-0.033,-0.245
625,-0.033,-0.245
626,-0.033,-0.245
627,0.003,-0.245
628,0.003,-0.236
629,0.003,-0.236
630,0.003,-0.236
631,0.003,-0.236
632,0.003,-0.217
633,0.037,-0.217
634,0.037,-0.217
635,0.037,-0.217
636,0.037,-0.199
637,0.037,-0.199
638,0.037,-0.199
639,0.037,-0.199
640,0.003,-0.195
641,0.037,-0.195
642,0.037,-0.195
643,0.037,-0.195
644,0.037,-0.195
645,0.037,-0.195
646,0.037,-0.195
647,0.037,-0.195
648,0.037,-0.203
649,0.037,-0.203
650,0.037,-0.203
651,0.037,-0.203
652,0.003,-0.222
653,0.003,-0.222
654,0.003,-0.222
655,0.003,-0.222
656,0.003,-0.259
657,-0.033,-0.259
658,-0.033,-0.259
659,-0.033,-0.259
660,-0.033,-0.296
661,-0.068,-0.296
662,-0.068,-0.296
663,-0.104,-0.296
664,-0.104,-0.347
665,-0.104,-0.347
666,-0.068,-0.347
667,-0.068,-0.347
668,-0.104,-0.398
669,-0.104,-0.398
670,-0.104,-0.398
671,-0.104,-0.398
672,-0.104,-0.435
673,-0.068,-0.435
674,-0.068,-0.435
675,-0.068,-0.435
676,-0.068,-0.481
677,-0.104,-0.481
678,-0.104,-0.481
679,-0.104,-0.481
680,-0.140,-0.513
681,-0.176,-0.513
682,-0.176,-0.513
683,-0.176,-0.513
684,-0.176,-0.536
685,-0.176,-0.536
686,-0.176,-0.536
687,-0.140,-0.536
688,-0.104,-0.555
689,-0.068,-0.555
690,0.003,-0.555
691,0.109,-0.555
692,0.288,-0.565
693,0.503,-0.565
694,0.788,-0.565
695,1.037,-0.565
696,1.252,-0.559
697,1.396,-0.559
698,1.503,-0.559
699,1.503,-0.559
700,1.360,-0.559
701,1.145,-0.559
702,0.860,-0.559
703,0.609,-0.559
704,0.396,-0.550
705,0.217,-0.550
706,0.145,-0.550
707,0.073,-0.550
708,0.003,-0.536
709,-0.033,-0.536
710,-0.068,-0.536
711,-0.068,-0.536
712,-0.068,-0.518
713,-0.104,-0.518
714,-0.104,-0.518
715,-0.104,-0.518
716,-0.104,-0.495
717,-0.104,-0.495
718,-0.140,-0.495
719,-0.140,-0.495
720,-0.140,-0.467
721,-0.176,-0.467
722,-0.176,-0.467
723,-0.176,-0.467
724,-0.176,-0.440
725,-0.176,-0.440
726,-0.176,-0.440
727,-0.176,-0.440
728,-0.176,-0.407
729,-0.176,-0.407
730,-0.176,-0.407
731,-0.176,-0.407
732,-0.176,-0.374
733,-0.176,-0.374
734,-0.176,-0.374
735,-0.140,-0.374
736,-0.140,-0.347
737,-0.140,-0.347
738,-0.140,-0.347
739,-0.140,-0.347
740,-0.104,-0.319
741,-0.140,-0.319
742,-0.104,-0.319
743,-0.104,-0.319
744,-0.104,-0.291
745,-0.104,-0.291
746,-0.104,-0.291
747,-0.104,-0.291
748,-0.104,-0.264
749,-0.104,-0.264
750,-0.104,-0.264
751,-0.104,-0.264
752,-0.104,-0.245
753,-0.068,-0.245
754,-0.104,-0.245
755,-0.068,-0.245
756,-0.104,-0.227
757,-0.104,-0.227
758,-0.068,-0.227
759,-0.033,-0.227
760,0.003,-0.208
761,0.003,-0.208
762,0.037,-0.208
763,0.037,-0.208
764,0.037,-0.190
765,0.037,-0.190
766,0.037,-0.190
767,0.037,-0.190
768,0.073,-0.176
769,0.073,-0.176
770,0.073,-0.176
771,0.073,-0.176
772,0.109,-0.162
773,0.145,-0.162
774,0.145,-0.162
775,0.145,-0.162
776,0.109,-0.152
777,0.145,-0.152
778,0.145,-0.152
779,0.109,-0.152
780,0.145,-0.143
781,0.145,-0.143
782,0.145,-0.143
783,0.109,-0.143
784,0.145,-0.130
785,0.145,-0.130
786,0.145,-0.130
787,0.109,-0.130
788,0.109,-0.120
789,0.073,-0.120
790,0.073,-0.120
791,0.073,-0.120
792,0.073,-0.097
793,0.073,-0.097
794,0.109,-0.097
795,0.109,-0.097
796,0.109,-0.079
797,0.037,-0.079
798,0.037,-0.079
799,0.037,-0.079
800,0.037,-0.056
801,0.003,-0.056
802,0.003,-0.056
803,0.003,-0.056
804,0.003,-0.023
805,0.003,-0.023
806,0.003,-0.023
807,-0.033,-0.023
808,-0.033,0.018
809,-0.033,0.018
810,-0.033,0.018
811,-0.033,0.018
812,-0.033,0.070
813,-0.068,0.070
814,-0.068,0.070
815,-0.068,0.070
816,-0.068,0.134
817,-0.068,0.134
818,-0.068,0.134
819,-0.068,0.134
820,-0.068,0.203
821,-0.068,0.203
822,-0.104,0.203
823,-0.068,0.203
824,-0.068,0.278
825,-0.068,0.278
826,-0.068,0.278
827,-0.104,0.278
828,-0.104,0.356
829,-0.104,0.356
830,-0.104,0.356
831,-0.068,0.356
832,-0.068,0.440
833,-0.068,0.440
834,-0.068,0.440
835,-0.068,0.440
836,-0.068,0.513
837,-0.104,0.513
838,-0.104,0.513
839,-0.104,0.513
840,-0.104,0.588
841,-0.104,0.588
842,-0.104,0.588
843,-0.104,0.588
844,-0.068,0.647
845,-0.033,0.647
846,-0.068,0.647
847,-0.068,0.647
848,-0.068,0.712
849,-0.068,0.712
850,-0.033,0.712
851,0.003,0.712
852,0.003,0.767
853,0.003,0.767
854,0.003,0.767
855,0.003,0.767
856,0.003,0.814
857,0.003,0.814
858,0.003,0.814
859,0.003,0.814
860,0.003,0.865
861,0.003,0.865
862,0.003,0.865
863,0.003,0.865
864,0.003,0.897
865,0.003,0.897
866,0.003,0.897
867,0.003,0.897
868,0.003,0.929
869,0.003,0.929
870,0.003,0.929
871,0.003,0.929
872,0.003,0.953
873,0.003,0.953
874,0.003,0.953
875,0.003,0.953
876,-0.033,0.971
877,-0.033,0.971
878,-0.033,0.971
879,-0.033,0.971
880,-0.033,0.985
881,-0.033,0.985
882,-0.068,0.985
883,-0.068,0.985
884,-0.068,0.976
885,-0.104,0.976
886,-0.104,0.976
887,-0.104,0.976
888,-0.104,0.967
889,-0.104,0.967
890,-0.104,0.967
891,-0.140,0.967
892,-0.140,0.948
893,-0.140,0.948
894,-0.140,0.948
895,-0.140,0.948
896,-0.140,0.915
897,-0.140,0.915
898,-0.104,0.915
899,-0.104,0.915
900,-0.104,0.883
901,-0.140,0.883
902,-0.140,0.883
903,-0.140,0.883
904,-0.140,0.842
905,-0.140,0.842
906,-0.176,0.842
907,-0.176,0.842
908,-0.176,0.804
909,-0.176,0.804
910,-0.176,0.804
911,-0.176,0.804
912,-0.140,0.772
913,-0.104,0.772
914,0.003,0.772
915,0.073,0.772
916,0.217,0.731
917,0.396,0.731
918,0.609,0.731
919,0.860,0.731
920,1.073,0.699
921,1.252,0.699
922,1.360,0.699
923,1.396,0.699
924,1.324,0.666
925,1.145,0.666
926,0.932,0.666
927,0.681,0.666
928,0.467,0.638
929,0.288,0.638
930,0.109,0.638
931,0.003,0.638
932,0.003,0.615
933,-0.068,0.615
934,-0.068,0.615
935,-0.104,0.615
936,-0.104,0.588
937,-0.104,0.588
938,-0.140,0.588
939,-0.140,0.588
940,-0.140,0.564
941,-0.140,0.564
942,-0.140,0.564
943,-0.176,0.564
944,-0.176,0.545
945,-0.176,0.545
946,-0.176,0.545
947,-0.176,0.545
948,-0.212,0.513
949,-0.212,0.513
950,-0.212,0.513
951,-0.212,0.513
952,-0.212,0.490
953,-0.212,0.490
954,-0.176,0.490
955,-0.176,0.490
956,-0.176,0.458
957,-0.176,0.458
958,-0.176,0.458
959,-0.176,0.458
960,-0.176,0.425
961,-0.176,0.425
962,-0.176,0.425
963,-0.176,0.425
964,-0.176,0.384
965,-0.140,0.384
966,-0.140,0.384
967,-0.140,0.384
968,-0.140,0.347
969,-0.140,0.347
970,-0.140,0.347
971,-0.140,0.347
972,-0.140,0.315
973,-0.140,0.315
974,-0.140,0.315
975,-0.140,0.315
976,-0.104,0.268
977,-0.104,0.268
978,-0.104,0.268
979,-0.068,0.268
980,-0.033,0.231
981,-0.033,0.231
982,-0.033,0.231
983,-0.033,0.231
984,-0.033,0.185
985,-0.033,0.185
986,-0.033,0.185
987,-0.033,0.185
988,0.003,0.143
989,0.003,0.143
990,0.003,0.143
991,0.003,0.143
992,0.003,0.102
993,0.003,0.102
994,0.003,0.102
995,0.037,0.102
996,0.037,0.070
997,0.073,0.070
998,0.073,0.070
999,0.073,0.070
1000,0.109,0.037
1001,0.109,0.037
1002,0.109,0.037
1003,0.073,0.037
1004,0.073,0.004
1005,0.073,0.004
1006,0.073,0.004
1007,0.073,0.004
1008,0.037,-0.018
1009,0.073,-0.018
1010,0.073,-0.018
1011,0.073,-0.018
1012,0.109,-0.037
1013,0.109,-0.037
1014,0.145,-0.037
1015,0.109,-0.037
1016,0.109,-0.046
1017,0.073,-0.046
1018,0.037,-0.046
1019,0.037,-0.046
1020,0.037,-0.060
1021,0.037,-0.060
1022,0.037,-0.060
1023,0.003,-0.060
1024,0.003,-0.056
1025,0.003,-0.056
1026,0.003,-0.056
1027,0.003,-0.056
1028,0.003,-0.056
1029,-0.033,-0.056
1030,-0.033,-0.056
1031,-0.033,-0.056
1032,-0.033,-0.042
1033,0.003,-0.042
1034,-0.033,-0.042
1035,-0.033,-0.042
1036,-0.033,-0.028
1037,-0.068,-0.028
1038,-0.033,-0.028
1039,-0.033,-0.028
1040,-0.068,-0.004
1041,-0.068,-0.004
1042,-0.068,-0.004
1043,-0.068,-0.004
1044,-0.068,0.023
1045,-0.104,0.023
1046,-0.104,0.023
1047,-0.068,0.023
1048,-0.068,0.051
1049,-0.068,0.051
1050,-0.068,0.051
1051,-0.104,0.051
1052,-0.104,0.088
1053,-0.068,0.088
1054,-0.068,0.088
1055,-0.068,0.088
1056,-0.068,0.120
1057,-0.068,0.120
1058,-0.068,0.120
1059,-0.068,0.120
1060,-0.068,0.143
1061,-0.068,0.143
1062,-0.068,0.143
1063,-0.104,0.143
1064,-0.104,0.162
1065,-0.104,0.162
1066,-0.104,0.162
1067,-0.104,0.162
1068,-0.068,0.180
1069,-0.068,0.180
1070,-0.068,0.180
1071,-0.068,0.180
1072,-0.068,0.185
1073,-0.068,0.185
1074,-0.033,0.185
1075,-0.033,0.185
1076,-0.033,0.194
1077,0.003,0.194
1078,0.003,0.194
1079,0.003,0.194
1080,0.003,0.208
1081,0.003,0.208
1082,0.003,0.208
1083,0.003,0.208
1084,0.003,0.227
1085,0.003,0.227
1086,0.003,0.227
1087,0.003,0.227
1088,0.003,0.249
1089,0.003,0.249
1090,0.003,0.249
1091,-0.033,0.249
1092,-0.033,0.278
1093,0.003,0.278
1094,0.003,0.278
1095,0.003,0.278
1096,0.003,0.319
1097,0.003,0.319
1098,0.003,0.319
1099,0.003,0.319
1100,0.003,0.351
1101,-0.033,0.351
1102,0.003,0.351
1103,0.003,0.351
1104,0.003,0.393
1105,-0.033,0.393
1106,-0.033,0.393
1107,-0.033,0.393
1108,-0.104,0.425
1109,-0.104,0.425
1110,-0.104,0.425
1111,-0.140,0.425
1112,-0.140,0.449
1113,-0.140,0.449
1114,-0.176,0.449
1115,-0.176,0.449
1116,-0.176,0.463
1117,-0.176,0.463
1118,-0.140,0.463
1119,-0.140,0.463
1120,-0.140,0.471
1121,-0.176,0.471
1122,-0.176,0.471
1123,-0.176,0.471
1124,-0.176,0.467
1125,-0.140,0.467
1126,-0.140,0.467
1127,-0.140,0.467
1128,-0.176,0.467
1129,-0.176,0.467
1130,-0.176,0.467
1131,-0.212,0.467
1132,-0.212,0.463
1133,-0.212,0.463
1134,-0.248,0.463
1135,-0.212,0.463
1136,-0.176,0.463
1137,-0.140,0.463
1138,-0.068,0.463
1139,0.003,0.463
1140,0.109,0.476
1141,0.217,0.476
1142,0.432,0.476
1143,0.609,0.476
1144,0.860,0.485
1145,1.037,0.485
1146,1.217,0.485
1147,1.360,0.485
1148,1.432,0.518
1149,1.396,0.518
1150,1.217,0.518
1151,0.967,0.518
1152,0.717,0.550
1153,0.467,0.550
1154,0.288,0.550
1155,0.109,0.550
1156,0.003,0.588
1157,-0.033,0.588
1158,-0.033,0.588
1159,-0.104,0.588
1160,-0.104,0.625
1161,-0.104,0.625
1162,-0.104,0.625
1163,-0.140,0.625
1164,-0.140,0.656
1165,-0.104,0.656
1166,-0.140,0.656
1167,-0.140,0.656
1168,-0.140,0.680
1169,-0.176,0.680
1170,-0.176,0.680
1171,-0.176,0.680
1172,-0.212,0.694
1173,-0.212,0.694
1174,-0.212,0.694
1175,-0.212,0.694
1176,-0.176,0.694
1177,-0.176,0.694
1178,-0.176,0.694
1179,-0.176,0.694
1180,-0.176,0.689
1181,-0.176,0.689
1182,-0.176,0.689
1183,-0.140,0.689
1184,-0.176,0.670
1185,-0.176,0.670
1186,-0.176,0.670
1187,-0.176,0.670
1188,-0.176,0.647
1189,-0.140,0.647
1190,-0.104,0.647
1191,-0.104,0.647
1192,-0.104,0.620
1193,-0.140,0.620
1194,-0.140,0.620
1195,-0.176,0.620
1196,-0.176,0.588
1197,-0.140,0.588
1198,-0.140,0.588
1199,-0.140,0.588
1200,-0.140,0.545
1201,-0.140,0.545
1202,-0.104,0.545
1203,-0.104,0.545
1204,-0.104,0.504
1205,-0.068,0.504
1206,-0.068,0.504
1207,-0.068,0.504
1208,-0.068,0.467
1209,-0.033,0.467
1210,0.003,0.467
1211,0.003,0.467
1212,0.003,0.425
1213,0.003,0.425
1214,0.003,0.425
1215,0.003,0.425
1216,0.037,0.379
1217,0.037,0.379
1218,0.037,0.379
1219,0.037,0.379
1220,0.037,0.333
1221,0.073,0.333
1222,0.073,0.333
1223,0.073,0.333
1224,0.073,0.291
1225,0.073,0.291
1226,0.073,0.291
1227,0.073,0.291
1228,0.109,0.245
1229,0.109,0.245
1230,0.109,0.245
1231,0.109,0.245
1232,0.109,0.199
1233,0.145,0.199
1234,0.109,0.199
1235,0.109,0.199
1236,0.109,0.148
1237,0.073,0.148
1238,0.073,0.148
1239,0.073,0.148
1240,0.073,0.097
1241,0.073,0.097
1242,0.073,0.097
1243,0.073,0.097
1244,0.073,0.046
1245,0.037,0.046
1246,0.037,0.046
1247,0.037,0.046
1248,0.003,0.000
1249,0.003,0.000
1250,0.003,0.000
1251,0.037,0.000
1252,0.037,-0.046
1253,0.037,-0.046
1254,0.003,-0.046
1255,0.003,-0.046
1256,0.003,-0.088
1257,0.003,-0.088
1258,-0.033,-0.088
1259,0.003,-0.088
1260,-0.033,-0.120
1261,-0.033,-0.120
1262,-0.033,-0.120
1263,-0.033,-0.120
1264,-0.033,-0.148
1265,-0.033,-0.148
1266,-0.033,-0.148
1267,0.003,-0.148
1268,0.003,-0.176
1269,-0.033,-0.176
1270,-0.033,-0.176
1271,-0.068,-0.176
1272,-0.104,-0.195
1273,-0.104,-0.195
1274,-0.104,-0.195
1275,-0.104,-0.195
1276,-0.068,-0.213
1277,-0.068,-0.213
1278,-0.068,-0.213
1279,-0.033,-0.213
1280,-0.068,-0.222
1281,-0.068,-0.222
1282,-0.104,-0.222
1283,-0.104,-0.222
1284,-0.068,-0.236
1285,-0.068,-0.236
1286,-0.068,-0.236
1287,-0.068,-0.236
1288,-0.068,-0.245
1289,-0.068,-0.245
1290,-0.068,-0.245
1291,-0.104,-0.245
1292,-0.104,-0.259
1293,-0.104,-0.259
1294,-0.104,-0.259
1295,-0.104,-0.259
1296,-0.104,-0.273
1297,-0.104,-0.273
1298,-0.104,-0.273
1299,-0.104,-0.273
1300,-0.104,-0.291
1301,-0.104,-0.291
1302,-0.068,-0.291
1303,-0.068,-0.291
1304,-0.104,-0.310
1305,-0.104,-0.310
1306,-0.140,-0.310
1307,-0.140,-0.310
1308,-0.176,-0.329
1309,-0.176,-0.329
1310,-0.176,-0.329
1311,-0.176,-0.329
1312,-0.212,-0.356
1313,-0.176,-0.356
1314,-0.140,-0.356
1315,-0.104,-0.356
1316,-0.104,-0.374
1317,-0.068,-0.374
1318,-0.068,-0.374
1319,-0.033,-0.374
1320,-0.033,-0.403
1321,-0.033,-0.403
1322,0.003,-0.403
1323,0.003,-0.403
1324,0.003,-0.435
1325,0.003,-0.435
1326,0.003,-0.435
1327,0.003,-0.435
1328,0.003,-0.463
1329,0.003,-0.463
1330,0.003,-0.463
1331,-0.033,-0.463
1332,-0.068,-0.485
1333,-0.068,-0.485
1334,-0.068,-0.485
1335,-0.068,-0.485
1336,-0.068,-0.509
1337,-0.068,-0.509
1338,-0.068,-0.509
1339,-0.068,-0.509
1340,-0.068,-0.522
1341,-0.068,-0.522
1342,-0.033,-0.522
1343,-0.033,-0.522
1344,-0.068,-0.532
1345,-0.068,-0.532
1346,-0.033,-0.532
1347,-0.033,-0.532
1348,-0.033,-0.541
1349,-0.068,-0.541
1350,-0.068,-0.541
1351,-0.033,-0.541
1352,-0.033,-0.541
1353,-0.068,-0.541
1354,-0.104,-0.541
1355,-0.104,-0.541
1356,-0.104,-0.541
1357,-0.104,-0.541
1358,-0.104,-0.541
1359,-0.068,-0.541
1360,-0.068,-0.536
1361,-0.033,-0.536
1362,0.003,-0.536
1363,0.073,-0.536
1364,0.109,-0.541
1365,0.181,-0.541
1366,0.288,-0.541
1367,0.467,-0.541
1368,0.645,-0.550
1369,0.896,-0.550
1370,1.073,-0.550
1371,1.252,-0.550
1372,1.360,-0.565
1373,1.432,-0.565
1374,1.396,-0.565
1375,1.252,-0.565
1376,1.037,-0.592
1377,0.788,-0.592
1378,0.503,-0.592
1379,0.324,-0.592
1380,0.145,-0.625
1381,0.037,-0.625
1382,0.003,-0.625
1383,0.003,-0.625
1384,-0.033,-0.657
1385,-0.068,-0.657
1386,-0.068,-0.657
1387,-0.068,-0.657
1388,-0.068,-0.699
1389,-0.104,-0.699
1390,-0.104,-0.699
1391,-0.104,-0.699
1392,-0.104,-0.726
1393,-0.104,-0.726
1394,-0.104,-0.726
1395,-0.104,-0.726
1396,-0.104,-0.754
1397,-0.104,-0.754
1398,-0.104,-0.754
1399,-0.104,-0.754
1400,-0.104,-0.772
1401,-0.104,-0.772
1402,-0.068,-0.772
1403,-0.068,-0.772
1404,-0.104,-0.772
1405,-0.104,-0.772
1406,-0.140,-0.772
1407,-0.140,-0.772
1408,-0.140,-0.750
1409,-0.176,-0.750
1410,-0.176,-0.750
1411,-0.140,-0.750
1412,-0.104,-0.717
1413,-0.104,-0.717
1414,-0.104,-0.717
1415,-0.104,-0.717
1416,-0.068,-0.661
1417,-0.068,-0.661
1418,-0.068,-0.661
1419,-0.068,-0.661
1420,-0.068,-0.602
1421,-0.068,-0.602
1422,-0.068,-0.602
1423,-0.068,-0.602
1424,-0.033,-0.536
1425,-0.033,-0.536
1426,0.003,-0.536
1427,0.003,-0.536
1428,0.003,-0.472
1429,-0.033,-0.472
1430,0.003,-0.472
1431,0.003,-0.472
1432,0.003,-0.425
1433,0.003,-0.425
1434,0.003,-0.425
1435,0.003,-0.425
1436,0.003,-0.380
1437,0.037,-0.380
1438,0.037,-0.380
1439,0.037,-0.380
1440,0.037,-0.351
1441,0.073,-0.351
1442,0.073,-0.351
1443,0.073,-0.351
1444,0.073,-0.333
1445,0.037,-0.333
1446,0.037,-0.333
1447,0.037,-0.333
1448,0.073,-0.324
1449,0.109,-0.324
1450,0.145,-0.324
1451,0.145,-0.324
1452,0.181,-0.324
1453,0.145,-0.324
1454,0.145,-0.324
1455,0.145,-0.324
1456,0.145,-0.324
1457,0.145,-0.324
1458,0.109,-0.324
1459,0.109,-0.324
1460,0.109,-0.324
1461,0.145,-0.324
1462,0.145,-0.324
1463,0.181,-0.324
1464,0.145,-0.319
1465,0.145,-0.319
1466,0.109,-0.319
1467,0.073,-0.319
1468,0.037,-0.324
1469,0.073,-0.324
1470,0.073,-0.324
1471,0.073,-0.324
1472,0.073,-0.333
1473,0.037,-0.333
1474,0.037,-0.333
1475,0.037,-0.333
1476,0.003,-0.343
1477,0.003,-0.343
1478,-0.033,-0.343
1479,-0.068,-0.343
1480,-0.068,-0.347
1481,-0.068,-0.347
1482,-0.104,-0.347
1483,-0.104,-0.347
1484,-0.104,-0.356
1485,-0.104,-0.356
1486,-0.068,-0.356
1487,-0.068,-0.356
1488,-0.033,-0.384
1489,-0.033,-0.384
1490,0.003,-0.384
1491,0.003,-0.384
1492,-0.033,-0.403
1493,-0.068,-0.403
1494,-0.104,-0.403
1495,-0.104,-0.403
1496,-0.068,-0.421
1497,-0.068,-0.421
1498,-0.068,-0.421
1499,-0.068,-0.421
1500,-0.104,-0.435
1501,-0.140,-0.435
1502,-0.140,-0.435
1503,-0.104,-0.435
1504,-0.104,-0.454
1505,-0.104,-0.454
1506,-0.104,-0.454
1507,-0.068,-0.454
1508,-0.033,-0.472
1509,-0.068,-0.472
1510,-0.104,-0.472
1511,-0.104,-0.472
1512,-0.104,-0.499
1513,-0.104,-0.499
1514,-0.104,-0.499
1515,-0.068,-0.499
1516,-0.068,-0.532
1517,-0.068,-0.532
1518,0.003,-0.532
1519,0.003,-0.532
1520,-0.068,-0.559
1521,-0.104,-0.559
1522,-0.068,-0.559
1523,-0.068,-0.559
1524,-0.068,-0.583
1525,-0.068,-0.583
1526,-0.068,-0.583
1527,-0.068,-0.583
1528,-0.033,-0.602
1529,-0.033,-0.602
1530,-0.033,-0.602
1531,-0.068,-0.602
1532,-0.068,-0.611
1533,-0.068,-0.611
1534,-0.033,-0.611
1535,-0.033,-0.611
1536,-0.033,-0.620
1537,-0.033,-0.620
1538,-0.033,-0.620
1539,-0.033,-0.620
1540,0.003,-0.615
1541,0.003,-0.615
1542,-0.033,-0.615
1543,-0.033,-0.615
1544,0.003,-0.602
1545,0.003,-0.602
1546,0.003,-0.602
1547,0.003,-0.602
1548,-0.033,-0.597
1549,-0.068,-0.597
1550,-0.068,-0.597
1551,-0.068,-0.597
1552,-0.104,-0.588
1553,-0.104,-0.588
1554,-0.104,-0.588
1555,-0.104,-0.588
1556,-0.104,-0.588
1557,-0.140,-0.588
1558,-0.140,-0.588
1559,-0.176,-0.588
1560,-0.176,-0.597
1561,-0.248,-0.597
1562,-0.248,-0.597
1563,-0.212,-0.597
1564,-0.248,-0.615
1565,-0.176,-0.615
1566,-0.104,-0.615
1567,-0.104,-0.615
1568,-0.104,-0.638
1569,-0.033,-0.638
1570,-0.104,-0.638
1571,-0.176,-0.638
1572,-0.176,-0.657
1573,-0.212,-0.657
1574,-0.248,-0.657
1575,-0.176,-0.657
1576,-0.104,-0.652
1577,-0.104,-0.652
1578,-0.104,-0.652
1579,-0.068,-0.652
1580,-0.033,-0.643
1581,-0.068,-0.643
1582,-0.104,-0.643
1583,-0.140,-0.643
1584,-0.176,-0.615
1585,-0.176,-0.615
1586,-0.248,-0.615
1587,-0.248,-0.615
1588,-0.212,-0.602
1589,-0.140,-0.602
1590,-0.068,-0.602
1591,0.037,-0.602
1592,0.181,-0.602
1593,0.360,-0.602
1594,0.609,-0.602
1595,0.896,-0.602
1596,1.145,-0.611
1597,1.324,-0.611
1598,1.432,-0.611
1599,1.467,-0.611
1600,1.432,-0.620
1601,1.252,-0.620
1602,1.037,-0.620
1603,0.788,-0.620
1604,0.503,-0.643
1605,0.288,-0.643
1606,0.145,-0.643
1607,0.073,-0.643
1608,0.003,-0.670
1609,0.003,-0.670
1610,-0.033,-0.670
1611,-0.104,-0.670
1612,-0.104,-0.703
1613,-0.104,-0.703
1614,-0.068,-0.703
1615,-0.068,-0.703
1616,-0.104,-0.722
1617,-0.140,-0.722
1618,-0.104,-0.722
1619,-0.140,-0.722
1620,-0.176,-0.708
1621,-0.212,-0.708
1622,-0.212,-0.708
1623,-0.176,-0.708
1624,-0.176,-0.666
1625,-0.140,-0.666
1626,-0.140,-0.666
1627,-0.104,-0.666
1628,-0.104,-0.588
1629,-0.104,-0.588
1630,-0.104,-0.588
1631,-0.104,-0.588
1632,-0.140,-0.495
1633,-0.140,-0.495
1634,-0.140,-0.495
1635,-0.176,-0.495
1636,-0.140,-0.389
1637,-0.104,-0.389
1638,-0.104,-0.389
1639,-0.104,-0.389
1640,-0.104,-0.282
1641,-0.104,-0.282
1642,-0.104,-0.282
1643,-0.104,-0.282
1644,-0.104,-0.185
1645,-0.068,-0.185
1646,0.003,-0.185
1647,-0.033,-0.185
1648,-0.068,-0.097
1649,-0.068,-0.097
1650,-0.068,-0.097
1651,-0.068,-0.097
1652,-0.033,-0.023
1653,0.037,-0.023
1654,0.037,-0.023
1655,0.003,-0.023
1656,0.003,0.046
1657,0.003,0.046
1658,0.003,0.046
1659,-0.033,0.046
1660,-0.033,0.097
1661,0.003,0.097
1662,0.003,0.097
1663,-0.033,0.097
1664,-0.033,0.157
1665,0.003,0.157
1666,0.003,0.157
1667,0.037,0.157
1668,0.073,0.212
1669,0.073,0.212
1670,0.073,0.212
1671,0.073,0.212
1672,0.109,0.286
1673,0.109,0.286
1674,0.109,0.286
1675,0.145,0.286
1676,0.145,0.360
1677,0.145,0.360
1678,0.145,0.360
1679,0.109,0.360
1680,0.073,0.449
1681,0.037,0.449
1682,0.073,0.449
1683,0.109,0.449
1684,0.109,0.541
1685,0.109,0.541
1686,0.073,0.541
1687,0.073,0.541
1688,0.037,0.638
1689,0.037,0.638
1690,0.037,0.638
1691,0.109,0.638
1692,0.073,0.731
1693,0.037,0.731
1694,0.037,0.731
1695,0.037,0.731
1696,0.073,0.819
1697,0.073,0.819
1698,0.109,0.819
1699,0.109,0.819
1700,0.073,0.902
1701,0.037,0.902
1702,0.037,0.902
1703,0.073,0.902
1704,0.037,0.990
1705,0.003,0.990
1706,-0.033,0.990
1707,-0.033,0.990
1708,-0.033,1.024
1709,0.003,1.024
1710,0.037,1.024
1711,0.003,1.024
1712,0.003,1.024
1713,0.003,1.024
1714,0.037,1.024
1715,0.003,1.024
1716,0.003,1.024
1717,0.003,1.024
1718,-0.033,1.024
1719,0.003,1.024
1720,0.003,1.024
1721,0.037,1.024
1722,0.037,1.024
1723,0.003,1.024
1724,-0.033,1.024
1725,-0.068,1.024
1726,-0.104,1.024
1727,-0.104,1.024
1728,-0.104,1.024
1729,-0.068,1.024
1730,-0.033,1.024
1731,-0.033,1.024
1732,-0.033,1.024
1733,-0.033,1.024
1734,-0.033,1.024
1735,-0.033,1.024
1736,0.003,1.024
1737,0.003,1.024
1738,0.003,1.024
1739,0.003,1.024
1740,-0.033,1.024
1741,-0.068,1.024
1742,-0.033,1.024
1743,-0.033,1.024
1744,-0.033,1.024
1745,-0.068,1.024
1746,-0.068,1.024
1747,-0.033,1.024
1748,0.003,1.024
1749,0.037,1.024
1750,0.037,1.024
1751,0.003,1.024
1752,0.003,1.024
1753,0.003,1.024
1754,0.003,1.024
1755,0.003,1.024
1756,0.003,1.024
1757,0.003,1.024
1758,0.003,1.024
1759,-0.033,1.024
1760,-0.033,1.024
1761,0.003,1.024
1762,0.003,1.024
1763,0.003,1.024
1764,0.003,1.024
1765,0.037,1.024
1766,0.037,1.024
1767,0.003,1.024
1768,0.003,1.024
1769,0.003,1.024
1770,0.003,1.024
1771,0.003,1.024
1772,0.003,1.024
1773,-0.068,1.024
1774,-0.068,1.024
1775,-0.068,1.024
1776,-0.033,1.024
1777,-0.068,1.024
1778,-0.104,1.024
1779,-0.104,1.024
1780,-0.104,1.024
1781,-0.104,1.024
1782,-0.104,1.024
1783,-0.104,1.024
1784,-0.104,1.024
1785,-0.104,1.024
1786,-0.140,1.024
1787,-0.104,1.024
1788,-0.104,1.024
1789,-0.140,1.024
1790,-0.140,1.024
1791,-0.176,1.024
1792,-0.176,1.024
1793,-0.176,1.024
1794,-0.140,1.024
1795,-0.176,1.024
1796,-0.176,1.024
1797,-0.176,1.024
1798,-0.176,1.024
1799,-0.176,1.024
1800,-0.176,1.024
1801,-0.176,1.024
1802,-0.176,1.024
1803,-0.176,1.024
1804,-0.176,1.024
1805,-0.176,1.024
1806,-0.176,1.024
1807,-0.176,1.024
1808,-0.176,1.024
1809,-0.140,1.024
1810,-0.104,1.024
1811,-0.104,1.024
1812,-0.104,0.985
1813,-0.140,0.985
1814,-0.140,0.985
1815,-0.104,0.985
1816,-0.033,0.902
1817,0.037,0.902
1818,0.145,0.902
1819,0.324,0.902
1820,0.467,0.809
1821,0.645,0.809
1822,0.860,0.809
1823,1.003,0.809
1824,1.145,0.717
1825,1.252,0.717
1826,1.360,0.717
1827,1.324,0.717
1828,1.181,0.629
1829,1.003,0.629
1830,0.788,0.629
1831,0.537,0.629
1832,0.324,0.545
1833,0.145,0.545
1834,0.003,0.545
1835,-0.068,0.545
1836,-0.140,0.453
1837,-0.176,0.453
1838,-0.176,0.453
1839,-0.176,0.453
1840,-0.140,0.356
1841,-0.140,0.356
1842,-0.176,0.356
1843,-0.140,0.356
1844,-0.176,0.259
1845,-0.212,0.259
1846,-0.248,0.259
1847,-0.248,0.259
1848,-0.248,0.162
1849,-0.248,0.162
1850,-0.248,0.162
1851,-0.248,0.162
1852,-0.283,0.074
1853,-0.283,0.074
1854,-0.283,0.074
1855,-0.248,0.074
1856,-0.248,-0.018
1857,-0.212,-0.018
1858,-0.212,-0.018
1859,-0.212,-0.018
1860,-0.212,-0.111
1861,-0.248,-0.111
1862,-0.248,-0.111
1863,-0.248,-0.111
1864,-0.248,-0.190
1865,-0.248,-0.190
1866,-0.248,-0.190
1867,-0.212,-0.190
1868,-0.212,-0.250
1869,-0.212,-0.250
1870,-0.212,-0.250
1871,-0.212,-0.250
1872,-0.248,-0.287
1873,-0.212,-0.287
1874,-0.212,-0.287
1875,-0.212,-0.287
1876,-0.212,-0.305
1877,-0.176,-0.305
1878,-0.140,-0.305
1879,-0.140,-0.305
1880,-0.104,-0.315
1881,-0.068,-0.315
1882,-0.104,-0.315
1883,-0.104,-0.315
1884,-0.104,-0.315
1885,-0.104,-0.315
1886,-0.104,-0.315
1887,-0.068,-0.315
1888,-0.068,-0.296
1889,-0.068,-0.296
1890,-0.104,-0.296
1891,-0.104,-0.296
1892,-0.068,-0.287
1893,-0.033,-0.287
1894,-0.033,-0.287
1895,-0.033,-0.287
1896,-0.033,-0.282
1897,-0.033,-0.282
1898,-0.033,-0.282
1899,0.003,-0.282
1900,0.003,-0.291
1901,0.003,-0.291
1902,0.003,-0.291
1903,0.003,-0.291
1904,0.003,-0.319
1905,0.037,-0.319
1906,0.109,-0.319
1907,0.109,-0.319
1908,0.073,-0.361
1909,0.109,-0.361
1910,0.073,-0.361
1911,0.073,-0.361
1912,0.073,-0.407
1913,0.037,-0.407
1914,0.037,-0.407
1915,0.003,-0.407
1916,0.003,-0.454
1917,0.003,-0.454
1918,0.037,-0.454
1919,0.003,-0.454
1920,0.003,-0.504
1921,0.003,-0.504
1922,0.037,-0.504
1923,0.003,-0.504
1924,-0.033,-0.536
1925,-0.033,-0.536
1926,-0.033,-0.536
1927,-0.033,-0.536
1928,-0.033,-0.559
1929,-0.033,-0.559
1930,-0.033,-0.559
1931,-0.033,-0.559
1932,-0.033,-0.555
1933,-0.033,-0.555
1934,-0.033,-0.555
1935,-0.068,-0.555
1936,-0.068,-0.536
1937,-0.068,-0.536
1938,-0.068,-0.536
1939,-0.068,-0.536
1940,-0.104,-0.509
1941,-0.104,-0.509
1942,-0.104,-0.509
1943,-0.104,-0.509
1944,-0.104,-0.481
1945,-0.068,-0.481
1946,-0.033,-0.481
1947,-0.033,-0.481
1948,-0.033,-0.458
1949,-0.068,-0.458
1950,-0.068,-0.458
1951,-0.068,-0.458
1952,-0.033,-0.435
1953,-0.033,-0.435
1954,-0.033,-0.435
1955,-0.033,-0.435
1956,0.003,-0.430
1957,0.003,-0.430
1958,-0.033,-0.430
1959,-0.033,-0.430
1960,-0.033,-0.435
1961,0.003,-0.435
1962,-0.033,-0.435
1963,-0.033,-0.435
1964,-0.033,-0.454
1965,-0.033,-0.454
1966,0.003,-0.454
1967,0.003,-0.454
1968,0.003,-0.472
1969,0.003,-0.472
1970,0.003,-0.472
1971,-0.033,-0.472
1972,0.003,-0.499
1973,0.003,-0.499
1974,0.003,-0.499
1975,0.003,-0.499
1976,0.003,-0.532
1977,0.037,-0.532
1978,0.037,-0.532
1979,0.003,-0.532
1980,0.003,-0.550
1981,0.003,-0.550
1982,0.003,-0.550
1983,0.003,-0.550
1984,0.003,-0.569
1985,0.003,-0.569
1986,0.003,-0.569
1987,0.003,-0.569
1988,0.037,-0.578
1989,0.037,-0.578
1990,0.037,-0.578
1991,0.003,-0.578
1992,0.003,-0.800
1993,0.003,-0.800
1994,0.003,-0.800
1995,0.003,-0.800
1996,0.003,-0.814
1997,0.003,-0.814
1998,0.003,-0.814
1999,0.003,-0.814
2000,0.003,-0.837
2001,0.003,-0.837
2002,0.003,-0.837
2003,0.003,-0.837
2004,0.003,-0.865
2005,0.003,-0.865
2006,0.003,-0.865
2007,0.003,-0.865
2008,0.003,-0.892
2009,-0.033,-0.892
2010,-0.033,-0.892
2011,-0.068,-0.892
2012,-0.104,-0.911
2013,-0.104,-0.911
2014,-0.104,-0.911
2015,-0.104,-0.911
2016,-0.104,-0.929
2017,-0.104,-0.929
2018,-0.104,-0.929
2019,-0.104,-0.929
2020,-0.104,-0.934
2021,-0.104,-0.934
2022,-0.104,-0.934
2023,-0.104,-0.934
2024,-0.104,-0.929
2025,-0.104,-0.929
2026,-0.104,-0.929
2027,-0.104,-0.929
2028,-0.104,-0.916
2029,-0.104,-0.916
2030,-0.104,-0.916
2031,-0.104,-0.916
2032,-0.104,-0.897
2033,-0.104,-0.897
2034,-0.104,-0.897
2035,-0.140,-0.897
2036,-0.176,-0.870
2037,-0.176,-0.870
2038,-0.140,-0.870
2039,-0.104,-0.870
2040,-0.104,-0.842
2041,-0.068,-0.842
2042,0.003,-0.842
2043,0.109,-0.842
2044,0.288,-0.809
2045,0.432,-0.809
2046,0.609,-0.809
2047,0.860,-0.809
2048,1.073,-0.777
2049,1.252,-0.777
2050,1.324,-0.777
2051,1.360,-0.777
2052,1.252,-0.731
2053,1.003,-0.731
2054,0.752,-0.731
2055,0.503,-0.731
2056,0.324,-0.684
2057,0.181,-0.684
2058,0.037,-0.684
2059,0.003,-0.684
2060,-0.033,-0.629
2061,-0.068,-0.629
2062,-0.104,-0.629
2063,-0.140,-0.629
2064,-0.140,-0.574
2065,-0.140,-0.574
2066,-0.140,-0.574
2067,-0.104,-0.574
2068,-0.104,-0.513
2069,-0.140,-0.513
2070,-0.140,-0.513
2071,-0.176,-0.513
2072,-0.176,-0.449
2073,-0.176,-0.449
2074,-0.176,-0.449
2075,-0.176,-0.449
2076,-0.176,-0.380
2077,-0.176,-0.380
2078,-0.176,-0.380
2079,-0.176,-0.380
2080,-0.176,-0.319
2081,-0.176,-0.319
2082,-0.212,-0.319
2083,-0.212,-0.319
2084,-0.176,-0.259
2085,-0.140,-0.259
2086,-0.140,-0.259
2087,-0.140,-0.259
2088,-0.176,-0.208
2089,-0.176,-0.208
2090,-0.176,-0.208
2091,-0.140,-0.208
2092,-0.104,-0.152
2093,-0.104,-0.152
2094,-0.104,-0.152
2095,-0.140,-0.152
2096,-0.140,-0.111
2097,-0.104,-0.111
2098,-0.104,-0.111
2099,-0.104,-0.111
2100,-0.104,-0.074
2101,-0.104,-0.074
2102,-0.104,-0.074
2103,-0.104,-0.074
2104,-0.104,-0.042
2105,-0.104,-0.042
2106,-0.104,-0.042
2107,-0.068,-0.042
2108,-0.068,-0.004
2109,-0.068,-0.004
2110,-0.033,-0.004
2111,-0.068,-0.004
2112,-0.033,0.037
2113,-0.033,0.037
2114,0.003,0.037
2115,0.003,0.037
2116,0.003,0.083
2117,0.003,0.083
2118,0.003,0.083
2119,0.037,0.083
2120,0.037,0.139
2121,0.073,0.139
2122,0.073,0.139
2123,0.073,0.139
2124,0.073,0.208
2125,0.073,0.208
2126,0.109,0.208
2127,0.109,0.208
2128,0.145,0.282
2129,0.145,0.282
2130,0.145,0.282
2131,0.145,0.282
2132,0.145,0.365
2133,0.145,0.365
2134,0.109,0.365
2135,0.109,0.365
2136,0.109,0.444
2137,0.145,0.444
2138,0.145,0.444
2139,0.109,0.444
2140,0.109,0.518
2141,0.073,0.518
2142,0.073,0.518
2143,0.073,0.518
2144,0.073,0.578
2145,0.109,0.578
2146,0.073,0.578
2147,0.073,0.578
2148,0.073,0.615
2149,0.037,0.615
2150,0.037,0.615
2151,0.073,0.615
2152,0.073,0.638
2153,0.073,0.638
2154,0.073,0.638
2155,0.073,0.638
2156,0.037,0.638
2157,0.037,0.638
2158,0.003,0.638
2159,0.003,0.638
2160,0.003,0.625
2161,0.003,0.625
2162,0.003,0.625
2163,0.003,0.625
2164,0.003,0.615
2165,0.003,0.615
2166,0.003,0.615
2167,0.003,0.615
2168,-0.033,0.615
2169,-0.033,0.615
2170,-0.033,0.615
2171,-0.033,0.615
2172,-0.033,0.629
2173,-0.033,0.629
2174,-0.068,0.629
2175,-0.068,0.629
2176,-0.068,0.661
2177,-0.068,0.661
2178,-0.068,0.661
2179,-0.033,0.661
2180,-0.033,0.717
2181,-0.033,0.717
2182,0.003,0.717
2183,0.003,0.717
2184,-0.033,0.781
2185,-0.068,0.781
2186,-0.068,0.781
2187,-0.033,0.781
2188,-0.033,0.847
2189,-0.068,0.847
2190,-0.068,0.847
2191,-0.068,0.847
2192,-0.068,0.897
2193,-0.068,0.897
2194,-0.033,0.897
2195,-0.033,0.897
2196,-0.033,0.920
2197,0.003,0.920
2198,0.003,0.920
2199,0.003,0.920
2200,0.003,0.902
2201,0.003,0.902
2202,0.003,0.902
2203,0.003,0.902
2204,0.003,0.842
2205,0.003,0.842
2206,0.037,0.842
2207,0.037,0.842
2208,0.037,0.731
2209,0.037,0.731
2210,0.037,0.731
2211,0.073,0.731
2212,0.073,0.574
2213,0.073,0.574
2214,0.073,0.574
2215,0.037,0.574
2216,0.037,0.370
2217,0.037,0.370
2218,0.037,0.370
2219,0.073,0.370
2220,0.073,0.130
2221,0.037,0.130
2222,0.037,0.130
2223,0.037,0.130
2224,0.003,-0.152
2225,0.003,-0.152
2226,0.003,-0.152
2227,-0.033,-0.152
2228,-0.033,-0.458
2229,0.003,-0.458
2230,0.003,-0.458
2231,0.003,-0.458
2232,-0.033,-0.786
2233,-0.033,-0.786
2234,-0.068,-0.786
2235,-0.068,-0.786
2236,-0.104,-
2237,-0.104,-
2238,-0.104,-
2239,-0.104,-
2240,-0.104,-
2241,-0.104,-
2242,-0.104,-
2243,-0.104,-
2244,-0.140,-
2245,-0.104,-
2246,-0.104,-
2247,-0.104,-
2248,-0.104,-
2249,-0.104,-
2250,-0.104,-
2251,-0.068,-
2252,-0.068,-
2253,-0.104,-
2254,-0.104,-
2255,-0.140,-
2256,-0.140,-
2257,-0.140,-
2258,-0.140,-
2259,-0.140,-
2260,-0.140,-
2261,-0.140,-
2262,-0.140,-
2263,-0.140,-
2264,-0.104,-
2265,-0.033,-
2266,0.003,-
2267,0.109,-
2268,0.288,-
2269,0.503,-
2270,0.752,-
2271,1.037,-
2272,1.288,-
2273,1.432,-
2274,1.537,-
2275,1.573,-
2276,1.396,-
2277,1.181,-
2278,0.967,-
2279,0.681,-
2280,0.467,-
2281,0.288,-
2282,0.181,-
2283,0.109,-
2284,0.073,-
2285,0.003,-
2286,-0.033,-
2287,-0.033,-
2288,-0.068,-
2289,-0.068,-
2290,-0.068,-
2291,-0.104,-
2292,-0.104,-
2293,-0.140,-
2294,-0.140,-
2295,-0.140,-
2296,-0.140,-
2297,-0.140,-
2298,-0.140,-
2299,-0.176,-
2300,-0.212,-
2301,-0.212,-
2302,-0.212,-
2303,-0.212,-
2304,-0.176,-
2305,-0.212,-
2306,-0.176,-
2307,-0.212,-
2308,-0.176,-
2309,-0.176,-
2310,-0.176,-
2311,-0.176,-
2312,-0.176,-
2313,-0.176,-
2314,-0.176,-
2315,-0.176,-
2316,-0.140,-
2317,-0.140,-
2318,-0.140,-
2319,-0.104,-
2320,-0.104,-
2321,-0.140,-
2322,-0.104,-
2323,-0.104,-
2324,-0.104,-
2325,-0.104,-
2326,-0.104,-
2327,-0.104,-
2328,-0.104,-
2329,-0.104,-
2330,-0.104,-
2331,-0.104,-
2332,-0.104,-
2333,-0.068,-
2334,-0.068,-
2335,-0.068,-
2336,-0.033,-
2337,-0.033,-
2338,-0.033,-
2339,-0.033,-
2340,0.003,-
2341,0.003,-
2342,0.003,-
2343,0.037,-
2344,0.003,-
2345,0.037,-
2346,0.037,-
2347,0.037,-
2348,0.073,-
2349,0.109,-
2350,0.145,-
2351,0.181,-
2352,0.145,-
2353,0.145,-
2354,0.109,-
2355,0.109,-
2356,0.109,-
2357,0.145,-
2358,0.181,-
2359,0.181,-
2360,0.181,-
2361,0.109,-
2362,0.073,-
2363,0.073,-
2364,0.073,-
2365,0.073,-
2366,0.073,-
2367,0.073,-
2368,0.073,-
2369,0.037,-
2370,0.037,-
2371,0.073,-
2372,0.073,-1.010
2373,0.073,-1.010
2374,0.073,-1.010
2375,0.037,-1.010
2376,0.003,-0.980
2377,0.003,-0.980
2378,0.003,-0.980
2379,-0.033,-0.980
2380,0.003,-0.945
2381,-0.033,-0.945
2382,-0.033,-0.945
2383,-0.033,-0.945
2384,-0.033,-0.900
2385,-0.033,-0.900
2386,-0.033,-0.900
2387,-0.033,-0.900
2388,-0.033,-0.858
2389,-0.068,-0.858
2390,-0.104,-0.858
2391,-0.104,-0.858
2392,-0.104,-0.811
2393,-0.104,-0.811
2394,-0.104,-0.811
2395,-0.104,-0.811
2396,-0.104,-0.762
2397,-0.104,-0.762
2398,-0.104,-0.762
2399,-0.140,-0.762
2400,-0.140,-0.711
2401,-0.104,-0.711
2402,-0.104,-0.711
2403,-0.104,-0.711
2404,-0.104,-0.656
2405,-0.104,-0.656
2406,-0.104,-0.656
2407,-0.104,-0.656
2408,-0.104,-0.607
2409,-0.104,-0.607
2410,-0.104,-0.607
2411,-0.104,-0.607
2412,-0.104,-0.560
2413,-0.104,-0.560
2414,-0.104,-0.560
2415,-0.104,-0.560
2416,-0.104,-0.511
2417,-0.104,-0.511
2418,-0.104,-0.511
2419,-0.104,-0.511
2420,-0.104,-0.473
2421,-0.104,-0.473
2422,-0.068,-0.473
2423,-0.068,-0.473
2424,-0.068,-0.439
2425,-0.068,-0.439
2426,-0.033,-0.439
2427,-0.033,-0.439
2428,-0.033,-0.410
2429,-0.033,-0.410
2430,-0.033,-0.410
2431,-0.033,-0.410
2432,-0.033,-0.382
2433,0.003,-0.382
2434,0.003,-0.382
2435,0.003,-0.382
2436,0.003,-0.366
2437,0.003,-0.366
2438,-0.033,-0.366
2439,-0.033,-0.366
2440,-0.033,-0.347
2441,-0.068,-0.347
2442,-0.033,-0.347
2443,-0.068,-0.347
2444,-0.068,-0.331
2445,-0.033,-0.331
2446,-0.033,-0.331
2447,-0.033,-0.331
2448,-0.068,-0.321
2449,-0.033,-0.321
2450,-0.033,-0.321
2451,-0.033,-0.321
2452,-0.033,-0.312
2453,-0.068,-0.312
2454,-0.104,-0.312
2455,-0.104,-0.312
2456,-0.104,-0.309
2457,-0.104,-0.309
2458,-0.104,-0.309
2459,-0.104,-0.309
2460,-0.104,-0.307
2461,-0.140,-0.307
2462,-0.140,-0.307
2463,-0.140,-0.307
2464,-0.140,-0.309
2465,-0.140,-0.309
2466,-0.176,-0.309
2467,-0.212,-0.309
2468,-0.212,-0.314
2469,-0.212,-0.314
2470,-0.212,-0.314
2471,-0.176,-0.314
2472,-0.140,-0.324
2473,-0.140,-0.324
2474,-0.140,-0.324
2475,-0.140,-0.324
2476,-0.140,-0.338
2477,-0.176,-0.338
2478,-0.176,-0.338
2479,-0.212,-0.338
2480,-0.212,-0.351
2481,-0.176,-0.351
2482,-0.176,-0.351
2483,-0.176,-0.351
2484,-0.176,-0.370
2485,-0.176,-0.370
2486,-0.140,-0.370
2487,-0.140,-0.370
2488,-0.140,-0.387
2489,-0.104,-0.387
2490,0.003,-0.387
2491,0.073,-0.387
2492,0.288,-0.401
2493,0.503,-0.401
2494,0.717,-0.401
2495,0.967,-0.401
2496,1.181,-0.415
2497,1.360,-0.415
2498,1.503,-0.415
2499,1.537,-0.415
2500,1.503,-0.426
2501,1.288,-0.426
2502,1.037,-0.426
2503,0.752,-0.426
2504,0.537,-0.431
2505,0.360,-0.431
2506,0.181,-0.431
2507,0.109,-0.431
2508,0.037,-0.436
2509,0.003,-0.436
2510,0.003,-0.436
2511,-0.033,-0.436
2512,-0.033,-0.433
2513,-0.033,-0.433
2514,-0.068,-0.433
2515,-0.033,-0.433
2516,-0.033,-0.431
2517,-0.068,-0.431
2518,-0.104,-0.431
2519,-0.068,-0.431
2520,-0.068,-0.426
2521,-0.068,-0.426
2522,-0.068,-0.426
2523,-0.104,-0.426
2524,-0.104,-0.422
2525,-0.176,-0.422
2526,-0.212,-0.422
2527,-0.176,-0.422
2528,-0.176,-0.417
2529,-0.140,-0.417
2530,-0.140,-0.417
2531,-0.176,-0.417
2532,-0.104,-0.410
2533,-0.104,-0.410
2534,-0.140,-0.410
2535,-0.140,-0.410
2536,-0.140,-0.404
2537,-0.176,-0.404
2538,-0.176,-0.404
2539,-0.176,-0.404
2540,-0.104,-0.396
2541,-0.104,-0.396
2542,-0.140,-0.396
2543,-0.140,-0.396
2544,-0.140,-0.389
2545,-0.140,-0.389
2546,-0.104,-0.389
2547,-0.104,-0.389
2548,-0.104,-0.380
2549,-0.104,-0.380
2550,-0.068,-0.380
2551,-0.033,-0.380
2552,0.003,-0.368
2553,0.003,-0.368
2554,-0.068,-0.368
2555,-0.068,-0.368
2556,-0.068,-0.361
2557,-0.033,-0.361
2558,-0.068,-0.361
2559,-0.033,-0.361
2560,0.003,-0.349
2561,0.003,-0.349
2562,0.003,-0.349
2563,0.003,-0.349
2564,0.003,-0.338
2565,0.073,-0.338
2566,0.109,-0.338
2567,0.109,-0.338
2568,0.109,-0.331
2569,0.109,-0.331
2570,0.109,-0.331
2571,0.073,-0.331
2572,0.037,-0.319
2573,0.073,-0.319
2574,0.109,-0.319
2575,0.145,-0.319
2576,0.145,-0.309
2577,0.145,-0.309
2578,0.145,-0.309
2579,0.181,-0.309
2580,0.217,-0.300
2581,0.217,-0.300
2582,0.217,-0.300
2583,0.217,-0.300
2584,0.181,-0.293
2585,0.181,-0.293
2586,0.145,-0.293
2587,0.145,-0.293
2588,0.145,-0.277
2589,0.145,-0.277
2590,0.145,-0.277
2591,0.145,-0.277
2592,0.109,-0.263
2593,0.109,-0.263
2594,0.109,-0.263
2595,0.181,-0.263
2596,0.181,-0.244
2597,0.181,-0.244
2598,0.145,-0.244
2599,0.145,-0.244
2600,0.073,-0.218
2601,0.037,-0.218
2602,0.003,-0.218
2603,0.003,-0.218
2604,0.003,-0.188
2605,0.003,-0.188
2606,0.037,-0.188
2607,0.003,-0.188
2608,0.003,-0.143
2609,0.003,-0.143
2610,-0.033,-0.143
2611,0.003,-0.143
2612,0.003,-0.094
2613,0.003,-0.094
2614,0.003,-0.094
2615,0.003,-0.094
2616,0.003,-0.033
2617,0.073,-0.033
2618,0.073,-0.033
2619,0.073,-0.033
2620,0.003,0.035
2621,0.003,0.035
2622,0.003,0.035
2623,0.003,0.035
2624,-0.033,0.110
2625,-0.033,0.110
2626,0.003,0.110
2627,0.003,0.110
2628,0.003,0.185
2629,-0.033,0.185
2630,-0.033,0.185
2631,0.003,0.185
2632,0.003,0.265
2633,0.003,0.265
2634,0.003,0.265
2635,0.037,0.265
2636,0.073,0.342
2637,0.073,0.342
2638,0.073,0.342
2639,0.073,0.342
2640,0.003,0.417
2641,0.003,0.417
2642,0.003,0.417
2643,0.003,0.417
2644,0.003,0.489
2645,0.003,0.489
2646,-0.033,0.489
2647,-0.033,0.489
2648,-0.033,0.550
2649,-0.033,0.550
2650,0.003,0.550
2651,0.003,0.550
2652,0.037,0.607
2653,0.037,0.607
2654,0.037,0.607
2655,0.003,0.607
2656,0.003,0.656
2657,0.003,0.656
2658,0.003,0.656
2659,0.003,0.656
2660,0.003,0.699
2661,0.003,0.699
2662,0.003,0.699
2663,0.003,0.699
2664,0.037,0.729
2665,0.003,0.729
2666,0.003,0.729
2667,0.037,0.729
2668,0.037,0.752
2669,0.073,0.752
2670,0.073,0.752
2671,0.037,0.752
2672,0.037,0.771
2673,0.003,0.771
2674,0.003,0.771
2675,0.003,0.771
2676,0.003,0.780
2677,0.003,0.780
2678,0.003,0.780
2679,-0.033,0.780
2680,-0.068,0.785
2681,-0.068,0.785
2682,-0.033,0.785
2683,-0.033,0.785
2684,-0.033,0.785
2685,-0.068,0.785
2686,-0.033,0.785
2687,-0.033,0.785
2688,-0.068,0.782
2689,-0.104,0.782
2690,-0.140,0.782
2691,-0.140,0.782
2692,-0.140,0.778
2693,-0.104,0.778
2694,-0.104,0.778
2695,-0.104,0.778
2696,-0.104,0.773
2697,-0.140,0.773
2698,-0.140,0.773
2699,-0.140,0.773
2700,-0.176,0.766
2701,-0.176,0.766
2702,-0.176,0.766
2703,-0.140,0.766
2704,-0.140,0.759
2705,-0.140,0.759
2706,-0.176,0.759
2707,-0.176,0.759
2708,-0.176,0.750
2709,-0.140,0.750
2710,-0.140,0.750
2711,-0.140,0.750
2712,-0.104,0.743
2713,-0.104,0.743
2714,-0.033,0.743
2715,0.003,0.743
2716,0.037,0.729
2717,0.181,0.729
2718,0.324,0.729
2719,0.467,0.729
2720,0.645,0.713
2721,0.824,0.713
2722,1.003,0.713
2723,1.145,0.713
2724,1.217,0.696
2725,1.288,0.696
2726,1.217,0.696
2727,1.073,0.696
2728,0.860,0.675
2729,0.609,0.675
2730,0.360,0.675
2731,0.181,0.675
2732,0.003,0.654
2733,-0.033,0.654
2734,-0.068,0.654
2735,-0.068,0.654
2736,-0.068,0.630
2737,-0.104,0.630
2738,-0.140,0.630
2739,-0.212,0.630
2740,-0.212,0.607
2741,-0.212,0.607
2742,-0.176,0.607
2743,-0.176,0.607
2744,-0.176,0.581
2745,-0.176,0.581
2746,-0.212,0.581
2747,-0.212,0.581
2748,-0.176,0.555
2749,-0.176,0.555
2750,-0.176,0.555
2751,-0.212,0.555
2752,-0.212,0.529
2753,-0.212,0.529
2754,-0.248,0.529
2755,-0.248,0.529
2756,-0.248,0.506
2757,-0.248,0.506
2758,-0.248,0.506
2759,-0.212,0.506
2760,-0.140,0.480
2761,-0.104,0.480
2762,-0.104,0.480
2763,-0.104,0.480
2764,-0.140,0.455
2765,-0.176,0.455
2766,-0.140,0.455
2767,-0.176,0.455
2768,-0.176,0.426
2769,-0.176,0.426
2770,-0.140,0.426
2771,-0.140,0.426
2772,-0.140,0.399
2773,-0.140,0.399
2774,-0.176,0.399
2775,-0.176,0.399
2776,-0.140,0.375
2777,-0.104,0.375
2778,-0.104,0.375
2779,-0.104,0.375
2780,-0.104,0.349
2781,-0.104,0.349
2782,-0.068,0.349
2783,-0.068,0.349
2784,-0.068,0.326
2785,-0.068,0.326
2786,-0.068,0.326
2787,-0.068,0.326
2788,-0.068,0.302
2789,-0.068,0.302
2790,-0.033,0.302
2791,-0.033,0.302
2792,-0.033,0.283
2793,0.003,0.283
2794,0.003,0.283
2795,0.003,0.283
2796,0.003,0.260
2797,0.003,0.260
2798,0.037,0.260
2799,0.037,0.260
2800,0.037,0.243
2801,0.073,0.243
2802,0.073,0.243
2803,0.073,0.243
2804,0.073,0.230
2805,0.073,0.230
2806,0.073,0.230
2807,0.073,0.230
2808,0.073,0.213
2809,0.109,0.213
2810,0.109,0.213
2811,0.109,0.213
2812,0.109,0.197
2813,0.073,0.197
2814,0.073,0.197
2815,0.073,0.197
2816,0.073,0.182
2817,0.037,0.182
2818,0.003,0.182
2819,0.003,0.182
2820,0.003,0.167
2821,0.003,0.167
2822,0.003,0.167
2823,0.003,0.167
2824,0.003,0.150
2825,0.003,0.150
2826,0.003,0.150
2827,0.003,0.150
2828,0.003,0.134
2829,0.003,0.134
2830,0.003,0.134
2831,0.003,0.134
2832,0.003,0.121
2833,-0.033,0.121
2834,-0.033,0.121
2835,-0.033,0.121
2836,-0.033,0.113
2837,-0.033,0.113
2838,-0.033,0.113
2839,-0.033,0.113
2840,-0.033,0.113
2841,-0.033,0.113
2842,-0.068,0.113
2843,-0.104,0.113
2844,-0.104,0.115
2845,-0.104,0.115
2846,-0.104,0.115
2847,-0.104,0.115
2848,-0.104,0.129
2849,-0.104,0.129
2850,-0.104,0.129
2851,-0.104,0.129
2852,-0.104,0.145
2853,-0.104,0.145
2854,-0.104,0.145
2855,-0.104,0.145
2856,-0.104,0.171
2857,-0.104,0.171
2858,-0.104,0.171
2859,-0.104,0.171
2860,-0.104,0.204
2861,-0.104,0.204
2862,-0.104,0.204
2863,-0.068,0.204
2864,-0.104,0.236
2865,-0.068,0.236
2866,-0.068,0.236
2867,-0.068,0.236
2868,-0.068,0.274
2869,-0.068,0.274
2870,-0.068,0.274
2871,-0.068,0.274
2872,-0.068,0.309
2873,-0.068,0.309
2874,-0.068,0.309
2875,-0.068,0.309
2876,-0.068,0.344
2877,-0.068,0.344
2878,-0.068,0.344
2879,-0.033,0.344
2880,-0.033,0.375
2881,-0.068,0.375
2882,-0.068,0.375
2883,-0.033,0.375
2884,0.003,0.401
2885,0.003,0.401
2886,0.003,0.401
2887,0.003,0.401
2888,0.003,0.426
2889,0.003,0.426
2890,0.003,0.426
2891,0.003,0.426
2892,0.037,0.445
2893,0.037,0.445
2894,0.003,0.445
2895,0.003,0.445
2896,0.003,0.455
2897,0.003,0.455
2898,0.003,0.455
2899,0.003,0.455
2900,0.003,0.464
2901,0.003,0.464
2902,0.003,0.464
2903,0.003,0.464
2904,0.003,0.469
2905,0.003,0.469
2906,0.003,0.469
2907,0.003,0.469
2908,0.003,0.464
2909,-0.033,0.464
2910,-0.068,0.464
2911,-0.068,0.464
2912,-0.104,0.457
2913,-0.104,0.457
2914,-0.140,0.457
2915,-0.140,0.457
2916,-0.140,0.445
2917,-0.140,0.445
2918,-0.140,0.445
2919,-0.140,0.445
2920,-0.140,0.429
2921,-0.140,0.429
2922,-0.140,0.429
2923,-0.140,0.429
2924,-0.140,0.407
2925,-0.140,0.407
2926,-0.140,0.407
2927,-0.176,0.407
2928,-0.140,0.380
2929,-0.140,0.380
2930,-0.140,0.380
2931,-0.140,0.380
2932,-0.176,0.356
2933,-0.176,0.356
2934,-0.212,0.356
2935,-0.248,0.356
2936,-0.248,0.326
2937,-0.212,0.326
2938,-0.176,0.326
2939,-0.140,0.326
2940,-0.104,0.297
2941,-0.033,0.297
2942,0.037,0.297
2943,0.181,0.297
2944,0.396,0.274
2945,0.609,0.274
2946,0.824,0.274
2947,1.003,0.274
2948,1.181,0.248
2949,1.288,0.248
2950,1.324,0.248
2951,1.217,0.248
2952,1.003,0.223
2953,0.752,0.223
2954,0.503,0.223
2955,0.288,0.223
2956,0.181,0.204
2957,0.073,0.204
2958,0.003,0.204
2959,-0.033,0.204
2960,-0.033,0.180
2961,-0.104,0.180
2962,-0.104,0.180
2963,-0.140,0.180
2964,-0.140,0.164
2965,-0.140,0.164
2966,-0.140,0.164
2967,-0.140,0.164
2968,-0.140,0.143
2969,-0.140,0.143
2970,-0.104,0.143
2971,-0.140,0.143
2972,-0.140,0.124
2973,-0.176,0.124
2974,-0.176,0.124
2975,-0.176,0.124
2976,-0.212,0.107
2977,-0.212,0.107
2978,-0.212,0.107
2979,-0.212,0.107
2980,-0.212,0.089
2981,-0.212,0.089
2982,-0.248,0.089
2983,-0.212,0.089
2984,-0.176,0.070
2985,-0.176,0.070
2986,-0.176,0.070
2987,-0.176,0.070
2988,-0.212,0.051
2989,-0.212,0.051
2990,-0.176,0.051
2991,-0.176,0.051
2992,-0.176,0.033
2993,-0.140,0.033
2994,-0.140,0.033
2995,-0.140,0.033
2996,-0.104,0.017
2997,-0.104,0.017
2998,-0.104,0.017
2999,-0.104,0.017
3000,-0.104,-0.005
3001,-0.104,-0.005
3002,-0.104,-0.005
3003,-0.140,-0.005
3004,-0.140,-0.021
3005,-0.104,-0.021
3006,-0.104,-0.021
3007,-0.104,-0.021
3008,-0.104,-0.035
3009,-0.104,-0.035
3010,-0.104,-0.035
3011,-0.068,-0.035
3012,-0.033,-0.050
3013,-0.033,-0.050
3014,-0.033,-0.050
3015,-0.033,-0.050
3016,0.003,-0.061
3017,-0.033,-0.061
3018,0.003,-0.061
3019,0.003,-0.061
3020,0.003,-0.073
3021,0.037,-0.073
3022,0.037,-0.073
3023,0.073,-0.073
3024,0.109,-0.080
3025,0.145,-0.080
3026,0.109,-0.080
3027,0.073,-0.080
3028,0.037,-0.085
3029,0.037,-0.085
3030,0.037,-0.085
3031,0.073,-0.085
3032,0.073,-0.091
3033,0.073,-0.091
3034,0.073,-0.091
3035,0.073,-0.091
3036,0.073,-0.096
3037,0.073,-0.096
3038,0.073,-0.096
3039,0.073,-0.096
3040,0.073,-0.101
3041,0.073,-0.101
3042,0.037,-0.101
3043,0.037,-0.101
3044,0.037,-0.105
3045,0.037,-0.105
3046,0.037,-0.105
3047,0.037,-0.105
3048,0.037,-0.105
3049,0.037,-0.105
3050,0.003,-0.105
3051,0.003,-0.105
3052,0.003,-0.105
3053,0.003,-0.105
3054,0.003,-0.105
3055,0.003,-0.105
3056,-0.033,-0.105
3057,-0.033,-0.105
3058,-0.068,-0.105
3059,-0.068,-0.105
3060,-0.068,-0.096
3061,-0.068,-0.096
3062,-0.033,-0.096
3063,0.003,-0.096
3064,0.003,-0.082
3065,-0.033,-0.082
3066,-0.068,-0.082
3067,-0.068,-0.082
3068,-0.068,-0.066
3069,-0.068,-0.066
3070,-0.068,-0.066
3071,-0.068,-0.066
3072,-0.068,-0.040
3073,-0.068,-0.040
3074,-0.068,-0.040
3075,-0.104,-0.040
3076,-0.104,-0.009
3077,-0.068,-0.009
3078,-0.068,-0.009
3079,-0.068,-0.009
3080,-0.068,0.017
3081,-0.068,0.017
3082,-0.068,0.017
3083,-0.104,0.017
3084,-0.068,0.046
3085,-0.033,0.046
3086,-0.033,0.046
3087,-0.033,0.046
3088,-0.068,0.075
3089,-0.068,0.075
3090,-0.068,0.075
3091,-0.104,0.075
3092,-0.104,0.101
3093,-0.104,0.101
3094,-0.104,0.101
3095,-0.068,0.101
3096,-0.068,0.119
3097,-0.068,0.119
3098,-0.033,0.119
3099,-0.033,0.119
3100,-0.033,0.129
3101,-0.033,0.129
3102,0.003,0.129
3103,0.003,0.129
3104,0.003,0.136
3105,0.003,0.136
3106,0.003,0.136
3107,0.003,0.136
3108,0.003,0.141
3109,0.003,0.141
3110,0.003,0.141
3111,0.003,0.141
3112,0.003,0.138
3113,0.003,0.138
3114,0.003,0.138
3115,0.003,0.138
3116,0.003,0.136
3117,0.003,0.136
3118,0.003,0.136
3119,0.003,0.136
3120,0.003,0.124
3121,0.003,0.124
3122,0.003,0.124
3123,0.003,0.124
3124,-0.033,0.115
3125,-0.033,0.115
3126,-0.033,0.115
3127,-0.033,0.115
3128,0.003,0.103
3129,0.003,0.103
3130,-0.033,0.103
3131,-0.033,0.103
3132,-0.033,0.086
3133,-0.068,0.086
3134,-0.068,0.086
3135,-0.104,0.086
3136,-0.104,0.068
3137,-0.068,0.068
3138,-0.104,0.068
3139,-0.104,0.068
3140,-0.104,0.046
3141,-0.104,0.046
3142,-0.104,0.046
3143,-0.104,0.046
3144,-0.104,0.025
3145,-0.104,0.025
3146,-0.104,0.025
3147,-0.140,0.025
3148,-0.176,0.000
3149,-0.176,0.000
3150,-0.140,0.000
3151,-0.104,0.000
3152,-0.104,-0.024
3153,-0.104,-0.024
3154,-0.140,-0.024
3155,-0.140,-0.024
3156,-0.140,-0.047
3157,-0.140,-0.047
3158,-0.176,-0.047
3159,-0.212,-0.047
3160,-0.212,-0.075
3161,-0.212,-0.075
3162,-0.176,-0.075
3163,-0.176,-0.075
3164,-0.104,-0.099
3165,-0.033,-0.099
3166,0.037,-0.099
3167,0.145,-0.099
3168,0.324,-0.122
3169,0.503,-0.122
3170,0.752,-0.122
3171,1.003,-0.122
3172,1.217,-0.143
3173,1.396,-0.143
3174,1.503,-0.143
3175,1.503,-0.143
3176,1.396,-0.164
3177,1.181,-0.164
3178,0.932,-0.164
3179,0.681,-0.164
3180,0.467,-0.180
3181,0.288,-0.180
3182,0.145,-0.180
3183,0.073,-0.180
3184,0.037,-0.195
3185,0.003,-0.195
3186,-0.033,-0.195
3187,-0.068,-0.195
3188,-0.068,-0.208
3189,-0.068,-0.208
3190,-0.068,-0.208
3191,-0.068,-0.208
3192,-0.104,-0.223
3193,-0.140,-0.223
3194,-0.140,-0.223
3195,-0.104,-0.223
3196,-0.104,-0.234
3197,-0.140,-0.234
3198,-0.140,-0.234
3199,-0.176,-0.234
3200,-0.176,-0.244
3201,-0.176,-0.244
3202,-0.212,-0.244
3203,-0.212,-0.244
3204,-0.176,-0.256
3205,-0.104,-0.256
3206,-0.104,-0.256
3207,-0.104,-0.256
3208,-0.140,-0.265
3209,-0.140,-0.265
3210,-0.104,-0.265
3211,-0.104,-0.265
3212,-0.104,-0.277
3213,-0.104,-0.277
3214,-0.033,-0.277
3215,-0.068,-0.277
3216,-0.104,-0.286
3217,-0.104,-0.286
3218,-0.104,-0.286
3219,-0.104,-0.286
3220,-0.104,-0.295
3221,-0.104,-0.295
3222,-0.140,-0.295
3223,-0.104,-0.295
3224,-0.104,-0.305
3225,-0.104,-0.305
3226,-0.104,-0.305
3227,-0.068,-0.305
3228,-0.033,-0.317
3229,-0.033,-0.317
3230,-0.033,-0.317
3231,-0.033,-0.317
3232,-0.033,-0.329
3233,0.003,-0.329
3234,-0.033,-0.329
3235,-0.033,-0.329
3236,-0.033,-0.340
3237,-0.068,-0.340
3238,-0.068,-0.340
3239,0.003,-0.340
3240,0.037,-0.351
3241,0.037,-0.351
3242,0.037,-0.351
3243,0.037,-0.351
3244,0.037,-0.366
3245,0.037,-0.366
3246,0.073,-0.366
3247,0.073,-0.366
3248,0.109,-0.378
3249,0.145,-0.378
3250,0.145,-0.378
3251,0.109,-0.378
3252,0.073,-0.389
3253,0.109,-0.389
3254,0.145,-0.389
3255,0.145,-0.389
3256,0.109,-0.399
3257,0.145,-0.399
3258,0.145,-0.399
3259,0.181,-0.399
3260,0.217,-0.408
3261,0.181,-0.408
3262,0.109,-0.408
3263,0.073,-0.408
3264,0.037,-0.417
3265,0.073,-0.417
3266,0.109,-0.417
3267,0.073,-0.417
3268,0.109,-0.422
3269,0.145,-0.422
3270,0.073,-0.422
3271,0.073,-0.422
3272,0.109,-0.340
3273,0.109,-0.340
3274,0.145,-0.340
3275,0.145,-0.340
3276,0.109,-0.340
3277,0.073,-0.340
3278,0.073,-0.340
3279,0.037,-0.340
3280,0.003,-0.331
3281,-0.068,-0.331
3282,-0.104,-0.331
3283,-0.068,-0.331
3284,-0.033,-0.324
3285,-0.033,-0.324
3286,-0.033,-0.324
3287,0.003,-0.324
3288,0.003,-0.309
3289,0.003,-0.309
3290,-0.033,-0.309
3291,-0.033,-0.309
3292,0.003,-0.286
3293,0.003,-0.286
3294,0.003,-0.286
3295,-0.033,-0.286
3296,-0.068,-0.263
3297,-0.104,-0.263
3298,-0.104,-0.263
3299,-0.104,-0.263
3300,-0.104,-0.234
3301,-0.033,-0.234
3302,-0.033,-0.234
3303,0.003,-0.234
3304,0.003,-0.204
3305,-0.033,-0.204
3306,-0.104,-0.204
3307,-0.068,-0.204
3308,-0.068,-0.172
3309,0.003,-0.172
3310,0.003,-0.172
3311,0.003,-0.172
3312,-0.033,-0.145
3313,-0.068,-0.145
3314,-0.068,-0.145
3315,-0.033,-0.145
3316,0.003,-0.117
3317,-0.033,-0.117
3318,-0.033,-0.117
3319,-0.033,-0.117
3320,-0.033,-0.099
3321,-0.033,-0.099
3322,0.003,-0.099
3323,0.003,-0.099
3324,0.003,-0.085
3325,-0.033,-0.085
3326,-0.068,-0.085
3327,-0.068,-0.085
3328,-0.068,-0.070
3329,-0.068,-0.070
3330,-0.068,-0.070
3331,-0.068,-0.070
3332,-0.068,-0.066
3333,-0.033,-0.066
3334,-0.068,-0.066
3335,-0.104,-0.066
3336,-0.104,-0.061
3337,-0.068,-0.061
3338,-0.033,-0.061
3339,0.003,-0.061
3340,0.073,-0.061
3341,0.073,-0.061
3342,0.037,-0.061
3343,0.037,-0.061
3344,0.003,-0.064
3345,-0.033,-0.064
3346,-0.033,-0.064
3347,-0.068,-0.064
3348,-0.104,-0.070
3349,-0.104,-0.070
3350,-0.140,-0.070
3351,-0.104,-0.070
3352,-0.104,-0.077
3353,-0.104,-0.077
3354,-0.068,-0.077
3355,-0.068,-0.077
3356,-0.068,-0.089
3357,-0.104,-0.089
3358,-0.104,-0.089
3359,-0.104,-0.089
3360,-0.104,-0.099
3361,-0.068,-0.099
3362,-0.068,-0.099
3363,-0.104,-0.099
3364,-0.104,-0.111
3365,-0.104,-0.111
3366,-0.140,-0.111
3367,-0.140,-0.111
3368,-0.176,-0.124
3369,-0.140,-0.124
3370,-0.140,-0.124
3371,-0.176,-0.124
3372,-0.176,-0.139
3373,-0.212,-0.139
3374,-0.176,-0.139
3375,-0.176,-0.139
3376,-0.176,-0.152
3377,-0.176,-0.152
3378,-0.176,-0.152
3379,-0.212,-0.152
3380,-0.248,-0.169
3381,-0.248,-0.169
3382,-0.176,-0.169
3383,-0.176,-0.169
3384,-0.212,-0.183
3385,-0.212,-0.183
3386,-0.212,-0.183
3387,-0.140,-0.183
3388,-0.140,-0.200
3389,-0.140,-0.200
3390,-0.104,-0.200
3391,-0.104,-0.200
3392,0.003,-0.218
3393,0.073,-0.218
3394,0.217,-0.218
3395,0.396,-0.218
3396,0.609,-0.230
3397,0.788,-0.230
3398,1.003,-0.230
3399,1.217,-0.230
3400,1.324,-0.248
3401,1.396,-0.248
3402,1.324,-0.248
3403,1.109,-0.248
3404,0.896,-0.263
3405,0.645,-0.263
3406,0.396,-0.263
3407,0.217,-0.263
3408,0.073,-0.277
3409,0.003,-0.277
3410,0.003,-0.277
3411,-0.068,-0.277
3412,-0.068,-0.293
3413,-0.104,-0.293
3414,-0.104,-0.293
3415,-0.140,-0.293
3416,-0.140,-0.305
3417,-0.140,-0.305
3418,-0.176,-0.305
3419,-0.176,-0.305
3420,-0.176,-0.315
3421,-0.176,-0.315
3422,-0.176,-0.315
3423,-0.176,-0.315
3424,-0.212,-0.326
3425,-0.176,-0.326
3426,-0.176,-0.326
3427,-0.176,-0.326
3428,-0.212,-0.336
3429,-0.176,-0.336
3430,-0.176,-0.336
3431,-0.176,-0.336
3432,-0.176,-0.343
3433,-0.176,-0.343
3434,-0.176,-0.343
3435,-0.176,-0.343
3436,-0.176,-0.344
3437,-0.176,-0.344
3438,-0.140,-0.344
3439,-0.140,-0.344
3440,-0.140,-0.352
3441,-0.140,-0.352
3442,-0.176,-0.352
3443,-0.140,-0.352
3444,-0.176,-0.356
3445,-0.176,-0.356
3446,-0.140,-0.356
3447,-0.140,-0.356
3448,-0.140,-0.359
3449,-0.140,-0.359
3450,-0.140,-0.359
3451,-0.140,-0.359
3452,-0.140,-0.363
3453,-0.104,-0.363
3454,-0.104,-0.363
3455,-0.104,-0.363
3456,-0.104,-0.363
3457,-0.104,-0.363
3458,-0.068,-0.363
3459,-0.068,-0.363
3460,-0.033,-0.370
3461,0.003,-0.370
3462,0.003,-0.370
3463,0.003,-0.370
3464,0.003,-0.373
3465,0.003,-0.373
3466,0.037,-0.373
3467,0.073,-0.373
3468,0.073,-0.378
3469,0.073,-0.378
3470,0.073,-0.378
3471,0.073,-0.378
3472,0.109,-0.385
3473,0.109,-0.385
3474,0.145,-0.385
3475,0.145,-0.385
3476,0.145,-0.390
3477,0.145,-0.390
3478,0.145,-0.390
3479,0.145,-0.390
3480,0.145,-0.399
3481,0.145,-0.399
3482,0.145,-0.399
3483,0.145,-0.399
3484,0.145,-0.404
3485,0.145,-0.404
3486,0.181,-0.404
3487,0.145,-0.404
3488,0.109,-0.410
3489,0.109,-0.410
3490,0.109,-0.410
3491,0.073,-0.410
3492,0.109,-0.415
3493,0.145,-0.415
3494,0.145,-0.415
3495,0.145,-0.415
3496,0.073,-0.422
3497,0.037,-0.422
3498,0.003,-0.422
3499,0.003,-0.422
3500,0.003,-0.424
3501,0.003,-0.424
3502,0.003,-0.424
3503,0.003,-0.424
3504,0.003,-0.424
3505,0.003,-0.424
3506,0.037,-0.424
3507,0.003,-0.424
3508,-0.033,-0.422
3509,-0.033,-0.422
3510,-0.068,-0.422
3511,-0.104,-0.422
3512,-0.104,-0.415
3513,-0.104,-0.415
3514,-0.104,-0.415
3515,-0.104,-0.415
3516,-0.104,-0.406
3517,-0.104,-0.406
3518,-0.104,-0.406
3519,-0.104,-0.406
3520,-0.140,-0.394
3521,-0.140,-0.394
3522,-0.140,-0.394
3523,-0.140,-0.394
3524,-0.104,-0.375
3525,-0.104,-0.375
3526,-0.104,-0.375
3527,-0.104,-0.375
3528,-0.104,-0.285
3529,-0.104,-0.285
3530,-0.104,-0.285
3531,-0.104,-0.285
3532,-0.104,-0.270
3533,-0.104,-0.270
3534,-0.104,-0.270
3535,-0.104,-0.270
3536,-0.104,-0.249
3537,-0.104,-0.249
3538,-0.104,-0.249
3539,-0.104,-0.249
3540,-0.104,-0.231
3541,-0.104,-0.231
3542,-0.104,-0.231
3543,-0.104,-0.231
3544,-0.104,-0.214
3545,-0.104,-0.214
3546,-0.104,-0.214
3547,-0.104,-0.214
3548,-0.104,-0.195
3549,-0.104,-0.195
3550,-0.068,-0.195
3551,-0.068,-0.195
3552,-0.068,-0.184
3553,-0.068,-0.184
3554,-0.033,-0.184
3555,-0.033,-0.184
3556,-0.033,-0.169
3557,0.003,-0.169
3558,0.003,-0.169
3559,0.003,-0.169
3560,0.003,-0.155
3561,0.003,-0.155
3562,0.003,-0.155
3563,0.003,-0.155
3564,0.003,-0.148
3565,0.003,-0.148
3566,0.003,-0.148
3567,0.037,-0.148
3568,0.003,-0.142
3569,0.037,-0.142
3570,0.003,-0.142
3571,0.003,-0.142
3572,0.003,-0.139
3573,0.003,-0.139
3574,0.003,-0.139
3575,0.003,-0.139
3576,0.003,-0.139
3577,0.003,-0.139
3578,0.003,-0.139
3579,-0.033,-0.139
3580,-0.068,-0.139
3581,-0.068,-0.139
3582,-0.068,-0.139
3583,-0.068,-0.139
3584,-0.104,-0.142
3585,-0.068,-0.142
3586,-0.104,-0.142
3587,-0.104,-0.142
3588,-0.104,-0.144
3589,-0.104,-0.144
3590,-0.140,-0.144
3591,-0.140,-0.144
3592,-0.140,-0.152
3593,-0.140,-0.152
3594,-0.140,-0.152
3595,-0.140,-0.152
3596,-0.140,-0.158
3597,-0.140,-0.158
3598,-0.140,-0.158
3599,-0.140,-0.158
3600,-0.140,-0.165
3601,-0.140,-0.165
3602,-0.140,-0.165
3603,-0.140,-0.165
3604,-0.140,-0.171
3605,-0.140,-0.171
3606,-0.140,-0.171
3607,-0.140,-0.171
3608,-0.176,-0.176
3609,-0.176,-0.176
3610,-0.176,-0.176
3611,-0.212,-0.176
3612,-0.212,-0.180
3613,-0.176,-0.180
3614,-0.140,-0.180
3615,-0.068,-0.180
3616,0.003,-0.185
3617,0.109,-0.185
3618,0.252,-0.185
3619,0.432,-0.185
3620,0.645,-0.190
3621,0.860,-0.190
3622,1.073,-0.190
3623,1.217,-0.190
3624,1.324,-0.192
3625,1.360,-0.192
3626,1.217,-0.192
3627,1.003,-0.192
3628,0.788,-0.190
3629,0.537,-0.190
3630,0.360,-0.190
3631,0.181,-0.190
3632,0.037,-0.188
3633,0.003,-0.188
3634,-0.033,-0.188
3635,-0.068,-0.188
3636,-0.033,-0.184
3637,-0.068,-0.184
3638,-0.104,-0.184
3639,-0.104,-0.184
3640,-0.104,-0.182
3641,-0.104,-0.182
3642,-0.104,-0.182
3643,-0.104,-0.182
3644,-0.140,-0.174
3645,-0.140,-0.174
3646,-0.140,-0.174
3647,-0.140,-0.174
3648,-0.140,-0.172
3649,-0.176,-0.172
3650,-0.176,-0.172
3651,-0.212,-0.172
3652,-0.212,-0.169
3653,-0.212,-0.169
3654,-0.212,-0.169
3655,-0.176,-0.169
3656,-0.140,-0.163
3657,-0.140,-0.163
3658,-0.140,-0.163
3659,-0.140,-0.163
3660,-0.140,-0.160
3661,-0.176,-0.160
3662,-0.176,-0.160
3663,-0.176,-0.160
3664,-0.140,-0.158
3665,-0.176,-0.158
3666,-0.176,-0.158
3667,-0.176,-0.158
3668,-0.176,-0.155
3669,-0.140,-0.155
3670,-0.140,-0.155
3671,-0.104,-0.155
3672,-0.104,-0.152
3673,-0.104,-0.152
3674,-0.104,-0.152
3675,-0.140,-0.152
3676,-0.104,-0.150
3677,-0.104,-0.150
3678,-0.104,-0.150
3679,-0.104,-0.150
3680,-0.068,-0.150
3681,-0.068,-0.150
3682,-0.068,-0.150
3683,-0.068,-0.150
3684,-0.068,-0.148
3685,-0.068,-0.148
3686,-0.068,-0.148
3687,-0.068,-0.148
3688,-0.033,-0.150
3689,-0.033,-0.150
3690,0.003,-0.150
3691,0.003,-0.150
3692,0.003,-0.148
3693,0.003,-0.148
3694,0.003,-0.148
3695,0.003,-0.148
3696,0.037,-0.148
3697,0.073,-0.148
3698,0.073,-0.148
3699,0.073,-0.148
3700,0.073,-0.152
3701,0.109,-0.152
3702,0.109,-0.152
3703,0.109,-0.152
3704,0.109,-0.155
3705,0.109,-0.155
3706,0.109,-0.155
3707,0.109,-0.155
3708,0.109,-0.155
3709,0.109,-0.155
3710,0.109,-0.155
3711,0.073,-0.155
3712,0.073,-0.158
3713,0.109,-0.158
3714,0.109,-0.158
3715,0.109,-0.158
3716,0.109,-0.160
3717,0.109,-0.160
3718,0.109,-0.160
3719,0.073,-0.160
3720,0.073,-0.160
3721,0.037,-0.160
3722,0.003,-0.160
3723,0.003,-0.160
3724,0.003,-0.158
3725,0.003,-0.158
3726,0.003,-0.158
3727,0.003,-0.158
3728,0.003,-0.150
3729,0.003,-0.150
3730,-0.033,-0.150
3731,-0.033,-0.150
3732,-0.033,-0.142
3733,-0.033,-0.142
3734,-0.033,-0.142
3735,-0.033,-0.142
3736,-0.033,-0.132
3737,-0.033,-0.132
3738,-0.068,-0.132
3739,-0.033,-0.132
3740,-0.033,-0.115
3741,-0.033,-0.115
3742,-0.068,-0.115
3743,-0.068,-0.115
3744,-0.068,-0.096
3745,-0.068,-0.096
3746,-0.068,-0.096
3747,-0.068,-0.096
3748,-0.068,-0.077
3749,-0.068,-0.077
3750,-0.068,-0.077
3751,-0.068,-0.077
3752,-0.068,-0.054
3753,-0.104,-0.054
3754,-0.068,-0.054
3755,-0.033,-0.054
3756,-0.033,-0.030
3757,-0.033,-0.030
3758,-0.068,-0.030
3759,-0.068,-0.030
3760,-0.068,-0.007
3761,-0.068,-0.007
3762,-0.068,-0.007
3763,-0.068,-0.007
3764,-0.068,0.013
3765,-0.033,0.013
3766,-0.033,0.013
3767,0.003,0.013
3768,-0.033,0.030
3769,-0.068,0.030
3770,-0.104,0.030
3771,-0.104,0.030
3772,-0.104,0.047
3773,-0.068,0.047
3774,-0.033,0.047
3775,-0.033,0.047
3776,0.003,0.056
3777,0.003,0.056
3778,0.003,0.056
3779,0.003,0.056
3780,0.003,0.064
3781,0.003,0.064
3782,0.003,0.064
3783,0.003,0.064
3784,0.003,0.066
3785,0.003,0.066
3786,0.003,0.066
3787,0.037,0.066
3788,0.073,0.064
3789,0.037,0.064
3790,0.037,0.064
3791,0.037,0.064
3792,0.003,0.062
3793,0.003,0.062
3794,0.003,0.062
3795,0.003,0.062
3796,0.003,0.054
3797,-0.033,0.054
3798,-0.033,0.054
3799,-0.033,0.054
3800,-0.033,0.043
3801,-0.033,0.043
3802,-0.033,0.043
3803,-0.068,0.043
3804,-0.068,0.032
3805,-0.068,0.032
3806,-0.033,0.032
3807,-0.033,0.032
3808,-0.068,0.018
3809,-0.068,0.018
3810,-0.104,0.018
3811,-0.104,0.018
3812,-0.104,0.004
3813,-0.104,0.004
3814,-0.104,0.004
3815,-0.104,0.004
3816,-0.104,-0.011
3817,-0.104,-0.011
3818,-0.104,-0.011
3819,-0.104,-0.011
3820,-0.140,-0.030
3821,-0.140,-0.030
3822,-0.104,-0.030
3823,-0.104,-0.030
3824,-0.104,-0.051
3825,-0.104,-0.051
3826,-0.104,-0.051
3827,-0.140,-0.051
3828,-0.140,-0.071
3829,-0.176,-0.071
3830,-0.212,-0.071
3831,-0.212,-0.071
3832,-0.176,-0.090
3833,-0.140,-0.090
3834,-0.140,-0.090
3835,-0.176,-0.090
3836,-0.212,-0.113
3837,-0.212,-0.113
3838,-0.176,-0.113
3839,-0.104,-0.113
3840,-0.033,-0.137
3841,0.037,-0.137
3842,0.181,-0.137
3843,0.360,-0.137
3844,0.573,-0.165
3845,0.788,-0.165
3846,1.037,-0.165
3847,1.252,-0.165
3848,1.432,-0.192
3849,1.537,-0.192
3850,1.537,-0.192
3851,1.432,-0.192
3852,1.217,-0.222
3853,0.967,-0.222
3854,0.681,-0.222
3855,0.467,-0.222
3856,0.288,-0.252
3857,0.181,-0.252
3858,0.109,-0.252
3859,0.037,-0.252
3860,0.003,-0.281
3861,-0.068,-0.281
3862,-0.068,-0.281
3863,-0.068,-0.281
3864,-0.033,-0.313
3865,-0.068,-0.313
3866,-0.068,-0.313
3867,-0.068,-0.313
3868,-0.033,-0.342
3869,-0.068,-0.342
3870,-0.068,-0.342
3871,-0.104,-0.342
3872,-0.140,-0.369
3873,-0.176,-0.369
3874,-0.140,-0.369
3875,-0.104,-0.369
3876,-0.104,-0.394
3877,-0.104,-0.394
3878,-0.104,-0.394
3879,-0.068,-0.394
3880,-0.104,-0.414
3881,-0.140,-0.414
3882,-0.212,-0.414
3883,-0.176,-0.414
3884,-0.176,-0.429
3885,-0.104,-0.429
3886,-0.104,-0.429
3887,-0.140,-0.429
3888,-0.104,-0.445
3889,-0.104,-0.445
3890,-0.104,-0.445
3891,-0.104,-0.445
3892,-0.068,-0.448
3893,-0.068,-0.448
3894,-0.104,-0.448
3895,-0.068,-0.448
3896,-0.068,-0.450
3897,-0.104,-0.450
3898,-0.104,-0.450
3899,-0.068,-0.450
3900,-0.068,-0.452
3901,-0.033,-0.452
3902,-0.033,-0.452
3903,0.003,-0.452
3904,-0.033,-0.447
3905,-0.068,-0.447
3906,-0.104,-0.447
3907,-0.104,-0.447
3908,-0.068,-0.441
3909,-0.068,-0.441
3910,-0.033,-0.441
3911,-0.033,-0.441
3912,-0.033,-0.431
3913,0.003,-0.431
3914,0.003,-0.431
3915,0.003,-0.431
3916,0.037,-0.424
3917,0.037,-0.424
3918,0.073,-0.424
3919,0.073,-0.424
3920,0.073,-0.412
3921,0.073,-0.412
3922,0.109,-0.412
3923,0.109,-0.412
3924,0.109,-0.402
3925,0.145,-0.402
3926,0.145,-0.402
3927,0.217,-0.402
3928,0.217,-0.390
3929,0.181,-0.390
3930,0.109,-0.390
3931,0.109,-0.390
3932,0.145,-0.379
3933,0.181,-0.379
3934,0.109,-0.379
3935,0.073,-0.379
3936,0.073,-0.365
3937,0.037,-0.365
3938,0.073,-0.365
3939,0.073,-0.365
3940,0.109,-0.354
3941,0.217,-0.354
3942,0.217,-0.354
3943,0.145,-0.354
3944,0.109,-0.342
3945,0.073,-0.342
3946,0.073,-0.342
3947,0.037,-0.342
3948,0.037,-0.332
3949,0.037,-0.332
3950,0.073,-0.332
3951,0.073,-0.332
3952,0.037,-0.317
3953,0.037,-0.317
3954,0.037,-0.317
3955,0.037,-0.317
3956,0.037,-0.305
3957,0.003,-0.305
3958,0.003,-0.305
3959,0.003,-0.305
3960,-0.033,-0.287
3961,0.003,-0.287
3962,0.003,-0.287
3963,-0.033,-0.287
3964,0.003,-0.268
3965,0.003,-0.268
3966,-0.033,-0.268
3967,-0.033,-0.268
3968,-0.068,-0.247
3969,-0.068,-0.247
3970,-0.033,-0.247
3971,-0.033,-0.247
3972,-0.068,-0.222
3973,-0.068,-0.222
3974,-0.104,-0.222
3975,-0.140,-0.222
3976,-0.104,-0.199
3977,-0.104,-0.199
3978,-0.033,-0.199
3979,0.003,-0.199
3980,0.037,-0.172
3981,0.037,-0.172
3982,0.003,-0.172
3983,-0.033,-0.172
3984,-0.068,-0.144
3985,-0.068,-0.144
3986,-0.068,-0.144
3987,-0.104,-0.144
3988,-0.104,-0.118
3989,-0.068,-0.118
3990,-0.104,-0.118
3991,-0.033,-0.118
3992,-0.033,-0.094
3993,0.003,-0.094
3994,0.003,-0.094
3995,0.003,-0.094
3996,-0.033,-0.075
3997,-0.033,-0.075
3998,0.003,-0.075
3999,0.003,-0.075
4000,-0.033,-0.058
4001,-0.068,-0.058
4002,-0.033,-0.058
4003,0.003,-0.058
4004,0.037,-0.042
4005,0.003,-0.042
4006,-0.033,-0.042
4007,-0.068,-0.042
4008,-0.033,-0.032
4009,0.003,-0.032
4010,0.003,-0.032
4011,0.003,-0.032
4012,0.073,-0.026
4013,0.037,-0.026
4014,0.037,-0.026
4015,0.037,-0.026
4016,0.037,-0.021
4017,0.037,-0.021
4018,0.003,-0.021
4019,0.003,-0.021
4020,0.073,-0.019
4021,0.003,-0.019
4022,0.003,-0.019
4023,0.003,-0.019
4024,0.003,-0.021
4025,0.003,-0.021
4026,0.003,-0.021
4027,0.003,-0.021
4028,-0.033,-0.026
4029,-0.068,-0.026
4030,-0.033,-0.026
4031,0.003,-0.026
4032,0.003,-0.030
4033,0.003,-0.030
4034,0.003,-0.030
4035,-0.033,-0.030
4036,-0.033,-0.034
4037,-0.033,-0.034
4038,0.003,-0.034
4039,0.003,-0.034
4040,0.003,-0.045
4041,-0.033,-0.045
4042,-0.068,-0.045
4043,-0.068,-0.045
4044,-0.104,-0.051
4045,-0.068,-0.051
4046,-0.068,-0.051
4047,-0.104,-0.051
4048,-0.104,-0.062
4049,-0.104,-0.062
4050,-0.104,-0.062
4051,-0.104,-0.062
4052,-0.104,-0.071
4053,-0.104,-0.071
4054,-0.104,-0.071
4055,-0.104,-0.071
4056,-0.104,-0.083
4057,-0.140,-0.083
4058,-0.140,-0.083
4059,-0.104,-0.083
4060,-0.104,-0.094
4061,-0.068,-0.094
4062,-0.068,-0.094
4063,-0.068,-0.094
4064,-0.068,-0.103
4065,-0.033,-0.103
4066,0.003,-0.103
4067,0.073,-0.103
4068,0.217,-0.115
4069,0.288,-0.115
4070,0.432,-0.115
4071,0.609,-0.115
4072,0.860,-0.124
4073,1.073,-0.124
4074,1.217,-0.124
4075,1.360,-0.124
4076,1.432,-0.132
4077,1.432,-0.132
4078,1.288,-0.132
4079,1.037,-0.132
4080,0.860,-0.139
4081,0.609,-0.139
4082,0.360,-0.139
4083,0.181,-0.139
4084,0.073,-0.141
4085,0.003,-0.141
4086,-0.033,-0.141
4087,-0.033,-0.141
4088,-0.068,-0.144
4089,-0.068,-0.144
4090,-0.104,-0.144
4091,-0.104,-0.144
4092,-0.104,-0.148
4093,-0.104,-0.148
4094,-0.068,-0.148
4095,-0.068,-0.148
4096,-0.068,-0.148
4097,-0.068,-0.148
4098,-0.104,-0.148
4099,-0.104,-0.148
4100,-0.104,-0.148
4101,-0.104,-0.148
4102,-0.140,-0.148
4103,-0.104,-0.148
4104,-0.104,-0.146
4105,-0.104,-0.146
4106,-0.104,-0.146
4107,-0.140,-0.146
4108,-0.176,-0.150
4109,-0.176,-0.150
4110,-0.140,-0.150
4111,-0.140,-0.150
4112,-0.140,-0.150
4113,-0.140,-0.150
4114,-0.104,-0.150
4115,-0.104,-0.150
4116,-0.140,-0.154
4117,-0.104,-0.154
4118,-0.140,-0.154
4119,-0.140,-0.154
4120,-0.140,-0.162
4121,-0.104,-0.162
4122,-0.068,-0.162
4123,-0.033,-0.162
4124,-0.033,-0.165
4125,-0.104,-0.165
4126,-0.140,-0.165
4127,-0.140,-0.165
4128,-0.140,-0.174
4129,-0.104,-0.174
4130,-0.104,-0.174
4131,-0.068,-0.174
4132,-0.068,-0.182
4133,-0.033,-0.182
4134,0.003,-0.182
4135,0.003,-0.182
4136,0.003,-0.192
4137,0.003,-0.192
4138,0.003,-0.192
4139,0.003,-0.192
4140,0.003,-0.203
4141,0.003,-0.203
4142,0.037,-0.203
4143,0.037,-0.203
4144,0.073,-0.210
4145,0.109,-0.210
4146,0.109,-0.210
4147,0.109,-0.210
4148,0.109,-0.217
4149,0.109,-0.217
4150,0.073,-0.217
4151,0.073,-0.217
4152,0.109,-0.227
4153,0.109,-0.227
4154,0.109,-0.227
4155,0.109,-0.227
4156,0.145,-0.231
4157,0.145,-0.231
4158,0.145,-0.231
4159,0.109,-0.231
4160,0.109,-0.238
4161,0.109,-0.238
4162,0.109,-0.238
4163,0.145,-0.238
4164,0.109,-0.238
4165,0.109,-0.238
4166,0.109,-0.238
4167,0.073,-0.238
4168,0.073,-0.242
4169,0.073,-0.242
4170,0.073,-0.242
4171,0.073,-0.242
4172,0.073,-0.240
4173,0.037,-0.240
4174,0.037,-0.240
4175,0.073,-0.240
4176,0.073,-0.236
4177,0.037,-0.236
4178,0.003,-0.236
4179,0.003,-0.236
4180,0.003,-0.229
4181,0.003,-0.229
4182,0.003,-0.229
4183,0.003,-0.229
4184,0.003,-0.215
4185,0.003,-0.215
4186,0.003,-0.215
4187,0.003,-0.215
4188,0.003,-0.203
4189,-0.033,-0.203
4190,-0.033,-0.203
4191,-0.068,-0.203
4192,-0.068,-0.182
4193,-0.068,-0.182
4194,-0.068,-0.182
4195,-0.104,-0.182
4196,-0.068,-0.158
4197,-0.068,-0.158
4198,-0.068,-0.158
4199,-0.068,-0.158
4200,-0.068,-0.132
4201,-0.033,-0.132
4202,0.003,-0.132
4203,-0.033,-0.132
4204,-0.033,-0.102
4205,-0.068,-0.102
4206,-0.068,-0.102
4207,-0.068,-0.102
4208,-0.104,-0.071
4209,-0.104,-0.071
4210,-0.068,-0.071
4211,-0.104,-0.071
4212,-0.104,-0.042
4213,-0.104,-0.042
4214,-0.104,-0.042
4215,-0.104,-0.042
4216,-0.068,-0.011
4217,-0.033,-0.011
4218,-0.068,-0.011
4219,-0.068,-0.011
4220,-0.104,0.018
4221,-0.104,0.018
4222,-0.068,0.018
4223,-0.068,0.018
4224,-0.068,0.045
4225,-0.068,0.045
4226,-0.068,0.045
4227,-0.068,0.045
4228,-0.068,0.070
4229,-0.033,0.070
4230,0.003,0.070
4231,0.003,0.070
4232,0.003,0.086
4233,0.003,0.086
4234,0.003,0.086
4235,-0.033,0.086
4236,-0.033,0.107
4237,-0.033,0.107
4238,0.003,0.107
4239,0.003,0.107
4240,0.003,0.116
4241,0.003,0.116
4242,0.037,0.116
4243,0.003,0.116
4244,0.003,0.128
4245,0.037,0.128
4246,0.003,0.128
4247,0.003,0.128
4248,0.003,0.135
4249,0.003,0.135
4250,-0.033,0.135
4251,-0.033,0.135
4252,-0.033,0.139
4253,-0.033,0.139
4254,-0.033,0.139
4255,-0.033,0.139
4256,-0.033,0.139
4257,0.003,0.139
4258,0.003,0.139
4259,0.003,0.139
4260,-0.033,0.137
4261,-0.068,0.137
4262,-0.068,0.137
4263,-0.068,0.137
4264,-0.104,0.135
4265,-0.104,0.135
4266,-0.104,0.135
4267,-0.104,0.135
4268,-0.104,0.130
4269,-0.140,0.130
4270,-0.104,0.130
4271,-0.140,0.130
4272,-0.140,0.126
4273,-0.104,0.126
4274,-0.104,0.126
4275,-0.104,0.126
4276,-0.104,0.120
4277,-0.104,0.120
4278,-0.104,0.120
4279,-0.104,0.120
4280,-0.104,0.113
4281,-0.140,0.113
4282,-0.176,0.113
4283,-0.140,0.113
4284,-0.140,0.107
4285,-0.140,0.107
4286,-0.176,0.107
4287,-0.176,0.107
4288,-0.176,0.101
4289,-0.176,0.101
4290,-0.140,0.101
4291,-0.104,0.101
4292,-0.068,0.093
4293,0.003,0.093
4294,0.109,0.093
4295,0.252,0.093
4296,0.467,0.153
4297,0.645,0.153
4298,0.788,0.153
4299,0.967,0.153
4300,1.109,0.148
4301,1.252,0.148
4302,1.324,0.148
4303,1.217,0.148
4304,1.003,0.142
4305,0.788,0.142
4306,0.537,0.142
4307,0.324,0.142
4308,0.181,0.135
4309,0.073,0.135
4310,0.003,0.135
4311,0.003,0.135
4312,-0.033,0.129
4313,-0.104,0.129
4314,-0.176,0.129
4315,-0.212,0.129
4316,-0.176,0.118
4317,-0.140,0.118
4318,-0.104,0.118
4319,-0.104,0.118
4320,-0.104,0.108
4321,-0.140,0.108
4322,-0.140,0.108
4323,-0.176,0.108
4324,-0.176,0.093
4325,-0.212,0.093
4326,-0.176,0.093
4327,-0.140,0.093
4328,-0.140,0.079
4329,-0.176,0.079
4330,-0.212,0.079
4331,-0.212,0.079
4332,-0.212,0.061
4333,-0.212,0.061
4334,-0.212,0.061
4335,-0.176,0.061
4336,-0.212,0.046
4337,-0.212,0.046
4338,-0.212,0.046
4339,-0.212,0.046
4340,-0.176,0.028
4341,-0.176,0.028
4342,-0.140,0.028
4343,-0.140,0.028
4344,-0.140,0.013
4345,-0.140,0.013
4346,-0.140,0.013
4347,-0.104,0.013
4348,-0.104,-0.002
4349,-0.140,-0.002
4350,-0.140,-0.002
4351,-0.104,-0.002
4352,-0.104,-0.011
4353,-0.104,-0.011
4354,-0.104,-0.011
4355,-0.104,-0.011
4356,-0.104,-0.022
4357,-0.104,-0.022
4358,-0.068,-0.022
4359,-0.068,-0.022
4360,-0.104,-0.029
4361,-0.104,-0.029
4362,-0.068,-0.029
4363,-0.068,-0.029
4364,-0.033,-0.036
4365,-0.033,-0.036
4366,-0.033,-0.036
4367,0.003,-0.036
4368,0.003,-0.040
4369,0.003,-0.040
4370,0.073,-0.040
4371,0.073,-0.040
4372,0.073,-0.045
4373,0.037,-0.045
4374,0.003,-0.045
4375,0.003,-0.045
4376,0.003,-0.049
4377,0.003,-0.049
4378,0.037,-0.049
4379,0.073,-0.049
4380,0.109,-0.052
4381,0.109,-0.052
4382,0.145,-0.052
4383,0.145,-0.052
4384,0.145,-0.057
4385,0.073,-0.057
4386,0.003,-0.057
4387,0.003,-0.057
4388,0.003,-0.060
4389,0.003,-0.060
4390,0.037,-0.060
4391,0.003,-0.060
4392,0.037,-0.064
4393,0.037,-0.064
4394,0.037,-0.064
4395,0.037,-0.064
4396,0.073,-0.068
4397,0.037,-0.068
4398,0.037,-0.068
4399,0.037,-0.068
4400,0.037,-0.071
4401,0.003,-0.071
4402,0.003,-0.071
4403,0.003,-0.071
4404,0.003,-0.070
4405,0.003,-0.070
4406,-0.033,-0.070
4407,-0.068,-0.070
4408,-0.068,-0.066
4409,-0.068,-0.066
4410,-0.068,-0.066
4411,-0.104,-0.066
4412,-0.104,-0.059
4413,-0.068,-0.059
4414,-0.068,-0.059
4415,-0.068,-0.059
4416,-0.068,-0.051
4417,-0.068,-0.051
4418,-0.068,-0.051
4419,-0.068,-0.051
4420,-0.104,-0.034
4421,-0.104,-0.034
4422,-0.104,-0.034
4423,-0.104,-0.034
4424,-0.104,-0.015
4425,-0.104,-0.015
4426,-0.104,-0.015
4427,-0.068,-0.015
4428,-0.033,0.007
4429,-0.104,0.007
4430,-0.104,0.007
4431,-0.104,0.007
4432,-0.104,0.028
4433,-0.068,0.028
4434,-0.104,0.028
4435,-0.104,0.028
4436,-0.104,0.052
4437,-0.104,0.052
4438,-0.104,0.052
4439,-0.104,0.052
4440,-0.104,0.075
4441,-0.104,0.075
4442,-0.104,0.075
4443,-0.104,0.075
4444,-0.104,0.098
4445,-0.104,0.098
4446,-0.104,0.098
4447,-0.104,0.098
4448,-0.104,0.116
4449,-0.104,0.116
4450,-0.104,0.116
4451,-0.068,0.116
4452,-0.033,0.131
4453,-0.033,0.131
4454,-0.033,0.131
4455,-0.033,0.131
4456,0.003,0.144
4457,0.003,0.144
4458,0.037,0.144
4459,0.003,0.144
4460,0.003,0.158
4461,0.003,0.158
4462,0.003,0.158
4463,0.003,0.158
4464,0.003,0.169
4465,0.003,0.169
4466,-0.033,0.169
4467,0.003,0.169
4468,0.003,0.178
4469,0.003,0.178
4470,0.003,0.178
4471,0.003,0.178
4472,0.003,0.183
4473,-0.033,0.183
4474,-0.033,0.183
4475,-0.033,0.183
4476,-0.033,0.191
4477,-0.068,0.191
4478,-0.033,0.191
4479,-0.033,0.191
4480,-0.033,0.199
4481,-0.033,0.199
4482,-0.033,0.199
4483,-0.068,0.199
4484,-0.068,0.201
4485,-0.033,0.201
4486,-0.068,0.201
4487,-0.068,0.201
4488,-0.104,0.204
4489,-0.140,0.204
4490,-0.104,0.204
4491,-0.140,0.204
4492,-0.140,0.204
4493,-0.140,0.204
4494,-0.140,0.204
4495,-0.140,0.204
4496,-0.140,0.204
4497,-0.140,0.204
4498,-0.104,0.204
4499,-0.104,0.204
4500,-0.104,0.201
4501,-0.140,0.201
4502,-0.140,0.201
4503,-0.140,0.201
4504,-0.104,0.197
4505,-0.140,0.197
4506,-0.140,0.197
4507,-0.176,0.197
4508,-0.176,0.191
4509,-0.176,0.191
4510,-0.176,0.191
4511,-0.176,0.191
4512,-0.176,0.188
4513,-0.176,0.188
4514,-0.140,0.188
4515,-0.140,0.188
4516,-0.140,0.180
4517,-0.068,0.180
4518,0.003,0.180
4519,0.109,0.180
4520,0.252,0.178
4521,0.467,0.178
4522,0.681,0.178
4523,0.896,0.178
4524,1.109,0.172
4525,1.252,0.172
4526,1.396,0.172
4527,1.432,0.172
4528,1.360,0.167
4529,1.109,0.167
4530,0.860,0.167
4531,0.609,0.167
4532,0.396,0.169
4533,0.217,0.169
4534,0.073,0.169
4535,0.003,0.169
4536,-0.033,0.165
4537,-0.068,0.165
4538,-0.104,0.165
4539,-0.104,0.165
4540,-0.104,0.165
4541,-0.140,0.165
4542,-0.104,0.165
4543,-0.140,0.165
4544,-0.140,0.163
4545,-0.140,0.163
4546,-0.140,0.163
4547,-0.140,0.163
4548,-0.176,0.163
4549,-0.176,0.163
4550,-0.176,0.163
4551,-0.176,0.163
4552,-0.176,0.150
4553,-0.176,0.150
4554,-0.176,0.150
4555,-0.176,0.150
4556,-0.176,0.148
4557,-0.212,0.148
4558,-0.176,0.148
4559,-0.176,0.148
4560,-0.140,0.146
4561,-0.176,0.146
4562,-0.176,0.146
4563,-0.140,0.146
4564,-0.140,0.144
4565,-0.140,0.144
4566,-0.140,0.144
4567,-0.176,0.144
4568,-0.176,0.139
4569,-0.176,0.139
4570,-0.176,0.139
4571,-0.176,0.139
4572,-0.176,0.137
4573,-0.140,0.137
4574,-0.104,0.137
4575,-0.104,0.137
4576,-0.104,0.131
4577,-0.104,0.131
4578,-0.104,0.131
4579,-0.176,0.131
4580,-0.212,0.128
4581,-0.176,0.128
4582,-0.140,0.128
4583,-0.068,0.128
4584,-0.033,0.122
4585,-0.068,0.122
4586,-0.104,0.122
4587,-0.104,0.122
4588,-0.104,0.116
4589,-0.104,0.116
4590,-0.104,0.116
4591,-0.068,0.116
4592,-0.033,0.108
4593,0.003,0.108
4594,0.003,0.108
4595,0.003,0.108
4596,0.003,0.098
4597,0.003,0.098
4598,0.037,0.098
4599,0.037,0.098
4600,0.037,0.083
4601,0.037,0.083
4602,0.037,0.083
4603,0.037,0.083
4604,0.037,0.070
4605,0.073,0.070
4606,0.037,0.070
4607,0.037,0.070
4608,0.003,0.052
4609,0.003,0.052
4610,0.073,0.052
4611,0.073,0.052
4612,0.109,0.034
4613,0.145,0.034
4614,0.145,0.034
4615,0.073,0.034
4616,0.109,0.015
4617,0.109,0.015
4618,0.109,0.015
4619,0.073,0.015
4620,0.037,-0.002
4621,0.003,-0.002
4622,0.003,-0.002
4623,0.003,-0.002
4624,0.003,-0.015
4625,0.003,-0.015
4626,0.003,-0.015
4627,0.003,-0.015
4628,0.003,-0.022
4629,0.003,-0.022
4630,0.003,-0.022
4631,0.003,-0.022
4632,-0.033,-0.026
4633,-0.033,-0.026
4634,-0.033,-0.026
4635,-0.033,-0.026
4636,-0.033,-0.026
4637,-0.033,-0.026
4638,-0.033,-0.026
4639,-0.033,-0.026
4640,-0.033,-0.017
4641,-0.033,-0.017
4642,-0.033,-0.017
4643,-0.068,-0.017
4644,-0.104,-0.005
4645,-0.140,-0.005
4646,-0.104,-0.005
4647,-0.033,-0.005
4648,0.003,0.009
4649,0.003,0.009
4650,-0.033,0.009
4651,-0.068,0.009
4652,-0.104,0.028
4653,-0.104,0.028
4654,-0.104,0.028
4655,-0.104,0.028
4656,-0.068,0.045
4657,-0.033,0.045
4658,-0.068,0.045
4659,-0.068,0.045
4660,-0.068,0.062
4661,-0.068,0.062
4662,-0.068,0.062
4663,-0.068,0.062
4664,-0.068,0.075
4665,-0.068,0.075
4666,-0.033,0.075
4667,-0.033,0.075
4668,-0.033,0.086
4669,-0.033,0.086
4670,-0.033,0.086
4671,-0.033,0.086
4672,-0.068,0.092
4673,-0.104,0.092
4674,-0.068,0.092
4675,-0.033,0.092
4676,0.003,0.098
4677,0.003,0.098
4678,0.003,0.098
4679,0.003,0.098
4680,0.037,0.098
4681,0.037,0.098
4682,0.037,0.098
4683,0.037,0.098
4684,0.037,0.092
4685,0.037,0.092
4686,0.037,0.092
4687,0.003,0.092
4688,0.003,0.088
4689,0.037,0.088
4690,0.037,0.088
4691,0.003,0.088
4692,0.003,0.081
4693,0.003,0.081
4694,-0.033,0.081
4695,0.003,0.081
4696,0.003,0.073
4697,-0.033,0.073
4698,0.003,0.073
4699,0.037,0.073
4700,0.037,0.066
4701,0.037,0.066
4702,0.003,0.066
4703,0.003,0.066
4704,-0.033,0.056
4705,-0.033,0.056
4706,0.003,0.056
4707,0.003,0.056
4708,-0.033,0.045
4709,-0.068,0.045
4710,-0.104,0.045
4711,-0.104,0.045
4712,-0.104,0.030
4713,-0.104,0.030
4714,-0.104,0.030
4715,-0.104,0.030
4716,-0.104,0.017
4717,-0.104,0.017
4718,-0.104,0.017
4719,-0.104,0.017
4720,-0.104,0.002
4721,-0.104,0.002
4722,-0.104,0.002
4723,-0.104,0.002
4724,-0.104,-0.015
4725,-0.140,-0.015
4726,-0.140,-0.015
4727,-0.104,-0.015
4728,-0.068,-0.032
4729,-0.104,-0.032
4730,-0.140,-0.032
4731,-0.140,-0.032
4732,-0.104,-0.051
4733,-0.104,-0.051
4734,-0.104,-0.051
4735,-0.104,-0.051
4736,-0.104,-0.071
4737,-0.140,-0.071
4738,-0.140,-0.071
4739,-0.140,-0.071
4740,-0.140,-0.088
4741,-0.104,-0.088
4742,-0.033,-0.088
4743,0.037,-0.088
4744,0.145,-0.105
4745,0.288,-0.105
4746,0.467,-0.105
4747,0.681,-0.105
4748,0.896,-0.120
4749,1.145,-0.120
4750,1.324,-0.120
4751,1.467,-0.120
4752,1.537,-0.130
4753,1.503,-0.130
4754,1.324,-0.130
4755,1.073,-0.130
4756,0.860,-0.137
4757,0.573,-0.137
4758,0.396,-0.137
4759,0.217,-0.137
4760,0.109,-0.144
4761,0.037,-0.144
4762,0.003,-0.144
4763,0.003,-0.144
4764,-0.068,-0.148
4765,-0.068,-0.148
4766,-0.068,-0.148
4767,-0.033,-0.148
4768,-0.033,-0.152
4769,-0.033,-0.152
4770,-0.068,-0.152
4771,-0.104,-0.152
4772,-0.104,-0.154
4773,-0.104,-0.154
4774,-0.104,-0.154
4775,-0.104,-0.154
4776,-0.104,-0.154
4777,-0.140,-0.154
4778,-0.140,-0.154
4779,-0.176,-0.154
4780,-0.176,-0.150
4781,-0.176,-0.150
4782,-0.140,-0.150
4783,-0.104,-0.150
4784,-0.104,-0.150
4785,-0.068,-0.150
4786,-0.104,-0.150
4787,-0.104,-0.150
4788,-0.104,-0.148
4789,-0.104,-0.148
4790,-0.104,-0.148
4791,-0.068,-0.148
4792,-0.068,-0.146
4793,-0.068,-0.146
4794,-0.068,-0.146
4795,-0.068,-0.146
4796,-0.033,-0.146
4797,-0.033,-0.146
4798,-0.068,-0.146
4799,-0.068,-0.146
4800,-0.068,-0.146
4801,-0.068,-0.146
4802,-0.033,-0.146
4803,0.003,-0.146
4804,0.003,-0.150
4805,-0.033,-0.150
4806,-0.033,-0.150
4807,-0.033,-0.150
4808,-0.033,-0.180
4809,0.003,-0.180
4810,0.003,-0.180
4811,0.003,-0.180
4812,0.037,-0.184
4813,0.037,-0.184
4814,0.003,-0.184
4815,0.037,-0.184
4816,0.003,-0.185
4817,0.003,-0.185
4818,0.037,-0.185
4819,0.037,-0.185
4820,0.037,-0.190
4821,0.073,-0.190
4822,0.073,-0.190
4823,0.073,-0.190
4824,0.109,-0.193
4825,0.145,-0.193
4826,0.145,-0.193
4827,0.181,-0.193
4828,0.181,-0.195
4829,0.181,-0.195
4830,0.181,-0.195
4831,0.217,-0.195
4832,0.181,-0.197
4833,0.145,-0.197
4834,0.181,-0.197
4835,0.181,-0.197
4836,0.145,-0.199
4837,0.145,-0.199
4838,0.109,-0.199
4839,0.109,-0.199
4840,0.109,-0.201
4841,0.145,-0.201
4842,0.109,-0.201
4843,0.145,-0.201
4844,0.109,-0.203
4845,0.109,-0.203
4846,0.073,-0.203
4847,0.073,-0.203
4848,0.073,-0.203
4849,0.109,-0.203
4850,0.181,-0.203
4851,0.181,-0.203
4852,0.145,-0.203
4853,0.073,-0.203
4854,0.037,-0.203
4855,0.037,-0.203
4856,0.003,-0.201
4857,0.003,-0.201
4858,0.003,-0.201
4859,0.003,-0.201
4860,0.003,-0.199
4861,0.003,-0.199
4862,0.003,-0.199
4863,0.003,-0.199
4864,-0.033,-0.195
4865,0.003,-0.195
4866,-0.033,-0.195
4867,-0.033,-0.195
4868,-0.033,-0.188
4869,-0.033,-0.188
4870,0.003,-0.188
4871,0.003,-0.188
4872,0.003,-0.176
4873,0.003,-0.176
4874,-0.033,-0.176
4875,-0.033,-0.176
4876,-0.033,-0.165
4877,-0.033,-0.165
4878,-0.033,-0.165
4879,0.003,-0.165
4880,0.003,-0.148
4881,0.003,-0.148
4882,0.003,-0.148
4883,0.003,-0.148
4884,-0.033,-0.135
4885,-0.033,-0.135
4886,-0.068,-0.135
4887,-0.068,-0.135
4888,-0.068,-0.118
4889,-0.068,-0.118
4890,-0.068,-0.118
4891,-0.068,-0.118
4892,-0.068,-0.103
4893,-0.068,-0.103
4894,-0.033,-0.103
4895,0.003,-0.103
4896,0.003,-0.090
4897,0.003,-0.090
4898,0.003,-0.090
4899,0.003,-0.090
4900,-0.033,-0.081
4901,0.003,-0.081
4902,0.003,-0.081
4903,0.003,-0.081
4904,0.003,-0.073
4905,0.003,-0.073
4906,0.003,-0.073
4907,0.003,-0.073
4908,0.073,-0.071
4909,0.037,-0.071
4910,0.003,-0.071
4911,-0.033,-0.071
4912,-0.033,-0.068
4913,-0.033,-0.068
4914,-0.033,-0.068
4915,0.003,-0.068
4916,0.003,-0.070
4917,0.003,-0.070
4918,0.003,-0.070
4919,0.003,-0.070
4920,0.003,-0.073
4921,0.003,-0.073
4922,0.003,-0.073
4923,0.003,-0.073
4924,0.003,-0.077
4925,0.003,-0.077
4926,0.003,-0.077
4927,-0.033,-0.077
4928,-0.033,-0.083
4929,-0.033,-0.083
4930,-0.033,-0.083
4931,-0.033,-0.083
4932,-0.033,-0.088
4933,-0.068,-0.088
4934,-0.068,-0.088
4935,-0.068,-0.088
4936,-0.068,-0.094
4937,-0.033,-0.094
4938,-0.033,-0.094
4939,-0.033,-0.094
4940,-0.033,-0.100
4941,-0.068,-0.100
4942,-0.104,-0.100
4943,-0.104,-0.100
4944,-0.104,-0.103
4945,-0.140,-0.103
4946,-0.104,-0.103
4947,-0.104,-0.103
4948,-0.104,-0.111
4949,-0.104,-0.111
4950,-0.104,-0.111
4951,-0.104,-0.111
4952,-0.104,-0.115
4953,-0.104,-0.115
4954,-0.140,-0.115
4955,-0.140,-0.115
4956,-0.140,-0.120
4957,-0.140,-0.120
4958,-0.104,-0.120
4959,-0.140,-0.120
4960,-0.140,-0.126
4961,-0.140,-0.126
4962,-0.140,-0.126
4963,-0.140,-0.126
4964,-0.140,-0.130
4965,-0.140,-0.130
4966,-0.176,-0.130
4967,-0.140,-0.130
4968,-0.104,-0.137
4969,-0.033,-0.137
4970,0.003,-0.137
4971,0.145,-0.137
4972,0.324,-0.142
4973,0.432,-0.142
4974,0.609,-0.142
4975,0.824,-0.142
4976,1.003,-0.146
4977,1.181,-0.146
4978,1.288,-0.146
4979,1.324,-0.146
4980,1.288,-0.148
4981,1.145,-0.148
4982,0.932,-0.148
4983,0.752,-0.148
4984,0.503,-0.148
4985,0.288,-0.148
4986,0.109,-0.148
4987,0.003,-0.148
4988,-0.033,-0.148
4989,-0.068,-0.148
4990,-0.068,-0.148
4991,-0.104,-0.148
4992,-0.104,-0.146
4993,-0.140,-0.146
4994,-0.140,-0.146
4995,-0.140,-0.146
4996,-0.140,-0.142
4997,-0.104,-0.142
4998,-0.140,-0.142
4999,-0.140,-0.142
5000,-0.140,-0.137
5001,-0.140,-0.137
5002,-0.140,-0.137
5003,-0.140,-0.137
5004,-0.140,-0.132
5005,-0.140,-0.132
5006,-0.140,-0.132
5007,-0.140,-0.132
5008,-0.140,-0.130
5009,-0.140,-0.130
5010,-0.140,-0.130
5011,-0.140,-0.130
5012,-0.140,-0.128
5013,-0.140,-0.128
5014,-0.140,-0.128
5015,-0.140,-0.128
5016,-0.140,-0.126
5017,-0.140,-0.126
5018,-0.140,-0.126
5019,-0.104,-0.126
5020,-0.140,-0.128
5021,-0.104,-0.128
5022,-0.104,-0.128
5023,-0.104,-0.128
5024,-0.104,-0.128
5025,-0.104,-0.128
5026,-0.104,-0.128
5027,-0.104,-0.128
5028,-0.033,-0.128
5029,-0.033,-0.128
5030,-0.033,-0.128
5031,-0.033,-0.128
5032,-0.033,-0.133
5033,-0.068,-0.133
5034,-0.068,-0.133
5035,-0.068,-0.133
5036,-0.068,-0.135
5037,-0.068,-0.135
5038,-0.033,-0.135
5039,-0.033,-0.135
5040,-0.033,-0.141
5041,-0.033,-0.141
5042,0.003,-0.141
5043,0.003,-0.141
5044,0.003,-0.146
5045,0.003,-0.146
5046,0.003,-0.146
5047,-0.033,-0.146
5048,0.003,-0.152
5049,0.003,-0.152
5050,0.003,-0.152
5051,0.037,-0.152
5052,0.037,-0.162
5053,0.037,-0.162
5054,0.073,-0.162
5055,0.073,-0.162
5056,0.073,-0.169
5057,0.073,-0.169
5058,0.073,-0.169
5059,0.073,-0.169
5060,0.109,-0.178
5061,0.073,-0.178
5062,0.073,-0.178
5063,0.073,-0.178
5064,0.073,-0.185
5065,0.073,-0.185
5066,0.073,-0.185
5067,0.073,-0.185
5068,0.073,-0.193
5069,0.037,-0.193
5070,0.037,-0.193
5071,0.037,-0.193
5072,0.037,-0.201
5073,0.037,-0.201
5074,0.037,-0.201
5075,0.037,-0.201
5076,0.003,-0.201
5077,0.003,-0.201
5078,0.003,-0.201
5079,0.003,-0.201
5080,0.003,-0.197
5081,0.003,-0.197
5082,0.003,-0.197
5083,0.003,-0.197
5084,0.003,-0.193
5085,0.003,-0.193
5086,-0.033,-0.193
5087,-0.033,-0.193
5088,0.003,-0.180
5089,-0.033,-0.180
5090,-0.033,-0.180
5091,-0.033,-0.180
5092,-0.033,-0.165
5093,-0.033,-0.165
5094,-0.033,-0.165
5095,-0.068,-0.165
5096,-0.068,-0.146
5097,-0.068,-0.146
5098,-0.068,-0.146
5099,-0.068,-0.146
5100,-0.068,-0.122
5101,-0.104,-0.122
5102,-0.068,-0.122
5103,-0.068,-0.122
5104,-0.068,-0.098
5105,-0.104,-0.098
5106,-0.104,-0.098
5107,-0.104,-0.098
5108,-0.104,-0.071
5109,-0.104,-0.071
5110,-0.104,-0.071
5111,-0.104,-0.071
5112,-0.104,-0.045
5113,-0.104,-0.045
5114,-0.104,-0.045
5115,-0.104,-0.045
5116,-0.068,-0.019
5117,-0.104,-0.019
5118,-0.068,-0.019
5119,-0.068,-0.019
5120,-0.104,0.007
5121,-0.104,0.007
5122,-0.104,0.007
5123,-0.068,0.007
5124,-0.068,0.028
5125,-0.068,0.028
5126,-0.068,0.028
5127,-0.068,0.028
5128,-0.068,0.045
5129,-0.033,0.045
5130,-0.033,0.045
5131,0.003,0.045
5132,0.003,0.062
5133,0.003,0.062
5134,0.003,0.062
5135,0.003,0.062
5136,0.003,0.073
5137,0.003,0.073
5138,0.003,0.073
5139,0.003,0.073
5140,0.003,0.079
5141,0.003,0.079
5142,0.003,0.079
5143,0.003,0.079
5144,0.003,0.086
5145,0.003,0.086
5146,0.003,0.086
5147,0.003,0.086
5148,0.003,0.086
5149,0.003,0.086
5150,0.003,0.086
5151,0.003,0.086
5152,0.003,0.088
5153,0.003,0.088
5154,-0.033,0.088
5155,-0.033,0.088
5156,-0.033,0.086
5157,-0.033,0.086
5158,-0.033,0.086
5159,-0.068,0.086
5160,-0.068,0.079
5161,-0.068,0.079
5162,-0.068,0.079
5163,-0.068,0.079
5164,-0.104,0.070
5165,-0.104,0.070
5166,-0.104,0.070
5167,-0.104,0.070
5168,-0.104,0.062
5169,-0.140,0.062
5170,-0.140,0.062
5171,-0.140,0.062
5172,-0.140,0.051
5173,-0.140,0.051
5174,-0.140,0.051
5175,-0.140,0.051
5176,-0.140,0.043
5177,-0.176,0.043
5178,-0.140,0.043
5179,-0.140,0.043
5180,-0.140,0.035
5181,-0.140,0.035
5182,-0.140,0.035
5183,-0.140,0.035
5184,-0.140,0.030
5185,-0.140,0.030
5186,-0.140,0.030
5187,-0.176,0.030
5188,-0.212,0.026
5189,-0.212,0.026
5190,-0.212,0.026
5191,-0.212,0.026
5192,-0.176,0.022
5193,-0.104,0.022
5194,-0.068,0.022
5195,0.037,0.022
5196,0.145,0.022
5197,0.324,0.022
5198,0.537,0.022
5199,0.752,0.022
5200,0.967,0.021
5201,1.145,0.021
5202,1.288,0.021
5203,1.360,0.021
5204,1.360,0.018
5205,1.217,0.018
5206,0.967,0.018
5207,0.717,0.018
5208,0.467,0.017
5209,0.288,0.017
5210,0.145,0.017
5211,0.037,0.017
5212,0.003,0.013
5213,-0.033,0.013
5214,-0.033,0.013
5215,-0.104,0.013
5216,-0.104,0.004
5217,-0.140,0.004
5218,-0.140,0.004
5219,-0.140,0.004
5220,-0.140,-0.004
5221,-0.140,-0.004
5222,-0.176,-0.004
5223,-0.176,-0.004
5224,-0.176,-0.011
5225,-0.212,-0.011
5226,-0.212,-0.011
5227,-0.212,-0.011
5228,-0.212,-0.021
5229,-0.212,-0.021
5230,-0.212,-0.021
5231,-0.212,-0.021
5232,-0.212,-0.032
5233,-0.212,-0.032
5234,-0.212,-0.032
5235,-0.212,-0.032
5236,-0.212,-0.042
5237,-0.212,-0.042
5238,-0.212,-0.042
5239,-0.176,-0.042
5240,-0.176,-0.045
5241,-0.176,-0.045
5242,-0.176,-0.045
5243,-0.176,-0.045
5244,-0.140,-0.049
5245,-0.176,-0.049
5246,-0.140,-0.049
5247,-0.140,-0.049
5248,-0.140,-0.052
5249,-0.140,-0.052
5250,-0.140,-0.052
5251,-0.140,-0.052
5252,-0.140,-0.057
5253,-0.140,-0.057
5254,-0.104,-0.057
5255,-0.104,-0.057
5256,-0.104,-0.058
5257,-0.104,-0.058
5258,-0.104,-0.058
5259,-0.104,-0.058
5260,-0.104,-0.062
5261,-0.104,-0.062
5262,-0.068,-0.062
5263,-0.068,-0.062
5264,-0.068,-0.066
5265,-0.033,-0.066
5266,-0.033,-0.066
5267,-0.033,-0.066
5268,-0.033,-0.071
5269,0.003,-0.071
5270,0.003,-0.071
5271,0.003,-0.071
5272,0.003,-0.079
5273,0.003,-0.079
5274,0.003,-0.079
5275,0.003,-0.079
5276,0.003,-0.086
5277,0.003,-0.086
5278,0.003,-0.086
5279,0.037,-0.086
5280,0.073,-0.094
5281,0.073,-0.094
5282,0.073,-0.094
5283,0.073,-0.094
5284,0.073,-0.103
5285,0.073,-0.103
5286,0.073,-0.103
5287,0.073,-0.103
5288,0.073,-0.105
5289,0.073,-0.105
5290,0.073,-0.105
5291,0.037,-0.105
5292,0.037,-0.107
5293,0.037,-0.107
5294,0.037,-0.107
5295,0.037,-0.107
5296,0.037,-0.103
5297,0.037,-0.103
5298,0.003,-0.103
5299,0.003,-0.103
5300,0.003,-0.096
5301,0.003,-0.096
5302,0.003,-0.096
5303,0.003,-0.096
5304,0.003,-0.077
5305,0.003,-0.077
5306,-0.033,-0.077
5307,-0.033,-0.077
5308,-0.033,-0.058
5309,-0.033,-0.058
5310,-0.033,-0.058
5311,-0.033,-0.058
5312,-0.033,-0.032
5313,-0.033,-0.032
5314,-0.033,-0.032
5315,-0.068,-0.032
5316,-0.068,0.000
5317,-0.068,0.000
5318,-0.104,0.000
5319,-0.104,0.000
5320,-0.068,0.180
5321,-0.104,0.180
5322,-0.104,0.180
5323,-0.104,0.180
5324,-0.068,0.324
5325,-0.068,0.324
5326,-0.068,0.324
5327,-0.104,0.324
5328,-0.104,0.468
5329,-0.104,0.468
5330,-0.104,0.468
5331,-0.104,0.468
5332,-0.104,0.620
5333,-0.104,0.620
5334,-0.068,0.620
5335,-0.104,0.620
5336,-0.104,0.756
5337,-0.104,0.756
5338,-0.104,0.756
5339,-0.104,0.756
5340,-0.104,0.865
5341,-0.068,0.865
5342,-0.104,0.865
5343,-0.068,0.865
5344,-0.068,0.965
5345,-0.068,0.965
5346,-0.068,0.965
5347,-0.068,0.965
5348,-0.068,1.024
5349,-0.068,1.024
5350,-0.068,1.024
5351,-0.068,1.024
5352,-0.068,1.024
5353,-0.033,1.024
5354,-0.033,1.024
5355,-0.033,1.024
5356,-0.033,1.024
5357,0.003,1.024
5358,0.003,1.024
5359,0.003,1.024
5360,0.003,1.024
5361,0.003,1.024
5362,0.003,1.024
5363,-0.033,1.024
5364,-0.033,1.024
5365,-0.033,1.024
5366,0.003,1.024
5367,0.003,1.024
5368,0.003,1.024
5369,0.003,1.024
5370,0.003,1.024
5371,0.003,1.024
5372,0.003,1.024
5373,0.003,1.024
5374,0.003,1.024
5375,0.003,1.024
5376,0.003,1.024
5377,0.003,1.024
5378,-0.033,1.024
5379,-0.033,1.024
5380,-0.033,1.008
5381,-0.033,1.008
5382,-0.033,1.008
5383,-0.068,1.008
5384,-0.068,0.951
5385,-0.068,0.951
5386,-0.068,0.951
5387,-0.068,0.951
5388,-0.104,0.886
5389,-0.104,0.886
5390,-0.104,0.886
5391,-0.104,0.886
5392,-0.140,0.814
5393,-0.140,0.814
5394,-0.140,0.814
5395,-0.140,0.814
5396,-0.140,0.735
5397,-0.140,0.735
5398,-0.140,0.735
5399,-0.140,0.735
5400,-0.140,0.655
5401,-0.140,0.655
5402,-0.140,0.655
5403,-0.140,0.655
5404,-0.140,0.584
5405,-0.140,0.584
5406,-0.140,0.584
5407,-0.140,0.584
5408,-0.140,0.511
5409,-0.140,0.511
5410,-0.140,0.511
5411,-0.140,0.511
5412,-0.176,0.440
5413,-0.176,0.440
5414,-0.212,0.440
5415,-0.212,0.440
5416,-0.212,0.374
5417,-0.176,0.374
5418,-0.140,0.374
5419,-0.104,0.374
5420,0.003,0.309
5421,0.073,0.309
5422,0.217,0.309
5423,0.432,0.309
5424,0.645,0.260
5425,0.896,0.260
5426,1.109,0.260
5427,1.288,0.260
5428,1.396,0.224
5429,1.432,0.224
5430,1.360,0.224
5431,1.145,0.224
5432,0.932,0.180
5433,0.645,0.180
5434,0.396,0.180
5435,0.252,0.180
5436,0.109,0.151
5437,0.003,0.151
5438,0.003,0.151
5439,-0.033,0.151
5440,-0.068,0.122
5441,-0.104,0.122
5442,-0.104,0.122
5443,-0.104,0.122
5444,-0.104,0.093
5445,-0.104,0.093
5446,-0.140,0.093
5447,-0.140,0.093
5448,-0.176,0.065
5449,-0.176,0.065
5450,-0.176,0.065
5451,-0.176,0.065
5452,-0.176,0.029
5453,-0.212,0.029
5454,-0.212,0.029
5455,-0.212,0.029
5456,-0.212,0.000
5457,-0.212,0.000
5458,-0.212,0.000
5459,-0.212,0.000
5460,-0.176,-0.036
5461,-0.176,-0.036
5462,-0.176,-0.036
5463,-0.176,-0.036
5464,-0.176,-0.079
5465,-0.176,-0.079
5466,-0.176,-0.079
5467,-0.176,-0.079
5468,-0.176,-0.122
5469,-0.176,-0.122
5470,-0.176,-0.122
5471,-0.140,-0.122
5472,-0.140,-0.173
5473,-0.140,-0.173
5474,-0.140,-0.173
5475,-0.140,-0.173
5476,-0.140,-0.224
5477,-0.140,-0.224
5478,-0.140,-0.224
5479,-0.104,-0.224
5480,-0.104,-0.274
5481,-0.104,-0.274
5482,-0.104,-0.274
5483,-0.104,-0.274
5484,-0.068,-0.324
5485,-0.068,-0.324
5486,-0.033,-0.324
5487,-0.033,-0.324
5488,-0.033,-0.367
5489,-0.033,-0.367
5490,-0.033,-0.367
5491,0.003,-0.367
5492,0.003,-0.425
5493,0.003,-0.425
5494,0.003,-0.425
5495,0.003,-0.425
5496,0.003,-0.468
5497,0.037,-0.468
5498,0.037,-0.468
5499,0.037,-0.468
5500,0.037,-0.533
5501,0.037,-0.533
5502,0.073,-0.533
5503,0.073,-0.533
5504,0.073,-0.576
5505,0.073,-0.576
5506,0.109,-0.576
5507,0.109,-0.576
5508,0.109,-0.613
5509,0.109,-0.613
5510,0.109,-0.613
5511,0.109,-0.613
5512,0.109,-0.648
5513,0.109,-0.648
5514,0.109,-0.648
5515,0.109,-0.648
5516,0.109,-0.670
5517,0.109,-0.670
5518,0.109,-0.670
5519,0.073,-0.670
5520,0.073,-0.677
5521,0.073,-0.677
5522,0.073,-0.677
5523,0.037,-0.677
5524,0.037,-0.662
5525,0.037,-0.662
5526,0.037,-0.662
5527,0.037,-0.662
5528,0.037,-0.634
5529,0.037,-0.634
5530,0.003,-0.634
5531,0.003,-0.634
5532,0.003,-0.576
5533,0.003,-0.576
5534,0.003,-0.576
5535,0.003,-0.576
5536,0.003,-0.504
5537,-0.033,-0.504
5538,-0.033,-0.504
5539,-0.033,-0.504
5540,-0.033,-0.425
5541,-0.033,-0.425
5542,-0.033,-0.425
5543,-0.033,-0.425
5544,-0.033,-0.324
5545,-0.033,-0.324
5546,-0.068,-0.324
5547,-0.068,-0.324
5548,-0.033,-0.224
5549,-0.068,-0.224
5550,-0.068,-0.224
5551,-0.068,-0.224
5552,-0.068,-0.108
5553,-0.068,-0.108
5554,-0.068,-0.108
5555,-0.068,-0.108
5556,-0.068,0.000
5557,-0.068,0.000
5558,-0.068,0.000
5559,-0.068,0.000
5560,-0.068,0.108
5561,-0.068,0.108
5562,-0.068,0.108
5563,-0.068,0.108
5564,-0.068,0.224
5565,-0.068,0.224
5566,-0.068,0.224
5567,-0.068,0.224
5568,-0.068,0.324
5569,-0.068,0.324
5570,-0.068,0.324
5571,-0.068,0.324
5572,-0.068,0.410
5573,-0.033,0.410
5574,-0.033,0.410
5575,-0.033,0.410
5576,-0.033,0.389
5577,-0.033,0.389
5578,-0.033,0.389
5579,-0.033,0.389
5580,0.003,0.447
5581,0.003,0.447
5582,0.003,0.447
5583,0.003,0.447
5584,0.003,0.504
5585,0.003,0.504
5586,0.003,0.504
5587,0.003,0.504
5588,0.003,0.533
5589,0.003,0.533
5590,0.003,0.533
5591,0.003,0.533
5592,0.003,0.547
5593,0.037,0.547
5594,0.003,0.547
5595,0.037,0.547
5596,0.003,0.554
5597,0.003,0.554
5598,0.003,0.554
5599,0.003,0.554
5600,0.003,0.525
5601,0.003,0.525
5602,0.003,0.525
5603,0.003,0.525
5604,0.003,0.489
5605,0.003,0.489
5606,0.003,0.489
5607,0.003,0.489
5608,0.003,0.439
5609,-0.033,0.439
5610,-0.033,0.439
5611,-0.033,0.439
5612,-0.033,0.382
5613,-0.033,0.382
5614,-0.068,0.382
5615,-0.068,0.382
5616,-0.068,0.295
5617,-0.104,0.295
5618,-0.104,0.295
5619,-0.104,0.295
5620,-0.104,0.208
5621,-0.104,0.208
5622,-0.140,0.208
5623,-0.140,0.208
5624,-0.140,0.122
5625,-0.140,0.122
5626,-0.140,0.122
5627,-0.140,0.122
5628,-0.140,0.029
5629,-0.140,0.029
5630,-0.140,0.029
5631,-0.140,0.029
5632,-0.104,-0.072
5633,-0.104,-0.072
5634,-0.104,-0.072
5635,-0.104,-0.072
5636,-0.104,-0.159
5637,-0.140,-0.159
5638,-0.140,-0.159
5639,-0.176,-0.159
5640,-0.176,-0.231
5641,-0.176,-0.231
5642,-0.176,-0.231
5643,-0.140,-0.231
5644,-0.104,-0.303
5645,-0.033,-0.303
5646,0.037,-0.303
5647,0.145,-0.303
5648,0.324,-0.353
5649,0.503,-0.353
5650,0.717,-0.353
5651,0.932,-0.353
5652,1.145,-0.389
5653,1.288,-0.389
5654,1.396,-0.389
5655,1.432,-0.389
5656,1.324,-0.411
5657,1.109,-0.411
5658,0.860,-0.411
5659,0.573,-0.411
5660,0.360,-0.411
5661,0.217,-0.411
5662,0.109,-0.411
5663,0.003,-0.411
5664,0.003,-0.404
5665,-0.033,-0.404
5666,-0.104,-0.404
5667,-0.104,-0.404
5668,-0.104,-0.397
5669,-0.104,-0.397
5670,-0.104,-0.397
5671,-0.104,-0.397
5672,-0.104,-0.382
5673,-0.104,-0.382
5674,-0.140,-0.382
5675,-0.140,-0.382
5676,-0.140,-0.367
5677,-0.140,-0.367
5678,-0.176,-0.367
5679,-0.176,-0.367
5680,-0.176,-0.353
5681,-0.176,-0.353
5682,-0.176,-0.353
5683,-0.176,-0.353
5684,-0.176,-0.346
5685,-0.140,-0.346
5686,-0.140,-0.346
5687,-0.140,-0.346
5688,-0.140,-0.346
5689,-0.140,-0.346
5690,-0.140,-0.346
5691,-0.140,-0.346
5692,-0.140,-0.353
5693,-0.140,-0.353
5694,-0.140,-0.353
5695,-0.140,-0.353
5696,-0.140,-0.360
5697,-0.140,-0.360
5698,-0.104,-0.360
5699,-0.104,-0.360
5700,-0.104,-0.382
5701,-0.104,-0.382
5702,-0.104,-0.382
5703,-0.104,-0.382
5704,-0.104,-0.411
5705,-0.104,-0.411
5706,-0.104,-0.411
5707,-0.104,-0.411
5708,-0.104,-0.440
5709,-0.104,-0.440
5710,-0.068,-0.440
5711,-0.068,-0.440
5712,-0.068,-0.483
5713,-0.033,-0.483
5714,-0.033,-0.483
5715,-0.033,-0.483
5716,0.003,-0.526
5717,0.003,-0.526
5718,0.003,-0.526
5719,0.003,-0.526
5720,0.003,-0.577
5721,0.003,-0.577
5722,0.003,-0.577
5723,0.003,-0.577
5724,0.037,-0.606
5725,0.037,-0.606
5726,0.037,-0.606
5727,0.073,-0.606
5728,0.073,-0.641
5729,0.073,-0.641
5730,0.073,-0.641
5731,0.073,-0.641
5732,0.109,-0.677
5733,0.109,-0.677
5734,0.109,-0.677
5735,0.109,-0.677
5736,0.109,-0.692
5737,0.109,-0.692
5738,0.109,-0.692
5739,0.109,-0.692
5740,0.073,-0.721
5741,0.073,-0.721
5742,0.073,-0.721
5743,0.073,-0.721
5744,0.073,-0.721
5745,0.073,-0.721
5746,0.073,-0.721
5747,0.073,-0.721
5748,0.073,-0.728
5749,0.073,-0.728
5750,0.037,-0.728
5751,0.037,-0.728
5752,0.037,-0.714
5753,0.037,-0.714
5754,0.003,-0.714
5755,0.003,-0.714
5756,0.003,-0.692
5757,0.003,-0.692
5758,0.003,-0.692
5759,0.003,-0.692
5760,0.003,-0.670
5761,0.003,-0.670
5762,0.003,-0.670
5763,0.003,-0.670
5764,0.003,-0.627
5765,0.003,-0.627
5766,0.003,-0.627
5767,-0.033,-0.627
5768,-0.033,-0.570
5769,-0.033,-0.570
5770,-0.033,-0.570
5771,-0.033,-0.570
5772,-0.033,-0.490
5773,-0.033,-0.490
5774,-0.033,-0.490
5775,-0.033,-0.490
5776,-0.033,-0.404
5777,-0.033,-0.404
5778,-0.033,-0.404
5779,-0.033,-0.404
5780,-0.033,-0.310
5781,-0.068,-0.310
5782,-0.033,-0.310
5783,-0.033,-0.310
5784,-0.033,-0.195
5785,-0.033,-0.195
5786,-0.033,-0.195
5787,-0.033,-0.195
5788,-0.033,-0.072
5789,-0.033,-0.072
5790,-0.033,-0.072
5791,-0.033,-0.072
5792,-0.033,0.043
5793,-0.033,0.043
5794,-0.033,0.043
5795,-0.033,0.043
5796,-0.033,0.151
5797,-0.068,0.151
5798,-0.068,0.151
5799,-0.033,0.151
5800,-0.033,0.252
5801,-0.033,0.252
5802,-0.033,0.252
5803,-0.033,0.252
5804,-0.033,0.352
5805,-0.033,0.352
5806,-0.033,0.352
5807,0.003,0.352
5808,0.003,0.424
5809,0.003,0.424
5810,0.003,0.424
5811,0.003,0.424
5812,0.003,0.497
5813,0.003,0.497
5814,0.003,0.497
5815,0.003,0.497
5816,0.003,0.547
5817,0.003,0.547
5818,0.003,0.547
5819,0.003,0.547
5820,0.003,0.591
5821,0.037,0.591
5822,0.003,0.591
5823,0.003,0.591
5824,0.003,0.605
5825,0.003,0.605
5826,0.003,0.605
5827,0.003,0.605
5828,0.003,0.626
5829,0.003,0.626
5830,0.003,0.626
5831,0.003,0.626
5832,0.003,0.609
5833,0.003,0.609
5834,-0.033,0.609
5835,-0.033,0.609
5836,-0.033,0.602
5837,-0.033,0.602
5838,-0.033,0.602
5839,-0.068,0.602
5840,-0.068,0.595
5841,-0.068,0.595
5842,-0.068,0.595
5843,-0.104,0.595
5844,-0.104,0.582
5845,-0.104,0.582
5846,-0.104,0.582
5847,-0.104,0.582
5848,-0.104,0.561
5849,-0.140,0.561
5850,-0.140,0.561
5851,-0.140,0.561
5852,-0.140,0.528
5853,-0.140,0.528
5854,-0.104,0.528
5855,-0.104,0.528
5856,-0.104,0.508
5857,-0.104,0.508
5858,-0.104,0.508
5859,-0.104,0.508
5860,-0.104,0.474
5861,-0.104,0.474
5862,-0.104,0.474
5863,-0.140,0.474
5864,-0.140,0.441
5865,-0.140,0.441
5866,-0.176,0.441
5867,-0.140,0.441
5868,-0.140,0.408
5869,-0.104,0.408
5870,-0.068,0.408
5871,0.003,0.408
5872,0.109,0.367
5873,0.217,0.367
5874,0.396,0.367
5875,0.573,0.367
5876,0.860,0.347
5877,1.037,0.347
5878,1.217,0.347
5879,1.360,0.347
5880,1.467,0.314
5881,1.467,0.314
5882,1.324,0.314
5883,1.073,0.314
5884,0.824,0.287
5885,0.573,0.287
5886,0.396,0.287
5887,0.252,0.287
5888,0.109,0.254
5889,0.073,0.254
5890,0.003,0.254
5891,0.003,0.254
5892,-0.033,0.227
5893,-0.068,0.227
5894,-0.068,0.227
5895,-0.068,0.227
5896,-0.068,0.187
5897,-0.068,0.187
5898,-0.068,0.187
5899,-0.104,0.187
5900,-0.104,0.153
5901,-0.104,0.153
5902,-0.140,0.153
5903,-0.140,0.153
5904,-0.140,0.100
5905,-0.140,0.100
5906,-0.140,0.100
5907,-0.104,0.100
5908,-0.104,0.040
5909,-0.104,0.040
5910,-0.140,0.040
5911,-0.140,0.040
5912,-0.140,-0.020
5913,-0.140,-0.020
5914,-0.140,-0.020
5915,-0.140,-0.020
5916,-0.140,-0.094
5917,-0.140,-0.094
5918,-0.140,-0.094
5919,-0.104,-0.094
5920,-0.104,-0.168
5921,-0.104,-0.168
5922,-0.104,-0.168
5923,-0.104,-0.168
5924,-0.104,-0.247
5925,-0.104,-0.247
5926,-0.140,-0.247
5927,-0.104,-0.247
5928,-0.104,-0.321
5929,-0.104,-0.321
5930,-0.104,-0.321
5931,-0.104,-0.321
5932,-0.104,-0.388
5933,-0.104,-0.388
5934,-0.104,-0.388
5935,-0.104,-0.388
5936,-0.068,-0.442
5937,-0.068,-0.442
5938,-0.033,-0.442
5939,0.003,-0.442
5940,0.003,-0.481
5941,0.003,-0.481
5942,0.003,-0.481
5943,0.003,-0.481
5944,0.003,-0.515
5945,0.003,-0.515
5946,0.003,-0.515
5947,0.003,-0.515
5948,0.037,-0.528
5949,0.037,-0.528
5950,0.037,-0.528
5951,0.037,-0.528
5952,0.037,-0.535
5953,0.073,-0.535
5954,0.073,-0.535
5955,0.109,-0.535
5956,0.109,-0.542
5957,0.073,-0.542
5958,0.073,-0.542
5959,0.073,-0.542
5960,0.109,-0.542
5961,0.109,-0.542
5962,0.109,-0.542
5963,0.109,-0.542
5964,0.109,-0.548
5965,0.109,-0.548
5966,0.109,-0.548
5967,0.109,-0.548
5968,0.109,-0.562
5969,0.109,-0.562
5970,0.109,-0.562
5971,0.109,-0.562
5972,0.073,-0.576
5973,0.073,-0.576
5974,0.109,-0.576
5975,0.073,-0.576
5976,0.073,-0.602
5977,0.073,-0.602
5978,0.037,-0.602
5979,0.037,-0.602
5980,0.073,-0.622
5981,0.037,-0.622
5982,0.003,-0.622
5983,-0.033,-0.622
5984,-0.033,-0.655
5985,-0.033,-0.655
5986,0.003,-0.655
5987,0.003,-0.655
5988,0.003,-0.682
5989,0.003,-0.682
5990,0.003,-0.682
5991,0.003,-0.682
5992,0.003,-0.703
5993,0.003,-0.703
5994,0.003,-0.703
5995,0.003,-0.703
5996,-0.033,-0.716
5997,-0.033,-0.716
5998,-0.068,-0.716
5999,-0.068,-0.716
6000,-0.068,-0.723
6001,-0.033,-0.723
6002,-0.033,-0.723
6003,-0.033,-0.723
6004,-0.068,-0.709
6005,-0.068,-0.709
6006,-0.068,-0.709
6007,-0.068,-0.709
6008,-0.068,-0.675
6009,-0.068,-0.675
6010,-0.104,-0.675
6011,-0.104,-0.675
6012,-0.068,-0.642
6013,-0.068,-0.642
6014,-0.033,-0.642
6015,-0.033,-0.642
6016,-0.033,-0.596
6017,0.003,-0.596
6018,-0.033,-0.596
6019,-0.068,-0.596
6020,-0.068,-0.548
6021,-0.104,-0.548
6022,-0.104,-0.548
6023,-0.104,-0.548
6024,-0.104,-0.488
6025,-0.104,-0.488
6026,-0.104,-0.488
6027,-0.104,-0.488
6028,-0.104,-0.421
6029,-0.068,-0.421
6030,-0.033,-0.421
6031,-0.033,-0.421
6032,-0.033,-0.368
6033,-0.033,-0.368
6034,-0.033,-0.368
6035,-0.033,-0.368
6036,-0.033,-0.294
6037,-0.033,-0.294
6038,-0.033,-0.294
6039,-0.068,-0.294
6040,-0.033,-0.228
6041,-0.033,-0.228
6042,-0.033,-0.228
6043,-0.033,-0.228
6044,-0.033,-0.168
6045,-0.033,-0.168
6046,-0.033,-0.168
6047,-0.033,-0.168
6048,0.003,-0.101
6049,0.003,-0.101
6050,0.003,-0.101
6051,0.003,-0.101
6052,0.003,-0.041
6053,0.003,-0.041
6054,0.003,-0.041
6055,0.003,-0.041
6056,0.003,0.020
6057,0.003,0.020
6058,-0.033,0.020
6059,-0.068,0.020
6060,-0.033,0.053
6061,-0.033,0.053
6062,-0.033,0.053
6063,-0.033,0.053
6064,-0.068,0.093
6065,-0.068,0.093
6066,-0.068,0.093
6067,-0.104,0.093
6068,-0.104,0.120
6069,-0.104,0.120
6070,-0.104,0.120
6071,-0.104,0.120
6072,-0.140,0.141
6073,-0.140,0.141
6074,-0.140,0.141
6075,-0.140,0.141
6076,-0.140,0.141
6077,-0.140,0.141
6078,-0.104,0.141
6079,-0.140,0.141
6080,-0.140,0.134
6081,-0.140,0.134
6082,-0.140,0.134
6083,-0.140,0.134
6084,-0.140,0.127
6085,-0.140,0.127
6086,-0.140,0.127
6087,-0.140,0.127
6088,-0.176,0.101
6089,-0.176,0.101
6090,-0.176,0.101
6091,-0.176,0.101
6092,-0.176,0.089
6093,-0.176,0.089
6094,-0.140,0.089
6095,-0.140,0.089
6096,-0.104,0.072
6097,-0.068,0.072
6098,0.003,0.072
6099,0.109,0.072
6100,0.217,0.067
6101,0.360,0.067
6102,0.537,0.067
6103,0.717,0.067
6104,0.932,0.050
6105,1.109,0.050
6106,1.217,0.050
6107,1.324,0.050
6108,1.288,0.034
6109,1.181,0.034
6110,1.003,0.034
6111,0.788,0.034
6112,0.573,0.011
6113,0.360,0.011
6114,0.181,0.011
6115,0.037,0.011
6116,0.003,-0.017
6117,-0.068,-0.017
6118,-0.104,-0.017
6119,-0.104,-0.017
6120,-0.104,-0.056
6121,-0.140,-0.056
6122,-0.140,-0.056
6123,-0.140,-0.056
6124,-0.140,-0.089
6125,-0.176,-0.089
6126,-0.140,-0.089
6127,-0.140,-0.089
6128,-0.140,-0.140
6129,-0.140,-0.140
6130,-0.140,-0.140
6131,-0.176,-0.140
6132,-0.176,-0.202
6133,-0.176,-0.202
6134,-0.176,-0.202
6135,-0.140,-0.202
6136,-0.176,-0.263
6137,-0.176,-0.263
6138,-0.176,-0.263
6139,-0.176,-0.263
6140,-0.176,-0.336
6141,-0.176,-0.336
6142,-0.176,-0.336
6143,-0.176,-0.336
6144,-0.176,-0.408
6145,-0.176,-0.408
6146,-0.176,-0.408
6147,-0.140,-0.408
6148,-0.176,-0.470
6149,-0.140,-0.470
6150,-0.140,-0.470
6151,-0.140,-0.470
6152,-0.140,-0.548
6153,-0.140,-0.548
6154,-0.140,-0.548
6155,-0.140,-0.548
6156,-0.140,-0.626
6157,-0.140,-0.626
6158,-0.104,-0.626
6159,-0.104,-0.626
6160,-0.104,-0.705
6161,-0.104,-0.705
6162,-0.104,-0.705
6163,-0.104,-0.705
6164,-0.104,-0.783
6165,-0.104,-0.783
6166,-0.104,-0.783
6167,-0.068,-0.783
6168,-0.068,-0.867
6169,-0.068,-0.867
6170,-0.033,-0.867
6171,-0.033,-0.867
6172,-0.033,-0.946
6173,-0.033,-0.946
6174,0.003,-0.946
6175,0.003,-0.946
6176,0.003,-
6177,0.003,-
6178,0.003,-
6179,0.003,-
6180,0.037,-
6181,0.037,-
6182,0.037,-
6183,0.037,-
6184,0.037,-
6185,0.073,-
6186,0.037,-
6187,0.073,-
6188,0.073,-
6189,0.073,-
6190,0.073,-
6191,0.073,-
6192,0.073,-
6193,0.073,-
6194,0.073,-
6195,0.073,-
6196,0.073,-
6197,0.037,-
6198,0.037,-
6199,0.037,-
6200,0.037,-
6201,0.037,-
6202,0.037,-
6203,0.037,-
6204,0.037,-
6205,0.003,-
6206,0.003,-
6207,0.003,-
6208,0.003,-
6209,0.003,-
6210,0.003,-
6211,0.003,-
6212,0.003,-
6213,0.003,-
6214,0.003,-
6215,-0.033,-
6216,-0.033,-
6217,-0.033,-
6218,-0.033,-
6219,-0.033,-
6220,-0.033,-
6221,-0.033,-
6222,-0.033,-
6223,-0.033,-
6224,-0.033,-
6225,-0.033,-
6226,-0.068,-
6227,-0.068,-
6228,-0.068,-
6229,-0.068,-
6230,-0.068,-
6231,-0.068,-
6232,-0.068,-
6233,-0.068,-
6234,-0.068,-
6235,-0.068,-
6236,-0.068,-
6237,-0.068,-
6238,-0.068,-
6239,-0.068,-
6240,-0.068,-
6241,-0.068,-
6242,-0.068,-
6243,-0.068,-
6244,-0.068,-
6245,-0.068,-
6246,-0.033,-
6247,-0.033,-
6248,-0.033,-
6249,-0.033,-
6250,-0.033,-
6251,-0.068,-
6252,-0.033,-
6253,-0.033,-
6254,-0.033,-
6255,-0.033,-
6256,-0.033,-
6257,-0.033,-
6258,-0.033,-
6259,0.003,-
6260,0.003,-
6261,0.003,-
6262,0.003,-
6263,0.003,-
6264,0.003,-0.985
6265,0.003,-0.985
6266,0.003,-0.985
6267,0.003,-0.985
6268,0.003,-0.917
6269,0.003,-0.917
6270,0.003,-0.917
6271,0.037,-0.917
6272,0.037,-0.867
6273,0.037,-0.867
6274,0.037,-0.867
6275,0.037,-0.867
6276,0.037,-0.834
6277,0.037,-0.834
6278,0.037,-0.834
6279,0.037,-0.834
6280,0.037,-0.828
6281,0.037,-0.828
6282,0.003,-0.828
6283,0.003,-0.828
6284,0.003,-0.840
6285,0.003,-0.840
6286,0.003,-0.840
6287,0.003,-0.840
6288,0.003,-0.895
6289,0.003,-0.895
6290,0.003,-0.895
6291,0.003,-0.895
6292,-0.033,-0.940
6293,-0.033,-0.940
6294,-0.068,-0.940
6295,-0.068,-0.940
6296,-0.068,-0.985
6297,-0.068,-0.985
6298,-0.068,-0.985
6299,-0.104,-0.985
6300,-0.104,-0.979
6301,-0.104,-0.979
6302,-0.104,-0.979
6303,-0.104,-0.979
6304,-0.104,-0.912
6305,-0.104,-0.912
6306,-0.104,-0.912
6307,-0.104,-0.912
6308,-0.104,-0.761
6309,-0.140,-0.761
6310,-0.104,-0.761
6311,-0.104,-0.761
6312,-0.104,-0.503
6313,-0.104,-0.503
6314,-0.104,-0.503
6315,-0.104,-0.503
6316,-0.104,-0.135
6317,-0.104,-0.135
6318,-0.140,-0.135
6319,-0.140,-0.135
6320,-0.140,0.346
6321,-0.140,0.346
6322,-0.140,0.346
6323,-0.104,0.346
6324,-0.068,0.900
6325,0.003,0.900
6326,0.073,0.900
6327,0.181,0.900
6328,0.324,1.024
6329,0.467,1.024
6330,0.645,1.024
6331,0.860,1.024
6332,1.037,1.024
6333,1.181,1.024
6334,1.252,1.024
6335,1.252,1.024
6336,1.145,1.024
6337,0.967,1.024
6338,0.752,1.024
6339,0.503,1.024
6340,0.288,1.024
6341,0.181,1.024
6342,0.073,1.024
6343,0.003,1.024
6344,-0.033,1.024
6345,-0.068,1.024
6346,-0.104,1.024
6347,-0.104,1.024
6348,-0.104,1.024
6349,-0.104,1.024
6350,-0.104,1.024
6351,-0.104,1.024
6352,-0.104,1.024
6353,-0.104,1.024
6354,-0.104,1.024
6355,-0.140,1.024
6356,-0.140,1.024
6357,-0.140,1.024
6358,-0.140,1.024
6359,-0.140,1.024
6360,-0.176,1.024
6361,-0.140,1.024
6362,-0.176,1.024
6363,-0.176,1.024
6364,-0.176,1.024
6365,-0.140,1.024
6366,-0.140,1.024
6367,-0.140,1.024
6368,-0.140,1.024
6369,-0.140,1.024
6370,-0.140,1.024
6371,-0.140,1.024
6372,-0.140,0.913
6373,-0.140,0.913
6374,-0.140,0.913
6375,-0.140,0.913
6376,-0.104,0.393
6377,-0.104,0.393
6378,-0.104,0.393
6379,-0.104,0.393
6380,-0.104,-0.046
6381,-0.104,-0.046
6382,-0.104,-0.046
6383,-0.104,-0.046
6384,-0.104,-0.394
6385,-0.104,-0.394
6386,-0.104,-0.394
6387,-0.104,-0.394
6388,-0.068,-0.625
6389,-0.068,-0.625
6390,-0.068,-0.625
6391,-0.068,-0.625
6392,-0.068,-0.735
6393,-0.068,-0.735
6394,-0.033,-0.735
6395,-0.033,-0.735
6396,-0.033,-0.740
6397,0.003,-0.740
6398,0.003,-0.740
6399,0.003,-0.740
6400,0.003,-0.653
6401,0.003,-0.653
6402,0.003,-0.653
6403,0.003,-0.653
6404,0.037,-0.509
6405,0.037,-0.509
6406,0.037,-0.509
6407,0.073,-0.509
6408,0.073,-0.330
6409,0.073,-0.330
6410,0.073,-0.330
6411,0.073,-0.330
6412,0.109,-0.150
6413,0.109,-0.150
6414,0.109,-0.150
6415,0.109,-0.150
6416,0.109,0.017
6417,0.109,0.017
6418,0.109,0.017
6419,0.109,0.017
6420,0.109,0.168
6421,0.109,0.168
6422,0.109,0.168
6423,0.109,0.168
6424,0.109,0.289
6425,0.073,0.289
6426,0.073,0.289
6427,0.073,0.289
6428,0.073,0.393
6429,0.073,0.393
6430,0.073,0.393
6431,0.037,0.393
6432,0.037,0.468
6433,0.037,0.468
6434,0.003,0.468
6435,0.003,0.468
6436,0.003,0.531
6437,0.003,0.531
6438,0.003,0.531
6439,0.003,0.531
6440,0.003,0.590
6441,0.003,0.590
6442,-0.033,0.590
6443,-0.033,0.590
6444,-0.033,0.630
6445,-0.033,0.630
6446,-0.033,0.630
6447,-0.033,0.630
6448,-0.033,0.659
6449,-0.033,0.659
6450,-0.068,0.659
6451,-0.068,0.659
6452,-0.068,0.653
6453,-0.068,0.653
6454,-0.068,0.653
6455,-0.068,0.653
6456,-0.068,0.635
6457,-0.068,0.635
6458,-0.068,0.635
6459,-0.104,0.635
6460,-0.068,0.590
6461,-0.068,0.590
6462,-0.068,0.590
6463,-0.068,0.590
6464,-0.068,0.508
6465,-0.068,0.508
6466,-0.068,0.508
6467,-0.068,0.508
6468,-0.068,0.393
6469,-0.068,0.393
6470,-0.068,0.393
6471,-0.068,0.393
6472,-0.068,0.242
6473,-0.068,0.242
6474,-0.068,0.242
6475,-0.104,0.242
6476,-0.068,0.046
6477,-0.068,0.046
6478,-0.068,0.046
6479,-0.068,0.046
6480,-0.068,-0.185
6481,-0.068,-0.185
6482,-0.033,-0.185
6483,-0.033,-0.185
6484,-0.033,-0.469
6485,-0.033,-0.469
6486,-0.033,-0.469
6487,0.003,-0.469
6488,0.003,-0.769
6489,0.003,-0.769
6490,0.003,-0.769
6491,0.003,-0.769
6492,0.003,-
6493,0.003,-
6494,0.003,-
6495,0.003,-
6496,0.003,-
6497,0.003,-
6498,0.003,-
6499,0.003,-
6500,0.037,-
6501,0.037,-
6502,0.037,-
6503,0.037,-
6504,0.003,-
6505,0.003,-
6506,0.003,-
6507,0.003,-
6508,0.003,-
6509,0.003,-
6510,0.003,-
6511,0.003,-
6512,0.003,-
6513,0.003,-
6514,0.003,-
6515,-0.033,-
6516,-0.033,-
6517,-0.033,-
6518,-0.033,-
6519,-0.068,-
6520,-0.068,-
6521,-0.068,-
6522,-0.104,-
6523,-0.104,-
6524,-0.104,-
6525,-0.140,-
6526,-0.104,-
6527,-0.104,-
6528,-0.104,-
6529,-0.140,-
6530,-0.140,-
6531,-0.140,-
6532,-0.104,-
6533,-0.104,-
6534,-0.104,-
6535,-0.104,-
6536,-0.104,-
6537,-0.104,-
6538,-0.104,-
6539,-0.104,-
6540,-0.140,-
6541,-0.140,-
6542,-0.140,-
6543,-0.176,-
6544,-0.176,-
6545,-0.176,-
6546,-0.176,-
6547,-0.176,-
6548,-0.140,-
6549,-0.104,-
6550,-0.068,-
6551,0.003,-
6552,0.145,-
6553,0.288,-
6554,0.467,-
6555,0.681,-
6556,0.932,-
6557,1.109,-
6558,1.288,-
6559,1.360,-
6560,1.396,-
6561,1.252,-
6562,1.037,-
6563,0.824,-
6564,0.573,-
6565,0.360,-
6566,0.181,-
6567,0.073,-
6568,0.037,-
6569,0.003,-
6570,-0.033,-
6571,-0.068,-
6572,-0.104,-
6573,-0.104,-
6574,-0.104,-
6575,-0.104,-
6576,-0.104,-
6577,-0.104,-
6578,-0.104,-
6579,-0.140,-
6580,-0.176,-
6581,-0.176,-
6582,-0.176,-
6583,-0.176,-
6584,-0.176,-
6585,-0.176,-
6586,-0.176,-
6587,-0.176,-
6588,-0.176,-
6589,-0.176,-
6590,-0.176,-
6591,-0.176,-
6592,-0.176,-
6593,-0.140,-
6594,-0.140,-
6595,-0.140,-
6596,-0.140,-
6597,-0.140,-
6598,-0.140,-
6599,-0.140,-
6600,-0.140,-
6601,-0.140,-
6602,-0.140,-
6603,-0.140,-
6604,-0.140,-
6605,-0.140,-
6606,-0.104,-
6607,-0.104,-
6608,-0.104,-
6609,-0.104,-
6610,-0.104,-
6611,-0.104,-
6612,-0.104,-
6613,-0.104,-
6614,-0.068,-
6615,-0.068,-
6616,-0.068,-
6617,-0.068,-
6618,-0.033,-
6619,-0.033,-
6620,-0.033,-
6621,-0.033,-
6622,-0.033,-
6623,0.003,-
6624,0.003,-
6625,0.003,-
6626,0.003,-
6627,0.003,-
6628,0.003,-1.000
6629,0.003,-1.000
6630,0.037,-1.000
6631,0.037,-1.000
6632,0.037,-0.850
6633,0.073,-0.850
6634,0.073,-0.850
6635,0.109,-0.850
6636,0.109,-0.729
6637,0.109,-0.729
6638,0.109,-0.729
6639,0.109,-0.729
6640,0.109,-0.636
6641,0.109,-0.636
6642,0.109,-0.636
6643,0.109,-0.636
6644,0.109,-0.573
6645,0.109,-0.573
6646,0.109,-0.573
6647,0.109,-0.573
6648,0.109,-0.537
6649,0.109,-0.537
6650,0.073,-0.537
6651,0.073,-0.537
6652,0.073,-0.520
6653,0.073,-0.520
6654,0.073,-0.520
6655,0.073,-0.520
6656,0.073,-0.520
6657,0.037,-0.520
6658,0.037,-0.520
6659,0.037,-0.520
6660,0.037,-0.526
6661,0.037,-0.526
6662,0.003,-0.526
6663,0.003,-0.526
6664,0.003,-0.537
6665,0.003,-0.537
6666,0.003,-0.537
6667,0.003,-0.537
6668,0.003,-0.532
6669,-0.033,-0.532
6670,-0.033,-0.532
6671,-0.033,-0.532
6672,-0.033,-0.508
6673,-0.033,-0.508
6674,-0.033,-0.508
6675,-0.033,-0.508
6676,-0.033,-0.457
6677,-0.033,-0.457
6678,-0.068,-0.457
6679,-0.068,-0.457
6680,-0.068,-0.388
6681,-0.068,-0.388
6682,-0.068,-0.388
6683,-0.068,-0.388
6684,-0.068,-0.266
6685,-0.068,-0.266
6686,-0.068,-0.266
6687,-0.068,-0.266
6688,-0.068,-0.110
6689,-0.068,-0.110
6690,-0.068,-0.110
6691,-0.033,-0.110
6692,-0.033,0.092
6693,-0.068,0.092
6694,-0.068,0.092
6695,-0.068,0.092
6696,-0.068,0.324
6697,-0.068,0.324
6698,-0.068,0.324
6699,-0.068,0.324
6700,-0.068,0.607
6701,-0.068,0.607
6702,-0.033,0.607
6703,-0.033,0.607
6704,-0.033,0.931
6705,-0.033,0.931
6706,-0.033,0.931
6707,-0.033,0.931
6708,-0.033,1.024
6709,-0.033,1.024
6710,0.003,1.024
6711,0.003,1.024
6712,0.003,1.024
6713,0.003,1.024
6714,0.003,1.024
6715,0.003,1.024
6716,0.003,1.024
6717,0.003,1.024
6718,0.003,1.024
6719,0.003,1.024
6720,0.037,1.024
6721,0.037,1.024
6722,0.037,1.024
6723,0.037,1.024
6724,0.037,1.024
6725,0.037,1.024
6726,0.037,1.024
6727,0.037,1.024
6728,0.003,1.024
6729,0.003,1.024
6730,0.003,1.024
6731,0.003,1.024
6732,0.003,1.024
6733,0.003,1.024
6734,0.003,1.024
6735,0.003,1.024
6736,0.003,1.024
6737,0.003,1.024
6738,0.003,1.024
6739,0.003,1.024
6740,-0.033,1.024
6741,-0.033,1.024
6742,-0.033,1.024
6743,-0.033,1.024
6744,-0.033,1.024
6745,-0.068,1.024
6746,-0.068,1.024
6747,-0.068,1.024
6748,-0.104,1.024
6749,-0.104,1.024
6750,-0.104,1.024
6751,-0.104,1.024
6752,-0.140,1.024
6753,-0.140,1.024
6754,-0.140,1.024
6755,-0.140,1.024
6756,-0.140,1.024
6757,-0.140,1.024
6758,-0.140,1.024
6759,-0.140,1.024
6760,-0.140,1.024
6761,-0.140,1.024
6762,-0.140,1.024
6763,-0.140,1.024
6764,-0.140,1.024
