,ECG,PPG
0,0.023,0.881
1,0.020,0.881
2,0.019,0.881
3,0.017,0.881
4,0.017,0.891
5,0.017,0.891
6,0.017,0.891
7,0.018,0.891
8,0.019,0.897
9,0.020,0.897
10,0.021,0.897
11,0.023,0.897
12,0.021,0.900
13,0.020,0.900
14,0.019,0.900
15,0.018,0.900
16,0.017,0.899
17,0.016,0.899
18,0.014,0.899
19,0.013,0.899
20,0.013,0.894
21,0.013,0.894
22,0.015,0.894
23,0.017,0.894
24,0.017,0.887
25,0.018,0.887
26,0.017,0.887
27,0.016,0.887
28,0.013,0.874
29,0.011,0.874
30,0.007,0.874
31,0.004,0.874
32,0.001,0.856
33,-0.001,0.856
34,-0.001,0.856
35,-0.001,0.856
36,0.000,0.833
37,0.001,0.833
38,0.002,0.833
39,0.002,0.833
40,0.001,0.807
41,0.000,0.807
42,-0.001,0.807
43,-0.002,0.807
44,-0.002,0.779
45,-0.001,0.779
46,0.001,0.779
47,0.004,0.779
48,0.007,0.746
49,0.010,0.746
50,0.012,0.746
51,0.014,0.746
52,0.016,0.711
53,0.017,0.711
54,0.018,0.711
55,0.019,0.711
56,0.020,0.676
57,0.021,0.676
58,0.024,0.676
59,0.027,0.676
60,0.027,0.640
61,0.027,0.640
62,0.023,0.640
63,0.019,0.640
64,0.008,0.605
65,-0.002,0.605
66,-0.017,0.605
67,-0.031,0.605
68,-0.043,0.571
69,-0.055,0.571
70,-0.058,0.571
71,-0.061,0.571
72,-0.056,0.539
73,-0.050,0.539
74,-0.041,0.539
75,-0.031,0.539
76,-0.021,0.508
77,-0.011,0.508
78,-0.005,0.508
79,0.001,0.508
80,0.004,0.478
81,0.006,0.478
82,0.007,0.478
83,0.007,0.478
84,0.006,0.451
85,0.005,0.451
86,0.002,0.451
87,0.000,0.451
88,-0.005,0.424
89,-0.011,0.424
90,-0.017,0.424
91,-0.024,0.424
92,-0.027,0.400
93,-0.031,0.400
94,-0.030,0.400
95,-0.030,0.400
96,-0.025,0.376
97,-0.020,0.376
98,-0.014,0.376
99,-0.007,0.376
100,-0.004,0.354
101,-0.001,0.354
102,-0.004,0.354
103,-0.007,0.354
104,-0.012,0.333
105,-0.017,0.333
106,-0.020,0.333
107,-0.024,0.333
108,-0.026,0.312
109,-0.027,0.312
110,-0.027,0.312
111,-0.026,0.312
112,-0.026,0.291
113,-0.025,0.291
114,-0.023,0.291
115,-0.021,0.291
116,-0.019,0.270
117,-0.016,0.270
118,-0.011,0.270
119,-0.007,0.270
120,-0.002,0.249
121,0.002,0.249
122,0.008,0.249
123,0.014,0.249
124,0.019,0.230
125,0.024,0.230
126,0.026,0.230
127,0.027,0.230
128,0.023,0.210
129,0.019,0.210
130,0.010,0.210
131,0.000,0.210
132,-0.011,0.190
133,-0.023,0.190
134,-0.032,0.190
135,-0.041,0.190
136,-0.045,0.172
137,-0.050,0.172
138,-0.050,0.172
139,-0.049,0.172
140,-0.045,0.153
141,-0.042,0.153
142,-0.036,0.153
143,-0.031,0.153
144,-0.024,0.136
145,-0.018,0.136
146,-0.011,0.136
147,-0.005,0.136
148,-0.001,0.119
149,0.002,0.119
150,0.004,0.119
151,0.006,0.119
152,0.004,0.105
153,0.002,0.105
154,-0.002,0.105
155,-0.006,0.105
156,-0.010,0.091
157,-0.014,0.091
158,-0.016,0.091
159,-0.017,0.091
160,-0.014,0.079
161,-0.012,0.079
162,-0.008,0.079
163,-0.005,0.079
164,-0.001,0.069
165,0.002,0.069
166,0.005,0.069
167,0.008,0.069
168,0.010,0.059
169,0.011,0.059
170,0.011,0.059
171,0.012,0.059
172,0.012,0.054
173,0.012,0.054
174,0.011,0.054
175,0.010,0.054
176,0.008,0.046
177,0.006,0.046
178,0.006,0.046
179,0.006,0.046
180,0.007,0.044
181,0.008,0.044
182,0.010,0.044
183,0.012,0.044
184,0.011,0.040
185,0.011,0.040
186,0.007,0.040
187,0.002,0.040
188,-0.004,0.039
189,-0.010,0.039
190,-0.012,0.039
191,-0.014,0.039
192,-0.014,0.037
193,-0.013,0.037
194,-0.011,0.037
195,-0.008,0.037
196,-0.007,0.040
197,-0.005,0.040
198,-0.006,0.040
199,-0.007,0.040
200,-0.010,0.039
201,-0.012,0.039
202,-0.013,0.039
203,-0.014,0.039
204,-0.013,0.042
205,-0.011,0.042
206,-0.005,0.042
207,0.000,0.042
208,0.005,0.043
209,0.010,0.043
210,0.013,0.043
211,0.016,0.043
212,0.020,0.044
213,0.025,0.044
214,0.032,0.044
215,0.038,0.044
216,0.047,0.048
217,0.055,0.048
218,0.064,0.048
219,0.073,0.048
220,0.077,0.049
221,0.081,0.049
222,0.079,0.049
223,0.076,0.049
224,0.069,0.048
225,0.061,0.048
226,0.051,0.048
227,0.042,0.048
228,0.035,0.046
229,0.027,0.046
230,0.023,0.046
231,0.019,0.046
232,0.016,0.043
233,0.013,0.043
234,0.012,0.043
235,0.011,0.043
236,0.010,0.037
237,0.008,0.037
238,0.005,0.037
239,0.001,0.037
240,-0.002,0.031
241,-0.005,0.031
242,-0.008,0.031
243,-0.011,0.031
244,-0.011,0.021
245,-0.012,0.021
246,-0.011,0.021
247,-0.010,0.021
248,-0.010,0.013
249,-0.010,0.013
250,-0.011,0.013
251,-0.013,0.013
252,-0.016,0.000
253,-0.018,0.000
254,-0.021,0.000
255,-0.024,0.000
256,-0.026,-0.012
257,-0.027,-0.012
258,-0.026,-0.012
259,-0.024,-0.012
260,-0.021,-0.022
261,-0.018,-0.022
262,-0.014,-0.022
263,-0.010,-0.022
264,-0.005,-0.035
265,-0.001,-0.035
266,0.002,-0.035
267,0.006,-0.035
268,0.007,-0.046
269,0.008,-0.046
270,0.009,-0.046
271,0.010,-0.046
272,0.013,-0.057
273,0.017,-0.057
274,0.026,-0.057
275,0.036,-0.057
276,0.050,-0.068
277,0.063,-0.068
278,0.079,-0.068
279,0.096,-0.068
280,0.110,-0.078
281,0.124,-0.078
282,0.136,-0.078
283,0.147,-0.078
284,0.150,-0.087
285,0.154,-0.087
286,0.143,-0.087
287,0.133,-0.087
288,0.098,-0.095
289,0.063,-0.095
290,0.004,-0.095
291,-0.056,-0.095
292,-0.132,-0.101
293,-0.208,-0.101
294,-0.280,-0.101
295,-0.352,-0.101
296,-0.408,-0.108
297,-0.464,-0.108
298,-0.500,-0.108
299,-0.536,-0.108
300,-0.557,-0.115
301,-0.578,-0.115
302,-0.589,-0.115
303,-0.599,-0.115
304,-0.597,-0.119
305,-0.595,-0.119
306,-0.571,-0.119
307,-0.548,-0.119
308,-0.503,-0.124
309,-0.457,-0.124
310,-0.398,-0.124
311,-0.339,-0.124
312,-0.278,-0.129
313,-0.217,-0.129
314,-0.163,-0.129
315,-0.109,-0.129
316,-0.068,-0.133
317,-0.027,-0.133
318,-0.002,-0.133
319,0.023,-0.133
320,0.033,-0.137
321,0.044,-0.137
322,0.044,-0.137
323,0.043,-0.137
324,0.035,-0.140
325,0.026,-0.140
326,0.016,-0.140
327,0.006,-0.140
328,-0.002,-0.142
329,-0.010,-0.142
330,-0.012,-0.142
331,-0.014,-0.142
332,-0.011,-0.146
333,-0.007,-0.146
334,-0.001,-0.146
335,0.006,-0.146
336,0.013,-0.148
337,0.020,-0.148
338,0.026,-0.148
339,0.032,-0.148
340,0.037,-0.150
341,0.042,-0.150
342,0.047,-0.150
343,0.053,-0.150
344,0.056,-0.154
345,0.059,-0.154
346,0.061,-0.154
347,0.063,-0.154
348,0.068,-0.158
349,0.073,-0.158
350,0.082,-0.158
351,0.091,-0.158
352,0.101,-0.161
353,0.111,-0.161
354,0.116,-0.161
355,0.122,-0.161
356,0.118,-0.166
357,0.113,-0.166
358,0.101,-0.166
359,0.090,-0.166
360,0.073,-0.171
361,0.056,-0.171
362,0.041,-0.171
363,0.026,-0.171
364,0.018,-0.177
365,0.010,-0.177
366,0.007,-0.177
367,0.005,-0.177
368,0.006,-0.185
369,0.007,-0.185
370,0.008,-0.185
371,0.010,-0.185
372,0.008,-0.193
373,0.007,-0.193
374,0.007,-0.193
375,0.006,-0.193
376,0.008,-0.201
377,0.011,-0.201
378,0.017,-0.201
379,0.024,-0.201
380,0.033,-0.211
381,0.042,-0.211
382,0.051,-0.211
383,0.060,-0.211
384,0.066,-0.218
385,0.073,-0.218
386,0.079,-0.218
387,0.086,-0.218
388,0.094,-0.226
389,0.101,-0.226
390,0.115,-0.226
391,0.128,-0.226
392,0.143,-0.231
393,0.158,-0.231
394,0.170,-0.231
395,0.181,-0.231
396,0.186,-0.231
397,0.191,-0.231
398,0.184,-0.231
399,0.178,-0.231
400,0.161,-0.227
401,0.144,-0.227
402,0.123,-0.227
403,0.101,-0.227
404,0.082,-0.217
405,0.062,-0.217
406,0.048,-0.217
407,0.033,-0.217
408,0.026,-0.198
409,0.019,-0.198
410,0.018,-0.198
411,0.017,-0.198
412,0.020,-0.172
413,0.024,-0.172
414,0.032,-0.172
415,0.039,-0.172
416,0.050,-0.046
417,0.060,-0.046
418,0.069,-0.046
419,0.079,-0.046
420,0.088,-0.003
421,0.097,-0.003
422,0.101,-0.003
423,0.106,-0.003
424,0.108,0.047
425,0.110,0.047
426,0.111,0.047
427,0.112,0.047
428,0.113,0.102
429,0.115,0.102
430,0.116,0.102
431,0.118,0.102
432,0.121,0.160
433,0.123,0.160
434,0.125,0.160
435,0.127,0.160
436,0.127,0.218
437,0.127,0.218
438,0.127,0.218
439,0.127,0.218
440,0.128,0.276
441,0.130,0.276
442,0.136,0.276
443,0.141,0.276
444,0.149,0.331
445,0.158,0.331
446,0.167,0.331
447,0.177,0.331
448,0.184,0.382
449,0.192,0.382
450,0.192,0.382
451,0.191,0.382
452,0.177,0.428
453,0.164,0.428
454,0.145,0.428
455,0.127,0.428
456,0.111,0.469
457,0.096,0.469
458,0.088,0.469
459,0.080,0.469
460,0.081,0.502
461,0.081,0.502
462,0.085,0.502
463,0.090,0.502
464,0.093,0.529
465,0.097,0.529
466,0.095,0.529
467,0.093,0.529
468,0.088,0.553
469,0.084,0.553
470,0.080,0.553
471,0.076,0.553
472,0.076,0.571
473,0.076,0.571
474,0.081,0.571
475,0.085,0.571
476,0.090,0.583
477,0.096,0.583
478,0.099,0.583
479,0.101,0.583
480,0.100,0.593
481,0.099,0.593
482,0.094,0.593
483,0.088,0.593
484,0.082,0.597
485,0.076,0.597
486,0.072,0.597
487,0.067,0.597
488,0.063,0.602
489,0.060,0.602
490,0.058,0.602
491,0.056,0.602
492,0.057,0.602
493,0.059,0.602
494,0.062,0.602
495,0.066,0.602
496,0.067,0.599
497,0.069,0.599
498,0.069,0.599
499,0.068,0.599
500,0.063,0.595
501,0.057,0.595
502,0.049,0.595
503,0.041,0.595
504,0.035,0.588
505,0.030,0.588
506,0.028,0.588
507,0.026,0.588
508,0.029,0.581
509,0.031,0.581
510,0.036,0.581
511,0.041,0.581
512,0.045,0.569
513,0.050,0.569
514,0.053,0.569
515,0.056,0.569
516,0.057,0.554
517,0.057,0.554
518,0.055,0.554
519,0.053,0.554
520,0.048,0.538
521,0.043,0.538
522,0.038,0.538
523,0.032,0.538
524,0.029,0.521
525,0.025,0.521
526,0.023,0.521
527,0.020,0.521
528,0.018,0.499
529,0.016,0.499
530,0.014,0.499
531,0.012,0.499
532,0.010,0.475
533,0.007,0.475
534,0.005,0.475
535,0.004,0.475
536,0.004,0.451
537,0.004,0.451
538,0.004,0.451
539,0.005,0.451
540,0.007,0.422
541,0.008,0.422
542,0.011,0.422
543,0.014,0.422
544,0.016,0.392
545,0.017,0.392
546,0.017,0.392
547,0.018,0.392
548,0.017,0.361
549,0.017,0.361
550,0.017,0.361
551,0.017,0.361
552,0.017,0.328
553,0.017,0.328
554,0.017,0.328
555,0.018,0.328
556,0.019,0.296
557,0.020,0.296
558,0.021,0.296
559,0.023,0.296
560,0.022,0.264
561,0.021,0.264
562,0.022,0.264
563,0.023,0.264
564,0.024,0.233
565,0.025,0.233
566,0.026,0.233
567,0.026,0.233
568,0.026,0.203
569,0.026,0.203
570,0.026,0.203
571,0.026,0.203
572,0.026,0.174
573,0.026,0.174
574,0.026,0.174
575,0.025,0.174
576,0.024,0.146
577,0.023,0.146
578,0.021,0.146
579,0.019,0.146
580,0.019,0.121
581,0.018,0.121
582,0.017,0.121
583,0.016,0.121
584,0.014,0.099
585,0.013,0.099
586,0.011,0.099
587,0.010,0.099
588,0.007,0.078
589,0.004,0.078
590,-0.001,0.078
591,-0.005,0.078
592,-0.011,0.059
593,-0.017,0.059
594,-0.020,0.059
595,-0.023,0.059
596,-0.021,0.042
597,-0.020,0.042
598,-0.017,0.042
599,-0.013,0.042
600,-0.008,0.024
601,-0.004,0.024
602,-0.002,0.024
603,-0.001,0.024
604,-0.003,0.009
605,-0.005,0.009
606,-0.006,0.009
607,-0.007,0.009
608,-0.005,-0.008
609,-0.004,-0.008
610,0.001,-0.008
611,0.005,-0.008
612,0.008,-0.024
613,0.012,-0.024
614,0.014,-0.024
615,0.016,-0.024
616,0.016,-0.040
617,0.016,-0.040
618,0.015,-0.040
619,0.014,-0.040
620,0.014,-0.055
621,0.014,-0.055
622,0.015,-0.055
623,0.016,-0.055
624,0.016,-0.071
625,0.017,-0.071
626,0.017,-0.071
627,0.018,-0.071
628,0.019,-0.088
629,0.020,-0.088
630,0.021,-0.088
631,0.021,-0.088
632,0.019,-0.106
633,0.017,-0.106
634,0.014,-0.106
635,0.012,-0.106
636,0.010,-0.121
637,0.008,-0.121
638,0.007,-0.121
639,0.006,-0.121
640,0.006,-0.137
641,0.006,-0.137
642,0.007,-0.137
643,0.007,-0.137
644,0.008,-0.152
645,0.010,-0.152
646,0.011,-0.152
647,0.012,-0.152
648,0.013,-0.168
649,0.014,-0.168
650,0.016,-0.168
651,0.017,-0.168
652,0.017,-0.182
653,0.017,-0.182
654,0.014,-0.182
655,0.012,-0.182
656,0.009,-0.196
657,0.006,-0.196
658,0.001,-0.196
659,-0.004,-0.196
660,-0.008,-0.208
661,-0.012,-0.208
662,-0.014,-0.208
663,-0.016,-0.208
664,-0.013,-0.222
665,-0.011,-0.222
666,-0.005,-0.222
667,0.000,-0.222
668,0.005,-0.233
669,0.010,-0.233
670,0.011,-0.233
671,0.013,-0.233
672,0.013,-0.242
673,0.012,-0.242
674,0.010,-0.242
675,0.008,-0.242
676,0.006,-0.252
677,0.004,-0.252
678,0.004,-0.252
679,0.005,-0.252
680,0.006,-0.260
681,0.007,-0.260
682,0.009,-0.260
683,0.011,-0.260
684,0.013,-0.267
685,0.014,-0.267
686,0.017,-0.267
687,0.020,-0.267
688,0.021,-0.274
689,0.023,-0.274
690,0.022,-0.274
691,0.021,-0.274
692,0.021,-0.280
693,0.021,-0.280
694,0.021,-0.280
695,0.020,-0.280
696,0.019,-0.287
697,0.018,-0.287
698,0.018,-0.287
699,0.018,-0.287
700,0.020,-0.293
701,0.021,-0.293
702,0.025,-0.293
703,0.029,-0.293
704,0.032,-0.300
705,0.036,-0.300
706,0.039,-0.300
707,0.043,-0.300
708,0.043,-0.305
709,0.043,-0.305
710,0.041,-0.305
711,0.038,-0.305
712,0.036,-0.312
713,0.035,-0.312
714,0.036,-0.312
715,0.038,-0.312
716,0.044,-0.320
717,0.049,-0.320
718,0.056,-0.320
719,0.063,-0.320
720,0.067,-0.326
721,0.070,-0.326
722,0.072,-0.326
723,0.074,-0.326
724,0.072,-0.333
725,0.070,-0.333
726,0.064,-0.333
727,0.057,-0.333
728,0.047,-0.342
729,0.037,-0.342
730,0.029,-0.342
731,0.021,-0.342
732,0.017,-0.348
733,0.012,-0.348
734,0.010,-0.348
735,0.007,-0.348
736,0.006,-0.353
737,0.005,-0.353
738,0.002,-0.353
739,-0.001,-0.353
740,-0.007,-0.359
741,-0.012,-0.359
742,-0.019,-0.359
743,-0.025,-0.359
744,-0.031,-0.364
745,-0.037,-0.364
746,-0.041,-0.364
747,-0.044,-0.364
748,-0.044,-0.368
749,-0.043,-0.368
750,-0.039,-0.368
751,-0.035,-0.368
752,-0.028,-0.371
753,-0.021,-0.371
754,-0.014,-0.371
755,-0.007,-0.371
756,-0.001,-0.373
757,0.006,-0.373
758,0.010,-0.373
759,0.014,-0.373
760,0.016,-0.377
761,0.017,-0.377
762,0.017,-0.377
763,0.017,-0.377
764,0.014,-0.378
765,0.012,-0.378
766,0.010,-0.378
767,0.008,-0.378
768,0.009,-0.379
769,0.010,-0.379
770,0.014,-0.379
771,0.019,-0.379
772,0.027,-0.380
773,0.036,-0.380
774,0.046,-0.380
775,0.056,-0.380
776,0.068,-0.380
777,0.080,-0.380
778,0.093,-0.380
779,0.106,-0.380
780,0.118,-0.380
781,0.130,-0.380
782,0.138,-0.380
783,0.146,-0.380
784,0.148,-0.380
785,0.150,-0.380
786,0.141,-0.380
787,0.133,-0.380
788,0.104,-0.379
789,0.076,-0.379
790,0.024,-0.379
791,-0.027,-0.379
792,-0.096,-0.378
793,-0.164,-0.378
794,-0.235,-0.378
795,-0.307,-0.378
796,-0.366,-0.378
797,-0.425,-0.378
798,-0.467,-0.378
799,-0.509,-0.378
800,-0.536,-0.376
801,-0.564,-0.376
802,-0.583,-0.376
803,-0.603,-0.376
804,-0.614,-0.374
805,-0.624,-0.374
806,-0.616,-0.374
807,-0.608,-0.374
808,-0.576,-0.372
809,-0.544,-0.372
810,-0.491,-0.372
811,-0.438,-0.372
812,-0.374,-0.371
813,-0.310,-0.371
814,-0.249,-0.371
815,-0.187,-0.371
816,-0.136,-0.368
817,-0.085,-0.368
818,-0.050,-0.368
819,-0.014,-0.368
820,0.005,-0.364
821,0.025,-0.364
822,0.033,-0.364
823,0.042,-0.364
824,0.043,-0.363
825,0.044,-0.363
826,0.044,-0.363
827,0.043,-0.363
828,0.041,-0.359
829,0.039,-0.359
830,0.040,-0.359
831,0.041,-0.359
832,0.044,-0.357
833,0.048,-0.357
834,0.053,-0.357
835,0.059,-0.357
836,0.063,-0.355
837,0.068,-0.355
838,0.071,-0.355
839,0.074,-0.355
840,0.076,-0.351
841,0.079,-0.351
842,0.081,-0.351
843,0.082,-0.351
844,0.084,-0.349
845,0.086,-0.349
846,0.088,-0.349
847,0.090,-0.349
848,0.091,-0.347
849,0.092,-0.347
850,0.091,-0.347
851,0.090,-0.347
852,0.085,-0.346
853,0.080,-0.346
854,0.073,-0.346
855,0.066,-0.346
856,0.058,-0.345
857,0.050,-0.345
858,0.044,-0.345
859,0.037,-0.345
860,0.033,-0.343
861,0.030,-0.343
862,0.030,-0.343
863,0.031,-0.343
864,0.033,-0.343
865,0.036,-0.343
866,0.040,-0.343
867,0.044,-0.343
868,0.048,-0.343
869,0.053,-0.343
870,0.056,-0.343
871,0.059,-0.343
872,0.062,-0.343
873,0.066,-0.343
874,0.068,-0.343
875,0.070,-0.343
876,0.072,-0.342
877,0.073,-0.342
878,0.070,-0.342
879,0.068,-0.342
880,0.064,-0.343
881,0.060,-0.343
882,0.056,-0.343
883,0.051,-0.343
884,0.050,-0.341
885,0.048,-0.341
886,0.051,-0.341
887,0.054,-0.341
888,0.061,-0.340
889,0.068,-0.340
890,0.075,-0.340
891,0.081,-0.340
892,0.087,-0.337
893,0.092,-0.337
894,0.094,-0.337
895,0.097,-0.337
896,0.096,-0.331
897,0.096,-0.331
898,0.093,-0.331
899,0.091,-0.331
900,0.088,-0.320
901,0.086,-0.320
902,0.084,-0.320
903,0.082,-0.320
904,0.083,-0.305
905,0.084,-0.305
906,0.085,-0.305
907,0.087,-0.305
908,0.090,-0.283
909,0.093,-0.283
910,0.097,-0.283
911,0.100,-0.283
912,0.104,-0.256
913,0.107,-0.256
914,0.110,-0.256
915,0.112,-0.256
916,0.113,-0.220
917,0.113,-0.220
918,0.113,-0.220
919,0.113,-0.220
920,0.113,-0.176
921,0.112,-0.176
922,0.111,-0.176
923,0.110,-0.176
924,0.109,-0.124
925,0.109,-0.124
926,0.108,-0.124
927,0.107,-0.124
928,0.106,-0.068
929,0.105,-0.068
930,0.104,-0.068
931,0.104,-0.068
932,0.105,-0.005
933,0.106,-0.005
934,0.108,-0.005
935,0.110,-0.005
936,0.112,0.059
937,0.113,0.059
938,0.115,0.059
939,0.117,0.059
940,0.118,0.124
941,0.118,0.124
942,0.118,0.124
943,0.117,0.124
944,0.117,0.190
945,0.117,0.190
946,0.117,0.190
947,0.117,0.190
948,0.117,0.253
949,0.117,0.253
950,0.117,0.253
951,0.117,0.253
952,0.116,0.312
953,0.116,0.312
954,0.114,0.312
955,0.112,0.312
956,0.110,0.366
957,0.107,0.366
958,0.106,0.366
959,0.104,0.366
960,0.103,0.417
961,0.101,0.417
962,0.103,0.417
963,0.105,0.417
964,0.107,0.462
965,0.110,0.462
966,0.112,0.462
967,0.115,0.462
968,0.116,0.501
969,0.117,0.501
970,0.117,0.501
971,0.117,0.501
972,0.116,0.535
973,0.115,0.535
974,0.115,0.535
975,0.115,0.535
976,0.115,0.565
977,0.115,0.565
978,0.113,0.565
979,0.111,0.565
980,0.107,0.589
981,0.103,0.589
982,0.096,0.589
983,0.088,0.589
984,0.082,0.611
985,0.076,0.611
986,0.073,0.611
987,0.070,0.611
988,0.072,0.628
989,0.074,0.628
990,0.076,0.628
991,0.078,0.628
992,0.076,0.641
993,0.075,0.641
994,0.069,0.641
995,0.063,0.641
996,0.056,0.651
997,0.049,0.651
998,0.044,0.651
999,0.038,0.651
1000,0.036,0.656
1001,0.035,0.656
1002,0.036,0.656
1003,0.038,0.656
1004,0.038,0.661
1005,0.038,0.661
1006,0.036,0.661
1007,0.033,0.661
1008,0.030,0.662
1009,0.026,0.662
1010,0.023,0.662
1011,0.020,0.662
1012,0.019,0.657
1013,0.017,0.657
1014,0.017,0.657
1015,0.017,0.657
1016,0.017,0.652
1017,0.017,0.652
1018,0.017,0.652
1019,0.017,0.652
1020,0.017,0.642
1021,0.017,0.642
1022,0.017,0.642
1023,0.017,0.642
1024,0.017,0.628
1025,0.017,0.628
1026,0.017,0.628
1027,0.017,0.628
1028,0.017,0.613
1029,0.017,0.613
1030,0.017,0.613
1031,0.017,0.613
1032,0.017,0.592
1033,0.017,0.592
1034,0.017,0.592
1035,0.018,0.592
1036,0.019,0.567
1037,0.020,0.567
1038,0.021,0.567
1039,0.021,0.567
1040,0.020,0.542
1041,0.018,0.542
1042,0.017,0.542
1043,0.016,0.542
1044,0.014,0.511
1045,0.012,0.511
1046,0.011,0.511
1047,0.010,0.511
1048,0.011,0.480
1049,0.012,0.480
1050,0.015,0.480
1051,0.018,0.480
1052,0.020,0.448
1053,0.021,0.448
1054,0.021,0.448
1055,0.021,0.448
1056,0.019,0.415
1057,0.017,0.415
1058,0.014,0.415
1059,0.012,0.415
1060,0.010,0.382
1061,0.007,0.382
1062,0.006,0.382
1063,0.005,0.382
1064,0.005,0.350
1065,0.006,0.350
1066,0.005,0.350
1067,0.005,0.350
1068,0.001,0.320
1069,-0.002,0.320
1070,-0.006,0.320
1071,-0.010,0.320
1072,-0.011,0.287
1073,-0.013,0.287
1074,-0.011,0.287
1075,-0.008,0.287
1076,-0.006,0.261
1077,-0.004,0.261
1078,-0.002,0.261
1079,0.000,0.261
1080,0.002,0.234
1081,0.005,0.234
1082,0.007,0.234
1083,0.010,0.234
1084,0.011,0.209
1085,0.013,0.209
1086,0.013,0.209
1087,0.013,0.209
1088,0.013,0.186
1089,0.012,0.186
1090,0.010,0.186
1091,0.008,0.186
1092,0.005,0.163
1093,0.002,0.163
1094,0.002,0.163
1095,0.001,0.163
1096,0.002,0.143
1097,0.002,0.143
1098,0.004,0.143
1099,0.005,0.143
1100,0.006,0.123
1101,0.007,0.123
1102,0.008,0.123
1103,0.010,0.123
1104,0.010,0.103
1105,0.010,0.103
1106,0.011,0.103
1107,0.012,0.103
1108,0.013,0.086
1109,0.013,0.086
1110,0.013,0.086
1111,0.013,0.086
1112,0.013,0.066
1113,0.013,0.066
1114,0.013,0.066
1115,0.013,0.066
1116,0.013,0.049
1117,0.013,0.049
1118,0.013,0.049
1119,0.012,0.049
1120,0.010,0.030
1121,0.007,0.030
1122,0.002,0.030
1123,-0.002,0.030
1124,-0.007,0.013
1125,-0.011,0.013
1126,-0.015,0.013
1127,-0.019,0.013
1128,-0.020,-0.005
1129,-0.021,-0.005
1130,-0.019,-0.005
1131,-0.017,-0.005
1132,-0.013,-0.024
1133,-0.008,-0.024
1134,-0.007,-0.024
1135,-0.005,-0.024
1136,-0.005,-0.042
1137,-0.005,-0.042
1138,-0.005,-0.042
1139,-0.005,-0.042
1140,-0.004,-0.059
1141,-0.002,-0.059
1142,0.000,-0.059
1143,0.002,-0.059
1144,0.004,-0.079
1145,0.006,-0.079
1146,0.007,-0.079
1147,0.008,-0.079
1148,0.008,-0.095
1149,0.008,-0.095
1150,0.008,-0.095
1151,0.008,-0.095
1152,0.009,-0.112
1153,0.010,-0.112
1154,0.011,-0.112
1155,0.013,-0.112
1156,0.015,-0.128
1157,0.017,-0.128
1158,0.017,-0.128
1159,0.017,-0.128
1160,0.015,-0.144
1161,0.013,-0.144
1162,0.012,-0.144
1163,0.011,-0.144
1164,0.010,-0.161
1165,0.010,-0.161
1166,0.008,-0.161
1167,0.007,-0.161
1168,0.008,-0.176
1169,0.010,-0.176
1170,0.011,-0.176
1171,0.012,-0.176
1172,0.013,-0.193
1173,0.013,-0.193
1174,0.013,-0.193
1175,0.013,-0.193
1176,0.013,-0.206
1177,0.012,-0.206
1178,0.010,-0.206
1179,0.008,-0.206
1180,0.005,-0.223
1181,0.002,-0.223
1182,0.001,-0.223
1183,-0.001,-0.223
1184,-0.004,-0.305
1185,-0.006,-0.305
1186,-0.007,-0.305
1187,-0.007,-0.305
1188,-0.005,-0.321
1189,-0.004,-0.321
1190,0.000,-0.321
1191,0.004,-0.321
1192,0.006,-0.334
1193,0.008,-0.334
1194,0.008,-0.334
1195,0.007,-0.334
1196,0.003,-0.346
1197,-0.001,-0.346
1198,-0.005,-0.346
1199,-0.008,-0.346
1200,-0.008,-0.357
1201,-0.008,-0.357
1202,-0.005,-0.357
1203,-0.002,-0.357
1204,0.004,-0.369
1205,0.010,-0.369
1206,0.017,-0.369
1207,0.024,-0.369
1208,0.030,-0.379
1209,0.037,-0.379
1210,0.041,-0.379
1211,0.045,-0.379
1212,0.047,-0.388
1213,0.048,-0.388
1214,0.047,-0.388
1215,0.047,-0.388
1216,0.046,-0.396
1217,0.045,-0.396
1218,0.047,-0.396
1219,0.048,-0.396
1220,0.050,-0.401
1221,0.053,-0.401
1222,0.054,-0.401
1223,0.056,-0.401
1224,0.057,-0.406
1225,0.057,-0.406
1226,0.056,-0.406
1227,0.054,-0.406
1228,0.050,-0.410
1229,0.045,-0.410
1230,0.038,-0.410
1231,0.031,-0.410
1232,0.023,-0.412
1233,0.016,-0.412
1234,0.009,-0.412
1235,0.002,-0.412
1236,-0.003,-0.413
1237,-0.008,-0.413
1238,-0.011,-0.413
1239,-0.014,-0.413
1240,-0.014,-0.413
1241,-0.014,-0.413
1242,-0.014,-0.413
1243,-0.013,-0.413
1244,-0.014,-0.413
1245,-0.016,-0.413
1246,-0.020,-0.413
1247,-0.024,-0.413
1248,-0.029,-0.412
1249,-0.033,-0.412
1250,-0.036,-0.412
1251,-0.039,-0.412
1252,-0.039,-0.411
1253,-0.038,-0.411
1254,-0.033,-0.411
1255,-0.029,-0.411
1256,-0.022,-0.411
1257,-0.016,-0.411
1258,-0.010,-0.411
1259,-0.004,-0.411
1260,-0.001,-0.409
1261,0.002,-0.409
1262,0.002,-0.409
1263,0.002,-0.409
1264,0.001,-0.409
1265,0.000,-0.409
1266,0.001,-0.409
1267,0.001,-0.409
1268,0.005,-0.410
1269,0.008,-0.410
1270,0.012,-0.410
1271,0.016,-0.410
1272,0.020,-0.410
1273,0.025,-0.410
1274,0.032,-0.410
1275,0.039,-0.410
1276,0.051,-0.409
1277,0.063,-0.409
1278,0.081,-0.409
1279,0.098,-0.409
1280,0.116,-0.410
1281,0.134,-0.410
1282,0.150,-0.410
1283,0.167,-0.410
1284,0.177,-0.412
1285,0.186,-0.412
1286,0.179,-0.412
1287,0.172,-0.412
1288,0.136,-0.412
1289,0.100,-0.412
1290,0.034,-0.412
1291,-0.032,-0.412
1292,-0.120,-0.414
1293,-0.208,-0.414
1294,-0.296,-0.414
1295,-0.383,-0.414
1296,-0.450,-0.415
1297,-0.517,-0.415
1298,-0.557,-0.415
1299,-0.597,-0.415
1300,-0.618,-0.416
1301,-0.639,-0.416
1302,-0.648,-0.416
1303,-0.658,-0.416
1304,-0.657,-0.417
1305,-0.657,-0.417
1306,-0.637,-0.417
1307,-0.617,-0.417
1308,-0.572,-0.419
1309,-0.527,-0.419
1310,-0.461,-0.419
1311,-0.395,-0.419
1312,-0.324,-0.421
1313,-0.253,-0.421
1314,-0.191,-0.421
1315,-0.129,-0.421
1316,-0.084,-0.422
1317,-0.039,-0.422
1318,-0.014,-0.422
1319,0.011,-0.422
1320,0.021,-0.423
1321,0.031,-0.423
1322,0.034,-0.423
1323,0.037,-0.423
1324,0.038,-0.422
1325,0.038,-0.422
1326,0.040,-0.422
1327,0.042,-0.422
1328,0.045,-0.423
1329,0.048,-0.423
1330,0.051,-0.423
1331,0.055,-0.423
1332,0.059,-0.424
1333,0.063,-0.424
1334,0.067,-0.424
1335,0.072,-0.424
1336,0.075,-0.425
1337,0.078,-0.425
1338,0.079,-0.425
1339,0.080,-0.425
1340,0.078,-0.424
1341,0.076,-0.424
1342,0.074,-0.424
1343,0.072,-0.424
1344,0.067,-0.423
1345,0.063,-0.423
1346,0.057,-0.423
1347,0.050,-0.423
1348,0.044,-0.422
1349,0.037,-0.422
1350,0.033,-0.422
1351,0.029,-0.422
1352,0.027,-0.420
1353,0.025,-0.420
1354,0.027,-0.420
1355,0.029,-0.420
1356,0.033,-0.419
1357,0.037,-0.419
1358,0.044,-0.419
1359,0.050,-0.419
1360,0.057,-0.417
1361,0.063,-0.417
1362,0.067,-0.417
1363,0.072,-0.417
1364,0.075,-0.417
1365,0.078,-0.417
1366,0.078,-0.417
1367,0.078,-0.417
1368,0.073,-0.417
1369,0.069,-0.417
1370,0.067,-0.417
1371,0.064,-0.417
1372,0.064,-0.416
1373,0.064,-0.416
1374,0.065,-0.416
1375,0.066,-0.416
1376,0.065,-0.420
1377,0.064,-0.420
1378,0.063,-0.420
1379,0.061,-0.420
1380,0.058,-0.421
1381,0.055,-0.421
1382,0.055,-0.421
1383,0.055,-0.421
1384,0.059,-0.424
1385,0.062,-0.424
1386,0.069,-0.424
1387,0.075,-0.424
1388,0.080,-0.424
1389,0.085,-0.424
1390,0.085,-0.424
1391,0.086,-0.424
1392,0.084,-0.422
1393,0.081,-0.422
1394,0.078,-0.422
1395,0.074,-0.422
1396,0.072,-0.417
1397,0.069,-0.417
1398,0.070,-0.417
1399,0.070,-0.417
1400,0.072,-0.408
1401,0.074,-0.408
1402,0.076,-0.408
1403,0.079,-0.408
1404,0.081,-0.390
1405,0.084,-0.390
1406,0.086,-0.390
1407,0.088,-0.390
1408,0.090,-0.363
1409,0.092,-0.363
1410,0.095,-0.363
1411,0.098,-0.363
1412,0.101,-0.330
1413,0.105,-0.330
1414,0.108,-0.330
1415,0.111,-0.330
1416,0.115,-0.285
1417,0.119,-0.285
1418,0.124,-0.285
1419,0.128,-0.285
1420,0.132,-0.231
1421,0.136,-0.231
1422,0.137,-0.231
1423,0.139,-0.231
1424,0.137,-0.169
1425,0.135,-0.169
1426,0.132,-0.169
1427,0.129,-0.169
1428,0.125,-0.102
1429,0.121,-0.102
1430,0.119,-0.102
1431,0.118,-0.102
1432,0.120,-0.028
1433,0.122,-0.028
1434,0.125,-0.028
1435,0.129,-0.028
1436,0.131,0.045
1437,0.134,0.045
1438,0.134,0.045
1439,0.135,0.045
1440,0.134,0.118
1441,0.133,0.118
1442,0.131,0.118
1443,0.129,0.118
1444,0.128,0.191
1445,0.127,0.191
1446,0.127,0.191
1447,0.128,0.191
1448,0.129,0.257
1449,0.130,0.257
1450,0.130,0.257
1451,0.130,0.257
1452,0.127,0.316
1453,0.123,0.316
1454,0.118,0.316
1455,0.112,0.316
1456,0.107,0.369
1457,0.103,0.369
1458,0.099,0.369
1459,0.096,0.369
1460,0.096,0.415
1461,0.096,0.415
1462,0.099,0.415
1463,0.101,0.415
1464,0.106,0.454
1465,0.111,0.454
1466,0.115,0.454
1467,0.118,0.454
1468,0.119,0.484
1469,0.121,0.484
1470,0.119,0.484
1471,0.117,0.484
1472,0.112,0.508
1473,0.106,0.508
1474,0.099,0.508
1475,0.092,0.508
1476,0.084,0.529
1477,0.076,0.529
1478,0.072,0.529
1479,0.068,0.529
1480,0.069,0.541
1481,0.070,0.541
1482,0.072,0.541
1483,0.074,0.541
1484,0.077,0.550
1485,0.080,0.550
1486,0.084,0.550
1487,0.087,0.550
1488,0.089,0.557
1489,0.091,0.557
1490,0.090,0.557
1491,0.088,0.557
1492,0.087,0.558
1493,0.086,0.558
1494,0.084,0.558
1495,0.081,0.558
1496,0.079,0.557
1497,0.078,0.557
1498,0.075,0.557
1499,0.072,0.557
1500,0.067,0.553
1501,0.062,0.553
1502,0.056,0.553
1503,0.049,0.553
1504,0.040,0.545
1505,0.031,0.545
1506,0.023,0.545
1507,0.016,0.545
1508,0.012,0.536
1509,0.008,0.536
1510,0.011,0.536
1511,0.013,0.536
1512,0.017,0.523
1513,0.021,0.523
1514,0.024,0.523
1515,0.026,0.523
1516,0.026,0.507
1517,0.026,0.507
1518,0.026,0.507
1519,0.025,0.507
1520,0.024,0.490
1521,0.023,0.490
1522,0.021,0.490
1523,0.020,0.490
1524,0.021,0.468
1525,0.021,0.468
1526,0.021,0.468
1527,0.021,0.468
1528,0.021,0.445
1529,0.021,0.445
1530,0.021,0.445
1531,0.020,0.445
1532,0.018,0.418
1533,0.016,0.418
1534,0.012,0.418
1535,0.008,0.418
1536,0.005,0.389
1537,0.002,0.389
1538,0.002,0.389
1539,0.001,0.389
1540,0.002,0.359
1541,0.004,0.359
1542,0.006,0.359
1543,0.008,0.359
1544,0.011,0.327
1545,0.014,0.327
1546,0.015,0.327
1547,0.016,0.327
1548,0.014,0.295
1549,0.013,0.295
1550,0.010,0.295
1551,0.007,0.295
1552,0.005,0.261
1553,0.004,0.261
1554,0.005,0.261
1555,0.006,0.261
1556,0.010,0.227
1557,0.013,0.227
1558,0.016,0.227
1559,0.018,0.227
1560,0.019,0.196
1561,0.020,0.196
1562,0.020,0.196
1563,0.019,0.196
1564,0.017,0.166
1565,0.016,0.166
1566,0.014,0.166
1567,0.013,0.166
1568,0.013,0.137
1569,0.012,0.137
1570,0.012,0.137
1571,0.012,0.137
1572,0.010,0.110
1573,0.007,0.110
1574,0.002,0.110
1575,-0.002,0.110
1576,-0.005,0.084
1577,-0.008,0.084
1578,-0.008,0.084
1579,-0.007,0.084
1580,-0.004,0.059
1581,0.000,0.059
1582,0.005,0.059
1583,0.010,0.059
1584,0.014,0.038
1585,0.018,0.038
1586,0.020,0.038
1587,0.023,0.038
1588,0.021,0.019
1589,0.020,0.019
1590,0.016,0.019
1591,0.012,0.019
1592,0.007,0.000
1593,0.001,0.000
1594,-0.003,0.000
1595,-0.007,0.000
1596,-0.011,-0.018
1597,-0.014,-0.018
1598,-0.016,-0.018
1599,-0.017,-0.018
1600,-0.015,-0.035
1601,-0.013,-0.035
1602,-0.010,-0.035
1603,-0.007,-0.035
1604,-0.004,-0.052
1605,-0.001,-0.052
1606,-0.001,-0.052
1607,0.000,-0.052
1608,-0.001,-0.068
1609,-0.001,-0.068
1610,-0.003,-0.068
1611,-0.005,-0.068
1612,-0.007,-0.083
1613,-0.010,-0.083
1614,-0.011,-0.083
1615,-0.012,-0.083
1616,-0.011,-0.099
1617,-0.010,-0.099
1618,-0.008,-0.099
1619,-0.007,-0.099
1620,-0.006,-0.115
1621,-0.005,-0.115
1622,-0.005,-0.115
1623,-0.006,-0.115
1624,-0.007,-0.130
1625,-0.008,-0.130
1626,-0.009,-0.130
1627,-0.010,-0.130
1628,-0.010,-0.145
1629,-0.011,-0.145
1630,-0.011,-0.145
1631,-0.011,-0.145
1632,-0.010,-0.160
1633,-0.010,-0.160
1634,-0.007,-0.160
1635,-0.005,-0.160
1636,-0.001,-0.173
1637,0.002,-0.173
1638,0.005,-0.173
1639,0.007,-0.173
1640,0.008,-0.188
1641,0.008,-0.188
1642,0.008,-0.188
1643,0.008,-0.188
1644,0.008,-0.200
1645,0.008,-0.200
1646,0.008,-0.200
1647,0.008,-0.200
1648,0.009,-0.211
1649,0.010,-0.211
1650,0.010,-0.211
1651,0.011,-0.211
1652,0.010,-0.222
1653,0.008,-0.222
1654,0.005,-0.222
1655,0.001,-0.222
1656,-0.002,-0.233
1657,-0.006,-0.233
1658,-0.010,-0.233
1659,-0.014,-0.233
1660,-0.016,-0.243
1661,-0.018,-0.243
1662,-0.018,-0.243
1663,-0.018,-0.243
1664,-0.017,-0.254
1665,-0.017,-0.254
1666,-0.016,-0.254
1667,-0.014,-0.254
1668,-0.013,-0.262
1669,-0.012,-0.262
1670,-0.011,-0.262
1671,-0.010,-0.262
1672,-0.009,-0.270
1673,-0.008,-0.270
1674,-0.007,-0.270
1675,-0.006,-0.270
1676,-0.004,-0.278
1677,-0.002,-0.278
1678,-0.001,-0.278
1679,0.001,-0.278
1680,0.002,-0.284
1681,0.004,-0.284
1682,0.004,-0.284
1683,0.004,-0.284
1684,0.003,-0.290
1685,0.002,-0.290
1686,0.000,-0.290
1687,-0.002,-0.290
1688,-0.006,-0.295
1689,-0.010,-0.295
1690,-0.012,-0.295
1691,-0.014,-0.295
1692,-0.014,-0.300
1693,-0.014,-0.300
1694,-0.013,-0.300
1695,-0.011,-0.300
1696,-0.007,-0.289
1697,-0.004,-0.289
1698,0.001,-0.289
1699,0.005,-0.289
1700,0.008,-0.293
1701,0.011,-0.293
1702,0.014,-0.293
1703,0.017,-0.293
1704,0.018,-0.296
1705,0.019,-0.296
1706,0.019,-0.296
1707,0.019,-0.296
1708,0.019,-0.298
1709,0.019,-0.298
1710,0.020,-0.298
1711,0.021,-0.298
1712,0.026,-0.302
1713,0.030,-0.302
1714,0.035,-0.302
1715,0.041,-0.302
1716,0.047,-0.302
1717,0.054,-0.302
1718,0.057,-0.302
1719,0.061,-0.302
1720,0.061,-0.304
1721,0.061,-0.304
1722,0.058,-0.304
1723,0.055,-0.304
1724,0.050,-0.306
1725,0.045,-0.306
1726,0.039,-0.306
1727,0.033,-0.306
1728,0.028,-0.307
1729,0.023,-0.307
1730,0.019,-0.307
1731,0.016,-0.307
1732,0.012,-0.309
1733,0.008,-0.309
1734,0.005,-0.309
1735,0.001,-0.309
1736,-0.002,-0.309
1737,-0.005,-0.309
1738,-0.008,-0.309
1739,-0.011,-0.309
1740,-0.012,-0.309
1741,-0.013,-0.309
1742,-0.013,-0.309
1743,-0.013,-0.309
1744,-0.013,-0.309
1745,-0.012,-0.309
1746,-0.012,-0.309
1747,-0.012,-0.309
1748,-0.014,-0.309
1749,-0.017,-0.309
1750,-0.021,-0.309
1751,-0.025,-0.309
1752,-0.028,-0.307
1753,-0.031,-0.307
1754,-0.031,-0.307
1755,-0.031,-0.307
1756,-0.027,-0.307
1757,-0.024,-0.307
1758,-0.017,-0.307
1759,-0.011,-0.307
1760,-0.003,-0.306
1761,0.005,-0.306
1762,0.010,-0.306
1763,0.014,-0.306
1764,0.016,-0.306
1765,0.017,-0.306
1766,0.016,-0.306
1767,0.014,-0.306
1768,0.013,-0.305
1769,0.012,-0.305
1770,0.013,-0.305
1771,0.014,-0.305
1772,0.018,-0.304
1773,0.021,-0.304
1774,0.030,-0.304
1775,0.039,-0.304
1776,0.054,-0.305
1777,0.068,-0.305
1778,0.085,-0.305
1779,0.101,-0.305
1780,0.116,-0.304
1781,0.131,-0.304
1782,0.140,-0.304
1783,0.149,-0.304
1784,0.148,-0.303
1785,0.147,-0.303
1786,0.128,-0.303
1787,0.110,-0.303
1788,0.066,-0.303
1789,0.023,-0.303
1790,-0.043,-0.303
1791,-0.109,-0.303
1792,-0.184,-0.302
1793,-0.260,-0.302
1794,-0.328,-0.302
1795,-0.395,-0.302
1796,-0.443,-0.300
1797,-0.491,-0.300
1798,-0.521,-0.300
1799,-0.552,-0.300
1800,-0.573,-0.300
1801,-0.593,-0.300
1802,-0.606,-0.300
1803,-0.619,-0.300
1804,-0.617,-0.298
1805,-0.615,-0.298
1806,-0.590,-0.298
1807,-0.565,-0.298
1808,-0.514,-0.297
1809,-0.463,-0.297
1810,-0.396,-0.297
1811,-0.330,-0.297
1812,-0.264,-0.297
1813,-0.198,-0.297
1814,-0.146,-0.297
1815,-0.094,-0.297
1816,-0.061,-0.295
1817,-0.027,-0.295
1818,-0.011,-0.295
1819,0.005,-0.295
1820,0.010,-0.295
1821,0.016,-0.295
1822,0.017,-0.295
1823,0.019,-0.295
1824,0.020,-0.292
1825,0.020,-0.292
1826,0.022,-0.292
1827,0.024,-0.292
1828,0.024,-0.291
1829,0.025,-0.291
1830,0.026,-0.291
1831,0.026,-0.291
1832,0.026,-0.289
1833,0.025,-0.289
1834,0.024,-0.289
1835,0.023,-0.289
1836,0.021,-0.287
1837,0.020,-0.287
1838,0.021,-0.287
1839,0.021,-0.287
1840,0.022,-0.286
1841,0.023,-0.286
1842,0.024,-0.286
1843,0.026,-0.286
1844,0.028,-0.284
1845,0.030,-0.284
1846,0.031,-0.284
1847,0.032,-0.284
1848,0.034,-0.283
1849,0.036,-0.283
1850,0.039,-0.283
1851,0.042,-0.283
1852,0.044,-0.282
1853,0.045,-0.282
1854,0.045,-0.282
1855,0.045,-0.282
1856,0.043,-0.279
1857,0.041,-0.279
1858,0.040,-0.279
1859,0.039,-0.279
1860,0.042,-0.278
1861,0.045,-0.278
1862,0.051,-0.278
1863,0.057,-0.278
1864,0.061,-0.277
1865,0.066,-0.277
1866,0.066,-0.277
1867,0.066,-0.277
1868,0.062,-0.274
1869,0.059,-0.274
1870,0.053,-0.274
1871,0.048,-0.274
1872,0.045,-0.274
1873,0.042,-0.274
1874,0.044,-0.274
1875,0.045,-0.274
1876,0.049,-0.273
1877,0.053,-0.273
1878,0.054,-0.273
1879,0.056,-0.273
1880,0.057,-0.272
1881,0.059,-0.272
1882,0.060,-0.272
1883,0.062,-0.272
1884,0.063,-0.271
1885,0.064,-0.271
1886,0.066,-0.271
1887,0.067,-0.271
1888,0.069,-0.268
1889,0.070,-0.268
1890,0.072,-0.268
1891,0.074,-0.268
1892,0.074,-0.263
1893,0.074,-0.263
1894,0.074,-0.263
1895,0.074,-0.263
1896,0.074,-0.256
1897,0.074,-0.256
1898,0.073,-0.256
1899,0.073,-0.256
1900,0.071,-0.242
1901,0.069,-0.242
1902,0.067,-0.242
1903,0.066,-0.242
1904,0.066,-0.224
1905,0.066,-0.224
1906,0.069,-0.224
1907,0.072,-0.224
1908,0.076,-0.198
1909,0.081,-0.198
1910,0.087,-0.198
1911,0.093,-0.198
1912,0.097,-0.167
1913,0.100,-0.167
1914,0.101,-0.167
1915,0.101,-0.167
1916,0.100,-0.127
1917,0.099,-0.127
1918,0.097,-0.127
1919,0.094,-0.127
1920,0.093,-0.080
1921,0.091,-0.080
1922,0.089,-0.080
1923,0.087,-0.080
1924,0.088,-0.028
1925,0.088,-0.028
1926,0.090,-0.028
1927,0.092,-0.028
1928,0.096,0.032
1929,0.099,0.032
1930,0.104,0.032
1931,0.109,0.032
1932,0.112,0.091
1933,0.115,0.091
1934,0.115,0.091
1935,0.116,0.091
1936,0.115,0.153
1937,0.113,0.153
1938,0.111,0.153
1939,0.109,0.153
1940,0.109,0.214
1941,0.109,0.214
1942,0.110,0.214
1943,0.111,0.214
1944,0.113,0.273
1945,0.116,0.273
1946,0.116,0.273
1947,0.116,0.273
1948,0.111,0.329
1949,0.106,0.329
1950,0.100,0.329
1951,0.093,0.329
1952,0.087,0.349
1953,0.081,0.349
1954,0.079,0.349
1955,0.078,0.349
1956,0.079,0.398
1957,0.081,0.398
1958,0.087,0.398
1959,0.092,0.398
1960,0.100,0.440
1961,0.109,0.440
1962,0.116,0.440
1963,0.123,0.440
1964,0.127,0.478
1965,0.130,0.478
1966,0.127,0.478
1967,0.124,0.478
1968,0.115,0.511
1969,0.106,0.511
1970,0.097,0.511
1971,0.088,0.511
1972,0.082,0.540
1973,0.076,0.540
1974,0.075,0.540
1975,0.074,0.540
1976,0.077,0.567
1977,0.080,0.567
1978,0.084,0.567
1979,0.088,0.567
1980,0.091,0.590
1981,0.094,0.590
1982,0.093,0.590
1983,0.092,0.590
1984,0.088,0.609
1985,0.084,0.609
1986,0.078,0.609
1987,0.073,0.609
1988,0.068,0.626
1989,0.063,0.626
1990,0.059,0.626
1991,0.055,0.626
1992,0.053,0.638
1993,0.050,0.638
1994,0.048,0.638
1995,0.045,0.638
1996,0.041,0.649
1997,0.037,0.649
1998,0.033,0.649
1999,0.030,0.649
2000,0.027,0.657
2001,0.025,0.657
2002,0.023,0.657
2003,0.020,0.657
2004,0.019,0.662
2005,0.018,0.662
2006,0.019,0.662
2007,0.020,0.662
2008,0.021,0.664
2009,0.023,0.664
2010,0.023,0.664
2011,0.023,0.664
2012,0.024,0.662
2013,0.025,0.662
2014,0.026,0.662
2015,0.026,0.662
2016,0.026,0.656
2017,0.026,0.656
2018,0.026,0.656
2019,0.025,0.656
2020,0.023,0.646
2021,0.021,0.646
2022,0.018,0.646
2023,0.014,0.646
2024,0.011,0.634
2025,0.007,0.634
2026,0.005,0.634
2027,0.002,0.634
2028,0.002,0.618
2029,0.001,0.618
2030,0.002,0.618
2031,0.004,0.618
2032,0.006,0.597
2033,0.008,0.597
2034,0.011,0.597
2035,0.013,0.597
2036,0.013,0.572
2037,0.013,0.572
2038,0.013,0.572
2039,0.012,0.572
2040,0.010,0.545
2041,0.008,0.545
2042,0.005,0.545
2043,0.002,0.545
2044,0.000,0.514
2045,-0.002,0.514
2046,-0.006,0.514
2047,-0.010,0.514
2048,-0.011,0.481
2049,-0.013,0.481
2050,-0.010,0.481
2051,-0.007,0.481
2052,-0.002,0.447
2053,0.002,0.447
2054,0.008,0.447
2055,0.013,0.447
2056,0.016,0.414
2057,0.018,0.414
2058,0.018,0.414
2059,0.018,0.414
2060,0.017,0.378
2061,0.016,0.378
2062,0.014,0.378
2063,0.012,0.378
2064,0.009,0.344
2065,0.006,0.344
2066,0.004,0.344
2067,0.001,0.344
2068,0.002,0.310
2069,0.002,0.310
2070,0.004,0.310
2071,0.005,0.310
2072,0.006,0.280
2073,0.007,0.280
2074,0.009,0.280
2075,0.011,0.280
2076,0.011,0.248
2077,0.012,0.248
2078,0.013,0.248
2079,0.013,0.248
2080,0.012,0.221
2081,0.011,0.221
2082,0.008,0.221
2083,0.005,0.221
2084,0.001,0.196
2085,-0.002,0.196
2086,-0.003,0.196
2087,-0.004,0.196
2088,-0.002,0.171
2089,0.000,0.171
2090,0.003,0.171
2091,0.006,0.171
2092,0.010,0.148
2093,0.013,0.148
2094,0.015,0.148
2095,0.017,0.148
2096,0.017,0.128
2097,0.017,0.128
2098,0.014,0.128
2099,0.011,0.128
2100,0.007,0.105
2101,0.002,0.105
2102,-0.002,0.105
2103,-0.006,0.105
2104,-0.007,0.087
2105,-0.008,0.087
2106,-0.006,0.087
2107,-0.004,0.087
2108,0.000,0.069
2109,0.004,0.069
2110,0.007,0.069
2111,0.010,0.069
2112,0.010,0.051
2113,0.011,0.051
2114,0.008,0.051
2115,0.005,0.051
2116,0.002,0.033
2117,-0.001,0.033
2118,-0.001,0.033
2119,-0.001,0.033
2120,0.000,0.017
2121,0.001,0.017
2122,0.002,0.017
2123,0.004,0.017
2124,0.004,-0.002
2125,0.004,-0.002
2126,0.004,-0.002
2127,0.004,-0.002
2128,0.004,-0.018
2129,0.005,-0.018
2130,0.006,-0.018
2131,0.007,-0.018
2132,0.009,-0.035
2133,0.011,-0.035
2134,0.011,-0.035
2135,0.012,-0.035
2136,0.012,-0.052
2137,0.012,-0.052
2138,0.010,-0.052
2139,0.007,-0.052
2140,0.002,-0.070
2141,-0.002,-0.070
2142,-0.005,-0.070
2143,-0.008,-0.070
2144,-0.009,-0.087
2145,-0.010,-0.087
2146,-0.008,-0.087
2147,-0.007,-0.087
2148,-0.004,-0.105
2149,0.000,-0.105
2150,0.001,-0.105
2151,0.002,-0.105
2152,0.001,-0.120
2153,-0.001,-0.120
2154,-0.005,-0.120
2155,-0.010,-0.120
2156,-0.011,-0.137
2157,-0.013,-0.137
2158,-0.010,-0.137
2159,-0.007,-0.137
2160,-0.003,-0.153
2161,0.001,-0.153
2162,0.006,-0.153
2163,0.011,-0.153
2164,0.014,-0.169
2165,0.017,-0.169
2166,0.018,-0.169
2167,0.019,-0.169
2168,0.020,-0.182
2169,0.021,-0.182
2170,0.024,-0.182
2171,0.026,-0.182
2172,0.026,-0.198
2173,0.025,-0.198
2174,0.023,-0.198
2175,0.021,-0.198
2176,0.018,-0.211
2177,0.014,-0.211
2178,0.010,-0.211
2179,0.006,-0.211
2180,0.003,-0.225
2181,0.000,-0.225
2182,-0.001,-0.225
2183,-0.001,-0.225
2184,-0.001,-0.238
2185,0.000,-0.238
2186,0.001,-0.238
2187,0.002,-0.238
2188,0.005,-0.251
2189,0.008,-0.251
2190,0.011,-0.251
2191,0.013,-0.251
2192,0.013,-0.264
2193,0.013,-0.264
2194,0.013,-0.264
2195,0.013,-0.264
2196,0.012,-0.276
2197,0.011,-0.276
2198,0.008,-0.276
2199,0.006,-0.276
2200,0.004,-0.287
2201,0.002,-0.287
2202,0.004,-0.287
2203,0.005,-0.287
2204,0.006,-0.298
2205,0.007,-0.298
2206,0.009,-0.298
2207,0.011,-0.298
2208,0.012,-0.309
2209,0.013,-0.309
2210,0.016,-0.309
2211,0.019,-0.309
2212,0.024,-0.321
2213,0.029,-0.321
2214,0.035,-0.321
2215,0.041,-0.321
2216,0.045,-0.331
2217,0.050,-0.331
2218,0.053,-0.331
2219,0.056,-0.331
2220,0.057,-0.339
2221,0.057,-0.339
2222,0.057,-0.339
2223,0.056,-0.339
2224,0.056,-0.347
2225,0.056,-0.347
2226,0.056,-0.347
2227,0.055,-0.347
2228,0.054,-0.355
2229,0.053,-0.355
2230,0.051,-0.355
2231,0.050,-0.355
2232,0.049,-0.362
2233,0.048,-0.362
2234,0.045,-0.362
2235,0.042,-0.362
2236,0.039,-0.369
2237,0.037,-0.369
2238,0.033,-0.369
2239,0.029,-0.369
2240,0.024,-0.376
2241,0.020,-0.376
2242,0.017,-0.376
2243,0.014,-0.376
2244,0.011,-0.383
2245,0.007,-0.383
2246,0.004,-0.383
2247,0.000,-0.383
2248,-0.005,-0.388
2249,-0.010,-0.388
2250,-0.014,-0.388
2251,-0.018,-0.388
2252,-0.018,-0.393
2253,-0.018,-0.393
2254,-0.014,-0.393
2255,-0.011,-0.393
2256,-0.005,-0.398
2257,0.000,-0.398
2258,0.005,-0.398
2259,0.010,-0.398
2260,0.012,-0.403
2261,0.014,-0.403
2262,0.015,-0.403
2263,0.016,-0.403
2264,0.015,-0.406
2265,0.014,-0.406
2266,0.013,-0.406
2267,0.011,-0.406
2268,0.010,-0.411
2269,0.008,-0.411
2270,0.006,-0.411
2271,0.004,-0.411
2272,0.005,-0.415
2273,0.006,-0.415
2274,0.011,-0.415
2275,0.017,-0.415
2276,0.027,-0.420
2277,0.037,-0.420
2278,0.053,-0.420
2279,0.069,-0.420
2280,0.091,-0.424
2281,0.112,-0.424
2282,0.132,-0.424
2283,0.152,-0.424
2284,0.167,-0.427
2285,0.181,-0.427
2286,0.183,-0.427
2287,0.184,-0.427
2288,0.162,-0.431
2289,0.140,-0.431
2290,0.088,-0.431
2291,0.037,-0.431
2292,-0.036,-0.434
2293,-0.110,-0.434
2294,-0.187,-0.434
2295,-0.265,-0.434
2296,-0.329,-0.436
2297,-0.393,-0.436
2298,-0.433,-0.436
2299,-0.473,-0.436
2300,-0.493,-0.439
2301,-0.512,-0.439
2302,-0.521,-0.439
2303,-0.529,-0.439
2304,-0.533,-0.441
2305,-0.536,-0.441
2306,-0.531,-0.441
2307,-0.527,-0.441
2308,-0.508,-0.443
2309,-0.490,-0.443
2310,-0.454,-0.443
2311,-0.419,-0.443
2312,-0.371,-0.444
2313,-0.324,-0.444
2314,-0.272,-0.444
2315,-0.221,-0.444
2316,-0.174,-0.445
2317,-0.127,-0.445
2318,-0.090,-0.445
2319,-0.053,-0.445
2320,-0.029,-0.445
2321,-0.005,-0.445
2322,0.010,-0.445
2323,0.025,-0.445
2324,0.036,-0.445
2325,0.048,-0.445
2326,0.056,-0.445
2327,0.064,-0.445
2328,0.070,-0.443
2329,0.076,-0.443
2330,0.078,-0.443
2331,0.080,-0.443
2332,0.078,-0.443
2333,0.075,-0.443
2334,0.071,-0.443
2335,0.067,-0.443
2336,0.063,-0.442
2337,0.059,-0.442
2338,0.056,-0.442
2339,0.053,-0.442
2340,0.050,-0.441
2341,0.048,-0.441
2342,0.045,-0.441
2343,0.043,-0.441
2344,0.041,-0.440
2345,0.039,-0.440
2346,0.041,-0.440
2347,0.042,-0.440
2348,0.046,-0.438
2349,0.050,-0.438
2350,0.054,-0.438
2351,0.057,-0.438
2352,0.057,-0.438
2353,0.057,-0.438
2354,0.056,-0.438
2355,0.054,-0.438
2356,0.051,-0.436
2357,0.049,-0.436
2358,0.048,-0.436
2359,0.048,-0.436
2360,0.050,-0.434
2361,0.053,-0.434
2362,0.057,-0.434
2363,0.062,-0.434
2364,0.067,-0.435
2365,0.073,-0.435
2366,0.079,-0.435
2367,0.085,-0.435
2368,0.088,-0.434
2369,0.092,-0.434
2370,0.093,-0.434
2371,0.094,-0.434
2372,0.090,-0.434
2373,0.086,-0.434
2374,0.081,-0.434
2375,0.075,-0.434
2376,0.070,-0.434
2377,0.064,-0.434
2378,0.060,-0.434
2379,0.056,-0.434
2380,0.056,-0.434
2381,0.056,-0.434
2382,0.059,-0.434
2383,0.061,-0.434
2384,0.064,-0.433
2385,0.067,-0.433
2386,0.069,-0.433
2387,0.072,-0.433
2388,0.076,-0.432
2389,0.081,-0.432
2390,0.087,-0.432
2391,0.093,-0.432
2392,0.098,-0.430
2393,0.103,-0.430
2394,0.106,-0.430
2395,0.109,-0.430
2396,0.109,-0.424
2397,0.109,-0.424
2398,0.106,-0.424
2399,0.103,-0.424
2400,0.099,-0.413
2401,0.096,-0.413
2402,0.093,-0.413
2403,0.090,-0.413
2404,0.089,-0.399
2405,0.088,-0.399
2406,0.091,-0.399
2407,0.093,-0.399
2408,0.097,-0.379
2409,0.100,-0.379
2410,0.103,-0.379
2411,0.106,-0.379
2412,0.108,-0.351
2413,0.110,-0.351
2414,0.111,-0.351
2415,0.112,-0.351
2416,0.113,-0.318
2417,0.113,-0.318
2418,0.114,-0.318
2419,0.115,-0.318
2420,0.117,-0.276
2421,0.119,-0.276
2422,0.124,-0.276
2423,0.129,-0.276
2424,0.134,-0.226
2425,0.140,-0.226
2426,0.143,-0.226
2427,0.146,-0.226
2428,0.147,-0.173
2429,0.148,-0.173
2430,0.149,-0.173
2431,0.149,-0.173
2432,0.150,-0.115
2433,0.152,-0.115
2434,0.152,-0.115
2435,0.152,-0.115
2436,0.149,-0.054
2437,0.147,-0.054
2438,0.141,-0.054
2439,0.136,-0.054
2440,0.129,0.006
2441,0.122,0.006
2442,0.116,0.006
2443,0.111,0.006
2444,0.109,0.065
2445,0.107,0.065
2446,0.106,0.065
2447,0.104,0.065
2448,0.101,0.121
2449,0.099,0.121
2450,0.097,0.121
2451,0.094,0.121
2452,0.093,0.176
2453,0.092,0.176
2454,0.093,0.176
2455,0.093,0.176
2456,0.097,0.225
2457,0.100,0.225
2458,0.106,0.225
2459,0.111,0.225
2460,0.115,0.269
2461,0.119,0.269
2462,0.121,0.269
2463,0.122,0.269
2464,0.122,0.234
2465,0.123,0.234
2466,0.122,0.234
2467,0.122,0.234
2468,0.122,0.269
2469,0.122,0.269
2470,0.122,0.269
2471,0.123,0.269
2472,0.124,0.299
2473,0.125,0.299
2474,0.125,0.299
2475,0.124,0.299
2476,0.120,0.327
2477,0.116,0.327
2478,0.111,0.327
2479,0.106,0.327
2480,0.100,0.350
2481,0.094,0.350
2482,0.090,0.350
2483,0.085,0.350
2484,0.083,0.370
2485,0.081,0.370
2486,0.080,0.370
2487,0.079,0.370
2488,0.078,0.384
2489,0.078,0.384
2490,0.077,0.384
2491,0.076,0.384
2492,0.075,0.398
2493,0.074,0.398
2494,0.074,0.398
2495,0.074,0.398
2496,0.074,0.407
2497,0.074,0.407
2498,0.073,0.407
2499,0.072,0.407
2500,0.068,0.413
2501,0.064,0.413
2502,0.059,0.413
2503,0.053,0.413
2504,0.045,0.416
2505,0.037,0.416
2506,0.031,0.416
2507,0.025,0.416
2508,0.023,0.416
2509,0.020,0.416
2510,0.020,0.416
2511,0.020,0.416
2512,0.020,0.414
2513,0.020,0.414
2514,0.019,0.414
2515,0.018,0.414
2516,0.017,0.408
2517,0.016,0.408
2518,0.015,0.408
2519,0.014,0.408
2520,0.015,0.402
2521,0.016,0.402
2522,0.018,0.402
2523,0.020,0.402
2524,0.023,0.389
2525,0.026,0.389
2526,0.029,0.389
2527,0.031,0.389
2528,0.033,0.376
2529,0.036,0.376
2530,0.036,0.376
2531,0.037,0.376
2532,0.036,0.354
2533,0.035,0.354
2534,0.032,0.354
2535,0.030,0.354
2536,0.028,0.334
2537,0.026,0.334
2538,0.026,0.334
2539,0.025,0.334
2540,0.026,0.307
2541,0.026,0.307
2542,0.026,0.307
2543,0.025,0.307
2544,0.024,0.280
2545,0.023,0.280
2546,0.021,0.280
2547,0.019,0.280
2548,0.019,0.247
2549,0.018,0.247
2550,0.019,0.247
2551,0.019,0.247
2552,0.021,0.214
2553,0.024,0.214
2554,0.026,0.214
2555,0.029,0.214
2556,0.029,0.181
2557,0.030,0.181
2558,0.029,0.181
2559,0.029,0.181
2560,0.025,0.147
2561,0.021,0.147
2562,0.018,0.147
2563,0.014,0.147
2564,0.011,0.114
2565,0.008,0.114
2566,0.008,0.114
2567,0.008,0.114
2568,0.011,0.082
2569,0.013,0.082
2570,0.014,0.082
2571,0.016,0.082
2572,0.015,0.051
2573,0.014,0.051
2574,0.013,0.051
2575,0.011,0.051
2576,0.010,0.021
2577,0.008,0.021
2578,0.005,0.021
2579,0.002,0.021
2580,0.002,-0.007
2581,0.001,-0.007
2582,0.002,-0.007
2583,0.004,-0.007
2584,0.006,-0.030
2585,0.008,-0.030
2586,0.011,-0.030
2587,0.013,-0.030
2588,0.014,-0.053
2589,0.014,-0.053
2590,0.015,-0.053
2591,0.016,-0.053
2592,0.015,-0.074
2593,0.014,-0.074
2594,0.013,-0.074
2595,0.012,-0.074
2596,0.013,-0.094
2597,0.013,-0.094
2598,0.013,-0.094
2599,0.013,-0.094
2600,0.014,-0.110
2601,0.014,-0.110
2602,0.016,-0.110
2603,0.018,-0.110
2604,0.020,-0.127
2605,0.021,-0.127
2606,0.021,-0.127
2607,0.021,-0.127
2608,0.019,-0.142
2609,0.016,-0.142
2610,0.011,-0.142
2611,0.007,-0.142
2612,0.003,-0.157
2613,-0.001,-0.157
2614,-0.002,-0.157
2615,-0.004,-0.157
2616,-0.002,-0.171
2617,0.000,-0.171
2618,0.002,-0.171
2619,0.005,-0.171
2620,0.007,-0.185
2621,0.010,-0.185
2622,0.011,-0.185
2623,0.013,-0.185
2624,0.014,-0.200
2625,0.014,-0.200
2626,0.015,-0.200
2627,0.016,-0.200
2628,0.016,-0.211
2629,0.016,-0.211
2630,0.016,-0.211
2631,0.016,-0.211
2632,0.017,-0.226
2633,0.018,-0.226
2634,0.019,-0.226
2635,0.019,-0.226
2636,0.018,-0.238
2637,0.017,-0.238
2638,0.014,-0.238
2639,0.011,-0.238
2640,0.006,-0.252
2641,0.001,-0.252
2642,-0.004,-0.252
2643,-0.010,-0.252
2644,-0.012,-0.265
2645,-0.014,-0.265
2646,-0.013,-0.265
2647,-0.012,-0.265
2648,-0.008,-0.278
2649,-0.004,-0.278
2650,0.001,-0.278
2651,0.006,-0.278
2652,0.010,-0.289
2653,0.013,-0.289
2654,0.016,-0.289
2655,0.018,-0.289
2656,0.019,-0.302
2657,0.020,-0.302
2658,0.020,-0.302
2659,0.019,-0.302
2660,0.017,-0.314
2661,0.016,-0.314
2662,0.014,-0.314
2663,0.012,-0.314
2664,0.011,-0.327
2665,0.010,-0.327
2666,0.010,-0.327
2667,0.010,-0.327
2668,0.010,-0.340
2669,0.010,-0.340
2670,0.008,-0.340
2671,0.006,-0.340
2672,0.003,-0.351
2673,0.000,-0.351
2674,-0.003,-0.351
2675,-0.006,-0.351
2676,-0.006,-0.361
2677,-0.006,-0.361
2678,-0.003,-0.361
2679,0.000,-0.361
2680,0.004,-0.373
2681,0.008,-0.373
2682,0.011,-0.373
2683,0.014,-0.373
2684,0.016,-0.384
2685,0.017,-0.384
2686,0.016,-0.384
2687,0.016,-0.384
2688,0.012,-0.395
2689,0.008,-0.395
2690,0.004,-0.395
2691,0.000,-0.395
2692,-0.004,-0.405
2693,-0.008,-0.405
2694,-0.011,-0.405
2695,-0.014,-0.405
2696,-0.015,-0.413
2697,-0.016,-0.413
2698,-0.012,-0.413
2699,-0.008,-0.413
2700,-0.004,-0.422
2701,0.001,-0.422
2702,0.006,-0.422
2703,0.011,-0.422
2704,0.015,-0.430
2705,0.019,-0.430
2706,0.023,-0.430
2707,0.026,-0.430
2708,0.029,-0.440
2709,0.032,-0.440
2710,0.034,-0.440
2711,0.036,-0.440
2712,0.038,-0.447
2713,0.039,-0.447
2714,0.042,-0.447
2715,0.044,-0.447
2716,0.047,-0.454
2717,0.050,-0.454
2718,0.054,-0.454
2719,0.057,-0.454
2720,0.062,-0.460
2721,0.067,-0.460
2722,0.071,-0.460
2723,0.075,-0.460
2724,0.076,-0.468
2725,0.076,-0.468
2726,0.072,-0.468
2727,0.068,-0.468
2728,0.061,-0.473
2729,0.054,-0.473
2730,0.045,-0.473
2731,0.036,-0.473
2732,0.029,-0.478
2733,0.023,-0.478
2734,0.019,-0.478
2735,0.016,-0.478
2736,0.014,-0.484
2737,0.012,-0.484
2738,0.010,-0.484
2739,0.007,-0.484
2740,0.005,-0.488
2741,0.002,-0.488
2742,0.000,-0.488
2743,-0.002,-0.488
2744,-0.006,-0.491
2745,-0.010,-0.491
2746,-0.012,-0.491
2747,-0.014,-0.491
2748,-0.014,-0.497
2749,-0.013,-0.497
2750,-0.010,-0.497
2751,-0.006,-0.497
2752,-0.002,-0.499
2753,0.002,-0.499
2754,0.005,-0.499
2755,0.007,-0.499
2756,0.008,-0.503
2757,0.008,-0.503
2758,0.008,-0.503
2759,0.007,-0.503
2760,0.005,-0.506
2761,0.002,-0.506
2762,-0.002,-0.506
2763,-0.006,-0.506
2764,-0.010,-0.508
2765,-0.013,-0.508
2766,-0.013,-0.508
2767,-0.013,-0.508
2768,-0.010,-0.510
2769,-0.006,-0.510
2770,0.000,-0.510
2771,0.006,-0.510
2772,0.014,-0.511
2773,0.021,-0.511
2774,0.031,-0.511
2775,0.041,-0.511
2776,0.055,-0.511
2777,0.069,-0.511
2778,0.088,-0.511
2779,0.107,-0.511
2780,0.126,-0.511
2781,0.144,-0.511
2782,0.158,-0.511
2783,0.171,-0.511
2784,0.177,-0.511
2785,0.183,-0.511
2786,0.179,-0.511
2787,0.174,-0.511
2788,0.150,-0.510
2789,0.125,-0.510
2790,0.075,-0.510
2791,0.025,-0.510
2792,-0.045,-0.510
2793,-0.115,-0.510
2794,-0.191,-0.510
2795,-0.267,-0.510
2796,-0.336,-0.510
2797,-0.405,-0.510
2798,-0.456,-0.510
2799,-0.507,-0.510
2800,-0.540,-0.509
2801,-0.572,-0.509
2802,-0.589,-0.509
2803,-0.605,-0.509
2804,-0.609,-0.509
2805,-0.613,-0.509
2806,-0.599,-0.509
2807,-0.586,-0.509
2808,-0.554,-0.507
2809,-0.522,-0.507
2810,-0.474,-0.507
2811,-0.426,-0.507
2812,-0.370,-0.504
2813,-0.313,-0.504
2814,-0.257,-0.504
2815,-0.201,-0.504
2816,-0.153,-0.504
2817,-0.105,-0.504
2818,-0.070,-0.504
2819,-0.035,-0.504
2820,-0.014,-0.503
2821,0.007,-0.503
2822,0.017,-0.503
2823,0.026,-0.503
2824,0.029,-0.501
2825,0.032,-0.501
2826,0.034,-0.501
2827,0.036,-0.501
2828,0.038,-0.501
2829,0.041,-0.501
2830,0.044,-0.501
2831,0.048,-0.501
2832,0.050,-0.499
2833,0.051,-0.499
2834,0.050,-0.499
2835,0.048,-0.499
2836,0.045,-0.498
2837,0.043,-0.498
2838,0.044,-0.498
2839,0.044,-0.498
2840,0.048,-0.496
2841,0.051,-0.496
2842,0.056,-0.496
2843,0.061,-0.496
2844,0.066,-0.496
2845,0.072,-0.496
2846,0.075,-0.496
2847,0.078,-0.496
2848,0.079,-0.495
2849,0.080,-0.495
2850,0.078,-0.495
2851,0.076,-0.495
2852,0.075,-0.492
2853,0.073,-0.492
2854,0.071,-0.492
2855,0.069,-0.492
2856,0.067,-0.491
2857,0.066,-0.491
2858,0.065,-0.491
2859,0.064,-0.491
2860,0.065,-0.489
2861,0.066,-0.489
2862,0.066,-0.489
2863,0.066,-0.489
2864,0.066,-0.489
2865,0.066,-0.489
2866,0.065,-0.489
2867,0.064,-0.489
2868,0.062,-0.488
2869,0.060,-0.488
2870,0.056,-0.488
2871,0.051,-0.488
2872,0.048,-0.486
2873,0.045,-0.486
2874,0.044,-0.486
2875,0.043,-0.486
2876,0.044,-0.485
2877,0.045,-0.485
2878,0.049,-0.485
2879,0.053,-0.485
2880,0.054,-0.484
2881,0.056,-0.484
2882,0.057,-0.484
2883,0.059,-0.484
2884,0.060,-0.481
2885,0.062,-0.481
2886,0.064,-0.481
2887,0.067,-0.481
2888,0.070,-0.480
2889,0.074,-0.480
2890,0.076,-0.480
2891,0.079,-0.480
2892,0.079,-0.478
2893,0.079,-0.478
2894,0.078,-0.478
2895,0.078,-0.478
2896,0.078,-0.474
2897,0.078,-0.474
2898,0.079,-0.474
2899,0.080,-0.474
2900,0.083,-0.466
2901,0.086,-0.466
2902,0.091,-0.466
2903,0.096,-0.466
2904,0.100,-0.453
2905,0.105,-0.453
2906,0.109,-0.453
2907,0.112,-0.453
2908,0.115,-0.436
2909,0.118,-0.436
2910,0.120,-0.436
2911,0.122,-0.436
2912,0.123,-0.412
2913,0.124,-0.412
2914,0.125,-0.412
2915,0.125,-0.412
2916,0.127,-0.382
2917,0.128,-0.382
2918,0.128,-0.382
2919,0.129,-0.382
2920,0.127,-0.341
2921,0.125,-0.341
2922,0.121,-0.341
2923,0.117,-0.341
2924,0.112,-0.296
2925,0.107,-0.296
2926,0.106,-0.296
2927,0.104,-0.296
2928,0.104,-0.244
2929,0.104,-0.244
2930,0.105,-0.244
2931,0.106,-0.244
2932,0.108,-0.189
2933,0.110,-0.189
2934,0.112,-0.189
2935,0.113,-0.189
2936,0.116,-0.129
2937,0.118,-0.129
2938,0.119,-0.129
2939,0.121,-0.129
2940,0.119,-0.070
2941,0.117,-0.070
2942,0.112,-0.070
2943,0.107,-0.070
2944,0.103,-0.010
2945,0.098,-0.010
2946,0.095,-0.010
2947,0.092,-0.010
2948,0.092,0.049
2949,0.092,0.049
2950,0.094,0.049
2951,0.097,0.049
2952,0.101,0.103
2953,0.105,0.103
2954,0.107,0.103
2955,0.109,0.103
2956,0.109,0.154
2957,0.109,0.154
2958,0.106,0.154
2959,0.103,0.154
2960,0.099,0.201
2961,0.096,0.201
2962,0.093,0.201
2963,0.091,0.201
2964,0.092,0.242
2965,0.093,0.242
2966,0.098,0.242
2967,0.103,0.242
2968,0.109,0.280
2969,0.115,0.280
2970,0.118,0.280
2971,0.122,0.280
2972,0.122,0.310
2973,0.122,0.310
2974,0.120,0.310
2975,0.118,0.310
2976,0.118,0.336
2977,0.117,0.336
2978,0.118,0.336
2979,0.118,0.336
2980,0.118,0.359
2981,0.118,0.359
2982,0.115,0.359
2983,0.112,0.359
2984,0.107,0.377
2985,0.103,0.377
2986,0.098,0.377
2987,0.093,0.377
2988,0.090,0.391
2989,0.086,0.391
2990,0.084,0.391
2991,0.082,0.391
2992,0.082,0.402
2993,0.081,0.402
2994,0.079,0.402
2995,0.078,0.402
2996,0.074,0.408
2997,0.070,0.408
2998,0.064,0.408
2999,0.059,0.408
3000,0.052,0.413
3001,0.045,0.413
3002,0.039,0.413
3003,0.032,0.413
3004,0.028,0.414
3005,0.024,0.414
3006,0.022,0.414
3007,0.020,0.414
3008,0.019,0.411
3009,0.018,0.411
3010,0.017,0.411
3011,0.017,0.411
3012,0.017,0.406
3013,0.017,0.406
3014,0.017,0.406
3015,0.017,0.406
3016,0.017,0.397
3017,0.018,0.397
3018,0.019,0.397
3019,0.020,0.397
3020,0.022,0.387
3021,0.024,0.387
3022,0.024,0.387
3023,0.025,0.387
3024,0.026,0.371
3025,0.026,0.371
3026,0.026,0.371
3027,0.026,0.371
3028,0.026,0.351
3029,0.025,0.351
3030,0.024,0.351
3031,0.023,0.351
3032,0.021,0.330
3033,0.020,0.330
3034,0.021,0.330
3035,0.021,0.330
3036,0.021,0.305
3037,0.020,0.305
3038,0.019,0.305
3039,0.018,0.305
3040,0.017,0.277
3041,0.017,0.277
3042,0.016,0.277
3043,0.016,0.277
3044,0.014,0.246
3045,0.013,0.246
3046,0.012,0.246
3047,0.011,0.246
3048,0.010,0.213
3049,0.010,0.213
3050,0.009,0.213
3051,0.008,0.213
3052,0.011,0.180
3053,0.013,0.180
3054,0.016,0.180
3055,0.018,0.180
3056,0.020,0.147
3057,0.023,0.147
3058,0.025,0.147
3059,0.027,0.147
3060,0.029,0.114
3061,0.031,0.114
3062,0.032,0.114
3063,0.033,0.114
3064,0.030,0.079
3065,0.027,0.079
3066,0.021,0.079
3067,0.014,0.079
3068,0.007,0.048
3069,-0.001,0.048
3070,-0.005,0.048
3071,-0.010,0.048
3072,-0.010,0.018
3073,-0.010,0.018
3074,-0.007,0.018
3075,-0.004,0.018
3076,-0.001,-0.010
3077,0.001,-0.010
3078,0.002,-0.010
3079,0.004,-0.010
3080,0.003,-0.036
3081,0.002,-0.036
3082,0.001,-0.036
3083,0.000,-0.036
3084,-0.001,-0.060
3085,-0.001,-0.060
3086,0.000,-0.060
3087,0.001,-0.060
3088,0.002,-0.083
3089,0.004,-0.083
3090,0.004,-0.083
3091,0.004,-0.083
3092,0.004,-0.102
3093,0.005,-0.102
3094,0.007,-0.102
3095,0.008,-0.102
3096,0.011,-0.121
3097,0.014,-0.121
3098,0.016,-0.121
3099,0.017,-0.121
3100,0.017,-0.139
3101,0.018,-0.139
3102,0.017,-0.139
3103,0.017,-0.139
3104,0.016,-0.155
3105,0.016,-0.155
3106,0.013,-0.155
3107,0.011,-0.155
3108,0.007,-0.170
3109,0.004,-0.170
3110,0.001,-0.170
3111,-0.001,-0.170
3112,-0.002,-0.183
3113,-0.004,-0.183
3114,-0.005,-0.183
3115,-0.007,-0.183
3116,-0.008,-0.198
3117,-0.010,-0.198
3118,-0.008,-0.198
3119,-0.007,-0.198
3120,-0.004,-0.210
3121,0.000,-0.210
3122,0.002,-0.210
3123,0.005,-0.210
3124,0.007,-0.224
3125,0.010,-0.224
3126,0.011,-0.224
3127,0.012,-0.224
3128,0.011,-0.237
3129,0.010,-0.237
3130,0.008,-0.237
3131,0.006,-0.237
3132,0.005,-0.250
3133,0.005,-0.250
3134,0.004,-0.250
3135,0.004,-0.250
3136,0.004,-0.263
3137,0.004,-0.263
3138,0.004,-0.263
3139,0.004,-0.263
3140,0.004,-0.275
3141,0.004,-0.275
3142,0.004,-0.275
3143,0.005,-0.275
3144,0.006,-0.286
3145,0.007,-0.286
3146,0.009,-0.286
3147,0.011,-0.286
3148,0.011,-0.301
3149,0.012,-0.301
3150,0.013,-0.301
3151,0.013,-0.301
3152,0.013,-0.312
3153,0.012,-0.312
3154,0.010,-0.312
3155,0.007,-0.312
3156,0.002,-0.325
3157,-0.002,-0.325
3158,-0.005,-0.325
3159,-0.008,-0.325
3160,-0.008,-0.337
3161,-0.008,-0.337
3162,-0.006,-0.337
3163,-0.004,-0.337
3164,0.000,-0.349
3165,0.004,-0.349
3166,0.007,-0.349
3167,0.010,-0.349
3168,0.011,-0.361
3169,0.012,-0.361
3170,0.011,-0.361
3171,0.010,-0.361
3172,0.008,-0.372
3173,0.006,-0.372
3174,0.005,-0.372
3175,0.005,-0.372
3176,0.004,-0.384
3177,0.004,-0.384
3178,0.004,-0.384
3179,0.004,-0.384
3180,0.004,-0.393
3181,0.004,-0.393
3182,0.004,-0.393
3183,0.004,-0.393
3184,0.004,-0.402
3185,0.005,-0.402
3186,0.006,-0.402
3187,0.007,-0.402
3188,0.008,-0.411
3189,0.010,-0.411
3190,0.008,-0.411
3191,0.007,-0.411
3192,0.005,-0.420
3193,0.002,-0.420
3194,-0.002,-0.420
3195,-0.006,-0.420
3196,-0.010,-0.428
3197,-0.013,-0.428
3198,-0.014,-0.428
3199,-0.014,-0.428
3200,-0.013,-0.438
3201,-0.011,-0.438
3202,-0.005,-0.438
3203,0.000,-0.438
3204,0.005,-0.444
3205,0.010,-0.444
3206,0.013,-0.444
3207,0.016,-0.444
3208,0.020,-0.453
3209,0.024,-0.453
3210,0.028,-0.453
3211,0.032,-0.453
3212,0.037,-0.459
3213,0.042,-0.459
3214,0.047,-0.459
3215,0.053,-0.459
3216,0.056,-0.467
3217,0.060,-0.467
3218,0.063,-0.467
3219,0.066,-0.467
3220,0.068,-0.472
3221,0.070,-0.472
3222,0.072,-0.472
3223,0.074,-0.472
3224,0.073,-0.478
3225,0.072,-0.478
3226,0.067,-0.478
3227,0.063,-0.478
3228,0.056,-0.485
3229,0.049,-0.485
3230,0.041,-0.485
3231,0.033,-0.485
3232,0.029,-0.508
3233,0.024,-0.508
3234,0.023,-0.508
3235,0.021,-0.508
3236,0.021,-0.515
3237,0.021,-0.515
3238,0.020,-0.515
3239,0.019,-0.515
3240,0.016,-0.519
3241,0.012,-0.519
3242,0.006,-0.519
3243,0.000,-0.519
3244,-0.008,-0.521
3245,-0.016,-0.521
3246,-0.022,-0.521
3247,-0.029,-0.521
3248,-0.033,-0.525
3249,-0.037,-0.525
3250,-0.038,-0.525
3251,-0.039,-0.525
3252,-0.039,-0.527
3253,-0.038,-0.527
3254,-0.035,-0.527
3255,-0.031,-0.527
3256,-0.027,-0.531
3257,-0.024,-0.531
3258,-0.021,-0.531
3259,-0.018,-0.531
3260,-0.015,-0.532
3261,-0.012,-0.532
3262,-0.010,-0.532
3263,-0.007,-0.532
3264,-0.004,-0.532
3265,0.000,-0.532
3266,0.002,-0.532
3267,0.005,-0.532
3268,0.007,-0.533
3269,0.010,-0.533
3270,0.012,-0.533
3271,0.014,-0.533
3272,0.017,-0.533
3273,0.019,-0.533
3274,0.025,-0.533
3275,0.031,-0.533
3276,0.042,-0.534
3277,0.054,-0.534
3278,0.070,-0.534
3279,0.086,-0.534
3280,0.106,-0.534
3281,0.127,-0.534
3282,0.147,-0.534
3283,0.167,-0.534
3284,0.181,-0.535
3285,0.196,-0.535
3286,0.197,-0.535
3287,0.198,-0.535
3288,0.178,-0.535
3289,0.158,-0.535
3290,0.107,-0.535
3291,0.056,-0.535
3292,-0.021,-0.535
3293,-0.099,-0.535
3294,-0.187,-0.535
3295,-0.276,-0.535
3296,-0.355,-0.534
3297,-0.433,-0.534
3298,-0.490,-0.534
3299,-0.546,-0.534
3300,-0.579,-0.535
3301,-0.611,-0.535
3302,-0.629,-0.535
3303,-0.646,-0.535
3304,-0.651,-0.534
3305,-0.657,-0.534
3306,-0.645,-0.534
3307,-0.634,-0.534
3308,-0.599,-0.533
3309,-0.565,-0.533
3310,-0.508,-0.533
3311,-0.451,-0.533
3312,-0.385,-0.533
3313,-0.319,-0.533
3314,-0.257,-0.533
3315,-0.195,-0.533
3316,-0.146,-0.532
3317,-0.098,-0.532
3318,-0.066,-0.532
3319,-0.035,-0.532
3320,-0.017,-0.532
3321,0.001,-0.532
3322,0.009,-0.532
3323,0.017,-0.532
3324,0.020,-0.529
3325,0.023,-0.529
3326,0.025,-0.529
3327,0.027,-0.529
3328,0.029,-0.529
3329,0.031,-0.529
3330,0.034,-0.529
3331,0.037,-0.529
3332,0.040,-0.526
3333,0.043,-0.526
3334,0.046,-0.526
3335,0.049,-0.526
3336,0.051,-0.525
3337,0.054,-0.525
3338,0.056,-0.525
3339,0.057,-0.525
3340,0.059,-0.524
3341,0.060,-0.524
3342,0.061,-0.524
3343,0.062,-0.524
3344,0.061,-0.521
3345,0.061,-0.521
3346,0.061,-0.521
3347,0.061,-0.521
3348,0.061,-0.518
3349,0.061,-0.518
3350,0.060,-0.518
3351,0.060,-0.518
3352,0.058,-0.517
3353,0.056,-0.517
3354,0.054,-0.517
3355,0.051,-0.517
3356,0.050,-0.516
3357,0.048,-0.516
3358,0.048,-0.516
3359,0.048,-0.516
3360,0.050,-0.513
3361,0.053,-0.513
3362,0.056,-0.513
3363,0.059,-0.513
3364,0.061,-0.511
3365,0.064,-0.511
3366,0.065,-0.511
3367,0.066,-0.511
3368,0.064,-0.511
3369,0.063,-0.511
3370,0.060,-0.511
3371,0.057,-0.511
3372,0.054,-0.510
3373,0.051,-0.510
3374,0.052,-0.510
3375,0.053,-0.510
3376,0.056,-0.508
3377,0.059,-0.508
3378,0.062,-0.508
3379,0.066,-0.508
3380,0.067,-0.505
3381,0.069,-0.505
3382,0.069,-0.505
3383,0.069,-0.505
3384,0.067,-0.505
3385,0.066,-0.505
3386,0.065,-0.505
3387,0.064,-0.505
3388,0.066,-0.501
3389,0.067,-0.501
3390,0.069,-0.501
3391,0.070,-0.501
3392,0.073,-0.497
3393,0.075,-0.497
3394,0.077,-0.497
3395,0.079,-0.497
3396,0.081,-0.489
3397,0.082,-0.489
3398,0.083,-0.489
3399,0.084,-0.489
3400,0.083,-0.480
3401,0.082,-0.480
3402,0.082,-0.480
3403,0.082,-0.480
3404,0.084,-0.465
3405,0.085,-0.465
3406,0.087,-0.465
3407,0.088,-0.465
3408,0.088,-0.445
3409,0.088,-0.445
3410,0.088,-0.445
3411,0.087,-0.445
3412,0.088,-0.416
3413,0.088,-0.416
3414,0.091,-0.416
3415,0.094,-0.416
3416,0.100,-0.382
3417,0.105,-0.382
3418,0.110,-0.382
3419,0.116,-0.382
3420,0.119,-0.340
3421,0.123,-0.340
3422,0.124,-0.340
3423,0.125,-0.340
3424,0.123,-0.291
3425,0.121,-0.291
3426,0.116,-0.291
3427,0.112,-0.291
3428,0.109,-0.236
3429,0.106,-0.236
3430,0.104,-0.236
3431,0.101,-0.236
3432,0.101,-0.176
3433,0.100,-0.176
3434,0.101,-0.176
3435,0.103,-0.176
3436,0.104,-0.112
3437,0.106,-0.112
3438,0.107,-0.112
3439,0.109,-0.112
3440,0.109,-0.049
3441,0.109,-0.049
3442,0.108,-0.049
3443,0.107,-0.049
3444,0.106,0.014
3445,0.104,0.014
3446,0.101,0.014
3447,0.098,0.014
3448,0.094,0.076
3449,0.090,0.076
3450,0.086,0.076
3451,0.082,0.076
3452,0.083,0.132
3453,0.084,0.132
3454,0.088,0.132
3455,0.092,0.132
3456,0.097,0.185
3457,0.101,0.185
3458,0.103,0.185
3459,0.104,0.185
3460,0.102,0.233
3461,0.100,0.233
3462,0.097,0.233
3463,0.094,0.233
3464,0.092,0.274
3465,0.090,0.274
3466,0.087,0.274
3467,0.085,0.274
3468,0.085,0.309
3469,0.086,0.309
3470,0.090,0.309
3471,0.093,0.309
3472,0.097,0.339
3473,0.101,0.339
3474,0.103,0.339
3475,0.104,0.339
3476,0.101,0.364
3477,0.099,0.364
3478,0.094,0.364
3479,0.090,0.364
3480,0.085,0.384
3481,0.081,0.384
3482,0.080,0.384
3483,0.079,0.384
3484,0.080,0.401
3485,0.081,0.401
3486,0.082,0.401
3487,0.082,0.401
3488,0.082,0.423
3489,0.082,0.423
3490,0.079,0.423
3491,0.076,0.423
3492,0.072,0.431
3493,0.068,0.431
3494,0.064,0.431
3495,0.060,0.431
3496,0.054,0.440
3497,0.049,0.440
3498,0.043,0.440
3499,0.037,0.440
3500,0.032,0.442
3501,0.027,0.442
3502,0.024,0.442
3503,0.020,0.442
3504,0.019,0.441
3505,0.017,0.441
3506,0.017,0.441
3507,0.017,0.441
3508,0.017,0.437
3509,0.017,0.437
3510,0.017,0.437
3511,0.017,0.437
3512,0.017,0.432
3513,0.017,0.432
3514,0.017,0.432
3515,0.017,0.432
3516,0.017,0.423
3517,0.017,0.423
3518,0.017,0.423
3519,0.017,0.423
3520,0.017,0.412
3521,0.017,0.412
3522,0.017,0.412
3523,0.017,0.412
3524,0.017,0.397
3525,0.017,0.397
3526,0.017,0.397
3527,0.017,0.397
3528,0.017,0.380
3529,0.017,0.380
3530,0.016,0.380
3531,0.016,0.380
3532,0.013,0.358
3533,0.011,0.358
3534,0.007,0.358
3535,0.002,0.358
3536,-0.002,0.333
3537,-0.007,0.333
3538,-0.010,0.333
3539,-0.012,0.333
3540,-0.011,0.305
3541,-0.010,0.305
3542,-0.005,0.305
3543,-0.001,0.305
3544,0.004,0.276
3545,0.010,0.276
3546,0.014,0.276
3547,0.018,0.276
3548,0.020,0.243
3549,0.023,0.243
3550,0.023,0.243
3551,0.023,0.243
3552,0.021,0.209
3553,0.020,0.209
3554,0.018,0.209
3555,0.016,0.209
3556,0.011,0.176
3557,0.006,0.176
3558,0.000,0.176
3559,-0.006,0.176
3560,-0.010,0.144
3561,-0.014,0.144
3562,-0.014,0.144
3563,-0.014,0.144
3564,-0.013,0.111
3565,-0.011,0.111
3566,-0.008,0.111
3567,-0.005,0.111
3568,-0.002,0.080
3569,0.001,0.080
3570,0.003,0.080
3571,0.005,0.080
3572,0.004,0.050
3573,0.004,0.050
3574,0.004,0.050
3575,0.004,0.050
3576,0.004,0.024
3577,0.004,0.024
3578,0.003,0.024
3579,0.002,0.024
3580,0.001,-0.002
3581,0.000,-0.002
3582,-0.001,-0.002
3583,-0.001,-0.002
3584,-0.001,-0.023
3585,-0.001,-0.023
3586,-0.003,-0.023
3587,-0.005,-0.023
3588,-0.008,-0.043
3589,-0.011,-0.043
3590,-0.015,-0.043
3591,-0.019,-0.043
3592,-0.024,-0.062
3593,-0.029,-0.062
3594,-0.031,-0.062
3595,-0.033,-0.062
3596,-0.032,-0.078
3597,-0.031,-0.078
3598,-0.027,-0.078
3599,-0.024,-0.078
3600,-0.021,-0.094
3601,-0.018,-0.094
3602,-0.015,-0.094
3603,-0.012,-0.094
3604,-0.010,-0.108
3605,-0.007,-0.108
3606,-0.004,-0.108
3607,0.000,-0.108
3608,0.003,-0.122
3609,0.006,-0.122
3610,0.009,-0.122
3611,0.012,-0.122
3612,0.013,-0.137
3613,0.014,-0.137
3614,0.015,-0.137
3615,0.016,-0.137
3616,0.014,-0.149
3617,0.012,-0.149
3618,0.007,-0.149
3619,0.002,-0.149
3620,-0.002,-0.162
3621,-0.007,-0.162
3622,-0.011,-0.162
3623,-0.016,-0.162
3624,-0.019,-0.174
3625,-0.023,-0.174
3626,-0.024,-0.174
3627,-0.026,-0.174
3628,-0.027,-0.188
3629,-0.027,-0.188
3630,-0.026,-0.188
3631,-0.025,-0.188
3632,-0.023,-0.201
3633,-0.020,-0.201
3634,-0.016,-0.201
3635,-0.011,-0.201
3636,-0.005,-0.214
3637,0.001,-0.214
3638,0.005,-0.214
3639,0.008,-0.214
3640,0.008,-0.226
3641,0.008,-0.226
3642,0.005,-0.226
3643,0.001,-0.226
3644,-0.005,-0.237
3645,-0.011,-0.237
3646,-0.017,-0.237
3647,-0.023,-0.237
3648,-0.026,-0.249
3649,-0.029,-0.249
3650,-0.030,-0.249
3651,-0.031,-0.249
3652,-0.030,-0.263
3653,-0.030,-0.263
3654,-0.027,-0.263
3655,-0.025,-0.263
3656,-0.021,-0.275
3657,-0.017,-0.275
3658,-0.013,-0.275
3659,-0.008,-0.275
3660,-0.007,-0.286
3661,-0.005,-0.286
3662,-0.005,-0.286
3663,-0.005,-0.286
3664,-0.005,-0.295
3665,-0.005,-0.295
3666,-0.004,-0.295
3667,-0.002,-0.295
3668,0.001,-0.308
3669,0.004,-0.308
3670,0.007,-0.308
3671,0.010,-0.308
3672,0.011,-0.320
3673,0.012,-0.320
3674,0.010,-0.320
3675,0.008,-0.320
3676,0.005,-0.331
3677,0.002,-0.331
3678,0.000,-0.331
3679,-0.002,-0.331
3680,-0.005,-0.343
3681,-0.008,-0.343
3682,-0.010,-0.343
3683,-0.011,-0.343
3684,-0.012,-0.351
3685,-0.013,-0.351
3686,-0.013,-0.351
3687,-0.012,-0.351
3688,-0.009,-0.363
3689,-0.006,-0.363
3690,-0.002,-0.363
3691,0.002,-0.363
3692,0.004,-0.374
3693,0.006,-0.374
3694,0.004,-0.374
3695,0.001,-0.374
3696,-0.004,-0.383
3697,-0.008,-0.383
3698,-0.011,-0.383
3699,-0.014,-0.383
3700,-0.014,-0.393
3701,-0.013,-0.393
3702,-0.011,-0.393
3703,-0.010,-0.393
3704,-0.009,-0.402
3705,-0.008,-0.402
3706,-0.009,-0.402
3707,-0.010,-0.402
3708,-0.011,-0.409
3709,-0.013,-0.409
3710,-0.013,-0.409
3711,-0.013,-0.409
3712,-0.011,-0.417
3713,-0.010,-0.417
3714,-0.004,-0.417
3715,0.001,-0.417
3716,0.008,-0.425
3717,0.016,-0.425
3718,0.023,-0.425
3719,0.030,-0.425
3720,0.038,-0.430
3721,0.047,-0.430
3722,0.054,-0.430
3723,0.062,-0.430
3724,0.067,-0.436
3725,0.072,-0.436
3726,0.073,-0.436
3727,0.074,-0.436
3728,0.073,-0.442
3729,0.073,-0.442
3730,0.070,-0.442
3731,0.067,-0.442
3732,0.059,-0.447
3733,0.051,-0.447
3734,0.040,-0.447
3735,0.029,-0.447
3736,0.015,-0.454
3737,0.001,-0.454
3738,-0.008,-0.454
3739,-0.017,-0.454
3740,-0.020,-0.458
3741,-0.024,-0.458
3742,-0.024,-0.458
3743,-0.024,-0.458
3744,-0.024,-0.472
3745,-0.024,-0.472
3746,-0.027,-0.472
3747,-0.031,-0.472
3748,-0.036,-0.476
3749,-0.041,-0.476
3750,-0.042,-0.476
3751,-0.044,-0.476
3752,-0.043,-0.479
3753,-0.042,-0.479
3754,-0.038,-0.479
3755,-0.035,-0.479
3756,-0.030,-0.483
3757,-0.025,-0.483
3758,-0.022,-0.483
3759,-0.019,-0.483
3760,-0.020,-0.485
3761,-0.021,-0.485
3762,-0.024,-0.485
3763,-0.027,-0.485
3764,-0.029,-0.487
3765,-0.031,-0.487
3766,-0.031,-0.487
3767,-0.031,-0.487
3768,-0.028,-0.487
3769,-0.025,-0.487
3770,-0.020,-0.487
3771,-0.016,-0.487
3772,-0.010,-0.490
3773,-0.004,-0.490
3774,0.003,-0.490
3775,0.010,-0.490
3776,0.019,-0.491
3777,0.027,-0.491
3778,0.044,-0.491
3779,0.061,-0.491
3780,0.082,-0.490
3781,0.104,-0.490
3782,0.124,-0.490
3783,0.144,-0.490
3784,0.158,-0.490
3785,0.171,-0.490
3786,0.173,-0.490
3787,0.174,-0.490
3788,0.161,-0.489
3789,0.148,-0.489
3790,0.110,-0.489
3791,0.073,-0.489
3792,0.013,-0.490
3793,-0.047,-0.490
3794,-0.119,-0.490
3795,-0.191,-0.490
3796,-0.263,-0.487
3797,-0.334,-0.487
3798,-0.392,-0.487
3799,-0.449,-0.487
3800,-0.488,-0.485
3801,-0.528,-0.485
3802,-0.554,-0.485
3803,-0.580,-0.485
3804,-0.598,-0.484
3805,-0.616,-0.484
3806,-0.621,-0.484
3807,-0.626,-0.484
3808,-0.609,-0.480
3809,-0.592,-0.480
3810,-0.552,-0.480
3811,-0.512,-0.480
3812,-0.454,-0.478
3813,-0.396,-0.478
3814,-0.333,-0.478
3815,-0.269,-0.478
3816,-0.211,-0.478
3817,-0.153,-0.478
3818,-0.110,-0.478
3819,-0.067,-0.478
3820,-0.039,-0.477
3821,-0.012,-0.477
3822,0.004,-0.477
3823,0.019,-0.477
3824,0.026,-0.474
3825,0.033,-0.474
3826,0.037,-0.474
3827,0.041,-0.474
3828,0.043,-0.472
3829,0.045,-0.472
3830,0.047,-0.472
3831,0.048,-0.472
3832,0.047,-0.470
3833,0.047,-0.470
3834,0.044,-0.470
3835,0.042,-0.470
3836,0.039,-0.468
3837,0.036,-0.468
3838,0.034,-0.468
3839,0.032,-0.468
3840,0.031,-0.468
3841,0.030,-0.468
3842,0.027,-0.468
3843,0.025,-0.468
3844,0.023,-0.464
3845,0.021,-0.464
3846,0.021,-0.464
3847,0.021,-0.464
3848,0.024,-0.463
3849,0.026,-0.463
3850,0.030,-0.463
3851,0.033,-0.463
3852,0.039,-0.461
3853,0.044,-0.461
3854,0.048,-0.461
3855,0.053,-0.461
3856,0.052,-0.459
3857,0.051,-0.459
3858,0.049,-0.459
3859,0.047,-0.459
3860,0.042,-0.457
3861,0.038,-0.457
3862,0.036,-0.457
3863,0.033,-0.457
3864,0.032,-0.455
3865,0.031,-0.455
3866,0.031,-0.455
3867,0.031,-0.455
3868,0.033,-0.453
3869,0.035,-0.453
3870,0.038,-0.453
3871,0.041,-0.453
3872,0.044,-0.452
3873,0.048,-0.452
3874,0.051,-0.452
3875,0.055,-0.452
3876,0.059,-0.450
3877,0.062,-0.450
3878,0.065,-0.450
3879,0.068,-0.450
3880,0.071,-0.448
3881,0.074,-0.448
3882,0.076,-0.448
3883,0.079,-0.448
3884,0.080,-0.446
3885,0.081,-0.446
3886,0.079,-0.446
3887,0.076,-0.446
3888,0.073,-0.442
3889,0.069,-0.442
3890,0.067,-0.442
3891,0.064,-0.442
3892,0.063,-0.439
3893,0.061,-0.439
3894,0.060,-0.439
3895,0.060,-0.439
3896,0.060,-0.430
3897,0.061,-0.430
3898,0.061,-0.430
3899,0.061,-0.430
3900,0.061,-0.417
3901,0.062,-0.417
3902,0.064,-0.417
3903,0.067,-0.417
3904,0.071,-0.401
3905,0.075,-0.401
3906,0.079,-0.401
3907,0.084,-0.401
3908,0.085,-0.379
3909,0.087,-0.379
3910,0.087,-0.379
3911,0.086,-0.379
3912,0.084,-0.347
3913,0.082,-0.347
3914,0.082,-0.347
3915,0.082,-0.347
3916,0.083,-0.309
3917,0.084,-0.309
3918,0.084,-0.309
3919,0.085,-0.309
3920,0.084,-0.264
3921,0.084,-0.264
3922,0.084,-0.264
3923,0.084,-0.264
3924,0.087,-0.212
3925,0.090,-0.212
3926,0.095,-0.212
3927,0.100,-0.212
3928,0.106,-0.155
3929,0.112,-0.155
3930,0.118,-0.155
3931,0.123,-0.155
3932,0.124,-0.092
3933,0.125,-0.092
3934,0.124,-0.092
3935,0.122,-0.092
3936,0.119,-0.030
3937,0.116,-0.030
3938,0.115,-0.030
3939,0.113,-0.030
3940,0.113,0.035
3941,0.113,0.035
3942,0.116,0.035
3943,0.118,0.035
3944,0.120,0.099
3945,0.122,0.099
3946,0.122,0.099
3947,0.123,0.099
3948,0.122,0.158
3949,0.122,0.158
3950,0.121,0.158
3951,0.121,0.158
3952,0.119,0.213
3953,0.117,0.213
3954,0.113,0.213
3955,0.110,0.213
3956,0.104,0.265
3957,0.099,0.265
3958,0.095,0.265
3959,0.091,0.265
3960,0.088,0.311
3961,0.085,0.311
3962,0.084,0.311
3963,0.082,0.311
3964,0.083,0.352
3965,0.084,0.352
3966,0.086,0.352
3967,0.088,0.352
3968,0.093,0.388
3969,0.097,0.388
3970,0.101,0.388
3971,0.105,0.388
3972,0.106,0.420
3973,0.107,0.420
3974,0.106,0.420
3975,0.104,0.420
3976,0.099,0.447
3977,0.093,0.447
3978,0.088,0.447
3979,0.082,0.447
3980,0.080,0.469
3981,0.078,0.469
3982,0.078,0.469
3983,0.079,0.469
3984,0.080,0.485
3985,0.081,0.485
3986,0.081,0.485
3987,0.080,0.485
3988,0.076,0.499
3989,0.072,0.499
3990,0.064,0.499
3991,0.056,0.499
3992,0.047,0.511
3993,0.038,0.511
3994,0.032,0.511
3995,0.026,0.511
3996,0.024,0.519
3997,0.021,0.519
3998,0.020,0.519
3999,0.019,0.519
4000,0.019,0.536
4001,0.018,0.536
4002,0.018,0.536
4003,0.018,0.536
4004,0.020,0.537
4005,0.021,0.537
4006,0.024,0.537
4007,0.027,0.537
4008,0.029,0.536
4009,0.031,0.536
4010,0.033,0.536
4011,0.035,0.536
4012,0.033,0.533
4013,0.032,0.533
4014,0.028,0.533
4015,0.024,0.533
4016,0.017,0.525
4017,0.011,0.525
4018,0.005,0.525
4019,0.000,0.525
4020,-0.001,0.514
4021,-0.002,0.514
4022,0.000,0.514
4023,0.002,0.514
4024,0.006,0.500
4025,0.010,0.500
4026,0.014,0.500
4027,0.018,0.500
4028,0.021,0.482
4029,0.025,0.482
4030,0.028,0.482
4031,0.031,0.482
4032,0.033,0.461
4033,0.036,0.461
4034,0.036,0.461
4035,0.037,0.461
4036,0.035,0.435
4037,0.033,0.435
4038,0.029,0.435
4039,0.025,0.435
4040,0.021,0.407
4041,0.017,0.407
4042,0.014,0.407
4043,0.011,0.407
4044,0.010,0.379
4045,0.008,0.379
4046,0.008,0.379
4047,0.007,0.379
4048,0.008,0.343
4049,0.010,0.343
4050,0.011,0.343
4051,0.012,0.343
4052,0.013,0.308
4053,0.013,0.308
4054,0.013,0.308
4055,0.012,0.308
4056,0.010,0.271
4057,0.008,0.271
4058,0.006,0.271
4059,0.004,0.271
4060,0.004,0.234
4061,0.004,0.234
4062,0.004,0.234
4063,0.005,0.234
4064,0.007,0.198
4065,0.008,0.198
4066,0.011,0.198
4067,0.013,0.198
4068,0.013,0.162
4069,0.013,0.162
4070,0.013,0.162
4071,0.012,0.162
4072,0.011,0.128
4073,0.010,0.128
4074,0.009,0.128
4075,0.008,0.128
4076,0.011,0.097
4077,0.014,0.097
4078,0.018,0.097
4079,0.021,0.097
4080,0.024,0.068
4081,0.027,0.068
4082,0.029,0.068
4083,0.030,0.068
4084,0.030,0.040
4085,0.030,0.040
4086,0.027,0.040
4087,0.024,0.040
4088,0.020,0.015
4089,0.016,0.015
4090,0.011,0.015
4091,0.007,0.015
4092,0.004,-0.009
4093,0.000,-0.009
4094,-0.001,-0.009
4095,-0.001,-0.009
4096,0.000,-0.030
4097,0.001,-0.030
4098,0.002,-0.030
4099,0.004,-0.030
4100,0.003,-0.051
4101,0.002,-0.051
4102,0.000,-0.051
4103,-0.002,-0.051
4104,-0.005,-0.070
4105,-0.008,-0.070
4106,-0.009,-0.070
4107,-0.010,-0.070
4108,-0.008,-0.088
4109,-0.007,-0.088
4110,-0.004,-0.088
4111,0.000,-0.088
4112,0.002,-0.105
4113,0.004,-0.105
4114,0.005,-0.105
4115,0.006,-0.105
4116,0.007,-0.123
4117,0.008,-0.123
4118,0.008,-0.123
4119,0.008,-0.123
4120,0.008,-0.141
4121,0.008,-0.141
4122,0.008,-0.141
4123,0.007,-0.141
4124,0.006,-0.159
4125,0.005,-0.159
4126,0.004,-0.159
4127,0.002,-0.159
4128,0.001,-0.175
4129,-0.001,-0.175
4130,-0.003,-0.175
4131,-0.005,-0.175
4132,-0.004,-0.191
4133,-0.004,-0.191
4134,-0.002,-0.191
4135,0.000,-0.191
4136,0.002,-0.209
4137,0.005,-0.209
4138,0.008,-0.209
4139,0.012,-0.209
4140,0.017,-0.224
4141,0.023,-0.224
4142,0.027,-0.224
4143,0.032,-0.224
4144,0.035,-0.239
4145,0.037,-0.239
4146,0.036,-0.239
4147,0.035,-0.239
4148,0.031,-0.256
4149,0.027,-0.256
4150,0.021,-0.256
4151,0.016,-0.256
4152,0.012,-0.272
4153,0.008,-0.272
4154,0.008,-0.272
4155,0.008,-0.272
4156,0.011,-0.287
4157,0.013,-0.287
4158,0.015,-0.287
4159,0.017,-0.287
4160,0.018,-0.301
4161,0.019,-0.301
4162,0.019,-0.301
4163,0.019,-0.301
4164,0.019,-0.317
4165,0.018,-0.317
4166,0.017,-0.317
4167,0.017,-0.317
4168,0.016,-0.331
4169,0.016,-0.331
4170,0.014,-0.331
4171,0.012,-0.331
4172,0.010,-0.344
4173,0.008,-0.344
4174,0.008,-0.344
4175,0.007,-0.344
4176,0.008,-0.357
4177,0.008,-0.357
4178,0.009,-0.357
4179,0.010,-0.357
4180,0.011,-0.371
4181,0.013,-0.371
4182,0.015,-0.371
4183,0.017,-0.371
4184,0.017,-0.385
4185,0.018,-0.385
4186,0.017,-0.385
4187,0.017,-0.385
4188,0.017,-0.398
4189,0.017,-0.398
4190,0.017,-0.398
4191,0.017,-0.398
4192,0.017,-0.410
4193,0.017,-0.410
4194,0.016,-0.410
4195,0.016,-0.410
4196,0.014,-0.419
4197,0.013,-0.419
4198,0.013,-0.419
4199,0.012,-0.419
4200,0.013,-0.430
4201,0.013,-0.430
4202,0.014,-0.430
4203,0.014,-0.430
4204,0.017,-0.441
4205,0.019,-0.441
4206,0.022,-0.441
4207,0.025,-0.441
4208,0.027,-0.450
4209,0.029,-0.450
4210,0.030,-0.450
4211,0.031,-0.450
4212,0.033,-0.459
4213,0.036,-0.459
4214,0.038,-0.459
4215,0.041,-0.459
4216,0.044,-0.466
4217,0.048,-0.466
4218,0.051,-0.466
4219,0.055,-0.466
4220,0.059,-0.475
4221,0.062,-0.475
4222,0.064,-0.475
4223,0.067,-0.475
4224,0.067,-0.480
4225,0.068,-0.480
4226,0.067,-0.480
4227,0.066,-0.480
4228,0.063,-0.487
4229,0.060,-0.487
4230,0.058,-0.487
4231,0.056,-0.487
4232,0.056,-0.492
4233,0.056,-0.492
4234,0.056,-0.492
4235,0.055,-0.492
4236,0.052,-0.499
4237,0.049,-0.499
4238,0.043,-0.499
4239,0.037,-0.499
4240,0.029,-0.503
4241,0.020,-0.503
4242,0.011,-0.503
4243,0.001,-0.503
4244,-0.008,-0.507
4245,-0.017,-0.507
4246,-0.023,-0.507
4247,-0.029,-0.507
4248,-0.030,-0.512
4249,-0.032,-0.512
4250,-0.031,-0.512
4251,-0.030,-0.512
4252,-0.028,-0.516
4253,-0.026,-0.516
4254,-0.024,-0.516
4255,-0.021,-0.516
4256,-0.019,-0.516
4257,-0.016,-0.516
4258,-0.011,-0.516
4259,-0.007,-0.516
4260,-0.003,-0.521
4261,0.001,-0.521
4262,0.005,-0.521
4263,0.010,-0.521
4264,0.011,-0.523
4265,0.013,-0.523
4266,0.013,-0.523
4267,0.013,-0.523
4268,0.013,-0.524
4269,0.012,-0.524
4270,0.010,-0.524
4271,0.008,-0.524
4272,0.006,-0.527
4273,0.004,-0.527
4274,0.006,-0.527
4275,0.008,-0.527
4276,0.017,-0.528
4277,0.026,-0.528
4278,0.041,-0.528
4279,0.055,-0.528
4280,0.072,-0.529
4281,0.090,-0.529
4282,0.107,-0.529
4283,0.125,-0.529
4284,0.141,-0.530
4285,0.158,-0.530
4286,0.168,-0.530
4287,0.178,-0.530
4288,0.180,-0.530
4289,0.181,-0.530
4290,0.163,-0.530
4291,0.144,-0.530
4292,0.099,-0.530
4293,0.053,-0.530
4294,-0.018,-0.530
4295,-0.088,-0.530
4296,-0.166,-0.529
4297,-0.244,-0.529
4298,-0.310,-0.529
4299,-0.377,-0.529
4300,-0.423,-0.530
4301,-0.468,-0.530
4302,-0.496,-0.530
4303,-0.523,-0.530
4304,-0.541,-0.530
4305,-0.559,-0.530
4306,-0.570,-0.530
4307,-0.581,-0.530
4308,-0.579,-0.530
4309,-0.577,-0.530
4310,-0.555,-0.530
4311,-0.533,-0.530
4312,-0.488,-0.529
4313,-0.444,-0.529
4314,-0.385,-0.529
4315,-0.326,-0.529
4316,-0.264,-0.528
4317,-0.203,-0.528
4318,-0.150,-0.528
4319,-0.098,-0.528
4320,-0.060,-0.527
4321,-0.023,-0.527
4322,-0.001,-0.527
4323,0.021,-0.527
4324,0.032,-0.524
4325,0.043,-0.524
4326,0.047,-0.524
4327,0.050,-0.524
4328,0.051,-0.523
4329,0.051,-0.523
4330,0.049,-0.523
4331,0.047,-0.523
4332,0.042,-0.520
4333,0.038,-0.520
4334,0.036,-0.520
4335,0.033,-0.520
4336,0.032,-0.516
4337,0.030,-0.516
4338,0.028,-0.516
4339,0.026,-0.516
4340,0.026,-0.515
4341,0.025,-0.515
4342,0.027,-0.515
4343,0.029,-0.515
4344,0.033,-0.513
4345,0.038,-0.513
4346,0.046,-0.513
4347,0.054,-0.513
4348,0.061,-0.509
4349,0.068,-0.509
4350,0.071,-0.509
4351,0.074,-0.509
4352,0.073,-0.506
4353,0.073,-0.506
4354,0.070,-0.506
4355,0.068,-0.506
4356,0.065,-0.503
4357,0.062,-0.503
4358,0.061,-0.503
4359,0.061,-0.503
4360,0.063,-0.500
4361,0.066,-0.500
4362,0.067,-0.500
4363,0.069,-0.500
4364,0.070,-0.499
4365,0.070,-0.499
4366,0.070,-0.499
4367,0.070,-0.499
4368,0.072,-0.495
4369,0.073,-0.495
4370,0.073,-0.495
4371,0.074,-0.495
4372,0.074,-0.493
4373,0.074,-0.493
4374,0.075,-0.493
4375,0.075,-0.493
4376,0.076,-0.492
4377,0.078,-0.492
4378,0.079,-0.492
4379,0.081,-0.492
4380,0.084,-0.492
4381,0.086,-0.492
4382,0.089,-0.492
4383,0.092,-0.492
4384,0.091,-0.488
4385,0.091,-0.488
4386,0.085,-0.488
4387,0.080,-0.488
4388,0.073,-0.487
4389,0.067,-0.487
4390,0.061,-0.487
4391,0.055,-0.487
4392,0.051,-0.485
4393,0.047,-0.485
4394,0.045,-0.485
4395,0.044,-0.485
4396,0.047,-0.480
4397,0.049,-0.480
4398,0.053,-0.480
4399,0.057,-0.480
4400,0.062,-0.472
4401,0.067,-0.472
4402,0.072,-0.472
4403,0.076,-0.472
4404,0.081,-0.461
4405,0.086,-0.461
4406,0.091,-0.461
4407,0.096,-0.461
4408,0.099,-0.442
4409,0.103,-0.442
4410,0.104,-0.442
4411,0.105,-0.442
4412,0.105,-0.418
4413,0.105,-0.418
4414,0.106,-0.418
4415,0.106,-0.418
4416,0.108,-0.387
4417,0.110,-0.387
4418,0.111,-0.387
4419,0.112,-0.387
4420,0.114,-0.348
4421,0.116,-0.348
4422,0.118,-0.348
4423,0.119,-0.348
4424,0.119,-0.299
4425,0.119,-0.299
4426,0.120,-0.299
4427,0.121,-0.299
4428,0.122,-0.246
4429,0.124,-0.246
4430,0.125,-0.246
4431,0.127,-0.246
4432,0.130,-0.187
4433,0.133,-0.187
4434,0.136,-0.187
4435,0.139,-0.187
4436,0.140,-0.123
4437,0.142,-0.123
4438,0.142,-0.123
4439,0.142,-0.123
4440,0.141,-0.058
4441,0.140,-0.058
4442,0.137,-0.058
4443,0.134,-0.058
4444,0.130,0.008
4445,0.125,0.008
4446,0.122,0.008
4447,0.119,0.008
4448,0.116,0.072
4449,0.112,0.072
4450,0.109,0.072
4451,0.106,0.072
4452,0.102,0.133
4453,0.098,0.133
4454,0.092,0.133
4455,0.086,0.133
4456,0.082,0.190
4457,0.078,0.190
4458,0.079,0.190
4459,0.080,0.190
4460,0.084,0.241
4461,0.088,0.241
4462,0.095,0.241
4463,0.101,0.241
4464,0.106,0.289
4465,0.110,0.289
4466,0.112,0.289
4467,0.113,0.289
4468,0.113,0.331
4469,0.112,0.331
4470,0.110,0.331
4471,0.107,0.331
4472,0.103,0.366
4473,0.099,0.366
4474,0.096,0.366
4475,0.092,0.366
4476,0.091,0.398
4477,0.091,0.398
4478,0.092,0.398
4479,0.093,0.398
4480,0.096,0.426
4481,0.099,0.426
4482,0.100,0.426
4483,0.101,0.426
4484,0.100,0.449
4485,0.099,0.449
4486,0.097,0.449
4487,0.094,0.449
4488,0.093,0.466
4489,0.092,0.466
4490,0.092,0.466
4491,0.092,0.466
4492,0.093,0.481
4493,0.093,0.481
4494,0.092,0.481
4495,0.091,0.481
4496,0.088,0.494
4497,0.085,0.494
4498,0.081,0.494
4499,0.076,0.494
4500,0.072,0.502
4501,0.067,0.502
4502,0.061,0.502
4503,0.055,0.502
4504,0.050,0.505
4505,0.044,0.505
4506,0.039,0.505
4507,0.033,0.505
4508,0.029,0.508
4509,0.025,0.508
4510,0.026,0.508
4511,0.026,0.508
4512,0.028,0.521
4513,0.030,0.521
4514,0.031,0.521
4515,0.032,0.521
4516,0.032,0.516
4517,0.032,0.516
4518,0.031,0.516
4519,0.030,0.516
4520,0.027,0.509
4521,0.025,0.509
4522,0.023,0.509
4523,0.021,0.509
4524,0.021,0.498
4525,0.020,0.498
4526,0.021,0.498
4527,0.021,0.498
4528,0.021,0.481
4529,0.021,0.481
4530,0.021,0.481
4531,0.021,0.481
4532,0.021,0.464
4533,0.021,0.464
4534,0.021,0.464
4535,0.021,0.464
4536,0.021,0.442
4537,0.021,0.442
4538,0.021,0.442
4539,0.021,0.442
4540,0.021,0.416
4541,0.021,0.416
4542,0.021,0.416
4543,0.021,0.416
4544,0.021,0.388
4545,0.021,0.388
4546,0.021,0.388
4547,0.021,0.388
4548,0.021,0.356
4549,0.021,0.356
4550,0.021,0.356
4551,0.021,0.356
4552,0.021,0.323
4553,0.020,0.323
4554,0.019,0.323
4555,0.018,0.323
4556,0.017,0.287
4557,0.016,0.287
4558,0.014,0.287
4559,0.012,0.287
4560,0.010,0.252
4561,0.008,0.252
4562,0.008,0.252
4563,0.008,0.252
4564,0.011,0.215
4565,0.013,0.215
4566,0.015,0.215
4567,0.017,0.215
4568,0.017,0.180
4569,0.018,0.180
4570,0.018,0.180
4571,0.018,0.180
4572,0.019,0.147
4573,0.020,0.147
4574,0.021,0.147
4575,0.023,0.147
4576,0.021,0.118
4577,0.020,0.118
4578,0.019,0.118
4579,0.017,0.118
4580,0.014,0.090
4581,0.011,0.090
4582,0.007,0.090
4583,0.004,0.090
4584,0.001,0.064
4585,-0.002,0.064
4586,-0.003,0.064
4587,-0.004,0.064
4588,-0.002,0.043
4589,-0.001,0.043
4590,0.000,0.043
4591,0.001,0.043
4592,0.003,0.020
4593,0.005,0.020
4594,0.007,0.020
4595,0.010,0.020
4596,0.013,0.003
4597,0.017,0.003
4598,0.018,0.003
4599,0.019,0.003
4600,0.017,-0.015
4601,0.016,-0.015
4602,0.014,-0.015
4603,0.012,-0.015
4604,0.010,-0.032
4605,0.007,-0.032
4606,0.006,-0.032
4607,0.005,-0.032
4608,0.006,-0.048
4609,0.007,-0.048
4610,0.008,-0.048
4611,0.010,-0.048
4612,0.008,-0.064
4613,0.007,-0.064
4614,0.005,-0.064
4615,0.002,-0.064
4616,-0.002,-0.078
4617,-0.006,-0.078
4618,-0.009,-0.078
4619,-0.012,-0.078
4620,-0.010,-0.093
4621,-0.008,-0.093
4622,-0.004,-0.093
4623,0.001,-0.093
4624,0.006,-0.108
4625,0.011,-0.108
4626,0.014,-0.108
4627,0.017,-0.108
4628,0.018,-0.122
4629,0.019,-0.122
4630,0.019,-0.122
4631,0.019,-0.122
4632,0.018,-0.137
4633,0.017,-0.137
4634,0.015,-0.137
4635,0.013,-0.137
4636,0.013,-0.151
4637,0.012,-0.151
4638,0.013,-0.151
4639,0.013,-0.151
4640,0.013,-0.166
4641,0.013,-0.166
4642,0.013,-0.166
4643,0.012,-0.166
4644,0.011,-0.179
4645,0.010,-0.179
4646,0.008,-0.179
4647,0.007,-0.179
4648,0.008,-0.194
4649,0.008,-0.194
4650,0.007,-0.194
4651,0.006,-0.194
4652,0.003,-0.207
4653,0.000,-0.207
4654,-0.002,-0.207
4655,-0.005,-0.207
4656,-0.004,-0.222
4657,-0.004,-0.222
4658,-0.001,-0.222
4659,0.001,-0.222
4660,0.005,-0.234
4661,0.008,-0.234
4662,0.011,-0.234
4663,0.013,-0.234
4664,0.013,-0.249
4665,0.013,-0.249
4666,0.013,-0.249
4667,0.012,-0.249
4668,0.010,-0.262
4669,0.008,-0.262
4670,0.006,-0.262
4671,0.004,-0.262
4672,0.004,-0.273
4673,0.005,-0.273
4674,0.007,-0.273
4675,0.008,-0.273
4676,0.011,-0.283
4677,0.013,-0.283
4678,0.013,-0.283
4679,0.013,-0.283
4680,0.013,-0.295
4681,0.012,-0.295
4682,0.010,-0.295
4683,0.008,-0.295
4684,0.005,-0.307
4685,0.002,-0.307
4686,0.002,-0.307
4687,0.001,-0.307
4688,0.002,-0.315
4689,0.004,-0.315
4690,0.006,-0.315
4691,0.008,-0.315
4692,0.011,-0.326
4693,0.014,-0.326
4694,0.016,-0.326
4695,0.017,-0.326
4696,0.017,-0.335
4697,0.018,-0.335
4698,0.017,-0.335
4699,0.016,-0.335
4700,0.014,-0.343
4701,0.013,-0.343
4702,0.013,-0.343
4703,0.012,-0.343
4704,0.013,-0.352
4705,0.014,-0.352
4706,0.016,-0.352
4707,0.018,-0.352
4708,0.020,-0.362
4709,0.021,-0.362
4710,0.022,-0.362
4711,0.023,-0.362
4712,0.023,-0.370
4713,0.023,-0.370
4714,0.025,-0.370
4715,0.027,-0.370
4716,0.032,-0.380
4717,0.037,-0.380
4718,0.043,-0.380
4719,0.049,-0.380
4720,0.054,-0.385
4721,0.060,-0.385
4722,0.062,-0.385
4723,0.064,-0.385
4724,0.064,-0.392
4725,0.064,-0.392
4726,0.062,-0.392
4727,0.060,-0.392
4728,0.055,-0.399
4729,0.050,-0.399
4730,0.045,-0.399
4731,0.041,-0.399
4732,0.036,-0.405
4733,0.032,-0.405
4734,0.029,-0.405
4735,0.025,-0.405
4736,0.023,-0.411
4737,0.020,-0.411
4738,0.017,-0.411
4739,0.014,-0.411
4740,0.010,-0.414
4741,0.006,-0.414
4742,0.002,-0.414
4743,-0.002,-0.414
4744,-0.006,-0.418
4745,-0.010,-0.418
4746,-0.012,-0.418
4747,-0.014,-0.418
4748,-0.014,-0.421
4749,-0.014,-0.421
4750,-0.013,-0.421
4751,-0.012,-0.421
4752,-0.010,-0.423
4753,-0.007,-0.423
4754,-0.004,-0.423
4755,0.000,-0.423
4756,0.002,-0.425
4757,0.004,-0.425
4758,0.004,-0.425
4759,0.004,-0.425
4760,0.001,-0.426
4761,-0.002,-0.426
4762,-0.007,-0.426
4763,-0.011,-0.426
4764,-0.014,-0.426
4765,-0.017,-0.426
4766,-0.016,-0.426
4767,-0.014,-0.426
4768,-0.010,-0.442
4769,-0.006,-0.442
4770,-0.001,-0.442
4771,0.005,-0.442
4772,0.010,-0.442
4773,0.016,-0.442
4774,0.021,-0.442
4775,0.027,-0.442
4776,0.038,-0.442
4777,0.048,-0.442
4778,0.064,-0.442
4779,0.080,-0.442
4780,0.100,-0.443
4781,0.121,-0.443
4782,0.140,-0.443
4783,0.159,-0.443
4784,0.171,-0.443
4785,0.183,-0.443
4786,0.186,-0.443
4787,0.189,-0.443
4788,0.177,-0.443
4789,0.166,-0.443
4790,0.133,-0.443
4791,0.100,-0.443
4792,0.042,-0.443
4793,-0.017,-0.443
4794,-0.093,-0.443
4795,-0.168,-0.443
4796,-0.247,-0.442
4797,-0.325,-0.442
4798,-0.388,-0.442
4799,-0.451,-0.442
4800,-0.495,-0.440
4801,-0.539,-0.440
4802,-0.567,-0.440
4803,-0.596,-0.440
4804,-0.614,-0.442
4805,-0.633,-0.442
4806,-0.639,-0.442
4807,-0.646,-0.442
4808,-0.631,-0.440
4809,-0.616,-0.440
4810,-0.577,-0.440
4811,-0.537,-0.440
4812,-0.478,-0.438
4813,-0.419,-0.438
4814,-0.352,-0.438
4815,-0.284,-0.438
4816,-0.222,-0.438
4817,-0.160,-0.438
4818,-0.112,-0.438
4819,-0.063,-0.438
4820,-0.033,-0.436
4821,-0.002,-0.436
4822,0.013,-0.436
4823,0.027,-0.436
4824,0.032,-0.434
4825,0.036,-0.434
4826,0.036,-0.434
4827,0.036,-0.434
4828,0.036,-0.433
4829,0.036,-0.433
4830,0.038,-0.433
4831,0.039,-0.433
4832,0.042,-0.430
4833,0.045,-0.430
4834,0.049,-0.430
4835,0.053,-0.430
4836,0.054,-0.428
4837,0.056,-0.428
4838,0.057,-0.428
4839,0.057,-0.428
4840,0.057,-0.426
4841,0.057,-0.426
4842,0.059,-0.426
4843,0.061,-0.426
4844,0.064,-0.423
4845,0.067,-0.423
4846,0.069,-0.423
4847,0.070,-0.423
4848,0.072,-0.419
4849,0.074,-0.419
4850,0.074,-0.419
4851,0.074,-0.419
4852,0.074,-0.417
4853,0.074,-0.417
4854,0.074,-0.417
4855,0.074,-0.417
4856,0.073,-0.416
4857,0.073,-0.416
4858,0.071,-0.416
4859,0.069,-0.416
4860,0.066,-0.412
4861,0.062,-0.412
4862,0.057,-0.412
4863,0.051,-0.412
4864,0.047,-0.412
4865,0.042,-0.412
4866,0.040,-0.412
4867,0.038,-0.412
4868,0.038,-0.411
4869,0.038,-0.411
4870,0.038,-0.411
4871,0.038,-0.411
4872,0.038,-0.410
4873,0.037,-0.410
4874,0.038,-0.410
4875,0.039,-0.410
4876,0.043,-0.409
4877,0.047,-0.409
4878,0.052,-0.409
4879,0.057,-0.409
4880,0.063,-0.409
4881,0.068,-0.409
4882,0.072,-0.409
4883,0.075,-0.409
4884,0.076,-0.407
4885,0.078,-0.407
4886,0.079,-0.407
4887,0.080,-0.407
4888,0.081,-0.407
4889,0.082,-0.407
4890,0.085,-0.407
4891,0.088,-0.407
4892,0.090,-0.406
4893,0.092,-0.406
4894,0.093,-0.406
4895,0.094,-0.406
4896,0.093,-0.400
4897,0.092,-0.400
4898,0.091,-0.400
4899,0.090,-0.400
4900,0.088,-0.394
4901,0.087,-0.394
4902,0.087,-0.394
4903,0.087,-0.394
4904,0.087,-0.381
4905,0.086,-0.381
4906,0.084,-0.381
4907,0.082,-0.381
4908,0.083,-0.363
4909,0.084,-0.363
4910,0.087,-0.363
4911,0.091,-0.363
4912,0.097,-0.338
4913,0.104,-0.338
4914,0.110,-0.338
4915,0.116,-0.338
4916,0.119,-0.306
4917,0.122,-0.306
4918,0.122,-0.306
4919,0.122,-0.306
4920,0.119,-0.268
4921,0.117,-0.268
4922,0.115,-0.268
4923,0.112,-0.268
4924,0.111,-0.219
4925,0.110,-0.219
4926,0.112,-0.219
4927,0.113,-0.219
4928,0.116,-0.167
4929,0.118,-0.167
4930,0.119,-0.167
4931,0.121,-0.167
4932,0.119,-0.105
4933,0.118,-0.105
4934,0.115,-0.105
4935,0.112,-0.105
4936,0.110,-0.043
4937,0.109,-0.043
4938,0.110,-0.043
4939,0.111,-0.043
4940,0.113,0.023
4941,0.116,0.023
4942,0.116,0.023
4943,0.117,0.023
4944,0.114,0.088
4945,0.111,0.088
4946,0.106,0.088
4947,0.101,0.088
4948,0.096,0.153
4949,0.091,0.153
4950,0.089,0.153
4951,0.087,0.153
4952,0.090,0.215
4953,0.093,0.215
4954,0.097,0.215
4955,0.101,0.215
4956,0.105,0.274
4957,0.109,0.274
4958,0.109,0.274
4959,0.109,0.274
4960,0.106,0.326
4961,0.104,0.326
4962,0.101,0.326
4963,0.099,0.326
4964,0.098,0.374
4965,0.097,0.374
4966,0.099,0.374
4967,0.101,0.374
4968,0.105,0.417
4969,0.109,0.417
4970,0.112,0.417
4971,0.115,0.417
4972,0.115,0.454
4973,0.116,0.454
4974,0.115,0.454
4975,0.115,0.454
4976,0.113,0.486
4977,0.111,0.486
4978,0.110,0.486
4979,0.110,0.486
4980,0.109,0.514
4981,0.109,0.514
4982,0.109,0.514
4983,0.109,0.514
4984,0.109,0.535
4985,0.109,0.535
4986,0.107,0.535
4987,0.106,0.535
4988,0.102,0.553
4989,0.098,0.553
4990,0.091,0.553
4991,0.084,0.553
4992,0.075,0.571
4993,0.066,0.571
4994,0.057,0.571
4995,0.049,0.571
4996,0.045,0.580
4997,0.041,0.580
4998,0.042,0.580
4999,0.044,0.580
5000,0.051,0.588
5001,0.057,0.588
5002,0.061,0.588
5003,0.064,0.588
5004,0.063,0.592
5005,0.061,0.592
5006,0.054,0.592
5007,0.048,0.592
5008,0.041,0.591
5009,0.033,0.591
5010,0.029,0.591
5011,0.025,0.591
5012,0.026,0.589
5013,0.026,0.589
5014,0.029,0.589
5015,0.031,0.589
5016,0.032,0.582
5017,0.032,0.582
5018,0.029,0.582
5019,0.026,0.582
5020,0.023,0.573
5021,0.019,0.573
5022,0.017,0.573
5023,0.014,0.573
5024,0.015,0.542
5025,0.016,0.542
5026,0.017,0.542
5027,0.019,0.542
5028,0.020,0.523
5029,0.020,0.523
5030,0.021,0.523
5031,0.021,0.523
5032,0.020,0.500
5033,0.018,0.500
5034,0.017,0.500
5035,0.017,0.500
5036,0.017,0.476
5037,0.017,0.476
5038,0.016,0.476
5039,0.016,0.476
5040,0.014,0.446
5041,0.012,0.446
5042,0.010,0.446
5043,0.007,0.446
5044,0.006,0.415
5045,0.005,0.415
5046,0.007,0.415
5047,0.008,0.415
5048,0.011,0.380
5049,0.014,0.380
5050,0.016,0.380
5051,0.017,0.380
5052,0.017,0.346
5053,0.018,0.346
5054,0.017,0.346
5055,0.017,0.346
5056,0.017,0.310
5057,0.018,0.310
5058,0.019,0.310
5059,0.020,0.310
5060,0.021,0.273
5061,0.023,0.273
5062,0.021,0.273
5063,0.020,0.273
5064,0.018,0.237
5065,0.016,0.237
5066,0.011,0.237
5067,0.007,0.237
5068,0.002,0.202
5069,-0.002,0.202
5070,-0.005,0.202
5071,-0.008,0.202
5072,-0.008,0.171
5073,-0.007,0.171
5074,-0.004,0.171
5075,-0.001,0.171
5076,0.002,0.138
5077,0.005,0.138
5078,0.007,0.138
5079,0.008,0.138
5080,0.009,0.111
5081,0.010,0.111
5082,0.008,0.111
5083,0.007,0.111
5084,0.006,0.084
5085,0.005,0.084
5086,0.004,0.084
5087,0.004,0.084
5088,0.004,0.060
5089,0.005,0.060
5090,0.007,0.060
5091,0.008,0.060
5092,0.011,0.037
5093,0.013,0.037
5094,0.013,0.037
5095,0.013,0.037
5096,0.013,0.015
5097,0.013,0.015
5098,0.013,0.015
5099,0.013,0.015
5100,0.012,-0.005
5101,0.011,-0.005
5102,0.007,-0.005
5103,0.004,-0.005
5104,-0.002,-0.023
5105,-0.007,-0.023
5106,-0.010,-0.023
5107,-0.013,-0.023
5108,-0.013,-0.041
5109,-0.013,-0.041
5110,-0.010,-0.041
5111,-0.007,-0.041
5112,-0.004,-0.059
5113,-0.001,-0.059
5114,0.000,-0.059
5115,0.001,-0.059
5116,0.002,-0.076
5117,0.004,-0.076
5118,0.004,-0.076
5119,0.004,-0.076
5120,0.004,-0.096
5121,0.004,-0.096
5122,0.004,-0.096
5123,0.005,-0.096
5124,0.006,-0.111
5125,0.007,-0.111
5126,0.009,-0.111
5127,0.011,-0.111
5128,0.011,-0.129
5129,0.012,-0.129
5130,0.013,-0.129
5131,0.013,-0.129
5132,0.013,-0.147
5133,0.013,-0.147
5134,0.013,-0.147
5135,0.012,-0.147
5136,0.011,-0.165
5137,0.010,-0.165
5138,0.008,-0.165
5139,0.006,-0.165
5140,0.005,-0.182
5141,0.005,-0.182
5142,0.003,-0.182
5143,0.001,-0.182
5144,-0.002,-0.200
5145,-0.005,-0.200
5146,-0.007,-0.200
5147,-0.010,-0.200
5148,-0.008,-0.217
5149,-0.007,-0.217
5150,-0.003,-0.217
5151,0.001,-0.217
5152,0.006,-0.235
5153,0.011,-0.235
5154,0.014,-0.235
5155,0.018,-0.235
5156,0.020,-0.252
5157,0.021,-0.252
5158,0.021,-0.252
5159,0.021,-0.252
5160,0.018,-0.270
5161,0.014,-0.270
5162,0.008,-0.270
5163,0.001,-0.270
5164,-0.004,-0.286
5165,-0.008,-0.286
5166,-0.010,-0.286
5167,-0.012,-0.286
5168,-0.012,-0.302
5169,-0.012,-0.302
5170,-0.010,-0.302
5171,-0.008,-0.302
5172,-0.006,-0.320
5173,-0.004,-0.320
5174,-0.002,-0.320
5175,0.000,-0.320
5176,0.002,-0.336
5177,0.005,-0.336
5178,0.007,-0.336
5179,0.010,-0.336
5180,0.011,-0.351
5181,0.013,-0.351
5182,0.013,-0.351
5183,0.013,-0.351
5184,0.013,-0.368
5185,0.012,-0.368
5186,0.010,-0.368
5187,0.008,-0.368
5188,0.006,-0.383
5189,0.004,-0.383
5190,0.004,-0.383
5191,0.005,-0.383
5192,0.007,-0.396
5193,0.008,-0.396
5194,0.010,-0.396
5195,0.012,-0.396
5196,0.011,-0.411
5197,0.010,-0.411
5198,0.008,-0.411
5199,0.006,-0.411
5200,0.006,-0.423
5201,0.006,-0.423
5202,0.007,-0.423
5203,0.007,-0.423
5204,0.008,-0.437
5205,0.008,-0.437
5206,0.008,-0.437
5207,0.007,-0.437
5208,0.006,-0.449
5209,0.005,-0.449
5210,0.005,-0.449
5211,0.005,-0.449
5212,0.008,-0.460
5213,0.012,-0.460
5214,0.020,-0.460
5215,0.029,-0.460
5216,0.038,-0.470
5217,0.047,-0.470
5218,0.056,-0.470
5219,0.064,-0.470
5220,0.070,-0.480
5221,0.075,-0.480
5222,0.076,-0.480
5223,0.078,-0.480
5224,0.075,-0.491
5225,0.073,-0.491
5226,0.068,-0.491
5227,0.063,-0.491
5228,0.057,-0.499
5229,0.051,-0.499
5230,0.045,-0.499
5231,0.038,-0.499
5232,0.033,-0.509
5233,0.027,-0.509
5234,0.024,-0.509
5235,0.021,-0.509
5236,0.020,-0.517
5237,0.019,-0.517
5238,0.018,-0.517
5239,0.017,-0.517
5240,0.014,-0.526
5241,0.012,-0.526
5242,0.008,-0.526
5243,0.005,-0.526
5244,-0.001,-0.533
5245,-0.007,-0.533
5246,-0.013,-0.533
5247,-0.018,-0.533
5248,-0.020,-0.540
5249,-0.023,-0.540
5250,-0.022,-0.540
5251,-0.021,-0.540
5252,-0.020,-0.546
5253,-0.018,-0.546
5254,-0.015,-0.546
5255,-0.012,-0.546
5256,-0.010,-0.551
5257,-0.008,-0.551
5258,-0.006,-0.551
5259,-0.004,-0.551
5260,-0.001,-0.555
5261,0.001,-0.555
5262,0.004,-0.555
5263,0.007,-0.555
5264,0.008,-0.557
5265,0.008,-0.557
5266,0.006,-0.557
5267,0.004,-0.557
5268,0.001,-0.561
5269,-0.001,-0.561
5270,-0.002,-0.561
5271,-0.004,-0.561
5272,-0.001,-0.565
5273,0.001,-0.565
5274,0.007,-0.565
5275,0.012,-0.565
5276,0.021,-0.566
5277,0.030,-0.566
5278,0.042,-0.566
5279,0.054,-0.566
5280,0.067,-0.573
5281,0.080,-0.573
5282,0.095,-0.573
5283,0.110,-0.573
5284,0.125,-0.574
5285,0.140,-0.574
5286,0.153,-0.574
5287,0.167,-0.574
5288,0.170,-0.576
5289,0.172,-0.576
5290,0.150,-0.576
5291,0.128,-0.576
5292,0.072,-0.577
5293,0.017,-0.577
5294,-0.064,-0.577
5295,-0.146,-0.577
5296,-0.232,-0.579
5297,-0.319,-0.579
5298,-0.392,-0.579
5299,-0.466,-0.579
5300,-0.516,-0.580
5301,-0.567,-0.580
5302,-0.599,-0.580
5303,-0.630,-0.580
5304,-0.649,-0.580
5305,-0.667,-0.580
5306,-0.668,-0.580
5307,-0.669,-0.580
5308,-0.646,-0.582
5309,-0.623,-0.582
5310,-0.578,-0.582
5311,-0.533,-0.582
5312,-0.474,-0.579
5313,-0.416,-0.579
5314,-0.353,-0.579
5315,-0.291,-0.579
5316,-0.236,-0.579
5317,-0.180,-0.579
5318,-0.138,-0.579
5319,-0.096,-0.579
5320,-0.066,-0.578
5321,-0.037,-0.578
5322,-0.017,-0.578
5323,0.002,-0.578
5324,0.012,-0.576
5325,0.021,-0.576
5326,0.027,-0.576
5327,0.032,-0.576
5328,0.037,-0.574
5329,0.042,-0.574
5330,0.047,-0.574
5331,0.053,-0.574
5332,0.057,-0.572
5333,0.061,-0.572
5334,0.065,-0.572
5335,0.069,-0.572
5336,0.073,-0.571
5337,0.076,-0.571
5338,0.079,-0.571
5339,0.081,-0.571
5340,0.082,-0.567
5341,0.082,-0.567
5342,0.079,-0.567
5343,0.076,-0.567
5344,0.069,-0.565
5345,0.062,-0.565
5346,0.054,-0.565
5347,0.047,-0.565
5348,0.042,-0.563
5349,0.037,-0.563
5350,0.038,-0.563
5351,0.038,-0.563
5352,0.044,-0.561
5353,0.049,-0.561
5354,0.057,-0.561
5355,0.064,-0.561
5356,0.070,-0.559
5357,0.075,-0.559
5358,0.079,-0.559
5359,0.082,-0.559
5360,0.082,-0.557
5361,0.081,-0.557
5362,0.076,-0.557
5363,0.070,-0.557
5364,0.061,-0.556
5365,0.053,-0.556
5366,0.042,-0.556
5367,0.032,-0.556
5368,0.026,-0.553
5369,0.019,-0.553
5370,0.016,-0.553
5371,0.013,-0.553
5372,0.015,-0.553
5373,0.017,-0.553
5374,0.021,-0.553
5375,0.025,-0.553
5376,0.030,-0.551
5377,0.036,-0.551
5378,0.041,-0.551
5379,0.045,-0.551
5380,0.050,-0.552
5381,0.054,-0.552
5382,0.058,-0.552
5383,0.062,-0.552
5384,0.065,-0.551
5385,0.068,-0.551
5386,0.071,-0.551
5387,0.074,-0.551
5388,0.076,-0.550
5389,0.079,-0.550
5390,0.080,-0.550
5391,0.081,-0.550
5392,0.080,-0.546
5393,0.079,-0.546
5394,0.078,-0.546
5395,0.076,-0.546
5396,0.075,-0.542
5397,0.074,-0.542
5398,0.074,-0.542
5399,0.074,-0.542
5400,0.074,-0.534
5401,0.074,-0.534
5402,0.074,-0.534
5403,0.074,-0.534
5404,0.075,-0.521
5405,0.075,-0.521
5406,0.076,-0.521
5407,0.078,-0.521
5408,0.079,-0.502
5409,0.080,-0.502
5410,0.082,-0.502
5411,0.085,-0.502
5412,0.091,-0.477
5413,0.098,-0.477
5414,0.105,-0.477
5415,0.112,-0.477
5416,0.118,-0.447
5417,0.124,-0.447
5418,0.127,-0.447
5419,0.129,-0.447
5420,0.127,-0.406
5421,0.125,-0.406
5422,0.121,-0.406
5423,0.116,-0.406
5424,0.109,-0.358
5425,0.101,-0.358
5426,0.096,-0.358
5427,0.090,-0.358
5428,0.085,-0.305
5429,0.080,-0.305
5430,0.077,-0.305
5431,0.074,-0.305
5432,0.075,-0.244
5433,0.076,-0.244
5434,0.083,-0.244
5435,0.090,-0.244
5436,0.099,-0.182
5437,0.107,-0.182
5438,0.113,-0.182
5439,0.118,-0.182
5440,0.118,-0.119
5441,0.117,-0.119
5442,0.112,-0.119
5443,0.106,-0.119
5444,0.100,-0.052
5445,0.093,-0.052
5446,0.087,-0.052
5447,0.081,-0.052
5448,0.080,0.012
5449,0.079,0.012
5450,0.080,0.012
5451,0.081,0.012
5452,0.081,0.073
5453,0.081,0.073
5454,0.079,0.073
5455,0.078,0.073
5456,0.076,0.128
5457,0.074,0.128
5458,0.074,0.128
5459,0.074,0.128
5460,0.076,0.180
5461,0.079,0.180
5462,0.082,0.180
5463,0.086,0.180
5464,0.091,0.227
5465,0.097,0.227
5466,0.103,0.227
5467,0.110,0.227
5468,0.114,0.269
5469,0.118,0.269
5470,0.118,0.269
5471,0.118,0.269
5472,0.110,0.304
5473,0.103,0.304
5474,0.091,0.304
5475,0.080,0.304
5476,0.068,0.334
5477,0.056,0.334
5478,0.050,0.334
5479,0.044,0.334
5480,0.046,0.360
5481,0.048,0.360
5482,0.053,0.360
5483,0.057,0.360
5484,0.061,0.384
5485,0.064,0.384
5486,0.063,0.384
5487,0.062,0.384
5488,0.057,0.403
5489,0.053,0.403
5490,0.047,0.403
5491,0.041,0.403
5492,0.035,0.416
5493,0.030,0.416
5494,0.027,0.416
5495,0.024,0.416
5496,0.022,0.428
5497,0.020,0.428
5498,0.019,0.428
5499,0.017,0.428
5500,0.016,0.437
5501,0.014,0.437
5502,0.016,0.437
5503,0.018,0.437
5504,0.023,0.442
5505,0.027,0.442
5506,0.032,0.442
5507,0.037,0.442
5508,0.039,0.446
5509,0.042,0.446
5510,0.040,0.446
5511,0.038,0.446
5512,0.034,0.446
5513,0.030,0.446
5514,0.027,0.446
5515,0.025,0.446
5516,0.024,0.440
5517,0.024,0.440
5518,0.028,0.440
5519,0.032,0.440
5520,0.041,0.432
5521,0.050,0.432
5522,0.058,0.432
5523,0.066,0.432
5524,0.068,0.421
5525,0.070,0.421
5526,0.068,0.421
5527,0.066,0.421
5528,0.057,0.405
5529,0.049,0.405
5530,0.038,0.405
5531,0.026,0.405
5532,0.014,0.386
5533,0.002,0.386
5534,-0.007,0.386
5535,-0.016,0.386
5536,-0.020,0.356
5537,-0.024,0.356
5538,-0.023,0.356
5539,-0.021,0.356
5540,-0.017,0.331
5541,-0.012,0.331
5542,-0.008,0.331
5543,-0.004,0.331
5544,-0.004,0.300
5545,-0.004,0.300
5546,-0.010,0.300
5547,-0.016,0.300
5548,-0.025,0.269
5549,-0.035,0.269
5550,-0.042,0.269
5551,-0.050,0.269
5552,-0.054,0.234
5553,-0.059,0.234
5554,-0.059,0.234
5555,-0.060,0.234
5556,-0.056,0.198
5557,-0.053,0.198
5558,-0.047,0.198
5559,-0.041,0.198
5560,-0.034,0.161
5561,-0.027,0.161
5562,-0.020,0.161
5563,-0.012,0.161
5564,-0.004,0.125
5565,0.005,0.125
5566,0.012,0.125
5567,0.019,0.125
5568,0.023,0.089
5569,0.026,0.089
5570,0.026,0.089
5571,0.026,0.089
5572,0.023,0.054
5573,0.020,0.054
5574,0.017,0.054
5575,0.013,0.054
5576,0.013,0.022
5577,0.012,0.022
5578,0.015,0.022
5579,0.018,0.022
5580,0.020,-0.009
5581,0.021,-0.009
5582,0.021,-0.009
5583,0.021,-0.009
5584,0.020,-0.036
5585,0.018,-0.036
5586,0.017,-0.036
5587,0.017,-0.036
5588,0.017,-0.063
5589,0.017,-0.063
5590,0.016,-0.063
5591,0.014,-0.063
5592,0.009,-0.086
5593,0.004,-0.086
5594,-0.007,-0.086
5595,-0.017,-0.086
5596,-0.029,-0.109
5597,-0.041,-0.109
5598,-0.048,-0.109
5599,-0.055,-0.109
5600,-0.054,-0.127
5601,-0.054,-0.127
5602,-0.047,-0.127
5603,-0.041,-0.127
5604,-0.033,-0.145
5605,-0.026,-0.145
5606,-0.024,-0.145
5607,-0.021,-0.145
5608,-0.023,-0.160
5609,-0.025,-0.160
5610,-0.025,-0.160
5611,-0.025,-0.160
5612,-0.020,-0.174
5613,-0.014,-0.174
5614,-0.007,-0.174
5615,0.001,-0.174
5616,0.007,-0.185
5617,0.013,-0.185
5618,0.013,-0.185
5619,0.013,-0.185
5620,0.010,-0.196
5621,0.007,-0.196
5622,0.003,-0.196
5623,-0.001,-0.196
5624,-0.004,-0.203
5625,-0.006,-0.203
5626,-0.008,-0.203
5627,-0.011,-0.203
5628,-0.014,-0.208
5629,-0.018,-0.208
5630,-0.021,-0.208
5631,-0.024,-0.208
5632,-0.026,-0.209
5633,-0.027,-0.209
5634,-0.028,-0.209
5635,-0.029,-0.209
5636,-0.033,-0.205
5637,-0.037,-0.205
5638,-0.042,-0.205
5639,-0.047,-0.205
5640,-0.051,-0.194
5641,-0.056,-0.194
5642,-0.056,-0.194
5643,-0.056,-0.194
5644,-0.051,-0.172
5645,-0.047,-0.172
5646,-0.039,-0.172
5647,-0.032,-0.172
5648,-0.024,-0.137
5649,-0.016,-0.137
5650,-0.010,-0.137
5651,-0.004,-0.137
5652,0.000,-0.080
5653,0.004,-0.080
5654,0.005,-0.080
5655,0.007,-0.080
5656,0.009,0.005
5657,0.011,0.005
5658,0.012,0.005
5659,0.013,0.005
5660,0.015,0.123
5661,0.017,0.123
5662,0.017,0.123
5663,0.017,0.123
5664,0.014,0.280
5665,0.012,0.280
5666,0.011,0.280
5667,0.010,0.280
5668,0.011,0.473
5669,0.012,0.473
5670,0.016,0.473
5671,0.019,0.473
5672,0.021,0.697
5673,0.024,0.697
5674,0.023,0.697
5675,0.021,0.697
5676,0.016,0.942
5677,0.010,0.942
5678,0.001,0.942
5679,-0.008,0.942
5680,-0.017,1.024
5681,-0.026,1.024
5682,-0.033,1.024
5683,-0.041,1.024
5684,-0.042,1.024
5685,-0.044,1.024
5686,-0.041,1.024
5687,-0.037,1.024
5688,-0.030,1.024
5689,-0.024,1.024
5690,-0.017,1.024
5691,-0.010,1.024
5692,-0.003,1.024
5693,0.004,1.024
5694,0.007,1.024
5695,0.010,1.024
5696,0.010,1.024
5697,0.010,1.024
5698,0.009,1.024
5699,0.008,1.024
5700,0.009,1.024
5701,0.010,1.024
5702,0.011,1.024
5703,0.013,1.024
5704,0.016,1.024
5705,0.018,1.024
5706,0.020,1.024
5707,0.023,1.024
5708,0.025,1.024
5709,0.027,1.024
5710,0.030,1.024
5711,0.032,1.024
5712,0.035,1.024
5713,0.038,1.024
5714,0.038,1.024
5715,0.038,1.024
5716,0.036,1.024
5717,0.033,1.024
5718,0.029,1.024
5719,0.025,1.024
5720,0.021,1.024
5721,0.017,1.024
5722,0.014,1.024
5723,0.012,1.024
5724,0.013,1.024
5725,0.013,1.024
5726,0.015,1.024
5727,0.017,1.024
5728,0.017,1.024
5729,0.018,1.024
5730,0.017,1.024
5731,0.017,1.024
5732,0.016,1.024
5733,0.016,1.024
5734,0.014,1.024
5735,0.013,1.024
5736,0.012,1.024
5737,0.011,1.024
5738,0.010,1.024
5739,0.008,1.024
5740,0.005,1.024
5741,0.001,1.024
5742,-0.001,1.024
5743,-0.004,1.024
5744,-0.004,1.024
5745,-0.005,1.024
5746,-0.002,1.024
5747,0.001,1.024
5748,0.005,1.024
5749,0.008,1.024
5750,0.009,1.024
5751,0.010,1.024
5752,0.008,1.024
5753,0.007,1.024
5754,0.006,1.024
5755,0.005,1.024
5756,0.005,1.024
5757,0.006,1.024
5758,0.009,1.024
5759,0.012,1.024
5760,0.012,1.024
5761,0.012,1.024
5762,0.008,1.024
5763,0.005,1.024
5764,-0.004,0.873
5765,-0.013,0.873
5766,-0.023,0.873
5767,-0.032,0.873
5768,-0.039,0.722
5769,-0.045,0.722
5770,-0.047,0.722
5771,-0.048,0.722
5772,-0.042,0.578
5773,-0.037,0.578
5774,-0.027,0.578
5775,-0.017,0.578
5776,-0.004,0.442
5777,0.010,0.442
5778,0.026,0.442
5779,0.043,0.442
5780,0.063,0.315
5781,0.084,0.315
5782,0.104,0.315
5783,0.125,0.315
5784,0.143,0.199
5785,0.160,0.199
5786,0.171,0.199
5787,0.183,0.199
5788,0.181,0.093
5789,0.180,0.093
5790,0.157,0.093
5791,0.134,0.093
5792,0.084,-0.003
5793,0.035,-0.003
5794,-0.035,-0.003
5795,-0.104,-0.003
5796,-0.178,-0.085
5797,-0.252,-0.085
5798,-0.318,-0.085
5799,-0.383,-0.085
5800,-0.433,-0.157
5801,-0.484,-0.157
5802,-0.518,-0.157
5803,-0.552,-0.157
5804,-0.576,-0.225
5805,-0.599,-0.225
5806,-0.612,-0.225
5807,-0.624,-0.225
5808,-0.619,-0.285
5809,-0.614,-0.285
5810,-0.587,-0.285
5811,-0.560,-0.285
5812,-0.512,-0.339
5813,-0.464,-0.339
5814,-0.404,-0.339
5815,-0.343,-0.339
5816,-0.282,-0.390
5817,-0.221,-0.390
5818,-0.171,-0.390
5819,-0.122,-0.390
5820,-0.087,-0.437
5821,-0.053,-0.437
5822,-0.030,-0.437
5823,-0.007,-0.437
5824,0.007,-0.480
5825,0.021,-0.480
5826,0.030,-0.480
5827,0.038,-0.480
5828,0.041,-0.520
5829,0.043,-0.520
5830,0.041,-0.520
5831,0.039,-0.520
5832,0.036,-0.555
5833,0.032,-0.555
5834,0.029,-0.555
5835,0.026,-0.555
5836,0.027,-0.590
5837,0.027,-0.590
5838,0.032,-0.590
5839,0.037,-0.590
5840,0.044,-0.618
5841,0.050,-0.618
5842,0.057,-0.618
5843,0.064,-0.618
5844,0.070,-0.643
5845,0.076,-0.643
5846,0.081,-0.643
5847,0.086,-0.643
5848,0.086,-0.663
5849,0.086,-0.663
5850,0.081,-0.663
5851,0.076,-0.663
5852,0.070,-0.682
5853,0.063,-0.682
5854,0.057,-0.682
5855,0.050,-0.682
5856,0.047,-0.695
5857,0.044,-0.695
5858,0.045,-0.695
5859,0.045,-0.695
5860,0.047,-0.708
5861,0.049,-0.708
5862,0.050,-0.708
5863,0.050,-0.708
5864,0.050,-0.717
5865,0.049,-0.717
5866,0.049,-0.717
5867,0.049,-0.717
5868,0.051,-0.724
5869,0.054,-0.724
5870,0.059,-0.724
5871,0.063,-0.724
5872,0.069,-0.729
5873,0.074,-0.729
5874,0.075,-0.729
5875,0.076,-0.729
5876,0.072,-0.731
5877,0.068,-0.731
5878,0.062,-0.731
5879,0.056,-0.731
5880,0.051,-0.731
5881,0.047,-0.731
5882,0.048,-0.731
5883,0.049,-0.731
5884,0.054,-0.728
5885,0.060,-0.728
5886,0.069,-0.728
5887,0.078,-0.728
5888,0.087,-0.721
5889,0.097,-0.721
5890,0.101,-0.721
5891,0.105,-0.721
5892,0.104,-0.710
5893,0.104,-0.710
5894,0.100,-0.710
5895,0.097,-0.710
5896,0.089,-0.695
5897,0.081,-0.695
5898,0.073,-0.695
5899,0.066,-0.695
5900,0.062,-0.674
5901,0.059,-0.674
5902,0.060,-0.674
5903,0.062,-0.674
5904,0.070,-0.644
5905,0.078,-0.644
5906,0.088,-0.644
5907,0.098,-0.644
5908,0.104,-0.606
5909,0.110,-0.606
5910,0.111,-0.606
5911,0.112,-0.606
5912,0.110,-0.561
5913,0.107,-0.561
5914,0.104,-0.561
5915,0.100,-0.561
5916,0.097,-0.507
5917,0.094,-0.507
5918,0.093,-0.507
5919,0.092,-0.507
5920,0.092,-0.447
5921,0.092,-0.447
5922,0.095,-0.447
5923,0.098,-0.447
5924,0.104,-0.380
5925,0.110,-0.380
5926,0.115,-0.380
5927,0.121,-0.380
5928,0.127,-0.310
5929,0.133,-0.310
5930,0.137,-0.310
5931,0.142,-0.310
5932,0.146,-0.241
5933,0.149,-0.241
5934,0.152,-0.241
5935,0.155,-0.241
5936,0.158,-0.174
5937,0.161,-0.174
5938,0.164,-0.174
5939,0.167,-0.174
5940,0.169,-0.113
5941,0.171,-0.113
5942,0.174,-0.113
5943,0.177,-0.113
5944,0.180,-0.059
5945,0.184,-0.059
5946,0.184,-0.059
5947,0.184,-0.059
5948,0.177,-0.018
5949,0.171,-0.018
5950,0.159,-0.018
5951,0.147,-0.018
5952,0.134,0.014
5953,0.122,0.014
5954,0.113,0.014
5955,0.104,0.014
5956,0.100,0.032
5957,0.097,0.032
5958,0.095,0.032
5959,0.093,0.032
5960,0.090,0.033
5961,0.086,0.033
5962,0.082,0.033
5963,0.078,0.033
5964,0.077,0.021
5965,0.076,0.021
5966,0.081,0.021
5967,0.086,0.021
5968,0.096,-0.001
5969,0.106,-0.001
5970,0.116,-0.001
5971,0.127,-0.001
5972,0.133,-0.036
5973,0.139,-0.036
5974,0.139,-0.036
5975,0.139,-0.036
5976,0.133,-0.080
5977,0.127,-0.080
5978,0.116,-0.080
5979,0.106,-0.080
5980,0.096,-0.128
5981,0.086,-0.128
5982,0.077,-0.128
5983,0.068,-0.128
5984,0.063,-0.174
5985,0.059,-0.174
5986,0.059,-0.174
5987,0.059,-0.174
5988,0.062,-0.218
5989,0.066,-0.218
5990,0.071,-0.218
5991,0.076,-0.218
5992,0.082,-0.256
5993,0.088,-0.256
5994,0.093,-0.256
5995,0.097,-0.256
5996,0.095,-0.286
5997,0.093,-0.286
5998,0.085,-0.286
5999,0.078,-0.286
6000,0.065,-0.307
6001,0.053,-0.307
6002,0.039,-0.307
6003,0.026,-0.307
6004,0.019,-0.318
6005,0.012,-0.318
6006,0.013,-0.318
6007,0.014,-0.318
6008,0.022,-0.318
6009,0.030,-0.318
6010,0.039,-0.318
6011,0.049,-0.318
6012,0.053,-0.307
6013,0.057,-0.307
6014,0.056,-0.307
6015,0.055,-0.307
6016,0.050,-0.282
6017,0.045,-0.282
6018,0.039,-0.282
6019,0.033,-0.282
6020,0.028,-0.246
6021,0.023,-0.246
6022,0.020,-0.246
6023,0.018,-0.246
6024,0.017,-0.199
6025,0.016,-0.199
6026,0.014,-0.199
6027,0.013,-0.199
6028,0.013,-0.149
6029,0.012,-0.149
6030,0.013,-0.149
6031,0.014,-0.149
6032,0.016,-0.095
6033,0.017,-0.095
6034,0.017,-0.095
6035,0.018,-0.095
6036,0.017,-0.044
6037,0.017,-0.044
6038,0.016,-0.044
6039,0.016,-0.044
6040,0.014,0.001
6041,0.013,0.001
6042,0.013,0.001
6043,0.013,0.001
6044,0.016,0.035
6045,0.018,0.035
6046,0.020,0.035
6047,0.023,0.035
6048,0.025,0.057
6049,0.027,0.057
6050,0.029,0.057
6051,0.030,0.057
6052,0.030,0.064
6053,0.031,0.064
6054,0.030,0.064
6055,0.029,0.064
6056,0.027,0.057
6057,0.025,0.057
6058,0.024,0.057
6059,0.023,0.057
6060,0.021,0.038
6061,0.019,0.038
6062,0.018,0.038
6063,0.017,0.038
6064,0.014,0.015
6065,0.011,0.015
6066,0.007,0.015
6067,0.004,0.015
6068,0.000,-0.015
6069,-0.004,-0.015
6070,-0.007,-0.015
6071,-0.010,-0.015
6072,-0.011,-0.043
6073,-0.013,-0.043
6074,-0.010,-0.043
6075,-0.006,-0.043
6076,0.001,-0.072
6077,0.007,-0.072
6078,0.017,-0.072
6079,0.026,-0.072
6080,0.036,-0.101
6081,0.045,-0.101
6082,0.051,-0.101
6083,0.057,-0.101
6084,0.056,-0.129
6085,0.055,-0.129
6086,0.047,-0.129
6087,0.038,-0.129
6088,0.026,-0.157
6089,0.013,-0.157
6090,0.004,-0.157
6091,-0.006,-0.157
6092,-0.009,-0.184
6093,-0.012,-0.184
6094,-0.007,-0.184
6095,-0.001,-0.184
6096,0.010,-0.213
6097,0.021,-0.213
6098,0.034,-0.213
6099,0.047,-0.213
6100,0.054,-0.240
6101,0.062,-0.240
6102,0.063,-0.240
6103,0.064,-0.240
6104,0.059,-0.270
6105,0.053,-0.270
6106,0.041,-0.270
6107,0.029,-0.270
6108,0.013,-0.299
6109,-0.002,-0.299
6110,-0.017,-0.299
6111,-0.031,-0.299
6112,-0.042,-0.327
6113,-0.053,-0.327
6114,-0.056,-0.327
6115,-0.059,-0.327
6116,-0.053,-0.354
6117,-0.047,-0.354
6118,-0.037,-0.354
6119,-0.027,-0.354
6120,-0.019,-0.378
6121,-0.011,-0.378
6122,-0.006,-0.378
6123,-0.001,-0.378
6124,-0.001,-0.399
6125,0.000,-0.399
6126,-0.002,-0.399
6127,-0.004,-0.399
6128,-0.002,-0.417
6129,-0.001,-0.417
6130,0.004,-0.417
6131,0.008,-0.417
6132,0.014,-0.432
6133,0.020,-0.432
6134,0.024,-0.432
6135,0.029,-0.432
6136,0.026,-0.448
6137,0.024,-0.448
6138,0.018,-0.448
6139,0.012,-0.448
6140,0.008,-0.461
6141,0.005,-0.461
6142,0.007,-0.461
6143,0.010,-0.461
6144,0.017,-0.470
6145,0.024,-0.470
6146,0.029,-0.470
6147,0.035,-0.470
6148,0.035,-0.480
6149,0.035,-0.480
6150,0.029,-0.480
6151,0.023,-0.480
6152,0.014,-0.491
6153,0.005,-0.491
6154,-0.003,-0.491
6155,-0.011,-0.491
6156,-0.014,-0.504
6157,-0.017,-0.504
6158,-0.016,-0.504
6159,-0.014,-0.504
6160,-0.011,-0.515
6161,-0.007,-0.515
6162,-0.004,-0.515
6163,0.000,-0.515
6164,0.002,-0.529
6165,0.004,-0.529
6166,0.004,-0.529
6167,0.004,-0.529
6168,0.001,-0.546
6169,-0.001,-0.546
6170,-0.004,-0.546
6171,-0.006,-0.546
6172,-0.007,-0.564
6173,-0.008,-0.564
6174,-0.008,-0.564
6175,-0.007,-0.564
6176,-0.004,-0.585
6177,-0.001,-0.585
6178,0.001,-0.585
6179,0.002,-0.585
6180,0.001,-0.605
6181,0.000,-0.605
6182,-0.003,-0.605
6183,-0.006,-0.605
6184,-0.006,-0.627
6185,-0.006,-0.627
6186,-0.002,-0.627
6187,0.001,-0.627
6188,0.008,-0.650
6189,0.016,-0.650
6190,0.021,-0.650
6191,0.026,-0.650
6192,0.029,-0.674
6193,0.031,-0.674
6194,0.030,-0.674
6195,0.030,-0.674
6196,0.027,-0.699
6197,0.025,-0.699
6198,0.022,-0.699
6199,0.019,-0.699
6200,0.016,-0.724
6201,0.013,-0.724
6202,0.013,-0.724
6203,0.012,-0.724
6204,0.013,-0.748
6205,0.014,-0.748
6206,0.016,-0.748
6207,0.017,-0.748
6208,0.017,-0.774
6209,0.017,-0.774
6210,0.014,-0.774
6211,0.012,-0.774
6212,0.010,-0.802
6213,0.008,-0.802
6214,0.010,-0.802
6215,0.012,-0.802
6216,0.020,-0.833
6217,0.029,-0.833
6218,0.042,-0.833
6219,0.055,-0.833
6220,0.072,-0.865
6221,0.088,-0.865
6222,0.103,-0.865
6223,0.118,-0.865
6224,0.127,-0.900
6225,0.135,-0.900
6226,0.135,-0.900
6227,0.135,-0.900
6228,0.127,-0.936
6229,0.119,-0.936
6230,0.105,-0.936
6231,0.091,-0.936
6232,0.075,-0.973
6233,0.059,-0.973
6234,0.045,-0.973
6235,0.032,-0.973
6236,0.026,-1.012
6237,0.020,-1.012
6238,0.025,-1.012
6239,0.030,-1.012
6240,0.039,-
6241,0.048,-
6242,0.054,-
6243,0.061,-
6244,0.057,-
6245,0.054,-
6246,0.038,-
6247,0.021,-
6248,-0.001,-
6249,-0.024,-
6250,-0.046,-
6251,-0.068,-
6252,-0.082,-
6253,-0.096,-
6254,-0.096,-
6255,-0.097,-
6256,-0.085,-
6257,-0.074,-
6258,-0.054,-
6259,-0.035,-
6260,-0.014,-
6261,0.007,-
6262,0.026,-
6263,0.045,-
6264,0.056,-
6265,0.067,-
6266,0.067,-
6267,0.067,-
6268,0.057,-
6269,0.047,-
6270,0.028,-
6271,0.010,-
6272,-0.011,-
6273,-0.031,-
6274,-0.043,-
6275,-0.055,-
6276,-0.054,-
6277,-0.053,-
6278,-0.038,-
6279,-0.024,-
6280,-0.001,-
6281,0.021,-
6282,0.047,-
6283,0.072,-
6284,0.093,-
6285,0.115,-
6286,0.130,-
6287,0.144,-
6288,0.151,-
6289,0.158,-
6290,0.149,-
6291,0.140,-
6292,0.107,-
6293,0.075,-
6294,0.016,-
6295,-0.044,-
6296,-0.120,-
6297,-0.196,-
6298,-0.272,-
6299,-0.349,-
6300,-0.411,-
6301,-0.473,-
6302,-0.515,-
6303,-0.558,-
6304,-0.583,-
6305,-0.608,-
6306,-0.620,-
6307,-0.632,-
6308,-0.628,-
6309,-0.624,-
6310,-0.599,-
6311,-0.573,-
6312,-0.526,-
6313,-0.479,-
6314,-0.417,-
6315,-0.356,-
6316,-0.294,-
6317,-0.233,-
6318,-0.180,-
6319,-0.128,-
6320,-0.086,-1.022
6321,-0.044,-1.022
6322,-0.012,-1.022
6323,0.020,-1.022
6324,0.042,-1.006
6325,0.064,-1.006
6326,0.076,-1.006
6327,0.087,-1.006
6328,0.091,-0.993
6329,0.096,-0.993
6330,0.094,-0.993
6331,0.092,-0.993
6332,0.089,-0.986
6333,0.086,-0.986
6334,0.084,-0.986
6335,0.082,-0.986
6336,0.081,-0.981
6337,0.080,-0.981
6338,0.076,-0.981
6339,0.072,-0.981
6340,0.064,-0.981
6341,0.057,-0.981
6342,0.049,-0.981
6343,0.041,-0.981
6344,0.035,-0.985
6345,0.029,-0.985
6346,0.025,-0.985
6347,0.021,-0.985
6348,0.021,-0.994
6349,0.021,-0.994
6350,0.025,-0.994
6351,0.029,-0.994
6352,0.036,-1.003
6353,0.043,-1.003
6354,0.054,-1.003
6355,0.066,-1.003
6356,0.078,-1.016
6357,0.091,-1.016
6358,0.098,-1.016
6359,0.105,-1.016
6360,0.104,-
6361,0.103,-
6362,0.096,-
6363,0.088,-
6364,0.077,-
6365,0.066,-
6366,0.055,-
6367,0.044,-
6368,0.039,-
6369,0.035,-
6370,0.036,-
6371,0.038,-
6372,0.045,-
6373,0.053,-
6374,0.060,-
6375,0.068,-
6376,0.071,-
6377,0.074,-
6378,0.072,-
6379,0.069,-
6380,0.066,-
6381,0.063,-
6382,0.060,-
6383,0.056,-
6384,0.053,-
6385,0.050,-
6386,0.048,-
6387,0.045,-
6388,0.042,-
6389,0.039,-
6390,0.039,-
6391,0.039,-
6392,0.043,-1.002
6393,0.047,-1.002
6394,0.055,-1.002
6395,0.063,-1.002
6396,0.073,-0.955
6397,0.084,-0.955
6398,0.092,-0.955
6399,0.100,-0.955
6400,0.103,-0.894
6401,0.106,-0.894
6402,0.105,-0.894
6403,0.104,-0.894
6404,0.100,-0.821
6405,0.097,-0.821
6406,0.091,-0.821
6407,0.086,-0.821
6408,0.081,-0.734
6409,0.075,-0.734
6410,0.074,-0.734
6411,0.073,-0.734
6412,0.077,-0.640
6413,0.081,-0.640
6414,0.091,-0.640
6415,0.100,-0.640
6416,0.113,-0.543
6417,0.127,-0.543
6418,0.139,-0.543
6419,0.152,-0.543
6420,0.159,-0.450
6421,0.167,-0.450
6422,0.169,-0.450
6423,0.171,-0.450
6424,0.168,-0.363
6425,0.166,-0.363
6426,0.162,-0.363
6427,0.159,-0.363
6428,0.155,-0.289
6429,0.152,-0.289
6430,0.149,-0.289
6431,0.146,-0.289
6432,0.140,-0.233
6433,0.135,-0.233
6434,0.125,-0.233
6435,0.115,-0.233
6436,0.104,-0.192
6437,0.093,-0.192
6438,0.090,-0.192
6439,0.086,-0.192
6440,0.093,-0.168
6441,0.100,-0.168
6442,0.115,-0.168
6443,0.130,-0.168
6444,0.143,-0.160
6445,0.156,-0.160
6446,0.159,-0.160
6447,0.162,-0.160
6448,0.153,-0.161
6449,0.144,-0.161
6450,0.130,-0.161
6451,0.115,-0.161
6452,0.104,-0.168
6453,0.093,-0.168
6454,0.092,-0.168
6455,0.091,-0.168
6456,0.094,-0.177
6457,0.098,-0.177
6458,0.104,-0.177
6459,0.110,-0.177
6460,0.113,-0.186
6461,0.117,-0.186
6462,0.118,-0.186
6463,0.118,-0.186
6464,0.116,-0.192
6465,0.113,-0.192
6466,0.113,-0.192
6467,0.113,-0.192
6468,0.116,-0.196
6469,0.119,-0.196
6470,0.124,-0.196
6471,0.128,-0.196
6472,0.131,-0.195
6473,0.134,-0.195
6474,0.133,-0.195
6475,0.133,-0.195
6476,0.130,-0.196
6477,0.127,-0.196
6478,0.121,-0.196
6479,0.116,-0.196
6480,0.109,-0.194
6481,0.103,-0.194
6482,0.099,-0.194
6483,0.094,-0.194
6484,0.093,-0.191
6485,0.091,-0.191
6486,0.091,-0.191
6487,0.091,-0.191
6488,0.091,-0.188
6489,0.091,-0.188
6490,0.088,-0.188
6491,0.086,-0.188
6492,0.080,-0.185
6493,0.074,-0.185
6494,0.066,-0.185
6495,0.057,-0.185
6496,0.048,-0.184
6497,0.038,-0.184
6498,0.033,-0.184
6499,0.029,-0.184
6500,0.031,-0.181
6501,0.033,-0.181
6502,0.042,-0.181
6503,0.050,-0.181
6504,0.061,-0.177
6505,0.072,-0.177
6506,0.081,-0.177
6507,0.091,-0.177
6508,0.095,-0.172
6509,0.099,-0.172
6510,0.097,-0.172
6511,0.096,-0.172
6512,0.088,-0.167
6513,0.081,-0.167
6514,0.070,-0.167
6515,0.060,-0.167
6516,0.049,-0.158
6517,0.038,-0.158
6518,0.032,-0.158
6519,0.026,-0.158
6520,0.023,-0.152
6521,0.019,-0.152
6522,0.016,-0.152
6523,0.012,-0.152
6524,0.010,-0.149
6525,0.007,-0.149
6526,0.005,-0.149
6527,0.004,-0.149
6528,0.003,-0.145
6529,0.002,-0.145
6530,0.001,-0.145
6531,-0.001,-0.145
6532,-0.004,-0.145
6533,-0.007,-0.145
6534,-0.011,-0.145
6535,-0.016,-0.145
6536,-0.020,-0.145
6537,-0.025,-0.145
6538,-0.026,-0.145
6539,-0.026,-0.145
6540,-0.020,-0.152
6541,-0.013,-0.152
6542,-0.003,-0.152
6543,0.007,-0.152
6544,0.020,-0.160
6545,0.032,-0.160
6546,0.044,-0.160
6547,0.056,-0.160
6548,0.066,-0.171
6549,0.076,-0.171
6550,0.080,-0.171
6551,0.084,-0.171
6552,0.078,-0.183
6553,0.072,-0.183
6554,0.058,-0.183
6555,0.044,-0.183
6556,0.029,-0.198
6557,0.013,-0.198
6558,0.000,-0.198
6559,-0.013,-0.198
6560,-0.018,-0.213
6561,-0.023,-0.213
6562,-0.020,-0.213
6563,-0.018,-0.213
6564,-0.013,-0.230
6565,-0.007,-0.230
6566,-0.004,-0.230
6567,0.000,-0.230
6568,0.002,-0.243
6569,0.004,-0.243
6570,0.003,-0.243
6571,0.002,-0.243
6572,-0.002,-0.260
6573,-0.006,-0.260
6574,-0.010,-0.260
6575,-0.014,-0.260
6576,-0.016,-0.272
6577,-0.017,-0.272
6578,-0.014,-0.272
6579,-0.011,-0.272
6580,-0.005,-0.285
6581,0.000,-0.285
6582,0.005,-0.285
6583,0.011,-0.285
6584,0.014,-0.296
6585,0.018,-0.296
6586,0.017,-0.296
6587,0.017,-0.296
6588,0.014,-0.307
6589,0.011,-0.307
6590,0.007,-0.307
6591,0.004,-0.307
6592,0.002,-0.317
6593,0.000,-0.317
6594,0.005,-0.317
6595,0.010,-0.317
6596,0.024,-0.326
6597,0.039,-0.326
6598,0.064,-0.326
6599,0.090,-0.326
6600,0.116,-0.333
6601,0.143,-0.333
6602,0.162,-0.333
6603,0.180,-0.333
6604,0.181,-0.342
6605,0.183,-0.342
6606,0.162,-0.342
6607,0.142,-0.342
6608,0.108,-0.347
6609,0.074,-0.347
6610,0.039,-0.347
6611,0.005,-0.347
6612,-0.023,-0.351
6613,-0.050,-0.351
6614,-0.067,-0.351
6615,-0.084,-0.351
6616,-0.092,-0.356
6617,-0.100,-0.356
6618,-0.103,-0.356
6619,-0.106,-0.356
6620,-0.105,-0.360
6621,-0.104,-0.360
6622,-0.099,-0.360
6623,-0.093,-0.360
6624,-0.085,-0.362
6625,-0.078,-0.362
6626,-0.069,-0.362
6627,-0.060,-0.362
6628,-0.050,-0.363
6629,-0.041,-0.363
6630,-0.033,-0.363
6631,-0.025,-0.363
6632,-0.020,-0.364
6633,-0.016,-0.364
6634,-0.014,-0.364
6635,-0.012,-0.364
6636,-0.010,-0.365
6637,-0.007,-0.365
6638,-0.003,-0.365
6639,0.001,-0.365
6640,0.006,-0.365
6641,0.011,-0.365
6642,0.014,-0.365
6643,0.018,-0.365
6644,0.019,-0.365
6645,0.020,-0.365
6646,0.019,-0.365
6647,0.017,-0.365
6648,0.013,-0.365
6649,0.008,-0.365
6650,0.005,-0.365
6651,0.002,-0.365
6652,0.001,-0.363
6653,0.000,-0.363
6654,-0.001,-0.363
6655,-0.002,-0.363
6656,-0.004,-0.361
6657,-0.005,-0.361
6658,-0.007,-0.361
6659,-0.010,-0.361
6660,-0.012,-0.357
6661,-0.014,-0.357
6662,-0.016,-0.357
6663,-0.018,-0.357
6664,-0.017,-0.350
6665,-0.017,-0.350
6666,-0.015,-0.350
6667,-0.013,-0.350
6668,-0.011,-0.341
6669,-0.010,-0.341
6670,-0.008,-0.341
6671,-0.007,-0.341
6672,-0.006,-0.330
6673,-0.005,-0.330
6674,-0.004,-0.330
6675,-0.002,-0.330
6676,0.001,-0.315
6677,0.005,-0.315
6678,0.009,-0.315
6679,0.013,-0.315
6680,0.016,-0.296
6681,0.019,-0.296
6682,0.020,-0.296
6683,0.021,-0.296
6684,0.022,-0.276
6685,0.023,-0.276
6686,0.022,-0.276
6687,0.021,-0.276
6688,0.021,-0.255
6689,0.021,-0.255
6690,0.022,-0.255
6691,0.023,-0.255
6692,0.024,-0.230
6693,0.026,-0.230
6694,0.028,-0.230
6695,0.030,-0.230
6696,0.030,-0.204
6697,0.031,-0.204
6698,0.031,-0.204
6699,0.031,-0.204
6700,0.032,-0.179
6701,0.033,-0.179
6702,0.035,-0.179
6703,0.036,-0.179
6704,0.038,-0.156
6705,0.039,-0.156
6706,0.042,-0.156
6707,0.044,-0.156
6708,0.046,-0.131
6709,0.048,-0.131
6710,0.048,-0.131
6711,0.048,-0.131
6712,0.048,-0.105
6713,0.048,-0.105
6714,0.047,-0.105
6715,0.047,-0.105
6716,0.044,-0.079
6717,0.042,-0.079
6718,0.039,-0.079
6719,0.037,-0.079
6720,0.039,-0.048
6721,0.041,-0.048
6722,0.047,-0.048
6723,0.054,-0.048
6724,0.061,-0.011
6725,0.069,-0.011
6726,0.075,-0.011
6727,0.081,-0.011
6728,0.081,0.028
6729,0.080,0.028
6730,0.070,0.028
6731,0.060,0.028
6732,0.046,0.070
6733,0.032,0.070
6734,0.021,0.070
6735,0.011,0.070
6736,0.004,0.114
6737,-0.002,0.114
6738,-0.008,0.114
6739,-0.013,0.114
6740,-0.020,0.150
6741,-0.026,0.150
6742,-0.035,0.150
6743,-0.044,0.150
6744,-0.053,0.181
6745,-0.062,0.181
6746,-0.067,0.181
6747,-0.072,0.181
6748,-0.070,0.203
6749,-0.068,0.203
6750,-0.061,0.203
6751,-0.054,0.203
6752,-0.044,0.213
6753,-0.033,0.213
6754,-0.021,0.213
6755,-0.010,0.213
6756,0.001,0.212
6757,0.012,0.212
6758,0.019,0.212
6759,0.025,0.212
6760,0.027,0.201
6761,0.029,0.201
6762,0.027,0.201
6763,0.026,0.201
6764,0.024,0.178
6765,0.023,0.178
6766,0.021,0.178
6767,0.019,0.178
6768,0.017,0.152
6769,0.014,0.152
6770,0.008,0.152
6771,0.002,0.152
6772,-0.004,0.124
6773,-0.010,0.124
6774,-0.011,0.124
6775,-0.013,0.124
6776,-0.008,0.096
6777,-0.004,0.096
6778,0.007,0.096
6779,0.017,0.096
6780,0.030,0.072
6781,0.044,0.072
6782,0.058,0.072
6783,0.072,0.072
6784,0.085,0.048
6785,0.099,0.048
6786,0.116,0.048
6787,0.134,0.048
6788,0.149,0.028
6789,0.165,0.028
6790,0.168,0.028
6791,0.172,0.028
6792,0.150,0.009
6793,0.128,0.009
6794,0.073,0.009
6795,0.019,0.009
6796,-0.059,-0.009
6797,-0.137,-0.009
6798,-0.221,-0.009
6799,-0.304,-0.009
6800,-0.377,-0.027
6801,-0.450,-0.027
