,ECG,PPG
0,-0.039,-0.036
1,-0.034,-0.036
2,-0.031,-0.036
3,-0.028,-0.036
4,-0.033,-0.032
5,-0.037,-0.032
6,-0.052,-0.032
7,-0.066,-0.032
8,-0.086,-0.028
9,-0.105,-0.028
10,-0.124,-0.028
11,-0.144,-0.028
12,-0.157,-0.022
13,-0.169,-0.022
14,-0.174,-0.022
15,-0.178,-0.022
16,-0.174,-0.014
17,-0.171,-0.014
18,-0.164,-0.014
19,-0.157,-0.014
20,-0.148,-0.006
21,-0.138,-0.006
22,-0.132,-0.006
23,-0.127,-0.006
24,-0.127,0.002
25,-0.128,0.002
26,-0.131,0.002
27,-0.135,0.002
28,-0.139,0.011
29,-0.143,0.011
30,-0.145,0.011
31,-0.148,0.011
32,-0.150,0.020
33,-0.153,0.020
34,-0.157,0.020
35,-0.161,0.020
36,-0.165,0.028
37,-0.170,0.028
38,-0.175,0.028
39,-0.180,0.028
40,-0.184,0.035
41,-0.188,0.035
42,-0.191,0.035
43,-0.194,0.035
44,-0.197,0.043
45,-0.200,0.043
46,-0.201,0.043
47,-0.202,0.043
48,-0.200,0.050
49,-0.198,0.050
50,-0.190,0.050
51,-0.183,0.050
52,-0.172,0.056
53,-0.161,0.056
54,-0.152,0.056
55,-0.143,0.056
56,-0.140,0.059
57,-0.138,0.059
58,-0.143,0.059
59,-0.148,0.059
60,-0.155,0.064
61,-0.162,0.064
62,-0.166,0.064
63,-0.169,0.064
64,-0.167,0.067
65,-0.165,0.067
66,-0.160,0.067
67,-0.154,0.067
68,-0.153,0.070
69,-0.151,0.070
70,-0.155,0.070
71,-0.160,0.070
72,-0.166,0.073
73,-0.173,0.073
74,-0.177,0.073
75,-0.180,0.073
76,-0.176,0.071
77,-0.172,0.071
78,-0.161,0.071
79,-0.150,0.071
80,-0.137,0.073
81,-0.125,0.073
82,-0.116,0.073
83,-0.108,0.073
84,-0.103,0.071
85,-0.097,0.071
86,-0.091,0.071
87,-0.085,0.071
88,-0.076,0.070
89,-0.067,0.070
90,-0.058,0.070
91,-0.048,0.070
92,-0.044,0.067
93,-0.040,0.067
94,-0.044,0.067
95,-0.048,0.067
96,-0.056,0.067
97,-0.063,0.067
98,-0.068,0.067
99,-0.073,0.067
100,-0.074,0.065
101,-0.076,0.065
102,-0.074,0.065
103,-0.071,0.065
104,-0.068,0.064
105,-0.065,0.064
106,-0.063,0.064
107,-0.061,0.064
108,-0.059,0.062
109,-0.057,0.062
110,-0.054,0.062
111,-0.050,0.062
112,-0.044,0.062
113,-0.038,0.062
114,-0.034,0.062
115,-0.029,0.062
116,-0.030,0.060
117,-0.030,0.060
118,-0.034,0.060
119,-0.037,0.060
120,-0.041,0.062
121,-0.045,0.062
122,-0.045,0.062
123,-0.045,0.062
124,-0.041,0.060
125,-0.037,0.060
126,-0.027,0.060
127,-0.018,0.060
128,-0.006,0.062
129,0.006,0.062
130,0.016,0.062
131,0.026,0.062
132,0.030,0.062
133,0.034,0.062
134,0.029,0.062
135,0.023,0.062
136,0.012,0.060
137,0.001,0.060
138,-0.011,0.060
139,-0.022,0.060
140,-0.030,0.059
141,-0.037,0.059
142,-0.038,0.059
143,-0.039,0.059
144,-0.037,0.056
145,-0.035,0.056
146,-0.033,0.056
147,-0.032,0.056
148,-0.033,0.054
149,-0.034,0.054
150,-0.035,0.054
151,-0.036,0.054
152,-0.036,0.050
153,-0.037,0.050
154,-0.035,0.050
155,-0.034,0.050
156,-0.032,0.046
157,-0.029,0.046
158,-0.027,0.046
159,-0.025,0.046
160,-0.022,0.043
161,-0.020,0.043
162,-0.017,0.043
163,-0.015,0.043
164,-0.015,0.040
165,-0.014,0.040
166,-0.017,0.040
167,-0.020,0.040
168,-0.025,0.037
169,-0.031,0.037
170,-0.038,0.037
171,-0.045,0.037
172,-0.052,0.034
173,-0.059,0.034
174,-0.065,0.034
175,-0.070,0.034
176,-0.073,0.029
177,-0.076,0.029
178,-0.076,0.029
179,-0.076,0.029
180,-0.073,0.028
181,-0.070,0.028
182,-0.066,0.028
183,-0.062,0.028
184,-0.058,0.026
185,-0.054,0.026
186,-0.050,0.026
187,-0.045,0.026
188,-0.042,0.023
189,-0.039,0.023
190,-0.035,0.023
191,-0.031,0.023
192,-0.025,0.021
193,-0.020,0.021
194,-0.014,0.021
195,-0.009,0.021
196,-0.006,0.023
197,-0.003,0.023
198,-0.002,0.023
199,-0.002,0.023
200,-0.005,0.020
201,-0.009,0.020
202,-0.015,0.020
203,-0.021,0.020
204,-0.026,0.018
205,-0.030,0.018
206,-0.031,0.018
207,-0.031,0.018
208,-0.029,0.020
209,-0.026,0.020
210,-0.022,0.020
211,-0.019,0.020
212,-0.015,0.017
213,-0.012,0.017
214,-0.008,0.017
215,-0.004,0.017
216,0.000,0.018
217,0.005,0.018
218,0.011,0.018
219,0.017,0.018
220,0.021,0.015
221,0.025,0.015
222,0.026,0.015
223,0.027,0.015
224,0.024,0.012
225,0.021,0.012
226,0.012,0.012
227,0.004,0.012
228,-0.007,0.012
229,-0.018,0.012
230,-0.031,0.012
231,-0.044,0.012
232,-0.053,0.012
233,-0.062,0.012
234,-0.067,0.012
235,-0.072,0.012
236,-0.074,0.009
237,-0.075,0.009
238,-0.075,0.009
239,-0.076,0.009
240,-0.078,0.009
241,-0.079,0.009
242,-0.081,0.009
243,-0.083,0.009
244,-0.081,0.006
245,-0.079,0.006
246,-0.074,0.006
247,-0.070,0.006
248,-0.066,0.004
249,-0.062,0.004
250,-0.062,0.004
251,-0.062,0.004
252,-0.065,0.003
253,-0.069,0.003
254,-0.074,0.003
255,-0.079,0.003
256,-0.085,0.000
257,-0.091,0.000
258,-0.094,0.000
259,-0.096,0.000
260,-0.094,-0.004
261,-0.092,-0.004
262,-0.085,-0.004
263,-0.079,-0.004
264,-0.068,-0.005
265,-0.058,-0.005
266,-0.046,-0.005
267,-0.035,-0.005
268,-0.025,-0.009
269,-0.016,-0.009
270,-0.011,-0.009
271,-0.005,-0.009
272,-0.002,-0.014
273,0.001,-0.014
274,0.003,-0.014
275,0.004,-0.014
276,0.005,-0.018
277,0.005,-0.018
278,0.003,-0.018
279,0.001,-0.018
280,-0.003,-0.022
281,-0.007,-0.022
282,-0.011,-0.022
283,-0.014,-0.022
284,-0.013,-0.024
285,-0.012,-0.024
286,-0.001,-0.024
287,0.009,-0.024
288,0.025,-0.026
289,0.042,-0.026
290,0.057,-0.026
291,0.071,-0.026
292,0.069,-0.028
293,0.066,-0.028
294,0.034,-0.028
295,0.003,-0.028
296,-0.062,-0.030
297,-0.126,-0.030
298,-0.218,-0.030
299,-0.310,-0.030
300,-0.418,-0.030
301,-0.525,-0.030
302,-0.629,-0.030
303,-0.732,-0.030
304,-0.811,-0.028
305,-0.889,-0.028
306,-,-0.028
307,-,-0.028
308,-,-0.030
309,-,-0.030
310,-,-0.030
311,-0.905,-0.030
312,-0.852,-0.030
313,-0.798,-0.030
314,-0.732,-0.030
315,-0.665,-0.030
316,-0.592,-0.030
317,-0.519,-0.030
318,-0.448,-0.030
319,-0.376,-0.030
320,-0.314,-0.030
321,-0.252,-0.030
322,-0.203,-0.030
323,-0.154,-0.030
324,-0.119,-0.028
325,-0.084,-0.028
326,-0.059,-0.028
327,-0.034,-0.028
328,-0.016,-0.028
329,0.003,-0.028
330,0.014,-0.028
331,0.025,-0.028
332,0.027,-0.030
333,0.029,-0.030
334,0.023,-0.030
335,0.018,-0.030
336,0.011,-0.028
337,0.004,-0.028
338,-0.002,-0.028
339,-0.007,-0.028
340,-0.008,-0.028
341,-0.009,-0.028
342,-0.005,-0.028
343,-0.002,-0.028
344,0.003,-0.032
345,0.007,-0.032
346,0.010,-0.032
347,0.012,-0.032
348,0.013,-0.032
349,0.014,-0.032
350,0.014,-0.032
351,0.013,-0.032
352,0.015,-0.032
353,0.017,-0.032
354,0.020,-0.032
355,0.022,-0.032
356,0.022,-0.032
357,0.022,-0.032
358,0.020,-0.032
359,0.017,-0.032
360,0.013,-0.032
361,0.010,-0.032
362,0.008,-0.032
363,0.005,-0.032
364,0.008,-0.032
365,0.010,-0.032
366,0.017,-0.032
367,0.024,-0.032
368,0.034,-0.032
369,0.044,-0.032
370,0.053,-0.032
371,0.062,-0.032
372,0.069,-0.033
373,0.076,-0.033
374,0.079,-0.033
375,0.081,-0.033
376,0.078,-0.033
377,0.074,-0.033
378,0.064,-0.033
379,0.054,-0.033
380,0.039,-0.033
381,0.024,-0.033
382,0.012,-0.033
383,0.000,-0.033
384,-0.006,-0.033
385,-0.012,-0.033
386,-0.010,-0.033
387,-0.008,-0.033
388,-0.001,-0.033
389,0.006,-0.033
390,0.016,-0.033
391,0.026,-0.033
392,0.035,-0.035
393,0.045,-0.035
394,0.052,-0.035
395,0.060,-0.035
396,0.065,-0.036
397,0.070,-0.036
398,0.069,-0.036
399,0.069,-0.036
400,0.064,-0.036
401,0.059,-0.036
402,0.054,-0.036
403,0.050,-0.036
404,0.048,-0.037
405,0.045,-0.037
406,0.045,-0.037
407,0.044,-0.037
408,0.041,-0.037
409,0.039,-0.037
410,0.031,-0.037
411,0.023,-0.037
412,0.012,-0.037
413,0.000,-0.037
414,-0.012,-0.037
415,-0.023,-0.037
416,-0.029,-0.036
417,-0.034,-0.036
418,-0.035,-0.036
419,-0.036,-0.036
420,-0.036,-0.035
421,-0.036,-0.035
422,-0.037,-0.035
423,-0.038,-0.035
424,-0.041,-0.035
425,-0.045,-0.035
426,-0.047,-0.035
427,-0.050,-0.035
428,-0.049,-0.032
429,-0.048,-0.032
430,-0.045,-0.032
431,-0.042,-0.032
432,-0.039,-0.026
433,-0.036,-0.026
434,-0.034,-0.026
435,-0.032,-0.026
436,-0.031,-0.022
437,-0.030,-0.022
438,-0.032,-0.022
439,-0.033,-0.022
440,-0.036,-0.016
441,-0.039,-0.016
442,-0.045,-0.016
443,-0.052,-0.016
444,-0.061,-0.009
445,-0.070,-0.009
446,-0.081,-0.009
447,-0.092,-0.009
448,-0.101,0.000
449,-0.111,0.000
450,-0.114,0.000
451,-0.118,0.000
452,-0.115,0.009
453,-0.112,0.009
454,-0.104,0.009
455,-0.097,0.009
456,-0.092,0.020
457,-0.087,0.020
458,-0.084,0.020
459,-0.082,0.020
460,-0.084,0.028
461,-0.086,0.028
462,-0.089,0.028
463,-0.093,0.028
464,-0.095,0.037
465,-0.098,0.037
466,-0.099,0.037
467,-0.099,0.037
468,-0.098,0.045
469,-0.097,0.045
470,-0.096,0.045
471,-0.095,0.045
472,-0.093,0.051
473,-0.091,0.051
474,-0.090,0.051
475,-0.089,0.051
476,-0.091,0.056
477,-0.093,0.056
478,-0.096,0.056
479,-0.100,0.056
480,-0.104,0.060
481,-0.108,0.060
482,-0.109,0.060
483,-0.111,0.060
484,-0.109,0.064
485,-0.108,0.064
486,-0.108,0.064
487,-0.108,0.064
488,-0.114,0.067
489,-0.120,0.067
490,-0.132,0.067
491,-0.143,0.067
492,-0.154,0.067
493,-0.165,0.067
494,-0.169,0.067
495,-0.173,0.067
496,-0.168,0.067
497,-0.163,0.067
498,-0.153,0.067
499,-0.142,0.067
500,-0.129,0.068
501,-0.116,0.068
502,-0.104,0.068
503,-0.093,0.068
504,-0.085,0.070
505,-0.078,0.070
506,-0.072,0.070
507,-0.066,0.070
508,-0.061,0.068
509,-0.056,0.068
510,-0.051,0.068
511,-0.045,0.068
512,-0.042,0.070
513,-0.038,0.070
514,-0.038,0.070
515,-0.038,0.070
516,-0.042,0.068
517,-0.045,0.068
518,-0.050,0.068
519,-0.054,0.068
520,-0.054,0.070
521,-0.055,0.070
522,-0.054,0.070
523,-0.053,0.070
524,-0.050,0.068
525,-0.046,0.068
526,-0.042,0.068
527,-0.037,0.068
528,-0.029,0.070
529,-0.021,0.070
530,-0.009,0.070
531,0.004,0.070
532,0.018,0.070
533,0.033,0.070
534,0.044,0.070
535,0.055,0.070
536,0.058,0.068
537,0.061,0.068
538,0.056,0.068
539,0.052,0.068
540,0.045,0.070
541,0.038,0.070
542,0.032,0.070
543,0.026,0.070
544,0.025,0.068
545,0.023,0.068
546,0.027,0.068
547,0.031,0.068
548,0.039,0.068
549,0.046,0.068
550,0.056,0.068
551,0.066,0.068
552,0.077,0.067
553,0.088,0.067
554,0.096,0.067
555,0.104,0.067
556,0.105,0.065
557,0.106,0.065
558,0.098,0.065
559,0.090,0.065
560,0.076,0.064
561,0.062,0.064
562,0.047,0.064
563,0.031,0.064
564,0.019,0.060
565,0.007,0.060
566,-0.000,0.060
567,-0.008,0.060
568,-0.012,0.056
569,-0.016,0.056
570,-0.018,0.056
571,-0.020,0.056
572,-0.019,0.052
573,-0.019,0.052
574,-0.013,0.052
575,-0.008,0.052
576,0.003,0.050
577,0.013,0.050
578,0.027,0.050
579,0.040,0.050
580,0.051,0.045
581,0.062,0.045
582,0.070,0.045
583,0.077,0.045
584,0.079,0.038
585,0.081,0.038
586,0.079,0.038
587,0.078,0.038
588,0.074,0.033
589,0.070,0.033
590,0.064,0.033
591,0.059,0.033
592,0.054,0.028
593,0.050,0.028
594,0.049,0.028
595,0.048,0.028
596,0.051,0.023
597,0.054,0.023
598,0.057,0.023
599,0.060,0.023
600,0.062,0.018
601,0.064,0.018
602,0.063,0.018
603,0.062,0.018
604,0.058,0.012
605,0.054,0.012
606,0.050,0.012
607,0.045,0.012
608,0.045,0.009
609,0.045,0.009
610,0.045,0.009
611,0.045,0.009
612,0.042,0.006
613,0.040,0.006
614,0.034,0.006
615,0.029,0.006
616,0.019,0.004
617,0.010,0.004
618,0.003,0.004
619,-0.004,0.004
620,-0.004,0.004
621,-0.005,0.004
622,0.000,0.004
623,0.006,0.004
624,0.016,0.003
625,0.026,0.003
626,0.035,0.003
627,0.045,0.003
628,0.050,0.002
629,0.055,0.002
630,0.059,0.002
631,0.063,0.002
632,0.067,0.002
633,0.070,0.002
634,0.075,0.002
635,0.079,0.002
636,0.082,0.002
637,0.085,0.002
638,0.083,0.002
639,0.082,0.002
640,0.079,0.002
641,0.075,0.002
642,0.072,0.002
643,0.069,0.002
644,0.068,0.003
645,0.068,0.003
646,0.068,0.003
647,0.068,0.003
648,0.066,0.002
649,0.065,0.002
650,0.060,0.002
651,0.054,0.002
652,0.048,0.000
653,0.041,0.000
654,0.039,0.000
655,0.037,0.000
656,0.044,0.000
657,0.050,0.000
658,0.062,0.000
659,0.075,0.000
660,0.086,-0.002
661,0.097,-0.002
662,0.099,-0.002
663,0.100,-0.002
664,0.088,-0.004
665,0.076,-0.004
666,0.058,-0.004
667,0.040,-0.004
668,0.028,-0.005
669,0.016,-0.005
670,0.021,-0.005
671,0.026,-0.005
672,0.046,-0.008
673,0.066,-0.008
674,0.089,-0.008
675,0.112,-0.008
676,0.122,-0.011
677,0.133,-0.011
678,0.124,-0.011
679,0.115,-0.011
680,0.089,-0.013
681,0.063,-0.013
682,0.030,-0.013
683,-0.003,-0.013
684,-0.031,-0.016
685,-0.060,-0.016
686,-0.077,-0.016
687,-0.095,-0.016
688,-0.099,-0.019
689,-0.104,-0.019
690,-0.098,-0.019
691,-0.092,-0.019
692,-0.077,-0.022
693,-0.062,-0.022
694,-0.042,-0.022
695,-0.021,-0.022
696,0.003,-0.024
697,0.028,-0.024
698,0.052,-0.024
699,0.076,-0.024
700,0.093,-0.026
701,0.111,-0.026
702,0.120,-0.026
703,0.128,-0.026
704,0.129,-0.032
705,0.129,-0.032
706,0.124,-0.032
707,0.119,-0.032
708,0.111,-0.035
709,0.103,-0.035
710,0.099,-0.035
711,0.096,-0.035
712,0.102,-0.039
713,0.108,-0.039
714,0.123,-0.039
715,0.137,-0.039
716,0.155,-0.044
717,0.172,-0.044
718,0.187,-0.044
719,0.202,-0.044
720,0.206,-0.049
721,0.210,-0.049
722,0.201,-0.049
723,0.192,-0.049
724,0.166,-0.056
725,0.141,-0.056
726,0.093,-0.056
727,0.045,-0.056
728,-0.033,-0.062
729,-0.112,-0.062
730,-0.217,-0.062
731,-0.323,-0.062
732,-0.440,-0.070
733,-0.558,-0.070
734,-0.661,-0.070
735,-0.765,-0.070
736,-0.832,-0.078
737,-0.898,-0.078
738,-,-0.078
739,-,-0.078
740,-,-0.084
741,-0.900,-0.084
742,-0.855,-0.084
743,-0.811,-0.084
744,-0.752,-0.093
745,-0.694,-0.093
746,-0.628,-0.093
747,-0.561,-0.093
748,-0.488,-0.100
749,-0.415,-0.100
750,-0.340,-0.100
751,-0.266,-0.100
752,-0.198,-0.107
753,-0.130,-0.107
754,-0.076,-0.107
755,-0.022,-0.107
756,0.016,-0.118
757,0.054,-0.118
758,0.079,-0.118
759,0.103,-0.118
760,0.114,-0.126
761,0.125,-0.126
762,0.128,-0.126
763,0.131,-0.126
764,0.129,-0.133
765,0.128,-0.133
766,0.121,-0.133
767,0.115,-0.133
768,0.106,-0.139
769,0.097,-0.139
770,0.088,-0.139
771,0.079,-0.139
772,0.071,-0.143
773,0.063,-0.143
774,0.058,-0.143
775,0.052,-0.143
776,0.049,-0.165
777,0.045,-0.165
778,0.049,-0.165
779,0.053,-0.165
780,0.062,-0.168
781,0.072,-0.168
782,0.087,-0.168
783,0.102,-0.168
784,0.117,-0.170
785,0.132,-0.170
786,0.144,-0.170
787,0.155,-0.170
788,0.160,-0.171
789,0.164,-0.171
790,0.161,-0.171
791,0.159,-0.171
792,0.154,-0.168
793,0.150,-0.168
794,0.148,-0.168
795,0.146,-0.168
796,0.149,-0.168
797,0.151,-0.168
798,0.154,-0.168
799,0.158,-0.168
800,0.159,-0.168
801,0.161,-0.168
802,0.157,-0.168
803,0.153,-0.168
804,0.143,-0.167
805,0.133,-0.167
806,0.121,-0.167
807,0.110,-0.167
808,0.101,-0.162
809,0.092,-0.162
810,0.087,-0.162
811,0.081,-0.162
812,0.078,-0.159
813,0.075,-0.159
814,0.075,-0.159
815,0.075,-0.159
816,0.079,-0.154
817,0.083,-0.154
818,0.091,-0.154
819,0.100,-0.154
820,0.108,-0.148
821,0.117,-0.148
822,0.122,-0.148
823,0.128,-0.148
824,0.127,-0.143
825,0.127,-0.143
826,0.124,-0.143
827,0.122,-0.143
828,0.123,-0.137
829,0.123,-0.137
830,0.125,-0.137
831,0.127,-0.137
832,0.126,-0.131
833,0.126,-0.131
834,0.122,-0.131
835,0.118,-0.131
836,0.113,-0.124
837,0.108,-0.124
838,0.107,-0.124
839,0.105,-0.124
840,0.109,-0.115
841,0.113,-0.115
842,0.122,-0.115
843,0.130,-0.115
844,0.139,-0.109
845,0.148,-0.109
846,0.153,-0.109
847,0.159,-0.109
848,0.161,-0.103
849,0.162,-0.103
850,0.161,-0.103
851,0.159,-0.103
852,0.153,-0.093
853,0.148,-0.093
854,0.139,-0.093
855,0.129,-0.093
856,0.117,-0.086
857,0.104,-0.086
858,0.090,-0.086
859,0.075,-0.086
860,0.062,-0.076
861,0.048,-0.076
862,0.041,-0.076
863,0.033,-0.076
864,0.032,-0.066
865,0.030,-0.066
866,0.033,-0.066
867,0.037,-0.066
868,0.041,-0.053
869,0.045,-0.053
870,0.048,-0.053
871,0.051,-0.053
872,0.052,-0.039
873,0.054,-0.039
874,0.053,-0.039
875,0.053,-0.039
876,0.051,-0.024
877,0.050,-0.024
878,0.046,-0.024
879,0.043,-0.024
880,0.035,-0.008
881,0.028,-0.008
882,0.016,-0.008
883,0.004,-0.008
884,-0.008,0.011
885,-0.020,0.011
886,-0.026,0.011
887,-0.033,0.011
888,-0.030,0.029
889,-0.028,0.029
890,-0.018,0.029
891,-0.008,0.029
892,0.004,0.050
893,0.016,0.050
894,0.025,0.050
895,0.035,0.050
896,0.039,0.068
897,0.044,0.068
898,0.045,0.068
899,0.047,0.068
900,0.047,0.088
901,0.046,0.088
902,0.042,0.088
903,0.038,0.088
904,0.030,0.107
905,0.021,0.107
906,0.009,0.107
907,-0.003,0.107
908,-0.015,0.126
909,-0.027,0.126
910,-0.036,0.126
911,-0.045,0.126
912,-0.048,0.141
913,-0.052,0.141
914,-0.052,0.141
915,-0.052,0.141
916,-0.051,0.159
917,-0.050,0.159
918,-0.048,0.159
919,-0.045,0.159
920,-0.039,0.174
921,-0.033,0.174
922,-0.024,0.174
923,-0.014,0.174
924,-0.003,0.186
925,0.009,0.186
926,0.019,0.186
927,0.029,0.186
928,0.032,0.199
929,0.035,0.199
930,0.032,0.199
931,0.029,0.199
932,0.023,0.208
933,0.017,0.208
934,0.010,0.208
935,0.004,0.208
936,-0.002,0.217
937,-0.008,0.217
938,-0.011,0.217
939,-0.014,0.217
940,-0.016,0.229
941,-0.017,0.229
942,-0.016,0.229
943,-0.014,0.229
944,-0.009,0.236
945,-0.004,0.236
946,0.007,0.236
947,0.017,0.236
948,0.028,0.242
949,0.038,0.242
950,0.045,0.242
951,0.052,0.242
952,0.055,0.253
953,0.059,0.253
954,0.060,0.253
955,0.062,0.253
956,0.063,0.261
957,0.065,0.261
958,0.067,0.261
959,0.070,0.261
960,0.072,0.271
961,0.075,0.271
962,0.078,0.271
963,0.080,0.271
964,0.082,0.281
965,0.084,0.281
966,0.085,0.281
967,0.087,0.281
968,0.089,0.295
969,0.092,0.295
970,0.097,0.295
971,0.102,0.295
972,0.108,0.316
973,0.115,0.316
974,0.121,0.316
975,0.127,0.316
976,0.131,0.339
977,0.135,0.339
978,0.136,0.339
979,0.136,0.339
980,0.132,0.368
981,0.127,0.368
982,0.118,0.368
983,0.110,0.368
984,0.103,0.401
985,0.095,0.401
986,0.091,0.401
987,0.087,0.401
988,0.087,0.443
989,0.086,0.443
990,0.085,0.443
991,0.084,0.443
992,0.081,0.489
993,0.079,0.489
994,0.073,0.489
995,0.067,0.489
996,0.063,0.541
997,0.060,0.541
998,0.062,0.541
999,0.065,0.541
1000,0.077,0.594
1001,0.088,0.594
1002,0.106,0.594
1003,0.123,0.594
1004,0.140,0.651
1005,0.158,0.651
1006,0.167,0.651
1007,0.176,0.651
1008,0.173,0.707
1009,0.169,0.707
1010,0.159,0.707
1011,0.148,0.707
1012,0.137,0.761
1013,0.127,0.761
1014,0.123,0.761
1015,0.119,0.761
1016,0.120,0.811
1017,0.121,0.811
1018,0.122,0.811
1019,0.122,0.811
1020,0.119,0.857
1021,0.115,0.857
1022,0.109,0.857
1023,0.103,0.857
1024,0.097,0.895
1025,0.092,0.895
1026,0.089,0.895
1027,0.086,0.895
1028,0.083,0.926
1029,0.079,0.926
1030,0.076,0.926
1031,0.072,0.926
1032,0.070,0.952
1033,0.069,0.952
1034,0.071,0.952
1035,0.074,0.952
1036,0.080,0.966
1037,0.087,0.966
1038,0.094,0.966
1039,0.101,0.966
1040,0.106,0.975
1041,0.112,0.975
1042,0.115,0.975
1043,0.119,0.975
1044,0.119,0.976
1045,0.119,0.976
1046,0.116,0.976
1047,0.112,0.976
1048,0.106,0.970
1049,0.100,0.970
1050,0.093,0.970
1051,0.086,0.970
1052,0.083,0.959
1053,0.081,0.959
1054,0.087,0.959
1055,0.092,0.959
1056,0.102,0.942
1057,0.112,0.942
1058,0.124,0.942
1059,0.136,0.942
1060,0.142,0.921
1061,0.148,0.921
1062,0.147,0.921
1063,0.146,0.921
1064,0.136,0.895
1065,0.127,0.895
1066,0.112,0.895
1067,0.098,0.895
1068,0.084,0.866
1069,0.070,0.866
1070,0.062,0.866
1071,0.054,0.866
1072,0.053,0.835
1073,0.053,0.835
1074,0.058,0.835
1075,0.062,0.835
1076,0.068,0.802
1077,0.074,0.802
1078,0.078,0.802
1079,0.082,0.802
1080,0.085,0.766
1081,0.088,0.766
1082,0.095,0.766
1083,0.101,0.766
1084,0.110,0.732
1085,0.119,0.732
1086,0.128,0.732
1087,0.137,0.732
1088,0.142,0.697
1089,0.147,0.697
1090,0.146,0.697
1091,0.145,0.697
1092,0.138,0.662
1093,0.131,0.662
1094,0.123,0.662
1095,0.114,0.662
1096,0.108,0.625
1097,0.103,0.625
1098,0.100,0.625
1099,0.097,0.625
1100,0.097,0.589
1101,0.097,0.589
1102,0.096,0.589
1103,0.095,0.589
1104,0.092,0.555
1105,0.088,0.555
1106,0.082,0.555
1107,0.076,0.555
1108,0.071,0.517
1109,0.066,0.517
1110,0.066,0.517
1111,0.066,0.517
1112,0.071,0.482
1113,0.077,0.482
1114,0.083,0.482
1115,0.088,0.482
1116,0.091,0.445
1117,0.093,0.445
1118,0.090,0.445
1119,0.087,0.445
1120,0.079,0.408
1121,0.072,0.408
1122,0.063,0.408
1123,0.054,0.408
1124,0.043,0.376
1125,0.033,0.376
1126,0.022,0.376
1127,0.012,0.376
1128,0.001,0.344
1129,-0.009,0.344
1130,-0.013,0.344
1131,-0.018,0.344
1132,-0.011,0.309
1133,-0.004,0.309
1134,0.012,0.309
1135,0.029,0.309
1136,0.050,0.281
1137,0.070,0.281
1138,0.088,0.281
1139,0.105,0.281
1140,0.115,0.252
1141,0.125,0.252
1142,0.124,0.252
1143,0.123,0.252
1144,0.116,0.225
1145,0.110,0.225
1146,0.103,0.225
1147,0.096,0.225
1148,0.094,0.199
1149,0.092,0.199
1150,0.095,0.199
1151,0.098,0.199
1152,0.105,0.172
1153,0.112,0.172
1154,0.123,0.172
1155,0.133,0.172
1156,0.149,0.147
1157,0.164,0.147
1158,0.182,0.147
1159,0.201,0.147
1160,0.213,0.124
1161,0.226,0.124
1162,0.223,0.124
1163,0.220,0.124
1164,0.195,0.102
1165,0.170,0.102
1166,0.120,0.102
1167,0.069,0.102
1168,-0.008,0.082
1169,-0.086,0.082
1170,-0.183,0.082
1171,-0.281,0.082
1172,-0.384,0.062
1173,-0.487,0.062
1174,-0.580,0.062
1175,-0.673,0.062
1176,-0.740,0.043
1177,-0.807,0.043
1178,-0.839,0.043
1179,-0.871,0.043
1180,-0.865,0.025
1181,-0.859,0.025
1182,-0.819,0.025
1183,-0.779,0.025
1184,-0.711,0.009
1185,-0.642,0.009
1186,-0.556,0.009
1187,-0.470,0.009
1188,-0.382,-0.011
1189,-0.294,-0.011
1190,-0.221,-0.011
1191,-0.147,-0.011
1192,-0.094,-0.029
1193,-0.041,-0.029
1194,-0.008,-0.029
1195,0.025,-0.029
1196,0.042,-0.047
1197,0.059,-0.047
1198,0.067,-0.047
1199,0.075,-0.047
1200,0.078,-0.066
1201,0.080,-0.066
1202,0.083,-0.066
1203,0.086,-0.066
1204,0.090,-0.084
1205,0.094,-0.084
1206,0.100,-0.084
1207,0.106,-0.084
1208,0.110,-0.102
1209,0.114,-0.102
1210,0.116,-0.102
1211,0.119,-0.102
1212,0.119,-0.118
1213,0.119,-0.118
1214,0.118,-0.118
1215,0.117,-0.118
1216,0.119,-0.136
1217,0.121,-0.136
1218,0.128,-0.136
1219,0.136,-0.136
1220,0.145,-0.154
1221,0.154,-0.154
1222,0.162,-0.154
1223,0.169,-0.154
1224,0.172,-0.170
1225,0.174,-0.170
1226,0.171,-0.170
1227,0.168,-0.170
1228,0.161,-0.183
1229,0.153,-0.183
1230,0.145,-0.183
1231,0.137,-0.183
1232,0.132,-0.201
1233,0.127,-0.201
1234,0.125,-0.201
1235,0.123,-0.201
1236,0.126,-0.216
1237,0.129,-0.216
1238,0.135,-0.216
1239,0.140,-0.216
1240,0.144,-0.232
1241,0.148,-0.232
1242,0.148,-0.232
1243,0.147,-0.232
1244,0.144,-0.246
1245,0.140,-0.246
1246,0.136,-0.246
1247,0.131,-0.246
1248,0.128,-0.260
1249,0.124,-0.260
1250,0.123,-0.260
1251,0.122,-0.260
1252,0.122,-0.273
1253,0.122,-0.273
1254,0.119,-0.273
1255,0.116,-0.273
1256,0.112,-0.284
1257,0.107,-0.284
1258,0.106,-0.284
1259,0.105,-0.284
1260,0.109,-0.294
1261,0.113,-0.294
1262,0.121,-0.294
1263,0.128,-0.294
1264,0.139,-0.305
1265,0.150,-0.305
1266,0.160,-0.305
1267,0.170,-0.305
1268,0.176,-0.312
1269,0.181,-0.312
1270,0.177,-0.312
1271,0.172,-0.312
1272,0.158,-0.324
1273,0.145,-0.324
1274,0.128,-0.324
1275,0.112,-0.324
1276,0.103,-0.333
1277,0.095,-0.333
1278,0.098,-0.333
1279,0.101,-0.333
1280,0.112,-0.339
1281,0.124,-0.339
1282,0.137,-0.339
1283,0.151,-0.339
1284,0.160,-0.347
1285,0.169,-0.347
1286,0.171,-0.347
1287,0.173,-0.347
1288,0.172,-0.553
1289,0.171,-0.553
1290,0.169,-0.553
1291,0.168,-0.553
1292,0.163,-0.560
1293,0.159,-0.560
1294,0.148,-0.560
1295,0.136,-0.560
1296,0.118,-0.563
1297,0.100,-0.563
1298,0.079,-0.563
1299,0.059,-0.563
1300,0.042,-0.566
1301,0.026,-0.566
1302,0.016,-0.566
1303,0.005,-0.566
1304,0.001,-0.568
1305,-0.003,-0.568
1306,-0.002,-0.568
1307,-0.002,-0.568
1308,0.003,-0.569
1309,0.007,-0.569
1310,0.017,-0.569
1311,0.027,-0.569
1312,0.041,-0.568
1313,0.054,-0.568
1314,0.066,-0.568
1315,0.078,-0.568
1316,0.083,-0.568
1317,0.088,-0.568
1318,0.087,-0.568
1319,0.086,-0.568
1320,0.079,-0.563
1321,0.071,-0.563
1322,0.062,-0.563
1323,0.054,-0.563
1324,0.045,-0.561
1325,0.037,-0.561
1326,0.030,-0.561
1327,0.023,-0.561
1328,0.017,-0.560
1329,0.010,-0.560
1330,0.004,-0.560
1331,-0.002,-0.560
1332,-0.004,-0.555
1333,-0.006,-0.555
1334,-0.004,-0.555
1335,-0.003,-0.555
1336,0.000,-0.552
1337,0.004,-0.552
1338,0.007,-0.552
1339,0.011,-0.552
1340,0.015,-0.549
1341,0.020,-0.549
1342,0.025,-0.549
1343,0.030,-0.549
1344,0.034,-0.546
1345,0.037,-0.546
1346,0.034,-0.546
1347,0.030,-0.546
1348,0.017,-0.542
1349,0.004,-0.542
1350,-0.015,-0.542
1351,-0.034,-0.542
1352,-0.050,-0.539
1353,-0.065,-0.539
1354,-0.072,-0.539
1355,-0.079,-0.539
1356,-0.076,-0.536
1357,-0.072,-0.536
1358,-0.064,-0.536
1359,-0.055,-0.536
1360,-0.050,-0.533
1361,-0.045,-0.533
1362,-0.048,-0.533
1363,-0.051,-0.533
1364,-0.057,-0.527
1365,-0.062,-0.527
1366,-0.066,-0.527
1367,-0.069,-0.527
1368,-0.066,-0.525
1369,-0.062,-0.525
1370,-0.054,-0.525
1371,-0.046,-0.525
1372,-0.037,-0.524
1373,-0.027,-0.524
1374,-0.020,-0.524
1375,-0.012,-0.524
1376,-0.009,-0.521
1377,-0.006,-0.521
1378,-0.004,-0.521
1379,-0.001,-0.521
1380,0.002,-0.519
1381,0.005,-0.519
1382,0.009,-0.519
1383,0.013,-0.519
1384,0.018,-0.516
1385,0.022,-0.516
1386,0.027,-0.516
1387,0.032,-0.516
1388,0.039,-0.516
1389,0.045,-0.516
1390,0.053,-0.516
1391,0.061,-0.516
1392,0.068,-0.513
1393,0.075,-0.513
1394,0.080,-0.513
1395,0.086,-0.513
1396,0.090,-0.510
1397,0.095,-0.510
1398,0.099,-0.510
1399,0.103,-0.510
1400,0.108,-0.510
1401,0.112,-0.510
1402,0.116,-0.510
1403,0.120,-0.510
1404,0.119,-0.508
1405,0.118,-0.508
1406,0.111,-0.508
1407,0.104,-0.508
1408,0.095,-0.508
1409,0.087,-0.508
1410,0.079,-0.508
1411,0.072,-0.508
1412,0.072,-0.505
1413,0.071,-0.505
1414,0.079,-0.505
1415,0.087,-0.505
1416,0.099,-0.505
1417,0.112,-0.505
1418,0.121,-0.505
1419,0.130,-0.505
1420,0.135,-0.505
1421,0.140,-0.505
1422,0.139,-0.505
1423,0.137,-0.505
1424,0.130,-0.507
1425,0.123,-0.507
1426,0.116,-0.507
1427,0.108,-0.507
1428,0.106,-0.507
1429,0.104,-0.507
1430,0.111,-0.507
1431,0.117,-0.507
1432,0.130,-0.510
1433,0.143,-0.510
1434,0.157,-0.510
1435,0.172,-0.510
1436,0.182,-0.513
1437,0.191,-0.513
1438,0.191,-0.513
1439,0.191,-0.513
1440,0.184,-0.516
1441,0.178,-0.516
1442,0.170,-0.516
1443,0.162,-0.516
1444,0.160,-0.521
1445,0.157,-0.521
1446,0.161,-0.521
1447,0.164,-0.521
1448,0.171,-0.522
1449,0.178,-0.522
1450,0.185,-0.522
1451,0.192,-0.522
1452,0.194,-0.528
1453,0.197,-0.528
1454,0.192,-0.528
1455,0.187,-0.528
1456,0.174,-0.532
1457,0.160,-0.532
1458,0.141,-0.532
1459,0.122,-0.532
1460,0.106,-0.535
1461,0.089,-0.535
1462,0.082,-0.535
1463,0.075,-0.535
1464,0.078,-0.541
1465,0.081,-0.541
1466,0.090,-0.541
1467,0.099,-0.541
1468,0.107,-0.546
1469,0.115,-0.546
1470,0.119,-0.546
1471,0.122,-0.546
1472,0.121,-0.552
1473,0.120,-0.552
1474,0.119,-0.552
1475,0.117,-0.552
1476,0.116,-0.558
1477,0.116,-0.558
1478,0.114,-0.558
1479,0.112,-0.558
1480,0.107,-0.566
1481,0.102,-0.566
1482,0.095,-0.566
1483,0.088,-0.566
1484,0.083,-0.574
1485,0.079,-0.574
1486,0.080,-0.574
1487,0.082,-0.574
1488,0.093,-0.580
1489,0.103,-0.580
1490,0.119,-0.580
1491,0.134,-0.580
1492,0.145,-0.586
1493,0.156,-0.586
1494,0.159,-0.586
1495,0.162,-0.586
1496,0.159,-0.593
1497,0.156,-0.593
1498,0.151,-0.593
1499,0.146,-0.593
1500,0.145,-0.599
1501,0.143,-0.599
1502,0.144,-0.599
1503,0.145,-0.599
1504,0.147,-0.605
1505,0.150,-0.605
1506,0.150,-0.605
1507,0.150,-0.605
1508,0.142,-0.610
1509,0.135,-0.610
1510,0.118,-0.610
1511,0.101,-0.610
1512,0.076,-0.613
1513,0.052,-0.613
1514,0.028,-0.613
1515,0.004,-0.613
1516,-0.008,-0.619
1517,-0.021,-0.619
1518,-0.016,-0.619
1519,-0.012,-0.619
1520,0.006,-0.625
1521,0.023,-0.625
1522,0.045,-0.625
1523,0.068,-0.625
1524,0.087,-0.634
1525,0.105,-0.634
1526,0.119,-0.634
1527,0.133,-0.634
1528,0.144,-0.642
1529,0.154,-0.642
1530,0.162,-0.642
1531,0.170,-0.642
1532,0.178,-0.653
1533,0.185,-0.653
1534,0.190,-0.653
1535,0.194,-0.653
1536,0.193,-0.665
1537,0.191,-0.665
1538,0.182,-0.665
1539,0.173,-0.665
1540,0.159,-0.678
1541,0.145,-0.678
1542,0.132,-0.678
1543,0.118,-0.678
1544,0.108,-0.694
1545,0.098,-0.694
1546,0.094,-0.694
1547,0.089,-0.694
1548,0.087,-0.709
1549,0.086,-0.709
1550,0.083,-0.709
1551,0.080,-0.709
1552,0.077,-0.725
1553,0.074,-0.725
1554,0.069,-0.725
1555,0.063,-0.725
1556,0.054,-0.743
1557,0.045,-0.743
1558,0.033,-0.743
1559,0.021,-0.743
1560,0.008,-0.759
1561,-0.005,-0.759
1562,-0.014,-0.759
1563,-0.022,-0.759
1564,-0.021,-0.774
1565,-0.021,-0.774
1566,-0.009,-0.774
1567,0.003,-0.774
1568,0.021,-0.793
1569,0.038,-0.793
1570,0.056,-0.793
1571,0.074,-0.793
1572,0.086,-0.808
1573,0.098,-0.808
1574,0.103,-0.808
1575,0.109,-0.808
1576,0.108,-0.821
1577,0.108,-0.821
1578,0.105,-0.821
1579,0.103,-0.821
1580,0.101,-0.834
1581,0.100,-0.834
1582,0.102,-0.834
1583,0.104,-0.834
1584,0.109,-0.843
1585,0.113,-0.843
1586,0.117,-0.843
1587,0.120,-0.843
1588,0.124,-0.851
1589,0.127,-0.851
1590,0.132,-0.851
1591,0.137,-0.851
1592,0.148,-0.852
1593,0.158,-0.852
1594,0.176,-0.852
1595,0.194,-0.852
1596,0.215,-0.852
1597,0.236,-0.852
1598,0.250,-0.852
1599,0.265,-0.852
1600,0.260,-0.849
1601,0.255,-0.849
1602,0.220,-0.849
1603,0.185,-0.849
1604,0.115,-0.843
1605,0.045,-0.843
1606,-0.052,-0.843
1607,-0.150,-0.843
1608,-0.258,-0.834
1609,-0.367,-0.834
1610,-0.461,-0.834
1611,-0.556,-0.834
1612,-0.621,-0.826
1613,-0.686,-0.826
1614,-0.716,-0.826
1615,-0.747,-0.826
1616,-0.746,-0.815
1617,-0.746,-0.815
1618,-0.723,-0.815
1619,-0.700,-0.815
1620,-0.662,-0.801
1621,-0.624,-0.801
1622,-0.573,-0.801
1623,-0.523,-0.801
1624,-0.464,-0.785
1625,-0.405,-0.785
1626,-0.342,-0.785
1627,-0.279,-0.785
1628,-0.219,-0.771
1629,-0.160,-0.771
1630,-0.108,-0.771
1631,-0.056,-0.771
1632,-0.016,-0.754
1633,0.025,-0.754
1634,0.054,-0.754
1635,0.082,-0.754
1636,0.099,-0.737
1637,0.115,-0.737
1638,0.120,-0.737
1639,0.126,-0.737
1640,0.123,-0.719
1641,0.120,-0.719
1642,0.115,-0.719
1643,0.111,-0.719
1644,0.108,-0.700
1645,0.106,-0.700
1646,0.109,-0.700
1647,0.112,-0.700
1648,0.119,-0.679
1649,0.126,-0.679
1650,0.134,-0.679
1651,0.143,-0.679
1652,0.148,-0.664
1653,0.153,-0.664
1654,0.155,-0.664
1655,0.157,-0.664
1656,0.155,-0.645
1657,0.153,-0.645
1658,0.149,-0.645
1659,0.145,-0.645
1660,0.140,-0.629
1661,0.136,-0.629
1662,0.135,-0.629
1663,0.133,-0.629
1664,0.135,-0.614
1665,0.136,-0.614
1666,0.141,-0.614
1667,0.146,-0.614
1668,0.151,-0.600
1669,0.155,-0.600
1670,0.157,-0.600
1671,0.158,-0.600
1672,0.156,-0.586
1673,0.154,-0.586
1674,0.153,-0.586
1675,0.153,-0.586
1676,0.158,-0.574
1677,0.163,-0.574
1678,0.175,-0.574
1679,0.186,-0.574
1680,0.198,-0.563
1681,0.209,-0.563
1682,0.210,-0.563
1683,0.211,-0.563
1684,0.197,-0.549
1685,0.184,-0.549
1686,0.160,-0.549
1687,0.136,-0.549
1688,0.113,-0.535
1689,0.090,-0.535
1690,0.079,-0.535
1691,0.067,-0.535
1692,0.065,-0.521
1693,0.063,-0.521
1694,0.068,-0.521
1695,0.072,-0.521
1696,0.076,-0.505
1697,0.080,-0.505
1698,0.080,-0.505
1699,0.080,-0.505
1700,0.080,-0.493
1701,0.080,-0.493
1702,0.083,-0.493
1703,0.086,-0.493
1704,0.091,-0.476
1705,0.097,-0.476
1706,0.107,-0.476
1707,0.116,-0.476
1708,0.127,-0.462
1709,0.137,-0.462
1710,0.148,-0.462
1711,0.158,-0.462
1712,0.165,-0.447
1713,0.172,-0.447
1714,0.170,-0.447
1715,0.169,-0.447
1716,0.156,-0.430
1717,0.143,-0.430
1718,0.122,-0.430
1719,0.101,-0.430
1720,0.079,-0.416
1721,0.057,-0.416
1722,0.043,-0.416
1723,0.029,-0.416
1724,0.027,-0.405
1725,0.025,-0.405
1726,0.034,-0.405
1727,0.044,-0.405
1728,0.059,-0.392
1729,0.074,-0.392
1730,0.088,-0.392
1731,0.102,-0.392
1732,0.111,-0.380
1733,0.120,-0.380
1734,0.120,-0.380
1735,0.121,-0.380
1736,0.114,-0.365
1737,0.107,-0.365
1738,0.095,-0.365
1739,0.082,-0.365
1740,0.068,-0.353
1741,0.054,-0.353
1742,0.041,-0.353
1743,0.029,-0.353
1744,0.021,-0.341
1745,0.014,-0.341
1746,0.013,-0.341
1747,0.012,-0.341
1748,0.015,-0.328
1749,0.018,-0.328
1750,0.022,-0.328
1751,0.027,-0.328
1752,0.030,-0.312
1753,0.034,-0.312
1754,0.034,-0.312
1755,0.035,-0.312
1756,0.032,-0.300
1757,0.029,-0.300
1758,0.024,-0.300
1759,0.018,-0.300
1760,0.009,-0.283
1761,0.001,-0.283
1762,-0.006,-0.283
1763,-0.012,-0.283
1764,-0.016,-0.269
1765,-0.020,-0.269
1766,-0.020,-0.269
1767,-0.021,-0.269
1768,-0.022,-0.254
1769,-0.023,-0.254
1770,-0.030,-0.254
1771,-0.037,-0.254
1772,-0.049,-0.238
1773,-0.061,-0.238
1774,-0.073,-0.238
1775,-0.085,-0.238
1776,-0.091,-0.224
1777,-0.096,-0.224
1778,-0.094,-0.224
1779,-0.091,-0.224
1780,-0.081,-0.210
1781,-0.070,-0.210
1782,-0.058,-0.210
1783,-0.045,-0.210
1784,-0.037,-0.198
1785,-0.028,-0.198
1786,-0.026,-0.198
1787,-0.025,-0.198
1788,-0.032,-0.188
1789,-0.038,-0.188
1790,-0.045,-0.188
1791,-0.053,-0.188
1792,-0.056,-0.176
1793,-0.059,-0.176
1794,-0.057,-0.176
1795,-0.054,-0.176
1796,-0.049,-0.170
1797,-0.043,-0.170
1798,-0.037,-0.170
1799,-0.030,-0.170
1800,-0.027,-0.162
1801,-0.023,-0.162
1802,-0.021,-0.162
1803,-0.018,-0.162
1804,-0.012,-0.155
1805,-0.007,-0.155
1806,0.001,-0.155
1807,0.009,-0.155
1808,0.017,-0.151
1809,0.024,-0.151
1810,0.027,-0.151
1811,0.029,-0.151
1812,0.028,-0.146
1813,0.026,-0.146
1814,0.023,-0.146
1815,0.020,-0.146
1816,0.019,-0.141
1817,0.019,-0.141
1818,0.023,-0.141
1819,0.027,-0.141
1820,0.033,-0.139
1821,0.039,-0.139
1822,0.045,-0.139
1823,0.051,-0.139
1824,0.053,-0.137
1825,0.054,-0.137
1826,0.051,-0.137
1827,0.047,-0.137
1828,0.041,-0.136
1829,0.034,-0.136
1830,0.026,-0.136
1831,0.018,-0.136
1832,0.011,-0.134
1833,0.004,-0.134
1834,0.003,-0.134
1835,0.001,-0.134
1836,0.006,-0.132
1837,0.011,-0.132
1838,0.023,-0.132
1839,0.035,-0.132
1840,0.051,-0.134
1841,0.068,-0.134
1842,0.083,-0.134
1843,0.098,-0.134
1844,0.106,-0.134
1845,0.114,-0.134
1846,0.112,-0.134
1847,0.109,-0.134
1848,0.102,-0.136
1849,0.095,-0.136
1850,0.089,-0.136
1851,0.084,-0.136
1852,0.085,-0.134
1853,0.087,-0.134
1854,0.093,-0.134
1855,0.100,-0.134
1856,0.107,-0.136
1857,0.114,-0.136
1858,0.117,-0.136
1859,0.120,-0.136
1860,0.118,-0.139
1861,0.116,-0.139
1862,0.111,-0.139
1863,0.105,-0.139
1864,0.099,-0.139
1865,0.094,-0.139
1866,0.091,-0.139
1867,0.089,-0.139
1868,0.094,-0.140
1869,0.099,-0.140
1870,0.113,-0.140
1871,0.127,-0.140
1872,0.143,-0.144
1873,0.160,-0.144
1874,0.169,-0.144
1875,0.178,-0.144
1876,0.174,-0.146
1877,0.169,-0.146
1878,0.155,-0.146
1879,0.141,-0.146
1880,0.124,-0.149
1881,0.106,-0.149
1882,0.094,-0.149
1883,0.081,-0.149
1884,0.075,-0.152
1885,0.070,-0.152
1886,0.064,-0.152
1887,0.059,-0.152
1888,0.053,-0.154
1889,0.046,-0.154
1890,0.039,-0.154
1891,0.031,-0.154
1892,0.025,-0.155
1893,0.018,-0.155
1894,0.013,-0.155
1895,0.008,-0.155
1896,0.007,-0.157
1897,0.006,-0.157
1898,0.008,-0.157
1899,0.011,-0.157
1900,0.017,-0.160
1901,0.022,-0.160
1902,0.031,-0.160
1903,0.039,-0.160
1904,0.048,-0.162
1905,0.057,-0.162
1906,0.067,-0.162
1907,0.077,-0.162
1908,0.086,-0.164
1909,0.095,-0.164
1910,0.106,-0.164
1911,0.117,-0.164
1912,0.129,-0.165
1913,0.141,-0.165
1914,0.153,-0.165
1915,0.164,-0.165
1916,0.170,-0.168
1917,0.176,-0.168
1918,0.173,-0.168
1919,0.170,-0.168
1920,0.160,-0.170
1921,0.150,-0.170
1922,0.137,-0.170
1923,0.124,-0.170
1924,0.112,-0.172
1925,0.101,-0.172
1926,0.091,-0.172
1927,0.082,-0.172
1928,0.072,-0.176
1929,0.062,-0.176
1930,0.053,-0.176
1931,0.043,-0.176
1932,0.036,-0.179
1933,0.029,-0.179
1934,0.027,-0.179
1935,0.025,-0.179
1936,0.028,-0.180
1937,0.031,-0.180
1938,0.036,-0.180
1939,0.041,-0.180
1940,0.046,-0.183
1941,0.052,-0.183
1942,0.059,-0.183
1943,0.066,-0.183
1944,0.074,-0.185
1945,0.083,-0.185
1946,0.090,-0.185
1947,0.096,-0.185
1948,0.098,-0.186
1949,0.100,-0.186
1950,0.097,-0.186
1951,0.094,-0.186
1952,0.088,-0.188
1953,0.082,-0.188
1954,0.077,-0.188
1955,0.071,-0.188
1956,0.070,-0.190
1957,0.068,-0.190
1958,0.071,-0.190
1959,0.075,-0.190
1960,0.084,-0.192
1961,0.093,-0.192
1962,0.107,-0.192
1963,0.120,-0.192
1964,0.137,-0.193
1965,0.153,-0.193
1966,0.168,-0.193
1967,0.183,-0.193
1968,0.193,-0.193
1969,0.202,-0.193
1970,0.205,-0.193
1971,0.208,-0.193
1972,0.203,-0.196
1973,0.198,-0.196
1974,0.185,-0.196
1975,0.171,-0.196
1976,0.153,-0.198
1977,0.134,-0.198
1978,0.117,-0.198
1979,0.100,-0.198
1980,0.092,-0.199
1981,0.084,-0.199
1982,0.088,-0.199
1983,0.092,-0.199
1984,0.104,-0.201
1985,0.116,-0.201
1986,0.126,-0.201
1987,0.136,-0.201
1988,0.130,-0.199
1989,0.125,-0.199
1990,0.101,-0.199
1991,0.078,-0.199
1992,0.043,-0.202
1993,0.009,-0.202
1994,-0.022,-0.202
1995,-0.054,-0.202
1996,-0.072,-0.204
1997,-0.090,-0.204
1998,-0.092,-0.204
1999,-0.094,-0.204
2000,-0.086,-0.205
2001,-0.078,-0.205
2002,-0.066,-0.205
2003,-0.055,-0.205
2004,-0.044,-0.207
2005,-0.032,-0.207
2006,-0.019,-0.207
2007,-0.005,-0.207
2008,0.010,-0.207
2009,0.026,-0.207
2010,0.041,-0.207
2011,0.057,-0.207
2012,0.071,-0.207
2013,0.085,-0.207
2014,0.095,-0.207
2015,0.106,-0.207
2016,0.110,-0.207
2017,0.114,-0.207
2018,0.112,-0.207
2019,0.110,-0.207
2020,0.106,-0.208
2021,0.102,-0.208
2022,0.102,-0.208
2023,0.103,-0.208
2024,0.114,-0.207
2025,0.125,-0.207
2026,0.146,-0.207
2027,0.168,-0.207
2028,0.192,-0.208
2029,0.217,-0.208
2030,0.234,-0.208
2031,0.252,-0.208
2032,0.255,-0.208
2033,0.259,-0.208
2034,0.248,-0.208
2035,0.238,-0.208
2036,0.216,-0.207
2037,0.194,-0.207
2038,0.161,-0.207
2039,0.129,-0.207
2040,0.084,-0.208
2041,0.038,-0.208
2042,-0.026,-0.208
2043,-0.090,-0.208
2044,-0.173,-0.208
2045,-0.255,-0.208
2046,-0.349,-0.208
2047,-0.442,-0.208
2048,-0.532,-0.208
2049,-0.622,-0.208
2050,-0.690,-0.208
2051,-0.758,-0.208
2052,-0.795,-0.208
2053,-0.831,-0.208
2054,-0.835,-0.208
2055,-0.838,-0.208
2056,-0.814,-0.208
2057,-0.789,-0.208
2058,-0.749,-0.208
2059,-0.708,-0.208
2060,-0.656,-0.210
2061,-0.604,-0.210
2062,-0.542,-0.210
2063,-0.481,-0.210
2064,-0.411,-0.210
2065,-0.342,-0.210
2066,-0.269,-0.210
2067,-0.197,-0.210
2068,-0.130,-0.210
2069,-0.062,-0.210
2070,-0.007,-0.210
2071,0.048,-0.210
2072,0.084,-0.211
2073,0.120,-0.211
2074,0.138,-0.211
2075,0.156,-0.211
2076,0.161,-0.213
2077,0.166,-0.213
2078,0.165,-0.213
2079,0.163,-0.213
2080,0.160,-0.214
2081,0.157,-0.214
2082,0.152,-0.214
2083,0.147,-0.214
2084,0.140,-0.214
2085,0.134,-0.214
2086,0.125,-0.214
2087,0.117,-0.214
2088,0.110,-0.217
2089,0.103,-0.217
2090,0.100,-0.217
2091,0.098,-0.217
2092,0.103,-0.220
2093,0.109,-0.220
2094,0.119,-0.220
2095,0.129,-0.220
2096,0.139,-0.223
2097,0.148,-0.223
2098,0.148,-0.223
2099,0.148,-0.223
2100,0.138,-0.223
2101,0.128,-0.223
2102,0.113,-0.223
2103,0.098,-0.223
2104,0.087,-0.224
2105,0.076,-0.224
2106,0.075,-0.224
2107,0.074,-0.224
2108,0.081,-0.224
2109,0.087,-0.224
2110,0.097,-0.224
2111,0.106,-0.224
2112,0.114,-0.224
2113,0.122,-0.224
2114,0.130,-0.224
2115,0.138,-0.224
2116,0.147,-0.224
2117,0.156,-0.224
2118,0.165,-0.224
2119,0.173,-0.224
2120,0.180,-0.224
2121,0.187,-0.224
2122,0.189,-0.224
2123,0.191,-0.224
2124,0.188,-0.224
2125,0.186,-0.224
2126,0.179,-0.224
2127,0.172,-0.224
2128,0.161,-0.224
2129,0.149,-0.224
2130,0.132,-0.224
2131,0.116,-0.224
2132,0.100,-0.223
2133,0.084,-0.223
2134,0.074,-0.223
2135,0.063,-0.223
2136,0.064,-0.223
2137,0.064,-0.223
2138,0.074,-0.223
2139,0.085,-0.223
2140,0.098,-0.221
2141,0.111,-0.221
2142,0.119,-0.221
2143,0.128,-0.221
2144,0.129,-0.220
2145,0.130,-0.220
2146,0.124,-0.220
2147,0.119,-0.220
2148,0.107,-0.220
2149,0.095,-0.220
2150,0.083,-0.220
2151,0.070,-0.220
2152,0.061,-0.217
2153,0.052,-0.217
2154,0.051,-0.217
2155,0.050,-0.217
2156,0.060,-0.216
2157,0.070,-0.216
2158,0.089,-0.216
2159,0.107,-0.216
2160,0.124,-0.216
2161,0.140,-0.216
2162,0.146,-0.216
2163,0.153,-0.216
2164,0.144,-0.211
2165,0.136,-0.211
2166,0.116,-0.211
2167,0.096,-0.211
2168,0.076,-0.210
2169,0.056,-0.210
2170,0.044,-0.210
2171,0.032,-0.210
2172,0.034,-0.207
2173,0.036,-0.207
2174,0.050,-0.207
2175,0.064,-0.207
2176,0.082,-0.205
2177,0.099,-0.205
2178,0.110,-0.205
2179,0.120,-0.205
2180,0.117,-0.201
2181,0.113,-0.201
2182,0.097,-0.201
2183,0.080,-0.201
2184,0.058,-0.198
2185,0.037,-0.198
2186,0.018,-0.198
2187,0.000,-0.198
2188,-0.009,-0.193
2189,-0.018,-0.193
2190,-0.018,-0.193
2191,-0.018,-0.193
2192,-0.016,-0.192
2193,-0.013,-0.192
2194,-0.013,-0.192
2195,-0.013,-0.192
2196,-0.017,-0.186
2197,-0.020,-0.186
2198,-0.025,-0.186
2199,-0.030,-0.186
2200,-0.034,-0.185
2201,-0.038,-0.185
2202,-0.041,-0.185
2203,-0.043,-0.185
2204,-0.043,-0.179
2205,-0.044,-0.179
2206,-0.044,-0.179
2207,-0.045,-0.179
2208,-0.047,-0.176
2209,-0.050,-0.176
2210,-0.054,-0.176
2211,-0.057,-0.176
2212,-0.059,-0.174
2213,-0.061,-0.174
2214,-0.059,-0.174
2215,-0.057,-0.174
2216,-0.052,-0.170
2217,-0.046,-0.170
2218,-0.038,-0.170
2219,-0.030,-0.170
2220,-0.024,-0.168
2221,-0.017,-0.168
2222,-0.013,-0.168
2223,-0.010,-0.168
2224,-0.012,-0.167
2225,-0.013,-0.167
2226,-0.022,-0.167
2227,-0.030,-0.167
2228,-0.041,-0.164
2229,-0.052,-0.164
2230,-0.060,-0.164
2231,-0.069,-0.164
2232,-0.072,-0.162
2233,-0.075,-0.162
2234,-0.074,-0.162
2235,-0.072,-0.162
2236,-0.068,-0.160
2237,-0.063,-0.160
2238,-0.059,-0.160
2239,-0.054,-0.160
2240,-0.051,-0.159
2241,-0.047,-0.159
2242,-0.042,-0.159
2243,-0.037,-0.159
2244,-0.029,-0.159
2245,-0.021,-0.159
2246,-0.010,-0.159
2247,0.001,-0.159
2248,0.010,-0.157
2249,0.020,-0.157
2250,0.027,-0.157
2251,0.034,-0.157
2252,0.037,-0.154
2253,0.039,-0.154
2254,0.037,-0.154
2255,0.034,-0.154
2256,0.029,-0.154
2257,0.023,-0.154
2258,0.017,-0.154
2259,0.012,-0.154
2260,0.008,-0.151
2261,0.004,-0.151
2262,0.003,-0.151
2263,0.002,-0.151
2264,-0.000,-0.148
2265,-0.003,-0.148
2266,-0.008,-0.148
2267,-0.013,-0.148
2268,-0.021,-0.144
2269,-0.029,-0.144
2270,-0.033,-0.144
2271,-0.038,-0.144
2272,-0.036,-0.141
2273,-0.033,-0.141
2274,-0.021,-0.141
2275,-0.010,-0.141
2276,0.009,-0.140
2277,0.028,-0.140
2278,0.047,-0.140
2279,0.067,-0.140
2280,0.083,-0.136
2281,0.099,-0.136
2282,0.109,-0.136
2283,0.120,-0.136
2284,0.125,-0.131
2285,0.130,-0.131
2286,0.132,-0.131
2287,0.134,-0.131
2288,0.133,-0.129
2289,0.132,-0.129
2290,0.128,-0.129
2291,0.125,-0.129
2292,0.118,-0.124
2293,0.112,-0.124
2294,0.102,-0.124
2295,0.093,-0.124
2296,0.083,-0.120
2297,0.074,-0.120
2298,0.072,-0.120
2299,0.070,-0.120
2300,0.076,-0.118
2301,0.083,-0.118
2302,0.094,-0.118
2303,0.105,-0.118
2304,0.114,-0.117
2305,0.122,-0.117
2306,0.122,-0.117
2307,0.122,-0.117
2308,0.112,-0.117
2309,0.102,-0.117
2310,0.087,-0.117
2311,0.071,-0.117
2312,0.059,0.100
2313,0.047,0.100
2314,0.040,0.100
2315,0.032,0.100
2316,0.026,0.100
2317,0.021,0.100
2318,0.020,0.100
2319,0.020,0.100
2320,0.027,0.100
2321,0.035,0.100
2322,0.050,0.100
2323,0.065,0.100
2324,0.083,0.096
2325,0.101,0.096
2326,0.115,0.096
2327,0.128,0.096
2328,0.132,0.093
2329,0.136,0.093
2330,0.130,0.093
2331,0.124,0.093
2332,0.114,0.090
2333,0.104,0.090
2334,0.099,0.090
2335,0.095,0.090
2336,0.096,0.091
2337,0.098,0.091
2338,0.104,0.091
2339,0.111,0.091
2340,0.116,0.088
2341,0.121,0.088
2342,0.120,0.088
2343,0.120,0.088
2344,0.110,0.088
2345,0.101,0.088
2346,0.089,0.088
2347,0.077,0.088
2348,0.072,0.088
2349,0.067,0.088
2350,0.074,0.088
2351,0.081,0.088
2352,0.094,0.090
2353,0.107,0.090
2354,0.115,0.090
2355,0.122,0.090
2356,0.117,0.090
2357,0.112,0.090
2358,0.096,0.090
2359,0.079,0.090
2360,0.063,0.090
2361,0.046,0.090
2362,0.039,0.090
2363,0.031,0.090
2364,0.034,0.090
2365,0.037,0.090
2366,0.045,0.090
2367,0.054,0.090
2368,0.063,0.091
2369,0.072,0.091
2370,0.079,0.091
2371,0.085,0.091
2372,0.085,0.090
2373,0.086,0.090
2374,0.082,0.090
2375,0.078,0.090
2376,0.072,0.090
2377,0.066,0.090
2378,0.062,0.090
2379,0.059,0.090
2380,0.060,0.088
2381,0.062,0.088
2382,0.070,0.088
2383,0.078,0.088
2384,0.088,0.084
2385,0.099,0.084
2386,0.110,0.084
2387,0.120,0.084
2388,0.128,0.081
2389,0.136,0.081
2390,0.137,0.081
2391,0.139,0.081
2392,0.136,0.077
2393,0.134,0.077
2394,0.131,0.077
2395,0.128,0.077
2396,0.127,0.073
2397,0.126,0.073
2398,0.126,0.073
2399,0.126,0.073
2400,0.124,0.068
2401,0.123,0.068
2402,0.121,0.068
2403,0.119,0.068
2404,0.116,0.065
2405,0.113,0.065
2406,0.112,0.065
2407,0.112,0.065
2408,0.112,0.060
2409,0.113,0.060
2410,0.114,0.060
2411,0.115,0.060
2412,0.116,0.054
2413,0.117,0.054
2414,0.117,0.054
2415,0.117,0.054
2416,0.115,0.051
2417,0.113,0.051
2418,0.107,0.051
2419,0.100,0.051
2420,0.089,0.045
2421,0.078,0.045
2422,0.067,0.045
2423,0.057,0.045
2424,0.054,0.038
2425,0.050,0.038
2426,0.056,0.038
2427,0.062,0.038
2428,0.073,0.033
2429,0.085,0.033
2430,0.094,0.033
2431,0.103,0.033
2432,0.106,0.025
2433,0.109,0.025
2434,0.102,0.025
2435,0.095,0.025
2436,0.080,0.020
2437,0.064,0.020
2438,0.044,0.020
2439,0.023,0.020
2440,0.004,0.012
2441,-0.015,0.012
2442,-0.026,0.012
2443,-0.037,0.012
2444,-0.036,0.004
2445,-0.035,0.004
2446,-0.023,0.004
2447,-0.011,0.004
2448,0.010,0.000
2449,0.030,0.000
2450,0.055,0.000
2451,0.079,0.000
2452,0.101,-0.006
2453,0.123,-0.006
2454,0.136,-0.006
2455,0.148,-0.006
2456,0.149,-0.013
2457,0.149,-0.013
2458,0.141,-0.013
2459,0.134,-0.013
2460,0.125,-0.018
2461,0.117,-0.018
2462,0.114,-0.018
2463,0.112,-0.018
2464,0.117,-0.022
2465,0.123,-0.022
2466,0.135,-0.022
2467,0.146,-0.022
2468,0.161,-0.026
2469,0.177,-0.026
2470,0.194,-0.026
2471,0.212,-0.026
2472,0.226,-0.033
2473,0.239,-0.033
2474,0.238,-0.033
2475,0.237,-0.033
2476,0.214,-0.035
2477,0.190,-0.035
2478,0.136,-0.035
2479,0.081,-0.035
2480,-0.004,-0.036
2481,-0.088,-0.036
2482,-0.196,-0.036
2483,-0.303,-0.036
2484,-0.414,-0.039
2485,-0.525,-0.039
2486,-0.616,-0.039
2487,-0.707,-0.039
2488,-0.760,-0.042
2489,-0.813,-0.042
2490,-0.824,-0.042
2491,-0.836,-0.042
2492,-0.816,-0.044
2493,-0.797,-0.044
2494,-0.758,-0.044
2495,-0.719,-0.044
2496,-0.669,-0.042
2497,-0.619,-0.042
2498,-0.562,-0.042
2499,-0.504,-0.042
2500,-0.440,-0.044
2501,-0.376,-0.044
2502,-0.311,-0.044
2503,-0.246,-0.044
2504,-0.186,-0.047
2505,-0.125,-0.047
2506,-0.072,-0.047
2507,-0.019,-0.047
2508,0.022,-0.045
2509,0.063,-0.045
2510,0.089,-0.045
2511,0.114,-0.045
2512,0.124,-0.049
2513,0.135,-0.049
2514,0.133,-0.049
2515,0.131,-0.049
2516,0.123,-0.050
2517,0.115,-0.050
2518,0.105,-0.050
2519,0.095,-0.050
2520,0.086,-0.050
2521,0.076,-0.050
2522,0.068,-0.050
2523,0.061,-0.050
2524,0.057,-0.049
2525,0.054,-0.049
2526,0.057,-0.049
2527,0.060,-0.049
2528,0.069,-0.049
2529,0.079,-0.049
2530,0.094,-0.049
2531,0.109,-0.049
2532,0.128,-0.049
2533,0.147,-0.049
2534,0.163,-0.049
2535,0.179,-0.049
2536,0.187,-0.049
2537,0.194,-0.049
2538,0.194,-0.049
2539,0.194,-0.049
2540,0.187,-0.049
2541,0.181,-0.049
2542,0.173,-0.049
2543,0.165,-0.049
2544,0.158,-0.049
2545,0.151,-0.049
2546,0.144,-0.049
2547,0.137,-0.049
2548,0.132,-0.049
2549,0.128,-0.049
2550,0.124,-0.049
2551,0.121,-0.049
2552,0.124,-0.050
2553,0.128,-0.050
2554,0.138,-0.050
2555,0.149,-0.050
2556,0.163,-0.050
2557,0.178,-0.050
2558,0.190,-0.050
2559,0.203,-0.050
2560,0.212,-0.050
2561,0.220,-0.050
2562,0.221,-0.050
2563,0.221,-0.050
2564,0.211,-0.049
2565,0.202,-0.049
2566,0.185,-0.049
2567,0.168,-0.049
2568,0.148,-0.047
2569,0.128,-0.047
2570,0.109,-0.047
2571,0.090,-0.047
2572,0.074,-0.049
2573,0.059,-0.049
2574,0.047,-0.049
2575,0.035,-0.049
2576,0.028,-0.045
2577,0.021,-0.045
2578,0.019,-0.045
2579,0.017,-0.045
2580,0.022,-0.045
2581,0.028,-0.045
2582,0.041,-0.045
2583,0.054,-0.045
2584,0.070,-0.042
2585,0.087,-0.042
2586,0.105,-0.042
2587,0.123,-0.042
2588,0.138,-0.041
2589,0.153,-0.041
2590,0.163,-0.041
2591,0.173,-0.041
2592,0.178,-0.041
2593,0.182,-0.041
2594,0.180,-0.041
2595,0.178,-0.041
2596,0.173,-0.037
2597,0.167,-0.037
2598,0.161,-0.037
2599,0.154,-0.037
2600,0.149,-0.036
2601,0.143,-0.036
2602,0.137,-0.036
2603,0.131,-0.036
2604,0.126,-0.036
2605,0.121,-0.036
2606,0.116,-0.036
2607,0.112,-0.036
2608,0.107,-0.033
2609,0.102,-0.033
2610,0.095,-0.033
2611,0.087,-0.033
2612,0.080,-0.030
2613,0.072,-0.030
2614,0.065,-0.030
2615,0.057,-0.030
2616,0.049,-0.025
2617,0.041,-0.025
2618,0.033,-0.025
2619,0.025,-0.025
2620,0.018,-0.018
2621,0.012,-0.018
2622,0.006,-0.018
2623,0.001,-0.018
2624,-0.004,-0.009
2625,-0.008,-0.009
2626,-0.011,-0.009
2627,-0.013,-0.009
2628,-0.014,-0.002
2629,-0.014,-0.002
2630,-0.013,-0.002
2631,-0.012,-0.002
2632,-0.011,0.007
2633,-0.009,0.007
2634,-0.008,0.007
2635,-0.007,0.007
2636,-0.007,0.020
2637,-0.006,0.020
2638,-0.005,0.020
2639,-0.004,0.020
2640,-0.001,0.033
2641,0.002,0.033
2642,0.008,0.033
2643,0.014,0.033
2644,0.019,0.046
2645,0.024,0.046
2646,0.026,0.046
2647,0.029,0.046
2648,0.026,0.058
2649,0.024,0.058
2650,0.018,0.058
2651,0.012,0.058
2652,0.003,0.070
2653,-0.006,0.070
2654,-0.015,0.070
2655,-0.024,0.070
2656,-0.032,0.082
2657,-0.039,0.082
2658,-0.045,0.082
2659,-0.052,0.082
2660,-0.056,0.091
2661,-0.061,0.091
2662,-0.064,0.091
2663,-0.067,0.091
2664,-0.068,0.102
2665,-0.069,0.102
2666,-0.070,0.102
2667,-0.070,0.102
2668,-0.070,0.110
2669,-0.070,0.110
2670,-0.070,0.110
2671,-0.070,0.110
2672,-0.068,0.117
2673,-0.067,0.117
2674,-0.064,0.117
2675,-0.062,0.117
2676,-0.057,0.124
2677,-0.053,0.124
2678,-0.045,0.124
2679,-0.037,0.124
2680,-0.026,0.127
2681,-0.015,0.127
2682,-0.003,0.127
2683,0.010,0.127
2684,0.019,0.131
2685,0.029,0.131
2686,0.031,0.131
2687,0.034,0.131
2688,0.030,0.135
2689,0.026,0.135
2690,0.020,0.135
2691,0.013,0.135
2692,0.008,0.135
2693,0.002,0.135
2694,0.000,0.135
2695,-0.002,0.135
2696,0.002,0.140
2697,0.006,0.140
2698,0.017,0.140
2699,0.027,0.140
2700,0.041,0.143
2701,0.055,0.143
2702,0.068,0.143
2703,0.080,0.143
2704,0.088,0.144
2705,0.095,0.144
2706,0.098,0.144
2707,0.101,0.144
2708,0.102,0.149
2709,0.103,0.149
2710,0.102,0.149
2711,0.102,0.149
2712,0.100,0.153
2713,0.099,0.153
2714,0.098,0.153
2715,0.097,0.153
2716,0.097,0.157
2717,0.097,0.157
2718,0.097,0.157
2719,0.096,0.157
2720,0.094,0.160
2721,0.092,0.160
2722,0.086,0.160
2723,0.080,0.160
2724,0.071,0.163
2725,0.062,0.163
2726,0.052,0.163
2727,0.043,0.163
2728,0.037,0.165
2729,0.031,0.165
2730,0.031,0.165
2731,0.031,0.165
2732,0.036,0.165
2733,0.041,0.165
2734,0.051,0.165
2735,0.062,0.165
2736,0.076,0.162
2737,0.091,0.162
2738,0.107,0.162
2739,0.122,0.162
2740,0.135,0.157
2741,0.147,0.157
2742,0.153,0.157
2743,0.160,0.157
2744,0.160,0.153
2745,0.160,0.153
2746,0.155,0.153
2747,0.151,0.153
2748,0.145,0.147
2749,0.140,0.147
2750,0.138,0.147
2751,0.136,0.147
2752,0.139,0.141
2753,0.141,0.141
2754,0.143,0.141
2755,0.145,0.141
2756,0.143,0.132
2757,0.142,0.132
2758,0.136,0.132
2759,0.131,0.132
2760,0.124,0.124
2761,0.117,0.124
2762,0.110,0.124
2763,0.103,0.124
2764,0.097,0.115
2765,0.091,0.115
2766,0.086,0.115
2767,0.081,0.115
2768,0.074,0.104
2769,0.068,0.104
2770,0.061,0.104
2771,0.054,0.104
2772,0.052,0.091
2773,0.050,0.091
2774,0.054,0.091
2775,0.058,0.091
2776,0.068,0.081
2777,0.078,0.081
2778,0.088,0.081
2779,0.098,0.081
2780,0.105,0.068
2781,0.112,0.068
2782,0.113,0.068
2783,0.114,0.068
2784,0.107,0.056
2785,0.100,0.056
2786,0.087,0.056
2787,0.075,0.056
2788,0.065,0.046
2789,0.054,0.046
2790,0.053,0.046
2791,0.051,0.046
2792,0.059,0.037
2793,0.067,0.037
2794,0.082,0.037
2795,0.096,0.037
2796,0.111,0.029
2797,0.126,0.029
2798,0.132,0.029
2799,0.137,0.029
2800,0.133,0.023
2801,0.129,0.023
2802,0.122,0.023
2803,0.114,0.023
2804,0.106,0.015
2805,0.098,0.015
2806,0.092,0.015
2807,0.087,0.015
2808,0.083,0.009
2809,0.080,0.009
2810,0.078,0.009
2811,0.076,0.009
2812,0.073,0.009
2813,0.070,0.009
2814,0.066,0.009
2815,0.063,0.009
2816,0.064,0.007
2817,0.065,0.007
2818,0.071,0.007
2819,0.077,0.007
2820,0.086,0.006
2821,0.095,0.006
2822,0.104,0.006
2823,0.113,0.006
2824,0.116,0.004
2825,0.119,0.004
2826,0.113,0.004
2827,0.107,0.004
2828,0.097,0.006
2829,0.087,0.006
2830,0.082,0.006
2831,0.076,0.006
2832,0.078,0.006
2833,0.079,0.006
2834,0.087,0.006
2835,0.095,0.006
2836,0.103,0.009
2837,0.112,0.009
2838,0.115,0.009
2839,0.118,0.009
2840,0.115,0.011
2841,0.112,0.011
2842,0.107,0.011
2843,0.102,0.011
2844,0.099,0.011
2845,0.096,0.011
2846,0.098,0.011
2847,0.100,0.011
2848,0.105,0.012
2849,0.110,0.012
2850,0.112,0.012
2851,0.114,0.012
2852,0.111,0.013
2853,0.108,0.013
2854,0.102,0.013
2855,0.095,0.013
2856,0.087,0.015
2857,0.079,0.015
2858,0.074,0.015
2859,0.070,0.015
2860,0.066,0.013
2861,0.062,0.013
2862,0.057,0.013
2863,0.053,0.013
2864,0.045,0.015
2865,0.038,0.015
2866,0.030,0.015
2867,0.022,0.015
2868,0.016,0.017
2869,0.009,0.017
2870,0.005,0.017
2871,0.001,0.017
2872,0.001,0.018
2873,0.001,0.018
2874,0.004,0.018
2875,0.008,0.018
2876,0.014,0.018
2877,0.021,0.018
2878,0.026,0.018
2879,0.032,0.018
2880,0.037,0.017
2881,0.042,0.017
2882,0.045,0.017
2883,0.049,0.017
2884,0.053,0.017
2885,0.057,0.017
2886,0.062,0.017
2887,0.068,0.017
2888,0.074,0.017
2889,0.079,0.017
2890,0.082,0.017
2891,0.084,0.017
2892,0.080,0.017
2893,0.076,0.017
2894,0.070,0.017
2895,0.064,0.017
2896,0.062,0.015
2897,0.059,0.015
2898,0.062,0.015
2899,0.065,0.015
2900,0.074,0.017
2901,0.083,0.017
2902,0.097,0.017
2903,0.111,0.017
2904,0.128,0.015
2905,0.145,0.015
2906,0.161,0.015
2907,0.178,0.015
2908,0.189,0.015
2909,0.200,0.015
2910,0.199,0.015
2911,0.199,0.015
2912,0.182,0.013
2913,0.164,0.013
2914,0.124,0.013
2915,0.083,0.013
2916,0.017,0.013
2917,-0.050,0.013
2918,-0.141,0.013
2919,-0.233,0.013
2920,-0.336,0.015
2921,-0.439,0.015
2922,-0.534,0.015
2923,-0.629,0.015
2924,-0.699,0.015
2925,-0.769,0.015
2926,-0.803,0.015
2927,-0.838,0.015
2928,-0.833,0.015
2929,-0.829,0.015
2930,-0.793,0.015
2931,-0.757,0.015
2932,-0.699,0.015
2933,-0.641,0.015
2934,-0.572,0.015
2935,-0.502,0.015
2936,-0.433,0.015
2937,-0.363,0.015
2938,-0.303,0.015
2939,-0.243,0.015
2940,-0.196,0.017
2941,-0.149,0.017
2942,-0.113,0.017
2943,-0.077,0.017
2944,-0.049,0.017
2945,-0.021,0.017
2946,0.002,0.017
2947,0.024,0.017
2948,0.038,0.017
2949,0.053,0.017
2950,0.058,0.017
2951,0.064,0.017
2952,0.064,0.017
2953,0.064,0.017
2954,0.063,0.017
2955,0.062,0.017
2956,0.064,0.017
2957,0.066,0.017
2958,0.072,0.017
2959,0.078,0.017
2960,0.084,0.018
2961,0.091,0.018
2962,0.095,0.018
2963,0.099,0.018
2964,0.099,0.017
2965,0.099,0.017
2966,0.098,0.017
2967,0.097,0.017
2968,0.099,0.020
2969,0.101,0.020
2970,0.106,0.020
2971,0.112,0.020
2972,0.117,0.018
2973,0.123,0.018
2974,0.127,0.018
2975,0.131,0.018
2976,0.132,0.020
2977,0.133,0.020
2978,0.132,0.020
2979,0.130,0.020
2980,0.128,0.021
2981,0.125,0.021
2982,0.122,0.021
2983,0.119,0.021
2984,0.115,0.020
2985,0.111,0.020
2986,0.104,0.020
2987,0.097,0.020
2988,0.088,0.020
2989,0.079,0.020
2990,0.070,0.020
2991,0.061,0.020
2992,0.058,0.021
2993,0.054,0.021
2994,0.062,0.021
2995,0.070,0.021
2996,0.087,0.023
2997,0.104,0.023
2998,0.123,0.023
2999,0.142,0.023
3000,0.153,0.021
3001,0.164,0.021
3002,0.165,0.021
3003,0.165,0.021
3004,0.157,0.023
3005,0.150,0.023
3006,0.139,0.023
3007,0.128,0.023
3008,0.121,0.025
3009,0.113,0.025
3010,0.106,0.025
3011,0.099,0.025
3012,0.090,0.023
3013,0.080,0.023
3014,0.070,0.023
3015,0.059,0.023
3016,0.050,0.023
3017,0.042,0.023
3018,0.037,0.023
3019,0.032,0.023
3020,0.033,0.023
3021,0.033,0.023
3022,0.036,0.023
3023,0.039,0.023
3024,0.040,0.023
3025,0.040,0.023
3026,0.037,0.023
3027,0.034,0.023
3028,0.028,0.023
3029,0.022,0.023
3030,0.019,0.023
3031,0.016,0.023
3032,0.020,0.023
3033,0.023,0.023
3034,0.032,0.023
3035,0.041,0.023
3036,0.052,0.023
3037,0.062,0.023
3038,0.071,0.023
3039,0.080,0.023
3040,0.086,0.023
3041,0.092,0.023
3042,0.097,0.023
3043,0.103,0.023
3044,0.108,0.023
3045,0.114,0.023
3046,0.118,0.023
3047,0.121,0.023
3048,0.117,0.025
3049,0.113,0.025
3050,0.101,0.025
3051,0.089,0.025
3052,0.074,0.026
3053,0.059,0.026
3054,0.048,0.026
3055,0.037,0.026
3056,0.034,0.031
3057,0.030,0.031
3058,0.033,0.031
3059,0.036,0.031
3060,0.041,0.034
3061,0.045,0.034
3062,0.046,0.034
3063,0.047,0.034
3064,0.041,0.042
3065,0.035,0.042
3066,0.023,0.042
3067,0.011,0.042
3068,-0.005,0.048
3069,-0.021,0.048
3070,-0.036,0.048
3071,-0.051,0.048
3072,-0.063,0.058
3073,-0.076,0.058
3074,-0.081,0.058
3075,-0.087,0.058
3076,-0.087,0.067
3077,-0.087,0.067
3078,-0.086,0.067
3079,-0.085,0.067
3080,-0.084,0.074
3081,-0.084,0.074
3082,-0.082,0.074
3083,-0.079,0.074
3084,-0.073,0.082
3085,-0.067,0.082
3086,-0.062,0.082
3087,-0.056,0.082
3088,-0.057,0.088
3089,-0.058,0.088
3090,-0.065,0.088
3091,-0.072,0.088
3092,-0.080,0.093
3093,-0.088,0.093
3094,-0.090,0.093
3095,-0.092,0.093
3096,-0.083,0.101
3097,-0.073,0.101
3098,-0.058,0.101
3099,-0.044,0.101
3100,-0.033,0.102
3101,-0.023,0.102
3102,-0.023,0.102
3103,-0.022,0.102
3104,-0.028,0.107
3105,-0.034,0.107
3106,-0.039,0.107
3107,-0.044,0.107
3108,-0.045,0.112
3109,-0.046,0.112
3110,-0.044,0.112
3111,-0.042,0.112
3112,-0.038,0.117
3113,-0.034,0.117
3114,-0.029,0.117
3115,-0.024,0.117
3116,-0.017,0.118
3117,-0.010,0.118
3118,-0.004,0.118
3119,0.003,0.118
3120,0.004,0.121
3121,0.006,0.121
3122,0.003,0.121
3123,0.000,0.121
3124,-0.008,0.122
3125,-0.017,0.122
3126,-0.029,0.122
3127,-0.040,0.122
3128,-0.051,0.122
3129,-0.062,0.122
3130,-0.068,0.122
3131,-0.074,0.122
3132,-0.074,0.122
3133,-0.075,0.122
3134,-0.070,0.122
3135,-0.065,0.122
3136,-0.056,0.121
3137,-0.047,0.121
3138,-0.037,0.121
3139,-0.028,0.121
3140,-0.019,0.119
3141,-0.011,0.119
3142,-0.005,0.119
3143,0.001,0.119
3144,0.006,0.117
3145,0.011,0.117
3146,0.016,0.117
3147,0.021,0.117
3148,0.028,0.117
3149,0.035,0.117
3150,0.041,0.117
3151,0.048,0.117
3152,0.052,0.113
3153,0.056,0.113
3154,0.058,0.113
3155,0.060,0.113
3156,0.060,0.113
3157,0.061,0.113
3158,0.059,0.113
3159,0.058,0.113
3160,0.055,0.112
3161,0.052,0.112
3162,0.045,0.112
3163,0.039,0.112
3164,0.031,0.112
3165,0.022,0.112
3166,0.016,0.112
3167,0.010,0.112
3168,0.006,0.112
3169,0.003,0.112
3170,0.002,0.112
3171,0.001,0.112
3172,0.001,0.113
3173,0.002,0.113
3174,0.004,0.113
3175,0.005,0.113
3176,0.010,0.113
3177,0.015,0.113
3178,0.023,0.113
3179,0.030,0.113
3180,0.038,0.115
3181,0.046,0.115
3182,0.051,0.115
3183,0.056,0.115
3184,0.057,0.110
3185,0.058,0.110
3186,0.055,0.110
3187,0.053,0.110
3188,0.050,0.105
3189,0.047,0.105
3190,0.046,0.105
3191,0.045,0.105
3192,0.044,0.100
3193,0.043,0.100
3194,0.040,0.100
3195,0.037,0.100
3196,0.034,0.090
3197,0.030,0.090
3198,0.031,0.090
3199,0.032,0.090
3200,0.040,0.082
3201,0.048,0.082
3202,0.060,0.082
3203,0.071,0.082
3204,0.079,0.073
3205,0.086,0.073
3206,0.086,0.073
3207,0.086,0.073
3208,0.081,0.065
3209,0.076,0.065
3210,0.071,0.065
3211,0.067,0.065
3212,0.066,0.058
3213,0.065,0.058
3214,0.066,0.058
3215,0.066,0.058
3216,0.063,0.051
3217,0.060,0.051
3218,0.051,0.051
3219,0.043,0.051
3220,0.031,0.046
3221,0.020,0.046
3222,0.009,0.046
3223,-0.001,0.046
3224,-0.007,0.043
3225,-0.013,0.043
3226,-0.013,0.043
3227,-0.012,0.043
3228,-0.006,0.037
3229,0.000,0.037
3230,0.009,0.037
3231,0.019,0.037
3232,0.026,0.034
3233,0.033,0.034
3234,0.035,0.034
3235,0.037,0.034
3236,0.034,0.028
3237,0.032,0.028
3238,0.032,0.028
3239,0.032,0.028
3240,0.038,0.025
3241,0.044,0.025
3242,0.053,0.025
3243,0.062,0.025
3244,0.067,0.020
3245,0.073,0.020
3246,0.071,0.020
3247,0.069,0.020
3248,0.059,0.015
3249,0.049,0.015
3250,0.038,0.015
3251,0.028,0.015
3252,0.024,0.009
3253,0.020,0.009
3254,0.024,0.009
3255,0.028,0.009
3256,0.037,0.003
3257,0.045,0.003
3258,0.055,0.003
3259,0.064,0.003
3260,0.070,-0.002
3261,0.077,-0.002
3262,0.079,-0.002
3263,0.082,-0.002
3264,0.081,-0.006
3265,0.080,-0.006
3266,0.077,-0.006
3267,0.073,-0.006
3268,0.068,-0.009
3269,0.062,-0.009
3270,0.055,-0.009
3271,0.048,-0.009
3272,0.040,-0.011
3273,0.032,-0.011
3274,0.024,-0.011
3275,0.016,-0.011
3276,0.012,-0.013
3277,0.009,-0.013
3278,0.013,-0.013
3279,0.017,-0.013
3280,0.028,-0.014
3281,0.038,-0.014
3282,0.052,-0.014
3283,0.065,-0.014
3284,0.076,-0.013
3285,0.087,-0.013
3286,0.090,-0.013
3287,0.092,-0.013
3288,0.085,-0.013
3289,0.079,-0.013
3290,0.066,-0.013
3291,0.054,-0.013
3292,0.042,-0.011
3293,0.030,-0.011
3294,0.019,-0.011
3295,0.008,-0.011
3296,0.001,-0.011
3297,-0.005,-0.011
3298,-0.004,-0.011
3299,-0.004,-0.011
3300,0.004,-0.009
3301,0.012,-0.009
3302,0.026,-0.009
3303,0.039,-0.009
3304,0.054,-0.008
3305,0.068,-0.008
3306,0.078,-0.008
3307,0.088,-0.008
3308,0.089,-0.008
3309,0.090,-0.008
3310,0.082,-0.008
3311,0.074,-0.008
3312,0.061,-0.008
3313,0.047,-0.008
3314,0.034,-0.008
3315,0.021,-0.008
3316,0.011,-0.008
3317,0.001,-0.008
3318,-0.004,-0.008
3319,-0.010,-0.008
3320,-0.011,-0.013
3321,-0.012,-0.013
3322,-0.012,-0.013
3323,-0.011,-0.013
3324,-0.007,-0.011
3325,-0.003,-0.011
3326,0.004,-0.011
3327,0.012,-0.011
3328,0.019,-0.013
3329,0.026,-0.013
3330,0.031,-0.013
3331,0.036,-0.013
3332,0.038,-0.016
3333,0.040,-0.016
3334,0.041,-0.016
3335,0.043,-0.016
3336,0.042,-0.647
3337,0.042,-0.647
3338,0.043,-0.647
3339,0.045,-0.647
3340,0.051,-0.673
3341,0.057,-0.673
3342,0.069,-0.673
3343,0.081,-0.673
3344,0.099,-0.686
3345,0.117,-0.686
3346,0.137,-0.686
3347,0.158,-0.686
3348,0.175,-0.712
3349,0.192,-0.712
3350,0.196,-0.712
3351,0.201,-0.712
3352,0.184,-0.712
3353,0.168,-0.712
3354,0.124,-0.712
3355,0.080,-0.712
3356,0.007,-0.738
3357,-0.066,-0.738
3358,-0.165,-0.738
3359,-0.263,-0.738
3360,-0.372,-0.750
3361,-0.481,-0.750
3362,-0.579,-0.750
3363,-0.677,-0.750
3364,-0.745,-0.763
3365,-0.814,-0.763
3366,-0.842,-0.763
3367,-0.871,-0.763
3368,-0.863,-0.763
3369,-0.855,-0.763
3370,-0.819,-0.763
3371,-0.784,-0.763
3372,-0.733,-0.776
3373,-0.682,-0.776
3374,-0.620,-0.776
3375,-0.558,-0.776
3376,-0.488,-0.776
3377,-0.418,-0.776
3378,-0.347,-0.776
3379,-0.277,-0.776
3380,-0.212,-0.776
3381,-0.148,-0.776
3382,-0.097,-0.776
3383,-0.046,-0.776
3384,-0.012,-0.776
3385,0.021,-0.776
3386,0.040,-0.776
3387,0.059,-0.776
3388,0.068,-0.763
3389,0.078,-0.763
3390,0.085,-0.763
3391,0.092,-0.763
3392,0.099,-0.750
3393,0.107,-0.750
3394,0.113,-0.750
3395,0.119,-0.750
3396,0.121,-0.750
3397,0.123,-0.750
3398,0.119,-0.750
3399,0.115,-0.750
3400,0.107,-0.738
3401,0.100,-0.738
3402,0.090,-0.738
3403,0.079,-0.738
3404,0.070,-0.725
3405,0.061,-0.725
3406,0.054,-0.725
3407,0.047,-0.725
3408,0.043,-0.712
3409,0.039,-0.712
3410,0.036,-0.712
3411,0.032,-0.712
3412,0.029,-0.725
3413,0.027,-0.725
3414,0.025,-0.725
3415,0.022,-0.725
3416,0.019,-0.699
3417,0.016,-0.699
3418,0.011,-0.699
3419,0.006,-0.699
3420,0.001,-0.699
3421,-0.004,-0.699
3422,-0.004,-0.699
3423,-0.004,-0.699
3424,0.004,-0.699
3425,0.012,-0.699
3426,0.029,-0.699
3427,0.046,-0.699
3428,0.068,-0.699
3429,0.089,-0.699
3430,0.107,-0.699
3431,0.126,-0.699
3432,0.136,-0.712
3433,0.145,-0.712
3434,0.148,-0.712
3435,0.150,-0.712
3436,0.151,-0.725
3437,0.153,-0.725
3438,0.156,-0.725
3439,0.159,-0.725
3440,0.161,-0.750
3441,0.163,-0.750
3442,0.161,-0.750
3443,0.159,-0.750
3444,0.151,-0.776
3445,0.143,-0.776
3446,0.131,-0.776
3447,0.120,-0.776
3448,0.108,-0.789
3449,0.097,-0.789
3450,0.091,-0.789
3451,0.085,-0.789
3452,0.085,-0.815
3453,0.086,-0.815
3454,0.094,-0.815
3455,0.103,-0.815
3456,0.116,-0.815
3457,0.129,-0.815
3458,0.142,-0.815
3459,0.155,-0.815
3460,0.160,-0.841
3461,0.164,-0.841
3462,0.156,-0.841
3463,0.148,-0.841
3464,0.130,-0.815
3465,0.112,-0.815
3466,0.089,-0.815
3467,0.066,-0.815
3468,0.043,-0.815
3469,0.020,-0.815
3470,0.000,-0.815
3471,-0.019,-0.815
3472,-0.030,-0.802
3473,-0.041,-0.802
3474,-0.044,-0.802
3475,-0.046,-0.802
3476,-0.040,-0.802
3477,-0.033,-0.802
3478,-0.017,-0.802
3479,-0.002,-0.802
3480,0.018,-0.789
3481,0.037,-0.789
3482,0.056,-0.789
3483,0.075,-0.789
3484,0.085,-0.789
3485,0.095,-0.789
3486,0.095,-0.789
3487,0.095,-0.789
3488,0.089,-0.776
3489,0.083,-0.776
3490,0.074,-0.776
3491,0.065,-0.776
3492,0.058,-0.776
3493,0.051,-0.776
3494,0.048,-0.776
3495,0.045,-0.776
3496,0.046,-0.750
3497,0.047,-0.750
3498,0.047,-0.750
3499,0.047,-0.750
3500,0.042,-0.686
3501,0.037,-0.686
3502,0.026,-0.686
3503,0.014,-0.686
3504,0.000,-0.647
3505,-0.014,-0.647
3506,-0.025,-0.647
3507,-0.036,-0.647
3508,-0.040,-0.583
3509,-0.045,-0.583
3510,-0.045,-0.583
3511,-0.045,-0.583
3512,-0.045,-0.492
3513,-0.045,-0.492
3514,-0.049,-0.492
3515,-0.052,-0.492
3516,-0.058,-0.389
3517,-0.064,-0.389
3518,-0.069,-0.389
3519,-0.074,-0.389
3520,-0.072,-0.285
3521,-0.070,-0.285
3522,-0.062,-0.285
3523,-0.054,-0.285
3524,-0.045,-0.194
3525,-0.035,-0.194
3526,-0.028,-0.194
3527,-0.021,-0.194
3528,-0.021,-0.103
3529,-0.021,-0.103
3530,-0.025,-0.103
3531,-0.029,-0.103
3532,-0.030,-0.039
3533,-0.031,-0.039
3534,-0.029,-0.039
3535,-0.026,-0.039
3536,-0.022,0.013
3537,-0.019,0.013
3538,-0.018,0.013
3539,-0.017,0.013
3540,-0.022,0.051
3541,-0.027,0.051
3542,-0.035,0.051
3543,-0.043,0.051
3544,-0.050,0.103
3545,-0.057,0.103
3546,-0.060,0.103
3547,-0.062,0.103
3548,-0.062,0.142
3549,-0.062,0.142
3550,-0.065,0.142
3551,-0.069,0.142
3552,-0.077,0.142
3553,-0.086,0.142
3554,-0.095,0.142
3555,-0.105,0.142
3556,-0.109,0.129
3557,-0.112,0.129
3558,-0.107,0.129
3559,-0.102,0.129
3560,-0.090,0.129
3561,-0.079,0.129
3562,-0.068,0.129
3563,-0.057,0.129
3564,-0.052,0.103
3565,-0.047,0.103
3566,-0.047,0.103
3567,-0.047,0.103
3568,-0.046,0.077
3569,-0.045,0.077
3570,-0.039,0.077
3571,-0.033,0.077
3572,-0.022,0.051
3573,-0.011,0.051
3574,0.003,0.051
3575,0.017,0.051
3576,0.028,0.013
3577,0.039,0.013
3578,0.045,0.013
3579,0.050,0.013
3580,0.050,-0.026
3581,0.049,-0.026
3582,0.043,-0.026
3583,0.037,-0.026
3584,0.030,-0.078
3585,0.022,-0.078
3586,0.021,-0.078
3587,0.021,-0.078
3588,0.030,-0.130
3589,0.040,-0.130
3590,0.058,-0.130
3591,0.075,-0.130
3592,0.091,-0.026
3593,0.106,-0.026
3594,0.112,-0.026
3595,0.119,-0.026
3596,0.115,-0.065
3597,0.112,-0.065
3598,0.102,-0.065
3599,0.093,-0.065
3600,0.083,-0.103
3601,0.073,-0.103
3602,0.066,-0.103
3603,0.058,-0.103
3604,0.050,-0.155
3605,0.043,-0.155
3606,0.036,-0.155
3607,0.029,-0.155
3608,0.027,-0.194
3609,0.024,-0.194
3610,0.027,-0.194
3611,0.029,-0.194
3612,0.040,-0.284
3613,0.050,-0.284
3614,0.063,-0.284
3615,0.077,-0.284
3616,0.089,-0.349
3617,0.101,-0.349
3618,0.106,-0.349
3619,0.111,-0.349
3620,0.107,-0.440
3621,0.104,-0.440
3622,0.096,-0.440
3623,0.087,-0.440
3624,0.076,-0.517
3625,0.064,-0.517
3626,0.056,-0.517
3627,0.047,-0.517
3628,0.046,-0.608
3629,0.045,-0.608
3630,0.052,-0.608
3631,0.059,-0.608
3632,0.073,-0.685
3633,0.087,-0.685
3634,0.102,-0.685
3635,0.117,-0.685
3636,0.126,-0.776
3637,0.135,-0.776
3638,0.134,-0.776
3639,0.134,-0.776
3640,0.124,-0.854
3641,0.114,-0.854
3642,0.100,-0.854
3643,0.086,-0.854
3644,0.075,-0.918
3645,0.064,-0.918
3646,0.062,-0.918
3647,0.059,-0.918
3648,0.066,-0.996
3649,0.072,-0.996
3650,0.084,-0.996
3651,0.096,-0.996
3652,0.110,-
3653,0.124,-
3654,0.135,-
3655,0.146,-
3656,0.149,-
3657,0.151,-
3658,0.143,-
3659,0.136,-
3660,0.118,-
3661,0.101,-
3662,0.080,-
3663,0.059,-
3664,0.042,-
3665,0.025,-
3666,0.019,-
3667,0.012,-
3668,0.017,-
3669,0.022,-
3670,0.035,-
3671,0.048,-
3672,0.064,-
3673,0.080,-
3674,0.095,-
3675,0.109,-
3676,0.116,-
3677,0.122,-
3678,0.118,-
3679,0.114,-
3680,0.101,-
3681,0.088,-
3682,0.074,-
3683,0.060,-
3684,0.052,-
3685,0.044,-
3686,0.046,-
3687,0.049,-
3688,0.060,-
3689,0.070,-
3690,0.082,-
3691,0.093,-
3692,0.097,-
3693,0.102,-
3694,0.099,-
3695,0.096,-
3696,0.091,-
3697,0.085,-
3698,0.083,-
3699,0.080,-
3700,0.082,-
3701,0.083,-
3702,0.085,-
3703,0.087,-
3704,0.087,-
3705,0.087,-
3706,0.086,-
3707,0.085,-
3708,0.084,-
3709,0.084,-
3710,0.085,-
3711,0.087,-
3712,0.089,-
3713,0.091,-
3714,0.091,-
3715,0.092,-
3716,0.087,-
3717,0.083,-
3718,0.075,-
3719,0.068,-
3720,0.058,-
3721,0.048,-
3722,0.039,-
3723,0.029,-
3724,0.023,-1.022
3725,0.016,-1.022
3726,0.012,-1.022
3727,0.008,-1.022
3728,0.009,-0.996
3729,0.010,-0.996
3730,0.019,-0.996
3731,0.029,-0.996
3732,0.047,-0.983
3733,0.066,-0.983
3734,0.091,-0.983
3735,0.116,-0.983
3736,0.138,-0.983
3737,0.160,-0.983
3738,0.169,-0.983
3739,0.179,-0.983
3740,0.172,-0.958
3741,0.164,-0.958
3742,0.143,-0.958
3743,0.121,-0.958
3744,0.097,-0.958
3745,0.073,-0.958
3746,0.054,-0.958
3747,0.034,-0.958
3748,0.023,-0.931
3749,0.012,-0.931
3750,0.010,-0.931
3751,0.008,-0.931
3752,0.009,-0.945
3753,0.010,-0.945
3754,0.012,-0.945
3755,0.014,-0.945
3756,0.018,-0.945
3757,0.021,-0.945
3758,0.026,-0.945
3759,0.031,-0.945
3760,0.035,-0.945
3761,0.038,-0.945
3762,0.038,-0.945
3763,0.038,-0.945
3764,0.034,-0.945
3765,0.029,-0.945
3766,0.022,-0.945
3767,0.015,-0.945
3768,0.010,-0.945
3769,0.004,-0.945
3770,0.005,-0.945
3771,0.006,-0.945
3772,0.014,-0.931
3773,0.021,-0.931
3774,0.034,-0.931
3775,0.047,-0.931
3776,0.066,-0.958
3777,0.086,-0.958
3778,0.112,-0.958
3779,0.138,-0.958
3780,0.174,-0.945
3781,0.211,-0.945
3782,0.252,-0.945
3783,0.293,-0.945
3784,0.326,-0.931
3785,0.360,-0.931
3786,0.370,-0.931
3787,0.379,-0.931
3788,0.350,-0.931
3789,0.320,-0.931
3790,0.248,-0.931
3791,0.176,-0.931
3792,0.068,-0.905
3793,-0.040,-0.905
3794,-0.168,-0.905
3795,-0.296,-0.905
3796,-0.420,-0.905
3797,-0.543,-0.905
3798,-0.640,-0.905
3799,-0.736,-0.905
3800,-0.793,-0.905
3801,-0.850,-0.905
3802,-0.865,-0.905
3803,-0.880,-0.905
3804,-0.859,-0.879
3805,-0.838,-0.879
3806,-0.793,-0.879
3807,-0.748,-0.879
3808,-0.691,-0.892
3809,-0.633,-0.892
3810,-0.570,-0.892
3811,-0.506,-0.892
3812,-0.439,-0.892
3813,-0.372,-0.892
3814,-0.306,-0.892
3815,-0.240,-0.892
3816,-0.180,-0.905
3817,-0.120,-0.905
3818,-0.070,-0.905
3819,-0.021,-0.905
3820,0.017,-0.918
3821,0.054,-0.918
3822,0.079,-0.918
3823,0.104,-0.918
3824,0.121,-0.945
3825,0.137,-0.945
3826,0.147,-0.945
3827,0.157,-0.945
3828,0.163,-0.996
3829,0.169,-0.996
3830,0.176,-0.996
3831,0.182,-0.996
3832,0.189,-1.022
3833,0.195,-1.022
3834,0.202,-1.022
3835,0.208,-1.022
3836,0.209,-
3837,0.211,-
3838,0.202,-
3839,0.194,-
3840,0.175,-
3841,0.157,-
3842,0.133,-
3843,0.109,-
3844,0.088,-
3845,0.068,-
3846,0.055,-
3847,0.043,-
3848,0.040,-
3849,0.037,-
3850,0.042,-
3851,0.046,-
3852,0.055,-
3853,0.064,-
3854,0.076,-
3855,0.088,-
3856,0.101,-
3857,0.113,-
3858,0.123,-
3859,0.132,-
3860,0.138,-
3861,0.145,-
3862,0.149,-
3863,0.153,-
3864,0.154,-
3865,0.156,-
3866,0.157,-
3867,0.158,-
3868,0.158,-
3869,0.158,-
3870,0.156,-
3871,0.153,-
3872,0.151,-
3873,0.148,-
3874,0.147,-
3875,0.146,-
3876,0.147,-
3877,0.147,-
3878,0.150,-
3879,0.153,-
3880,0.157,-
3881,0.161,-
3882,0.164,-
3883,0.168,-
3884,0.165,-
3885,0.162,-
3886,0.153,-
3887,0.143,-
3888,0.129,-
3889,0.116,-
3890,0.106,-
3891,0.095,-
3892,0.093,-
3893,0.091,-
3894,0.098,-
3895,0.105,-
3896,0.116,-
3897,0.127,-
3898,0.132,-
3899,0.138,-
3900,0.136,-
3901,0.133,-
3902,0.125,-
3903,0.117,-
3904,0.108,-
3905,0.099,-
3906,0.095,-
3907,0.090,-
3908,0.091,-
3909,0.092,-
3910,0.094,-
3911,0.095,-
3912,0.094,-
3913,0.093,-
3914,0.086,-
3915,0.079,-
3916,0.069,-
3917,0.059,-
3918,0.048,-
3919,0.037,-
3920,0.030,-
3921,0.022,-
3922,0.020,-
3923,0.017,-
3924,0.017,-
3925,0.017,-
3926,0.018,-
3927,0.020,-
3928,0.021,-
3929,0.022,-
3930,0.023,-
3931,0.023,-
3932,0.023,-
3933,0.022,-
3934,0.022,-
3935,0.022,-
3936,0.022,-
3937,0.022,-
3938,0.025,-
3939,0.027,-
3940,0.034,-
3941,0.042,-
3942,0.054,-
3943,0.066,-
3944,0.076,-
3945,0.086,-
3946,0.087,-
3947,0.088,-
3948,0.079,-
3949,0.069,-
3950,0.049,-
3951,0.029,-
3952,0.004,-
3953,-0.021,-
3954,-0.046,-
3955,-0.071,-
3956,-0.091,-
3957,-0.112,-
3958,-0.122,-
3959,-0.132,-
3960,-0.132,-1.022
3961,-0.132,-1.022
3962,-0.124,-1.022
3963,-0.117,-1.022
3964,-0.109,-0.970
3965,-0.102,-0.970
3966,-0.098,-0.970
3967,-0.095,-0.970
3968,-0.093,-0.931
3969,-0.091,-0.931
3970,-0.087,-0.931
3971,-0.083,-0.931
3972,-0.075,-0.879
3973,-0.067,-0.879
3974,-0.056,-0.879
3975,-0.045,-0.879
3976,-0.037,-0.841
3977,-0.029,-0.841
3978,-0.026,-0.841
3979,-0.024,-0.841
3980,-0.028,-0.802
3981,-0.031,-0.802
3982,-0.036,-0.802
3983,-0.041,-0.802
3984,-0.040,-0.750
3985,-0.039,-0.750
3986,-0.029,-0.750
3987,-0.019,-0.750
3988,-0.003,-0.699
3989,0.013,-0.699
3990,0.029,-0.699
3991,0.045,-0.699
3992,0.055,-0.672
3993,0.064,-0.672
3994,0.063,-0.672
3995,0.062,-0.672
3996,0.051,-0.608
3997,0.039,-0.608
3998,0.017,-0.608
3999,-0.006,-0.608
4000,-0.033,-0.569
4001,-0.060,-0.569
4002,-0.081,-0.569
4003,-0.103,-0.569
4004,-0.107,-0.517
4005,-0.112,-0.517
4006,-0.099,-0.517
4007,-0.087,-0.517
4008,-0.066,-0.466
4009,-0.045,-0.466
4010,-0.029,-0.466
4011,-0.012,-0.466
4012,-0.004,-0.401
4013,0.003,-0.401
4014,0.004,-0.401
4015,0.006,-0.401
4016,0.009,-0.375
4017,0.012,-0.375
4018,0.018,-0.375
4019,0.024,-0.375
4020,0.033,-0.324
4021,0.043,-0.324
4022,0.054,-0.324
4023,0.065,-0.324
4024,0.075,-0.272
4025,0.086,-0.272
4026,0.093,-0.272
4027,0.100,-0.272
4028,0.104,-0.233
4029,0.109,-0.233
4030,0.111,-0.233
4031,0.112,-0.233
4032,0.112,-0.194
4033,0.112,-0.194
4034,0.112,-0.194
4035,0.112,-0.194
4036,0.113,-0.181
4037,0.113,-0.181
4038,0.114,-0.181
4039,0.114,-0.181
4040,0.114,-0.142
4041,0.113,-0.142
4042,0.112,-0.142
4043,0.110,-0.142
4044,0.106,-0.130
4045,0.102,-0.130
4046,0.095,-0.130
4047,0.088,-0.130
4048,0.079,-0.103
4049,0.070,-0.103
4050,0.061,-0.103
4051,0.052,-0.103
4052,0.043,-0.103
4053,0.034,-0.103
4054,0.025,-0.103
4055,0.016,-0.103
4056,0.008,-0.077
4057,0.000,-0.077
4058,-0.003,-0.077
4059,-0.006,-0.077
4060,0.000,-0.065
4061,0.007,-0.065
4062,0.022,-0.065
4063,0.037,-0.065
4064,0.055,-0.026
4065,0.074,-0.026
4066,0.090,-0.026
4067,0.106,-0.026
4068,0.116,-0.013
4069,0.126,-0.013
4070,0.128,-0.013
4071,0.130,-0.013
4072,0.127,-0.013
4073,0.124,-0.013
4074,0.119,-0.013
4075,0.114,-0.013
4076,0.111,0.013
4077,0.107,0.013
4078,0.104,0.013
4079,0.102,0.013
4080,0.099,0.026
4081,0.096,0.026
4082,0.093,0.026
4083,0.090,0.026
4084,0.090,0.026
4085,0.089,0.026
4086,0.093,0.026
4087,0.096,0.026
4088,0.102,0.026
4089,0.107,0.026
4090,0.107,0.026
4091,0.108,0.026
4092,0.100,0.026
4093,0.093,0.026
4094,0.079,0.026
4095,0.065,0.026
4096,0.052,0.052
4097,0.039,0.052
4098,0.030,0.052
4099,0.021,0.052
4100,0.013,0.039
4101,0.005,0.039
4102,-0.004,0.039
4103,-0.012,0.039
4104,-0.022,0.376
4105,-0.032,0.376
4106,-0.037,0.376
4107,-0.041,0.376
4108,-0.034,0.389
4109,-0.028,0.389
4110,-0.011,0.389
4111,0.005,0.389
4112,0.028,0.376
4113,0.050,0.376
4114,0.070,0.376
4115,0.091,0.376
4116,0.103,0.376
4117,0.116,0.376
4118,0.117,0.376
4119,0.119,0.376
4120,0.113,0.376
4121,0.108,0.376
4122,0.100,0.376
4123,0.093,0.376
4124,0.088,0.349
4125,0.084,0.349
4126,0.085,0.349
4127,0.087,0.349
4128,0.091,0.337
4129,0.095,0.337
4130,0.100,0.337
4131,0.105,0.337
4132,0.108,0.324
4133,0.111,0.324
4134,0.110,0.324
4135,0.109,0.324
4136,0.104,0.297
4137,0.100,0.297
4138,0.095,0.297
4139,0.090,0.297
4140,0.089,0.259
4141,0.088,0.259
4142,0.090,0.259
4143,0.091,0.259
4144,0.093,0.233
4145,0.095,0.233
4146,0.095,0.233
4147,0.095,0.233
4148,0.098,0.207
4149,0.101,0.207
4150,0.107,0.207
4151,0.113,0.207
4152,0.120,0.181
4153,0.126,0.181
4154,0.124,0.181
4155,0.121,0.181
4156,0.106,0.155
4157,0.091,0.155
4158,0.070,0.155
4159,0.048,0.155
4160,0.031,0.130
4161,0.014,0.130
4162,0.011,0.130
4163,0.007,0.130
4164,0.016,0.103
4165,0.024,0.103
4166,0.034,0.103
4167,0.045,0.103
4168,0.050,0.090
4169,0.056,0.090
4170,0.057,0.090
4171,0.057,0.090
4172,0.056,0.065
4173,0.055,0.065
4174,0.056,0.065
4175,0.057,0.065
4176,0.058,0.052
4177,0.059,0.052
4178,0.055,0.052
4179,0.051,0.052
4180,0.039,0.013
4181,0.028,0.013
4182,0.012,0.013
4183,-0.003,0.013
4184,-0.014,0.000
4185,-0.025,0.000
4186,-0.029,0.000
4187,-0.033,0.000
4188,-0.027,-0.013
4189,-0.021,-0.013
4190,-0.009,-0.013
4191,0.004,-0.013
4192,0.018,-0.013
4193,0.032,-0.013
4194,0.042,-0.013
4195,0.053,-0.013
4196,0.056,-0.025
4197,0.059,-0.025
4198,0.055,-0.025
4199,0.051,-0.025
4200,0.045,-0.025
4201,0.040,-0.025
4202,0.040,-0.025
4203,0.040,-0.025
4204,0.047,-0.038
4205,0.054,-0.038
4206,0.064,-0.038
4207,0.074,-0.038
4208,0.082,-0.025
4209,0.090,-0.025
4210,0.098,-0.025
4211,0.105,-0.025
4212,0.120,-0.025
4213,0.135,-0.025
4214,0.161,-0.025
4215,0.187,-0.025
4216,0.215,-0.025
4217,0.244,-0.025
4218,0.257,-0.025
4219,0.270,-0.025
4220,0.255,-0.013
4221,0.240,-0.013
4222,0.194,-0.013
4223,0.148,-0.013
4224,0.080,0.013
4225,0.012,0.013
4226,-0.070,0.013
4227,-0.151,0.013
4228,-0.241,0.026
4229,-0.331,0.026
4230,-0.423,0.026
4231,-0.515,0.026
4232,-0.595,0.052
4233,-0.675,0.052
4234,-0.727,0.052
4235,-0.780,0.052
4236,-0.797,0.052
4237,-0.814,0.052
4238,-0.795,0.052
4239,-0.777,0.052
4240,-0.733,0.078
4241,-0.689,0.078
4242,-0.631,0.078
4243,-0.574,0.078
4244,-0.510,0.090
4245,-0.447,0.090
4246,-0.384,0.090
4247,-0.320,0.090
4248,-0.262,0.130
4249,-0.204,0.130
4250,-0.156,0.130
4251,-0.107,0.130
4252,-0.066,0.142
4253,-0.026,0.142
4254,0.006,0.142
4255,0.037,0.142
4256,0.059,0.169
4257,0.081,0.169
4258,0.095,0.169
4259,0.108,0.169
4260,0.114,0.194
4261,0.120,0.194
4262,0.121,0.194
4263,0.122,0.194
4264,0.119,0.220
4265,0.116,0.220
4266,0.111,0.220
4267,0.105,0.220
4268,0.101,0.233
4269,0.097,0.233
4270,0.096,0.233
4271,0.095,0.233
4272,0.097,0.246
4273,0.098,0.246
4274,0.097,0.246
4275,0.096,0.246
4276,0.090,0.272
4277,0.084,0.272
4278,0.075,0.272
4279,0.066,0.272
4280,0.060,0.285
4281,0.054,0.285
4282,0.056,0.285
4283,0.059,0.285
4284,0.071,0.297
4285,0.084,0.297
4286,0.099,0.297
4287,0.115,0.297
4288,0.128,0.337
4289,0.140,0.337
4290,0.145,0.337
4291,0.150,0.337
4292,0.147,0.349
4293,0.144,0.349
4294,0.136,0.349
4295,0.129,0.349
4296,0.122,0.349
4297,0.115,0.349
4298,0.114,0.349
4299,0.112,0.349
4300,0.117,0.376
4301,0.122,0.376
4302,0.130,0.376
4303,0.138,0.376
4304,0.143,0.376
4305,0.148,0.376
4306,0.148,0.376
4307,0.148,0.376
4308,0.144,0.362
4309,0.140,0.362
4310,0.135,0.362
4311,0.130,0.362
4312,0.124,0.362
4313,0.119,0.362
4314,0.112,0.362
4315,0.104,0.362
4316,0.093,0.349
4317,0.082,0.349
4318,0.069,0.349
4319,0.055,0.349
4320,0.045,0.362
4321,0.036,0.362
4322,0.033,0.362
4323,0.029,0.362
4324,0.033,0.349
4325,0.037,0.349
4326,0.045,0.349
4327,0.053,0.349
4328,0.062,0.337
4329,0.071,0.337
4330,0.080,0.337
4331,0.089,0.337
4332,0.098,0.324
4333,0.107,0.324
4334,0.113,0.324
4335,0.120,0.324
4336,0.122,0.297
4337,0.125,0.297
4338,0.123,0.297
4339,0.121,0.297
4340,0.117,0.310
4341,0.112,0.310
4342,0.107,0.310
4343,0.103,0.310
4344,0.098,0.297
4345,0.093,0.297
4346,0.089,0.297
4347,0.086,0.297
4348,0.083,0.297
4349,0.081,0.297
4350,0.079,0.297
4351,0.076,0.297
4352,0.071,0.310
4353,0.067,0.310
4354,0.062,0.310
4355,0.056,0.310
4356,0.051,0.310
4357,0.045,0.310
4358,0.039,0.310
4359,0.033,0.310
4360,0.027,0.310
4361,0.021,0.310
4362,0.019,0.310
4363,0.016,0.310
4364,0.019,0.337
4365,0.021,0.337
4366,0.028,0.337
4367,0.034,0.337
4368,0.039,0.362
4369,0.045,0.362
4370,0.042,0.362
4371,0.040,0.362
4372,0.030,0.389
4373,0.021,0.389
4374,0.007,0.389
4375,-0.007,0.389
4376,-0.019,0.427
4377,-0.030,0.427
4378,-0.037,0.427
4379,-0.043,0.427
4380,-0.043,0.466
4381,-0.044,0.466
4382,-0.042,0.466
4383,-0.041,0.466
4384,-0.041,0.504
4385,-0.042,0.504
4386,-0.045,0.504
4387,-0.048,0.504
4388,-0.051,0.556
4389,-0.054,0.556
4390,-0.052,0.556
4391,-0.050,0.556
4392,-0.045,0.634
4393,-0.039,0.634
4394,-0.034,0.634
4395,-0.029,0.634
4396,-0.025,0.686
4397,-0.021,0.686
4398,-0.020,0.686
4399,-0.019,0.686
4400,-0.017,0.738
4401,-0.016,0.738
4402,-0.015,0.738
4403,-0.013,0.738
4404,-0.012,0.802
4405,-0.012,0.802
4406,-0.012,0.802
4407,-0.012,0.802
4408,-0.015,0.867
4409,-0.017,0.867
4410,-0.020,0.867
4411,-0.022,0.867
4412,-0.023,0.918
4413,-0.023,0.918
4414,-0.021,0.918
4415,-0.019,0.918
4416,-0.016,0.984
4417,-0.012,0.984
4418,-0.009,0.984
4419,-0.006,0.984
4420,-0.005,1.022
4421,-0.004,1.022
4422,-0.007,1.022
4423,-0.010,1.022
4424,-0.016,1.024
4425,-0.021,1.024
4426,-0.028,1.024
4427,-0.035,1.024
4428,-0.040,1.024
4429,-0.045,1.024
4430,-0.049,1.024
4431,-0.053,1.024
4432,-0.053,1.024
4433,-0.053,1.024
4434,-0.050,1.024
4435,-0.046,1.024
4436,-0.041,1.024
4437,-0.035,1.024
4438,-0.027,1.024
4439,-0.019,1.024
4440,-0.012,1.024
4441,-0.004,1.024
4442,0.002,1.024
4443,0.009,1.024
4444,0.013,1.024
4445,0.017,1.024
4446,0.018,1.024
4447,0.019,1.024
4448,0.017,1.024
4449,0.015,1.024
4450,0.012,1.024
4451,0.010,1.024
4452,0.009,1.024
4453,0.008,1.024
4454,0.009,1.024
4455,0.010,1.024
4456,0.011,1.024
4457,0.012,1.024
4458,0.015,1.024
4459,0.018,1.024
4460,0.025,1.024
4461,0.032,1.024
4462,0.045,1.024
4463,0.058,1.024
4464,0.074,1.024
4465,0.091,1.024
4466,0.105,1.024
4467,0.119,1.024
4468,0.123,1.024
4469,0.127,1.024
4470,0.120,1.024
4471,0.114,1.024
4472,0.103,1.024
4473,0.091,1.024
4474,0.081,1.024
4475,0.071,1.024
4476,0.066,1.024
4477,0.062,1.024
4478,0.062,1.024
4479,0.062,1.024
4480,0.066,1.024
4481,0.069,1.024
4482,0.074,1.024
4483,0.079,1.024
4484,0.083,1.024
4485,0.088,1.024
4486,0.092,1.024
4487,0.095,1.024
4488,0.096,1.024
4489,0.096,1.024
4490,0.093,1.024
4491,0.090,1.024
4492,0.084,1.024
4493,0.079,1.024
4494,0.073,1.024
4495,0.068,1.024
4496,0.066,1.024
4497,0.063,1.024
4498,0.063,1.024
4499,0.063,1.024
4500,0.065,1.024
4501,0.066,1.024
4502,0.066,1.024
4503,0.067,1.024
4504,0.067,1.024
4505,0.067,1.024
4506,0.066,1.024
4507,0.064,1.024
4508,0.060,1.024
4509,0.056,1.024
4510,0.052,1.024
4511,0.047,1.024
4512,0.043,1.024
4513,0.038,1.024
4514,0.037,1.024
4515,0.037,1.024
4516,0.041,1.024
4517,0.046,1.024
4518,0.056,1.024
4519,0.065,1.024
4520,0.076,1.022
4521,0.087,1.022
4522,0.091,1.022
4523,0.096,1.022
4524,0.093,0.945
4525,0.089,0.945
4526,0.079,0.945
4527,0.070,0.945
4528,0.059,0.867
4529,0.048,0.867
4530,0.042,0.867
4531,0.037,0.867
4532,0.037,0.789
4533,0.037,0.789
4534,0.041,0.789
4535,0.045,0.789
4536,0.050,0.712
4537,0.054,0.712
4538,0.056,0.712
4539,0.058,0.712
4540,0.058,0.634
4541,0.059,0.634
4542,0.056,0.634
4543,0.054,0.634
4544,0.051,0.570
4545,0.048,0.570
4546,0.046,0.570
4547,0.045,0.570
4548,0.044,0.504
4549,0.043,0.504
4550,0.045,0.504
4551,0.047,0.504
4552,0.052,0.440
4553,0.057,0.440
4554,0.062,0.440
4555,0.067,0.440
4556,0.071,0.389
4557,0.075,0.389
4558,0.074,0.389
4559,0.074,0.389
4560,0.070,0.349
4561,0.067,0.349
4562,0.062,0.349
4563,0.057,0.349
4564,0.054,0.285
4565,0.052,0.285
4566,0.052,0.285
4567,0.053,0.285
4568,0.055,0.246
4569,0.058,0.246
4570,0.066,0.246
4571,0.073,0.246
4572,0.083,0.207
4573,0.094,0.207
4574,0.104,0.207
4575,0.114,0.207
4576,0.121,0.169
4577,0.128,0.169
4578,0.128,0.169
4579,0.129,0.169
4580,0.123,0.130
4581,0.117,0.130
4582,0.105,0.130
4583,0.094,0.130
4584,0.081,0.090
4585,0.069,0.090
4586,0.057,0.090
4587,0.045,0.090
4588,0.036,0.039
4589,0.027,0.039
4590,0.022,0.039
4591,0.017,0.039
4592,0.014,0.000
4593,0.012,0.000
4594,0.011,0.000
4595,0.010,0.000
4596,0.010,-0.025
4597,0.010,-0.025
4598,0.012,-0.025
4599,0.015,-0.025
4600,0.019,-0.038
4601,0.023,-0.038
4602,0.028,-0.038
4603,0.033,-0.038
4604,0.039,-0.077
4605,0.045,-0.077
4606,0.050,-0.077
4607,0.054,-0.077
4608,0.053,-0.103
4609,0.053,-0.103
4610,0.048,-0.103
4611,0.043,-0.103
4612,0.034,-0.117
4613,0.026,-0.117
4614,0.018,-0.117
4615,0.011,-0.117
4616,0.006,-0.129
4617,0.002,-0.129
4618,0.000,-0.129
4619,-0.001,-0.129
4620,0.000,-0.155
4621,0.002,-0.155
4622,0.007,-0.155
4623,0.012,-0.155
4624,0.021,-0.142
4625,0.029,-0.142
4626,0.040,-0.142
4627,0.050,-0.142
4628,0.058,-0.168
4629,0.067,-0.168
4630,0.073,-0.168
4631,0.079,-0.168
4632,0.086,-0.181
4633,0.092,-0.181
4634,0.100,-0.181
4635,0.108,-0.181
4636,0.116,-0.207
4637,0.125,-0.207
4638,0.130,-0.207
4639,0.136,-0.207
4640,0.135,-0.207
4641,0.134,-0.207
4642,0.124,-0.207
4643,0.115,-0.207
4644,0.101,-0.220
4645,0.087,-0.220
4646,0.079,-0.220
4647,0.070,-0.220
4648,0.073,-0.245
4649,0.075,-0.245
4650,0.087,-0.245
4651,0.099,-0.245
4652,0.113,-0.259
4653,0.128,-0.259
4654,0.132,-0.259
4655,0.137,-0.259
4656,0.121,-0.272
4657,0.105,-0.272
4658,0.061,-0.272
4659,0.017,-0.272
4660,-0.054,-0.297
4661,-0.124,-0.297
4662,-0.211,-0.297
4663,-0.298,-0.297
4664,-0.387,-0.297
4665,-0.475,-0.297
4666,-0.550,-0.297
4667,-0.624,-0.297
4668,-0.672,-0.324
4669,-0.720,-0.324
4670,-0.740,-0.324
4671,-0.759,-0.324
4672,-0.756,-0.310
4673,-0.752,-0.310
4674,-0.733,-0.310
4675,-0.714,-0.310
4676,-0.683,-0.310
4677,-0.652,-0.310
4678,-0.609,-0.310
4679,-0.566,-0.310
4680,-0.515,-0.324
4681,-0.463,-0.324
4682,-0.407,-0.324
4683,-0.351,-0.324
4684,-0.294,-0.324
4685,-0.237,-0.324
4686,-0.186,-0.324
4687,-0.134,-0.324
4688,-0.093,-0.336
4689,-0.052,-0.336
4690,-0.022,-0.336
4691,0.007,-0.336
4692,0.026,-0.336
4693,0.045,-0.336
4694,0.055,-0.336
4695,0.064,-0.336
4696,0.065,-0.349
4697,0.065,-0.349
4698,0.061,-0.349
4699,0.056,-0.349
4700,0.051,-0.375
4701,0.045,-0.375
4702,0.043,-0.375
4703,0.041,-0.375
4704,0.044,-0.388
4705,0.046,-0.388
4706,0.054,-0.388
4707,0.062,-0.388
4708,0.071,-0.388
4709,0.081,-0.388
4710,0.088,-0.388
4711,0.095,-0.388
4712,0.095,-0.401
4713,0.095,-0.401
4714,0.088,-0.401
4715,0.081,-0.401
4716,0.070,-0.427
4717,0.060,-0.427
4718,0.052,-0.427
4719,0.044,-0.427
4720,0.042,-0.427
4721,0.041,-0.427
4722,0.048,-0.427
4723,0.055,-0.427
4724,0.068,-0.453
4725,0.080,-0.453
4726,0.093,-0.453
4727,0.106,-0.453
4728,0.112,-0.453
4729,0.119,-0.453
4730,0.116,-0.453
4731,0.114,-0.453
4732,0.105,-0.466
4733,0.095,-0.466
4734,0.084,-0.466
4735,0.073,-0.466
4736,0.063,-0.478
4737,0.054,-0.478
4738,0.048,-0.478
4739,0.043,-0.478
4740,0.042,-0.478
4741,0.042,-0.478
4742,0.045,-0.478
4743,0.047,-0.478
4744,0.052,-0.491
4745,0.056,-0.491
4746,0.060,-0.491
4747,0.063,-0.491
4748,0.066,-0.504
4749,0.069,-0.504
4750,0.071,-0.504
4751,0.074,-0.504
4752,0.078,-0.504
4753,0.081,-0.504
4754,0.086,-0.504
4755,0.090,-0.504
4756,0.092,-0.504
4757,0.095,-0.504
4758,0.091,-0.504
4759,0.088,-0.504
4760,0.082,-0.504
4761,0.075,-0.504
4762,0.067,-0.504
4763,0.059,-0.504
4764,0.053,-0.504
4765,0.047,-0.504
4766,0.044,-0.504
4767,0.040,-0.504
4768,0.037,-0.504
4769,0.033,-0.504
4770,0.029,-0.504
4771,0.024,-0.504
4772,0.020,-0.491
4773,0.016,-0.491
4774,0.015,-0.491
4775,0.014,-0.491
4776,0.013,-0.491
4777,0.012,-0.491
4778,0.011,-0.491
4779,0.009,-0.491
4780,0.006,-0.504
4781,0.003,-0.504
4782,-0.003,-0.504
4783,-0.008,-0.504
4784,-0.013,-0.478
4785,-0.018,-0.478
4786,-0.020,-0.478
4787,-0.022,-0.478
4788,-0.021,-0.478
4789,-0.021,-0.478
4790,-0.017,-0.478
4791,-0.013,-0.478
4792,-0.008,-0.466
4793,-0.003,-0.466
4794,0.004,-0.466
4795,0.010,-0.466
4796,0.015,-0.453
4797,0.021,-0.453
4798,0.023,-0.453
4799,0.025,-0.453
4800,0.023,-0.427
4801,0.021,-0.427
4802,0.014,-0.427
4803,0.007,-0.427
4804,-0.002,-0.375
4805,-0.012,-0.375
4806,-0.021,-0.375
4807,-0.030,-0.375
4808,-0.037,-0.336
4809,-0.044,-0.336
4810,-0.049,-0.336
4811,-0.054,-0.336
4812,-0.058,-0.297
4813,-0.063,-0.297
4814,-0.071,-0.297
4815,-0.079,-0.297
4816,-0.088,-0.233
4817,-0.098,-0.233
4818,-0.105,-0.233
4819,-0.112,-0.233
4820,-0.115,-0.155
4821,-0.117,-0.155
4822,-0.113,-0.155
4823,-0.109,-0.155
4824,-0.100,-0.077
4825,-0.091,-0.077
4826,-0.081,-0.077
4827,-0.070,-0.077
4828,-0.062,-0.025
4829,-0.054,-0.025
4830,-0.050,-0.025
4831,-0.045,-0.025
4832,-0.043,0.065
4833,-0.041,0.065
4834,-0.041,0.065
4835,-0.041,0.065
4836,-0.044,0.117
4837,-0.046,0.117
4838,-0.051,0.117
4839,-0.056,0.117
4840,-0.062,0.181
4841,-0.068,0.181
4842,-0.075,0.181
4843,-0.083,0.181
4844,-0.090,0.233
4845,-0.096,0.233
4846,-0.103,0.233
4847,-0.109,0.233
4848,-0.113,0.272
4849,-0.117,0.272
4850,-0.117,0.272
4851,-0.117,0.272
4852,-0.112,0.297
4853,-0.107,0.297
4854,-0.098,0.297
4855,-0.089,0.297
4856,-0.078,0.349
4857,-0.066,0.349
4858,-0.054,0.349
4859,-0.041,0.349
4860,-0.029,0.389
4861,-0.018,0.389
4862,-0.008,0.389
4863,0.002,0.389
4864,0.008,0.401
4865,0.014,0.401
4866,0.014,0.401
4867,0.014,0.401
4868,0.009,0.427
4869,0.004,0.427
4870,-0.004,0.427
4871,-0.012,0.427
4872,-0.018,0.440
4873,-0.025,0.440
4874,-0.028,0.440
4875,-0.030,0.440
4876,-0.030,0.479
4877,-0.030,0.479
4878,-0.029,0.479
4879,-0.029,0.479
4880,-0.027,0.479
4881,-0.026,0.479
4882,-0.024,0.479
4883,-0.021,0.479
4884,-0.018,0.504
4885,-0.014,0.504
4886,-0.009,0.504
4887,-0.004,0.504
4888,0.000,0.530
4889,0.004,0.530
4890,0.008,0.530
4891,0.012,0.530
4892,0.015,0.530
4893,0.018,0.530
4894,0.021,0.530
4895,0.023,0.530
4896,0.025,0.556
4897,0.026,0.556
4898,0.028,0.556
4899,0.029,0.556
4900,0.034,0.583
4901,0.038,0.583
4902,0.045,0.583
4903,0.051,0.583
4904,0.058,0.596
4905,0.066,0.596
4906,0.072,0.596
4907,0.078,0.596
4908,0.081,0.608
4909,0.084,0.608
4910,0.084,0.608
4911,0.085,0.608
4912,0.083,0.621
4913,0.081,0.621
4914,0.079,0.621
4915,0.078,0.621
4916,0.076,0.634
4917,0.075,0.634
4918,0.075,0.634
4919,0.075,0.634
4920,0.077,0.647
4921,0.079,0.647
4922,0.081,0.647
4923,0.084,0.647
4924,0.088,0.660
4925,0.093,0.660
4926,0.097,0.660
4927,0.101,0.660
4928,0.102,0.647
4929,0.103,0.647
4930,0.096,0.647
4931,0.089,0.647
4932,0.077,0.621
4933,0.064,0.621
4934,0.051,0.621
4935,0.038,0.621
4936,0.031,0.608
4937,0.023,0.608
4938,0.026,0.608
4939,0.029,0.608
4940,0.041,0.596
4941,0.052,0.596
4942,0.062,0.596
4943,0.073,0.596
4944,0.078,0.570
4945,0.082,0.570
4946,0.079,0.570
4947,0.076,0.570
4948,0.070,0.530
4949,0.065,0.530
4950,0.062,0.530
4951,0.058,0.530
4952,0.058,0.479
4953,0.057,0.479
4954,0.058,0.479
4955,0.058,0.479
4956,0.057,0.427
4957,0.056,0.427
4958,0.050,0.427
4959,0.045,0.427
4960,0.035,0.389
4961,0.026,0.389
4962,0.016,0.389
4963,0.005,0.389
4964,-0.004,0.349
4965,-0.012,0.349
4966,-0.016,0.349
4967,-0.020,0.349
4968,-0.018,0.297
4969,-0.017,0.297
4970,-0.012,0.297
4971,-0.007,0.297
4972,-0.002,0.259
4973,0.003,0.259
4974,0.005,0.259
4975,0.007,0.259
4976,0.008,0.194
4977,0.008,0.194
4978,0.009,0.194
4979,0.011,0.194
4980,0.013,0.169
4981,0.016,0.169
4982,0.017,0.169
4983,0.018,0.169
4984,0.014,0.142
4985,0.011,0.142
4986,0.004,0.142
4987,-0.004,0.142
4988,-0.011,0.090
4989,-0.019,0.090
4990,-0.025,0.090
4991,-0.031,0.090
4992,-0.033,0.065
4993,-0.035,0.065
4994,-0.031,0.065
4995,-0.028,0.065
4996,-0.019,0.026
4997,-0.011,0.026
4998,0.002,0.026
4999,0.015,0.026
5000,0.032,0.000
5001,0.048,0.000
5002,0.062,0.000
5003,0.077,0.000
5004,0.087,-0.025
5005,0.097,-0.025
5006,0.102,-0.025
5007,0.107,-0.025
5008,0.109,-0.065
5009,0.111,-0.065
5010,0.113,-0.065
5011,0.115,-0.065
5012,0.120,-0.090
5013,0.126,-0.090
5014,0.132,-0.090
5015,0.139,-0.090
5016,0.145,-0.117
5017,0.150,-0.117
5018,0.150,-0.117
5019,0.151,-0.117
5020,0.144,-0.168
5021,0.136,-0.168
5022,0.124,-0.168
5023,0.112,-0.168
5024,0.100,-0.194
5025,0.087,-0.194
5026,0.079,-0.194
5027,0.071,-0.194
5028,0.066,-0.207
5029,0.062,-0.207
5030,0.057,-0.207
5031,0.052,-0.207
5032,0.042,-0.233
5033,0.032,-0.233
5034,0.018,-0.233
5035,0.004,-0.233
5036,-0.014,-0.259
5037,-0.031,-0.259
5038,-0.047,-0.259
5039,-0.062,-0.259
5040,-0.072,-0.259
5041,-0.081,-0.259
5042,-0.082,-0.259
5043,-0.082,-0.259
5044,-0.075,-0.272
5045,-0.068,-0.272
5046,-0.060,-0.272
5047,-0.052,-0.272
5048,-0.049,-0.272
5049,-0.046,-0.272
5050,-0.050,-0.272
5051,-0.054,-0.272
5052,-0.060,-0.272
5053,-0.066,-0.272
5054,-0.067,-0.272
5055,-0.069,-0.272
5056,-0.062,-0.284
5057,-0.055,-0.284
5058,-0.041,-0.284
5059,-0.026,-0.284
5060,-0.008,-0.284
5061,0.011,-0.284
5062,0.033,-0.284
5063,0.054,-0.284
5064,0.081,-0.284
5065,0.107,-0.284
5066,0.133,-0.284
5067,0.159,-0.284
5068,0.174,-0.297
5069,0.190,-0.297
5070,0.186,-0.297
5071,0.181,-0.297
5072,0.157,-0.297
5073,0.133,-0.297
5074,0.099,-0.297
5075,0.066,-0.297
5076,0.037,-0.284
5077,0.009,-0.284
5078,-0.004,-0.284
5079,-0.017,-0.284
5080,-0.012,-0.284
5081,-0.008,-0.284
5082,0.008,-0.284
5083,0.025,-0.284
5084,0.047,-0.284
5085,0.069,-0.284
5086,0.086,-0.284
5087,0.103,-0.284
5088,0.107,-0.284
5089,0.111,-0.284
5090,0.093,-0.284
5091,0.075,-0.284
5092,0.031,-0.272
5093,-0.013,-0.272
5094,-0.086,-0.272
5095,-0.158,-0.272
5096,-0.251,-0.272
5097,-0.344,-0.272
5098,-0.442,-0.272
5099,-0.541,-0.272
5100,-0.622,-0.259
5101,-0.704,-0.259
5102,-0.752,-0.259
5103,-0.800,-0.259
5104,-0.810,-0.259
5105,-0.819,-0.259
5106,-0.796,-0.259
5107,-0.773,-0.259
5108,-0.729,-0.259
5109,-0.686,-0.259
5110,-0.631,-0.259
5111,-0.576,-0.259
5112,-0.515,-0.245
5113,-0.454,-0.245
5114,-0.392,-0.245
5115,-0.330,-0.245
5116,-0.273,-0.245
5117,-0.215,-0.245
5118,-0.168,-0.245
5119,-0.120,-0.245
5120,-0.086,-0.259
5121,-0.052,-0.259
5122,-0.029,-0.259
5123,-0.006,-0.259
5124,0.011,-0.259
5125,0.028,-0.259
5126,0.042,-0.259
5127,0.056,-0.259
5128,0.069,-0.233
5129,0.082,-0.233
5130,0.093,-0.233
5131,0.103,-0.233
5132,0.112,-0.233
5133,0.120,-0.233
5134,0.127,-0.233
5135,0.134,-0.233
5136,0.138,-0.233
5137,0.143,-0.233
5138,0.142,-0.233
5139,0.142,-0.233
5140,0.134,-0.233
5141,0.127,-0.233
5142,0.112,-0.233
5143,0.096,-0.233
5144,0.079,-0.220
5145,0.061,-0.220
5146,0.047,-0.220
5147,0.033,-0.220
5148,0.025,-0.207
5149,0.018,-0.207
5150,0.015,-0.207
5151,0.012,-0.207
5152,0.012,-0.207
5153,0.013,-0.207
5154,0.015,-0.207
5155,0.017,-0.207
5156,0.022,-0.168
5157,0.028,-0.168
5158,0.037,-0.168
5159,0.047,-0.168
5160,0.058,-0.155
5161,0.068,-0.155
5162,0.071,-0.155
5163,0.075,-0.155
5164,0.069,-0.117
5165,0.063,-0.117
5166,0.052,-0.117
5167,0.041,-0.117
5168,0.034,-0.090
5169,0.028,-0.090
5170,0.032,-0.090
5171,0.037,-0.090
5172,0.053,-0.077
5173,0.070,-0.077
5174,0.089,-0.077
5175,0.108,-0.077
5176,0.121,-0.038
5177,0.135,-0.038
5178,0.140,-0.038
5179,0.145,-0.038
5180,0.144,-0.013
5181,0.143,-0.013
5182,0.139,-0.013
5183,0.136,-0.013
5184,0.131,0.000
5185,0.127,0.000
5186,0.120,0.000
5187,0.113,0.000
5188,0.102,0.026
5189,0.090,0.026
5190,0.074,0.026
5191,0.059,0.026
5192,0.044,0.026
5193,0.029,0.026
5194,0.019,0.026
5195,0.010,0.026
5196,0.009,0.039
5197,0.009,0.039
5198,0.015,0.039
5199,0.021,0.039
5200,0.030,0.065
5201,0.038,0.065
5202,0.045,0.065
5203,0.053,0.065
5204,0.055,0.065
5205,0.058,0.065
5206,0.058,0.065
5207,0.058,0.065
5208,0.056,0.065
5209,0.054,0.065
5210,0.052,0.065
5211,0.049,0.065
5212,0.044,0.078
5213,0.038,0.078
5214,0.032,0.078
5215,0.025,0.078
5216,0.020,0.103
5217,0.015,0.103
5218,0.015,0.103
5219,0.015,0.103
5220,0.020,0.142
5221,0.024,0.142
5222,0.030,0.142
5223,0.037,0.142
5224,0.041,0.181
5225,0.045,0.181
5226,0.044,0.181
5227,0.043,0.181
5228,0.040,0.233
5229,0.037,0.233
5230,0.033,0.233
5231,0.029,0.233
5232,0.027,0.297
5233,0.024,0.297
5234,0.022,0.297
5235,0.020,0.297
5236,0.015,0.389
5237,0.011,0.389
5238,0.003,0.389
5239,-0.004,0.389
5240,-0.012,0.479
5241,-0.021,0.479
5242,-0.025,0.479
5243,-0.030,0.479
5244,-0.029,0.596
5245,-0.029,0.596
5246,-0.025,0.596
5247,-0.021,0.596
5248,-0.018,0.712
5249,-0.015,0.712
5250,-0.017,0.712
5251,-0.020,0.712
5252,-0.026,0.867
5253,-0.033,0.867
5254,-0.043,0.867
5255,-0.054,0.867
5256,-0.065,1.022
5257,-0.077,1.022
5258,-0.088,1.022
5259,-0.099,1.022
5260,-0.109,1.024
5261,-0.119,1.024
5262,-0.125,1.024
5263,-0.131,1.024
5264,-0.130,1.024
5265,-0.128,1.024
5266,-0.118,1.024
5267,-0.108,1.024
5268,-0.089,1.024
5269,-0.070,1.024
5270,-0.048,1.024
5271,-0.026,1.024
5272,-0.009,1.024
5273,0.007,1.024
5274,0.013,1.024
5275,0.020,1.024
5276,0.015,1.024
5277,0.010,1.024
5278,-0.002,1.024
5279,-0.013,1.024
5280,-0.025,1.024
5281,-0.037,1.024
5282,-0.043,1.024
5283,-0.049,1.024
5284,-0.048,1.024
5285,-0.047,1.024
5286,-0.044,1.024
5287,-0.041,1.024
5288,-0.040,1.024
5289,-0.039,1.024
5290,-0.044,1.024
5291,-0.048,1.024
5292,-0.058,1.024
5293,-0.067,1.024
5294,-0.077,1.024
5295,-0.087,1.024
5296,-0.093,1.024
5297,-0.098,1.024
5298,-0.095,1.024
5299,-0.091,1.024
5300,-0.079,1.024
5301,-0.068,1.024
5302,-0.052,1.024
5303,-0.037,1.024
5304,-0.022,1.024
5305,-0.008,1.024
5306,0.003,1.024
5307,0.013,1.024
5308,0.019,1.024
5309,0.024,1.024
5310,0.024,1.024
5311,0.024,1.024
5312,0.019,1.024
5313,0.013,1.024
5314,0.004,1.024
5315,-0.006,1.024
5316,-0.018,1.024
5317,-0.030,1.024
5318,-0.041,1.024
5319,-0.053,1.024
5320,-0.058,1.024
5321,-0.063,1.024
5322,-0.062,1.024
5323,-0.061,1.024
5324,-0.054,1.024
5325,-0.046,1.024
5326,-0.035,1.024
5327,-0.023,1.024
5328,-0.009,1.024
5329,0.005,1.024
5330,0.021,1.024
5331,0.036,1.024
5332,0.048,1.024
5333,0.060,1.024
5334,0.065,1.024
5335,0.070,1.024
5336,0.068,1.024
5337,0.066,1.024
5338,0.061,1.024
5339,0.055,1.024
5340,0.052,1.024
5341,0.048,1.024
5342,0.049,1.024
5343,0.050,1.024
5344,0.056,1.024
5345,0.062,1.024
5346,0.069,1.024
5347,0.077,1.024
5348,0.082,1.024
5349,0.087,1.024
5350,0.089,1.024
5351,0.091,1.024
5352,0.091,1.024
5353,0.090,1.024
5354,0.087,1.024
5355,0.084,1.024
5356,0.082,1.024
5357,0.079,1.024
5358,0.080,1.024
5359,0.080,1.024
5360,0.080,1.024
5361,0.079,1.024
5362,0.074,1.024
5363,0.069,1.024
5364,0.056,1.024
5365,0.044,1.024
5366,0.029,1.024
5367,0.014,1.024
5368,0.004,1.024
5369,-0.007,1.024
5370,-0.009,1.024
5371,-0.012,1.024
5372,-0.008,1.024
5373,-0.005,1.024
5374,-0.001,1.024
5375,0.004,1.024
5376,0.008,1.024
5377,0.012,1.024
5378,0.016,1.024
5379,0.020,1.024
5380,0.027,1.024
5381,0.034,1.024
5382,0.045,1.024
5383,0.055,1.024
5384,0.065,1.024
5385,0.074,1.024
5386,0.078,1.024
5387,0.081,1.024
5388,0.080,1.024
5389,0.079,1.024
5390,0.077,1.024
5391,0.076,1.024
5392,0.079,1.024
5393,0.082,1.024
5394,0.090,1.024
5395,0.097,1.024
5396,0.106,1.024
5397,0.114,1.024
5398,0.116,1.024
5399,0.119,1.024
5400,0.114,1.024
5401,0.109,1.024
5402,0.101,1.024
5403,0.094,1.024
5404,0.091,1.024
5405,0.089,1.024
5406,0.093,1.024
5407,0.097,1.024
5408,0.102,1.024
5409,0.107,1.024
5410,0.106,1.024
5411,0.104,1.024
5412,0.095,0.944
5413,0.087,0.944
5414,0.073,0.944
5415,0.059,0.944
5416,0.050,0.854
5417,0.040,0.854
5418,0.039,0.854
5419,0.037,0.854
5420,0.040,0.750
5421,0.042,0.750
5422,0.043,0.750
5423,0.045,0.750
5424,0.043,0.646
5425,0.042,0.646
5426,0.039,0.646
5427,0.037,0.646
5428,0.036,0.556
5429,0.035,0.556
5430,0.036,0.556
5431,0.037,0.556
5432,0.042,0.466
5433,0.047,0.466
5434,0.055,0.466
5435,0.063,0.466
5436,0.074,0.388
5437,0.086,0.388
5438,0.096,0.388
5439,0.107,0.388
5440,0.114,0.310
5441,0.120,0.310
5442,0.124,0.310
5443,0.128,0.310
5444,0.128,0.259
5445,0.128,0.259
5446,0.128,0.259
5447,0.127,0.259
5448,0.125,0.194
5449,0.124,0.194
5450,0.120,0.194
5451,0.116,0.194
5452,0.110,0.142
5453,0.103,0.142
5454,0.098,0.142
5455,0.092,0.142
5456,0.091,0.090
5457,0.090,0.090
5458,0.092,0.090
5459,0.094,0.090
5460,0.093,0.038
5461,0.092,0.038
5462,0.086,0.038
5463,0.080,0.038
5464,0.071,-0.013
5465,0.062,-0.013
5466,0.054,-0.013
5467,0.046,-0.013
5468,0.040,-0.052
5469,0.034,-0.052
5470,0.026,-0.052
5471,0.018,-0.052
5472,0.008,-0.065
5473,-0.003,-0.065
5474,-0.010,-0.065
5475,-0.017,-0.065
5476,-0.016,-0.078
5477,-0.015,-0.078
5478,-0.005,-0.078
5479,0.004,-0.078
5480,0.017,-0.091
5481,0.029,-0.091
5482,0.033,-0.091
5483,0.037,-0.091
5484,0.030,-0.091
5485,0.024,-0.091
5486,0.013,-0.091
5487,0.002,-0.091
5488,-0.003,-0.103
5489,-0.008,-0.103
5490,-0.002,-0.103
5491,0.004,-0.103
5492,0.020,-0.078
5493,0.035,-0.078
5494,0.049,-0.078
5495,0.063,-0.078
5496,0.068,-0.052
5497,0.073,-0.052
5498,0.065,-0.052
5499,0.057,-0.052
5500,0.042,-0.013
5501,0.028,-0.013
5502,0.019,-0.013
5503,0.010,-0.013
5504,0.014,0.025
5505,0.018,0.025
5506,0.033,0.025
5507,0.048,0.025
5508,0.066,0.077
5509,0.085,0.077
5510,0.095,0.077
5511,0.106,0.077
5512,0.106,0.129
5513,0.105,0.129
5514,0.098,0.129
5515,0.091,0.129
5516,0.084,0.207
5517,0.078,0.207
5518,0.079,0.207
5519,0.080,0.207
5520,0.094,0.284
5521,0.108,0.284
5522,0.129,0.284
5523,0.151,0.284
5524,0.169,0.349
5525,0.187,0.349
5526,0.191,0.349
5527,0.194,0.349
5528,0.175,0.440
5529,0.155,0.440
5530,0.107,0.440
5531,0.059,0.440
5532,-0.018,0.530
5533,-0.095,0.530
5534,-0.195,0.530
5535,-0.294,0.530
5536,-0.399,0.595
5537,-0.504,0.595
5538,-0.595,0.595
5539,-0.685,0.595
5540,-0.746,0.659
5541,-0.807,0.659
5542,-0.832,0.659
5543,-0.856,0.659
5544,-0.846,0.737
5545,-0.836,0.737
5546,-0.798,0.737
5547,-0.760,0.737
5548,-0.703,0.841
5549,-0.646,0.841
5550,-0.579,0.841
5551,-0.511,0.841
5552,-0.442,0.957
5553,-0.372,0.957
5554,-0.307,0.957
5555,-0.243,0.957
5556,-0.187,1.024
5557,-0.132,1.024
5558,-0.087,1.024
5559,-0.041,1.024
5560,-0.005,1.024
5561,0.030,1.024
5562,0.055,1.024
5563,0.080,1.024
5564,0.095,1.024
5565,0.111,1.024
5566,0.118,1.024
5567,0.125,1.024
5568,0.128,1.024
5569,0.130,1.024
5570,0.133,1.024
5571,0.136,1.024
5572,0.141,1.024
5573,0.146,1.024
5574,0.152,1.024
5575,0.157,1.024
5576,0.155,1.024
5577,0.153,1.024
5578,0.140,1.024
5579,0.127,1.024
5580,0.107,1.024
5581,0.087,1.024
5582,0.069,1.024
5583,0.050,1.024
5584,0.038,1.024
5585,0.026,1.024
5586,0.022,1.024
5587,0.019,1.024
5588,0.021,1.024
5589,0.022,1.024
5590,0.028,1.024
5591,0.033,1.024
5592,0.041,1.024
5593,0.048,1.024
5594,0.057,1.024
5595,0.065,1.024
5596,0.073,1.024
5597,0.080,1.024
5598,0.085,1.024
5599,0.089,1.024
5600,0.092,1.024
5601,0.095,1.024
5602,0.101,1.024
5603,0.107,1.024
5604,0.120,1.024
5605,0.133,1.024
5606,0.150,1.024
5607,0.168,1.024
5608,0.177,1.024
5609,0.186,1.024
5610,0.181,1.024
5611,0.175,1.024
5612,0.153,1.024
5613,0.132,1.024
5614,0.103,1.024
5615,0.075,1.024
5616,0.051,1.024
5617,0.027,1.024
5618,0.017,1.024
5619,0.008,1.024
5620,0.017,1.024
5621,0.027,1.024
5622,0.050,1.024
5623,0.073,1.024
5624,0.098,1.024
5625,0.123,1.024
5626,0.136,1.024
5627,0.150,1.024
5628,0.146,1.024
5629,0.142,1.024
5630,0.126,1.024
5631,0.110,1.024
5632,0.092,1.024
5633,0.074,1.024
5634,0.065,1.024
5635,0.056,1.024
5636,0.058,1.024
5637,0.060,1.024
5638,0.063,1.024
5639,0.067,1.024
5640,0.064,1.024
5641,0.062,1.024
5642,0.052,1.024
5643,0.042,1.024
5644,0.032,1.024
5645,0.022,1.024
5646,0.020,1.024
5647,0.018,1.024
5648,0.024,1.024
5649,0.029,1.024
5650,0.037,1.024
5651,0.044,1.024
5652,0.046,1.024
5653,0.049,1.024
5654,0.050,1.024
5655,0.050,1.024
5656,0.052,1.024
5657,0.054,1.024
5658,0.057,1.024
5659,0.061,1.024
5660,0.065,1.024
5661,0.070,1.024
5662,0.072,1.024
5663,0.074,1.024
5664,0.073,1.024
5665,0.071,1.024
5666,0.067,1.024
5667,0.063,1.024
5668,0.058,1.024
5669,0.053,1.024
5670,0.044,1.024
5671,0.036,1.024
5672,0.022,1.024
5673,0.008,1.024
5674,-0.013,1.024
5675,-0.034,1.024
5676,-0.059,1.024
5677,-0.084,1.024
5678,-0.104,1.024
5679,-0.125,1.024
5680,-0.132,1.024
5681,-0.139,1.024
5682,-0.127,1.024
5683,-0.115,1.024
5684,-0.091,1.024
5685,-0.067,1.024
5686,-0.047,1.024
5687,-0.028,1.024
5688,-0.027,1.024
5689,-0.027,1.024
5690,-0.046,1.024
5691,-0.065,1.024
5692,-0.087,1.024
5693,-0.108,1.024
5694,-0.113,1.024
5695,-0.119,1.024
5696,-0.104,1.024
5697,-0.090,1.024
5698,-0.067,1.024
5699,-0.044,1.024
5700,-0.029,1.024
5701,-0.013,1.024
5702,-0.012,1.024
5703,-0.010,1.024
5704,-0.015,1.024
5705,-0.021,1.024
5706,-0.021,1.024
5707,-0.021,1.024
5708,-0.015,1.024
5709,-0.009,1.024
5710,-0.004,1.024
5711,0.002,1.024
5712,-0.005,1.024
5713,-0.012,1.024
5714,-0.032,1.024
5715,-0.052,1.024
5716,-0.076,1.024
5717,-0.100,1.024
5718,-0.118,1.024
5719,-0.136,1.024
5720,-0.141,1.024
5721,-0.147,1.024
5722,-0.145,1.024
5723,-0.143,1.024
5724,-0.139,1.024
5725,-0.135,1.024
5726,-0.132,1.024
5727,-0.128,1.024
5728,-0.125,1.024
5729,-0.121,1.024
5730,-0.111,1.024
5731,-0.101,1.024
5732,-0.086,1.024
5733,-0.071,1.024
5734,-0.057,1.024
5735,-0.043,1.024
5736,-0.034,1.024
5737,-0.026,1.024
5738,-0.026,1.024
5739,-0.026,1.024
5740,-0.032,1.024
5741,-0.037,1.024
5742,-0.042,1.024
5743,-0.046,1.024
5744,-0.048,1.024
5745,-0.049,1.024
5746,-0.049,1.024
5747,-0.048,1.024
5748,-0.049,1.024
5749,-0.050,1.024
5750,-0.050,1.024
5751,-0.050,1.024
5752,-0.046,1.024
5753,-0.042,1.024
5754,-0.036,1.024
5755,-0.029,1.024
5756,-0.026,1.024
5757,-0.022,1.024
5758,-0.022,1.024
5759,-0.022,1.024
5760,-0.022,1.024
5761,-0.022,1.024
5762,-0.019,1.024
5763,-0.015,1.024
5764,-0.005,1.024
5765,0.005,1.024
5766,0.020,1.024
5767,0.035,1.024
5768,0.048,1.024
5769,0.061,1.024
5770,0.067,1.024
5771,0.074,1.024
5772,0.077,1.024
5773,0.079,1.024
5774,0.087,1.024
5775,0.095,1.024
5776,0.112,1.024
5777,0.129,1.024
5778,0.152,1.024
5779,0.175,1.024
5780,0.191,1.024
5781,0.208,1.024
5782,0.209,1.024
5783,0.210,1.024
5784,0.192,1.024
5785,0.175,1.024
5786,0.149,1.024
5787,0.122,1.024
5788,0.100,1.024
5789,0.079,1.024
5790,0.066,1.024
5791,0.053,1.024
5792,0.047,1.024
5793,0.042,1.024
5794,0.037,1.024
5795,0.031,1.024
5796,0.024,1.024
5797,0.017,1.024
5798,0.007,1.024
5799,-0.003,1.024
5800,-0.012,1.024
5801,-0.021,1.024
5802,-0.025,1.024
5803,-0.030,1.024
5804,-0.026,1.024
5805,-0.022,1.024
5806,-0.006,1.024
5807,0.011,1.024
5808,0.037,1.024
5809,0.064,1.024
5810,0.092,1.024
5811,0.120,1.024
5812,0.136,1.024
5813,0.153,1.024
5814,0.152,1.024
5815,0.151,1.024
5816,0.139,1.024
5817,0.128,1.024
5818,0.113,1.024
5819,0.099,1.024
5820,0.089,1.024
5821,0.079,1.024
5822,0.073,1.024
5823,0.068,1.024
5824,0.064,1.024
5825,0.061,1.024
5826,0.058,1.024
5827,0.054,1.024
5828,0.055,1.024
5829,0.056,1.024
5830,0.063,1.024
5831,0.070,1.024
5832,0.079,1.009
5833,0.087,1.009
5834,0.092,1.009
5835,0.097,1.009
5836,0.094,0.957
5837,0.091,0.957
5838,0.082,0.957
5839,0.072,0.957
5840,0.062,0.892
5841,0.052,0.892
5842,0.045,0.892
5843,0.038,0.892
5844,0.037,0.802
5845,0.036,0.802
5846,0.035,0.802
5847,0.035,0.802
5848,0.033,0.699
5849,0.032,0.699
5850,0.030,0.699
5851,0.029,0.699
5852,0.028,0.595
5853,0.027,0.595
5854,0.027,0.595
5855,0.027,0.595
5856,0.025,0.504
5857,0.022,0.504
5858,0.019,0.504
5859,0.015,0.504
5860,0.012,0.401
5861,0.010,0.401
5862,0.010,0.401
5863,0.010,0.401
5864,0.014,0.297
5865,0.019,0.297
5866,0.026,0.297
5867,0.033,0.297
5868,0.042,0.168
5869,0.051,0.168
5870,0.058,0.168
5871,0.065,0.168
5872,0.072,0.090
5873,0.079,0.090
5874,0.087,0.090
5875,0.095,0.090
5876,0.103,-0.013
5877,0.112,-0.013
5878,0.117,-0.013
5879,0.121,-0.013
5880,0.121,-0.091
5881,0.120,-0.091
5882,0.117,-0.091
5883,0.114,-0.091
5884,0.110,-0.169
5885,0.106,-0.169
5886,0.103,-0.169
5887,0.100,-0.169
5888,0.096,-0.233
5889,0.093,-0.233
5890,0.086,-0.233
5891,0.079,-0.233
5892,0.069,-0.285
5893,0.059,-0.285
5894,0.055,-0.285
5895,0.052,-0.285
5896,0.061,-0.239
5897,0.070,-0.239
5898,0.088,-0.239
5899,0.106,-0.239
5900,0.122,-0.239
5901,0.137,-0.239
5902,0.138,-0.239
5903,0.138,-0.239
5904,0.120,-0.249
5905,0.101,-0.249
5906,0.072,-0.249
5907,0.044,-0.249
5908,0.018,-0.239
5909,-0.008,-0.239
5910,-0.022,-0.239
5911,-0.036,-0.239
5912,-0.037,-0.220
5913,-0.037,-0.220
5914,-0.033,-0.220
5915,-0.029,-0.220
5916,-0.027,-0.210
5917,-0.026,-0.210
5918,-0.031,-0.210
5919,-0.036,-0.210
5920,-0.047,-0.182
5921,-0.059,-0.182
5922,-0.074,-0.182
5923,-0.088,-0.182
5924,-0.100,-0.143
5925,-0.112,-0.143
5926,-0.114,-0.143
5927,-0.117,-0.143
5928,-0.106,-0.115
5929,-0.095,-0.115
5930,-0.069,-0.115
5931,-0.043,-0.115
5932,-0.004,-0.086
5933,0.035,-0.086
5934,0.074,-0.086
5935,0.112,-0.086
5936,0.132,-0.067
5937,0.151,-0.067
5938,0.140,-0.067
5939,0.129,-0.067
5940,0.094,-0.029
5941,0.059,-0.029
5942,0.020,-0.029
5943,-0.020,-0.029
5944,-0.043,-0.010
5945,-0.066,-0.010
5946,-0.065,-0.010
5947,-0.064,-0.010
5948,-0.043,0.000
5949,-0.022,0.000
5950,0.005,0.000
5951,0.033,0.000
5952,0.057,0.009
5953,0.081,0.009
5954,0.101,0.009
5955,0.120,0.009
5956,0.139,0.019
5957,0.157,0.019
5958,0.171,0.019
5959,0.185,0.019
5960,0.186,0.000
5961,0.188,0.000
5962,0.172,0.000
5963,0.156,0.000
5964,0.116,-0.029
5965,0.076,-0.029
5966,0.007,-0.029
5967,-0.062,-0.029
5968,-0.157,-0.048
5969,-0.252,-0.048
5970,-0.357,-0.048
5971,-0.461,-0.048
5972,-0.555,-0.076
5973,-0.649,-0.076
5974,-0.714,-0.076
5975,-0.780,-0.076
5976,-0.810,-0.105
5977,-0.840,-0.105
5978,-0.837,-0.105
5979,-0.833,-0.105
5980,-0.804,-0.143
5981,-0.775,-0.143
5982,-0.727,-0.143
5983,-0.678,-0.143
5984,-0.614,-0.172
5985,-0.550,-0.172
5986,-0.476,-0.172
5987,-0.403,-0.172
5988,-0.332,-0.210
5989,-0.261,-0.210
5990,-0.203,-0.210
5991,-0.145,-0.210
5992,-0.100,-0.268
5993,-0.055,-0.268
5994,-0.024,-0.268
5995,0.008,-0.268
5996,0.026,-0.335
5997,0.044,-0.335
5998,0.046,-0.335
5999,0.048,-0.335
6000,0.035,-0.402
6001,0.022,-0.402
6002,0.002,-0.402
6003,-0.019,-0.402
6004,-0.033,-0.488
6005,-0.048,-0.488
6006,-0.044,-0.488
6007,-0.040,-0.488
6008,-0.019,-0.584
6009,0.003,-0.584
6010,0.029,-0.584
6011,0.056,-0.584
6012,0.070,-0.679
6013,0.084,-0.679
6014,0.076,-0.679
6015,0.069,-0.679
6016,0.046,-0.784
6017,0.024,-0.784
6018,0.004,-0.784
6019,-0.015,-0.784
6020,-0.017,-0.899
6021,-0.020,-0.899
6022,-0.002,-0.899
6023,0.015,-0.899
6024,0.044,-1.004
6025,0.073,-1.004
6026,0.105,-1.004
6027,0.136,-1.004
6028,0.162,-
6029,0.188,-
6030,0.201,-
6031,0.214,-
6032,0.211,-
6033,0.207,-
6034,0.190,-
6035,0.173,-
6036,0.151,-
6037,0.129,-
6038,0.112,-
6039,0.095,-
6040,0.087,-
6041,0.079,-
6042,0.075,-
6043,0.071,-
6044,0.065,-
6045,0.058,-
6046,0.046,-
6047,0.035,-
6048,0.024,-
6049,0.013,-
6050,0.011,-
6051,0.008,-
6052,0.014,-
6053,0.020,-
6054,0.031,-
6055,0.042,-
6056,0.052,-
6057,0.062,-
6058,0.065,-
6059,0.068,-
6060,0.063,-
6061,0.058,-
6062,0.052,-
6063,0.046,-
6064,0.043,-
6065,0.040,-
6066,0.044,-
6067,0.048,-
6068,0.058,-
6069,0.069,-
6070,0.085,-
6071,0.101,-
6072,0.118,-
6073,0.136,-
6074,0.147,-
6075,0.158,-
6076,0.159,-
6077,0.160,-
6078,0.149,-
6079,0.137,-
6080,0.119,-
6081,0.101,-
6082,0.083,-
6083,0.066,-
6084,0.052,-
6085,0.038,-
6086,0.028,-
6087,0.018,-
6088,0.008,-
6089,-0.002,-
6090,-0.010,-
6091,-0.019,-
6092,-0.024,-
6093,-0.029,-
6094,-0.029,-
6095,-0.029,-
6096,-0.025,-
6097,-0.021,-
6098,-0.014,-
6099,-0.008,-
6100,-0.003,-
6101,0.002,-
6102,0.006,-
6103,0.010,-
6104,0.012,-
6105,0.013,-
6106,0.014,-
6107,0.014,-
6108,0.016,-
6109,0.017,-
6110,0.021,-
6111,0.024,-
6112,0.027,-
6113,0.029,-
6114,0.031,-
6115,0.032,-
6116,0.030,-
6117,0.028,-
6118,0.024,-
6119,0.020,-
6120,0.012,-
6121,0.004,-
6122,-0.006,-
6123,-0.016,-
6124,-0.027,-
6125,-0.037,-
6126,-0.045,-
6127,-0.054,-
6128,-0.058,-
6129,-0.062,-
6130,-0.061,-
6131,-0.061,-
6132,-0.058,-
6133,-0.056,-
6134,-0.054,-
6135,-0.052,-
6136,-0.053,-1.024
6137,-0.054,-1.024
6138,-0.058,-1.024
6139,-0.062,-1.024
6140,-0.068,-0.908
6141,-0.075,-0.908
6142,-0.080,-0.908
6143,-0.086,-0.908
6144,-0.083,-0.832
6145,-0.080,-0.832
6146,-0.072,-0.832
6147,-0.063,-0.832
6148,-0.059,-0.737
6149,-0.055,-0.737
6150,-0.065,-0.737
6151,-0.074,-0.737
6152,-0.095,-0.832
6153,-0.116,-0.832
6154,-0.136,-0.832
6155,-0.156,-0.832
6156,-0.162,-0.765
6157,-0.169,-0.765
6158,-0.161,-0.765
6159,-0.153,-0.765
6160,-0.139,-0.708
6161,-0.125,-0.708
6162,-0.114,-0.708
6163,-0.103,-0.708
6164,-0.096,-0.650
6165,-0.088,-0.650
6166,-0.080,-0.650
6167,-0.071,-0.650
6168,-0.062,-0.612
6169,-0.054,-0.612
6170,-0.048,-0.612
6171,-0.042,-0.612
6172,-0.043,-0.565
6173,-0.044,-0.565
6174,-0.049,-0.565
6175,-0.054,-0.565
6176,-0.058,-0.554
6177,-0.062,-0.554
6178,-0.064,-0.554
6179,-0.065,-0.554
6180,-0.063,-0.526
6181,-0.061,-0.526
6182,-0.055,-0.526
6183,-0.050,-0.526
6184,-0.043,-0.516
6185,-0.036,-0.516
6186,-0.027,-0.516
6187,-0.018,-0.516
6188,-0.007,-0.507
6189,0.004,-0.507
6190,0.017,-0.507
6191,0.030,-0.507
6192,0.046,-0.497
6193,0.062,-0.497
6194,0.079,-0.497
6195,0.096,-0.497
6196,0.117,-0.507
6197,0.137,-0.507
6198,0.174,-0.507
6199,0.210,-0.507
6200,0.269,-0.507
6201,0.328,-0.507
6202,0.397,-0.507
6203,0.467,-0.507
6204,0.510,-0.488
6205,0.554,-0.488
6206,0.543,-0.488
6207,0.533,-0.488
6208,0.464,-0.497
6209,0.395,-0.497
6210,0.296,-0.497
6211,0.196,-0.497
6212,0.108,-0.497
6213,0.021,-0.497
6214,-0.028,-0.497
6215,-0.076,-0.497
6216,-0.088,-0.497
6217,-0.101,-0.497
6218,-0.095,-0.497
6219,-0.088,-0.497
6220,-0.071,-0.478
6221,-0.054,-0.478
6222,-0.029,-0.478
6223,-0.003,-0.478
6224,0.028,-0.469
6225,0.058,-0.469
6226,0.081,-0.469
6227,0.104,-0.469
6228,0.107,-0.459
6229,0.110,-0.459
6230,0.087,-0.459
6231,0.064,-0.459
6232,0.026,-0.421
6233,-0.012,-0.421
6234,-0.048,-0.421
6235,-0.084,-0.421
6236,-0.102,-0.402
6237,-0.120,-0.402
6238,-0.119,-0.402
6239,-0.117,-0.402
6240,-0.104,-0.373
6241,-0.091,-0.373
6242,-0.075,-0.373
6243,-0.060,-0.373
6244,-0.046,-0.363
6245,-0.032,-0.363
6246,-0.017,-0.363
6247,-0.003,-0.363
6248,0.013,-0.335
6249,0.029,-0.335
6250,0.044,-0.335
6251,0.059,-0.335
6252,0.070,-0.325
6253,0.081,-0.325
6254,0.092,-0.325
6255,0.103,-0.325
6256,0.119,-0.325
6257,0.135,-0.325
6258,0.156,-0.325
6259,0.178,-0.325
6260,0.202,-0.316
6261,0.227,-0.316
6262,0.248,-0.316
6263,0.269,-0.316
6264,0.280,-0.316
6265,0.290,-0.316
6266,0.282,-0.316
6267,0.275,-0.316
6268,0.247,-0.306
6269,0.219,-0.306
6270,0.174,-0.306
6271,0.130,-0.306
6272,0.079,-0.296
6273,0.029,-0.296
6274,-0.014,-0.296
6275,-0.057,-0.296
6276,-0.081,-0.287
6277,-0.104,-0.287
6278,-0.107,-0.287
6279,-0.109,-0.287
6280,-0.095,-0.278
6281,-0.082,-0.278
6282,-0.057,-0.278
6283,-0.032,-0.278
6284,0.001,-0.259
6285,0.034,-0.259
6286,0.070,-0.259
6287,0.107,-0.259
6288,0.140,-0.239
6289,0.172,-0.239
6290,0.192,-0.239
6291,0.212,-0.239
6292,0.213,-0.210
6293,0.214,-0.210
6294,0.197,-0.210
6295,0.180,-0.210
6296,0.157,-0.192
6297,0.134,-0.192
6298,0.118,-0.192
6299,0.103,-0.192
6300,0.100,-0.192
6301,0.097,-0.192
6302,0.100,-0.192
6303,0.103,-0.192
6304,0.096,-0.210
6305,0.090,-0.210
6306,0.071,-0.210
6307,0.053,-0.210
6308,0.031,-0.248
6309,0.009,-0.248
6310,-0.002,-0.248
6311,-0.012,-0.248
6312,-0.004,-0.335
6313,0.004,-0.335
6314,0.030,-0.335
6315,0.055,-0.335
6316,0.088,-0.392
6317,0.120,-0.392
6318,0.145,-0.392
6319,0.170,-0.392
6320,0.176,-0.430
6321,0.182,-0.430
6322,0.163,-0.430
6323,0.144,-0.430
6324,0.105,-0.430
6325,0.067,-0.430
6326,0.026,-0.430
6327,-0.014,-0.430
6328,-0.037,-0.421
6329,-0.061,-0.421
6330,-0.057,-0.421
6331,-0.054,-0.421
6332,-0.029,-0.354
6333,-0.004,-0.354
6334,0.028,-0.354
6335,0.060,-0.354
6336,0.089,-0.259
6337,0.119,-0.259
6338,0.135,-0.259
6339,0.151,-0.259
6340,0.144,-0.124
6341,0.137,-0.124
6342,0.107,-0.124
6343,0.078,-0.124
6344,0.032,0.029
6345,-0.013,0.029
6346,-0.058,0.029
6347,-0.102,0.029
6348,-0.128,0.191
6349,-0.153,0.191
6350,-0.154,0.191
6351,-0.154,0.191
6352,-0.134,0.325
6353,-0.113,0.325
6354,-0.083,0.325
6355,-0.053,0.325
6356,-0.023,0.430
6357,0.007,0.430
6358,0.031,0.430
6359,0.054,0.430
6360,0.071,0.497
6361,0.087,0.497
6362,0.098,0.497
6363,0.108,0.497
6364,0.116,0.564
6365,0.123,0.564
6366,0.125,0.564
6367,0.127,0.564
6368,0.122,0.583
6369,0.118,0.583
6370,0.112,0.583
6371,0.107,0.583
6372,0.110,0.612
6373,0.112,0.612
6374,0.129,0.612
6375,0.145,0.612
6376,0.172,0.650
6377,0.199,0.650
6378,0.223,0.650
6379,0.248,0.650
6380,0.256,0.679
6381,0.264,0.679
6382,0.255,0.679
6383,0.245,0.679
6384,0.235,0.717
6385,0.225,0.717
6386,0.230,0.717
6387,0.236,0.717
6388,0.257,0.755
6389,0.279,0.755
6390,0.294,0.755
6391,0.310,0.755
6392,0.288,0.793
6393,0.266,0.793
6394,0.195,0.793
6395,0.125,0.793
6396,0.018,0.842
6397,-0.088,0.842
6398,-0.206,0.842
6399,-0.324,0.842
6400,-0.432,0.870
6401,-0.540,0.870
6402,-0.628,0.870
6403,-0.715,0.870
6404,-0.780,0.889
6405,-0.844,0.889
6406,-0.880,0.889
6407,-,0.889
6408,-,0.918
6409,-,0.918
6410,-0.895,0.918
6411,-0.865,0.918
6412,-0.812,0.937
6413,-0.758,0.937
6414,-0.694,0.937
6415,-0.629,0.937
6416,-0.564,0.956
6417,-0.500,0.956
6418,-0.440,0.956
6419,-0.381,0.956
6420,-0.326,0.966
6421,-0.272,0.966
6422,-0.222,0.966
6423,-0.171,0.966
6424,-0.127,0.985
6425,-0.082,0.985
6426,-0.050,0.985
6427,-0.017,0.985
6428,0.000,0.985
6429,0.018,0.985
6430,0.027,0.985
6431,0.036,0.985
6432,0.048,0.985
6433,0.061,0.985
6434,0.085,0.985
6435,0.109,0.985
6436,0.139,0.956
6437,0.169,0.956
6438,0.191,0.956
6439,0.213,0.956
6440,0.219,0.918
6441,0.226,0.918
6442,0.223,0.918
6443,0.220,0.918
6444,0.222,0.851
6445,0.223,0.851
6446,0.233,0.851
6447,0.243,0.851
6448,0.251,0.793
6449,0.259,0.793
6450,0.253,0.793
6451,0.247,0.793
6452,0.220,0.708
6453,0.194,0.708
6454,0.156,0.708
6455,0.118,0.708
6456,0.087,0.622
6457,0.055,0.622
6458,0.041,0.622
6459,0.028,0.622
6460,0.029,0.545
6461,0.031,0.545
6462,0.040,0.545
6463,0.048,0.545
6464,0.055,0.469
6465,0.062,0.469
6466,0.064,0.469
6467,0.065,0.469
6468,0.061,0.392
6469,0.056,0.392
6470,0.051,0.392
6471,0.045,0.392
6472,0.045,0.353
6473,0.044,0.353
6474,0.051,0.353
6475,0.058,0.353
6476,0.072,0.306
6477,0.087,0.306
6478,0.104,0.306
6479,0.121,0.306
6480,0.136,0.268
6481,0.151,0.268
6482,0.155,0.268
6483,0.159,0.268
6484,0.150,0.258
6485,0.141,0.258
6486,0.130,0.258
6487,0.119,0.258
6488,0.118,0.239
6489,0.118,0.239
6490,0.132,0.239
6491,0.147,0.239
6492,0.167,0.248
6493,0.186,0.248
6494,0.193,0.248
6495,0.200,0.248
6496,0.186,0.248
6497,0.171,0.248
6498,0.140,0.248
6499,0.110,0.248
6500,0.077,0.258
6501,0.045,0.258
6502,0.026,0.258
6503,0.008,0.258
6504,0.011,0.268
6505,0.013,0.268
6506,0.035,0.268
6507,0.056,0.268
6508,0.086,0.287
6509,0.116,0.287
6510,0.141,0.287
6511,0.166,0.287
6512,0.174,0.306
6513,0.182,0.306
6514,0.169,0.306
6515,0.157,0.306
6516,0.133,0.325
6517,0.109,0.325
6518,0.086,0.325
6519,0.062,0.325
6520,0.049,0.344
6521,0.035,0.344
6522,0.030,0.344
6523,0.025,0.344
6524,0.024,0.363
6525,0.022,0.363
6526,0.025,0.363
6527,0.028,0.363
6528,0.037,0.373
6529,0.046,0.373
6530,0.063,0.373
6531,0.079,0.373
6532,0.098,0.392
6533,0.117,0.392
6534,0.132,0.392
6535,0.147,0.392
6536,0.153,0.402
6537,0.160,0.402
6538,0.153,0.402
6539,0.146,0.402
6540,0.127,0.420
6541,0.108,0.420
6542,0.080,0.420
6543,0.053,0.420
6544,0.024,0.420
6545,-0.004,0.420
6546,-0.023,0.420
6547,-0.041,0.420
6548,-0.043,0.430
6549,-0.045,0.430
6550,-0.037,0.430
6551,-0.028,0.430
6552,-0.020,0.430
6553,-0.012,0.430
6554,-0.015,0.430
6555,-0.017,0.430
6556,-0.025,0.440
6557,-0.034,0.440
6558,-0.044,0.440
6559,-0.054,0.440
6560,-0.061,0.440
6561,-0.069,0.440
6562,-0.075,0.440
6563,-0.082,0.440
6564,-0.088,0.440
6565,-0.094,0.440
6566,-0.099,0.440
6567,-0.104,0.440
6568,-0.109,0.450
6569,-0.114,0.450
6570,-0.117,0.450
6571,-0.120,0.450
6572,-0.119,0.450
6573,-0.119,0.450
6574,-0.114,0.450
6575,-0.109,0.450
6576,-0.095,0.450
6577,-0.082,0.450
6578,-0.065,0.450
6579,-0.047,0.450
6580,-0.035,0.440
6581,-0.022,0.440
6582,-0.023,0.440
6583,-0.023,0.440
6584,-0.035,0.440
6585,-0.046,0.440
6586,-0.061,0.440
6587,-0.075,0.440
6588,-0.080,0.411
6589,-0.086,0.411
6590,-0.079,0.411
6591,-0.071,0.411
6592,-0.056,0.392
6593,-0.040,0.392
6594,-0.026,0.392
6595,-0.012,0.392
6596,-0.008,0.373
6597,-0.004,0.373
6598,-0.011,0.373
6599,-0.018,0.373
6600,-0.027,0.335
6601,-0.036,0.335
6602,-0.038,0.335
6603,-0.040,0.335
6604,-0.030,0.296
6605,-0.020,0.296
6606,-0.001,0.296
6607,0.018,0.296
6608,0.034,0.258
6609,0.051,0.258
6610,0.054,0.258
6611,0.058,0.258
6612,0.048,0.220
6613,0.037,0.220
6614,0.021,0.220
6615,0.005,0.220
6616,-0.006,0.181
6617,-0.018,0.181
6618,-0.019,0.181
6619,-0.021,0.181
6620,-0.014,0.153
6621,-0.008,0.153
6622,-0.003,0.153
6623,0.002,0.153
6624,0.001,0.115
6625,0.001,0.115
6626,-0.005,0.115
6627,-0.012,0.115
6628,-0.020,0.086
6629,-0.029,0.086
6630,-0.037,0.086
6631,-0.045,0.086
6632,-0.052,0.067
6633,-0.059,0.067
6634,-0.060,0.067
6635,-0.061,0.067
6636,-0.052,0.038
6637,-0.044,0.038
6638,-0.029,0.038
6639,-0.013,0.038
6640,0.004,0.009
6641,0.021,0.009
6642,0.033,0.009
6643,0.045,0.009
6644,0.052,-0.019
6645,0.058,-0.019
6646,0.061,-0.019
6647,0.064,-0.019
6648,0.067,-0.067
6649,0.070,-0.067
6650,0.075,-0.067
6651,0.080,-0.067
6652,0.086,-0.105
6653,0.092,-0.105
6654,0.100,-0.105
6655,0.109,-0.105
6656,0.120,-0.143
6657,0.132,-0.143
6658,0.144,-0.143
6659,0.156,-0.143
6660,0.165,-0.192
6661,0.173,-0.192
6662,0.177,-0.192
6663,0.181,-0.192
6664,0.182,-0.259
6665,0.184,-0.259
6666,0.185,-0.259
6667,0.186,-0.259
6668,0.183,-0.325
6669,0.181,-0.325
6670,0.171,-0.325
6671,0.161,-0.325
6672,0.138,-0.392
6673,0.115,-0.392
6674,0.085,-0.392
6675,0.054,-0.392
6676,0.027,-0.450
6677,-0.001,-0.450
6678,-0.017,-0.450
6679,-0.033,-0.450
6680,-0.039,-0.516
6681,-0.045,-0.516
6682,-0.047,-0.516
6683,-0.050,-0.516
6684,-0.054,-0.584
6685,-0.057,-0.584
6686,-0.061,-0.584
6687,-0.065,-0.584
6688,-0.065,-0.641
6689,-0.064,-0.641
6690,-0.055,-0.641
6691,-0.045,-0.641
6692,-0.032,-0.708
6693,-0.018,-0.708
6694,-0.006,-0.708
6695,0.005,-0.708
6696,0.012,-0.755
6697,0.018,-0.755
6698,0.019,-0.755
6699,0.021,-0.755
6700,0.020,-0.803
6701,0.020,-0.803
6702,0.020,-0.803
6703,0.020,-0.803
6704,0.021,-0.871
6705,0.022,-0.871
6706,0.026,-0.871
6707,0.030,-0.871
6708,0.036,-0.927
6709,0.042,-0.927
6710,0.047,-0.927
6711,0.052,-0.927
6712,0.053,-0.995
6713,0.054,-0.995
6714,0.050,-0.995
6715,0.046,-0.995
6716,0.040,-
6717,0.033,-
6718,0.027,-
6719,0.021,-
6720,0.019,-
6721,0.016,-
6722,0.018,-
6723,0.021,-
6724,0.027,-
6725,0.033,-
6726,0.041,-
6727,0.050,-
6728,0.054,-
6729,0.059,-
6730,0.058,-
6731,0.057,-
6732,0.052,-
6733,0.046,-
6734,0.039,-
6735,0.032,-
6736,0.025,-
6737,0.018,-
6738,0.012,-
6739,0.006,-
6740,0.002,-
6741,-0.003,-
6742,-0.005,-
6743,-0.007,-
6744,-0.005,-
6745,-0.003,-
6746,0.006,-
6747,0.015,-
6748,0.026,-
6749,0.037,-
6750,0.044,-
6751,0.052,-
6752,0.055,-
6753,0.058,-
6754,0.057,-
6755,0.055,-
6756,0.051,-
6757,0.046,-
6758,0.041,-
6759,0.035,-
6760,0.026,-
6761,0.017,-
6762,0.004,-
6763,-0.008,-
6764,-0.021,-
6765,-0.034,-
6766,-0.042,-
6767,-0.051,-
6768,-0.053,-
6769,-0.054,-
6770,-0.048,-
6771,-0.042,-
6772,-0.030,-
6773,-0.019,-
6774,-0.005,-
6775,0.008,-
6776,0.021,-
6777,0.034,-
6778,0.043,-
6779,0.052,-
6780,0.057,-
6781,0.062,-
6782,0.061,-
6783,0.060,-
6784,0.053,-
6785,0.045,-
6786,0.036,-
6787,0.026,-
6788,0.019,-
6789,0.012,-
6790,0.010,-
6791,0.008,-
6792,0.014,-
6793,0.020,-
6794,0.031,-
6795,0.042,-
6796,0.054,-
6797,0.066,-
6798,0.074,-
6799,0.082,-
6800,0.083,-
6801,0.084,-
6802,0.078,-
6803,0.071,-
6804,0.062,-
6805,0.054,-
6806,0.047,-
6807,0.040,-
6808,0.038,-
6809,0.036,-
6810,0.038,-
6811,0.040,-
6812,0.047,-
6813,0.054,-
6814,0.062,-
6815,0.070,-
6816,0.080,-
6817,0.089,-
6818,0.098,-
6819,0.107,-
6820,0.112,-
6821,0.118,-
6822,0.116,-
6823,0.113,-
6824,0.100,-
6825,0.087,-
6826,0.058,-
6827,0.029,-
6828,-0.023,-
6829,-0.076,-
6830,-0.155,-
6831,-0.234,-
6832,-0.330,-
6833,-0.426,-
6834,-0.519,-
6835,-0.613,-
6836,-0.683,-
6837,-0.753,-
6838,-0.786,-
6839,-0.820,-
6840,-0.817,-
6841,-0.814,-
6842,-0.783,-
6843,-0.752,-
6844,-0.703,-
6845,-0.655,-
6846,-0.597,-
6847,-0.540,-
6848,-0.479,-
6849,-0.419,-
6850,-0.362,-
6851,-0.305,-
6852,-0.254,-
6853,-0.203,-
6854,-0.159,-
6855,-0.115,-
6856,-0.079,-
6857,-0.043,-
6858,-0.018,-
6859,0.007,-
6860,0.018,-
6861,0.029,-
6862,0.027,-
6863,0.026,-
6864,0.020,-
6865,0.014,-
6866,0.012,-
6867,0.011,-
6868,0.016,-
6869,0.021,-
6870,0.027,-
6871,0.033,-
6872,0.037,-
6873,0.040,-
6874,0.040,-
6875,0.040,-
6876,0.040,-
6877,0.040,-
6878,0.042,-
6879,0.045,-
6880,0.047,-
6881,0.050,-
6882,0.051,-
6883,0.053,-
6884,0.054,-
6885,0.055,-
6886,0.054,-
6887,0.054,-
6888,0.050,-
6889,0.047,-
6890,0.041,-
6891,0.035,-
6892,0.026,-
6893,0.017,-
6894,0.008,-
6895,0.000,-
6896,-0.005,-
6897,-0.011,-
6898,-0.012,-
6899,-0.014,-
6900,-0.012,-
6901,-0.010,-
6902,-0.002,-
6903,0.005,-
6904,0.021,-
6905,0.036,-
6906,0.058,-
6907,0.080,-
6908,0.103,-
6909,0.127,-
6910,0.141,-
6911,0.155,-
6912,0.155,-
6913,0.155,-
6914,0.141,-
6915,0.128,-
6916,0.106,-
6917,0.085,-
6918,0.062,-
6919,0.038,-
6920,0.017,-0.995
6921,-0.005,-0.995
6922,-0.024,-0.995
6923,-0.043,-0.995
6924,-0.057,-0.966
6925,-0.071,-0.966
6926,-0.078,-0.966
6927,-0.085,-0.966
6928,-0.083,-0.938
6929,-0.080,-0.938
6930,-0.070,-0.938
6931,-0.061,-0.938
