,ECG,PPG
0,0.089,0.249
1,0.115,0.249
2,0.159,0.249
3,0.202,0.249
4,0.262,0.197
5,0.321,0.197
6,0.387,0.197
7,0.453,0.197
8,0.506,0.144
9,0.559,0.144
10,0.581,0.144
11,0.602,0.144
12,0.584,0.093
13,0.566,0.093
14,0.515,0.093
15,0.464,0.093
16,0.397,0.047
17,0.329,0.047
18,0.264,0.047
19,0.199,0.047
20,0.149,0.003
21,0.099,0.003
22,0.068,0.003
23,0.037,0.003
24,0.022,-0.036
25,0.008,-0.036
26,0.007,-0.036
27,0.006,-0.036
28,0.013,-0.076
29,0.020,-0.076
30,0.028,-0.076
31,0.035,-0.076
32,0.041,-0.108
33,0.046,-0.108
34,0.049,-0.108
35,0.052,-0.108
36,0.054,-0.140
37,0.056,-0.140
38,0.058,-0.140
39,0.059,-0.140
40,0.061,-0.170
41,0.063,-0.170
42,0.064,-0.170
43,0.065,-0.170
44,0.066,-0.195
45,0.066,-0.195
46,0.066,-0.195
47,0.065,-0.195
48,0.065,-0.221
49,0.065,-0.221
50,0.065,-0.221
51,0.065,-0.221
52,0.066,-0.242
53,0.067,-0.242
54,0.070,-0.242
55,0.072,-0.242
56,0.074,-0.265
57,0.077,-0.265
58,0.077,-0.265
59,0.078,-0.265
60,0.076,-0.285
61,0.074,-0.285
62,0.071,-0.285
63,0.068,-0.285
64,0.064,-0.305
65,0.059,-0.305
66,0.054,-0.305
67,0.050,-0.305
68,0.046,-0.326
69,0.043,-0.326
70,0.041,-0.326
71,0.039,-0.326
72,0.039,-0.344
73,0.039,-0.344
74,0.040,-0.344
75,0.041,-0.344
76,0.043,-0.361
77,0.044,-0.361
78,0.045,-0.361
79,0.047,-0.361
80,0.047,-0.380
81,0.047,-0.380
82,0.045,-0.380
83,0.043,-0.380
84,0.042,-0.396
85,0.040,-0.396
86,0.038,-0.396
87,0.037,-0.396
88,0.036,-0.414
89,0.035,-0.414
90,0.035,-0.414
91,0.034,-0.414
92,0.034,-0.427
93,0.033,-0.427
94,0.032,-0.427
95,0.031,-0.427
96,0.029,-0.443
97,0.028,-0.443
98,0.026,-0.443
99,0.024,-0.443
100,0.021,-0.451
101,0.018,-0.451
102,0.015,-0.451
103,0.012,-0.451
104,0.009,-0.462
105,0.006,-0.462
106,0.004,-0.462
107,0.001,-0.462
108,-0.002,-0.463
109,-0.005,-0.463
110,-0.009,-0.463
111,-0.013,-0.463
112,-0.016,-0.460
113,-0.019,-0.460
114,-0.021,-0.460
115,-0.023,-0.460
116,-0.024,-0.451
117,-0.025,-0.451
118,-0.025,-0.451
119,-0.024,-0.451
120,-0.022,-0.432
121,-0.021,-0.432
122,-0.020,-0.432
123,-0.019,-0.432
124,-0.018,-0.406
125,-0.017,-0.406
126,-0.017,-0.406
127,-0.016,-0.406
128,-0.016,-0.364
129,-0.016,-0.364
130,-0.017,-0.364
131,-0.017,-0.364
132,-0.017,-0.316
133,-0.016,-0.316
134,-0.015,-0.316
135,-0.014,-0.316
136,-0.011,-0.256
137,-0.009,-0.256
138,-0.006,-0.256
139,-0.003,-0.256
140,0.001,-0.189
141,0.005,-0.189
142,0.008,-0.189
143,0.011,-0.189
144,0.013,-0.117
145,0.015,-0.117
146,0.018,-0.117
147,0.020,-0.117
148,0.023,-0.039
149,0.026,-0.039
150,0.028,-0.039
151,0.030,-0.039
152,0.032,0.034
153,0.034,0.034
154,0.037,0.034
155,0.040,0.034
156,0.043,0.108
157,0.045,0.108
158,0.046,0.108
159,0.048,0.108
160,0.048,0.178
161,0.047,0.178
162,0.047,0.178
163,0.047,0.178
164,0.048,0.237
165,0.048,0.237
166,0.050,0.237
167,0.051,0.237
168,0.053,0.293
169,0.055,0.293
170,0.056,0.293
171,0.056,0.293
172,0.058,0.339
173,0.059,0.339
174,0.060,0.339
175,0.062,0.339
176,0.062,0.372
177,0.062,0.372
178,0.061,0.372
179,0.061,0.372
180,0.059,0.400
181,0.058,0.400
182,0.056,0.400
183,0.054,0.400
184,0.052,0.417
185,0.050,0.417
186,0.049,0.417
187,0.048,0.417
188,0.049,0.427
189,0.049,0.427
190,0.050,0.427
191,0.050,0.427
192,0.050,0.373
193,0.049,0.373
194,0.049,0.373
195,0.049,0.373
196,0.050,0.364
197,0.050,0.364
198,0.051,0.364
199,0.052,0.364
200,0.053,0.347
201,0.055,0.347
202,0.056,0.347
203,0.057,0.347
204,0.056,0.322
205,0.055,0.322
206,0.053,0.322
207,0.051,0.322
208,0.050,0.293
209,0.049,0.293
210,0.049,0.293
211,0.048,0.293
212,0.047,0.254
213,0.046,0.254
214,0.045,0.254
215,0.044,0.254
216,0.043,0.213
217,0.043,0.213
218,0.043,0.213
219,0.043,0.213
220,0.042,0.168
221,0.041,0.168
222,0.040,0.168
223,0.039,0.168
224,0.038,0.118
225,0.037,0.118
226,0.038,0.118
227,0.039,0.118
228,0.040,0.070
229,0.041,0.070
230,0.042,0.070
231,0.042,0.070
232,0.040,0.018
233,0.038,0.018
234,0.034,0.018
235,0.029,0.018
236,0.029,-0.034
237,0.029,-0.034
238,0.038,-0.034
239,0.047,-0.034
240,0.070,-0.085
241,0.092,-0.085
242,0.132,-0.085
243,0.171,-0.085
244,0.228,-0.133
245,0.284,-0.133
246,0.351,-0.133
247,0.419,-0.133
248,0.482,-0.180
249,0.546,-0.180
250,0.586,-0.180
251,0.625,-0.180
252,0.627,-0.223
253,0.629,-0.223
254,0.592,-0.223
255,0.554,-0.223
256,0.489,-0.265
257,0.425,-0.265
258,0.352,-0.265
259,0.279,-0.265
260,0.213,-0.303
261,0.148,-0.303
262,0.101,-0.303
263,0.054,-0.303
264,0.026,-0.336
265,-0.001,-0.336
266,-0.011,-0.336
267,-0.022,-0.336
268,-0.020,-0.368
269,-0.018,-0.368
270,-0.012,-0.368
271,-0.006,-0.368
272,-0.001,-0.397
273,0.005,-0.397
274,0.009,-0.397
275,0.012,-0.397
276,0.013,-0.422
277,0.014,-0.422
278,0.015,-0.422
279,0.015,-0.422
280,0.015,-0.445
281,0.014,-0.445
282,0.013,-0.445
283,0.013,-0.445
284,0.012,-0.465
285,0.011,-0.465
286,0.010,-0.465
287,0.009,-0.465
288,0.009,-0.485
289,0.008,-0.485
290,0.006,-0.485
291,0.005,-0.485
292,0.004,-0.503
293,0.004,-0.503
294,0.004,-0.503
295,0.003,-0.503
296,0.003,-0.522
297,0.002,-0.522
298,0.001,-0.522
299,0.000,-0.522
300,-0.001,-0.539
301,-0.002,-0.539
302,-0.003,-0.539
303,-0.003,-0.539
304,-0.004,-0.553
305,-0.005,-0.553
306,-0.006,-0.553
307,-0.007,-0.553
308,-0.008,-0.568
309,-0.009,-0.568
310,-0.010,-0.568
311,-0.011,-0.568
312,-0.011,-0.582
313,-0.011,-0.582
314,-0.011,-0.582
315,-0.011,-0.582
316,-0.011,-0.597
317,-0.011,-0.597
318,-0.011,-0.597
319,-0.011,-0.597
320,-0.011,-0.609
321,-0.010,-0.609
322,-0.009,-0.609
323,-0.009,-0.609
324,-0.010,-0.623
325,-0.011,-0.623
326,-0.013,-0.623
327,-0.015,-0.623
328,-0.018,-0.632
329,-0.020,-0.632
330,-0.021,-0.632
331,-0.023,-0.632
332,-0.022,-0.641
333,-0.022,-0.641
334,-0.022,-0.641
335,-0.022,-0.641
336,-0.022,-0.648
337,-0.023,-0.648
338,-0.025,-0.648
339,-0.026,-0.648
340,-0.028,-0.656
341,-0.030,-0.656
342,-0.030,-0.656
343,-0.031,-0.656
344,-0.032,-0.656
345,-0.033,-0.656
346,-0.034,-0.656
347,-0.034,-0.656
348,-0.034,-0.656
349,-0.033,-0.656
350,-0.033,-0.656
351,-0.032,-0.656
352,-0.030,-0.649
353,-0.028,-0.649
354,-0.025,-0.649
355,-0.022,-0.649
356,-0.020,-0.632
357,-0.018,-0.632
358,-0.018,-0.632
359,-0.018,-0.632
360,-0.019,-0.609
361,-0.020,-0.609
362,-0.021,-0.609
363,-0.023,-0.609
364,-0.025,-0.575
365,-0.026,-0.575
366,-0.028,-0.575
367,-0.030,-0.575
368,-0.030,-0.531
369,-0.031,-0.531
370,-0.032,-0.531
371,-0.033,-0.531
372,-0.034,-0.476
373,-0.034,-0.476
374,-0.034,-0.476
375,-0.033,-0.476
376,-0.033,-0.412
377,-0.032,-0.412
378,-0.030,-0.412
379,-0.029,-0.412
380,-0.026,-0.341
381,-0.024,-0.341
382,-0.021,-0.341
383,-0.017,-0.341
384,-0.013,-0.263
385,-0.009,-0.263
386,-0.006,-0.263
387,-0.003,-0.263
388,-0.001,-0.181
389,0.001,-0.181
390,0.003,-0.181
391,0.004,-0.181
392,0.005,-0.100
393,0.007,-0.100
394,0.009,-0.100
395,0.012,-0.100
396,0.013,-0.024
397,0.014,-0.024
398,0.015,-0.024
399,0.016,-0.024
400,0.017,0.049
401,0.017,0.049
402,0.018,0.049
403,0.019,0.049
404,0.019,0.112
405,0.019,0.112
406,0.021,0.112
407,0.022,0.112
408,0.025,0.166
409,0.027,0.166
410,0.030,0.166
411,0.033,0.166
412,0.035,0.210
413,0.038,0.210
414,0.038,0.210
415,0.038,0.210
416,0.036,0.242
417,0.034,0.242
418,0.033,0.242
419,0.031,0.242
420,0.030,0.265
421,0.029,0.265
422,0.029,0.265
423,0.029,0.265
424,0.030,0.280
425,0.031,0.280
426,0.034,0.280
427,0.037,0.280
428,0.041,0.281
429,0.045,0.281
430,0.049,0.281
431,0.052,0.281
432,0.053,0.276
433,0.055,0.276
434,0.055,0.276
435,0.055,0.276
436,0.055,0.263
437,0.055,0.263
438,0.056,0.263
439,0.056,0.263
440,0.058,0.240
441,0.059,0.240
442,0.061,0.240
443,0.063,0.240
444,0.065,0.217
445,0.066,0.217
446,0.068,0.217
447,0.070,0.217
448,0.071,0.206
449,0.072,0.206
450,0.070,0.206
451,0.069,0.206
452,0.069,0.172
453,0.068,0.172
454,0.073,0.172
455,0.078,0.172
456,0.095,0.136
457,0.111,0.136
458,0.142,0.136
459,0.174,0.136
460,0.221,0.096
461,0.268,0.096
462,0.325,0.096
463,0.382,0.096
464,0.439,0.056
465,0.495,0.056
466,0.534,0.056
467,0.574,0.056
468,0.582,0.015
469,0.590,0.015
470,0.562,0.015
471,0.534,0.015
472,0.477,-0.026
473,0.421,-0.026
474,0.353,-0.026
475,0.285,-0.026
476,0.223,-0.069
477,0.160,-0.069
478,0.113,-0.069
479,0.066,-0.069
480,0.036,-0.111
481,0.007,-0.111
482,-0.007,-0.111
483,-0.022,-0.111
484,-0.025,-0.148
485,-0.027,-0.148
486,-0.022,-0.148
487,-0.017,-0.148
488,-0.009,-0.186
489,-0.002,-0.186
490,0.004,-0.186
491,0.009,-0.186
492,0.013,-0.219
493,0.016,-0.219
494,0.018,-0.219
495,0.019,-0.219
496,0.021,-0.251
497,0.022,-0.251
498,0.022,-0.251
499,0.023,-0.251
500,0.025,-0.282
501,0.026,-0.282
502,0.028,-0.282
503,0.030,-0.282
504,0.032,-0.310
505,0.033,-0.310
506,0.034,-0.310
507,0.035,-0.310
508,0.034,-0.333
509,0.033,-0.333
510,0.032,-0.333
511,0.031,-0.333
512,0.030,-0.356
513,0.029,-0.356
514,0.029,-0.356
515,0.028,-0.356
516,0.026,-0.376
517,0.025,-0.376
518,0.024,-0.376
519,0.022,-0.376
520,0.021,-0.394
521,0.020,-0.394
522,0.018,-0.394
523,0.017,-0.394
524,0.016,-0.410
525,0.015,-0.410
526,0.015,-0.410
527,0.015,-0.410
528,0.016,-0.425
529,0.017,-0.425
530,0.018,-0.425
531,0.020,-0.425
532,0.021,-0.439
533,0.021,-0.439
534,0.022,-0.439
535,0.023,-0.439
536,0.024,-0.450
537,0.025,-0.450
538,0.025,-0.450
539,0.026,-0.450
540,0.025,-0.462
541,0.025,-0.462
542,0.025,-0.462
543,0.026,-0.462
544,0.026,-0.471
545,0.027,-0.471
546,0.026,-0.471
547,0.025,-0.471
548,0.023,-0.479
549,0.021,-0.479
550,0.019,-0.479
551,0.018,-0.479
552,0.018,-0.489
553,0.017,-0.489
554,0.018,-0.489
555,0.019,-0.489
556,0.019,-0.496
557,0.020,-0.496
558,0.019,-0.496
559,0.019,-0.496
560,0.018,-0.502
561,0.017,-0.502
562,0.015,-0.502
563,0.013,-0.502
564,0.010,-0.506
565,0.007,-0.506
566,0.004,-0.506
567,0.000,-0.506
568,-0.004,-0.511
569,-0.007,-0.511
570,-0.011,-0.511
571,-0.014,-0.511
572,-0.018,-0.511
573,-0.022,-0.511
574,-0.025,-0.511
575,-0.028,-0.511
576,-0.029,-0.509
577,-0.030,-0.509
578,-0.029,-0.509
579,-0.029,-0.509
580,-0.028,-0.499
581,-0.027,-0.499
582,-0.025,-0.499
583,-0.024,-0.499
584,-0.024,-0.489
585,-0.023,-0.489
586,-0.022,-0.489
587,-0.021,-0.489
588,-0.020,-0.469
589,-0.019,-0.469
590,-0.018,-0.469
591,-0.017,-0.469
592,-0.016,-0.442
593,-0.015,-0.442
594,-0.013,-0.442
595,-0.010,-0.442
596,-0.009,-0.407
597,-0.007,-0.407
598,-0.004,-0.407
599,-0.002,-0.407
600,0.000,-0.367
601,0.002,-0.367
602,0.004,-0.367
603,0.006,-0.367
604,0.008,-0.320
605,0.010,-0.320
606,0.011,-0.320
607,0.013,-0.320
608,0.015,-0.267
609,0.018,-0.267
610,0.021,-0.267
611,0.023,-0.267
612,0.025,-0.211
613,0.026,-0.211
614,0.028,-0.211
615,0.030,-0.211
616,0.032,-0.151
617,0.034,-0.151
618,0.037,-0.151
619,0.041,-0.151
620,0.044,-0.096
621,0.047,-0.096
622,0.048,-0.096
623,0.049,-0.096
624,0.050,-0.043
625,0.051,-0.043
626,0.051,-0.043
627,0.051,-0.043
628,0.050,0.009
629,0.049,0.009
630,0.046,0.009
631,0.044,0.009
632,0.042,0.051
633,0.039,0.051
634,0.039,0.051
635,0.039,0.051
636,0.041,0.087
637,0.042,0.087
638,0.045,0.087
639,0.048,0.087
640,0.052,0.112
641,0.056,0.112
642,0.060,0.112
643,0.064,0.112
644,0.068,0.132
645,0.071,0.132
646,0.074,0.132
647,0.077,0.132
648,0.080,0.142
649,0.082,0.142
650,0.083,0.142
651,0.083,0.142
652,0.082,0.143
653,0.081,0.143
654,0.080,0.143
655,0.079,0.143
656,0.078,0.139
657,0.077,0.139
658,0.076,0.139
659,0.075,0.139
660,0.073,0.124
661,0.072,0.124
662,0.070,0.124
663,0.067,0.124
664,0.064,0.107
665,0.060,0.107
666,0.055,0.107
667,0.050,0.107
668,0.048,0.084
669,0.046,0.084
670,0.051,0.084
671,0.056,0.084
672,0.071,0.056
673,0.086,0.056
674,0.114,0.056
675,0.141,0.056
676,0.183,0.023
677,0.225,0.023
678,0.282,0.023
679,0.339,0.023
680,0.398,-0.010
681,0.457,-0.010
682,0.499,-0.010
683,0.541,-0.010
684,0.548,-0.044
685,0.556,-0.044
686,0.524,-0.044
687,0.493,-0.044
688,0.433,-0.081
689,0.373,-0.081
690,0.303,-0.081
691,0.233,-0.081
692,0.172,-0.118
693,0.110,-0.118
694,0.067,-0.118
695,0.023,-0.118
696,-0.001,-0.157
697,-0.025,-0.157
698,-0.033,-0.157
699,-0.040,-0.157
700,-0.037,-0.190
701,-0.034,-0.190
702,-0.025,-0.190
703,-0.017,-0.190
704,-0.009,-0.166
705,-0.001,-0.166
706,0.004,-0.166
707,0.009,-0.166
708,0.013,-0.201
709,0.016,-0.201
710,0.017,-0.201
711,0.018,-0.201
712,0.018,-0.234
713,0.019,-0.234
714,0.018,-0.234
715,0.017,-0.234
716,0.016,-0.266
717,0.015,-0.266
718,0.015,-0.266
719,0.014,-0.266
720,0.015,-0.289
721,0.015,-0.289
722,0.017,-0.289
723,0.018,-0.289
724,0.021,-0.316
725,0.023,-0.316
726,0.024,-0.316
727,0.025,-0.316
728,0.026,-0.336
729,0.027,-0.336
730,0.028,-0.336
731,0.028,-0.336
732,0.029,-0.356
733,0.029,-0.356
734,0.029,-0.356
735,0.030,-0.356
736,0.031,-0.374
737,0.032,-0.374
738,0.033,-0.374
739,0.033,-0.374
740,0.033,-0.389
741,0.032,-0.389
742,0.030,-0.389
743,0.028,-0.389
744,0.026,-0.407
745,0.025,-0.407
746,0.024,-0.407
747,0.022,-0.407
748,0.021,-0.420
749,0.021,-0.420
750,0.021,-0.420
751,0.021,-0.420
752,0.020,-0.431
753,0.019,-0.431
754,0.018,-0.431
755,0.016,-0.431
756,0.015,-0.443
757,0.015,-0.443
758,0.015,-0.443
759,0.014,-0.443
760,0.015,-0.450
761,0.015,-0.450
762,0.015,-0.450
763,0.016,-0.450
764,0.015,-0.460
765,0.015,-0.460
766,0.014,-0.460
767,0.013,-0.460
768,0.011,-0.465
769,0.010,-0.465
770,0.008,-0.465
771,0.006,-0.465
772,0.004,-0.470
773,0.002,-0.470
774,0.000,-0.470
775,-0.002,-0.470
776,-0.005,-0.469
777,-0.008,-0.469
778,-0.011,-0.469
779,-0.013,-0.469
780,-0.015,-0.461
781,-0.016,-0.461
782,-0.018,-0.461
783,-0.020,-0.461
784,-0.024,-0.443
785,-0.027,-0.443
786,-0.031,-0.443
787,-0.035,-0.443
788,-0.038,-0.420
789,-0.041,-0.420
790,-0.043,-0.420
791,-0.045,-0.420
792,-0.045,-0.384
793,-0.045,-0.384
794,-0.044,-0.384
795,-0.043,-0.384
796,-0.042,-0.336
797,-0.040,-0.336
798,-0.038,-0.336
799,-0.036,-0.336
800,-0.034,-0.273
801,-0.032,-0.273
802,-0.030,-0.273
803,-0.028,-0.273
804,-0.025,-0.201
805,-0.022,-0.201
806,-0.019,-0.201
807,-0.016,-0.201
808,-0.013,-0.117
809,-0.011,-0.117
810,-0.007,-0.117
811,-0.003,-0.117
812,0.002,-0.026
813,0.006,-0.026
814,0.010,-0.026
815,0.014,-0.026
816,0.018,0.066
817,0.022,0.066
818,0.024,0.066
819,0.026,0.066
820,0.026,0.164
821,0.026,0.164
822,0.025,0.164
823,0.024,0.164
824,0.024,0.258
825,0.023,0.258
826,0.025,0.258
827,0.027,0.258
828,0.031,0.346
829,0.035,0.346
830,0.041,0.346
831,0.046,0.346
832,0.051,0.425
833,0.056,0.425
834,0.059,0.425
835,0.063,0.425
836,0.065,0.496
837,0.067,0.496
838,0.068,0.496
839,0.069,0.496
840,0.070,0.555
841,0.070,0.555
842,0.070,0.555
843,0.071,0.555
844,0.073,0.605
845,0.075,0.605
846,0.076,0.605
847,0.078,0.605
848,0.079,0.637
849,0.079,0.637
850,0.078,0.637
851,0.077,0.637
852,0.075,0.663
853,0.074,0.663
854,0.071,0.663
855,0.069,0.663
856,0.067,0.674
857,0.065,0.674
858,0.065,0.674
859,0.065,0.674
860,0.066,0.678
861,0.066,0.678
862,0.068,0.678
863,0.069,0.678
864,0.071,0.669
865,0.074,0.669
866,0.074,0.669
867,0.075,0.669
868,0.074,0.650
869,0.073,0.650
870,0.071,0.650
871,0.069,0.650
872,0.067,0.623
873,0.064,0.623
874,0.062,0.623
875,0.061,0.623
876,0.059,0.592
877,0.058,0.592
878,0.057,0.592
879,0.055,0.592
880,0.054,0.553
881,0.053,0.553
882,0.053,0.553
883,0.053,0.553
884,0.053,0.507
885,0.053,0.507
886,0.052,0.507
887,0.052,0.507
888,0.051,0.459
889,0.049,0.459
890,0.049,0.459
891,0.048,0.459
892,0.048,0.409
893,0.047,0.409
894,0.046,0.409
895,0.046,0.409
896,0.044,0.354
897,0.042,0.354
898,0.038,0.354
899,0.034,0.354
900,0.029,0.298
901,0.024,0.298
902,0.022,0.298
903,0.020,0.298
904,0.026,0.247
905,0.033,0.247
906,0.054,0.247
907,0.076,0.247
908,0.115,0.190
909,0.154,0.190
910,0.211,0.190
911,0.268,0.190
912,0.333,0.138
913,0.398,0.138
914,0.454,0.138
915,0.509,0.138
916,0.533,0.086
917,0.558,0.086
918,0.543,0.086
919,0.529,0.086
920,0.481,0.036
921,0.433,0.036
922,0.367,0.036
923,0.302,0.036
924,0.239,-0.011
925,0.176,-0.011
926,0.128,-0.011
927,0.079,-0.011
928,0.048,-0.052
929,0.017,-0.052
930,0.000,-0.052
931,-0.017,-0.052
932,-0.024,-0.090
933,-0.031,-0.090
934,-0.030,-0.090
935,-0.029,-0.090
936,-0.025,-0.126
937,-0.021,-0.126
938,-0.015,-0.126
939,-0.010,-0.126
940,-0.006,-0.161
941,-0.002,-0.161
942,0.002,-0.161
943,0.005,-0.161
944,0.007,-0.186
945,0.010,-0.186
946,0.011,-0.186
947,0.011,-0.186
948,0.011,-0.216
949,0.011,-0.216
950,0.011,-0.216
951,0.011,-0.216
952,0.011,-0.236
953,0.010,-0.236
954,0.009,-0.236
955,0.008,-0.236
956,0.007,-0.259
957,0.006,-0.259
958,0.006,-0.259
959,0.006,-0.259
960,0.005,-0.260
961,0.004,-0.260
962,0.004,-0.260
963,0.003,-0.260
964,0.003,-0.280
965,0.003,-0.280
966,0.003,-0.280
967,0.002,-0.280
968,0.002,-0.296
969,0.001,-0.296
970,0.002,-0.296
971,0.003,-0.296
972,0.005,-0.313
973,0.007,-0.313
974,0.010,-0.313
975,0.013,-0.313
976,0.015,-0.330
977,0.018,-0.330
978,0.018,-0.330
979,0.019,-0.330
980,0.018,-0.344
981,0.018,-0.344
982,0.018,-0.344
983,0.017,-0.344
984,0.015,-0.361
985,0.014,-0.361
986,0.012,-0.361
987,0.010,-0.361
988,0.008,-0.374
989,0.006,-0.374
990,0.004,-0.374
991,0.003,-0.374
992,0.003,-0.391
993,0.003,-0.391
994,0.003,-0.391
995,0.002,-0.391
996,0.002,-0.402
997,0.001,-0.402
998,0.001,-0.402
999,0.000,-0.402
1000,-0.002,-0.414
1001,-0.004,-0.414
1002,-0.006,-0.414
1003,-0.009,-0.414
1004,-0.012,-0.424
1005,-0.015,-0.424
1006,-0.018,-0.424
1007,-0.021,-0.424
1008,-0.025,-0.429
1009,-0.028,-0.429
1010,-0.032,-0.429
1011,-0.036,-0.429
1012,-0.040,-0.431
1013,-0.044,-0.431
1014,-0.047,-0.431
1015,-0.050,-0.431
1016,-0.052,-0.420
1017,-0.054,-0.420
1018,-0.054,-0.420
1019,-0.055,-0.420
1020,-0.053,-0.404
1021,-0.052,-0.404
1022,-0.051,-0.404
1023,-0.051,-0.404
1024,-0.051,-0.376
1025,-0.051,-0.376
1026,-0.052,-0.376
1027,-0.053,-0.376
1028,-0.054,-0.334
1029,-0.056,-0.334
1030,-0.058,-0.334
1031,-0.060,-0.334
1032,-0.060,-0.280
1033,-0.061,-0.280
1034,-0.060,-0.280
1035,-0.059,-0.280
1036,-0.056,-0.215
1037,-0.053,-0.215
1038,-0.051,-0.215
1039,-0.048,-0.215
1040,-0.045,-0.140
1041,-0.043,-0.140
1042,-0.042,-0.140
1043,-0.041,-0.140
1044,-0.042,-0.055
1045,-0.043,-0.055
1046,-0.043,-0.055
1047,-0.043,-0.055
1048,-0.041,0.032
1049,-0.039,0.032
1050,-0.035,0.032
1051,-0.031,0.032
1052,-0.025,0.120
1053,-0.019,0.120
1054,-0.013,0.120
1055,-0.006,0.120
1056,-0.001,0.205
1057,0.004,0.205
1058,0.006,0.205
1059,0.009,0.205
1060,0.010,0.286
1061,0.011,0.286
1062,0.011,0.286
1063,0.011,0.286
1064,0.011,0.361
1065,0.011,0.361
1066,0.011,0.361
1067,0.012,0.361
1068,0.013,0.424
1069,0.015,0.424
1070,0.017,0.424
1071,0.019,0.424
1072,0.021,0.477
1073,0.022,0.477
1074,0.022,0.477
1075,0.023,0.477
1076,0.024,0.518
1077,0.025,0.518
1078,0.025,0.518
1079,0.026,0.518
1080,0.026,0.548
1081,0.026,0.548
1082,0.026,0.548
1083,0.027,0.548
1084,0.027,0.568
1085,0.027,0.568
1086,0.028,0.568
1087,0.029,0.568
1088,0.031,0.578
1089,0.033,0.578
1090,0.035,0.578
1091,0.038,0.578
1092,0.041,0.576
1093,0.044,0.576
1094,0.046,0.576
1095,0.048,0.576
1096,0.050,0.565
1097,0.051,0.565
1098,0.052,0.565
1099,0.053,0.565
1100,0.053,0.544
1101,0.054,0.544
1102,0.055,0.544
1103,0.056,0.544
1104,0.058,0.520
1105,0.059,0.520
1106,0.061,0.520
1107,0.063,0.520
1108,0.064,0.485
1109,0.065,0.485
1110,0.065,0.485
1111,0.065,0.485
1112,0.064,0.445
1113,0.062,0.445
1114,0.060,0.445
1115,0.059,0.445
1116,0.057,0.397
1117,0.054,0.397
1118,0.050,0.397
1119,0.046,0.397
1120,0.043,0.348
1121,0.040,0.348
1122,0.043,0.348
1123,0.045,0.348
1124,0.059,0.297
1125,0.074,0.297
1126,0.103,0.297
1127,0.133,0.297
1128,0.178,0.245
1129,0.224,0.245
1130,0.282,0.245
1131,0.340,0.245
1132,0.399,0.190
1133,0.458,0.190
1134,0.499,0.190
1135,0.541,0.190
1136,0.550,0.137
1137,0.559,0.137
1138,0.530,0.137
1139,0.502,0.137
1140,0.444,0.083
1141,0.386,0.083
1142,0.316,0.083
1143,0.245,0.083
1144,0.181,0.029
1145,0.117,0.029
1146,0.068,0.029
1147,0.019,0.029
1148,-0.014,-0.018
1149,-0.047,-0.018
1150,-0.064,-0.018
1151,-0.080,-0.018
1152,-0.084,-0.065
1153,-0.088,-0.065
1154,-0.084,-0.065
1155,-0.080,-0.065
1156,-0.073,-0.111
1157,-0.066,-0.111
1158,-0.060,-0.111
1159,-0.055,-0.111
1160,-0.051,-0.149
1161,-0.048,-0.149
1162,-0.046,-0.149
1163,-0.044,-0.149
1164,-0.042,-0.188
1165,-0.040,-0.188
1166,-0.040,-0.188
1167,-0.040,-0.188
1168,-0.041,-0.219
1169,-0.041,-0.219
1170,-0.042,-0.219
1171,-0.043,-0.219
1172,-0.043,-0.251
1173,-0.043,-0.251
1174,-0.041,-0.251
1175,-0.039,-0.251
1176,-0.035,-0.280
1177,-0.031,-0.280
1178,-0.026,-0.280
1179,-0.021,-0.280
1180,-0.017,-0.306
1181,-0.013,-0.306
1182,-0.011,-0.306
1183,-0.008,-0.306
1184,-0.007,-0.326
1185,-0.007,-0.326
1186,-0.008,-0.326
1187,-0.009,-0.326
1188,-0.012,-0.348
1189,-0.015,-0.348
1190,-0.018,-0.348
1191,-0.020,-0.348
1192,-0.021,-0.368
1193,-0.023,-0.368
1194,-0.022,-0.368
1195,-0.021,-0.368
1196,-0.019,-0.389
1197,-0.017,-0.389
1198,-0.013,-0.389
1199,-0.010,-0.389
1200,-0.006,-0.407
1201,-0.003,-0.407
1202,-0.002,-0.407
1203,0.000,-0.407
1204,0.000,-0.425
1205,0.000,-0.425
1206,-0.001,-0.425
1207,-0.001,-0.425
1208,-0.003,-0.441
1209,-0.004,-0.441
1210,-0.006,-0.441
1211,-0.008,-0.441
1212,-0.010,-0.457
1213,-0.012,-0.457
1214,-0.015,-0.457
1215,-0.017,-0.457
1216,-0.020,-0.500
1217,-0.023,-0.500
1218,-0.027,-0.500
1219,-0.031,-0.500
1220,-0.035,-0.513
1221,-0.039,-0.513
1222,-0.043,-0.513
1223,-0.046,-0.513
1224,-0.049,-0.527
1225,-0.052,-0.527
1226,-0.055,-0.527
1227,-0.058,-0.527
1228,-0.060,-0.535
1229,-0.063,-0.535
1230,-0.066,-0.535
1231,-0.068,-0.535
1232,-0.071,-0.542
1233,-0.075,-0.542
1234,-0.079,-0.542
1235,-0.083,-0.542
1236,-0.087,-0.544
1237,-0.091,-0.544
1238,-0.092,-0.544
1239,-0.094,-0.544
1240,-0.095,-0.542
1241,-0.096,-0.542
1242,-0.098,-0.542
1243,-0.100,-0.542
1244,-0.101,-0.538
1245,-0.102,-0.538
1246,-0.103,-0.538
1247,-0.104,-0.538
1248,-0.105,-0.521
1249,-0.106,-0.521
1250,-0.106,-0.521
1251,-0.106,-0.521
1252,-0.105,-0.500
1253,-0.105,-0.500
1254,-0.104,-0.500
1255,-0.103,-0.500
1256,-0.102,-0.465
1257,-0.100,-0.465
1258,-0.098,-0.465
1259,-0.095,-0.465
1260,-0.089,-0.426
1261,-0.084,-0.426
1262,-0.079,-0.426
1263,-0.073,-0.426
1264,-0.068,-0.374
1265,-0.063,-0.374
1266,-0.059,-0.374
1267,-0.054,-0.374
1268,-0.050,-0.312
1269,-0.046,-0.312
1270,-0.043,-0.312
1271,-0.040,-0.312
1272,-0.037,-0.244
1273,-0.035,-0.244
1274,-0.032,-0.244
1275,-0.029,-0.244
1276,-0.026,-0.174
1277,-0.024,-0.174
1278,-0.021,-0.174
1279,-0.018,-0.174
1280,-0.015,-0.101
1281,-0.013,-0.101
1282,-0.012,-0.101
1283,-0.011,-0.101
1284,-0.011,-0.029
1285,-0.011,-0.029
1286,-0.011,-0.029
1287,-0.010,-0.029
1288,-0.008,0.037
1289,-0.006,0.037
1290,-0.003,0.037
1291,0.001,0.037
1292,0.005,0.097
1293,0.009,0.097
1294,0.011,0.097
1295,0.014,0.097
1296,0.015,0.151
1297,0.016,0.151
1298,0.017,0.151
1299,0.017,0.151
1300,0.018,0.192
1301,0.019,0.192
1302,0.018,0.192
1303,0.018,0.192
1304,0.018,0.227
1305,0.019,0.227
1306,0.020,0.227
1307,0.021,0.227
1308,0.021,0.246
1309,0.022,0.246
1310,0.021,0.246
1311,0.021,0.246
1312,0.020,0.260
1313,0.019,0.260
1314,0.018,0.260
1315,0.016,0.260
1316,0.015,0.262
1317,0.015,0.262
1318,0.015,0.262
1319,0.014,0.262
1320,0.015,0.254
1321,0.015,0.254
1322,0.017,0.254
1323,0.018,0.254
1324,0.021,0.238
1325,0.023,0.238
1326,0.024,0.238
1327,0.025,0.238
1328,0.026,0.213
1329,0.027,0.213
1330,0.026,0.213
1331,0.026,0.213
1332,0.024,0.182
1333,0.022,0.182
1334,0.019,0.182
1335,0.017,0.182
1336,0.015,0.147
1337,0.013,0.147
1338,0.012,0.147
1339,0.011,0.147
1340,0.010,0.106
1341,0.009,0.106
1342,0.009,0.106
1343,0.008,0.106
1344,0.007,0.066
1345,0.006,0.066
1346,0.006,0.066
1347,0.006,0.066
1348,0.004,0.018
1349,0.002,0.018
1350,-0.002,0.018
1351,-0.005,0.018
1352,-0.007,-0.029
1353,-0.010,-0.029
1354,-0.005,-0.029
1355,0.000,-0.029
1356,0.018,-0.077
1357,0.037,-0.077
1358,0.073,-0.077
1359,0.110,-0.077
1360,0.165,-0.126
1361,0.220,-0.126
1362,0.286,-0.126
1363,0.352,-0.126
1364,0.413,-0.174
1365,0.475,-0.174
1366,0.514,-0.174
1367,0.553,-0.174
1368,0.556,-0.223
1369,0.559,-0.223
1370,0.525,-0.223
1371,0.492,-0.223
1372,0.432,-0.264
1373,0.372,-0.264
1374,0.302,-0.264
1375,0.233,-0.264
1376,0.172,-0.304
1377,0.110,-0.304
1378,0.066,-0.304
1379,0.021,-0.304
1380,-0.006,-0.341
1381,-0.033,-0.341
1382,-0.043,-0.341
1383,-0.054,-0.341
1384,-0.050,-0.376
1385,-0.046,-0.376
1386,-0.036,-0.376
1387,-0.027,-0.376
1388,-0.018,-0.407
1389,-0.009,-0.407
1390,-0.004,-0.407
1391,0.001,-0.407
1392,0.003,-0.432
1393,0.004,-0.432
1394,0.003,-0.432
1395,0.001,-0.432
1396,-0.002,-0.454
1397,-0.004,-0.454
1398,-0.006,-0.454
1399,-0.009,-0.454
1400,-0.010,-0.473
1401,-0.011,-0.473
1402,-0.011,-0.473
1403,-0.011,-0.473
1404,-0.011,-0.488
1405,-0.010,-0.488
1406,-0.009,-0.488
1407,-0.009,-0.488
1408,-0.010,-0.502
1409,-0.011,-0.502
1410,-0.013,-0.502
1411,-0.015,-0.502
1412,-0.018,-0.511
1413,-0.020,-0.511
1414,-0.021,-0.511
1415,-0.023,-0.511
1416,-0.022,-0.523
1417,-0.022,-0.523
1418,-0.021,-0.523
1419,-0.021,-0.523
1420,-0.019,-0.533
1421,-0.018,-0.533
1422,-0.017,-0.533
1423,-0.015,-0.533
1424,-0.015,-0.538
1425,-0.015,-0.538
1426,-0.017,-0.538
1427,-0.019,-0.538
1428,-0.021,-0.548
1429,-0.023,-0.548
1430,-0.025,-0.548
1431,-0.027,-0.548
1432,-0.029,-0.556
1433,-0.030,-0.556
1434,-0.030,-0.556
1435,-0.031,-0.556
1436,-0.032,-0.560
1437,-0.033,-0.560
1438,-0.034,-0.560
1439,-0.034,-0.560
1440,-0.034,-0.568
1441,-0.034,-0.568
1442,-0.035,-0.568
1443,-0.037,-0.568
1444,-0.038,-0.570
1445,-0.040,-0.570
1446,-0.041,-0.570
1447,-0.041,-0.570
1448,-0.041,-0.576
1449,-0.040,-0.576
1450,-0.041,-0.576
1451,-0.041,-0.576
1452,-0.042,-0.580
1453,-0.043,-0.580
1454,-0.043,-0.580
1455,-0.044,-0.580
1456,-0.045,-0.580
1457,-0.046,-0.580
1458,-0.048,-0.580
1459,-0.049,-0.580
1460,-0.052,-0.576
1461,-0.056,-0.576
1462,-0.060,-0.576
1463,-0.065,-0.576
1464,-0.069,-0.568
1465,-0.073,-0.568
1466,-0.076,-0.568
1467,-0.079,-0.568
1468,-0.080,-0.554
1469,-0.081,-0.554
1470,-0.081,-0.554
1471,-0.080,-0.554
1472,-0.079,-0.554
1473,-0.077,-0.554
1474,-0.075,-0.554
1475,-0.073,-0.554
1476,-0.073,-0.521
1477,-0.073,-0.521
1478,-0.073,-0.521
1479,-0.073,-0.521
1480,-0.073,-0.478
1481,-0.073,-0.478
1482,-0.072,-0.478
1483,-0.072,-0.478
1484,-0.070,-0.422
1485,-0.068,-0.422
1486,-0.065,-0.422
1487,-0.061,-0.422
1488,-0.057,-0.356
1489,-0.053,-0.356
1490,-0.050,-0.356
1491,-0.047,-0.356
1492,-0.045,-0.275
1493,-0.043,-0.275
1494,-0.042,-0.275
1495,-0.040,-0.275
1496,-0.038,-0.190
1497,-0.036,-0.190
1498,-0.034,-0.190
1499,-0.031,-0.190
1500,-0.028,-0.091
1501,-0.025,-0.091
1502,-0.023,-0.091
1503,-0.021,-0.091
1504,-0.019,0.009
1505,-0.018,0.009
1506,-0.017,0.009
1507,-0.015,0.009
1508,-0.015,0.110
1509,-0.014,0.110
1510,-0.015,0.110
1511,-0.015,0.110
1512,-0.015,0.207
1513,-0.015,0.207
1514,-0.015,0.207
1515,-0.015,0.207
1516,-0.015,0.296
1517,-0.015,0.296
1518,-0.015,0.296
1519,-0.014,0.296
1520,-0.013,0.379
1521,-0.011,0.379
1522,-0.009,0.379
1523,-0.006,0.379
1524,-0.003,0.450
1525,0.000,0.450
1526,0.003,0.450
1527,0.005,0.450
1528,0.007,0.505
1529,0.010,0.505
1530,0.011,0.505
1531,0.012,0.505
1532,0.013,0.551
1533,0.015,0.551
1534,0.017,0.551
1535,0.019,0.551
1536,0.021,0.578
1537,0.023,0.578
1538,0.025,0.578
1539,0.026,0.578
1540,0.028,0.595
1541,0.029,0.595
1542,0.029,0.595
1543,0.030,0.595
1544,0.031,0.595
1545,0.032,0.595
1546,0.033,0.595
1547,0.034,0.595
1548,0.035,0.586
1549,0.036,0.586
1550,0.036,0.586
1551,0.036,0.586
1552,0.035,0.564
1553,0.035,0.564
1554,0.034,0.564
1555,0.032,0.564
1556,0.030,0.534
1557,0.029,0.534
1558,0.029,0.534
1559,0.028,0.534
1560,0.027,0.499
1561,0.026,0.499
1562,0.025,0.499
1563,0.024,0.499
1564,0.023,0.456
1565,0.022,0.456
1566,0.022,0.456
1567,0.023,0.456
1568,0.024,0.404
1569,0.025,0.404
1570,0.025,0.404
1571,0.026,0.404
1572,0.025,0.354
1573,0.024,0.354
1574,0.022,0.354
1575,0.020,0.354
1576,0.017,0.298
1577,0.013,0.298
1578,0.011,0.298
1579,0.010,0.298
1580,0.015,0.242
1581,0.021,0.242
1582,0.040,0.242
1583,0.059,0.242
1584,0.095,0.186
1585,0.130,0.186
1586,0.182,0.186
1587,0.235,0.186
1588,0.298,0.131
1589,0.361,0.131
1590,0.419,0.131
1591,0.478,0.131
1592,0.510,0.077
1593,0.543,0.077
1594,0.536,0.077
1595,0.530,0.077
1596,0.486,0.027
1597,0.443,0.027
1598,0.378,0.027
1599,0.313,0.027
1600,0.247,-0.022
1601,0.181,-0.022
1602,0.128,-0.022
1603,0.074,-0.022
1604,0.037,-0.070
1605,0.001,-0.070
1606,-0.020,-0.070
1607,-0.041,-0.070
1608,-0.049,-0.112
1609,-0.057,-0.112
1610,-0.056,-0.112
1611,-0.055,-0.112
1612,-0.051,-0.151
1613,-0.046,-0.151
1614,-0.041,-0.151
1615,-0.036,-0.151
1616,-0.033,-0.186
1617,-0.029,-0.186
1618,-0.026,-0.186
1619,-0.024,-0.186
1620,-0.023,-0.215
1621,-0.022,-0.215
1622,-0.022,-0.215
1623,-0.022,-0.215
1624,-0.022,-0.244
1625,-0.022,-0.244
1626,-0.021,-0.244
1627,-0.021,-0.244
1628,-0.019,-0.267
1629,-0.018,-0.267
1630,-0.016,-0.267
1631,-0.014,-0.267
1632,-0.011,-0.285
1633,-0.009,-0.285
1634,-0.007,-0.285
1635,-0.005,-0.285
1636,-0.004,-0.304
1637,-0.003,-0.304
1638,-0.004,-0.304
1639,-0.006,-0.304
1640,-0.008,-0.321
1641,-0.010,-0.321
1642,-0.011,-0.321
1643,-0.013,-0.321
1644,-0.015,-0.337
1645,-0.016,-0.337
1646,-0.017,-0.337
1647,-0.018,-0.337
1648,-0.019,-0.347
1649,-0.020,-0.347
1650,-0.021,-0.347
1651,-0.023,-0.347
1652,-0.025,-0.362
1653,-0.026,-0.362
1654,-0.028,-0.362
1655,-0.030,-0.362
1656,-0.029,-0.372
1657,-0.029,-0.372
1658,-0.028,-0.372
1659,-0.026,-0.372
1660,-0.022,-0.387
1661,-0.019,-0.387
1662,-0.015,-0.387
1663,-0.011,-0.387
1664,-0.009,-0.400
1665,-0.006,-0.400
1666,-0.006,-0.400
1667,-0.007,-0.400
1668,-0.011,-0.412
1669,-0.015,-0.412
1670,-0.019,-0.412
1671,-0.024,-0.412
1672,-0.028,-0.422
1673,-0.031,-0.422
1674,-0.032,-0.422
1675,-0.033,-0.422
1676,-0.034,-0.434
1677,-0.034,-0.434
1678,-0.034,-0.434
1679,-0.034,-0.434
1680,-0.035,-0.441
1681,-0.037,-0.441
1682,-0.038,-0.441
1683,-0.040,-0.441
1684,-0.041,-0.447
1685,-0.042,-0.447
1686,-0.043,-0.447
1687,-0.044,-0.447
1688,-0.046,-0.449
1689,-0.049,-0.449
1690,-0.051,-0.449
1691,-0.053,-0.449
1692,-0.057,-0.443
1693,-0.060,-0.443
1694,-0.064,-0.443
1695,-0.067,-0.443
1696,-0.070,-0.426
1697,-0.073,-0.426
1698,-0.078,-0.426
1699,-0.083,-0.426
1700,-0.088,-0.402
1701,-0.093,-0.402
1702,-0.096,-0.402
1703,-0.099,-0.402
1704,-0.099,-0.364
1705,-0.099,-0.364
1706,-0.096,-0.364
1707,-0.093,-0.364
1708,-0.088,-0.312
1709,-0.083,-0.312
1710,-0.077,-0.312
1711,-0.071,-0.312
1712,-0.066,-0.251
1713,-0.061,-0.251
1714,-0.057,-0.251
1715,-0.052,-0.251
1716,-0.048,-0.178
1717,-0.043,-0.178
1718,-0.039,-0.178
1719,-0.035,-0.178
1720,-0.032,-0.091
1721,-0.028,-0.091
1722,-0.025,-0.091
1723,-0.023,-0.091
1724,-0.021,0.004
1725,-0.019,0.004
1726,-0.018,0.004
1727,-0.016,0.004
1728,-0.015,0.070
1729,-0.013,0.070
1730,-0.009,0.070
1731,-0.006,0.070
1732,-0.003,0.160
1733,0.000,0.160
1734,0.002,0.160
1735,0.004,0.160
1736,0.006,0.250
1737,0.008,0.250
1738,0.010,0.250
1739,0.012,0.250
1740,0.013,0.338
1741,0.015,0.338
1742,0.017,0.338
1743,0.018,0.338
1744,0.018,0.415
1745,0.019,0.415
1746,0.018,0.415
1747,0.017,0.415
1748,0.016,0.483
1749,0.015,0.483
1750,0.015,0.483
1751,0.014,0.483
1752,0.015,0.540
1753,0.015,0.540
1754,0.016,0.540
1755,0.017,0.540
1756,0.018,0.586
1757,0.020,0.586
1758,0.021,0.586
1759,0.022,0.586
1760,0.024,0.618
1761,0.026,0.618
1762,0.028,0.618
1763,0.029,0.618
1764,0.029,0.638
1765,0.029,0.638
1766,0.029,0.638
1767,0.029,0.638
1768,0.029,0.644
1769,0.029,0.644
1770,0.029,0.644
1771,0.028,0.644
1772,0.027,0.642
1773,0.026,0.642
1774,0.025,0.642
1775,0.024,0.642
1776,0.023,0.629
1777,0.022,0.629
1778,0.022,0.629
1779,0.022,0.629
1780,0.022,0.607
1781,0.023,0.607
1782,0.025,0.607
1783,0.027,0.607
1784,0.030,0.578
1785,0.034,0.578
1786,0.037,0.578
1787,0.040,0.578
1788,0.040,0.540
1789,0.040,0.540
1790,0.038,0.540
1791,0.036,0.540
1792,0.034,0.498
1793,0.031,0.498
1794,0.028,0.498
1795,0.025,0.498
1796,0.023,0.455
1797,0.021,0.455
1798,0.019,0.455
1799,0.017,0.455
1800,0.015,0.407
1801,0.014,0.407
1802,0.013,0.407
1803,0.013,0.407
1804,0.012,0.356
1805,0.011,0.356
1806,0.011,0.356
1807,0.011,0.356
1808,0.013,0.305
1809,0.014,0.305
1810,0.015,0.305
1811,0.016,0.305
1812,0.017,0.256
1813,0.017,0.256
1814,0.018,0.256
1815,0.019,0.256
1816,0.018,0.203
1817,0.018,0.203
1818,0.017,0.203
1819,0.015,0.203
1820,0.011,0.153
1821,0.007,0.153
1822,0.004,0.153
1823,0.001,0.153
1824,0.006,0.104
1825,0.011,0.104
1826,0.030,0.104
1827,0.049,0.104
1828,0.087,0.057
1829,0.125,0.057
1830,0.182,0.057
1831,0.239,0.057
1832,0.307,0.011
1833,0.375,0.011
1834,0.438,0.011
1835,0.501,0.011
1836,0.539,-0.030
1837,0.577,-0.030
1838,0.577,-0.030
1839,0.576,-0.030
1840,0.538,-0.070
1841,0.500,-0.070
1842,0.436,-0.070
1843,0.372,-0.070
1844,0.301,-0.108
1845,0.230,-0.108
1846,0.169,-0.108
1847,0.108,-0.108
1848,0.064,-0.140
1849,0.019,-0.140
1850,-0.007,-0.140
1851,-0.034,-0.140
1852,-0.043,-0.171
1853,-0.053,-0.171
1854,-0.050,-0.171
1855,-0.047,-0.171
1856,-0.038,-0.195
1857,-0.030,-0.195
1858,-0.022,-0.195
1859,-0.014,-0.195
1860,-0.010,-0.217
1861,-0.006,-0.217
1862,-0.006,-0.217
1863,-0.006,-0.217
1864,-0.008,-0.240
1865,-0.010,-0.240
1866,-0.011,-0.240
1867,-0.013,-0.240
1868,-0.013,-0.256
1869,-0.014,-0.256
1870,-0.013,-0.256
1871,-0.011,-0.256
1872,-0.008,-0.273
1873,-0.005,-0.273
1874,-0.001,-0.273
1875,0.003,-0.273
1876,0.005,-0.288
1877,0.008,-0.288
1878,0.009,-0.288
1879,0.009,-0.288
1880,0.009,-0.303
1881,0.009,-0.303
1882,0.009,-0.303
1883,0.008,-0.303
1884,0.007,-0.318
1885,0.006,-0.318
1886,0.006,-0.318
1887,0.007,-0.318
1888,0.006,-0.328
1889,0.006,-0.328
1890,0.005,-0.328
1891,0.004,-0.328
1892,0.003,-0.343
1893,0.001,-0.343
1894,-0.001,-0.343
1895,-0.003,-0.343
1896,-0.004,-0.354
1897,-0.006,-0.354
1898,-0.006,-0.354
1899,-0.006,-0.354
1900,-0.006,-0.365
1901,-0.006,-0.365
1902,-0.006,-0.365
1903,-0.007,-0.365
1904,-0.008,-0.375
1905,-0.009,-0.375
1906,-0.011,-0.375
1907,-0.012,-0.375
1908,-0.013,-0.387
1909,-0.014,-0.387
1910,-0.013,-0.387
1911,-0.013,-0.387
1912,-0.013,-0.398
1913,-0.014,-0.398
1914,-0.015,-0.398
1915,-0.016,-0.398
1916,-0.017,-0.402
1917,-0.018,-0.402
1918,-0.019,-0.402
1919,-0.021,-0.402
1920,-0.024,-0.407
1921,-0.027,-0.407
1922,-0.031,-0.407
1923,-0.035,-0.407
1924,-0.039,-0.411
1925,-0.043,-0.411
1926,-0.048,-0.411
1927,-0.053,-0.411
1928,-0.057,-0.406
1929,-0.060,-0.406
1930,-0.062,-0.406
1931,-0.064,-0.406
1932,-0.065,-0.396
1933,-0.066,-0.396
1934,-0.067,-0.396
1935,-0.067,-0.396
1936,-0.068,-0.373
1937,-0.069,-0.373
1938,-0.070,-0.373
1939,-0.070,-0.373
1940,-0.070,-0.343
1941,-0.071,-0.343
1942,-0.072,-0.343
1943,-0.074,-0.343
1944,-0.076,-0.297
1945,-0.078,-0.297
1946,-0.080,-0.297
1947,-0.081,-0.297
1948,-0.081,-0.240
1949,-0.081,-0.240
1950,-0.080,-0.240
1951,-0.079,-0.240
1952,-0.076,-0.171
1953,-0.073,-0.171
1954,-0.071,-0.171
1955,-0.069,-0.171
1956,-0.067,-0.087
1957,-0.065,-0.087
1958,-0.064,-0.087
1959,-0.063,-0.087
1960,-0.062,0.002
1961,-0.061,0.002
1962,-0.060,0.002
1963,-0.059,0.002
1964,-0.057,0.102
1965,-0.054,0.102
1966,-0.052,0.102
1967,-0.050,0.102
1968,-0.046,0.203
1969,-0.042,0.203
1970,-0.037,0.203
1971,-0.033,0.203
1972,-0.030,0.305
1973,-0.027,0.305
1974,-0.025,0.305
1975,-0.022,0.305
1976,-0.021,0.398
1977,-0.019,0.398
1978,-0.018,0.398
1979,-0.018,0.398
1980,-0.018,0.489
1981,-0.019,0.489
1982,-0.018,0.489
1983,-0.018,0.489
1984,-0.016,0.586
1985,-0.014,0.586
1986,-0.011,0.586
1987,-0.007,0.586
1988,-0.004,0.657
1989,-0.002,0.657
1990,-0.001,0.657
1991,0.001,0.657
1992,0.001,0.714
1993,0.001,0.714
1994,-0.001,0.714
1995,-0.002,0.714
1996,-0.003,0.758
1997,-0.004,0.758
1998,-0.004,0.758
1999,-0.004,0.758
2000,-0.004,0.789
2001,-0.004,0.789
2002,-0.004,0.789
2003,-0.005,0.789
2004,-0.005,0.807
2005,-0.006,0.807
2006,-0.006,0.807
2007,-0.006,0.807
2008,-0.005,0.815
2009,-0.005,0.815
2010,-0.004,0.815
2011,-0.002,0.815
2012,-0.001,0.807
2013,0.001,0.807
2014,0.002,0.807
2015,0.003,0.807
2016,0.003,0.791
2017,0.003,0.791
2018,0.003,0.791
2019,0.003,0.791
2020,0.004,0.762
2021,0.004,0.762
2022,0.005,0.762
2023,0.007,0.762
2024,0.009,0.726
2025,0.011,0.726
2026,0.011,0.726
2027,0.011,0.726
2028,0.011,0.683
2029,0.011,0.683
2030,0.011,0.683
2031,0.011,0.683
2032,0.011,0.634
2033,0.011,0.634
2034,0.011,0.634
2035,0.010,0.634
2036,0.009,0.580
2037,0.008,0.580
2038,0.006,0.580
2039,0.004,0.580
2040,0.003,0.525
2041,0.001,0.525
2042,0.002,0.525
2043,0.003,0.525
2044,0.012,0.465
2045,0.021,0.465
2046,0.043,0.465
2047,0.066,0.465
2048,0.103,0.405
2049,0.140,0.405
2050,0.192,0.405
2051,0.243,0.405
2052,0.301,0.344
2053,0.360,0.344
2054,0.412,0.344
2055,0.464,0.344
2056,0.492,0.286
2057,0.521,0.286
2058,0.513,0.286
2059,0.506,0.286
2060,0.464,0.226
2061,0.422,0.226
2062,0.358,0.226
2063,0.294,0.226
2064,0.226,0.169
2065,0.158,0.169
2066,0.101,0.169
2067,0.043,0.169
2068,0.003,0.115
2069,-0.038,0.115
2070,-0.060,0.115
2071,-0.083,0.115
2072,-0.091,0.064
2073,-0.099,0.064
2074,-0.096,0.064
2075,-0.093,0.064
2076,-0.085,0.015
2077,-0.077,0.015
2078,-0.070,0.015
2079,-0.063,0.015
2080,-0.059,-0.033
2081,-0.054,-0.033
2082,-0.052,-0.033
2083,-0.050,-0.033
2084,-0.050,-0.076
2085,-0.049,-0.076
2086,-0.050,-0.076
2087,-0.051,-0.076
2088,-0.051,-0.118
2089,-0.052,-0.118
2090,-0.052,-0.118
2091,-0.052,-0.118
2092,-0.051,-0.158
2093,-0.050,-0.158
2094,-0.050,-0.158
2095,-0.049,-0.158
2096,-0.050,-0.193
2097,-0.051,-0.193
2098,-0.052,-0.193
2099,-0.053,-0.193
2100,-0.054,-0.224
2101,-0.056,-0.224
2102,-0.058,-0.224
2103,-0.059,-0.224
2104,-0.059,-0.255
2105,-0.058,-0.255
2106,-0.057,-0.255
2107,-0.055,-0.255
2108,-0.053,-0.284
2109,-0.051,-0.284
2110,-0.050,-0.284
2111,-0.048,-0.284
2112,-0.048,-0.311
2113,-0.048,-0.311
2114,-0.048,-0.311
2115,-0.048,-0.311
2116,-0.049,-0.339
2117,-0.049,-0.339
2118,-0.050,-0.339
2119,-0.051,-0.339
2120,-0.051,-0.366
2121,-0.052,-0.366
2122,-0.051,-0.366
2123,-0.051,-0.366
2124,-0.050,-0.387
2125,-0.048,-0.387
2126,-0.047,-0.387
2127,-0.046,-0.387
2128,-0.043,-0.412
2129,-0.041,-0.412
2130,-0.040,-0.412
2131,-0.039,-0.412
2132,-0.038,-0.434
2133,-0.038,-0.434
2134,-0.040,-0.434
2135,-0.042,-0.434
2136,-0.045,-0.456
2137,-0.048,-0.456
2138,-0.051,-0.456
2139,-0.053,-0.456
2140,-0.054,-0.473
2141,-0.055,-0.473
2142,-0.054,-0.473
2143,-0.054,-0.473
2144,-0.053,-0.492
2145,-0.052,-0.492
2146,-0.052,-0.492
2147,-0.053,-0.492
2148,-0.057,-0.509
2149,-0.060,-0.509
2150,-0.067,-0.509
2151,-0.074,-0.509
2152,-0.082,-0.523
2153,-0.090,-0.523
2154,-0.097,-0.523
2155,-0.104,-0.523
2156,-0.108,-0.539
2157,-0.112,-0.539
2158,-0.113,-0.539
2159,-0.114,-0.539
2160,-0.114,-0.546
2161,-0.114,-0.546
2162,-0.114,-0.546
2163,-0.114,-0.546
2164,-0.115,-0.554
2165,-0.115,-0.554
2166,-0.116,-0.554
2167,-0.116,-0.554
2168,-0.115,-0.556
2169,-0.113,-0.556
2170,-0.109,-0.556
2171,-0.105,-0.556
2172,-0.102,-0.552
2173,-0.098,-0.552
2174,-0.097,-0.552
2175,-0.095,-0.552
2176,-0.095,-0.539
2177,-0.095,-0.539
2178,-0.096,-0.539
2179,-0.096,-0.539
2180,-0.096,-0.519
2181,-0.095,-0.519
2182,-0.092,-0.519
2183,-0.089,-0.519
2184,-0.084,-0.492
2185,-0.079,-0.492
2186,-0.073,-0.492
2187,-0.067,-0.492
2188,-0.061,-0.456
2189,-0.056,-0.456
2190,-0.051,-0.456
2191,-0.047,-0.456
2192,-0.043,-0.410
2193,-0.040,-0.410
2194,-0.040,-0.410
2195,-0.039,-0.410
2196,-0.038,-0.360
2197,-0.037,-0.360
2198,-0.037,-0.360
2199,-0.037,-0.360
2200,-0.037,-0.303
2201,-0.037,-0.303
2202,-0.037,-0.303
2203,-0.037,-0.303
2204,-0.036,-0.243
2205,-0.036,-0.243
2206,-0.034,-0.243
2207,-0.032,-0.243
2208,-0.029,-0.183
2209,-0.025,-0.183
2210,-0.021,-0.183
2211,-0.016,-0.183
2212,-0.011,-0.124
2213,-0.005,-0.124
2214,-0.001,-0.124
2215,0.004,-0.124
2216,0.006,-0.068
2217,0.009,-0.068
2218,0.010,-0.068
2219,0.011,-0.068
2220,0.011,-0.019
2221,0.011,-0.019
2222,0.011,-0.019
2223,0.012,-0.019
2224,0.013,0.024
2225,0.014,0.024
2226,0.015,0.024
2227,0.016,0.024
2228,0.017,0.059
2229,0.018,0.059
2230,0.021,0.059
2231,0.023,0.059
2232,0.025,0.082
2233,0.026,0.082
2234,0.028,0.082
2235,0.029,0.082
2236,0.029,0.097
2237,0.030,0.097
2238,0.031,0.097
2239,0.032,0.097
2240,0.032,0.064
2241,0.032,0.064
2242,0.030,0.064
2243,0.028,0.064
2244,0.025,0.064
2245,0.021,0.064
2246,0.017,0.064
2247,0.013,0.064
2248,0.009,0.054
2249,0.006,0.054
2250,0.005,0.054
2251,0.005,0.054
2252,0.011,0.035
2253,0.018,0.035
2254,0.036,0.035
2255,0.054,0.035
2256,0.085,0.013
2257,0.115,0.013
2258,0.158,0.013
2259,0.201,0.013
2260,0.255,-0.013
2261,0.309,-0.013
2262,0.365,-0.013
2263,0.421,-0.013
2264,0.464,-0.046
2265,0.507,-0.046
2266,0.520,-0.046
2267,0.534,-0.046
2268,0.512,-0.079
2269,0.490,-0.079
2270,0.436,-0.079
2271,0.383,-0.079
2272,0.314,-0.117
2273,0.245,-0.117
2274,0.178,-0.117
2275,0.111,-0.117
2276,0.058,-0.155
2277,0.004,-0.155
2278,-0.031,-0.155
2279,-0.066,-0.155
2280,-0.084,-0.193
2281,-0.101,-0.193
2282,-0.103,-0.193
2283,-0.105,-0.193
2284,-0.097,-0.232
2285,-0.089,-0.232
2286,-0.077,-0.232
2287,-0.066,-0.232
2288,-0.057,-0.265
2289,-0.047,-0.265
2290,-0.041,-0.265
2291,-0.035,-0.265
2292,-0.032,-0.299
2293,-0.029,-0.299
2294,-0.029,-0.299
2295,-0.029,-0.299
2296,-0.030,-0.329
2297,-0.031,-0.329
2298,-0.032,-0.329
2299,-0.033,-0.329
2300,-0.034,-0.356
2301,-0.035,-0.356
2302,-0.035,-0.356
2303,-0.036,-0.356
2304,-0.036,-0.383
2305,-0.037,-0.383
2306,-0.036,-0.383
2307,-0.036,-0.383
2308,-0.035,-0.407
2309,-0.033,-0.407
2310,-0.030,-0.407
2311,-0.028,-0.407
2312,-0.025,-0.431
2313,-0.022,-0.431
2314,-0.019,-0.431
2315,-0.017,-0.431
2316,-0.015,-0.452
2317,-0.014,-0.452
2318,-0.013,-0.452
2319,-0.011,-0.452
2320,-0.011,-0.470
2321,-0.011,-0.470
2322,-0.011,-0.470
2323,-0.012,-0.470
2324,-0.013,-0.487
2325,-0.015,-0.487
2326,-0.015,-0.487
2327,-0.016,-0.487
2328,-0.017,-0.502
2329,-0.017,-0.502
2330,-0.016,-0.502
2331,-0.015,-0.502
2332,-0.013,-0.519
2333,-0.010,-0.519
2334,-0.009,-0.519
2335,-0.008,-0.519
2336,-0.007,-0.528
2337,-0.007,-0.528
2338,-0.007,-0.528
2339,-0.008,-0.528
2340,-0.011,-0.541
2341,-0.013,-0.541
2342,-0.015,-0.541
2343,-0.018,-0.541
2344,-0.018,-0.549
2345,-0.019,-0.549
2346,-0.018,-0.549
2347,-0.018,-0.549
2348,-0.017,-0.556
2349,-0.016,-0.556
2350,-0.015,-0.556
2351,-0.015,-0.556
2352,-0.015,-0.560
2353,-0.015,-0.560
2354,-0.018,-0.560
2355,-0.020,-0.560
2356,-0.024,-0.562
2357,-0.027,-0.562
2358,-0.029,-0.562
2359,-0.032,-0.562
2360,-0.035,-0.562
2361,-0.037,-0.562
2362,-0.040,-0.562
2363,-0.042,-0.562
2364,-0.045,-0.556
2365,-0.048,-0.556
2366,-0.051,-0.556
2367,-0.053,-0.556
2368,-0.054,-0.549
2369,-0.056,-0.549
2370,-0.058,-0.549
2371,-0.060,-0.549
2372,-0.060,-0.532
2373,-0.061,-0.532
2374,-0.060,-0.532
2375,-0.060,-0.532
2376,-0.059,-0.510
2377,-0.058,-0.510
2378,-0.056,-0.510
2379,-0.054,-0.510
2380,-0.052,-0.482
2381,-0.051,-0.482
2382,-0.050,-0.482
2383,-0.048,-0.482
2384,-0.048,-0.443
2385,-0.048,-0.443
2386,-0.048,-0.443
2387,-0.047,-0.443
2388,-0.045,-0.391
2389,-0.044,-0.391
2390,-0.043,-0.391
2391,-0.042,-0.391
2392,-0.039,-0.333
2393,-0.036,-0.333
2394,-0.031,-0.333
2395,-0.026,-0.333
2396,-0.020,-0.267
2397,-0.014,-0.267
2398,-0.009,-0.267
2399,-0.004,-0.267
2400,-0.001,-0.194
2401,0.002,-0.194
2402,0.004,-0.194
2403,0.006,-0.194
2404,0.006,-0.117
2405,0.007,-0.117
2406,0.007,-0.117
2407,0.008,-0.117
2408,0.009,-0.043
2409,0.010,-0.043
2410,0.011,-0.043
2411,0.012,-0.043
2412,0.013,0.034
2413,0.015,0.034
2414,0.017,0.034
2415,0.019,0.034
2416,0.021,0.106
2417,0.023,0.106
2418,0.025,0.106
2419,0.026,0.106
2420,0.029,0.170
2421,0.032,0.170
2422,0.035,0.170
2423,0.038,0.170
2424,0.040,0.228
2425,0.042,0.228
2426,0.042,0.228
2427,0.042,0.228
2428,0.042,0.275
2429,0.041,0.275
2430,0.041,0.275
2431,0.040,0.275
2432,0.039,0.312
2433,0.038,0.312
2434,0.037,0.312
2435,0.036,0.312
2436,0.035,0.336
2437,0.034,0.336
2438,0.035,0.336
2439,0.037,0.336
2440,0.042,0.353
2441,0.046,0.353
2442,0.051,0.353
2443,0.055,0.353
2444,0.058,0.360
2445,0.060,0.360
2446,0.060,0.360
2447,0.061,0.360
2448,0.059,0.356
2449,0.056,0.356
2450,0.051,0.356
2451,0.046,0.356
2452,0.042,0.345
2453,0.037,0.345
2454,0.034,0.345
2455,0.030,0.345
2456,0.029,0.329
2457,0.027,0.329
2458,0.026,0.329
2459,0.026,0.329
2460,0.025,0.302
2461,0.025,0.302
2462,0.025,0.302
2463,0.025,0.302
2464,0.025,0.273
2465,0.024,0.273
2466,0.023,0.273
2467,0.022,0.273
2468,0.021,0.237
2469,0.021,0.237
2470,0.020,0.237
2471,0.019,0.237
2472,0.018,0.200
2473,0.016,0.200
2474,0.015,0.200
2475,0.015,0.200
2476,0.014,0.161
2477,0.013,0.161
2478,0.012,0.161
2479,0.011,0.161
2480,0.011,0.119
2481,0.010,0.119
2482,0.011,0.119
2483,0.011,0.119
2484,0.011,0.081
2485,0.012,0.081
2486,0.013,0.081
2487,0.013,0.081
2488,0.011,0.039
2489,0.010,0.039
2490,0.006,0.039
2491,0.002,0.039
2492,0.000,-0.002
2493,-0.002,-0.002
2494,0.004,-0.002
2495,0.010,-0.002
2496,0.030,-0.041
2497,0.050,-0.041
2498,0.086,-0.041
2499,0.123,-0.041
2500,0.176,-0.079
2501,0.230,-0.079
2502,0.295,-0.079
2503,0.360,-0.079
2504,0.422,-0.114
2505,0.484,-0.114
2506,0.524,-0.114
2507,0.565,-0.114
2508,0.569,-0.145
2509,0.572,-0.145
2510,0.536,-0.145
2511,0.501,-0.145
2512,0.439,-0.175
2513,0.377,-0.175
2514,0.306,-0.175
2515,0.235,-0.175
2516,0.172,-0.203
2517,0.110,-0.203
2518,0.066,-0.203
2519,0.022,-0.203
2520,-0.004,-0.230
2521,-0.031,-0.230
2522,-0.043,-0.230
2523,-0.054,-0.230
2524,-0.053,-0.254
2525,-0.053,-0.254
2526,-0.048,-0.254
2527,-0.042,-0.254
2528,-0.037,-0.275
2529,-0.032,-0.275
2530,-0.029,-0.275
2531,-0.025,-0.275
2532,-0.022,-0.293
2533,-0.020,-0.293
2534,-0.018,-0.293
2535,-0.016,-0.293
2536,-0.014,-0.312
2537,-0.012,-0.312
2538,-0.010,-0.312
2539,-0.008,-0.312
2540,-0.006,-0.327
2541,-0.005,-0.327
2542,-0.003,-0.327
2543,-0.001,-0.327
2544,-0.001,-0.342
2545,0.000,-0.342
2546,-0.001,-0.342
2547,-0.002,-0.342
2548,-0.005,-0.353
2549,-0.008,-0.353
2550,-0.012,-0.353
2551,-0.016,-0.353
2552,-0.018,-0.364
2553,-0.020,-0.364
2554,-0.021,-0.364
2555,-0.023,-0.364
2556,-0.025,-0.377
2557,-0.026,-0.377
2558,-0.029,-0.377
2559,-0.031,-0.377
2560,-0.033,-0.385
2561,-0.035,-0.385
2562,-0.038,-0.385
2563,-0.042,-0.385
2564,-0.045,-0.398
2565,-0.049,-0.398
2566,-0.050,-0.398
2567,-0.051,-0.398
2568,-0.050,-0.407
2569,-0.048,-0.407
2570,-0.045,-0.407
2571,-0.043,-0.407
2572,-0.040,-0.418
2573,-0.037,-0.418
2574,-0.036,-0.418
2575,-0.036,-0.418
2576,-0.037,-0.427
2577,-0.038,-0.427
2578,-0.040,-0.427
2579,-0.041,-0.427
2580,-0.043,-0.439
2581,-0.045,-0.439
2582,-0.048,-0.439
2583,-0.050,-0.439
2584,-0.053,-0.447
2585,-0.056,-0.447
2586,-0.060,-0.447
2587,-0.064,-0.447
2588,-0.067,-0.454
2589,-0.070,-0.454
2590,-0.072,-0.454
2591,-0.074,-0.454
2592,-0.075,-0.458
2593,-0.077,-0.458
2594,-0.077,-0.458
2595,-0.078,-0.458
2596,-0.077,-0.458
2597,-0.077,-0.458
2598,-0.077,-0.458
2599,-0.077,-0.458
2600,-0.077,-0.452
2601,-0.077,-0.452
2602,-0.076,-0.452
2603,-0.076,-0.452
2604,-0.075,-0.437
2605,-0.074,-0.437
2606,-0.073,-0.437
2607,-0.073,-0.437
2608,-0.073,-0.412
2609,-0.074,-0.412
2610,-0.076,-0.412
2611,-0.078,-0.412
2612,-0.082,-0.377
2613,-0.086,-0.377
2614,-0.090,-0.377
2615,-0.094,-0.377
2616,-0.097,-0.327
2617,-0.100,-0.327
2618,-0.102,-0.327
2619,-0.103,-0.327
2620,-0.102,-0.264
2621,-0.100,-0.264
2622,-0.095,-0.264
2623,-0.090,-0.264
2624,-0.083,-0.191
2625,-0.075,-0.191
2626,-0.069,-0.191
2627,-0.063,-0.191
2628,-0.059,-0.102
2629,-0.054,-0.102
2630,-0.050,-0.102
2631,-0.046,-0.102
2632,-0.042,-0.005
2633,-0.038,-0.005
2634,-0.034,-0.005
2635,-0.030,-0.005
2636,-0.026,0.095
2637,-0.022,0.095
2638,-0.018,0.095
2639,-0.015,0.095
2640,-0.013,0.200
2641,-0.010,0.200
2642,-0.009,0.200
2643,-0.008,0.200
2644,-0.007,0.300
2645,-0.006,0.300
2646,-0.005,0.300
2647,-0.005,0.300
2648,-0.005,0.400
2649,-0.005,0.400
2650,-0.004,0.400
2651,-0.002,0.400
2652,-0.001,0.489
2653,0.001,0.489
2654,0.002,0.489
2655,0.003,0.489
2656,0.003,0.570
2657,0.003,0.570
2658,0.003,0.570
2659,0.002,0.570
2660,0.001,0.638
2661,0.000,0.638
2662,0.000,0.638
2663,0.000,0.638
2664,0.002,0.693
2665,0.003,0.693
2666,0.004,0.693
2667,0.006,0.693
2668,0.009,0.738
2669,0.011,0.738
2670,0.013,0.738
2671,0.014,0.738
2672,0.015,0.765
2673,0.016,0.765
2674,0.016,0.765
2675,0.016,0.765
2676,0.015,0.782
2677,0.015,0.782
2678,0.014,0.782
2679,0.013,0.782
2680,0.012,0.788
2681,0.011,0.788
2682,0.010,0.788
2683,0.009,0.788
2684,0.009,0.780
2685,0.008,0.780
2686,0.007,0.780
2687,0.007,0.780
2688,0.009,0.765
2689,0.011,0.765
2690,0.013,0.765
2691,0.015,0.765
2692,0.017,0.740
2693,0.019,0.740
2694,0.021,0.740
2695,0.023,0.740
2696,0.025,0.704
2697,0.026,0.704
2698,0.028,0.704
2699,0.029,0.704
2700,0.029,0.666
2701,0.029,0.666
2702,0.029,0.666
2703,0.029,0.666
2704,0.029,0.620
2705,0.029,0.620
2706,0.029,0.620
2707,0.028,0.620
2708,0.026,0.573
2709,0.025,0.573
2710,0.024,0.573
2711,0.022,0.573
2712,0.021,0.519
2713,0.021,0.519
2714,0.021,0.519
2715,0.022,0.519
2716,0.022,0.465
2717,0.022,0.465
2718,0.022,0.465
2719,0.023,0.465
2720,0.024,0.409
2721,0.025,0.409
2722,0.026,0.409
2723,0.027,0.409
2724,0.028,0.353
2725,0.029,0.353
2726,0.031,0.353
2727,0.033,0.353
2728,0.035,0.297
2729,0.036,0.297
2730,0.035,0.297
2731,0.035,0.297
2732,0.033,0.239
2733,0.030,0.239
2734,0.025,0.239
2735,0.020,0.239
2736,0.016,0.185
2737,0.012,0.185
2738,0.017,0.185
2739,0.021,0.185
2740,0.040,0.133
2741,0.059,0.133
2742,0.095,0.133
2743,0.131,0.133
2744,0.185,0.082
2745,0.239,0.082
2746,0.304,0.082
2747,0.369,0.082
2748,0.428,0.035
2749,0.488,0.035
2750,0.520,0.035
2751,0.553,0.035
2752,0.549,-0.009
2753,0.545,-0.009
2754,0.504,-0.009
2755,0.463,-0.009
2756,0.397,-0.051
2757,0.331,-0.051
2758,0.259,-0.051
2759,0.187,-0.051
2760,0.124,-0.089
2761,0.062,-0.089
2762,0.016,-0.089
2763,-0.030,-0.089
2764,-0.057,-0.123
2765,-0.084,-0.123
2766,-0.093,-0.123
2767,-0.102,-0.123
2768,-0.098,-0.157
2769,-0.093,-0.157
2770,-0.084,-0.157
2771,-0.075,-0.157
2772,-0.067,-0.186
2773,-0.059,-0.186
2774,-0.054,-0.186
2775,-0.049,-0.186
2776,-0.046,-0.218
2777,-0.043,-0.218
2778,-0.042,-0.218
2779,-0.040,-0.218
2780,-0.040,-0.243
2781,-0.040,-0.243
2782,-0.041,-0.243
2783,-0.041,-0.243
2784,-0.043,-0.269
2785,-0.045,-0.269
2786,-0.049,-0.269
2787,-0.053,-0.269
2788,-0.057,-0.289
2789,-0.061,-0.289
2790,-0.064,-0.289
2791,-0.066,-0.289
2792,-0.066,-0.312
2793,-0.066,-0.312
2794,-0.064,-0.312
2795,-0.062,-0.312
2796,-0.059,-0.333
2797,-0.057,-0.333
2798,-0.053,-0.333
2799,-0.050,-0.333
2800,-0.046,-0.353
2801,-0.043,-0.353
2802,-0.042,-0.353
2803,-0.040,-0.353
2804,-0.040,-0.369
2805,-0.039,-0.369
2806,-0.037,-0.369
2807,-0.036,-0.369
2808,-0.034,-0.389
2809,-0.032,-0.389
2810,-0.029,-0.389
2811,-0.025,-0.389
2812,-0.021,-0.405
2813,-0.018,-0.405
2814,-0.015,-0.405
2815,-0.013,-0.405
2816,-0.012,-0.420
2817,-0.011,-0.420
2818,-0.011,-0.420
2819,-0.012,-0.420
2820,-0.013,-0.433
2821,-0.015,-0.433
2822,-0.015,-0.433
2823,-0.016,-0.433
2824,-0.018,-0.448
2825,-0.019,-0.448
2826,-0.021,-0.448
2827,-0.024,-0.448
2828,-0.027,-0.461
2829,-0.030,-0.461
2830,-0.033,-0.461
2831,-0.035,-0.461
2832,-0.038,-0.474
2833,-0.041,-0.474
2834,-0.044,-0.474
2835,-0.047,-0.474
2836,-0.050,-0.483
2837,-0.053,-0.483
2838,-0.057,-0.483
2839,-0.061,-0.483
2840,-0.065,-0.489
2841,-0.068,-0.489
2842,-0.071,-0.489
2843,-0.074,-0.489
2844,-0.076,-0.491
2845,-0.079,-0.491
2846,-0.082,-0.491
2847,-0.085,-0.491
2848,-0.088,-0.487
2849,-0.091,-0.487
2850,-0.093,-0.487
2851,-0.095,-0.487
2852,-0.096,-0.476
2853,-0.097,-0.476
2854,-0.099,-0.476
2855,-0.100,-0.476
2856,-0.102,-0.454
2857,-0.104,-0.454
2858,-0.107,-0.454
2859,-0.110,-0.454
2860,-0.113,-0.420
2861,-0.115,-0.420
2862,-0.117,-0.420
2863,-0.118,-0.420
2864,-0.120,-0.376
2865,-0.122,-0.376
2866,-0.123,-0.376
2867,-0.124,-0.376
2868,-0.123,-0.316
2869,-0.122,-0.316
2870,-0.120,-0.316
2871,-0.118,-0.316
2872,-0.116,-0.246
2873,-0.113,-0.246
2874,-0.108,-0.246
2875,-0.104,-0.246
2876,-0.099,-0.168
2877,-0.093,-0.168
2878,-0.088,-0.168
2879,-0.083,-0.168
2880,-0.079,-0.081
2881,-0.075,-0.081
2882,-0.071,-0.081
2883,-0.068,-0.081
2884,-0.065,0.007
2885,-0.062,0.007
2886,-0.059,0.007
2887,-0.057,0.007
2888,-0.055,0.099
2889,-0.053,0.099
2890,-0.050,0.099
2891,-0.046,0.099
2892,-0.041,0.189
2893,-0.036,0.189
2894,-0.032,0.189
2895,-0.027,0.189
2896,-0.022,0.271
2897,-0.017,0.271
2898,-0.013,0.271
2899,-0.010,0.271
2900,-0.007,0.345
2901,-0.005,0.345
2902,-0.003,0.345
2903,0.000,0.345
2904,0.002,0.409
2905,0.003,0.409
2906,0.004,0.409
2907,0.005,0.409
2908,0.006,0.467
2909,0.007,0.467
2910,0.008,0.467
2911,0.009,0.467
2912,0.011,0.508
2913,0.013,0.508
2914,0.014,0.508
2915,0.015,0.508
2916,0.015,0.539
2917,0.014,0.539
2918,0.014,0.539
2919,0.014,0.539
2920,0.014,0.560
2921,0.014,0.560
2922,0.015,0.560
2923,0.015,0.560
2924,0.016,0.568
2925,0.017,0.568
2926,0.018,0.568
2927,0.019,0.568
2928,0.018,0.566
2929,0.018,0.566
2930,0.018,0.566
2931,0.018,0.566
2932,0.018,0.554
2933,0.018,0.554
2934,0.018,0.554
2935,0.018,0.554
2936,0.018,0.532
2937,0.017,0.532
2938,0.015,0.532
2939,0.014,0.532
2940,0.012,0.506
2941,0.010,0.506
2942,0.009,0.506
2943,0.007,0.506
2944,0.006,0.469
2945,0.005,0.469
2946,0.004,0.469
2947,0.003,0.469
2948,0.001,0.427
2949,-0.001,0.427
2950,-0.003,0.427
2951,-0.005,0.427
2952,-0.005,0.381
2953,-0.006,0.381
2954,-0.005,0.381
2955,-0.005,0.381
2956,-0.004,0.333
2957,-0.003,0.333
2958,-0.002,0.333
2959,-0.001,0.333
2960,-0.001,0.278
2961,-0.001,0.278
2962,-0.003,0.278
2963,-0.004,0.278
2964,-0.006,0.226
2965,-0.009,0.226
2966,-0.012,0.226
2967,-0.015,0.226
2968,-0.018,0.172
2969,-0.021,0.172
2970,-0.023,0.172
2971,-0.025,0.172
2972,-0.025,0.119
2973,-0.024,0.119
2974,-0.022,0.119
2975,-0.021,0.119
2976,-0.020,0.069
2977,-0.019,0.069
2978,-0.018,0.069
2979,-0.017,0.069
2980,-0.016,0.018
2981,-0.015,0.018
2982,-0.013,0.018
2983,-0.011,0.018
2984,-0.011,-0.028
2985,-0.010,-0.028
2986,-0.009,-0.028
2987,-0.008,-0.028
2988,-0.006,-0.073
2989,-0.005,-0.073
2990,-0.003,-0.073
2991,-0.001,-0.073
2992,-0.001,-0.117
2993,-0.001,-0.117
2994,-0.003,-0.117
2995,-0.004,-0.117
2996,-0.006,-0.155
2997,-0.008,-0.155
2998,-0.010,-0.155
2999,-0.012,-0.155
3000,-0.014,-0.194
3001,-0.016,-0.194
3002,-0.017,-0.194
3003,-0.018,-0.194
3004,-0.018,-0.230
3005,-0.019,-0.230
3006,-0.019,-0.230
3007,-0.019,-0.230
3008,-0.019,-0.282
3009,-0.019,-0.282
3010,-0.020,-0.282
3011,-0.021,-0.282
3012,-0.024,-0.310
3013,-0.027,-0.310
3014,-0.030,-0.310
3015,-0.034,-0.310
3016,-0.035,-0.334
3017,-0.036,-0.334
3018,-0.032,-0.334
3019,-0.027,-0.334
3020,-0.011,-0.358
3021,0.004,-0.358
3022,0.034,-0.358
3023,0.064,-0.358
3024,0.110,-0.382
3025,0.156,-0.382
3026,0.215,-0.382
3027,0.275,-0.382
3028,0.338,-0.404
3029,0.400,-0.404
3030,0.448,-0.404
3031,0.495,-0.404
3032,0.510,-0.423
3033,0.525,-0.423
3034,0.501,-0.423
3035,0.477,-0.423
3036,0.420,-0.441
3037,0.364,-0.441
3038,0.293,-0.441
3039,0.222,-0.441
3040,0.154,-0.461
3041,0.086,-0.461
3042,0.032,-0.461
3043,-0.022,-0.461
3044,-0.057,-0.477
3045,-0.092,-0.477
3046,-0.110,-0.477
3047,-0.127,-0.477
3048,-0.129,-0.494
3049,-0.131,-0.494
3050,-0.124,-0.494
3051,-0.117,-0.494
3052,-0.108,-0.509
3053,-0.100,-0.509
3054,-0.095,-0.509
3055,-0.089,-0.509
3056,-0.086,-0.523
3057,-0.083,-0.523
3058,-0.081,-0.523
3059,-0.079,-0.523
3060,-0.077,-0.535
3061,-0.075,-0.535
3062,-0.072,-0.535
3063,-0.069,-0.535
3064,-0.066,-0.545
3065,-0.062,-0.545
3066,-0.059,-0.545
3067,-0.055,-0.545
3068,-0.051,-0.555
3069,-0.048,-0.555
3070,-0.045,-0.555
3071,-0.043,-0.555
3072,-0.042,-0.564
3073,-0.041,-0.564
3074,-0.043,-0.564
3075,-0.044,-0.564
3076,-0.046,-0.574
3077,-0.048,-0.574
3078,-0.048,-0.574
3079,-0.048,-0.574
3080,-0.048,-0.583
3081,-0.048,-0.583
3082,-0.048,-0.583
3083,-0.047,-0.583
3084,-0.045,-0.589
3085,-0.044,-0.589
3086,-0.044,-0.589
3087,-0.045,-0.589
3088,-0.046,-0.599
3089,-0.048,-0.599
3090,-0.050,-0.599
3091,-0.052,-0.599
3092,-0.053,-0.606
3093,-0.055,-0.606
3094,-0.054,-0.606
3095,-0.054,-0.606
3096,-0.052,-0.613
3097,-0.050,-0.613
3098,-0.048,-0.613
3099,-0.045,-0.613
3100,-0.044,-0.623
3101,-0.044,-0.623
3102,-0.046,-0.623
3103,-0.049,-0.623
3104,-0.052,-0.633
3105,-0.056,-0.633
3106,-0.060,-0.633
3107,-0.065,-0.633
3108,-0.069,-0.641
3109,-0.073,-0.641
3110,-0.076,-0.641
3111,-0.079,-0.641
3112,-0.080,-0.648
3113,-0.081,-0.648
3114,-0.081,-0.648
3115,-0.081,-0.648
3116,-0.081,-0.656
3117,-0.081,-0.656
3118,-0.082,-0.656
3119,-0.083,-0.656
3120,-0.086,-0.661
3121,-0.089,-0.661
3122,-0.093,-0.661
3123,-0.098,-0.661
3124,-0.102,-0.663
3125,-0.107,-0.663
3126,-0.112,-0.663
3127,-0.117,-0.663
3128,-0.121,-0.661
3129,-0.125,-0.661
3130,-0.129,-0.661
3131,-0.132,-0.661
3132,-0.135,-0.650
3133,-0.138,-0.650
3134,-0.140,-0.650
3135,-0.141,-0.650
3136,-0.142,-0.633
3137,-0.144,-0.633
3138,-0.145,-0.633
3139,-0.147,-0.633
3140,-0.149,-0.606
3141,-0.151,-0.606
3142,-0.152,-0.606
3143,-0.154,-0.606
3144,-0.154,-0.569
3145,-0.154,-0.569
3146,-0.151,-0.569
3147,-0.149,-0.569
3148,-0.145,-0.516
3149,-0.142,-0.516
3150,-0.138,-0.516
3151,-0.134,-0.516
3152,-0.131,-0.458
3153,-0.127,-0.458
3154,-0.123,-0.458
3155,-0.120,-0.458
3156,-0.118,-0.385
3157,-0.116,-0.385
3158,-0.115,-0.385
3159,-0.114,-0.385
3160,-0.113,-0.305
3161,-0.111,-0.305
3162,-0.107,-0.305
3163,-0.104,-0.305
3164,-0.099,-0.218
3165,-0.093,-0.218
3166,-0.086,-0.218
3167,-0.078,-0.218
3168,-0.071,-0.132
3169,-0.064,-0.132
3170,-0.059,-0.132
3171,-0.053,-0.132
3172,-0.049,-0.045
3173,-0.045,-0.045
3174,-0.043,-0.045
3175,-0.041,-0.045
3176,-0.041,0.038
3177,-0.040,0.038
3178,-0.040,0.038
3179,-0.039,0.038
3180,-0.038,0.115
3181,-0.037,0.115
3182,-0.036,0.115
3183,-0.036,0.115
3184,-0.035,0.184
3185,-0.033,0.184
3186,-0.032,0.184
3187,-0.030,0.184
3188,-0.029,0.241
3189,-0.028,0.241
3190,-0.028,0.241
3191,-0.027,0.241
3192,-0.025,0.288
3193,-0.024,0.288
3194,-0.024,0.288
3195,-0.023,0.288
3196,-0.022,0.324
3197,-0.021,0.324
3198,-0.019,0.324
3199,-0.018,0.324
3200,-0.015,0.347
3201,-0.013,0.347
3202,-0.011,0.347
3203,-0.008,0.347
3204,-0.007,0.362
3205,-0.007,0.362
3206,-0.007,0.362
3207,-0.007,0.362
3208,-0.007,0.368
3209,-0.008,0.368
3210,-0.007,0.368
3211,-0.006,0.368
3212,-0.004,0.366
3213,-0.001,0.366
3214,0.000,0.366
3215,0.001,0.366
3216,0.002,0.352
3217,0.002,0.352
3218,0.001,0.352
3219,-0.001,0.352
3220,-0.004,0.331
3221,-0.006,0.331
3222,-0.009,0.331
3223,-0.012,0.331
3224,-0.017,0.303
3225,-0.021,0.303
3226,-0.025,0.303
3227,-0.030,0.303
3228,-0.032,0.274
3229,-0.034,0.274
3230,-0.034,0.274
3231,-0.033,0.274
3232,-0.030,0.238
3233,-0.028,0.238
3234,-0.025,0.238
3235,-0.022,0.238
3236,-0.019,0.196
3237,-0.017,0.196
3238,-0.017,0.196
3239,-0.016,0.196
3240,-0.017,0.153
3241,-0.017,0.153
3242,-0.017,0.153
3243,-0.017,0.153
3244,-0.017,0.110
3245,-0.016,0.110
3246,-0.015,0.110
3247,-0.013,0.110
3248,-0.012,0.066
3249,-0.011,0.066
3250,-0.015,0.066
3251,-0.018,0.066
3252,-0.024,0.020
3253,-0.029,0.020
3254,-0.029,0.020
3255,-0.030,0.020
3256,-0.019,-0.024
3257,-0.009,-0.024
3258,0.019,-0.024
3259,0.047,-0.024
3260,0.095,-0.064
3261,0.142,-0.064
3262,0.205,-0.064
3263,0.268,-0.064
3264,0.335,-0.104
3265,0.401,-0.104
3266,0.454,-0.104
3267,0.506,-0.104
3268,0.527,-0.140
3269,0.549,-0.140
3270,0.533,-0.140
3271,0.518,-0.140
3272,0.469,-0.175
3273,0.420,-0.175
3274,0.353,-0.175
3275,0.287,-0.175
3276,0.221,-0.211
3277,0.154,-0.211
3278,0.100,-0.211
3279,0.045,-0.211
3280,0.006,-0.239
3281,-0.033,-0.239
3282,-0.056,-0.239
3283,-0.078,-0.239
3284,-0.086,-0.267
3285,-0.093,-0.267
3286,-0.090,-0.267
3287,-0.088,-0.267
3288,-0.081,-0.292
3289,-0.074,-0.292
3290,-0.067,-0.292
3291,-0.059,-0.292
3292,-0.052,-0.312
3293,-0.046,-0.312
3294,-0.042,-0.312
3295,-0.038,-0.312
3296,-0.036,-0.331
3297,-0.034,-0.331
3298,-0.034,-0.331
3299,-0.034,-0.331
3300,-0.035,-0.349
3301,-0.037,-0.349
3302,-0.040,-0.349
3303,-0.042,-0.349
3304,-0.045,-0.364
3305,-0.048,-0.364
3306,-0.050,-0.364
3307,-0.052,-0.364
3308,-0.051,-0.377
3309,-0.050,-0.377
3310,-0.046,-0.377
3311,-0.043,-0.377
3312,-0.040,-0.390
3313,-0.036,-0.390
3314,-0.034,-0.390
3315,-0.032,-0.390
3316,-0.030,-0.400
3317,-0.029,-0.400
3318,-0.028,-0.400
3319,-0.026,-0.400
3320,-0.026,-0.410
3321,-0.026,-0.410
3322,-0.028,-0.410
3323,-0.030,-0.410
3324,-0.032,-0.420
3325,-0.034,-0.420
3326,-0.036,-0.420
3327,-0.038,-0.420
3328,-0.038,-0.427
3329,-0.039,-0.427
3330,-0.038,-0.427
3331,-0.038,-0.427
3332,-0.037,-0.437
3333,-0.037,-0.437
3334,-0.036,-0.437
3335,-0.036,-0.437
3336,-0.035,-0.444
3337,-0.034,-0.444
3338,-0.034,-0.444
3339,-0.033,-0.444
3340,-0.033,-0.454
3341,-0.033,-0.454
3342,-0.034,-0.454
3343,-0.034,-0.454
3344,-0.035,-0.461
3345,-0.037,-0.461
3346,-0.039,-0.461
3347,-0.041,-0.461
3348,-0.043,-0.469
3349,-0.045,-0.469
3350,-0.046,-0.469
3351,-0.048,-0.469
3352,-0.048,-0.474
3353,-0.048,-0.474
3354,-0.049,-0.474
3355,-0.049,-0.474
3356,-0.051,-0.479
3357,-0.052,-0.479
3358,-0.054,-0.479
3359,-0.056,-0.479
3360,-0.058,-0.482
3361,-0.059,-0.482
3362,-0.060,-0.482
3363,-0.062,-0.482
3364,-0.066,-0.486
3365,-0.069,-0.486
3366,-0.073,-0.486
3367,-0.077,-0.486
3368,-0.081,-0.486
3369,-0.085,-0.486
3370,-0.089,-0.486
3371,-0.093,-0.486
3372,-0.095,-0.484
3373,-0.097,-0.484
3374,-0.098,-0.484
3375,-0.099,-0.484
3376,-0.100,-0.479
3377,-0.100,-0.479
3378,-0.101,-0.479
3379,-0.102,-0.479
3380,-0.103,-0.464
3381,-0.104,-0.464
3382,-0.105,-0.464
3383,-0.107,-0.464
3384,-0.108,-0.448
3385,-0.109,-0.448
3386,-0.110,-0.448
3387,-0.111,-0.448
3388,-0.109,-0.422
3389,-0.107,-0.422
3390,-0.103,-0.422
3391,-0.099,-0.422
3392,-0.093,-0.388
3393,-0.088,-0.388
3394,-0.083,-0.388
3395,-0.078,-0.388
3396,-0.073,-0.347
3397,-0.069,-0.347
3398,-0.066,-0.347
3399,-0.063,-0.347
3400,-0.060,-0.300
3401,-0.057,-0.300
3402,-0.056,-0.300
3403,-0.054,-0.300
3404,-0.052,-0.246
3405,-0.050,-0.246
3406,-0.046,-0.246
3407,-0.043,-0.246
3408,-0.039,-0.188
3409,-0.035,-0.188
3410,-0.032,-0.188
3411,-0.028,-0.188
3412,-0.025,-0.125
3413,-0.021,-0.125
3414,-0.018,-0.125
3415,-0.014,-0.125
3416,-0.013,-0.061
3417,-0.011,-0.061
3418,-0.011,-0.061
3419,-0.010,-0.061
3420,-0.009,0.000
3421,-0.007,0.000
3422,-0.005,0.000
3423,-0.003,0.000
3424,-0.002,0.060
3425,0.000,0.060
3426,0.002,0.060
3427,0.004,0.060
3428,0.006,0.113
3429,0.008,0.113
3430,0.009,0.113
3431,0.011,0.113
3432,0.011,0.160
3433,0.011,0.160
3434,0.011,0.160
3435,0.011,0.160
3436,0.011,0.201
3437,0.011,0.201
3438,0.011,0.201
3439,0.010,0.201
3440,0.009,0.233
3441,0.008,0.233
3442,0.007,0.233
3443,0.006,0.233
3444,0.007,0.255
3445,0.008,0.255
3446,0.009,0.255
3447,0.011,0.255
3448,0.013,0.268
3449,0.015,0.268
3450,0.017,0.268
3451,0.018,0.268
3452,0.018,0.272
3453,0.019,0.272
3454,0.018,0.272
3455,0.018,0.272
3456,0.018,0.265
3457,0.018,0.265
3458,0.018,0.265
3459,0.018,0.265
3460,0.018,0.255
3461,0.017,0.255
3462,0.015,0.255
3463,0.014,0.255
3464,0.013,0.233
3465,0.011,0.233
3466,0.009,0.233
3467,0.008,0.233
3468,0.005,0.209
3469,0.003,0.209
3470,0.001,0.209
3471,-0.002,0.209
3472,-0.005,0.179
3473,-0.009,0.179
3474,-0.012,0.179
3475,-0.015,0.179
3476,-0.015,0.143
3477,-0.016,0.143
3478,-0.015,0.143
3479,-0.013,0.143
3480,-0.009,0.104
3481,-0.005,0.104
3482,0.000,0.104
3483,0.005,0.104
3484,0.010,0.066
3485,0.015,0.066
3486,0.017,0.066
3487,0.019,0.066
3488,0.018,0.025
3489,0.016,0.025
3490,0.011,0.025
3491,0.005,0.025
3492,-0.002,-0.017
3493,-0.008,-0.017
3494,-0.009,-0.017
3495,-0.011,-0.017
3496,0.002,-0.056
3497,0.014,-0.056
3498,0.043,-0.056
3499,0.072,-0.056
3500,0.120,-0.093
3501,0.169,-0.093
3502,0.234,-0.093
3503,0.299,-0.093
3504,0.368,-0.130
3505,0.437,-0.130
3506,0.489,-0.130
3507,0.542,-0.130
3508,0.560,-0.166
3509,0.578,-0.166
3510,0.554,-0.166
3511,0.530,-0.166
3512,0.471,-0.196
3513,0.413,-0.196
3514,0.341,-0.196
3515,0.268,-0.196
3516,0.201,-0.225
3517,0.134,-0.225
3518,0.084,-0.225
3519,0.033,-0.225
3520,0.001,-0.226
3521,-0.032,-0.226
3522,-0.049,-0.226
3523,-0.065,-0.226
3524,-0.068,-0.252
3525,-0.071,-0.252
3526,-0.068,-0.252
3527,-0.064,-0.252
3528,-0.059,-0.277
3529,-0.054,-0.277
3530,-0.048,-0.277
3531,-0.041,-0.277
3532,-0.037,-0.298
3533,-0.033,-0.298
3534,-0.030,-0.298
3535,-0.027,-0.298
3536,-0.025,-0.319
3537,-0.022,-0.319
3538,-0.021,-0.319
3539,-0.019,-0.319
3540,-0.019,-0.335
3541,-0.019,-0.335
3542,-0.021,-0.335
3543,-0.023,-0.335
3544,-0.025,-0.350
3545,-0.027,-0.350
3546,-0.029,-0.350
3547,-0.030,-0.350
3548,-0.029,-0.365
3549,-0.029,-0.365
3550,-0.028,-0.365
3551,-0.027,-0.365
3552,-0.025,-0.379
3553,-0.024,-0.379
3554,-0.023,-0.379
3555,-0.022,-0.379
3556,-0.021,-0.392
3557,-0.020,-0.392
3558,-0.021,-0.392
3559,-0.021,-0.392
3560,-0.022,-0.403
3561,-0.023,-0.403
3562,-0.024,-0.403
3563,-0.025,-0.403
3564,-0.025,-0.413
3565,-0.025,-0.413
3566,-0.021,-0.413
3567,-0.018,-0.413
3568,-0.013,-0.424
3569,-0.009,-0.424
3570,-0.006,-0.424
3571,-0.003,-0.424
3572,-0.001,-0.433
3573,0.001,-0.433
3574,0.002,-0.433
3575,0.002,-0.433
3576,0.001,-0.442
3577,0.000,-0.442
3578,-0.002,-0.442
3579,-0.003,-0.442
3580,-0.004,-0.449
3581,-0.006,-0.449
3582,-0.007,-0.449
3583,-0.009,-0.449
3584,-0.009,-0.456
3585,-0.010,-0.456
3586,-0.010,-0.456
3587,-0.010,-0.456
3588,-0.011,-0.463
3589,-0.013,-0.463
3590,-0.016,-0.463
3591,-0.019,-0.463
3592,-0.022,-0.465
3593,-0.026,-0.465
3594,-0.030,-0.465
3595,-0.035,-0.465
3596,-0.038,-0.465
3597,-0.042,-0.465
3598,-0.045,-0.465
3599,-0.049,-0.465
3600,-0.051,-0.462
3601,-0.053,-0.462
3602,-0.054,-0.462
3603,-0.055,-0.462
3604,-0.055,-0.451
3605,-0.055,-0.451
3606,-0.056,-0.451
3607,-0.056,-0.451
3608,-0.058,-0.433
3609,-0.060,-0.433
3610,-0.061,-0.433
3611,-0.063,-0.433
3612,-0.065,-0.403
3613,-0.067,-0.403
3614,-0.069,-0.403
3615,-0.071,-0.403
3616,-0.072,-0.365
3617,-0.074,-0.365
3618,-0.076,-0.365
3619,-0.078,-0.365
3620,-0.080,-0.313
3621,-0.082,-0.313
3622,-0.084,-0.313
3623,-0.085,-0.313
3624,-0.086,-0.251
3625,-0.086,-0.251
3626,-0.083,-0.251
3627,-0.080,-0.251
3628,-0.075,-0.177
3629,-0.071,-0.177
3630,-0.066,-0.177
3631,-0.061,-0.177
3632,-0.057,-0.097
3633,-0.052,-0.097
3634,-0.048,-0.097
3635,-0.044,-0.097
3636,-0.041,-0.007
3637,-0.038,-0.007
3638,-0.035,-0.007
3639,-0.033,-0.007
3640,-0.030,0.084
3641,-0.028,0.084
3642,-0.025,0.084
3643,-0.022,0.084
3644,-0.019,0.177
3645,-0.017,0.177
3646,-0.015,0.177
3647,-0.014,0.177
3648,-0.013,0.269
3649,-0.011,0.269
3650,-0.011,0.269
3651,-0.011,0.269
3652,-0.011,0.354
3653,-0.010,0.354
3654,-0.008,0.354
3655,-0.006,0.354
3656,-0.003,0.431
3657,0.000,0.431
3658,0.003,0.431
3659,0.005,0.431
3660,0.009,0.503
3661,0.012,0.503
3662,0.015,0.503
3663,0.018,0.503
3664,0.021,0.564
3665,0.024,0.564
3666,0.026,0.564
3667,0.029,0.564
3668,0.032,0.612
3669,0.034,0.612
3670,0.035,0.612
3671,0.035,0.612
3672,0.034,0.649
3673,0.033,0.649
3674,0.033,0.649
3675,0.032,0.649
3676,0.032,0.678
3677,0.031,0.678
3678,0.031,0.678
3679,0.031,0.678
3680,0.032,0.695
3681,0.032,0.695
3682,0.033,0.695
3683,0.034,0.695
3684,0.036,0.698
3685,0.038,0.698
3686,0.041,0.698
3687,0.043,0.698
3688,0.043,0.693
3689,0.044,0.693
3690,0.044,0.693
3691,0.044,0.693
3692,0.044,0.676
3693,0.045,0.676
3694,0.046,0.676
3695,0.047,0.676
3696,0.047,0.653
3697,0.047,0.653
3698,0.046,0.653
3699,0.046,0.653
3700,0.044,0.621
3701,0.042,0.621
3702,0.038,0.621
3703,0.035,0.621
3704,0.032,0.584
3705,0.028,0.584
3706,0.026,0.584
3707,0.024,0.584
3708,0.024,0.540
3709,0.023,0.540
3710,0.024,0.540
3711,0.025,0.540
3712,0.026,0.494
3713,0.027,0.494
3714,0.028,0.494
3715,0.028,0.494
3716,0.029,0.444
3717,0.029,0.444
3718,0.029,0.444
3719,0.028,0.444
3720,0.026,0.390
3721,0.024,0.390
3722,0.020,0.390
3723,0.016,0.390
3724,0.011,0.337
3725,0.007,0.337
3726,0.006,0.337
3727,0.006,0.337
3728,0.014,0.284
3729,0.022,0.284
3730,0.043,0.284
3731,0.065,0.284
3732,0.104,0.229
3733,0.144,0.229
3734,0.202,0.229
3735,0.260,0.229
3736,0.327,0.175
3737,0.394,0.175
3738,0.449,0.175
3739,0.504,0.175
3740,0.527,0.123
3741,0.551,0.123
3742,0.535,0.123
3743,0.519,0.123
3744,0.467,0.075
3745,0.415,0.075
3746,0.346,0.075
3747,0.277,0.075
3748,0.210,0.027
3749,0.144,0.027
3750,0.093,0.027
3751,0.042,0.027
3752,0.009,-0.018
3753,-0.023,-0.018
3754,-0.040,-0.018
3755,-0.057,-0.018
3756,-0.063,-0.059
3757,-0.069,-0.059
3758,-0.068,-0.059
3759,-0.066,-0.059
3760,-0.061,-0.097
3761,-0.056,-0.097
3762,-0.049,-0.097
3763,-0.042,-0.097
3764,-0.033,-0.132
3765,-0.024,-0.132
3766,-0.015,-0.132
3767,-0.005,-0.132
3768,0.002,-0.161
3769,0.009,-0.161
3770,0.013,-0.161
3771,0.016,-0.161
3772,0.017,-0.192
3773,0.018,-0.192
3774,0.019,-0.192
3775,0.020,-0.192
3776,0.021,-0.207
3777,0.021,-0.207
3778,0.021,-0.207
3779,0.021,-0.207
3780,0.019,-0.229
3781,0.018,-0.229
3782,0.015,-0.229
3783,0.013,-0.229
3784,0.011,-0.248
3785,0.010,-0.248
3786,0.009,-0.248
3787,0.007,-0.248
3788,0.006,-0.268
3789,0.006,-0.268
3790,0.007,-0.268
3791,0.008,-0.268
3792,0.009,-0.284
3793,0.011,-0.284
3794,0.013,-0.284
3795,0.015,-0.284
3796,0.017,-0.302
3797,0.018,-0.302
3798,0.019,-0.302
3799,0.020,-0.302
3800,0.021,-0.318
3801,0.021,-0.318
3802,0.021,-0.318
3803,0.021,-0.318
3804,0.020,-0.335
3805,0.019,-0.335
3806,0.018,-0.335
3807,0.017,-0.335
3808,0.018,-0.348
3809,0.018,-0.348
3810,0.017,-0.348
3811,0.016,-0.348
3812,0.013,-0.363
3813,0.011,-0.363
3814,0.008,-0.363
3815,0.005,-0.363
3816,0.002,-0.379
3817,-0.001,-0.379
3818,-0.003,-0.379
3819,-0.005,-0.379
3820,-0.006,-0.394
3821,-0.007,-0.394
3822,-0.007,-0.394
3823,-0.008,-0.394
3824,-0.008,-0.406
3825,-0.008,-0.406
3826,-0.008,-0.406
3827,-0.008,-0.406
3828,-0.009,-0.418
3829,-0.011,-0.418
3830,-0.013,-0.418
3831,-0.016,-0.418
3832,-0.020,-0.425
3833,-0.024,-0.425
3834,-0.028,-0.425
3835,-0.032,-0.425
3836,-0.036,-0.431
3837,-0.041,-0.431
3838,-0.046,-0.431
3839,-0.051,-0.431
3840,-0.056,-0.429
3841,-0.060,-0.429
3842,-0.065,-0.429
3843,-0.069,-0.429
3844,-0.074,-0.420
3845,-0.079,-0.420
3846,-0.084,-0.420
3847,-0.089,-0.420
3848,-0.092,-0.404
3849,-0.096,-0.404
3850,-0.096,-0.404
3851,-0.095,-0.404
3852,-0.092,-0.373
3853,-0.090,-0.373
3854,-0.086,-0.373
3855,-0.083,-0.373
3856,-0.080,-0.336
3857,-0.076,-0.336
3858,-0.073,-0.336
3859,-0.071,-0.336
3860,-0.068,-0.286
3861,-0.065,-0.286
3862,-0.061,-0.286
3863,-0.057,-0.286
3864,-0.052,-0.229
3865,-0.047,-0.229
3866,-0.043,-0.229
3867,-0.038,-0.229
3868,-0.035,-0.159
3869,-0.033,-0.159
3870,-0.031,-0.159
3871,-0.029,-0.159
3872,-0.026,-0.086
3873,-0.024,-0.086
3874,-0.021,-0.086
3875,-0.017,-0.086
3876,-0.013,-0.005
3877,-0.008,-0.005
3878,-0.003,-0.005
3879,0.002,-0.005
3880,0.007,0.075
3881,0.013,0.075
3882,0.018,0.075
3883,0.023,0.075
3884,0.026,0.152
3885,0.030,0.152
3886,0.032,0.152
3887,0.034,0.152
3888,0.035,0.226
3889,0.035,0.226
3890,0.034,0.226
3891,0.032,0.226
3892,0.030,0.292
3893,0.028,0.292
3894,0.026,0.292
3895,0.025,0.292
3896,0.024,0.351
3897,0.022,0.351
3898,0.022,0.351
3899,0.022,0.351
3900,0.025,0.401
3901,0.027,0.401
3902,0.030,0.401
3903,0.034,0.401
3904,0.038,0.441
3905,0.042,0.441
3906,0.045,0.441
3907,0.049,0.441
3908,0.051,0.466
3909,0.054,0.466
3910,0.054,0.466
3911,0.055,0.466
3912,0.054,0.483
3913,0.054,0.483
3914,0.052,0.483
3915,0.051,0.483
3916,0.049,0.490
3917,0.047,0.490
3918,0.046,0.490
3919,0.046,0.490
3920,0.044,0.492
3921,0.043,0.492
3922,0.041,0.492
3923,0.038,0.492
3924,0.035,0.479
3925,0.032,0.479
3926,0.030,0.479
3927,0.028,0.479
3928,0.027,0.462
3929,0.026,0.462
3930,0.025,0.462
3931,0.024,0.462
3932,0.022,0.433
3933,0.021,0.433
3934,0.021,0.433
3935,0.020,0.433
3936,0.024,0.403
3937,0.027,0.403
3938,0.042,0.403
3939,0.056,0.403
3940,0.084,0.365
3941,0.111,0.365
3942,0.151,0.365
3943,0.192,0.365
3944,0.243,0.321
3945,0.294,0.321
3946,0.348,0.321
3947,0.403,0.321
3948,0.446,0.276
3949,0.488,0.276
3950,0.502,0.276
3951,0.516,0.276
3952,0.494,0.226
3953,0.473,0.226
3954,0.420,0.226
3955,0.368,0.226
3956,0.300,0.175
3957,0.232,0.175
3958,0.169,0.175
3959,0.105,0.175
3960,0.057,0.127
3961,0.008,0.127
3962,-0.022,0.127
3963,-0.052,0.127
3964,-0.064,0.077
3965,-0.076,0.077
3966,-0.074,0.077
3967,-0.073,0.077
3968,-0.065,0.030
3969,-0.056,0.030
3970,-0.046,0.030
3971,-0.037,0.030
3972,-0.031,-0.018
3973,-0.025,-0.018
3974,-0.022,-0.018
3975,-0.020,-0.018
3976,-0.019,-0.062
3977,-0.018,-0.062
3978,-0.015,-0.062
3979,-0.013,-0.062
3980,-0.009,-0.105
3981,-0.005,-0.105
3982,-0.001,-0.105
3983,0.004,-0.105
3984,0.008,-0.144
3985,0.012,-0.144
3986,0.014,-0.144
3987,0.016,-0.144
3988,0.017,-0.182
3989,0.018,-0.182
3990,0.018,-0.182
3991,0.018,-0.182
3992,0.016,-0.218
3993,0.014,-0.218
3994,0.013,-0.218
3995,0.011,-0.218
3996,0.010,-0.251
3997,0.009,-0.251
3998,0.009,-0.251
3999,0.008,-0.251
4000,0.007,-0.281
4001,0.006,-0.281
4002,0.006,-0.281
4003,0.007,-0.281
4004,0.006,-0.311
4005,0.006,-0.311
4006,0.004,-0.311
4007,0.003,-0.311
4008,0.002,-0.338
4009,0.000,-0.338
4010,-0.001,-0.338
4011,-0.001,-0.338
4012,-0.001,-0.365
4013,-0.001,-0.365
4014,-0.002,-0.365
4015,-0.003,-0.365
4016,-0.004,-0.386
4017,-0.005,-0.386
4018,-0.006,-0.386
4019,-0.008,-0.386
4020,-0.011,-0.409
4021,-0.013,-0.409
4022,-0.015,-0.409
4023,-0.018,-0.409
4024,-0.019,-0.427
4025,-0.021,-0.427
4026,-0.024,-0.427
4027,-0.026,-0.427
4028,-0.029,-0.446
4029,-0.031,-0.446
4030,-0.032,-0.446
4031,-0.033,-0.446
4032,-0.034,-0.472
4033,-0.035,-0.472
4034,-0.036,-0.472
4035,-0.037,-0.472
4036,-0.039,-0.489
4037,-0.041,-0.489
4038,-0.043,-0.489
4039,-0.045,-0.489
4040,-0.047,-0.500
4041,-0.049,-0.500
4042,-0.051,-0.500
4043,-0.052,-0.500
4044,-0.054,-0.511
4045,-0.056,-0.511
4046,-0.059,-0.511
4047,-0.061,-0.511
4048,-0.064,-0.518
4049,-0.067,-0.518
4050,-0.070,-0.518
4051,-0.074,-0.518
4052,-0.076,-0.522
4053,-0.078,-0.522
4054,-0.078,-0.522
4055,-0.078,-0.522
4056,-0.077,-0.518
4057,-0.077,-0.518
4058,-0.077,-0.518
4059,-0.078,-0.518
4060,-0.079,-0.511
4061,-0.080,-0.511
4062,-0.081,-0.511
4063,-0.082,-0.511
4064,-0.083,-0.492
4065,-0.084,-0.492
4066,-0.084,-0.492
4067,-0.084,-0.492
4068,-0.082,-0.463
4069,-0.080,-0.463
4070,-0.077,-0.463
4071,-0.075,-0.463
4072,-0.071,-0.428
4073,-0.068,-0.428
4074,-0.065,-0.428
4075,-0.061,-0.428
4076,-0.057,-0.382
4077,-0.053,-0.382
4078,-0.050,-0.382
4079,-0.046,-0.382
4080,-0.042,-0.327
4081,-0.038,-0.327
4082,-0.033,-0.327
4083,-0.027,-0.327
4084,-0.020,-0.262
4085,-0.013,-0.262
4086,-0.008,-0.262
4087,-0.003,-0.262
4088,0.000,-0.192
4089,0.003,-0.192
4090,0.004,-0.192
4091,0.006,-0.192
4092,0.007,-0.122
4093,0.008,-0.122
4094,0.007,-0.122
4095,0.007,-0.122
4096,0.007,-0.053
4097,0.008,-0.053
4098,0.009,-0.053
4099,0.010,-0.053
4100,0.011,0.013
4101,0.011,0.013
4102,0.011,0.013
4103,0.012,0.013
4104,0.013,0.075
4105,0.014,0.075
4106,0.015,0.075
4107,0.016,0.075
4108,0.017,0.127
4109,0.018,0.127
4110,0.020,0.127
4111,0.022,0.127
4112,0.022,0.175
4113,0.023,0.175
4114,0.024,0.175
4115,0.025,0.175
4116,0.025,0.210
4117,0.026,0.210
4118,0.025,0.210
4119,0.025,0.210
4120,0.025,0.234
4121,0.025,0.234
4122,0.025,0.234
4123,0.024,0.234
4124,0.023,0.247
4125,0.022,0.247
4126,0.022,0.247
4127,0.022,0.247
4128,0.022,0.254
4129,0.022,0.254
4130,0.021,0.254
4131,0.021,0.254
4132,0.019,0.248
4133,0.018,0.248
4134,0.015,0.248
4135,0.012,0.248
4136,0.009,0.239
4137,0.007,0.239
4138,0.006,0.239
4139,0.006,0.239
4140,0.007,0.219
4141,0.008,0.219
4142,0.009,0.219
4143,0.011,0.219
4144,0.013,0.194
4145,0.014,0.194
4146,0.014,0.194
4147,0.014,0.194
4148,0.012,0.159
4149,0.010,0.159
4150,0.010,0.159
4151,0.010,0.159
4152,0.018,0.121
4153,0.026,0.121
4154,0.047,0.121
4155,0.068,0.121
4156,0.104,0.083
4157,0.140,0.083
4158,0.190,0.083
4159,0.240,0.083
4160,0.298,0.036
4161,0.357,0.036
4162,0.411,0.036
4163,0.465,0.036
4164,0.497,-0.009
4165,0.529,-0.009
4166,0.528,-0.009
4167,0.528,-0.009
4168,0.493,-0.058
4169,0.459,-0.058
4170,0.400,-0.058
4171,0.341,-0.058
4172,0.275,-0.105
4173,0.208,-0.105
4174,0.149,-0.105
4175,0.091,-0.105
4176,0.049,-0.153
4177,0.006,-0.153
4178,-0.019,-0.153
4179,-0.044,-0.153
4180,-0.053,-0.201
4181,-0.062,-0.201
4182,-0.059,-0.201
4183,-0.056,-0.201
4184,-0.046,-0.245
4185,-0.037,-0.245
4186,-0.025,-0.245
4187,-0.014,-0.245
4188,-0.004,-0.288
4189,0.006,-0.288
4190,0.011,-0.288
4191,0.017,-0.288
4192,0.019,-0.325
4193,0.022,-0.325
4194,0.022,-0.325
4195,0.022,-0.325
4196,0.022,-0.361
4197,0.022,-0.361
4198,0.022,-0.361
4199,0.022,-0.361
4200,0.022,-0.391
4201,0.022,-0.391
4202,0.021,-0.391
4203,0.021,-0.391
4204,0.020,-0.419
4205,0.019,-0.419
4206,0.018,-0.419
4207,0.017,-0.419
4208,0.017,-0.443
4209,0.017,-0.443
4210,0.015,-0.443
4211,0.014,-0.443
4212,0.012,-0.463
4213,0.010,-0.463
4214,0.008,-0.463
4215,0.006,-0.463
4216,0.004,-0.479
4217,0.003,-0.479
4218,0.003,-0.479
4219,0.002,-0.479
4220,0.001,-0.494
4221,0.000,-0.494
4222,-0.001,-0.494
4223,-0.001,-0.494
4224,-0.001,-0.507
4225,-0.001,-0.507
4226,-0.002,-0.507
4227,-0.003,-0.507
4228,-0.004,-0.518
4229,-0.004,-0.518
4230,-0.004,-0.518
4231,-0.005,-0.518
4232,-0.006,-0.527
4233,-0.007,-0.527
4234,-0.007,-0.527
4235,-0.008,-0.527
4236,-0.008,-0.533
4237,-0.008,-0.533
4238,-0.008,-0.533
4239,-0.008,-0.533
4240,-0.009,-0.542
4241,-0.011,-0.542
4242,-0.013,-0.542
4243,-0.016,-0.542
4244,-0.019,-0.548
4245,-0.023,-0.548
4246,-0.025,-0.548
4247,-0.027,-0.548
4248,-0.029,-0.549
4249,-0.032,-0.549
4250,-0.035,-0.549
4251,-0.037,-0.549
4252,-0.038,-0.555
4253,-0.040,-0.555
4254,-0.041,-0.555
4255,-0.041,-0.555
4256,-0.041,-0.555
4257,-0.040,-0.555
4258,-0.040,-0.555
4259,-0.040,-0.555
4260,-0.040,-0.557
4261,-0.040,-0.557
4262,-0.041,-0.557
4263,-0.041,-0.557
4264,-0.043,-0.553
4265,-0.044,-0.553
4266,-0.046,-0.553
4267,-0.048,-0.553
4268,-0.048,-0.548
4269,-0.048,-0.548
4270,-0.048,-0.548
4271,-0.048,-0.548
4272,-0.049,-0.538
4273,-0.049,-0.538
4274,-0.050,-0.538
4275,-0.051,-0.538
4276,-0.051,-0.522
4277,-0.052,-0.522
4278,-0.051,-0.522
4279,-0.051,-0.522
4280,-0.049,-0.498
4281,-0.047,-0.498
4282,-0.044,-0.498
4283,-0.041,-0.498
4284,-0.036,-0.469
4285,-0.032,-0.469
4286,-0.026,-0.469
4287,-0.020,-0.469
4288,-0.014,-0.462
4289,-0.008,-0.462
4290,-0.004,-0.462
4291,0.001,-0.462
4292,0.004,-0.411
4293,0.008,-0.411
4294,0.011,-0.411
4295,0.013,-0.411
4296,0.016,-0.353
4297,0.019,-0.353
4298,0.022,-0.353
4299,0.025,-0.353
4300,0.029,-0.284
4301,0.033,-0.284
4302,0.037,-0.284
4303,0.042,-0.284
4304,0.044,-0.211
4305,0.047,-0.211
4306,0.048,-0.211
4307,0.049,-0.211
4308,0.051,-0.137
4309,0.053,-0.137
4310,0.056,-0.137
4311,0.059,-0.137
4312,0.063,-0.059
4313,0.067,-0.059
4314,0.070,-0.059
4315,0.074,-0.059
4316,0.075,0.016
4317,0.076,0.016
4318,0.074,0.016
4319,0.073,0.016
4320,0.071,0.086
4321,0.070,0.086
4322,0.069,0.086
4323,0.067,0.086
4324,0.066,0.149
4325,0.065,0.149
4326,0.063,0.149
4327,0.061,0.149
4328,0.059,0.202
4329,0.057,0.202
4330,0.056,0.202
4331,0.055,0.202
4332,0.054,0.244
4333,0.054,0.244
4334,0.055,0.244
4335,0.056,0.244
4336,0.058,0.278
4337,0.059,0.278
4338,0.060,0.278
4339,0.062,0.278
4340,0.062,0.298
4341,0.062,0.298
4342,0.062,0.298
4343,0.062,0.298
4344,0.062,0.310
4345,0.062,0.310
4346,0.061,0.310
4347,0.061,0.310
4348,0.060,0.310
4349,0.059,0.310
4350,0.059,0.310
4351,0.058,0.310
4352,0.058,0.300
4353,0.057,0.300
4354,0.055,0.300
4355,0.053,0.300
4356,0.050,0.282
4357,0.047,0.282
4358,0.044,0.282
4359,0.041,0.282
4360,0.038,0.256
4361,0.036,0.256
4362,0.033,0.256
4363,0.030,0.256
4364,0.028,0.222
4365,0.025,0.222
4366,0.024,0.222
4367,0.023,0.222
4368,0.027,0.185
4369,0.031,0.185
4370,0.046,0.185
4371,0.061,0.185
4372,0.090,0.141
4373,0.120,0.141
4374,0.166,0.141
4375,0.211,0.141
4376,0.272,0.092
4377,0.332,0.092
4378,0.392,0.092
4379,0.452,0.092
4380,0.491,0.046
4381,0.530,0.046
4382,0.533,0.046
4383,0.537,0.046
4384,0.503,-0.002
4385,0.469,-0.002
4386,0.409,-0.002
4387,0.349,-0.002
4388,0.282,-0.049
4389,0.215,-0.049
4390,0.159,-0.049
4391,0.102,-0.049
4392,0.066,-0.095
4393,0.030,-0.095
4394,0.013,-0.095
4395,-0.005,-0.095
4396,-0.008,-0.141
4397,-0.011,-0.141
4398,-0.005,-0.141
4399,0.001,-0.141
4400,0.009,-0.181
4401,0.017,-0.181
4402,0.024,-0.181
4403,0.031,-0.181
4404,0.036,-0.222
4405,0.041,-0.222
4406,0.043,-0.222
4407,0.044,-0.222
4408,0.043,-0.258
4409,0.041,-0.258
4410,0.040,-0.258
4411,0.038,-0.258
4412,0.035,-0.290
4413,0.033,-0.290
4414,0.033,-0.290
4415,0.032,-0.290
4416,0.032,-0.321
4417,0.032,-0.321
4418,0.033,-0.321
4419,0.033,-0.321
4420,0.033,-0.346
4421,0.032,-0.346
4422,0.030,-0.346
4423,0.029,-0.346
4424,0.029,-0.371
4425,0.029,-0.371
4426,0.029,-0.371
4427,0.028,-0.371
4428,0.027,-0.391
4429,0.026,-0.391
4430,0.025,-0.391
4431,0.024,-0.391
4432,0.023,-0.413
4433,0.022,-0.413
4434,0.021,-0.413
4435,0.020,-0.413
4436,0.017,-0.427
4437,0.014,-0.427
4438,0.013,-0.427
4439,0.011,-0.427
4440,0.011,-0.442
4441,0.010,-0.442
4442,0.011,-0.442
4443,0.012,-0.442
4444,0.013,-0.454
4445,0.014,-0.454
4446,0.015,-0.454
4447,0.015,-0.454
4448,0.015,-0.466
4449,0.014,-0.466
4450,0.014,-0.466
4451,0.014,-0.466
4452,0.014,-0.475
4453,0.014,-0.475
4454,0.013,-0.475
4455,0.013,-0.475
4456,0.012,-0.484
4457,0.011,-0.484
4458,0.009,-0.484
4459,0.008,-0.484
4460,0.004,-0.494
4461,0.001,-0.494
4462,-0.004,-0.494
4463,-0.009,-0.494
4464,-0.015,-0.500
4465,-0.020,-0.500
4466,-0.024,-0.500
4467,-0.028,-0.500
4468,-0.030,-0.508
4469,-0.032,-0.508
4470,-0.032,-0.508
4471,-0.031,-0.508
4472,-0.029,-0.508
4473,-0.027,-0.508
4474,-0.025,-0.508
4475,-0.022,-0.508
4476,-0.021,-0.508
4477,-0.019,-0.508
4478,-0.019,-0.508
4479,-0.019,-0.508
4480,-0.021,-0.500
4481,-0.023,-0.500
4482,-0.025,-0.500
4483,-0.028,-0.500
4484,-0.031,-0.484
4485,-0.034,-0.484
4486,-0.035,-0.484
4487,-0.037,-0.484
4488,-0.037,-0.458
4489,-0.037,-0.458
4490,-0.036,-0.458
4491,-0.036,-0.458
4492,-0.035,-0.417
4493,-0.034,-0.417
4494,-0.033,-0.417
4495,-0.031,-0.417
4496,-0.029,-0.367
4497,-0.026,-0.367
4498,-0.022,-0.367
4499,-0.019,-0.367
4500,-0.014,-0.306
4501,-0.009,-0.306
4502,-0.003,-0.306
4503,0.003,-0.306
4504,0.009,-0.236
4505,0.016,-0.236
4506,0.022,-0.236
4507,0.028,-0.236
4508,0.033,-0.151
4509,0.038,-0.151
4510,0.042,-0.151
4511,0.045,-0.151
4512,0.046,-0.060
4513,0.048,-0.060
4514,0.048,-0.060
4515,0.048,-0.060
4516,0.049,0.032
4517,0.049,0.032
4518,0.049,0.032
4519,0.049,0.032
4520,0.048,0.127
4521,0.046,0.127
4522,0.045,0.127
4523,0.045,0.127
4524,0.045,0.220
4525,0.046,0.220
4526,0.048,0.220
4527,0.049,0.220
4528,0.052,0.308
4529,0.055,0.308
4530,0.057,0.308
4531,0.059,0.308
4532,0.060,0.385
4533,0.061,0.385
4534,0.060,0.385
4535,0.059,0.385
4536,0.058,0.456
4537,0.056,0.456
4538,0.054,0.456
4539,0.052,0.456
4540,0.051,0.512
4541,0.050,0.512
4542,0.051,0.512
4543,0.051,0.512
4544,0.051,0.579
4545,0.051,0.579
4546,0.051,0.579
4547,0.051,0.579
4548,0.051,0.611
4549,0.051,0.611
4550,0.051,0.611
4551,0.051,0.611
4552,0.051,0.630
4553,0.051,0.630
4554,0.051,0.630
4555,0.051,0.630
4556,0.052,0.642
4557,0.053,0.642
4558,0.055,0.642
4559,0.057,0.642
4560,0.058,0.636
4561,0.059,0.636
4562,0.059,0.636
4563,0.058,0.636
4564,0.058,0.625
4565,0.058,0.625
4566,0.058,0.625
4567,0.057,0.625
4568,0.056,0.603
4569,0.055,0.603
4570,0.053,0.603
4571,0.052,0.603
4572,0.050,0.572
4573,0.048,0.572
4574,0.046,0.572
4575,0.045,0.572
4576,0.043,0.536
4577,0.041,0.536
4578,0.040,0.536
4579,0.039,0.536
4580,0.040,0.494
4581,0.041,0.494
4582,0.045,0.494
4583,0.049,0.494
4584,0.054,0.446
4585,0.060,0.446
4586,0.066,0.446
4587,0.071,0.446
4588,0.077,0.396
4589,0.083,0.396
4590,0.087,0.396
4591,0.092,0.396
4592,0.093,0.342
4593,0.094,0.342
4594,0.091,0.342
4595,0.088,0.342
4596,0.083,0.285
4597,0.077,0.285
4598,0.076,0.285
4599,0.076,0.285
4600,0.086,0.233
4601,0.096,0.233
4602,0.122,0.233
4603,0.149,0.233
4604,0.195,0.176
4605,0.240,0.176
4606,0.301,0.176
4607,0.363,0.176
4608,0.430,0.124
4609,0.497,0.124
4610,0.550,0.124
4611,0.603,0.124
4612,0.623,0.072
4613,0.643,0.072
4614,0.624,0.072
4615,0.604,0.072
4616,0.550,0.024
4617,0.496,0.024
4618,0.425,0.024
4619,0.355,0.024
4620,0.287,-0.020
4621,0.220,-0.020
4622,0.166,-0.020
4623,0.112,-0.020
4624,0.076,-0.066
4625,0.041,-0.066
4626,0.024,-0.066
4627,0.006,-0.066
4628,0.002,-0.102
4629,-0.003,-0.102
4630,0.001,-0.102
4631,0.004,-0.102
4632,0.007,-0.141
4633,0.011,-0.141
4634,0.013,-0.141
4635,0.016,-0.141
4636,0.017,-0.171
4637,0.018,-0.171
4638,0.019,-0.171
4639,0.020,-0.171
4640,0.021,-0.201
4641,0.021,-0.201
4642,0.021,-0.201
4643,0.021,-0.201
4644,0.020,-0.227
4645,0.019,-0.227
4646,0.018,-0.227
4647,0.016,-0.227
4648,0.015,-0.251
4649,0.014,-0.251
4650,0.012,-0.251
4651,0.010,-0.251
4652,0.009,-0.273
4653,0.007,-0.273
4654,0.006,-0.273
4655,0.006,-0.273
4656,0.007,-0.291
4657,0.008,-0.291
4658,0.009,-0.291
4659,0.010,-0.291
4660,0.011,-0.313
4661,0.011,-0.313
4662,0.011,-0.313
4663,0.011,-0.313
4664,0.011,-0.332
4665,0.011,-0.332
4666,0.011,-0.332
4667,0.011,-0.332
4668,0.011,-0.347
4669,0.010,-0.347
4670,0.009,-0.347
4671,0.007,-0.347
4672,0.004,-0.365
4673,0.002,-0.365
4674,0.001,-0.365
4675,0.000,-0.365
4676,-0.001,-0.382
4677,-0.001,-0.382
4678,0.000,-0.382
4679,0.001,-0.382
4680,0.003,-0.398
4681,0.004,-0.398
4682,0.006,-0.398
4683,0.008,-0.398
4684,0.011,-0.411
4685,0.015,-0.411
4686,0.018,-0.411
4687,0.021,-0.411
4688,0.022,-0.425
4689,0.024,-0.425
4690,0.023,-0.425
4691,0.022,-0.425
4692,0.020,-0.438
4693,0.018,-0.438
4694,0.015,-0.438
4695,0.012,-0.438
4696,0.009,-0.448
4697,0.005,-0.448
4698,0.003,-0.448
4699,0.000,-0.448
4700,-0.001,-0.452
4701,-0.001,-0.452
4702,-0.001,-0.452
4703,0.000,-0.452
4704,-0.001,-0.458
4705,-0.001,-0.458
4706,-0.004,-0.458
4707,-0.006,-0.458
4708,-0.010,-0.452
4709,-0.014,-0.452
4710,-0.018,-0.452
4711,-0.021,-0.452
4712,-0.024,-0.438
4713,-0.026,-0.438
4714,-0.026,-0.438
4715,-0.027,-0.438
4716,-0.026,-0.413
4717,-0.025,-0.413
4718,-0.024,-0.413
4719,-0.022,-0.413
4720,-0.020,-0.382
4721,-0.018,-0.382
4722,-0.016,-0.382
4723,-0.014,-0.382
4724,-0.012,-0.334
4725,-0.010,-0.334
4726,-0.009,-0.334
4727,-0.008,-0.334
4728,-0.007,-0.275
4729,-0.006,-0.275
4730,-0.005,-0.275
4731,-0.004,-0.275
4732,-0.003,-0.201
4733,-0.002,-0.201
4734,0.001,-0.201
4735,0.004,-0.201
4736,0.008,-0.120
4737,0.012,-0.120
4738,0.015,-0.120
4739,0.019,-0.120
4740,0.021,-0.032
4741,0.024,-0.032
4742,0.027,-0.032
4743,0.030,-0.032
4744,0.034,0.065
4745,0.037,0.065
4746,0.038,0.065
4747,0.040,0.065
4748,0.040,0.161
4749,0.039,0.161
4750,0.037,0.161
4751,0.036,0.161
4752,0.035,0.253
4753,0.033,0.253
4754,0.033,0.253
4755,0.032,0.253
4756,0.032,0.342
4757,0.032,0.342
4758,0.033,0.342
4759,0.033,0.342
4760,0.033,0.421
4761,0.033,0.421
4762,0.032,0.421
4763,0.031,0.421
4764,0.030,0.488
4765,0.029,0.488
4766,0.029,0.488
4767,0.030,0.488
4768,0.032,0.548
4769,0.034,0.548
4770,0.037,0.548
4771,0.041,0.548
4772,0.045,0.591
4773,0.049,0.591
4774,0.052,0.591
4775,0.056,0.591
4776,0.059,0.623
4777,0.063,0.623
4778,0.067,0.623
4779,0.071,0.623
4780,0.074,0.642
4781,0.077,0.642
4782,0.079,0.642
4783,0.081,0.642
4784,0.081,0.648
4785,0.080,0.648
4786,0.078,0.648
4787,0.076,0.648
4788,0.074,0.646
4789,0.073,0.646
4790,0.073,0.646
4791,0.073,0.646
4792,0.074,0.636
4793,0.075,0.636
4794,0.077,0.636
4795,0.080,0.636
4796,0.083,0.615
4797,0.086,0.615
4798,0.089,0.615
4799,0.092,0.615
4800,0.093,0.635
4801,0.095,0.635
4802,0.095,0.635
4803,0.095,0.635
4804,0.095,0.597
4805,0.095,0.597
4806,0.095,0.597
4807,0.094,0.597
4808,0.093,0.553
4809,0.092,0.553
4810,0.091,0.553
4811,0.091,0.553
4812,0.091,0.502
4813,0.091,0.502
4814,0.091,0.502
4815,0.091,0.502
4816,0.091,0.448
4817,0.091,0.448
4818,0.090,0.448
4819,0.090,0.448
4820,0.089,0.391
4821,0.088,0.391
4822,0.087,0.391
4823,0.086,0.391
4824,0.085,0.332
4825,0.084,0.332
4826,0.082,0.332
4827,0.079,0.332
4828,0.077,0.276
4829,0.076,0.276
4830,0.074,0.276
4831,0.072,0.276
4832,0.070,0.214
4833,0.069,0.214
4834,0.069,0.214
4835,0.068,0.214
4836,0.067,0.158
4837,0.065,0.158
4838,0.062,0.158
4839,0.060,0.158
4840,0.056,0.101
4841,0.052,0.101
4842,0.047,0.101
4843,0.042,0.101
4844,0.037,0.046
4845,0.033,0.046
4846,0.035,0.046
4847,0.038,0.046
4848,0.054,-0.004
4849,0.070,-0.004
4850,0.103,-0.004
4851,0.136,-0.004
4852,0.186,-0.052
4853,0.237,-0.052
4854,0.301,-0.052
4855,0.365,-0.052
4856,0.428,-0.099
4857,0.492,-0.099
4858,0.537,-0.099
4859,0.582,-0.099
4860,0.591,-0.137
4861,0.600,-0.137
4862,0.568,-0.137
4863,0.535,-0.137
4864,0.472,-0.176
4865,0.410,-0.176
4866,0.336,-0.176
4867,0.262,-0.176
4868,0.195,-0.208
4869,0.127,-0.208
4870,0.077,-0.208
4871,0.027,-0.208
4872,-0.004,-0.239
4873,-0.034,-0.239
4874,-0.046,-0.239
4875,-0.058,-0.239
4876,-0.054,-0.263
4877,-0.051,-0.263
4878,-0.040,-0.263
4879,-0.029,-0.263
4880,-0.018,-0.285
4881,-0.007,-0.285
4882,0.001,-0.285
4883,0.008,-0.285
4884,0.011,-0.309
4885,0.013,-0.309
4886,0.014,-0.309
4887,0.015,-0.309
4888,0.015,-0.328
4889,0.014,-0.328
4890,0.013,-0.328
4891,0.013,-0.328
4892,0.012,-0.344
4893,0.011,-0.344
4894,0.011,-0.344
4895,0.010,-0.344
4896,0.011,-0.357
4897,0.011,-0.357
4898,0.011,-0.357
4899,0.012,-0.357
4900,0.013,-0.372
4901,0.013,-0.372
4902,0.013,-0.372
4903,0.012,-0.372
4904,0.011,-0.389
4905,0.011,-0.389
4906,0.013,-0.389
4907,0.014,-0.389
4908,0.015,-0.402
4909,0.016,-0.402
4910,0.017,-0.402
4911,0.017,-0.402
4912,0.018,-0.418
4913,0.019,-0.418
4914,0.018,-0.418
4915,0.018,-0.418
4916,0.018,-0.435
4917,0.018,-0.435
4918,0.018,-0.435
4919,0.018,-0.435
4920,0.018,-0.454
4921,0.018,-0.454
4922,0.018,-0.454
4923,0.017,-0.454
4924,0.016,-0.470
4925,0.015,-0.470
4926,0.015,-0.470
4927,0.014,-0.470
4928,0.013,-0.487
4929,0.012,-0.487
4930,0.009,-0.487
4931,0.007,-0.487
4932,0.004,-0.504
4933,0.000,-0.504
4934,-0.003,-0.504
4935,-0.006,-0.504
4936,-0.007,-0.525
4937,-0.009,-0.525
4938,-0.010,-0.525
4939,-0.011,-0.525
4940,-0.011,-0.540
4941,-0.012,-0.540
4942,-0.014,-0.540
4943,-0.016,-0.540
4944,-0.018,-0.554
4945,-0.019,-0.554
4946,-0.022,-0.554
4947,-0.025,-0.554
4948,-0.029,-0.561
4949,-0.034,-0.561
4950,-0.040,-0.561
4951,-0.045,-0.561
4952,-0.052,-0.563
4953,-0.059,-0.563
4954,-0.064,-0.563
4955,-0.069,-0.563
4956,-0.072,-0.559
4957,-0.075,-0.559
4958,-0.076,-0.559
4959,-0.078,-0.559
4960,-0.080,-0.540
4961,-0.081,-0.540
4962,-0.082,-0.540
4963,-0.082,-0.540
4964,-0.084,-0.510
4965,-0.085,-0.510
4966,-0.087,-0.510
4967,-0.089,-0.510
4968,-0.090,-0.467
4969,-0.092,-0.467
4970,-0.092,-0.467
4971,-0.092,-0.467
4972,-0.090,-0.407
4973,-0.089,-0.407
4974,-0.085,-0.407
4975,-0.080,-0.407
4976,-0.074,-0.332
4977,-0.069,-0.332
4978,-0.064,-0.332
4979,-0.059,-0.332
4980,-0.056,-0.248
4981,-0.052,-0.248
4982,-0.051,-0.248
4983,-0.049,-0.248
4984,-0.046,-0.151
4985,-0.044,-0.151
4986,-0.040,-0.151
4987,-0.036,-0.151
4988,-0.032,-0.044
4989,-0.027,-0.044
4990,-0.022,-0.044
4991,-0.018,-0.044
4992,-0.015,0.065
4993,-0.011,0.065
4994,-0.007,0.065
4995,-0.004,0.065
4996,-0.001,0.172
4997,0.002,0.172
4998,0.005,0.172
4999,0.008,0.172
5000,0.010,0.278
5001,0.012,0.278
5002,0.013,0.278
5003,0.014,0.278
5004,0.015,0.374
5005,0.016,0.374
5006,0.017,0.374
5007,0.018,0.374
5008,0.020,0.461
5009,0.022,0.461
5010,0.022,0.461
5011,0.023,0.461
5012,0.024,0.538
5013,0.025,0.538
5014,0.025,0.538
5015,0.026,0.538
5016,0.026,0.603
5017,0.026,0.603
5018,0.027,0.603
5019,0.028,0.603
5020,0.029,0.649
5021,0.030,0.649
5022,0.031,0.649
5023,0.032,0.649
5024,0.033,0.685
5025,0.033,0.685
5026,0.033,0.685
5027,0.033,0.685
5028,0.033,0.709
5029,0.032,0.709
5030,0.032,0.709
5031,0.032,0.709
5032,0.033,0.715
5033,0.033,0.715
5034,0.033,0.715
5035,0.033,0.715
5036,0.033,0.713
5037,0.032,0.713
5038,0.032,0.713
5039,0.031,0.713
5040,0.030,0.694
5041,0.029,0.694
5042,0.027,0.694
5043,0.025,0.694
5044,0.024,0.668
5045,0.022,0.668
5046,0.021,0.668
5047,0.021,0.668
5048,0.021,0.635
5049,0.021,0.635
5050,0.020,0.635
5051,0.019,0.635
5052,0.018,0.591
5053,0.017,0.591
5054,0.018,0.591
5055,0.018,0.591
5056,0.018,0.521
5057,0.019,0.521
5058,0.020,0.521
5059,0.021,0.521
5060,0.022,0.470
5061,0.023,0.470
5062,0.024,0.470
5063,0.025,0.470
5064,0.025,0.412
5065,0.026,0.412
5066,0.025,0.412
5067,0.025,0.412
5068,0.025,0.350
5069,0.025,0.350
5070,0.025,0.350
5071,0.024,0.350
5072,0.023,0.288
5073,0.022,0.288
5074,0.022,0.288
5075,0.022,0.288
5076,0.022,0.227
5077,0.022,0.227
5078,0.021,0.227
5079,0.021,0.227
5080,0.020,0.165
5081,0.019,0.165
5082,0.017,0.165
5083,0.015,0.165
5084,0.014,0.101
5085,0.013,0.101
5086,0.016,0.101
5087,0.019,0.101
5088,0.033,0.041
5089,0.047,0.041
5090,0.076,0.041
5091,0.105,0.041
5092,0.151,-0.017
5093,0.197,-0.017
5094,0.258,-0.017
5095,0.318,-0.017
5096,0.384,-0.072
5097,0.450,-0.072
5098,0.504,-0.072
5099,0.558,-0.072
5100,0.584,-0.128
5101,0.610,-0.128
5102,0.600,-0.128
5103,0.590,-0.128
5104,0.546,-0.177
5105,0.502,-0.177
5106,0.437,-0.177
5107,0.372,-0.177
5108,0.301,-0.225
5109,0.231,-0.225
5110,0.172,-0.225
5111,0.112,-0.225
5112,0.069,-0.268
5113,0.026,-0.268
5114,-0.002,-0.268
5115,-0.029,-0.268
5116,-0.040,-0.307
5117,-0.051,-0.307
5118,-0.050,-0.307
5119,-0.048,-0.307
5120,-0.042,-0.344
5121,-0.035,-0.344
5122,-0.028,-0.344
5123,-0.021,-0.344
5124,-0.017,-0.378
5125,-0.012,-0.378
5126,-0.009,-0.378
5127,-0.007,-0.378
5128,-0.004,-0.408
5129,-0.002,-0.408
5130,0.000,-0.408
5131,0.002,-0.408
5132,0.003,-0.438
5133,0.004,-0.438
5134,0.004,-0.438
5135,0.003,-0.438
5136,0.003,-0.460
5137,0.002,-0.460
5138,0.001,-0.460
5139,-0.001,-0.460
5140,-0.003,-0.482
5141,-0.005,-0.482
5142,-0.006,-0.482
5143,-0.008,-0.482
5144,-0.009,-0.503
5145,-0.010,-0.503
5146,-0.009,-0.503
5147,-0.007,-0.503
5148,-0.004,-0.522
5149,-0.002,-0.522
5150,0.001,-0.522
5151,0.003,-0.522
5152,0.005,-0.538
5153,0.008,-0.538
5154,0.010,-0.538
5155,0.012,-0.538
5156,0.013,-0.551
5157,0.015,-0.551
5158,0.017,-0.551
5159,0.019,-0.551
5160,0.021,-0.563
5161,0.022,-0.563
5162,0.022,-0.563
5163,0.023,-0.563
5164,0.024,-0.574
5165,0.025,-0.574
5166,0.025,-0.574
5167,0.025,-0.574
5168,0.024,-0.580
5169,0.022,-0.580
5170,0.021,-0.580
5171,0.020,-0.580
5172,0.019,-0.590
5173,0.018,-0.590
5174,0.018,-0.590
5175,0.018,-0.590
5176,0.018,-0.596
5177,0.018,-0.596
5178,0.018,-0.596
5179,0.018,-0.596
5180,0.018,-0.601
5181,0.018,-0.601
5182,0.018,-0.601
5183,0.018,-0.601
5184,0.018,-0.605
5185,0.017,-0.605
5186,0.015,-0.605
5187,0.013,-0.605
5188,0.010,-0.609
5189,0.007,-0.609
5190,0.004,-0.609
5191,0.002,-0.609
5192,0.000,-0.611
5193,-0.002,-0.611
5194,-0.005,-0.611
5195,-0.009,-0.611
5196,-0.013,-0.611
5197,-0.017,-0.611
5198,-0.021,-0.611
5199,-0.024,-0.611
5200,-0.027,-0.609
5201,-0.030,-0.609
5202,-0.032,-0.609
5203,-0.033,-0.609
5204,-0.034,-0.601
5205,-0.034,-0.601
5206,-0.033,-0.601
5207,-0.032,-0.601
5208,-0.031,-0.588
5209,-0.030,-0.588
5210,-0.029,-0.588
5211,-0.029,-0.588
5212,-0.030,-0.568
5213,-0.031,-0.568
5214,-0.032,-0.568
5215,-0.033,-0.568
5216,-0.034,-0.540
5217,-0.035,-0.540
5218,-0.035,-0.540
5219,-0.036,-0.540
5220,-0.036,-0.503
5221,-0.037,-0.503
5222,-0.036,-0.503
5223,-0.036,-0.503
5224,-0.035,-0.456
5225,-0.033,-0.456
5226,-0.030,-0.456
5227,-0.028,-0.456
5228,-0.025,-0.398
5229,-0.021,-0.398
5230,-0.018,-0.398
5231,-0.014,-0.398
5232,-0.012,-0.330
5233,-0.010,-0.330
5234,-0.009,-0.330
5235,-0.008,-0.330
5236,-0.007,-0.258
5237,-0.007,-0.258
5238,-0.006,-0.258
5239,-0.005,-0.258
5240,-0.003,-0.179
5241,-0.001,-0.179
5242,0.002,-0.179
5243,0.005,-0.179
5244,0.009,-0.099
5245,0.012,-0.099
5246,0.015,-0.099
5247,0.019,-0.099
5248,0.022,-0.017
5249,0.026,-0.017
5250,0.029,-0.017
5251,0.031,-0.017
5252,0.034,0.064
5253,0.036,0.064
5254,0.038,0.064
5255,0.041,0.064
5256,0.043,0.138
5257,0.044,0.138
5258,0.045,0.138
5259,0.046,0.138
5260,0.049,0.204
5261,0.051,0.204
5262,0.053,0.204
5263,0.056,0.204
5264,0.058,0.264
5265,0.059,0.264
5266,0.061,0.264
5267,0.063,0.264
5268,0.064,0.309
5269,0.065,0.309
5270,0.066,0.309
5271,0.066,0.309
5272,0.066,0.348
5273,0.065,0.348
5274,0.066,0.348
5275,0.066,0.348
5276,0.068,0.369
5277,0.069,0.369
5278,0.071,0.369
5279,0.073,0.369
5280,0.073,0.382
5281,0.074,0.382
5282,0.075,0.382
5283,0.076,0.382
5284,0.076,0.386
5285,0.077,0.386
5286,0.077,0.386
5287,0.077,0.386
5288,0.076,0.378
5289,0.076,0.378
5290,0.075,0.378
5291,0.075,0.378
5292,0.074,0.354
5293,0.073,0.354
5294,0.071,0.354
5295,0.069,0.354
5296,0.066,0.328
5297,0.063,0.328
5298,0.060,0.328
5299,0.057,0.328
5300,0.055,0.295
5301,0.053,0.295
5302,0.053,0.295
5303,0.053,0.295
5304,0.055,0.254
5305,0.057,0.254
5306,0.059,0.254
5307,0.062,0.254
5308,0.064,0.208
5309,0.065,0.208
5310,0.066,0.208
5311,0.066,0.208
5312,0.065,0.106
5313,0.064,0.106
5314,0.062,0.106
5315,0.060,0.106
5316,0.057,0.060
5317,0.054,0.060
5318,0.050,0.060
5319,0.046,0.060
5320,0.043,0.017
5321,0.039,0.017
5322,0.037,0.017
5323,0.035,0.017
5324,0.034,-0.030
5325,0.033,-0.030
5326,0.032,-0.030
5327,0.031,-0.030
5328,0.030,-0.071
5329,0.029,-0.071
5330,0.029,-0.071
5331,0.029,-0.071
5332,0.029,-0.114
5333,0.028,-0.114
5334,0.028,-0.114
5335,0.027,-0.114
5336,0.029,-0.151
5337,0.030,-0.151
5338,0.034,-0.151
5339,0.037,-0.151
5340,0.041,-0.183
5341,0.045,-0.183
5342,0.048,-0.183
5343,0.050,-0.183
5344,0.051,-0.217
5345,0.051,-0.217
5346,0.053,-0.217
5347,0.056,-0.217
5348,0.067,-0.247
5349,0.077,-0.247
5350,0.102,-0.247
5351,0.127,-0.247
5352,0.169,-0.272
5353,0.210,-0.272
5354,0.268,-0.272
5355,0.326,-0.272
5356,0.392,-0.296
5357,0.458,-0.296
5358,0.516,-0.296
5359,0.575,-0.296
5360,0.607,-0.318
5361,0.639,-0.318
5362,0.630,-0.318
5363,0.622,-0.318
5364,0.574,-0.339
5365,0.525,-0.339
5366,0.453,-0.339
5367,0.380,-0.339
5368,0.305,-0.355
5369,0.231,-0.355
5370,0.171,-0.355
5371,0.110,-0.355
5372,0.069,-0.372
5373,0.028,-0.372
5374,0.004,-0.372
5375,-0.019,-0.372
5376,-0.026,-0.388
5377,-0.034,-0.388
5378,-0.031,-0.388
5379,-0.028,-0.388
5380,-0.021,-0.399
5381,-0.015,-0.399
5382,-0.009,-0.399
5383,-0.004,-0.399
5384,-0.001,-0.408
5385,0.002,-0.408
5386,0.004,-0.408
5387,0.007,-0.408
5388,0.008,-0.421
5389,0.009,-0.421
5390,0.010,-0.421
5391,0.011,-0.421
5392,0.013,-0.427
5393,0.015,-0.427
5394,0.017,-0.427
5395,0.019,-0.427
5396,0.021,-0.439
5397,0.023,-0.439
5398,0.024,-0.439
5399,0.025,-0.439
5400,0.025,-0.446
5401,0.026,-0.446
5402,0.025,-0.446
5403,0.025,-0.446
5404,0.025,-0.456
5405,0.024,-0.456
5406,0.023,-0.456
5407,0.022,-0.456
5408,0.021,-0.463
5409,0.021,-0.463
5410,0.021,-0.463
5411,0.020,-0.463
5412,0.020,-0.472
5413,0.020,-0.472
5414,0.021,-0.472
5415,0.023,-0.472
5416,0.024,-0.480
5417,0.025,-0.480
5418,0.025,-0.480
5419,0.026,-0.480
5420,0.025,-0.486
5421,0.025,-0.486
5422,0.025,-0.486
5423,0.024,-0.486
5424,0.023,-0.495
5425,0.022,-0.495
5426,0.021,-0.495
5427,0.021,-0.495
5428,0.020,-0.503
5429,0.019,-0.503
5430,0.018,-0.503
5431,0.016,-0.503
5432,0.015,-0.510
5433,0.015,-0.510
5434,0.015,-0.510
5435,0.014,-0.510
5436,0.014,-0.516
5437,0.014,-0.516
5438,0.014,-0.516
5439,0.014,-0.516
5440,0.013,-0.520
5441,0.013,-0.520
5442,0.012,-0.520
5443,0.011,-0.520
5444,0.011,-0.521
5445,0.010,-0.521
5446,0.011,-0.521
5447,0.011,-0.521
5448,0.011,-0.521
5449,0.011,-0.521
5450,0.011,-0.521
5451,0.011,-0.521
5452,0.011,-0.516
5453,0.010,-0.516
5454,0.009,-0.516
5455,0.007,-0.516
5456,0.004,-0.506
5457,0.002,-0.506
5458,0.000,-0.506
5459,-0.002,-0.506
5460,-0.005,-0.489
5461,-0.008,-0.489
5462,-0.011,-0.489
5463,-0.015,-0.489
5464,-0.019,-0.461
5465,-0.023,-0.461
5466,-0.028,-0.461
5467,-0.032,-0.461
5468,-0.035,-0.423
5469,-0.037,-0.423
5470,-0.037,-0.423
5471,-0.037,-0.423
5472,-0.036,-0.368
5473,-0.036,-0.368
5474,-0.034,-0.368
5475,-0.032,-0.368
5476,-0.029,-0.304
5477,-0.026,-0.304
5478,-0.024,-0.304
5479,-0.021,-0.304
5480,-0.019,-0.227
5481,-0.018,-0.227
5482,-0.016,-0.227
5483,-0.014,-0.227
5484,-0.011,-0.138
5485,-0.009,-0.138
5486,-0.006,-0.138
5487,-0.003,-0.138
5488,0.001,-0.040
5489,0.005,-0.040
5490,0.008,-0.040
5491,0.011,-0.040
5492,0.013,0.065
5493,0.015,0.065
5494,0.017,0.065
5495,0.018,0.065
5496,0.018,0.169
5497,0.019,0.169
5498,0.018,0.169
5499,0.018,0.169
5500,0.018,0.275
5501,0.018,0.275
5502,0.018,0.275
5503,0.018,0.275
5504,0.019,0.372
5505,0.020,0.372
5506,0.024,0.372
5507,0.027,0.372
5508,0.033,0.465
5509,0.038,0.465
5510,0.044,0.465
5511,0.050,0.465
5512,0.054,0.546
5513,0.059,0.546
5514,0.061,0.546
5515,0.063,0.546
5516,0.064,0.619
5517,0.065,0.619
5518,0.066,0.619
5519,0.066,0.619
5520,0.066,0.673
5521,0.065,0.673
5522,0.064,0.673
5523,0.063,0.673
5524,0.060,0.717
5525,0.058,0.717
5526,0.056,0.717
5527,0.054,0.717
5528,0.052,0.750
5529,0.051,0.750
5530,0.051,0.750
5531,0.051,0.750
5532,0.053,0.767
5533,0.056,0.767
5534,0.059,0.767
5535,0.063,0.767
5536,0.067,0.769
5537,0.070,0.769
5538,0.072,0.769
5539,0.075,0.769
5540,0.077,0.766
5541,0.080,0.766
5542,0.083,0.766
5543,0.085,0.766
5544,0.086,0.747
5545,0.088,0.747
5546,0.088,0.747
5547,0.088,0.747
5548,0.087,0.723
5549,0.087,0.723
5550,0.086,0.723
5551,0.084,0.723
5552,0.082,0.686
5553,0.080,0.686
5554,0.080,0.686
5555,0.079,0.686
5556,0.077,0.646
5557,0.076,0.646
5558,0.074,0.646
5559,0.072,0.646
5560,0.070,0.603
5561,0.069,0.603
5562,0.069,0.603
5563,0.068,0.603
5564,0.068,0.556
5565,0.067,0.556
5566,0.067,0.556
5567,0.067,0.556
5568,0.067,0.501
5569,0.066,0.501
5570,0.065,0.501
5571,0.063,0.501
5572,0.061,0.448
5573,0.059,0.448
5574,0.058,0.448
5575,0.057,0.448
5576,0.056,0.394
5577,0.054,0.394
5578,0.052,0.394
5579,0.050,0.394
5580,0.047,0.337
5581,0.044,0.337
5582,0.038,0.337
5583,0.033,0.337
5584,0.028,0.282
5585,0.022,0.282
5586,0.021,0.282
5587,0.021,0.282
5588,0.032,0.227
5589,0.043,0.227
5590,0.070,0.227
5591,0.096,0.227
5592,0.141,0.174
5593,0.185,0.174
5594,0.245,0.174
5595,0.306,0.174
5596,0.372,0.123
5597,0.438,0.123
5598,0.493,0.123
5599,0.548,0.123
5600,0.574,0.072
5601,0.599,0.072
5602,0.585,0.072
5603,0.571,0.072
5604,0.521,0.029
5605,0.471,0.029
5606,0.403,0.029
5607,0.334,0.029
5608,0.266,-0.013
5609,0.198,-0.013
5610,0.144,-0.013
5611,0.091,-0.013
5612,0.057,-0.051
5613,0.022,-0.051
5614,0.005,-0.051
5615,-0.011,-0.051
5616,-0.013,-0.087
5617,-0.016,-0.087
5618,-0.011,-0.087
5619,-0.006,-0.087
5620,0.001,-0.117
5621,0.008,-0.117
5622,0.012,-0.117
5623,0.016,-0.117
5624,0.018,-0.147
5625,0.020,-0.147
5626,0.021,-0.147
5627,0.022,-0.147
5628,0.022,-0.172
5629,0.023,-0.172
5630,0.025,-0.172
5631,0.026,-0.172
5632,0.029,-0.197
5633,0.031,-0.197
5634,0.034,-0.197
5635,0.037,-0.197
5636,0.041,-0.219
5637,0.045,-0.219
5638,0.049,-0.219
5639,0.052,-0.219
5640,0.054,-0.236
5641,0.056,-0.236
5642,0.057,-0.236
5643,0.057,-0.236
5644,0.056,-0.257
5645,0.055,-0.257
5646,0.052,-0.257
5647,0.050,-0.257
5648,0.048,-0.276
5649,0.046,-0.276
5650,0.045,-0.276
5651,0.044,-0.276
5652,0.043,-0.293
5653,0.043,-0.293
5654,0.043,-0.293
5655,0.043,-0.293
5656,0.042,-0.312
5657,0.040,-0.312
5658,0.037,-0.312
5659,0.035,-0.312
5660,0.034,-0.329
5661,0.032,-0.329
5662,0.030,-0.329
5663,0.028,-0.329
5664,0.026,-0.346
5665,0.025,-0.346
5666,0.024,-0.346
5667,0.022,-0.346
5668,0.021,-0.363
5669,0.021,-0.363
5670,0.021,-0.363
5671,0.022,-0.363
5672,0.022,-0.378
5673,0.022,-0.378
5674,0.022,-0.378
5675,0.022,-0.378
5676,0.022,-0.395
5677,0.022,-0.395
5678,0.022,-0.395
5679,0.023,-0.395
5680,0.024,-0.408
5681,0.024,-0.408
5682,0.023,-0.408
5683,0.022,-0.408
5684,0.020,-0.421
5685,0.018,-0.421
5686,0.015,-0.421
5687,0.013,-0.421
5688,0.011,-0.433
5689,0.010,-0.433
5690,0.007,-0.433
5691,0.005,-0.433
5692,0.002,-0.439
5693,-0.002,-0.439
5694,-0.005,-0.439
5695,-0.009,-0.439
5696,-0.013,-0.439
5697,-0.018,-0.439
5698,-0.022,-0.439
5699,-0.026,-0.439
5700,-0.028,-0.436
5701,-0.030,-0.436
5702,-0.030,-0.436
5703,-0.030,-0.436
5704,-0.030,-0.421
5705,-0.030,-0.421
5706,-0.030,-0.421
5707,-0.030,-0.421
5708,-0.030,-0.397
5709,-0.031,-0.397
5710,-0.033,-0.397
5711,-0.034,-0.397
5712,-0.036,-0.361
5713,-0.038,-0.361
5714,-0.038,-0.361
5715,-0.039,-0.361
5716,-0.038,-0.316
5717,-0.038,-0.316
5718,-0.037,-0.316
5719,-0.037,-0.316
5720,-0.036,-0.255
5721,-0.035,-0.255
5722,-0.032,-0.255
5723,-0.029,-0.255
5724,-0.024,-0.185
5725,-0.019,-0.185
5726,-0.013,-0.185
5727,-0.007,-0.185
5728,-0.002,-0.106
5729,0.003,-0.106
5730,0.007,-0.106
5731,0.011,-0.106
5732,0.014,-0.019
5733,0.017,-0.019
5734,0.020,-0.019
5735,0.023,-0.019
5736,0.026,0.072
5737,0.030,0.072
5738,0.035,0.072
5739,0.039,0.072
5740,0.043,0.163
5741,0.047,0.163
5742,0.051,0.163
5743,0.054,0.163
5744,0.056,0.248
5745,0.058,0.248
5746,0.059,0.248
5747,0.059,0.248
5748,0.059,0.333
5749,0.058,0.333
5750,0.058,0.333
5751,0.058,0.333
5752,0.059,0.406
5753,0.059,0.406
5754,0.060,0.406
5755,0.062,0.406
5756,0.064,0.473
5757,0.065,0.473
5758,0.066,0.473
5759,0.067,0.473
5760,0.068,0.527
5761,0.068,0.527
5762,0.069,0.527
5763,0.069,0.527
5764,0.070,0.571
5765,0.071,0.571
5766,0.072,0.571
5767,0.073,0.571
5768,0.075,0.603
5769,0.077,0.603
5770,0.079,0.603
5771,0.080,0.603
5772,0.080,0.622
5773,0.079,0.622
5774,0.079,0.622
5775,0.079,0.622
5776,0.084,0.633
5777,0.089,0.633
5778,0.106,0.633
5779,0.123,0.633
5780,0.156,0.629
5781,0.189,0.629
5782,0.237,0.629
5783,0.286,0.629
5784,0.343,0.620
5785,0.400,0.620
5786,0.453,0.620
5787,0.505,0.620
5788,0.535,0.600
5789,0.565,0.600
5790,0.557,0.600
5791,0.550,0.600
5792,0.504,0.569
5793,0.458,0.569
5794,0.386,0.569
5795,0.314,0.569
5796,0.239,0.535
5797,0.164,0.535
5798,0.104,0.535
5799,0.045,0.535
5800,0.010,0.493
5801,-0.025,0.493
5802,-0.038,0.493
5803,-0.051,0.493
5804,-0.050,0.450
5805,-0.049,0.450
5806,-0.042,0.450
5807,-0.035,0.450
5808,-0.025,0.399
5809,-0.015,0.399
5810,-0.006,0.399
5811,0.002,0.399
5812,0.008,0.348
5813,0.014,0.348
5814,0.018,0.348
5815,0.023,0.348
5816,0.028,0.295
5817,0.032,0.295
5818,0.036,0.295
5819,0.040,0.295
5820,0.042,0.242
5821,0.044,0.242
5822,0.044,0.242
5823,0.044,0.242
5824,0.044,0.159
5825,0.044,0.159
5826,0.043,0.159
5827,0.043,0.159
5828,0.042,0.111
5829,0.040,0.111
5830,0.037,0.111
5831,0.035,0.111
5832,0.033,0.064
5833,0.031,0.064
5834,0.028,0.064
5835,0.025,0.064
5836,0.023,0.019
5837,0.021,0.019
5838,0.019,0.019
5839,0.018,0.019
5840,0.018,-0.025
5841,0.017,-0.025
5842,0.018,-0.025
5843,0.018,-0.025
5844,0.018,-0.064
5845,0.017,-0.064
5846,0.016,-0.064
5847,0.015,-0.064
5848,0.015,-0.100
5849,0.014,-0.100
5850,0.013,-0.100
5851,0.013,-0.100
5852,0.012,-0.137
5853,0.011,-0.137
5854,0.011,-0.137
5855,0.010,-0.137
5856,0.011,-0.169
5857,0.011,-0.169
5858,0.011,-0.169
5859,0.011,-0.169
5860,0.011,-0.201
5861,0.011,-0.201
5862,0.011,-0.201
5863,0.010,-0.201
5864,0.009,-0.231
5865,0.009,-0.231
5866,0.010,-0.231
5867,0.011,-0.231
5868,0.013,-0.257
5869,0.014,-0.257
5870,0.015,-0.257
5871,0.015,-0.257
5872,0.015,-0.283
5873,0.014,-0.283
5874,0.013,-0.283
5875,0.013,-0.283
5876,0.011,-0.310
5877,0.010,-0.310
5878,0.009,-0.310
5879,0.007,-0.310
5880,0.006,-0.333
5881,0.005,-0.333
5882,0.004,-0.333
5883,0.003,-0.333
5884,0.002,-0.357
5885,0.000,-0.357
5886,-0.001,-0.357
5887,-0.001,-0.357
5888,-0.002,-0.379
5889,-0.002,-0.379
5890,-0.004,-0.379
5891,-0.007,-0.379
5892,-0.009,-0.400
5893,-0.012,-0.400
5894,-0.014,-0.400
5895,-0.016,-0.400
5896,-0.018,-0.419
5897,-0.019,-0.419
5898,-0.020,-0.419
5899,-0.021,-0.419
5900,-0.020,-0.433
5901,-0.019,-0.433
5902,-0.016,-0.433
5903,-0.013,-0.433
5904,-0.009,-0.444
5905,-0.006,-0.444
5906,-0.003,-0.444
5907,0.000,-0.444
5908,0.002,-0.453
5909,0.003,-0.453
5910,0.004,-0.453
5911,0.005,-0.453
5912,0.006,-0.455
5913,0.007,-0.455
5914,0.007,-0.455
5915,0.008,-0.455
5916,0.009,-0.448
5917,0.010,-0.448
5918,0.011,-0.448
5919,0.012,-0.448
5920,0.013,-0.439
5921,0.013,-0.439
5922,0.013,-0.439
5923,0.013,-0.439
5924,0.013,-0.421
5925,0.013,-0.421
5926,0.014,-0.421
5927,0.015,-0.421
5928,0.016,-0.396
5929,0.017,-0.396
5930,0.018,-0.396
5931,0.020,-0.396
5932,0.021,-0.366
5933,0.021,-0.366
5934,0.021,-0.366
5935,0.022,-0.366
5936,0.022,-0.333
5937,0.022,-0.333
5938,0.022,-0.333
5939,0.022,-0.333
5940,0.022,-0.297
5941,0.022,-0.297
5942,0.022,-0.297
5943,0.022,-0.297
5944,0.021,-0.261
5945,0.021,-0.261
5946,0.020,-0.261
5947,0.019,-0.261
5948,0.018,-0.226
5949,0.018,-0.226
5950,0.019,-0.226
5951,0.021,-0.226
5952,0.022,-0.194
5953,0.023,-0.194
5954,0.024,-0.194
5955,0.024,-0.194
5956,0.024,-0.166
5957,0.023,-0.166
5958,0.022,-0.166
5959,0.022,-0.166
5960,0.022,-0.142
5961,0.022,-0.142
5962,0.021,-0.142
5963,0.021,-0.142
5964,0.020,-0.127
5965,0.019,-0.127
5966,0.018,-0.127
5967,0.016,-0.127
5968,0.016,-0.119
5969,0.016,-0.119
5970,0.017,-0.119
5971,0.017,-0.119
5972,0.018,-0.116
5973,0.019,-0.116
5974,0.018,-0.116
5975,0.018,-0.116
5976,0.018,-0.123
5977,0.018,-0.123
5978,0.018,-0.123
5979,0.018,-0.123
5980,0.018,-0.134
5981,0.018,-0.134
5982,0.018,-0.134
5983,0.018,-0.134
5984,0.018,-0.153
5985,0.018,-0.153
5986,0.018,-0.153
5987,0.017,-0.153
5988,0.018,-0.176
5989,0.018,-0.176
5990,0.025,-0.176
5991,0.032,-0.176
5992,0.051,-0.204
5993,0.070,-0.204
5994,0.103,-0.204
5995,0.136,-0.204
5996,0.183,-0.233
5997,0.231,-0.233
5998,0.289,-0.233
5999,0.348,-0.233
6000,0.406,-0.266
6001,0.465,-0.266
6002,0.508,-0.266
6003,0.551,-0.266
6004,0.562,-0.297
6005,0.573,-0.297
6006,0.548,-0.297
6007,0.524,-0.297
6008,0.469,-0.330
6009,0.415,-0.330
6010,0.347,-0.330
6011,0.279,-0.330
6012,0.213,-0.361
6013,0.148,-0.361
6014,0.097,-0.361
6015,0.045,-0.361
6016,0.011,-0.391
6017,-0.023,-0.391
6018,-0.042,-0.391
6019,-0.060,-0.391
6020,-0.065,-0.421
6021,-0.069,-0.421
6022,-0.065,-0.421
6023,-0.061,-0.421
6024,-0.055,-0.451
6025,-0.049,-0.451
6026,-0.044,-0.451
6027,-0.039,-0.451
6028,-0.035,-0.475
6029,-0.031,-0.475
6030,-0.028,-0.475
6031,-0.025,-0.475
6032,-0.023,-0.498
6033,-0.021,-0.498
6034,-0.020,-0.498
6035,-0.019,-0.498
6036,-0.019,-0.521
6037,-0.019,-0.521
6038,-0.021,-0.521
6039,-0.023,-0.521
6040,-0.025,-0.540
6041,-0.026,-0.540
6042,-0.028,-0.540
6043,-0.029,-0.540
6044,-0.030,-0.560
6045,-0.032,-0.560
6046,-0.033,-0.560
6047,-0.034,-0.560
6048,-0.034,-0.578
6049,-0.034,-0.578
6050,-0.035,-0.578
6051,-0.036,-0.578
6052,-0.036,-0.594
6053,-0.037,-0.594
6054,-0.037,-0.594
6055,-0.037,-0.594
6056,-0.036,-0.610
6057,-0.036,-0.610
6058,-0.035,-0.610
6059,-0.033,-0.610
6060,-0.031,-0.625
6061,-0.029,-0.625
6062,-0.028,-0.625
6063,-0.027,-0.625
6064,-0.028,-0.636
6065,-0.029,-0.636
6066,-0.032,-0.636
6067,-0.034,-0.636
6068,-0.036,-0.648
6069,-0.038,-0.648
6070,-0.038,-0.648
6071,-0.039,-0.648
6072,-0.038,-0.655
6073,-0.037,-0.655
6074,-0.035,-0.655
6075,-0.033,-0.655
6076,-0.030,-0.662
6077,-0.028,-0.662
6078,-0.025,-0.662
6079,-0.021,-0.662
6080,-0.018,-0.676
6081,-0.014,-0.676
6082,-0.012,-0.676
6083,-0.010,-0.676
6084,-0.009,-0.680
6085,-0.009,-0.680
6086,-0.011,-0.680
6087,-0.012,-0.680
6088,-0.016,-0.681
6089,-0.020,-0.681
6090,-0.024,-0.681
6091,-0.028,-0.681
6092,-0.031,-0.683
6093,-0.034,-0.683
6094,-0.036,-0.683
6095,-0.039,-0.683
6096,-0.041,-0.678
6097,-0.043,-0.678
6098,-0.044,-0.678
6099,-0.046,-0.678
6100,-0.047,-0.673
6101,-0.048,-0.673
6102,-0.048,-0.673
6103,-0.048,-0.673
6104,-0.048,-0.664
6105,-0.047,-0.664
6106,-0.045,-0.664
6107,-0.044,-0.664
6108,-0.044,-0.650
6109,-0.044,-0.650
6110,-0.044,-0.650
6111,-0.044,-0.650
6112,-0.044,-0.630
6113,-0.045,-0.630
6114,-0.046,-0.630
6115,-0.047,-0.630
6116,-0.048,-0.604
6117,-0.048,-0.604
6118,-0.048,-0.604
6119,-0.048,-0.604
6120,-0.048,-0.567
6121,-0.048,-0.567
6122,-0.048,-0.567
6123,-0.048,-0.567
6124,-0.047,-0.523
6125,-0.046,-0.523
6126,-0.043,-0.523
6127,-0.039,-0.523
6128,-0.035,-0.469
6129,-0.030,-0.469
6130,-0.025,-0.469
6131,-0.019,-0.469
6132,-0.015,-0.408
6133,-0.012,-0.408
6134,-0.009,-0.408
6135,-0.007,-0.408
6136,-0.005,-0.338
6137,-0.004,-0.338
6138,-0.004,-0.338
6139,-0.004,-0.338
6140,-0.004,-0.263
6141,-0.003,-0.263
6142,-0.002,-0.263
6143,-0.001,-0.263
6144,0.000,-0.185
6145,0.001,-0.185
6146,0.003,-0.185
6147,0.004,-0.185
6148,0.005,-0.105
6149,0.007,-0.105
6150,0.009,-0.105
6151,0.012,-0.105
6152,0.013,-0.026
6153,0.015,-0.026
6154,0.017,-0.026
6155,0.019,-0.026
6156,0.021,0.050
6157,0.023,0.050
6158,0.025,0.050
6159,0.027,0.050
6160,0.030,0.115
6161,0.033,0.115
6162,0.035,0.115
6163,0.038,0.115
6164,0.040,0.173
6165,0.041,0.173
6166,0.042,0.173
6167,0.043,0.173
6168,0.044,0.224
6169,0.045,0.224
6170,0.047,0.224
6171,0.049,0.224
6172,0.052,0.263
6173,0.055,0.263
6174,0.057,0.263
6175,0.059,0.263
6176,0.060,0.292
6177,0.062,0.292
6178,0.061,0.292
6179,0.061,0.292
6180,0.059,0.312
6181,0.058,0.312
6182,0.057,0.312
6183,0.055,0.312
6184,0.054,0.325
6185,0.054,0.325
6186,0.054,0.325
6187,0.055,0.325
6188,0.055,0.323
6189,0.055,0.323
6190,0.054,0.323
6191,0.054,0.323
6192,0.053,0.318
6193,0.052,0.318
6194,0.050,0.318
6195,0.048,0.318
6196,0.046,0.299
6197,0.044,0.299
6198,0.042,0.299
6199,0.039,0.299
6200,0.037,0.279
6201,0.035,0.279
6202,0.034,0.279
6203,0.033,0.279
6204,0.032,0.252
6205,0.031,0.252
6206,0.030,0.252
6207,0.029,0.252
6208,0.029,0.221
6209,0.029,0.221
6210,0.029,0.221
6211,0.029,0.221
6212,0.029,0.187
6213,0.030,0.187
6214,0.031,0.187
6215,0.032,0.187
6216,0.033,0.150
6217,0.034,0.150
6218,0.035,0.150
6219,0.035,0.150
6220,0.033,0.115
6221,0.031,0.115
6222,0.026,0.115
6223,0.022,0.115
6224,0.016,0.074
6225,0.010,0.074
6226,0.009,0.074
6227,0.007,0.074
6228,0.018,0.039
6229,0.028,0.039
6230,0.057,0.039
6231,0.086,0.039
6232,0.134,0.000
6233,0.182,0.000
6234,0.244,0.000
6235,0.306,0.000
6236,0.371,-0.037
6237,0.437,-0.037
6238,0.489,-0.037
6239,0.541,-0.037
6240,0.560,-0.070
6241,0.580,-0.070
6242,0.559,-0.070
6243,0.538,-0.070
6244,0.484,-0.103
6245,0.431,-0.103
6246,0.362,-0.103
6247,0.293,-0.103
6248,0.229,-0.136
6249,0.164,-0.136
6250,0.115,-0.136
6251,0.065,-0.136
6252,0.034,-0.164
6253,0.002,-0.164
6254,-0.015,-0.164
6255,-0.031,-0.164
6256,-0.035,-0.192
6257,-0.038,-0.192
6258,-0.034,-0.192
6259,-0.029,-0.192
6260,-0.022,-0.218
6261,-0.016,-0.218
6262,-0.011,-0.218
6263,-0.006,-0.218
6264,-0.003,-0.241
6265,0.001,-0.241
6266,0.003,-0.241
6267,0.005,-0.241
6268,0.007,-0.264
6269,0.009,-0.264
6270,0.011,-0.264
6271,0.014,-0.264
6272,0.017,-0.283
6273,0.020,-0.283
6274,0.022,-0.283
6275,0.025,-0.283
6276,0.025,-0.301
6277,0.026,-0.301
6278,0.025,-0.301
6279,0.024,-0.301
6280,0.023,-0.315
6281,0.022,-0.315
6282,0.021,-0.315
6283,0.021,-0.315
6284,0.020,-0.331
6285,0.019,-0.331
6286,0.018,-0.331
6287,0.017,-0.331
6288,0.017,-0.342
6289,0.017,-0.342
6290,0.015,-0.342
6291,0.014,-0.342
6292,0.012,-0.354
6293,0.010,-0.354
6294,0.007,-0.354
6295,0.005,-0.354
6296,0.002,-0.362
6297,-0.002,-0.362
6298,-0.004,-0.362
6299,-0.007,-0.362
6300,-0.007,-0.369
6301,-0.008,-0.369
6302,-0.007,-0.369
6303,-0.006,-0.369
6304,-0.003,-0.375
6305,0.000,-0.375
6306,0.002,-0.375
6307,0.004,-0.375
6308,0.005,-0.382
6309,0.007,-0.382
6310,0.007,-0.382
6311,0.007,-0.382
6312,0.005,-0.388
6313,0.004,-0.388
6314,0.003,-0.388
6315,0.002,-0.388
6316,0.001,-0.393
6317,0.000,-0.393
6318,-0.001,-0.393
6319,-0.002,-0.393
6320,-0.004,-0.396
6321,-0.005,-0.396
6322,-0.009,-0.396
6323,-0.012,-0.396
6324,-0.017,-0.396
6325,-0.021,-0.396
6326,-0.026,-0.396
6327,-0.031,-0.396
6328,-0.035,-0.395
6329,-0.039,-0.395
6330,-0.042,-0.395
6331,-0.045,-0.395
6332,-0.046,-0.389
6333,-0.047,-0.389
6334,-0.046,-0.389
6335,-0.045,-0.389
6336,-0.044,-0.341
6337,-0.043,-0.341
6338,-0.042,-0.341
6339,-0.041,-0.341
6340,-0.041,-0.323
6341,-0.040,-0.323
6342,-0.040,-0.323
6343,-0.040,-0.323
6344,-0.041,-0.296
6345,-0.041,-0.296
6346,-0.043,-0.296
6347,-0.044,-0.296
6348,-0.046,-0.258
6349,-0.048,-0.258
6350,-0.048,-0.258
6351,-0.048,-0.258
6352,-0.048,-0.209
6353,-0.047,-0.209
6354,-0.045,-0.209
6355,-0.044,-0.209
6356,-0.043,-0.147
6357,-0.043,-0.147
6358,-0.042,-0.147
6359,-0.040,-0.147
6360,-0.038,-0.076
6361,-0.036,-0.076
6362,-0.034,-0.076
6363,-0.031,-0.076
6364,-0.028,0.009
6365,-0.024,0.009
6366,-0.020,0.009
6367,-0.016,0.009
6368,-0.011,0.096
6369,-0.006,0.096
6370,-0.002,0.096
6371,0.003,0.096
6372,0.007,0.189
6373,0.011,0.189
6374,0.014,0.189
6375,0.017,0.189
6376,0.019,0.284
6377,0.022,0.284
6378,0.025,0.284
6379,0.027,0.284
6380,0.029,0.376
6381,0.032,0.376
6382,0.034,0.376
6383,0.035,0.376
6384,0.037,0.461
6385,0.039,0.461
6386,0.040,0.461
6387,0.041,0.461
6388,0.041,0.537
6389,0.040,0.537
6390,0.040,0.537
6391,0.039,0.537
6392,0.039,0.605
6393,0.039,0.605
6394,0.038,0.605
6395,0.038,0.605
6396,0.037,0.663
6397,0.037,0.663
6398,0.035,0.663
6399,0.033,0.663
6400,0.030,0.711
6401,0.027,0.711
6402,0.025,0.711
6403,0.022,0.711
6404,0.022,0.745
6405,0.022,0.745
6406,0.025,0.745
6407,0.027,0.745
6408,0.031,0.768
6409,0.035,0.768
6410,0.040,0.768
6411,0.044,0.768
6412,0.047,0.778
6413,0.050,0.778
6414,0.052,0.778
6415,0.054,0.778
6416,0.055,0.780
6417,0.056,0.780
6418,0.057,0.780
6419,0.057,0.780
6420,0.057,0.771
6421,0.057,0.771
6422,0.058,0.771
6423,0.058,0.771
6424,0.059,0.754
6425,0.061,0.754
6426,0.061,0.754
6427,0.062,0.754
6428,0.062,0.727
6429,0.062,0.727
6430,0.063,0.727
6431,0.064,0.727
6432,0.070,0.695
6433,0.075,0.695
6434,0.090,0.695
6435,0.106,0.695
6436,0.135,0.656
6437,0.163,0.656
6438,0.205,0.656
6439,0.248,0.656
6440,0.302,0.614
6441,0.356,0.614
6442,0.411,0.614
6443,0.466,0.614
6444,0.508,0.566
6445,0.550,0.566
6446,0.563,0.566
6447,0.576,0.566
6448,0.552,0.515
6449,0.529,0.515
6450,0.474,0.515
6451,0.419,0.515
6452,0.349,0.463
6453,0.279,0.463
6454,0.215,0.463
6455,0.151,0.463
6456,0.104,0.411
6457,0.058,0.411
6458,0.030,0.411
6459,0.003,0.411
6460,-0.009,0.359
6461,-0.021,0.359
6462,-0.021,0.359
6463,-0.022,0.359
6464,-0.015,0.306
6465,-0.008,0.306
6466,0.000,0.306
6467,0.008,0.306
6468,0.014,0.253
6469,0.020,0.253
6470,0.022,0.253
6471,0.025,0.253
6472,0.027,0.203
6473,0.029,0.203
6474,0.032,0.203
6475,0.034,0.203
6476,0.036,0.155
6477,0.039,0.155
6478,0.040,0.155
6479,0.041,0.155
6480,0.040,0.108
6481,0.039,0.108
6482,0.037,0.108
6483,0.035,0.108
6484,0.034,0.066
6485,0.032,0.066
6486,0.029,0.066
6487,0.027,0.066
6488,0.025,0.024
6489,0.023,0.024
6490,0.021,0.024
6491,0.020,0.024
6492,0.019,-0.016
6493,0.019,-0.016
6494,0.021,-0.016
6495,0.022,-0.016
6496,0.024,-0.050
6497,0.026,-0.050
6498,0.028,-0.050
6499,0.030,-0.050
6500,0.032,-0.084
6501,0.033,-0.084
6502,0.035,-0.084
6503,0.036,-0.084
6504,0.036,-0.112
6505,0.036,-0.112
6506,0.035,-0.112
6507,0.035,-0.112
6508,0.034,-0.140
6509,0.033,-0.140
6510,0.032,-0.140
6511,0.030,-0.140
6512,0.028,-0.167
6513,0.025,-0.167
6514,0.023,-0.167
6515,0.021,-0.167
6516,0.019,-0.190
6517,0.017,-0.190
6518,0.016,-0.190
6519,0.015,-0.190
6520,0.017,-0.211
6521,0.018,-0.211
6522,0.021,-0.211
6523,0.023,-0.211
6524,0.025,-0.231
6525,0.026,-0.231
6526,0.028,-0.231
6527,0.029,-0.231
6528,0.029,-0.251
6529,0.029,-0.251
6530,0.029,-0.251
6531,0.028,-0.251
6532,0.026,-0.267
6533,0.025,-0.267
6534,0.023,-0.267
6535,0.021,-0.267
6536,0.019,-0.282
6537,0.017,-0.282
6538,0.015,-0.282
6539,0.014,-0.282
6540,0.014,-0.296
6541,0.014,-0.296
6542,0.013,-0.296
6543,0.013,-0.296
6544,0.011,-0.309
6545,0.009,-0.309
6546,0.005,-0.309
6547,0.002,-0.309
6548,-0.002,-0.318
6549,-0.006,-0.318
6550,-0.009,-0.318
6551,-0.012,-0.318
6552,-0.013,-0.323
6553,-0.015,-0.323
6554,-0.015,-0.323
6555,-0.014,-0.323
6556,-0.012,-0.322
6557,-0.010,-0.322
6558,-0.007,-0.322
6559,-0.004,-0.322
6560,-0.001,-0.316
6561,0.002,-0.316
6562,0.005,-0.316
6563,0.008,-0.316
6564,0.010,-0.298
6565,0.012,-0.298
6566,0.013,-0.298
6567,0.014,-0.298
6568,0.015,-0.276
6569,0.016,-0.276
6570,0.017,-0.276
6571,0.018,-0.276
6572,0.020,-0.241
6573,0.022,-0.241
6574,0.022,-0.241
6575,0.022,-0.241
6576,0.022,-0.203
6577,0.022,-0.203
6578,0.022,-0.203
6579,0.023,-0.203
6580,0.025,-0.154
6581,0.026,-0.154
6582,0.029,-0.154
6583,0.032,-0.154
6584,0.036,-0.100
6585,0.040,-0.100
6586,0.044,-0.100
6587,0.049,-0.100
6588,0.052,-0.041
6589,0.056,-0.041
6590,0.058,-0.041
6591,0.060,-0.041
6592,0.063,-0.059
6593,0.066,-0.059
6594,0.068,-0.059
6595,0.070,-0.059
6596,0.070,-0.003
6597,0.070,-0.003
6598,0.069,-0.003
6599,0.068,-0.003
6600,0.067,0.052
6601,0.065,0.052
6602,0.063,0.052
6603,0.061,0.052
6604,0.059,0.097
6605,0.057,0.097
6606,0.056,0.097
6607,0.055,0.097
6608,0.054,0.140
6609,0.053,0.140
6610,0.053,0.140
6611,0.053,0.140
6612,0.054,0.173
6613,0.056,0.173
6614,0.060,0.173
6615,0.064,0.173
6616,0.069,0.200
6617,0.074,0.200
6618,0.079,0.200
6619,0.083,0.200
6620,0.085,0.216
6621,0.087,0.216
6622,0.087,0.216
6623,0.087,0.216
6624,0.086,0.227
6625,0.084,0.227
6626,0.082,0.227
6627,0.079,0.227
6628,0.077,0.228
6629,0.076,0.228
6630,0.074,0.228
6631,0.073,0.228
6632,0.074,0.220
6633,0.075,0.220
6634,0.077,0.220
6635,0.079,0.220
6636,0.080,0.206
6637,0.081,0.206
6638,0.081,0.206
6639,0.081,0.206
6640,0.081,0.186
6641,0.081,0.186
6642,0.086,0.186
6643,0.090,0.186
6644,0.104,0.160
6645,0.118,0.160
6646,0.144,0.160
6647,0.171,0.160
6648,0.210,0.130
6649,0.249,0.130
6650,0.300,0.130
6651,0.352,0.130
6652,0.407,0.097
6653,0.462,0.097
6654,0.506,0.097
6655,0.551,0.097
6656,0.567,0.057
6657,0.583,0.057
6658,0.562,0.057
6659,0.541,0.057
6660,0.488,0.018
6661,0.435,0.018
6662,0.367,0.018
6663,0.299,0.018
6664,0.236,-0.020
6665,0.173,-0.020
6666,0.125,-0.020
6667,0.077,-0.020
6668,0.045,-0.059
6669,0.014,-0.059
6670,-0.001,-0.059
6671,-0.016,-0.059
6672,-0.018,-0.102
6673,-0.020,-0.102
6674,-0.015,-0.102
6675,-0.009,-0.102
6676,-0.003,-0.141
6677,0.004,-0.141
6678,0.008,-0.141
6679,0.012,-0.141
6680,0.014,-0.179
6681,0.016,-0.179
6682,0.017,-0.179
6683,0.018,-0.179
6684,0.019,-0.211
6685,0.020,-0.211
6686,0.021,-0.211
6687,0.023,-0.211
6688,0.026,-0.247
6689,0.030,-0.247
6690,0.034,-0.247
6691,0.038,-0.247
6692,0.041,-0.276
6693,0.044,-0.276
6694,0.045,-0.276
6695,0.047,-0.276
6696,0.048,-0.304
6697,0.048,-0.304
6698,0.047,-0.304
6699,0.046,-0.304
6700,0.045,-0.330
6701,0.044,-0.330
6702,0.043,-0.330
6703,0.042,-0.330
6704,0.042,-0.354
6705,0.041,-0.354
6706,0.040,-0.354
6707,0.038,-0.354
6708,0.035,-0.374
6709,0.032,-0.374
6710,0.030,-0.374
6711,0.029,-0.374
6712,0.029,-0.396
6713,0.030,-0.396
