,ECG,PPG
0,-0.018,0.326
1,-0.019,0.326
2,-0.020,0.326
3,-0.022,0.326
4,-0.020,0.279
5,-0.019,0.279
6,-0.017,0.279
7,-0.016,0.279
8,-0.014,0.256
9,-0.013,0.256
10,-0.011,0.256
11,-0.009,0.256
12,-0.009,0.256
13,-0.008,0.256
14,-0.009,0.256
15,-0.011,0.256
16,-0.012,0.209
17,-0.013,0.209
18,-0.013,0.209
19,-0.013,0.209
20,-0.012,0.186
21,-0.011,0.186
22,-0.012,0.186
23,-0.013,0.186
24,-0.014,0.140
25,-0.016,0.140
26,-0.014,0.140
27,-0.013,0.140
28,-0.012,0.093
29,-0.011,0.093
30,-0.011,0.093
31,-0.011,0.093
32,-0.011,0.093
33,-0.011,0.093
34,-0.009,0.093
35,-0.006,0.093
36,-0.003,0.023
37,0.000,0.023
38,0.002,0.023
39,0.005,0.023
40,0.005,0.000
41,0.006,0.000
42,0.005,0.000
43,0.005,0.000
44,0.004,-0.024
45,0.003,-0.024
46,0.001,-0.024
47,-0.002,-0.024
48,-0.005,-0.070
49,-0.008,-0.070
50,-0.009,-0.070
51,-0.009,-0.070
52,-0.009,-0.093
53,-0.008,-0.093
54,-0.006,-0.093
55,-0.005,-0.093
56,-0.003,-0.140
57,-0.002,-0.140
58,-0.001,-0.140
59,0.000,-0.140
60,0.000,-0.140
61,0.000,-0.140
62,-0.001,-0.140
63,-0.002,-0.140
64,-0.002,-0.186
65,-0.003,-0.186
66,-0.002,-0.186
67,0.000,-0.186
68,0.003,-0.186
69,0.006,-0.186
70,0.009,-0.186
71,0.013,-0.186
72,0.015,-0.209
73,0.017,-0.209
74,0.016,-0.209
75,0.016,-0.209
76,0.014,-0.256
77,0.013,-0.256
78,0.011,-0.256
79,0.009,-0.256
80,0.010,-0.233
81,0.011,-0.233
82,0.012,-0.233
83,0.013,-0.233
84,0.016,-0.279
85,0.019,-0.279
86,0.024,-0.279
87,0.030,-0.279
88,0.038,-0.256
89,0.045,-0.256
90,0.056,-0.256
91,0.066,-0.256
92,0.073,-0.279
93,0.081,-0.279
94,0.084,-0.279
95,0.088,-0.279
96,0.090,-0.302
97,0.092,-0.302
98,0.096,-0.302
99,0.100,-0.302
100,0.104,-0.302
101,0.108,-0.302
102,0.112,-0.302
103,0.116,-0.302
104,0.118,-0.326
105,0.120,-0.326
106,0.122,-0.326
107,0.124,-0.326
108,0.121,-0.326
109,0.119,-0.326
110,0.115,-0.326
111,0.111,-0.326
112,0.106,-0.326
113,0.100,-0.326
114,0.095,-0.326
115,0.089,-0.326
116,0.084,-0.349
117,0.078,-0.349
118,0.071,-0.349
119,0.064,-0.349
120,0.056,-0.326
121,0.048,-0.326
122,0.042,-0.326
123,0.036,-0.326
124,0.031,-0.326
125,0.027,-0.326
126,0.023,-0.326
127,0.020,-0.326
128,0.017,-0.326
129,0.014,-0.326
130,0.008,-0.326
131,0.002,-0.326
132,-0.006,-0.349
133,-0.014,-0.349
134,-0.020,-0.349
135,-0.027,-0.349
136,-0.031,-0.326
137,-0.036,-0.326
138,-0.039,-0.326
139,-0.042,-0.326
140,-0.045,-0.349
141,-0.047,-0.349
142,-0.046,-0.349
143,-0.045,-0.349
144,-0.043,-0.372
145,-0.041,-0.372
146,-0.037,-0.372
147,-0.033,-0.372
148,-0.031,-0.349
149,-0.030,-0.349
150,-0.029,-0.349
151,-0.028,-0.349
152,-0.029,-0.372
153,-0.030,-0.372
154,-0.029,-0.372
155,-0.028,-0.372
156,-0.023,-0.372
157,-0.017,-0.372
158,-0.002,-0.372
159,0.013,-0.372
160,0.035,-0.396
161,0.058,-0.396
162,0.088,-0.396
163,0.117,-0.396
164,0.150,-0.372
165,0.183,-0.372
166,0.216,-0.372
167,0.249,-0.372
168,0.281,-0.396
169,0.313,-0.396
170,0.347,-0.396
171,0.382,-0.396
172,0.415,-0.418
173,0.449,-0.418
174,0.470,-0.418
175,0.491,-0.418
176,0.489,-0.381
177,0.488,-0.381
178,0.458,-0.381
179,0.428,-0.381
180,0.378,-0.405
181,0.327,-0.405
182,0.271,-0.405
183,0.216,-0.405
184,0.173,-0.381
185,0.130,-0.381
186,0.111,-0.381
187,0.092,-0.381
188,0.096,-0.381
189,0.100,-0.381
190,0.117,-0.381
191,0.134,-0.381
192,0.152,-0.405
193,0.170,-0.405
194,0.180,-0.405
195,0.189,-0.405
196,0.186,-0.405
197,0.183,-0.405
198,0.167,-0.405
199,0.152,-0.405
200,0.127,-0.381
201,0.102,-0.381
202,0.074,-0.381
203,0.047,-0.381
204,0.024,-0.405
205,0.002,-0.405
206,-0.013,-0.405
207,-0.028,-0.405
208,-0.037,-0.428
209,-0.045,-0.428
210,-0.048,-0.428
211,-0.052,-0.428
212,-0.053,-0.405
213,-0.055,-0.405
214,-0.057,-0.405
215,-0.059,-0.405
216,-0.064,-0.428
217,-0.069,-0.428
218,-0.072,-0.428
219,-0.075,-0.428
220,-0.074,-0.428
221,-0.073,-0.428
222,-0.070,-0.428
223,-0.067,-0.428
224,-0.065,-0.453
225,-0.063,-0.453
226,-0.061,-0.453
227,-0.059,-0.453
228,-0.060,-0.453
229,-0.061,-0.453
230,-0.063,-0.453
231,-0.064,-0.453
232,-0.064,-0.476
233,-0.064,-0.476
234,-0.063,-0.476
235,-0.063,-0.476
236,-0.062,-0.453
237,-0.061,-0.453
238,-0.059,-0.453
239,-0.058,-0.453
240,-0.057,-0.476
241,-0.056,-0.476
242,-0.055,-0.476
243,-0.053,-0.476
244,-0.052,-0.500
245,-0.050,-0.500
246,-0.048,-0.500
247,-0.047,-0.500
248,-0.045,-0.476
249,-0.044,-0.476
250,-0.043,-0.476
251,-0.042,-0.476
252,-0.040,-0.476
253,-0.038,-0.476
254,-0.037,-0.476
255,-0.036,-0.476
256,-0.034,-0.500
257,-0.033,-0.500
258,-0.030,-0.500
259,-0.028,-0.500
260,-0.025,-0.476
261,-0.022,-0.476
262,-0.020,-0.476
263,-0.017,-0.476
264,-0.017,-0.476
265,-0.017,-0.476
266,-0.017,-0.476
267,-0.017,-0.476
268,-0.017,-0.500
269,-0.017,-0.500
270,-0.017,-0.500
271,-0.017,-0.500
272,-0.017,-0.476
273,-0.017,-0.476
274,-0.016,-0.476
275,-0.016,-0.476
276,-0.014,-0.500
277,-0.013,-0.500
278,-0.012,-0.500
279,-0.011,-0.500
280,-0.010,-0.476
281,-0.009,-0.476
282,-0.009,-0.476
283,-0.008,-0.476
284,-0.007,-0.476
285,-0.006,-0.476
286,-0.005,-0.476
287,-0.005,-0.476
288,-0.003,-0.476
289,-0.002,-0.476
290,0.000,-0.476
291,0.002,-0.476
292,0.004,-0.476
293,0.006,-0.476
294,0.008,-0.476
295,0.009,-0.476
296,0.011,-0.476
297,0.013,-0.476
298,0.012,-0.476
299,0.011,-0.476
300,0.010,-0.428
301,0.009,-0.428
302,0.008,-0.428
303,0.006,-0.428
304,0.005,-0.428
305,0.003,-0.428
306,0.002,-0.428
307,0.002,-0.428
308,0.002,-0.405
309,0.003,-0.405
310,0.004,-0.405
311,0.005,-0.405
312,0.005,-0.405
313,0.005,-0.405
314,0.005,-0.405
315,0.005,-0.405
316,0.005,-0.381
317,0.005,-0.381
318,0.005,-0.381
319,0.005,-0.381
320,0.005,-0.357
321,0.005,-0.357
322,0.005,-0.357
323,0.005,-0.357
324,0.005,-0.309
325,0.005,-0.309
326,0.005,-0.309
327,0.005,-0.309
328,0.004,-0.262
329,0.003,-0.262
330,0.002,-0.262
331,0.000,-0.262
332,0.000,-0.214
333,0.000,-0.214
334,0.003,-0.214
335,0.006,-0.214
336,0.009,-0.143
337,0.013,-0.143
338,0.015,-0.143
339,0.017,-0.143
340,0.018,-0.048
341,0.019,-0.048
342,0.020,-0.048
343,0.020,-0.048
344,0.020,0.024
345,0.019,0.024
346,0.016,0.024
347,0.014,0.024
348,0.013,0.119
349,0.011,0.119
350,0.008,0.119
351,0.005,0.119
352,0.005,0.191
353,0.005,0.191
354,0.004,0.191
355,0.003,0.191
356,0.001,0.262
357,-0.002,0.262
358,-0.005,0.262
359,-0.009,0.262
360,-0.013,0.309
361,-0.017,0.309
362,-0.021,0.309
363,-0.025,0.309
364,-0.027,0.357
365,-0.030,0.357
366,-0.029,0.357
367,-0.028,0.357
368,-0.027,0.405
369,-0.025,0.405
370,-0.024,0.405
371,-0.023,0.405
372,-0.023,0.405
373,-0.023,0.405
374,-0.026,0.405
375,-0.028,0.405
376,-0.028,0.453
377,-0.028,0.453
378,-0.027,0.453
379,-0.025,0.453
380,-0.023,0.453
381,-0.022,0.453
382,-0.019,0.453
383,-0.016,0.453
384,-0.014,0.476
385,-0.013,0.476
386,-0.011,0.476
387,-0.009,0.476
388,-0.007,0.476
389,-0.005,0.476
390,-0.003,0.476
391,-0.002,0.476
392,-0.001,0.428
393,0.000,0.428
394,0.000,0.428
395,0.000,0.428
396,0.000,0.428
397,0.000,0.428
398,0.000,0.428
399,0.000,0.428
400,0.000,0.428
401,0.000,0.428
402,0.001,0.428
403,0.002,0.428
404,0.004,0.428
405,0.006,0.428
406,0.008,0.428
407,0.009,0.428
408,0.011,0.405
409,0.013,0.405
410,0.012,0.405
411,0.011,0.405
412,0.011,0.381
413,0.011,0.381
414,0.012,0.381
415,0.013,0.381
416,0.014,0.381
417,0.016,0.381
418,0.017,0.381
419,0.019,0.381
420,0.020,0.357
421,0.022,0.357
422,0.022,0.357
423,0.022,0.357
424,0.020,0.309
425,0.017,0.309
426,0.016,0.309
427,0.016,0.309
428,0.016,0.285
429,0.017,0.285
430,0.017,0.285
431,0.017,0.285
432,0.017,0.262
433,0.017,0.262
434,0.017,0.262
435,0.017,0.262
436,0.018,0.262
437,0.019,0.262
438,0.020,0.262
439,0.022,0.262
440,0.023,0.238
441,0.023,0.238
442,0.023,0.238
443,0.022,0.238
444,0.022,0.191
445,0.022,0.191
446,0.022,0.191
447,0.022,0.191
448,0.022,0.143
449,0.022,0.143
450,0.021,0.143
451,0.020,0.143
452,0.019,0.119
453,0.017,0.119
454,0.016,0.119
455,0.014,0.119
456,0.013,0.095
457,0.013,0.095
458,0.010,0.095
459,0.008,0.095
460,0.008,0.048
461,0.008,0.048
462,0.008,0.048
463,0.008,0.048
464,0.007,0.024
465,0.006,0.024
466,0.005,0.024
467,0.005,0.024
468,0.005,-0.024
469,0.005,-0.024
470,0.005,-0.024
471,0.005,-0.024
472,0.005,-0.048
473,0.005,-0.048
474,0.005,-0.048
475,0.005,-0.048
476,0.005,-0.096
477,0.005,-0.096
478,0.005,-0.096
479,0.006,-0.096
480,0.008,-0.119
481,0.009,-0.119
482,0.012,-0.119
483,0.014,-0.119
484,0.015,-0.167
485,0.016,-0.167
486,0.016,-0.167
487,0.017,-0.167
488,0.017,-0.167
489,0.017,-0.167
490,0.016,-0.167
491,0.016,-0.167
492,0.014,-0.167
493,0.013,-0.167
494,0.010,-0.167
495,0.008,-0.167
496,0.007,-0.214
497,0.006,-0.214
498,0.005,-0.214
499,0.005,-0.214
500,0.005,-0.238
501,0.005,-0.238
502,0.005,-0.238
503,0.006,-0.238
504,0.009,-0.262
505,0.011,-0.262
506,0.016,-0.262
507,0.020,-0.262
508,0.026,-0.238
509,0.031,-0.238
510,0.037,-0.238
511,0.042,-0.238
512,0.048,-0.262
513,0.055,-0.262
514,0.063,-0.262
515,0.070,-0.262
516,0.076,-0.262
517,0.081,-0.262
518,0.084,-0.262
519,0.088,-0.262
520,0.090,-0.286
521,0.092,-0.286
522,0.095,-0.286
523,0.097,-0.286
524,0.098,-0.262
525,0.099,-0.262
526,0.101,-0.262
527,0.103,-0.262
528,0.106,-0.262
529,0.109,-0.262
530,0.111,-0.262
531,0.113,-0.262
532,0.111,-0.286
533,0.109,-0.286
534,0.107,-0.286
535,0.105,-0.286
536,0.100,-0.286
537,0.095,-0.286
538,0.090,-0.286
539,0.084,-0.286
540,0.080,-0.286
541,0.075,-0.286
542,0.070,-0.286
543,0.066,-0.286
544,0.060,-0.286
545,0.055,-0.286
546,0.048,-0.286
547,0.041,-0.286
548,0.034,-0.309
549,0.027,-0.309
550,0.020,-0.309
551,0.014,-0.309
552,0.008,-0.286
553,0.002,-0.286
554,-0.004,-0.286
555,-0.009,-0.286
556,-0.014,-0.286
557,-0.019,-0.286
558,-0.022,-0.286
559,-0.025,-0.286
560,-0.028,-0.309
561,-0.031,-0.309
562,-0.035,-0.309
563,-0.039,-0.309
564,-0.041,-0.286
565,-0.044,-0.286
566,-0.045,-0.286
567,-0.045,-0.286
568,-0.046,-0.309
569,-0.047,-0.309
570,-0.047,-0.309
571,-0.047,-0.309
572,-0.048,-0.334
573,-0.048,-0.334
574,-0.050,-0.334
575,-0.052,-0.334
576,-0.052,-0.334
577,-0.052,-0.334
578,-0.048,-0.334
579,-0.044,-0.334
580,-0.037,-0.309
581,-0.030,-0.309
582,-0.015,-0.309
583,0.000,-0.309
584,0.025,-0.334
585,0.050,-0.334
586,0.084,-0.334
587,0.119,-0.334
588,0.157,-0.357
589,0.195,-0.357
590,0.235,-0.357
591,0.275,-0.357
592,0.316,-0.334
593,0.357,-0.334
594,0.400,-0.334
595,0.444,-0.334
596,0.486,-0.381
597,0.527,-0.381
598,0.554,-0.381
599,0.582,-0.381
600,0.580,-0.357
601,0.579,-0.357
602,0.546,-0.357
603,0.513,-0.357
604,0.455,-0.405
605,0.397,-0.405
606,0.333,-0.405
607,0.269,-0.405
608,0.217,-0.405
609,0.164,-0.405
610,0.140,-0.405
611,0.116,-0.405
612,0.120,-0.428
613,0.124,-0.428
614,0.144,-0.428
615,0.164,-0.428
616,0.183,-0.428
617,0.202,-0.428
618,0.205,-0.428
619,0.208,-0.428
620,0.193,-0.453
621,0.178,-0.453
622,0.149,-0.453
623,0.120,-0.453
624,0.088,-0.453
625,0.055,-0.453
626,0.025,-0.453
627,-0.005,-0.453
628,-0.027,-0.476
629,-0.048,-0.476
630,-0.061,-0.476
631,-0.073,-0.476
632,-0.079,-0.453
633,-0.084,-0.453
634,-0.086,-0.453
635,-0.088,-0.453
636,-0.088,-0.476
637,-0.089,-0.476
638,-0.090,-0.476
639,-0.091,-0.476
640,-0.091,-0.476
641,-0.092,-0.476
642,-0.091,-0.476
643,-0.091,-0.476
644,-0.089,-0.476
645,-0.088,-0.476
646,-0.086,-0.476
647,-0.084,-0.476
648,-0.083,-0.453
649,-0.081,-0.453
650,-0.080,-0.453
651,-0.078,-0.453
652,-0.077,-0.453
653,-0.075,-0.453
654,-0.073,-0.453
655,-0.072,-0.453
656,-0.067,-0.453
657,-0.063,-0.453
658,-0.059,-0.453
659,-0.056,-0.453
660,-0.053,-0.476
661,-0.050,-0.476
662,-0.048,-0.476
663,-0.045,-0.476
664,-0.043,-0.428
665,-0.041,-0.428
666,-0.040,-0.428
667,-0.039,-0.428
668,-0.039,-0.453
669,-0.039,-0.453
670,-0.038,-0.453
671,-0.036,-0.453
672,-0.035,-0.453
673,-0.034,-0.453
674,-0.034,-0.453
675,-0.033,-0.453
676,-0.031,-0.428
677,-0.030,-0.428
678,-0.029,-0.428
679,-0.028,-0.428
680,-0.028,-0.453
681,-0.028,-0.453
682,-0.026,-0.453
683,-0.023,-0.453
684,-0.020,-0.453
685,-0.016,-0.453
686,-0.013,-0.453
687,-0.009,-0.453
688,-0.005,-0.428
689,0.000,-0.428
690,0.004,-0.428
691,0.008,-0.428
692,0.012,-0.428
693,0.016,-0.428
694,0.017,-0.428
695,0.019,-0.428
696,0.020,-0.428
697,0.022,-0.428
698,0.023,-0.428
699,0.023,-0.428
700,0.023,-0.453
701,0.023,-0.453
702,0.025,-0.453
703,0.027,-0.453
704,0.028,-0.405
705,0.030,-0.405
706,0.030,-0.405
707,0.030,-0.405
708,0.032,-0.428
709,0.034,-0.428
710,0.038,-0.428
711,0.041,-0.428
712,0.044,-0.453
713,0.047,-0.453
714,0.049,-0.453
715,0.052,-0.453
716,0.056,-0.428
717,0.059,-0.428
718,0.063,-0.428
719,0.066,-0.428
720,0.066,-0.453
721,0.067,-0.453
722,0.069,-0.453
723,0.070,-0.453
724,0.071,-0.428
725,0.072,-0.428
726,0.072,-0.428
727,0.072,-0.428
728,0.073,-0.428
729,0.075,-0.428
730,0.077,-0.428
731,0.078,-0.428
732,0.081,-0.428
733,0.083,-0.428
734,0.084,-0.428
735,0.084,-0.428
736,0.085,-0.428
737,0.086,-0.428
738,0.086,-0.428
739,0.086,-0.428
740,0.085,-0.381
741,0.084,-0.381
742,0.082,-0.381
743,0.080,-0.381
744,0.077,-0.334
745,0.073,-0.334
746,0.073,-0.334
747,0.072,-0.334
748,0.069,-0.286
749,0.066,-0.286
750,0.061,-0.286
751,0.056,-0.286
752,0.052,-0.238
753,0.048,-0.238
754,0.046,-0.238
755,0.044,-0.238
756,0.042,-0.143
757,0.041,-0.143
758,0.040,-0.143
759,0.039,-0.143
760,0.038,-0.048
761,0.038,-0.048
762,0.036,-0.048
763,0.034,-0.048
764,0.034,0.024
765,0.033,0.024
766,0.031,0.024
767,0.030,0.024
768,0.027,0.095
769,0.025,0.095
770,0.023,0.095
771,0.022,0.095
772,0.020,0.191
773,0.017,0.191
774,0.015,0.191
775,0.013,0.191
776,0.009,0.238
777,0.006,0.238
778,0.004,0.238
779,0.002,0.238
780,-0.003,0.309
781,-0.008,0.309
782,-0.013,0.309
783,-0.019,0.309
784,-0.023,0.357
785,-0.027,0.357
786,-0.030,0.357
787,-0.034,0.357
788,-0.038,0.381
789,-0.042,0.381
790,-0.045,0.381
791,-0.047,0.381
792,-0.047,0.453
793,-0.047,0.453
794,-0.048,0.453
795,-0.048,0.453
796,-0.049,0.453
797,-0.050,0.453
798,-0.050,0.453
799,-0.050,0.453
800,-0.050,0.453
801,-0.050,0.453
802,-0.051,0.453
803,-0.052,0.453
804,-0.052,0.476
805,-0.053,0.476
806,-0.055,0.476
807,-0.056,0.476
808,-0.057,0.453
809,-0.058,0.453
810,-0.057,0.453
811,-0.056,0.453
812,-0.054,0.476
813,-0.052,0.476
814,-0.049,0.476
815,-0.047,0.476
816,-0.046,0.500
817,-0.045,0.500
818,-0.046,0.500
819,-0.047,0.500
820,-0.046,0.453
821,-0.045,0.453
822,-0.044,0.453
823,-0.042,0.453
824,-0.040,0.453
825,-0.038,0.453
826,-0.037,0.453
827,-0.036,0.453
828,-0.036,0.453
829,-0.036,0.453
830,-0.038,0.453
831,-0.039,0.453
832,-0.041,0.428
833,-0.044,0.428
834,-0.045,0.428
835,-0.045,0.428
836,-0.046,0.405
837,-0.047,0.405
838,-0.047,0.405
839,-0.047,0.405
840,-0.046,0.381
841,-0.045,0.381
842,-0.044,0.381
843,-0.042,0.381
844,-0.041,0.357
845,-0.039,0.357
846,-0.040,0.357
847,-0.041,0.357
848,-0.040,0.334
849,-0.039,0.334
850,-0.038,0.334
851,-0.036,0.334
852,-0.034,0.285
853,-0.033,0.285
854,-0.031,0.285
855,-0.030,0.285
856,-0.029,0.285
857,-0.028,0.285
858,-0.029,0.285
859,-0.030,0.285
860,-0.030,0.238
861,-0.030,0.238
862,-0.030,0.238
863,-0.030,0.238
864,-0.030,0.214
865,-0.030,0.214
866,-0.029,0.214
867,-0.028,0.214
868,-0.027,0.214
869,-0.025,0.214
870,-0.025,0.214
871,-0.025,0.214
872,-0.027,0.167
873,-0.028,0.167
874,-0.029,0.167
875,-0.030,0.167
876,-0.029,0.119
877,-0.028,0.119
878,-0.026,0.119
879,-0.023,0.119
880,-0.020,0.095
881,-0.017,0.095
882,-0.017,0.095
883,-0.017,0.095
884,-0.018,0.071
885,-0.019,0.071
886,-0.021,0.071
887,-0.023,0.071
888,-0.023,0.024
889,-0.023,0.024
890,-0.023,0.024
891,-0.022,0.024
892,-0.020,0.024
893,-0.019,0.024
894,-0.018,0.024
895,-0.017,0.024
896,-0.018,-0.024
897,-0.019,-0.024
898,-0.022,-0.024
899,-0.025,-0.024
900,-0.027,-0.048
901,-0.028,-0.048
902,-0.029,-0.048
903,-0.030,-0.048
904,-0.030,-0.096
905,-0.030,-0.096
906,-0.029,-0.096
907,-0.028,-0.096
908,-0.027,-0.096
909,-0.027,-0.096
910,-0.027,-0.096
911,-0.028,-0.096
912,-0.029,-0.143
913,-0.030,-0.143
914,-0.029,-0.143
915,-0.028,-0.143
916,-0.026,-0.119
917,-0.023,-0.119
918,-0.020,-0.119
919,-0.017,-0.119
920,-0.017,-0.167
921,-0.017,-0.167
922,-0.017,-0.167
923,-0.017,-0.167
924,-0.018,-0.167
925,-0.019,-0.167
926,-0.021,-0.167
927,-0.023,-0.167
928,-0.023,-0.191
929,-0.023,-0.191
930,-0.023,-0.191
931,-0.022,-0.191
932,-0.020,-0.214
933,-0.017,-0.214
934,-0.013,-0.214
935,-0.009,-0.214
936,-0.005,-0.191
937,0.000,-0.191
938,0.005,-0.191
939,0.009,-0.191
940,0.016,-0.214
941,0.023,-0.214
942,0.030,-0.214
943,0.038,-0.214
944,0.044,-0.202
945,0.050,-0.202
946,0.057,-0.202
947,0.064,-0.202
948,0.070,-0.225
949,0.077,-0.225
950,0.079,-0.225
951,0.081,-0.225
952,0.084,-0.179
953,0.086,-0.179
954,0.090,-0.179
955,0.094,-0.179
956,0.098,-0.179
957,0.102,-0.179
958,0.103,-0.179
959,0.105,-0.179
960,0.103,-0.179
961,0.102,-0.179
962,0.100,-0.179
963,0.099,-0.179
964,0.095,-0.225
965,0.091,-0.225
966,0.087,-0.225
967,0.083,-0.225
968,0.077,-0.179
969,0.072,-0.179
970,0.066,-0.179
971,0.059,-0.179
972,0.055,-0.202
973,0.050,-0.202
974,0.046,-0.202
975,0.042,-0.202
976,0.038,-0.202
977,0.034,-0.202
978,0.030,-0.202
979,0.025,-0.202
980,0.020,-0.225
981,0.014,-0.225
982,0.008,-0.225
983,0.002,-0.225
984,-0.006,-0.247
985,-0.014,-0.247
986,-0.020,-0.247
987,-0.027,-0.247
988,-0.031,-0.247
989,-0.036,-0.247
990,-0.039,-0.247
991,-0.042,-0.247
992,-0.045,-0.270
993,-0.047,-0.270
994,-0.048,-0.270
995,-0.048,-0.270
996,-0.050,-0.247
997,-0.052,-0.247
998,-0.052,-0.247
999,-0.053,-0.247
1000,-0.053,-0.270
1001,-0.053,-0.270
1002,-0.055,-0.270
1003,-0.056,-0.270
1004,-0.057,-0.292
1005,-0.058,-0.292
1006,-0.057,-0.292
1007,-0.056,-0.292
1008,-0.052,-0.270
1009,-0.048,-0.270
1010,-0.038,-0.270
1011,-0.027,-0.270
1012,-0.009,-0.292
1013,0.008,-0.292
1014,0.034,-0.292
1015,0.059,-0.292
1016,0.091,-0.315
1017,0.124,-0.315
1018,0.161,-0.315
1019,0.199,-0.315
1020,0.236,-0.292
1021,0.274,-0.292
1022,0.313,-0.292
1023,0.352,-0.292
1024,0.394,-0.315
1025,0.436,-0.315
1026,0.475,-0.315
1027,0.514,-0.315
1028,0.538,-0.315
1029,0.561,-0.315
1030,0.554,-0.315
1031,0.547,-0.315
1032,0.509,-0.337
1033,0.471,-0.337
1034,0.408,-0.337
1035,0.346,-0.337
1036,0.280,-0.315
1037,0.214,-0.315
1038,0.170,-0.315
1039,0.125,-0.315
1040,0.109,-0.337
1041,0.094,-0.337
1042,0.104,-0.337
1043,0.114,-0.337
1044,0.138,-0.337
1045,0.163,-0.337
1046,0.185,-0.337
1047,0.206,-0.337
1048,0.214,-0.359
1049,0.222,-0.359
1050,0.210,-0.359
1051,0.197,-0.359
1052,0.170,-0.337
1053,0.144,-0.337
1054,0.113,-0.337
1055,0.083,-0.337
1056,0.055,-0.337
1057,0.027,-0.337
1058,0.005,-0.337
1059,-0.016,-0.337
1060,-0.027,-0.359
1061,-0.039,-0.359
1062,-0.045,-0.359
1063,-0.050,-0.359
1064,-0.054,-0.359
1065,-0.058,-0.359
1066,-0.062,-0.359
1067,-0.066,-0.359
1068,-0.071,-0.337
1069,-0.077,-0.337
1070,-0.081,-0.337
1071,-0.086,-0.337
1072,-0.087,-0.337
1073,-0.088,-0.337
1074,-0.087,-0.337
1075,-0.086,-0.337
1076,-0.084,-0.359
1077,-0.081,-0.359
1078,-0.080,-0.359
1079,-0.078,-0.359
1080,-0.077,-0.337
1081,-0.075,-0.337
1082,-0.074,-0.337
1083,-0.073,-0.337
1084,-0.070,-0.359
1085,-0.067,-0.359
1086,-0.065,-0.359
1087,-0.063,-0.359
1088,-0.060,-0.382
1089,-0.058,-0.382
1090,-0.056,-0.382
1091,-0.055,-0.382
1092,-0.053,-0.359
1093,-0.052,-0.359
1094,-0.048,-0.359
1095,-0.045,-0.359
1096,-0.043,-0.382
1097,-0.041,-0.382
1098,-0.039,-0.382
1099,-0.038,-0.382
1100,-0.036,-0.382
1101,-0.034,-0.382
1102,-0.032,-0.382
1103,-0.030,-0.382
1104,-0.028,-0.359
1105,-0.027,-0.359
1106,-0.026,-0.359
1107,-0.025,-0.359
1108,-0.023,-0.359
1109,-0.022,-0.359
1110,-0.020,-0.359
1111,-0.017,-0.359
1112,-0.017,-0.382
1113,-0.017,-0.382
1114,-0.017,-0.382
1115,-0.017,-0.382
1116,-0.016,-0.382
1117,-0.016,-0.382
1118,-0.014,-0.382
1119,-0.013,-0.382
1120,-0.011,-0.359
1121,-0.009,-0.359
1122,-0.007,-0.359
1123,-0.005,-0.359
1124,-0.003,-0.359
1125,-0.002,-0.359
1126,0.000,-0.359
1127,0.002,-0.359
1128,0.004,-0.359
1129,0.006,-0.359
1130,0.009,-0.359
1131,0.011,-0.359
1132,0.015,-0.359
1133,0.019,-0.359
1134,0.020,-0.359
1135,0.022,-0.359
1136,0.023,-0.359
1137,0.023,-0.359
1138,0.023,-0.359
1139,0.022,-0.359
1140,0.022,-0.359
1141,0.022,-0.359
1142,0.022,-0.359
1143,0.022,-0.359
1144,0.022,-0.337
1145,0.022,-0.337
1146,0.022,-0.337
1147,0.022,-0.337
1148,0.023,-0.359
1149,0.023,-0.359
1150,0.025,-0.359
1151,0.027,-0.359
1152,0.029,-0.359
1153,0.031,-0.359
1154,0.032,-0.359
1155,0.033,-0.359
1156,0.034,-0.337
1157,0.034,-0.337
1158,0.034,-0.337
1159,0.033,-0.337
1160,0.031,-0.337
1161,0.030,-0.337
1162,0.027,-0.337
1163,0.025,-0.337
1164,0.024,-0.337
1165,0.023,-0.337
1166,0.023,-0.337
1167,0.022,-0.337
1168,0.022,-0.337
1169,0.022,-0.337
1170,0.022,-0.337
1171,0.022,-0.337
1172,0.022,-0.315
1173,0.022,-0.315
1174,0.022,-0.315
1175,0.022,-0.315
1176,0.022,-0.292
1177,0.022,-0.292
1178,0.022,-0.292
1179,0.022,-0.292
1180,0.022,-0.225
1181,0.022,-0.225
1182,0.022,-0.225
1183,0.022,-0.225
1184,0.022,-0.202
1185,0.022,-0.202
1186,0.022,-0.202
1187,0.022,-0.202
1188,0.022,-0.135
1189,0.022,-0.135
1190,0.022,-0.135
1191,0.022,-0.135
1192,0.021,-0.068
1193,0.020,-0.068
1194,0.019,-0.068
1195,0.017,-0.068
1196,0.016,0.000
1197,0.014,0.000
1198,0.013,0.000
1199,0.013,0.000
1200,0.011,0.089
1201,0.009,0.089
1202,0.009,0.089
1203,0.009,0.089
1204,0.007,0.157
1205,0.005,0.157
1206,0.002,0.157
1207,-0.002,0.157
1208,-0.005,0.224
1209,-0.008,0.224
1210,-0.009,0.224
1211,-0.011,0.224
1212,-0.013,0.291
1213,-0.014,0.291
1214,-0.016,0.291
1215,-0.017,0.291
1216,-0.018,0.359
1217,-0.019,0.359
1218,-0.022,0.359
1219,-0.025,0.359
1220,-0.027,0.359
1221,-0.030,0.359
1222,-0.033,0.359
1223,-0.036,0.359
1224,-0.038,0.426
1225,-0.041,0.426
1226,-0.042,0.426
1227,-0.044,0.426
1228,-0.045,0.426
1229,-0.045,0.426
1230,-0.046,0.426
1231,-0.047,0.426
1232,-0.047,0.426
1233,-0.047,0.426
1234,-0.047,0.426
1235,-0.047,0.426
1236,-0.047,0.449
1237,-0.047,0.449
1238,-0.046,0.449
1239,-0.045,0.449
1240,-0.044,0.449
1241,-0.042,0.449
1242,-0.040,0.449
1243,-0.038,0.449
1244,-0.036,0.449
1245,-0.034,0.449
1246,-0.032,0.449
1247,-0.030,0.449
1248,-0.028,0.471
1249,-0.027,0.471
1250,-0.027,0.471
1251,-0.027,0.471
1252,-0.027,0.426
1253,-0.027,0.426
1254,-0.027,0.426
1255,-0.027,0.426
1256,-0.027,0.426
1257,-0.027,0.426
1258,-0.027,0.426
1259,-0.027,0.426
1260,-0.027,0.426
1261,-0.027,0.426
1262,-0.026,0.426
1263,-0.025,0.426
1264,-0.023,0.404
1265,-0.022,0.404
1266,-0.019,0.404
1267,-0.016,0.404
1268,-0.014,0.382
1269,-0.013,0.382
1270,-0.011,0.382
1271,-0.009,0.382
1272,-0.008,0.359
1273,-0.006,0.359
1274,-0.007,0.359
1275,-0.008,0.359
1276,-0.009,0.337
1277,-0.011,0.337
1278,-0.012,0.337
1279,-0.013,0.337
1280,-0.013,0.337
1281,-0.013,0.337
1282,-0.012,0.337
1283,-0.011,0.337
1284,-0.011,0.314
1285,-0.011,0.314
1286,-0.012,0.314
1287,-0.013,0.314
1288,-0.013,0.291
1289,-0.013,0.291
1290,-0.012,0.291
1291,-0.011,0.291
1292,-0.011,0.246
1293,-0.011,0.246
1294,-0.012,0.246
1295,-0.013,0.246
1296,-0.013,0.224
1297,-0.013,0.224
1298,-0.012,0.224
1299,-0.011,0.224
1300,-0.010,0.202
1301,-0.009,0.202
1302,-0.008,0.202
1303,-0.006,0.202
1304,-0.004,0.157
1305,-0.002,0.157
1306,0.000,0.157
1307,0.002,0.157
1308,0.002,0.135
1309,0.003,0.135
1310,0.002,0.135
1311,0.000,0.135
1312,-0.002,0.089
1313,-0.003,0.089
1314,-0.004,0.089
1315,-0.005,0.089
1316,-0.005,0.067
1317,-0.006,0.067
1318,-0.005,0.067
1319,-0.005,0.067
1320,-0.002,0.022
1321,0.000,0.022
1322,0.003,0.022
1323,0.006,0.022
1324,0.009,0.000
1325,0.011,0.000
1326,0.012,0.000
1327,0.013,0.000
1328,0.012,-0.045
1329,0.011,-0.045
1330,0.010,-0.045
1331,0.009,-0.045
1332,0.007,-0.045
1333,0.005,-0.045
1334,0.002,-0.045
1335,0.000,-0.045
1336,-0.001,-0.090
1337,-0.002,-0.090
1338,-0.001,-0.090
1339,0.000,-0.090
1340,0.000,-0.090
1341,0.000,-0.090
1342,0.000,-0.090
1343,0.000,-0.090
1344,-0.001,-0.135
1345,-0.002,-0.135
1346,-0.004,-0.135
1347,-0.006,-0.135
1348,-0.008,-0.157
1349,-0.009,-0.157
1350,-0.008,-0.157
1351,-0.006,-0.157
1352,-0.004,-0.157
1353,-0.002,-0.157
1354,0.000,-0.157
1355,0.002,-0.157
1356,0.003,-0.179
1357,0.005,-0.179
1358,0.005,-0.179
1359,0.006,-0.179
1360,0.008,-0.202
1361,0.009,-0.202
1362,0.011,-0.202
1363,0.013,-0.202
1364,0.013,-0.179
1365,0.013,-0.179
1366,0.016,-0.179
1367,0.019,-0.179
1368,0.024,-0.202
1369,0.030,-0.202
1370,0.037,-0.202
1371,0.044,-0.202
1372,0.051,-0.225
1373,0.058,-0.225
1374,0.065,-0.225
1375,0.072,-0.225
1376,0.077,-0.225
1377,0.081,-0.225
1378,0.084,-0.225
1379,0.088,-0.225
1380,0.090,-0.225
1381,0.092,-0.225
1382,0.096,-0.225
1383,0.100,-0.225
1384,0.103,-0.247
1385,0.106,-0.247
1386,0.109,-0.247
1387,0.113,-0.247
1388,0.115,-0.247
1389,0.117,-0.247
1390,0.117,-0.247
1391,0.117,-0.247
1392,0.116,-0.247
1393,0.116,-0.247
1394,0.113,-0.247
1395,0.109,-0.247
1396,0.104,-0.225
1397,0.099,-0.225
1398,0.093,-0.225
1399,0.088,-0.225
1400,0.079,-0.225
1401,0.070,-0.225
1402,0.063,-0.225
1403,0.055,-0.225
1404,0.048,-0.247
1405,0.042,-0.247
1406,0.037,-0.247
1407,0.031,-0.247
1408,0.026,-0.270
1409,0.020,-0.270
1410,0.015,-0.270
1411,0.009,-0.270
1412,0.004,-0.247
1413,-0.002,-0.247
1414,-0.006,-0.247
1415,-0.011,-0.247
1416,-0.016,-0.270
1417,-0.022,-0.270
1418,-0.027,-0.270
1419,-0.031,-0.270
1420,-0.034,-0.270
1421,-0.038,-0.270
1422,-0.040,-0.270
1423,-0.042,-0.270
1424,-0.043,-0.292
1425,-0.044,-0.292
1426,-0.043,-0.292
1427,-0.042,-0.292
1428,-0.040,-0.270
1429,-0.038,-0.270
1430,-0.037,-0.270
1431,-0.036,-0.270
1432,-0.036,-0.292
1433,-0.036,-0.292
1434,-0.037,-0.292
1435,-0.038,-0.292
1436,-0.037,-0.292
1437,-0.036,-0.292
1438,-0.029,-0.292
1439,-0.022,-0.292
1440,-0.008,-0.315
1441,0.006,-0.315
1442,0.029,-0.315
1443,0.052,-0.315
1444,0.081,-0.292
1445,0.111,-0.292
1446,0.145,-0.292
1447,0.180,-0.292
1448,0.215,-0.315
1449,0.250,-0.315
1450,0.285,-0.315
1451,0.321,-0.315
1452,0.357,-0.337
1453,0.394,-0.337
1454,0.428,-0.337
1455,0.461,-0.337
1456,0.484,-0.333
1457,0.507,-0.333
1458,0.507,-0.333
1459,0.507,-0.333
1460,0.478,-0.310
1461,0.450,-0.310
1462,0.399,-0.310
1463,0.347,-0.310
1464,0.287,-0.333
1465,0.227,-0.333
1466,0.178,-0.333
1467,0.130,-0.333
1468,0.107,-0.355
1469,0.084,-0.355
1470,0.087,-0.355
1471,0.089,-0.355
1472,0.107,-0.333
1473,0.125,-0.333
1474,0.145,-0.333
1475,0.166,-0.333
1476,0.180,-0.355
1477,0.194,-0.355
1478,0.193,-0.355
1479,0.192,-0.355
1480,0.177,-0.355
1481,0.161,-0.355
1482,0.136,-0.355
1483,0.111,-0.355
1484,0.084,-0.333
1485,0.056,-0.333
1486,0.033,-0.333
1487,0.009,-0.333
1488,-0.006,-0.355
1489,-0.022,-0.355
1490,-0.030,-0.355
1491,-0.039,-0.355
1492,-0.043,-0.355
1493,-0.047,-0.355
1494,-0.048,-0.355
1495,-0.050,-0.355
1496,-0.054,-0.377
1497,-0.058,-0.377
1498,-0.062,-0.377
1499,-0.066,-0.377
1500,-0.070,-0.355
1501,-0.073,-0.355
1502,-0.074,-0.355
1503,-0.075,-0.355
1504,-0.072,-0.355
1505,-0.069,-0.355
1506,-0.066,-0.355
1507,-0.063,-0.355
1508,-0.062,-0.377
1509,-0.061,-0.377
1510,-0.059,-0.377
1511,-0.058,-0.377
1512,-0.058,-0.400
1513,-0.058,-0.400
1514,-0.058,-0.400
1515,-0.058,-0.400
1516,-0.057,-0.400
1517,-0.056,-0.400
1518,-0.055,-0.400
1519,-0.053,-0.400
1520,-0.052,-0.421
1521,-0.050,-0.421
1522,-0.048,-0.421
1523,-0.045,-0.421
1524,-0.043,-0.400
1525,-0.041,-0.400
1526,-0.040,-0.400
1527,-0.039,-0.400
1528,-0.040,-0.444
1529,-0.041,-0.444
1530,-0.041,-0.444
1531,-0.041,-0.444
1532,-0.041,-0.421
1533,-0.041,-0.421
1534,-0.040,-0.421
1535,-0.039,-0.421
1536,-0.038,-0.444
1537,-0.036,-0.444
1538,-0.034,-0.444
1539,-0.033,-0.444
1540,-0.030,-0.421
1541,-0.028,-0.421
1542,-0.026,-0.421
1543,-0.023,-0.421
1544,-0.021,-0.444
1545,-0.019,-0.444
1546,-0.016,-0.444
1547,-0.014,-0.444
1548,-0.011,-0.444
1549,-0.008,-0.444
1550,-0.005,-0.444
1551,-0.002,-0.444
1552,-0.001,-0.421
1553,0.000,-0.421
1554,0.000,-0.421
1555,0.000,-0.421
1556,0.000,-0.421
1557,0.000,-0.421
1558,0.001,-0.421
1559,0.002,-0.421
1560,0.003,-0.421
1561,0.005,-0.421
1562,0.005,-0.421
1563,0.005,-0.421
1564,0.005,-0.400
1565,0.005,-0.400
1566,0.005,-0.400
1567,0.005,-0.400
1568,0.005,-0.400
1569,0.006,-0.400
1570,0.008,-0.400
1571,0.009,-0.400
1572,0.011,-0.355
1573,0.013,-0.355
1574,0.012,-0.355
1575,0.011,-0.355
1576,0.011,-0.377
1577,0.011,-0.377
1578,0.011,-0.377
1579,0.011,-0.377
1580,0.012,-0.377
1581,0.013,-0.377
1582,0.015,-0.377
1583,0.017,-0.377
1584,0.020,-0.377
1585,0.022,-0.377
1586,0.023,-0.377
1587,0.023,-0.377
1588,0.023,-0.400
1589,0.022,-0.400
1590,0.022,-0.400
1591,0.022,-0.400
1592,0.022,-0.377
1593,0.022,-0.377
1594,0.022,-0.377
1595,0.022,-0.377
1596,0.021,-0.377
1597,0.020,-0.377
1598,0.019,-0.377
1599,0.017,-0.377
1600,0.016,-0.377
1601,0.014,-0.377
1602,0.013,-0.377
1603,0.013,-0.377
1604,0.010,-0.333
1605,0.008,-0.333
1606,0.007,-0.333
1607,0.006,-0.333
1608,0.005,-0.288
1609,0.005,-0.288
1610,0.005,-0.288
1611,0.005,-0.288
1612,0.005,-0.244
1613,0.006,-0.244
1614,0.008,-0.244
1615,0.009,-0.244
1616,0.012,-0.200
1617,0.014,-0.200
1618,0.016,-0.200
1619,0.017,-0.200
1620,0.020,-0.133
1621,0.022,-0.133
1622,0.023,-0.133
1623,0.023,-0.133
1624,0.023,-0.088
1625,0.022,-0.088
1626,0.023,-0.088
1627,0.023,-0.088
1628,0.025,0.000
1629,0.027,0.000
1630,0.028,0.000
1631,0.030,0.000
1632,0.029,0.089
1633,0.028,0.089
1634,0.027,0.089
1635,0.027,0.089
1636,0.025,0.133
1637,0.023,0.133
1638,0.023,0.133
1639,0.022,0.133
1640,0.021,0.200
1641,0.020,0.200
1642,0.019,0.200
1643,0.017,0.200
1644,0.016,0.244
1645,0.014,0.244
1646,0.013,0.244
1647,0.011,0.244
1648,0.008,0.288
1649,0.005,0.288
1650,0.005,0.288
1651,0.005,0.288
1652,0.005,0.333
1653,0.005,0.333
1654,0.004,0.333
1655,0.003,0.333
1656,0.002,0.355
1657,0.002,0.355
1658,0.002,0.355
1659,0.003,0.355
1660,0.004,0.378
1661,0.005,0.378
1662,0.005,0.378
1663,0.005,0.378
1664,0.005,0.400
1665,0.006,0.400
1666,0.009,0.400
1667,0.011,0.400
1668,0.014,0.421
1669,0.017,0.421
1670,0.017,0.421
1671,0.017,0.421
1672,0.016,0.421
1673,0.016,0.421
1674,0.014,0.421
1675,0.013,0.421
1676,0.011,0.421
1677,0.009,0.421
1678,0.011,0.421
1679,0.013,0.421
1680,0.014,0.400
1681,0.016,0.400
1682,0.016,0.400
1683,0.016,0.400
1684,0.014,0.400
1685,0.013,0.400
1686,0.011,0.400
1687,0.009,0.400
1688,0.011,0.378
1689,0.013,0.378
1690,0.014,0.378
1691,0.016,0.378
1692,0.016,0.378
1693,0.016,0.378
1694,0.014,0.378
1695,0.013,0.378
1696,0.011,0.355
1697,0.009,0.355
1698,0.010,0.355
1699,0.011,0.355
1700,0.011,0.333
1701,0.011,0.333
1702,0.011,0.333
1703,0.011,0.333
1704,0.012,0.310
1705,0.013,0.310
1706,0.014,0.310
1707,0.016,0.310
1708,0.017,0.267
1709,0.019,0.267
1710,0.020,0.267
1711,0.022,0.267
1712,0.023,0.243
1713,0.023,0.243
1714,0.023,0.243
1715,0.022,0.243
1716,0.022,0.199
1717,0.022,0.199
1718,0.022,0.199
1719,0.022,0.199
1720,0.021,0.177
1721,0.020,0.177
1722,0.018,0.177
1723,0.016,0.177
1724,0.013,0.133
1725,0.011,0.133
1726,0.010,0.133
1727,0.009,0.133
1728,0.010,0.088
1729,0.011,0.088
1730,0.012,0.088
1731,0.013,0.088
1732,0.014,0.088
1733,0.016,0.088
1734,0.017,0.088
1735,0.019,0.088
1736,0.020,0.044
1737,0.022,0.044
1738,0.023,0.044
1739,0.023,0.044
1740,0.022,0.022
1741,0.020,0.022
1742,0.019,0.022
1743,0.017,0.022
1744,0.016,0.000
1745,0.014,0.000
1746,0.013,0.000
1747,0.013,0.000
1748,0.010,-0.044
1749,0.008,-0.044
1750,0.007,-0.044
1751,0.006,-0.044
1752,0.006,-0.044
1753,0.006,-0.044
1754,0.009,-0.044
1755,0.011,-0.044
1756,0.014,-0.088
1757,0.017,-0.088
1758,0.018,-0.088
1759,0.019,-0.088
1760,0.020,-0.111
1761,0.020,-0.111
1762,0.020,-0.111
1763,0.019,-0.111
1764,0.016,-0.155
1765,0.014,-0.155
1766,0.013,-0.155
1767,0.013,-0.155
1768,0.012,-0.155
1769,0.011,-0.155
1770,0.014,-0.155
1771,0.017,-0.155
1772,0.020,-0.177
1773,0.023,-0.177
1774,0.026,-0.177
1775,0.028,-0.177
1776,0.029,-0.200
1777,0.030,-0.200
1778,0.029,-0.200
1779,0.028,-0.200
1780,0.028,-0.222
1781,0.028,-0.222
1782,0.027,-0.222
1783,0.027,-0.222
1784,0.025,-0.222
1785,0.023,-0.222
1786,0.023,-0.222
1787,0.022,-0.222
1788,0.023,-0.222
1789,0.023,-0.222
1790,0.026,-0.222
1791,0.028,-0.222
1792,0.033,-0.243
1793,0.038,-0.243
1794,0.043,-0.243
1795,0.048,-0.243
1796,0.057,-0.266
1797,0.066,-0.266
1798,0.075,-0.266
1799,0.084,-0.266
1800,0.093,-0.243
1801,0.102,-0.243
1802,0.111,-0.243
1803,0.120,-0.243
1804,0.128,-0.243
1805,0.136,-0.243
1806,0.142,-0.243
1807,0.149,-0.243
1808,0.152,-0.266
1809,0.156,-0.266
1810,0.159,-0.266
1811,0.161,-0.266
1812,0.163,-0.266
1813,0.164,-0.266
1814,0.163,-0.266
1815,0.161,-0.266
1816,0.159,-0.288
1817,0.158,-0.288
1818,0.158,-0.288
1819,0.158,-0.288
1820,0.156,-0.266
1821,0.155,-0.266
1822,0.152,-0.266
1823,0.150,-0.266
1824,0.145,-0.288
1825,0.141,-0.288
1826,0.135,-0.288
1827,0.130,-0.288
1828,0.123,-0.310
1829,0.116,-0.310
1830,0.108,-0.310
1831,0.100,-0.310
1832,0.095,-0.288
1833,0.089,-0.288
1834,0.086,-0.288
1835,0.083,-0.288
1836,0.078,-0.310
1837,0.073,-0.310
1838,0.069,-0.310
1839,0.064,-0.310
1840,0.059,-0.332
1841,0.055,-0.332
1842,0.048,-0.332
1843,0.042,-0.332
1844,0.038,-0.354
1845,0.033,-0.354
1846,0.030,-0.354
1847,0.027,-0.354
1848,0.023,-0.332
1849,0.020,-0.332
1850,0.018,-0.332
1851,0.016,-0.332
1852,0.013,-0.332
1853,0.009,-0.332
1854,0.007,-0.332
1855,0.005,-0.332
1856,0.005,-0.354
1857,0.005,-0.354
1858,0.005,-0.354
1859,0.005,-0.354
1860,0.005,-0.354
1861,0.006,-0.354
1862,0.009,-0.354
1863,0.011,-0.354
1864,0.016,-0.354
1865,0.022,-0.354
1866,0.030,-0.354
1867,0.039,-0.354
1868,0.053,-0.332
1869,0.067,-0.332
1870,0.089,-0.332
1871,0.111,-0.332
1872,0.140,-0.332
1873,0.169,-0.332
1874,0.202,-0.332
1875,0.235,-0.332
1876,0.268,-0.332
1877,0.302,-0.332
1878,0.336,-0.332
1879,0.371,-0.332
1880,0.407,-0.354
1881,0.444,-0.354
1882,0.476,-0.354
1883,0.508,-0.354
1884,0.524,-0.377
1885,0.539,-0.377
1886,0.528,-0.377
1887,0.516,-0.377
1888,0.476,-0.354
1889,0.436,-0.354
1890,0.379,-0.354
1891,0.322,-0.354
1892,0.268,-0.399
1893,0.214,-0.399
1894,0.177,-0.399
1895,0.141,-0.399
1896,0.128,-0.399
1897,0.116,-0.399
1898,0.124,-0.399
1899,0.131,-0.399
1900,0.150,-0.420
1901,0.169,-0.420
1902,0.187,-0.420
1903,0.205,-0.420
1904,0.213,-0.399
1905,0.220,-0.399
1906,0.213,-0.399
1907,0.206,-0.399
1908,0.187,-0.420
1909,0.167,-0.420
1910,0.142,-0.420
1911,0.116,-0.420
1912,0.090,-0.399
1913,0.064,-0.399
1914,0.043,-0.399
1915,0.022,-0.399
1916,0.009,-0.420
1917,-0.005,-0.420
1918,-0.010,-0.420
1919,-0.016,-0.420
1920,-0.018,-0.420
1921,-0.020,-0.420
1922,-0.023,-0.420
1923,-0.025,-0.420
1924,-0.028,-0.420
1925,-0.031,-0.420
1926,-0.036,-0.420
1927,-0.041,-0.420
1928,-0.044,-0.420
1929,-0.047,-0.420
1930,-0.048,-0.420
1931,-0.048,-0.420
1932,-0.050,-0.399
1933,-0.052,-0.399
1934,-0.052,-0.399
1935,-0.052,-0.399
1936,-0.049,-0.399
1937,-0.047,-0.399
1938,-0.046,-0.399
1939,-0.045,-0.399
1940,-0.046,-0.399
1941,-0.047,-0.399
1942,-0.047,-0.399
1943,-0.047,-0.399
1944,-0.047,-0.420
1945,-0.047,-0.420
1946,-0.046,-0.420
1947,-0.045,-0.420
1948,-0.044,-0.399
1949,-0.042,-0.399
1950,-0.040,-0.399
1951,-0.038,-0.399
1952,-0.036,-0.420
1953,-0.034,-0.420
1954,-0.032,-0.420
1955,-0.030,-0.420
1956,-0.029,-0.420
1957,-0.028,-0.420
1958,-0.029,-0.420
1959,-0.030,-0.420
1960,-0.029,-0.399
1961,-0.028,-0.399
1962,-0.027,-0.399
1963,-0.025,-0.399
1964,-0.023,-0.420
1965,-0.022,-0.420
1966,-0.019,-0.420
1967,-0.016,-0.420
1968,-0.014,-0.420
1969,-0.013,-0.420
1970,-0.012,-0.420
1971,-0.011,-0.420
1972,-0.011,-0.420
1973,-0.011,-0.420
1974,-0.012,-0.420
1975,-0.013,-0.420
1976,-0.012,-0.399
1977,-0.011,-0.399
1978,-0.008,-0.399
1979,-0.005,-0.399
1980,-0.002,-0.399
1981,0.000,-0.399
1982,0.002,-0.399
1983,0.005,-0.399
1984,0.006,-0.420
1985,0.008,-0.420
1986,0.009,-0.420
1987,0.011,-0.420
1988,0.012,-0.420
1989,0.013,-0.420
1990,0.015,-0.420
1991,0.017,-0.420
1992,0.020,-0.399
1993,0.022,-0.399
1994,0.023,-0.399
1995,0.023,-0.399
1996,0.023,-0.420
1997,0.022,-0.420
1998,0.022,-0.420
1999,0.022,-0.420
2000,0.022,-0.420
2001,0.022,-0.420
2002,0.022,-0.420
2003,0.022,-0.420
2004,0.022,-0.399
2005,0.022,-0.399
2006,0.022,-0.399
2007,0.022,-0.399
2008,0.022,-0.420
2009,0.022,-0.420
2010,0.022,-0.420
2011,0.022,-0.420
2012,0.022,-0.399
2013,0.022,-0.399
2014,0.022,-0.399
2015,0.022,-0.399
2016,0.022,-0.399
2017,0.022,-0.399
2018,0.021,-0.399
2019,0.020,-0.399
2020,0.019,-0.399
2021,0.017,-0.399
2022,0.016,-0.399
2023,0.014,-0.399
2024,0.013,-0.377
2025,0.013,-0.377
2026,0.010,-0.377
2027,0.008,-0.377
2028,0.007,-0.354
2029,0.006,-0.354
2030,0.005,-0.354
2031,0.005,-0.354
2032,0.005,-0.310
2033,0.005,-0.310
2034,0.005,-0.310
2035,0.005,-0.310
2036,0.005,-0.288
2037,0.005,-0.288
2038,0.005,-0.288
2039,0.005,-0.288
2040,0.005,-0.243
2041,0.005,-0.243
2042,0.005,-0.243
2043,0.005,-0.243
2044,0.005,-0.177
2045,0.005,-0.177
2046,0.005,-0.177
2047,0.006,-0.177
2048,0.009,-0.088
2049,0.011,-0.088
2050,0.014,-0.088
2051,0.017,-0.088
2052,0.018,-0.022
2053,0.019,-0.022
2054,0.020,-0.022
2055,0.022,-0.022
2056,0.022,0.044
2057,0.022,0.044
2058,0.019,0.044
2059,0.016,0.044
2060,0.013,0.133
2061,0.011,0.133
2062,0.009,0.133
2063,0.008,0.133
2064,0.006,0.177
2065,0.005,0.177
2066,0.001,0.177
2067,-0.003,0.177
2068,-0.008,0.243
2069,-0.013,0.243
2070,-0.016,0.243
2071,-0.020,0.243
2072,-0.022,0.287
2073,-0.023,0.287
2074,-0.023,0.287
2075,-0.023,0.287
2076,-0.023,0.309
2077,-0.023,0.309
2078,-0.024,0.309
2079,-0.025,0.309
2080,-0.027,0.354
2081,-0.028,0.354
2082,-0.028,0.354
2083,-0.028,0.354
2084,-0.027,0.354
2085,-0.025,0.354
2086,-0.024,0.354
2087,-0.023,0.354
2088,-0.023,0.398
2089,-0.022,0.398
2090,-0.023,0.398
2091,-0.025,0.398
2092,-0.027,0.376
2093,-0.030,0.376
2094,-0.033,0.376
2095,-0.036,0.376
2096,-0.038,0.398
2097,-0.041,0.398
2098,-0.041,0.398
2099,-0.042,0.398
2100,-0.041,0.398
2101,-0.039,0.398
2102,-0.038,0.398
2103,-0.036,0.398
2104,-0.034,0.420
2105,-0.033,0.420
2106,-0.031,0.420
2107,-0.030,0.420
2108,-0.028,0.398
2109,-0.027,0.398
2110,-0.026,0.398
2111,-0.025,0.398
2112,-0.023,0.398
2113,-0.022,0.398
2114,-0.019,0.398
2115,-0.016,0.398
2116,-0.013,0.398
2117,-0.011,0.398
2118,-0.008,0.398
2119,-0.005,0.398
2120,-0.003,0.354
2121,-0.002,0.354
2122,-0.001,0.354
2123,0.000,0.354
2124,0.000,0.332
2125,0.000,0.332
2126,0.001,0.332
2127,0.002,0.332
2128,0.004,0.354
2129,0.006,0.354
2130,0.008,0.354
2131,0.009,0.354
2132,0.012,0.309
2133,0.014,0.309
2134,0.015,0.309
2135,0.016,0.309
2136,0.016,0.287
2137,0.017,0.287
2138,0.017,0.287
2139,0.017,0.287
2140,0.017,0.266
2141,0.017,0.266
2142,0.017,0.266
2143,0.017,0.266
2144,0.017,0.221
2145,0.017,0.221
2146,0.017,0.221
2147,0.017,0.221
2148,0.017,0.199
2149,0.017,0.199
2150,0.018,0.199
2151,0.019,0.199
2152,0.020,0.154
2153,0.022,0.154
2154,0.023,0.154
2155,0.023,0.154
2156,0.023,0.154
2157,0.022,0.154
2158,0.021,0.154
2159,0.020,0.154
2160,0.019,0.111
2161,0.017,0.111
2162,0.016,0.111
2163,0.014,0.111
2164,0.013,0.088
2165,0.011,0.088
2166,0.008,0.088
2167,0.005,0.088
2168,0.005,0.044
2169,0.005,0.044
2170,0.005,0.044
2171,0.006,0.044
2172,0.008,0.022
2173,0.009,0.022
2174,0.012,0.022
2175,0.014,0.022
2176,0.015,-0.022
2177,0.016,-0.022
2178,0.017,-0.022
2179,0.019,-0.022
2180,0.020,-0.044
2181,0.020,-0.044
2182,0.019,-0.044
2183,0.017,-0.044
2184,0.013,-0.067
2185,0.009,-0.067
2186,0.006,-0.067
2187,0.003,-0.067
2188,0.002,-0.111
2189,0.002,-0.111
2190,0.002,-0.111
2191,0.003,-0.111
2192,0.005,-0.111
2193,0.006,-0.111
2194,0.008,-0.111
2195,0.009,-0.111
2196,0.010,-0.133
2197,0.011,-0.133
2198,0.009,-0.133
2199,0.006,-0.133
2200,0.005,-0.155
2201,0.005,-0.155
2202,0.004,-0.155
2203,0.003,-0.155
2204,0.002,-0.177
2205,0.002,-0.177
2206,0.002,-0.177
2207,0.003,-0.177
2208,0.004,-0.200
2209,0.005,-0.200
2210,0.005,-0.200
2211,0.005,-0.200
2212,0.005,-0.200
2213,0.005,-0.200
2214,0.005,-0.200
2215,0.006,-0.200
2216,0.008,-0.243
2217,0.009,-0.243
2218,0.013,-0.243
2219,0.016,-0.243
2220,0.019,-0.243
2221,0.022,-0.243
2222,0.027,-0.243
2223,0.033,-0.243
2224,0.041,-0.243
2225,0.048,-0.243
2226,0.056,-0.243
2227,0.064,-0.243
2228,0.071,-0.266
2229,0.078,-0.266
2230,0.082,-0.266
2231,0.086,-0.266
2232,0.088,-0.243
2233,0.091,-0.243
2234,0.092,-0.243
2235,0.094,-0.243
2236,0.095,-0.266
2237,0.097,-0.266
2238,0.100,-0.266
2239,0.103,-0.266
2240,0.106,-0.266
2241,0.109,-0.266
2242,0.111,-0.266
2243,0.113,-0.266
2244,0.110,-0.287
2245,0.108,-0.287
2246,0.104,-0.287
2247,0.100,-0.287
2248,0.095,-0.287
2249,0.089,-0.287
2250,0.084,-0.287
2251,0.078,-0.287
2252,0.073,-0.266
2253,0.067,-0.266
2254,0.063,-0.266
2255,0.058,-0.266
2256,0.053,-0.266
2257,0.048,-0.266
2258,0.043,-0.266
2259,0.038,-0.266
2260,0.031,-0.266
2261,0.025,-0.266
2262,0.020,-0.266
2263,0.014,-0.266
2264,0.009,-0.287
2265,0.003,-0.287
2266,-0.003,-0.287
2267,-0.009,-0.287
2268,-0.015,-0.287
2269,-0.020,-0.287
2270,-0.026,-0.287
2271,-0.031,-0.287
2272,-0.037,-0.287
2273,-0.042,-0.287
2274,-0.045,-0.287
2275,-0.048,-0.287
2276,-0.051,-0.309
2277,-0.053,-0.309
2278,-0.056,-0.309
2279,-0.058,-0.309
2280,-0.058,-0.287
2281,-0.058,-0.287
2282,-0.059,-0.287
2283,-0.059,-0.287
2284,-0.061,-0.287
2285,-0.063,-0.287
2286,-0.063,-0.287
2287,-0.064,-0.287
2288,-0.063,-0.309
2289,-0.061,-0.309
2290,-0.058,-0.309
2291,-0.055,-0.309
2292,-0.048,-0.309
2293,-0.042,-0.309
2294,-0.029,-0.309
2295,-0.016,-0.309
2296,0.006,-0.287
2297,0.028,-0.287
2298,0.057,-0.287
2299,0.086,-0.287
2300,0.119,-0.309
2301,0.152,-0.309
2302,0.185,-0.309
2303,0.219,-0.309
2304,0.252,-0.332
2305,0.285,-0.332
2306,0.318,-0.332
2307,0.352,-0.332
2308,0.385,-0.354
2309,0.418,-0.354
2310,0.443,-0.354
2311,0.468,-0.354
2312,0.474,-0.332
2313,0.480,-0.332
2314,0.457,-0.332
2315,0.435,-0.332
2316,0.387,-0.354
2317,0.339,-0.354
2318,0.281,-0.354
2319,0.224,-0.354
2320,0.174,-0.332
2321,0.124,-0.332
2322,0.097,-0.332
2323,0.070,-0.332
2324,0.068,-0.376
2325,0.066,-0.376
2326,0.081,-0.376
2327,0.097,-0.376
2328,0.120,-0.376
2329,0.142,-0.376
2330,0.158,-0.376
2331,0.174,-0.376
2332,0.174,-0.376
2333,0.175,-0.376
2334,0.164,-0.376
2335,0.153,-0.376
2336,0.134,-0.376
2337,0.116,-0.376
2338,0.091,-0.376
2339,0.066,-0.376
2340,0.042,-0.398
2341,0.019,-0.398
2342,0.002,-0.398
2343,-0.016,-0.398
2344,-0.025,-0.376
2345,-0.034,-0.376
2346,-0.038,-0.376
2347,-0.041,-0.376
2348,-0.041,-0.398
2349,-0.042,-0.398
2350,-0.042,-0.398
2351,-0.042,-0.398
2352,-0.044,-0.398
2353,-0.045,-0.398
2354,-0.046,-0.398
2355,-0.047,-0.398
2356,-0.047,-0.420
2357,-0.047,-0.420
2358,-0.046,-0.420
2359,-0.045,-0.420
2360,-0.044,-0.398
2361,-0.042,-0.398
2362,-0.040,-0.398
2363,-0.038,-0.398
2364,-0.036,-0.398
2365,-0.034,-0.398
2366,-0.031,-0.398
2367,-0.028,-0.398
2368,-0.026,-0.376
2369,-0.023,-0.376
2370,-0.022,-0.376
2371,-0.020,-0.376
2372,-0.020,-0.398
2373,-0.019,-0.398
2374,-0.017,-0.398
2375,-0.016,-0.398
2376,-0.014,-0.398
2377,-0.013,-0.398
2378,-0.012,-0.398
2379,-0.011,-0.398
2380,-0.011,-0.420
2381,-0.011,-0.420
2382,-0.011,-0.420
2383,-0.011,-0.420
2384,-0.009,-0.376
2385,-0.008,-0.376
2386,-0.006,-0.376
2387,-0.005,-0.376
2388,-0.002,-0.398
2389,0.000,-0.398
2390,0.003,-0.398
2391,0.006,-0.398
2392,0.009,-0.398
2393,0.013,-0.398
2394,0.016,-0.398
2395,0.019,-0.398
2396,0.020,-0.420
2397,0.022,-0.420
2398,0.023,-0.420
2399,0.023,-0.420
2400,0.023,-0.398
2401,0.022,-0.398
2402,0.022,-0.398
2403,0.022,-0.398
2404,0.022,-0.420
2405,0.022,-0.420
2406,0.022,-0.420
2407,0.022,-0.420
2408,0.022,-0.398
2409,0.022,-0.398
2410,0.022,-0.398
2411,0.022,-0.398
2412,0.023,-0.420
2413,0.023,-0.420
2414,0.025,-0.420
2415,0.027,-0.420
2416,0.028,-0.420
2417,0.030,-0.420
2418,0.029,-0.420
2419,0.028,-0.420
2420,0.028,-0.398
2421,0.028,-0.398
2422,0.028,-0.398
2423,0.028,-0.398
2424,0.028,-0.398
2425,0.028,-0.398
2426,0.028,-0.398
2427,0.028,-0.398
2428,0.028,-0.398
2429,0.028,-0.398
2430,0.029,-0.398
2431,0.030,-0.398
2432,0.030,-0.398
2433,0.031,-0.398
2434,0.030,-0.398
2435,0.030,-0.398
2436,0.029,-0.398
2437,0.028,-0.398
2438,0.027,-0.398
2439,0.027,-0.398
2440,0.025,-0.376
2441,0.023,-0.376
2442,0.023,-0.376
2443,0.023,-0.376
2444,0.025,-0.376
2445,0.027,-0.376
2446,0.028,-0.376
2447,0.030,-0.376
2448,0.029,-0.376
2449,0.028,-0.376
2450,0.028,-0.376
2451,0.028,-0.376
2452,0.028,-0.354
2453,0.028,-0.354
2454,0.028,-0.354
2455,0.028,-0.354
2456,0.028,-0.332
2457,0.028,-0.332
2458,0.028,-0.332
2459,0.028,-0.332
2460,0.027,-0.287
2461,0.027,-0.287
2462,0.025,-0.287
2463,0.023,-0.287
2464,0.023,-0.266
2465,0.022,-0.266
2466,0.022,-0.266
2467,0.022,-0.266
2468,0.021,-0.199
2469,0.020,-0.199
2470,0.019,-0.199
2471,0.017,-0.199
2472,0.017,-0.154
2473,0.017,-0.154
2474,0.020,-0.154
2475,0.022,-0.154
2476,0.023,-0.066
2477,0.023,-0.066
2478,0.023,-0.066
2479,0.023,-0.066
2480,0.025,-0.022
2481,0.027,-0.022
2482,0.028,-0.022
2483,0.030,-0.022
2484,0.029,0.022
2485,0.028,0.022
2486,0.027,0.022
2487,0.027,0.022
2488,0.024,0.111
2489,0.022,0.111
2490,0.020,0.111
2491,0.017,0.111
2492,0.016,0.200
2493,0.014,0.200
2494,0.013,0.200
2495,0.011,0.200
2496,0.007,0.222
2497,0.003,0.222
2498,0.001,0.222
2499,-0.002,0.222
2500,-0.005,0.266
2501,-0.008,0.266
2502,-0.010,0.266
2503,-0.013,0.266
2504,-0.015,0.310
2505,-0.017,0.310
2506,-0.016,0.310
2507,-0.016,0.310
2508,-0.014,0.354
2509,-0.013,0.354
2510,-0.012,0.354
2511,-0.011,0.354
2512,-0.011,0.399
2513,-0.011,0.399
2514,-0.013,0.399
2515,-0.014,0.399
2516,-0.015,0.399
2517,-0.016,0.399
2518,-0.015,0.399
2519,-0.014,0.399
2520,-0.014,0.399
2521,-0.014,0.399
2522,-0.014,0.399
2523,-0.014,0.399
2524,-0.014,0.443
2525,-0.014,0.443
2526,-0.014,0.443
2527,-0.014,0.443
2528,-0.015,0.420
2529,-0.016,0.420
2530,-0.017,0.420
2531,-0.019,0.420
2532,-0.021,0.420
2533,-0.023,0.420
2534,-0.023,0.420
2535,-0.023,0.420
2536,-0.023,0.443
2537,-0.023,0.443
2538,-0.023,0.443
2539,-0.022,0.443
2540,-0.020,0.399
2541,-0.019,0.399
2542,-0.017,0.399
2543,-0.016,0.399
2544,-0.014,0.377
2545,-0.013,0.377
2546,-0.012,0.377
2547,-0.011,0.377
2548,-0.011,0.377
2549,-0.011,0.377
2550,-0.012,0.377
2551,-0.013,0.377
2552,-0.012,0.354
2553,-0.011,0.354
2554,-0.009,0.354
2555,-0.008,0.354
2556,-0.009,0.332
2557,-0.011,0.332
2558,-0.012,0.332
2559,-0.013,0.332
2560,-0.013,0.332
2561,-0.013,0.332
2562,-0.011,0.332
2563,-0.009,0.332
2564,-0.007,0.310
2565,-0.005,0.310
2566,-0.003,0.310
2567,-0.002,0.310
2568,0.000,0.288
2569,0.002,0.288
2570,0.003,0.288
2571,0.005,0.288
2572,0.005,0.266
2573,0.005,0.266
2574,0.005,0.266
2575,0.005,0.266
2576,0.005,0.222
2577,0.005,0.222
2578,0.005,0.222
2579,0.005,0.222
2580,0.005,0.200
2581,0.005,0.200
2582,0.005,0.200
2583,0.005,0.200
2584,0.005,0.155
2585,0.005,0.155
2586,0.005,0.155
2587,0.005,0.155
2588,0.005,0.133
2589,0.005,0.133
2590,0.005,0.133
2591,0.005,0.133
2592,0.005,0.088
2593,0.006,0.088
2594,0.008,0.088
2595,0.009,0.088
2596,0.011,0.067
2597,0.013,0.067
2598,0.012,0.067
2599,0.011,0.067
2600,0.011,0.022
2601,0.011,0.022
2602,0.011,0.022
2603,0.011,0.022
2604,0.010,0.022
2605,0.009,0.022
2606,0.008,0.022
2607,0.006,0.022
2608,0.005,-0.022
2609,0.005,-0.022
2610,0.005,-0.022
2611,0.005,-0.022
2612,0.005,-0.044
2613,0.005,-0.044
2614,0.005,-0.044
2615,0.005,-0.044
2616,0.005,-0.044
2617,0.005,-0.044
2618,0.005,-0.044
2619,0.005,-0.044
2620,0.005,-0.088
2621,0.005,-0.088
2622,0.005,-0.088
2623,0.006,-0.088
2624,0.008,-0.111
2625,0.009,-0.111
2626,0.012,-0.111
2627,0.014,-0.111
2628,0.015,-0.111
2629,0.016,-0.111
2630,0.016,-0.111
2631,0.016,-0.111
2632,0.014,-0.133
2633,0.013,-0.133
2634,0.011,-0.133
2635,0.009,-0.133
2636,0.011,-0.154
2637,0.013,-0.154
2638,0.014,-0.154
2639,0.016,-0.154
2640,0.017,-0.154
2641,0.019,-0.154
2642,0.020,-0.154
2643,0.022,-0.154
2644,0.023,-0.154
2645,0.025,-0.154
2646,0.027,-0.154
2647,0.028,-0.154
2648,0.033,-0.177
2649,0.038,-0.177
2650,0.042,-0.177
2651,0.047,-0.177
2652,0.054,-0.199
2653,0.061,-0.199
2654,0.068,-0.199
2655,0.075,-0.199
2656,0.081,-0.199
2657,0.088,-0.199
2658,0.091,-0.199
2659,0.094,-0.199
2660,0.096,-0.221
2661,0.099,-0.221
2662,0.101,-0.221
2663,0.103,-0.221
2664,0.107,-0.243
2665,0.111,-0.243
2666,0.115,-0.243
2667,0.119,-0.243
2668,0.120,-0.221
2669,0.120,-0.221
2670,0.119,-0.221
2671,0.117,-0.221
2672,0.113,-0.243
2673,0.108,-0.243
2674,0.103,-0.243
2675,0.099,-0.243
2676,0.095,-0.243
2677,0.091,-0.243
2678,0.087,-0.243
2679,0.083,-0.243
2680,0.077,-0.243
2681,0.072,-0.243
2682,0.065,-0.243
2683,0.058,-0.243
2684,0.051,-0.243
2685,0.044,-0.243
2686,0.037,-0.243
2687,0.030,-0.243
2688,0.026,-0.243
2689,0.022,-0.243
2690,0.017,-0.243
2691,0.013,-0.243
2692,0.005,-0.243
2693,-0.002,-0.243
2694,-0.008,-0.243
2695,-0.014,-0.243
2696,-0.020,-0.266
2697,-0.025,-0.266
2698,-0.029,-0.266
2699,-0.033,-0.266
2700,-0.036,-0.243
2701,-0.039,-0.243
2702,-0.041,-0.243
2703,-0.044,-0.243
2704,-0.045,-0.243
2705,-0.045,-0.243
2706,-0.046,-0.243
2707,-0.047,-0.243
2708,-0.047,-0.266
2709,-0.047,-0.266
2710,-0.048,-0.266
2711,-0.048,-0.266
2712,-0.049,-0.287
2713,-0.050,-0.287
2714,-0.049,-0.287
2715,-0.048,-0.287
2716,-0.045,-0.266
2717,-0.042,-0.266
2718,-0.037,-0.266
2719,-0.031,-0.266
2720,-0.020,-0.266
2721,-0.009,-0.266
2722,0.011,-0.266
2723,0.031,-0.266
2724,0.057,-0.287
2725,0.083,-0.287
2726,0.113,-0.287
2727,0.144,-0.287
2728,0.177,-0.309
2729,0.210,-0.309
2730,0.244,-0.309
2731,0.278,-0.309
2732,0.314,-0.287
2733,0.349,-0.287
2734,0.383,-0.287
2735,0.418,-0.287
2736,0.443,-0.311
2737,0.468,-0.311
2738,0.471,-0.311
2739,0.475,-0.311
2740,0.452,-0.334
2741,0.428,-0.334
2742,0.381,-0.334
2743,0.333,-0.334
2744,0.274,-0.356
2745,0.216,-0.356
2746,0.169,-0.356
2747,0.122,-0.356
2748,0.098,-0.356
2749,0.073,-0.356
2750,0.072,-0.356
2751,0.070,-0.356
2752,0.087,-0.379
2753,0.103,-0.379
2754,0.125,-0.379
2755,0.147,-0.379
2756,0.159,-0.356
2757,0.172,-0.356
2758,0.170,-0.356
2759,0.169,-0.356
2760,0.155,-0.379
2761,0.141,-0.379
2762,0.119,-0.379
2763,0.097,-0.379
2764,0.070,-0.379
2765,0.042,-0.379
2766,0.019,-0.379
2767,-0.005,-0.379
2768,-0.023,-0.401
2769,-0.041,-0.401
2770,-0.052,-0.401
2771,-0.063,-0.401
2772,-0.067,-0.423
2773,-0.072,-0.423
2774,-0.074,-0.423
2775,-0.077,-0.423
2776,-0.079,-0.401
2777,-0.081,-0.401
2778,-0.085,-0.401
2779,-0.089,-0.401
2780,-0.093,-0.423
2781,-0.097,-0.423
2782,-0.098,-0.423
2783,-0.099,-0.423
2784,-0.099,-0.468
2785,-0.099,-0.468
2786,-0.099,-0.468
2787,-0.099,-0.468
2788,-0.098,-0.445
2789,-0.097,-0.445
2790,-0.095,-0.445
2791,-0.092,-0.445
2792,-0.088,-0.468
2793,-0.084,-0.468
2794,-0.081,-0.468
2795,-0.078,-0.468
2796,-0.073,-0.468
2797,-0.069,-0.468
2798,-0.066,-0.468
2799,-0.063,-0.468
2800,-0.063,-0.468
2801,-0.063,-0.468
2802,-0.062,-0.468
2803,-0.061,-0.468
2804,-0.059,-0.489
2805,-0.058,-0.489
2806,-0.057,-0.489
2807,-0.056,-0.489
2808,-0.054,-0.489
2809,-0.052,-0.489
2810,-0.049,-0.489
2811,-0.047,-0.489
2812,-0.046,-0.489
2813,-0.045,-0.489
2814,-0.046,-0.489
2815,-0.047,-0.489
2816,-0.046,-0.489
2817,-0.045,-0.489
2818,-0.044,-0.489
2819,-0.042,-0.489
2820,-0.040,-0.489
2821,-0.038,-0.489
2822,-0.036,-0.489
2823,-0.034,-0.489
2824,-0.031,-0.489
2825,-0.028,-0.489
2826,-0.025,-0.489
2827,-0.022,-0.489
2828,-0.019,-0.445
2829,-0.016,-0.445
2830,-0.014,-0.445
2831,-0.013,-0.445
2832,-0.012,-0.445
2833,-0.011,-0.445
2834,-0.011,-0.445
2835,-0.011,-0.445
2836,-0.012,-0.445
2837,-0.013,-0.445
2838,-0.012,-0.445
2839,-0.011,-0.445
2840,-0.008,-0.468
2841,-0.005,-0.468
2842,-0.003,-0.468
2843,-0.002,-0.468
2844,0.000,-0.468
2845,0.002,-0.468
2846,0.003,-0.468
2847,0.005,-0.468
2848,0.005,-0.445
2849,0.005,-0.445
2850,0.005,-0.445
2851,0.005,-0.445
2852,0.005,-0.468
2853,0.005,-0.468
2854,0.005,-0.468
2855,0.005,-0.468
2856,0.005,-0.445
2857,0.005,-0.445
2858,0.005,-0.445
2859,0.005,-0.445
2860,0.005,-0.468
2861,0.005,-0.468
2862,0.005,-0.468
2863,0.006,-0.468
2864,0.008,-0.468
2865,0.009,-0.468
2866,0.012,-0.468
2867,0.014,-0.468
2868,0.015,-0.445
2869,0.016,-0.445
2870,0.016,-0.445
2871,0.016,-0.445
2872,0.014,-0.445
2873,0.013,-0.445
2874,0.010,-0.445
2875,0.008,-0.445
2876,0.007,-0.445
2877,0.006,-0.445
2878,0.005,-0.445
2879,0.005,-0.445
2880,0.005,-0.423
2881,0.005,-0.423
2882,0.005,-0.423
2883,0.005,-0.423
2884,0.004,-0.401
2885,0.003,-0.401
2886,0.002,-0.401
2887,0.000,-0.401
2888,-0.002,-0.356
2889,-0.005,-0.356
2890,-0.007,-0.356
2891,-0.009,-0.356
2892,-0.012,-0.334
2893,-0.014,-0.334
2894,-0.016,-0.334
2895,-0.017,-0.334
2896,-0.018,-0.289
2897,-0.019,-0.289
2898,-0.020,-0.289
2899,-0.022,-0.289
2900,-0.020,-0.223
2901,-0.019,-0.223
2902,-0.017,-0.223
2903,-0.016,-0.223
2904,-0.013,-0.156
2905,-0.011,-0.156
2906,-0.009,-0.156
2907,-0.006,-0.156
2908,-0.006,-0.067
2909,-0.006,-0.067
2910,-0.006,-0.067
2911,-0.006,-0.067
2912,-0.007,-0.022
2913,-0.008,-0.022
2914,-0.010,-0.022
2915,-0.013,-0.022
2916,-0.016,0.067
2917,-0.019,0.067
2918,-0.022,0.067
2919,-0.025,0.067
2920,-0.028,0.134
2921,-0.031,0.134
2922,-0.035,0.134
2923,-0.039,0.134
2924,-0.041,0.178
2925,-0.044,0.178
2926,-0.045,0.178
2927,-0.047,0.178
2928,-0.050,0.223
2929,-0.053,0.223
2930,-0.056,0.223
2931,-0.058,0.223
2932,-0.059,0.244
2933,-0.059,0.244
2934,-0.061,0.244
2935,-0.063,0.244
2936,-0.064,0.267
2937,-0.066,0.267
2938,-0.066,0.267
2939,-0.066,0.267
2940,-0.066,0.289
2941,-0.066,0.289
2942,-0.066,0.289
2943,-0.066,0.289
2944,-0.065,0.334
2945,-0.064,0.334
2946,-0.063,0.334
2947,-0.061,0.334
2948,-0.059,0.311
2949,-0.058,0.311
2950,-0.058,0.311
2951,-0.058,0.311
2952,-0.058,0.334
2953,-0.058,0.334
2954,-0.058,0.334
2955,-0.058,0.334
2956,-0.058,0.311
2957,-0.058,0.311
2958,-0.058,0.311
2959,-0.058,0.311
2960,-0.059,0.334
2961,-0.059,0.334
2962,-0.060,0.334
2963,-0.061,0.334
2964,-0.060,0.334
2965,-0.059,0.334
2966,-0.058,0.334
2967,-0.056,0.334
2968,-0.054,0.311
2969,-0.052,0.311
2970,-0.049,0.311
2971,-0.047,0.311
2972,-0.047,0.311
2973,-0.047,0.311
2974,-0.050,0.311
2975,-0.053,0.311
2976,-0.056,0.289
2977,-0.058,0.289
2978,-0.058,0.289
2979,-0.058,0.289
2980,-0.057,0.267
2981,-0.056,0.267
2982,-0.054,0.267
2983,-0.052,0.267
2984,-0.049,0.244
2985,-0.047,0.244
2986,-0.046,0.244
2987,-0.045,0.244
2988,-0.046,0.223
2989,-0.047,0.223
2990,-0.047,0.223
2991,-0.047,0.223
2992,-0.047,0.230
2993,-0.047,0.230
2994,-0.047,0.230
2995,-0.047,0.230
2996,-0.047,0.188
2997,-0.047,0.188
2998,-0.047,0.188
2999,-0.047,0.188
3000,-0.047,0.167
3001,-0.047,0.167
3002,-0.047,0.167
3003,-0.047,0.167
3004,-0.047,0.146
3005,-0.047,0.146
3006,-0.047,0.146
3007,-0.047,0.146
3008,-0.047,0.125
3009,-0.047,0.125
3010,-0.047,0.125
3011,-0.047,0.125
3012,-0.047,0.084
3013,-0.047,0.084
3014,-0.046,0.084
3015,-0.045,0.084
3016,-0.044,0.084
3017,-0.042,0.084
3018,-0.040,0.084
3019,-0.038,0.084
3020,-0.036,0.062
3021,-0.034,0.062
3022,-0.032,0.062
3023,-0.030,0.062
3024,-0.029,0.021
3025,-0.028,0.021
3026,-0.029,0.021
3027,-0.030,0.021
3028,-0.030,0.021
3029,-0.031,0.021
3030,-0.033,0.021
3031,-0.034,0.021
3032,-0.034,-0.021
3033,-0.034,-0.021
3034,-0.034,-0.021
3035,-0.034,-0.021
3036,-0.034,-0.021
3037,-0.033,-0.021
3038,-0.031,-0.021
3039,-0.030,-0.021
3040,-0.029,-0.042
3041,-0.028,-0.042
3042,-0.029,-0.042
3043,-0.030,-0.042
3044,-0.030,-0.084
3045,-0.030,-0.084
3046,-0.030,-0.084
3047,-0.030,-0.084
3048,-0.030,-0.084
3049,-0.030,-0.084
3050,-0.030,-0.084
3051,-0.030,-0.084
3052,-0.030,-0.126
3053,-0.031,-0.126
3054,-0.033,-0.126
3055,-0.034,-0.126
3056,-0.035,-0.104
3057,-0.036,-0.104
3058,-0.038,-0.104
3059,-0.039,-0.104
3060,-0.041,-0.126
3061,-0.042,-0.126
3062,-0.041,-0.126
3063,-0.041,-0.126
3064,-0.040,-0.146
3065,-0.039,-0.146
3066,-0.036,-0.146
3067,-0.033,-0.146
3068,-0.027,-0.146
3069,-0.022,-0.146
3070,-0.015,-0.146
3071,-0.008,-0.146
3072,0.000,-0.146
3073,0.008,-0.146
3074,0.017,-0.146
3075,0.027,-0.146
3076,0.034,-0.146
3077,0.042,-0.146
3078,0.048,-0.146
3079,0.053,-0.146
3080,0.059,-0.167
3081,0.066,-0.167
3082,0.070,-0.167
3083,0.075,-0.167
3084,0.079,-0.167
3085,0.083,-0.167
3086,0.088,-0.167
3087,0.094,-0.167
3088,0.099,-0.167
3089,0.105,-0.167
3090,0.110,-0.167
3091,0.116,-0.167
3092,0.118,-0.167
3093,0.120,-0.167
3094,0.120,-0.167
3095,0.119,-0.167
3096,0.116,-0.167
3097,0.114,-0.167
3098,0.113,-0.167
3099,0.113,-0.167
3100,0.109,-0.146
3101,0.106,-0.146
3102,0.103,-0.146
3103,0.100,-0.146
3104,0.095,-0.146
3105,0.091,-0.146
3106,0.086,-0.146
3107,0.081,-0.146
3108,0.073,-0.167
3109,0.066,-0.167
3110,0.057,-0.167
3111,0.048,-0.167
3112,0.042,-0.188
3113,0.036,-0.188
3114,0.030,-0.188
3115,0.025,-0.188
3116,0.020,-0.209
3117,0.016,-0.209
3118,0.012,-0.209
3119,0.008,-0.209
3120,0.002,-0.188
3121,-0.003,-0.188
3122,-0.009,-0.188
3123,-0.014,-0.188
3124,-0.020,-0.209
3125,-0.025,-0.209
3126,-0.028,-0.209
3127,-0.031,-0.209
3128,-0.033,-0.209
3129,-0.034,-0.209
3130,-0.034,-0.209
3131,-0.034,-0.209
3132,-0.034,-0.230
3133,-0.033,-0.230
3134,-0.031,-0.230
3135,-0.030,-0.230
3136,-0.030,-0.188
3137,-0.030,-0.188
3138,-0.032,-0.188
3139,-0.034,-0.188
3140,-0.034,-0.209
3141,-0.034,-0.209
3142,-0.030,-0.209
3143,-0.025,-0.209
3144,-0.014,-0.209
3145,-0.003,-0.209
3146,0.018,-0.209
3147,0.039,-0.209
3148,0.069,-0.230
3149,0.099,-0.230
3150,0.131,-0.230
3151,0.164,-0.230
3152,0.202,-0.230
3153,0.239,-0.230
3154,0.279,-0.230
3155,0.319,-0.230
3156,0.363,-0.251
3157,0.407,-0.251
3158,0.453,-0.251
3159,0.500,-0.251
3160,0.540,-0.230
3161,0.580,-0.230
3162,0.598,-0.230
3163,0.616,-0.230
3164,0.600,-0.251
3165,0.585,-0.251
3166,0.538,-0.251
3167,0.491,-0.251
3168,0.427,-0.251
3169,0.363,-0.251
3170,0.300,-0.251
3171,0.238,-0.251
3172,0.196,-0.272
3173,0.155,-0.272
3174,0.142,-0.272
3175,0.130,-0.272
3176,0.142,-0.292
3177,0.153,-0.292
3178,0.176,-0.292
3179,0.199,-0.292
3180,0.213,-0.313
3181,0.227,-0.313
3182,0.222,-0.313
3183,0.217,-0.313
3184,0.193,-0.292
3185,0.169,-0.292
3186,0.134,-0.292
3187,0.100,-0.292
3188,0.064,-0.292
3189,0.028,-0.292
3190,0.000,-0.292
3191,-0.028,-0.292
3192,-0.045,-0.313
3193,-0.063,-0.313
3194,-0.070,-0.313
3195,-0.077,-0.313
3196,-0.077,-0.292
3197,-0.077,-0.292
3198,-0.076,-0.292
3199,-0.075,-0.292
3200,-0.077,-0.313
3201,-0.078,-0.313
3202,-0.082,-0.313
3203,-0.086,-0.313
3204,-0.089,-0.334
3205,-0.092,-0.334
3206,-0.092,-0.334
3207,-0.092,-0.334
3208,-0.089,-0.334
3209,-0.086,-0.334
3210,-0.082,-0.334
3211,-0.078,-0.334
3212,-0.073,-0.355
3213,-0.069,-0.355
3214,-0.066,-0.355
3215,-0.063,-0.355
3216,-0.062,-0.355
3217,-0.061,-0.355
3218,-0.059,-0.355
3219,-0.056,-0.355
3220,-0.055,-0.376
3221,-0.053,-0.376
3222,-0.052,-0.376
3223,-0.050,-0.376
3224,-0.048,-0.355
3225,-0.047,-0.355
3226,-0.046,-0.355
3227,-0.045,-0.355
3228,-0.045,-0.376
3229,-0.045,-0.376
3230,-0.044,-0.376
3231,-0.042,-0.376
3232,-0.040,-0.397
3233,-0.038,-0.397
3234,-0.036,-0.397
3235,-0.034,-0.397
3236,-0.031,-0.376
3237,-0.028,-0.376
3238,-0.025,-0.376
3239,-0.022,-0.376
3240,-0.020,-0.376
3241,-0.017,-0.376
3242,-0.016,-0.376
3243,-0.016,-0.376
3244,-0.014,-0.376
3245,-0.013,-0.376
3246,-0.012,-0.376
3247,-0.011,-0.376
3248,-0.010,-0.376
3249,-0.009,-0.376
3250,-0.008,-0.376
3251,-0.006,-0.376
3252,-0.004,-0.376
3253,-0.002,-0.376
3254,0.000,-0.376
3255,0.002,-0.376
3256,0.004,-0.376
3257,0.006,-0.376
3258,0.009,-0.376
3259,0.011,-0.376
3260,0.016,-0.355
3261,0.020,-0.355
3262,0.025,-0.355
3263,0.030,-0.355
3264,0.034,-0.355
3265,0.038,-0.355
3266,0.041,-0.355
3267,0.044,-0.355
3268,0.045,-0.355
3269,0.047,-0.355
3270,0.046,-0.355
3271,0.045,-0.355
3272,0.045,-0.355
3273,0.045,-0.355
3274,0.045,-0.355
3275,0.044,-0.355
3276,0.042,-0.355
3277,0.041,-0.355
3278,0.040,-0.355
3279,0.039,-0.355
3280,0.040,-0.355
3281,0.041,-0.355
3282,0.043,-0.355
3283,0.045,-0.355
3284,0.048,-0.313
3285,0.052,-0.313
3286,0.055,-0.313
3287,0.058,-0.313
3288,0.060,-0.334
3289,0.063,-0.334
3290,0.063,-0.334
3291,0.063,-0.334
3292,0.063,-0.334
3293,0.063,-0.334
3294,0.063,-0.334
3295,0.063,-0.334
3296,0.063,-0.313
3297,0.063,-0.313
3298,0.063,-0.313
3299,0.063,-0.313
3300,0.063,-0.313
3301,0.063,-0.313
3302,0.063,-0.313
3303,0.063,-0.313
3304,0.062,-0.292
3305,0.061,-0.292
3306,0.059,-0.292
3307,0.056,-0.292
3308,0.052,-0.272
3309,0.048,-0.272
3310,0.044,-0.272
3311,0.039,-0.272
3312,0.036,-0.272
3313,0.033,-0.272
3314,0.030,-0.272
3315,0.027,-0.272
3316,0.024,-0.209
3317,0.022,-0.209
3318,0.022,-0.209
3319,0.022,-0.209
3320,0.022,-0.167
3321,0.022,-0.167
3322,0.022,-0.167
3323,0.022,-0.167
3324,0.022,-0.084
3325,0.022,-0.084
3326,0.022,-0.084
3327,0.022,-0.084
3328,0.022,-0.042
3329,0.022,-0.042
3330,0.022,-0.042
3331,0.022,-0.042
3332,0.021,0.062
3333,0.020,0.062
3334,0.018,0.062
3335,0.016,0.062
3336,0.012,0.125
3337,0.008,0.125
3338,0.003,0.125
3339,-0.002,0.125
3340,-0.005,0.167
3341,-0.008,0.167
3342,-0.010,0.167
3343,-0.013,0.167
3344,-0.016,0.251
3345,-0.020,0.251
3346,-0.025,0.251
3347,-0.030,0.251
3348,-0.034,0.313
3349,-0.038,0.313
3350,-0.042,0.313
3351,-0.047,0.313
3352,-0.050,0.313
3353,-0.053,0.313
3354,-0.056,0.313
3355,-0.058,0.313
3356,-0.058,0.376
3357,-0.058,0.376
3358,-0.058,0.376
3359,-0.058,0.376
3360,-0.057,0.397
3361,-0.056,0.397
3362,-0.056,0.397
3363,-0.055,0.397
3364,-0.056,0.397
3365,-0.056,0.397
3366,-0.058,0.397
3367,-0.059,0.397
3368,-0.061,0.417
3369,-0.063,0.417
3370,-0.064,0.417
3371,-0.066,0.417
3372,-0.066,0.397
3373,-0.067,0.397
3374,-0.067,0.397
3375,-0.067,0.397
3376,-0.065,0.417
3377,-0.063,0.417
3378,-0.059,0.417
3379,-0.056,0.417
3380,-0.053,0.397
3381,-0.050,0.397
3382,-0.048,0.397
3383,-0.047,0.397
3384,-0.046,0.417
3385,-0.045,0.417
3386,-0.046,0.417
3387,-0.047,0.417
3388,-0.047,0.417
3389,-0.047,0.417
3390,-0.047,0.417
3391,-0.047,0.417
3392,-0.047,0.397
3393,-0.047,0.397
3394,-0.047,0.397
3395,-0.047,0.397
3396,-0.047,0.397
3397,-0.047,0.397
3398,-0.047,0.397
3399,-0.047,0.397
3400,-0.047,0.397
3401,-0.047,0.397
3402,-0.046,0.397
3403,-0.045,0.397
3404,-0.044,0.376
3405,-0.042,0.376
3406,-0.040,0.376
3407,-0.038,0.376
3408,-0.037,0.355
3409,-0.036,0.355
3410,-0.035,0.355
3411,-0.034,0.355
3412,-0.034,0.355
3413,-0.034,0.355
3414,-0.035,0.355
3415,-0.036,0.355
3416,-0.038,0.334
3417,-0.039,0.334
3418,-0.041,0.334
3419,-0.042,0.334
3420,-0.041,0.334
3421,-0.039,0.334
3422,-0.037,0.334
3423,-0.034,0.334
3424,-0.031,0.313
3425,-0.028,0.313
3426,-0.026,0.313
3427,-0.023,0.313
3428,-0.023,0.292
3429,-0.022,0.292
3430,-0.023,0.292
3431,-0.025,0.292
3432,-0.027,0.272
3433,-0.028,0.272
3434,-0.029,0.272
3435,-0.030,0.272
3436,-0.030,0.230
3437,-0.030,0.230
3438,-0.030,0.230
3439,-0.030,0.230
3440,-0.030,0.230
3441,-0.030,0.230
3442,-0.030,0.230
3443,-0.030,0.230
3444,-0.030,0.167
3445,-0.030,0.167
3446,-0.029,0.167
3447,-0.028,0.167
3448,-0.027,0.146
3449,-0.025,0.146
3450,-0.023,0.146
3451,-0.022,0.146
3452,-0.020,0.084
3453,-0.017,0.084
3454,-0.017,0.084
3455,-0.017,0.084
3456,-0.018,0.062
3457,-0.019,0.062
3458,-0.022,0.062
3459,-0.025,0.062
3460,-0.027,0.042
3461,-0.030,0.042
3462,-0.032,0.042
3463,-0.034,0.042
3464,-0.035,0.000
3465,-0.036,0.000
3466,-0.034,0.000
3467,-0.033,0.000
3468,-0.031,-0.042
3469,-0.030,-0.042
3470,-0.029,-0.042
3471,-0.028,-0.042
3472,-0.029,-0.042
3473,-0.030,-0.042
3474,-0.030,-0.042
3475,-0.030,-0.042
3476,-0.029,-0.062
3477,-0.028,-0.062
3478,-0.026,-0.062
3479,-0.023,-0.062
3480,-0.020,-0.084
3481,-0.016,-0.084
3482,-0.014,-0.084
3483,-0.013,-0.084
3484,-0.012,-0.104
3485,-0.011,-0.104
3486,-0.012,-0.104
3487,-0.013,-0.104
3488,-0.016,-0.104
3489,-0.019,-0.104
3490,-0.021,-0.104
3491,-0.023,-0.104
3492,-0.023,-0.126
3493,-0.023,-0.126
3494,-0.023,-0.126
3495,-0.022,-0.126
3496,-0.020,-0.146
3497,-0.019,-0.146
3498,-0.016,-0.146
3499,-0.014,-0.146
3500,-0.009,-0.167
3501,-0.005,-0.167
3502,0.002,-0.167
3503,0.009,-0.167
3504,0.016,-0.150
3505,0.023,-0.150
3506,0.031,-0.150
3507,0.039,-0.150
3508,0.047,-0.172
3509,0.055,-0.172
3510,0.063,-0.172
3511,0.070,-0.172
3512,0.076,-0.193
3513,0.081,-0.193
3514,0.084,-0.193
3515,0.088,-0.193
3516,0.090,-0.214
3517,0.092,-0.214
3518,0.095,-0.214
3519,0.099,-0.214
3520,0.100,-0.193
3521,0.102,-0.193
3522,0.102,-0.193
3523,0.103,-0.193
3524,0.102,-0.193
3525,0.100,-0.193
3526,0.098,-0.193
3527,0.095,-0.193
3528,0.093,-0.193
3529,0.091,-0.193
3530,0.087,-0.193
3531,0.083,-0.193
3532,0.078,-0.214
3533,0.073,-0.214
3534,0.069,-0.214
3535,0.064,-0.214
3536,0.059,-0.214
3537,0.055,-0.214
3538,0.049,-0.214
3539,0.044,-0.214
3540,0.040,-0.214
3541,0.036,-0.214
3542,0.032,-0.214
3543,0.028,-0.214
3544,0.023,-0.236
3545,0.019,-0.236
3546,0.014,-0.236
3547,0.009,-0.236
3548,0.005,-0.236
3549,0.002,-0.236
3550,-0.002,-0.236
3551,-0.006,-0.236
3552,-0.011,-0.214
3553,-0.016,-0.214
3554,-0.020,-0.214
3555,-0.023,-0.214
3556,-0.027,-0.236
3557,-0.031,-0.236
3558,-0.034,-0.236
3559,-0.036,-0.236
3560,-0.035,-0.236
3561,-0.034,-0.236
3562,-0.034,-0.236
3563,-0.034,-0.236
3564,-0.034,-0.236
3565,-0.034,-0.236
3566,-0.034,-0.236
3567,-0.033,-0.236
3568,-0.031,-0.258
3569,-0.030,-0.258
3570,-0.028,-0.258
3571,-0.027,-0.258
3572,-0.023,-0.258
3573,-0.019,-0.258
3574,-0.006,-0.258
3575,0.006,-0.258
3576,0.027,-0.279
3577,0.047,-0.279
3578,0.076,-0.279
3579,0.105,-0.279
3580,0.140,-0.258
3581,0.175,-0.258
3582,0.213,-0.258
3583,0.250,-0.258
3584,0.288,-0.279
3585,0.325,-0.279
3586,0.364,-0.279
3587,0.402,-0.279
3588,0.440,-0.300
3589,0.478,-0.300
3590,0.510,-0.300
3591,0.541,-0.300
3592,0.557,-0.300
3593,0.574,-0.300
3594,0.564,-0.300
3595,0.554,-0.300
3596,0.514,-0.322
3597,0.475,-0.322
3598,0.414,-0.322
3599,0.353,-0.322
3600,0.294,-0.322
3601,0.235,-0.322
3602,0.194,-0.322
3603,0.153,-0.322
3604,0.138,-0.343
3605,0.124,-0.343
3606,0.133,-0.343
3607,0.142,-0.343
3608,0.165,-0.364
3609,0.188,-0.364
3610,0.206,-0.364
3611,0.225,-0.364
3612,0.229,-0.343
3613,0.233,-0.343
3614,0.221,-0.343
3615,0.210,-0.343
3616,0.185,-0.364
3617,0.161,-0.364
3618,0.131,-0.364
3619,0.102,-0.364
3620,0.074,-0.364
3621,0.047,-0.364
3622,0.025,-0.364
3623,0.003,-0.364
3624,-0.010,-0.364
3625,-0.023,-0.364
3626,-0.030,-0.364
3627,-0.038,-0.364
3628,-0.041,-0.364
3629,-0.044,-0.364
3630,-0.045,-0.364
3631,-0.047,-0.364
3632,-0.050,-0.386
3633,-0.053,-0.386
3634,-0.056,-0.386
3635,-0.058,-0.386
3636,-0.057,-0.386
3637,-0.056,-0.386
3638,-0.055,-0.386
3639,-0.053,-0.386
3640,-0.052,-0.386
3641,-0.050,-0.386
3642,-0.048,-0.386
3643,-0.047,-0.386
3644,-0.045,-0.407
3645,-0.044,-0.407
3646,-0.043,-0.407
3647,-0.042,-0.407
3648,-0.040,-0.364
3649,-0.038,-0.364
3650,-0.037,-0.364
3651,-0.036,-0.364
3652,-0.035,-0.386
3653,-0.034,-0.386
3654,-0.034,-0.386
3655,-0.034,-0.386
3656,-0.034,-0.386
3657,-0.034,-0.386
3658,-0.034,-0.386
3659,-0.033,-0.386
3660,-0.031,-0.386
3661,-0.030,-0.386
3662,-0.029,-0.386
3663,-0.028,-0.386
3664,-0.028,-0.386
3665,-0.028,-0.386
3666,-0.027,-0.386
3667,-0.025,-0.386
3668,-0.023,-0.386
3669,-0.022,-0.386
3670,-0.020,-0.386
3671,-0.017,-0.386
3672,-0.016,-0.364
3673,-0.016,-0.364
3674,-0.013,-0.364
3675,-0.009,-0.364
3676,-0.005,-0.386
3677,0.000,-0.386
3678,0.004,-0.386
3679,0.008,-0.386
3680,0.012,-0.386
3681,0.016,-0.386
3682,0.016,-0.386
3683,0.017,-0.386
3684,0.017,-0.386
3685,0.017,-0.386
3686,0.016,-0.386
3687,0.016,-0.386
3688,0.014,-0.364
3689,0.013,-0.364
3690,0.011,-0.364
3691,0.009,-0.364
3692,0.011,-0.364
3693,0.013,-0.364
3694,0.015,-0.364
3695,0.017,-0.364
3696,0.020,-0.364
3697,0.022,-0.364
3698,0.023,-0.364
3699,0.023,-0.364
3700,0.023,-0.364
3701,0.022,-0.364
3702,0.022,-0.364
3703,0.022,-0.364
3704,0.022,-0.364
3705,0.022,-0.364
3706,0.022,-0.364
3707,0.022,-0.364
3708,0.022,-0.364
3709,0.022,-0.364
3710,0.022,-0.364
3711,0.022,-0.364
3712,0.023,-0.364
3713,0.023,-0.364
3714,0.025,-0.364
3715,0.027,-0.364
3716,0.029,-0.343
3717,0.031,-0.343
3718,0.032,-0.343
3719,0.033,-0.343
3720,0.034,-0.343
3721,0.034,-0.343
3722,0.034,-0.343
3723,0.034,-0.343
3724,0.034,-0.364
3725,0.033,-0.364
3726,0.031,-0.364
3727,0.030,-0.364
3728,0.028,-0.322
3729,0.027,-0.322
3730,0.027,-0.322
3731,0.028,-0.322
3732,0.028,-0.322
3733,0.028,-0.322
3734,0.027,-0.322
3735,0.027,-0.322
3736,0.025,-0.322
3737,0.023,-0.322
3738,0.023,-0.322
3739,0.022,-0.322
3740,0.021,-0.300
3741,0.020,-0.300
3742,0.019,-0.300
3743,0.017,-0.300
3744,0.016,-0.279
3745,0.014,-0.279
3746,0.013,-0.279
3747,0.013,-0.279
3748,0.011,-0.236
3749,0.009,-0.236
3750,0.011,-0.236
3751,0.013,-0.236
3752,0.015,-0.193
3753,0.017,-0.193
3754,0.019,-0.193
3755,0.020,-0.193
3756,0.020,-0.150
3757,0.019,-0.150
3758,0.016,-0.150
3759,0.014,-0.150
3760,0.013,-0.065
3761,0.013,-0.065
3762,0.010,-0.065
3763,0.008,-0.065
3764,0.007,-0.021
3765,0.006,-0.021
3766,0.005,-0.021
3767,0.005,-0.021
3768,0.004,0.064
3769,0.003,0.064
3770,0.001,0.064
3771,-0.002,0.064
3772,-0.005,0.129
3773,-0.008,0.129
3774,-0.010,0.129
3775,-0.013,0.129
3776,-0.016,0.193
3777,-0.019,0.193
3778,-0.022,0.193
3779,-0.025,0.193
3780,-0.027,0.214
3781,-0.030,0.214
3782,-0.033,0.214
3783,-0.036,0.214
3784,-0.038,0.257
3785,-0.041,0.257
3786,-0.042,0.257
3787,-0.044,0.257
3788,-0.045,0.322
3789,-0.045,0.322
3790,-0.046,0.322
3791,-0.047,0.322
3792,-0.047,0.322
3793,-0.047,0.322
3794,-0.047,0.322
3795,-0.047,0.322
3796,-0.047,0.322
3797,-0.047,0.322
3798,-0.047,0.322
3799,-0.047,0.322
3800,-0.047,0.343
3801,-0.047,0.343
3802,-0.047,0.343
3803,-0.047,0.343
3804,-0.047,0.364
3805,-0.047,0.364
3806,-0.047,0.364
3807,-0.047,0.364
3808,-0.047,0.343
3809,-0.047,0.343
3810,-0.046,0.343
3811,-0.045,0.343
3812,-0.044,0.364
3813,-0.042,0.364
3814,-0.041,0.364
3815,-0.039,0.364
3816,-0.040,0.364
3817,-0.041,0.364
3818,-0.041,0.364
3819,-0.041,0.364
3820,-0.041,0.343
3821,-0.041,0.343
3822,-0.041,0.343
3823,-0.041,0.343
3824,-0.041,0.343
3825,-0.041,0.343
3826,-0.041,0.343
3827,-0.041,0.343
3828,-0.041,0.364
3829,-0.041,0.364
3830,-0.041,0.364
3831,-0.041,0.364
3832,-0.040,0.322
3833,-0.039,0.322
3834,-0.038,0.322
3835,-0.036,0.322
3836,-0.035,0.322
3837,-0.034,0.322
3838,-0.034,0.322
3839,-0.034,0.322
3840,-0.034,0.300
3841,-0.033,0.300
3842,-0.031,0.300
3843,-0.030,0.300
3844,-0.029,0.279
3845,-0.028,0.279
3846,-0.028,0.279
3847,-0.028,0.279
3848,-0.027,0.235
3849,-0.025,0.235
3850,-0.023,0.235
3851,-0.022,0.235
3852,-0.020,0.235
3853,-0.017,0.235
3854,-0.018,0.235
3855,-0.019,0.235
3856,-0.022,0.214
3857,-0.025,0.214
3858,-0.027,0.214
3859,-0.028,0.214
3860,-0.029,0.172
3861,-0.030,0.172
3862,-0.030,0.172
3863,-0.030,0.172
3864,-0.029,0.150
3865,-0.028,0.150
3866,-0.026,0.150
3867,-0.023,0.150
3868,-0.020,0.107
3869,-0.017,0.107
3870,-0.017,0.107
3871,-0.017,0.107
3872,-0.017,0.064
3873,-0.017,0.064
3874,-0.016,0.064
3875,-0.016,0.064
3876,-0.014,0.064
3877,-0.013,0.064
3878,-0.012,0.064
3879,-0.011,0.064
3880,-0.011,0.021
3881,-0.011,0.021
3882,-0.012,0.021
3883,-0.013,0.021
3884,-0.013,0.000
3885,-0.014,0.000
3886,-0.016,0.000
3887,-0.017,0.000
3888,-0.020,-0.021
3889,-0.022,-0.021
3890,-0.023,-0.021
3891,-0.025,-0.021
3892,-0.023,-0.065
3893,-0.022,-0.065
3894,-0.019,-0.065
3895,-0.016,-0.065
3896,-0.014,-0.065
3897,-0.013,-0.065
3898,-0.012,-0.065
3899,-0.011,-0.065
3900,-0.011,-0.129
3901,-0.011,-0.129
3902,-0.012,-0.129
3903,-0.013,-0.129
3904,-0.013,-0.129
3905,-0.014,-0.129
3906,-0.015,-0.129
3907,-0.016,-0.129
3908,-0.016,-0.172
3909,-0.017,-0.172
3910,-0.017,-0.172
3911,-0.017,-0.172
3912,-0.017,-0.172
3913,-0.017,-0.172
3914,-0.016,-0.172
3915,-0.016,-0.172
3916,-0.014,-0.193
3917,-0.013,-0.193
3918,-0.012,-0.193
3919,-0.011,-0.193
3920,-0.011,-0.214
3921,-0.011,-0.214
3922,-0.012,-0.214
3923,-0.013,-0.214
3924,-0.012,-0.214
3925,-0.011,-0.214
3926,-0.008,-0.214
3927,-0.005,-0.214
3928,-0.002,-0.236
3929,0.002,-0.236
3930,0.008,-0.236
3931,0.014,-0.236
3932,0.023,-0.214
3933,0.031,-0.214
3934,0.040,-0.214
3935,0.048,-0.214
3936,0.057,-0.214
3937,0.066,-0.214
3938,0.072,-0.214
3939,0.078,-0.214
3940,0.081,-0.214
3941,0.084,-0.214
3942,0.087,-0.214
3943,0.089,-0.214
3944,0.093,-0.236
3945,0.097,-0.236
3946,0.100,-0.236
3947,0.103,-0.236
3948,0.106,-0.236
3949,0.109,-0.236
3950,0.112,-0.236
3951,0.114,-0.236
3952,0.113,-0.236
3953,0.113,-0.236
3954,0.109,-0.236
3955,0.106,-0.236
3956,0.104,-0.236
3957,0.102,-0.236
3958,0.099,-0.236
3959,0.095,-0.236
3960,0.091,-0.258
3961,0.088,-0.258
3962,0.083,-0.258
3963,0.078,-0.258
3964,0.073,-0.258
3965,0.069,-0.258
3966,0.063,-0.258
3967,0.056,-0.258
3968,0.051,-0.236
3969,0.045,-0.236
3970,0.039,-0.236
3971,0.033,-0.236
3972,0.026,-0.258
3973,0.019,-0.258
3974,0.013,-0.258
3975,0.008,-0.258
3976,0.003,-0.258
3977,-0.002,-0.258
3978,-0.005,-0.258
3979,-0.009,-0.258
3980,-0.013,-0.258
3981,-0.017,-0.258
3982,-0.021,-0.258
3983,-0.025,-0.258
3984,-0.028,-0.279
3985,-0.031,-0.279
3986,-0.034,-0.279
3987,-0.036,-0.279
3988,-0.038,-0.279
3989,-0.039,-0.279
3990,-0.041,-0.279
3991,-0.044,-0.279
3992,-0.045,-0.300
3993,-0.045,-0.300
3994,-0.046,-0.300
3995,-0.047,-0.300
3996,-0.047,-0.300
3997,-0.047,-0.300
3998,-0.046,-0.300
3999,-0.045,-0.300
4000,-0.042,-0.300
4001,-0.039,-0.300
4002,-0.030,-0.300
4003,-0.022,-0.300
4004,-0.006,-0.279
4005,0.009,-0.279
4006,0.033,-0.279
4007,0.056,-0.279
4008,0.087,-0.300
4009,0.117,-0.300
4010,0.152,-0.300
4011,0.186,-0.300
4012,0.221,-0.300
4013,0.256,-0.300
4014,0.293,-0.300
4015,0.330,-0.300
4016,0.367,-0.279
4017,0.405,-0.279
4018,0.440,-0.279
4019,0.475,-0.279
4020,0.498,-0.322
4021,0.521,-0.322
4022,0.518,-0.322
4023,0.516,-0.322
4024,0.482,-0.322
4025,0.449,-0.322
4026,0.394,-0.322
4027,0.339,-0.322
4028,0.281,-0.343
4029,0.224,-0.343
4030,0.177,-0.343
4031,0.131,-0.343
4032,0.111,-0.343
4033,0.091,-0.343
4034,0.093,-0.343
4035,0.095,-0.343
4036,0.113,-0.364
4037,0.130,-0.364
4038,0.150,-0.364
4039,0.170,-0.364
4040,0.183,-0.364
4041,0.195,-0.364
4042,0.192,-0.364
4043,0.189,-0.364
4044,0.174,-0.343
4045,0.158,-0.343
4046,0.134,-0.343
4047,0.109,-0.343
4048,0.084,-0.343
4049,0.058,-0.343
4050,0.036,-0.343
4051,0.014,-0.343
4052,-0.002,-0.343
4053,-0.017,-0.343
4054,-0.026,-0.343
4055,-0.034,-0.343
4056,-0.038,-0.364
4057,-0.042,-0.364
4058,-0.046,-0.364
4059,-0.050,-0.364
4060,-0.055,-0.364
4061,-0.059,-0.364
4062,-0.064,-0.364
4063,-0.069,-0.364
4064,-0.072,-0.343
4065,-0.075,-0.343
4066,-0.075,-0.343
4067,-0.075,-0.343
4068,-0.074,-0.364
4069,-0.073,-0.364
4070,-0.070,-0.364
4071,-0.067,-0.364
4072,-0.065,-0.386
4073,-0.063,-0.386
4074,-0.059,-0.386
4075,-0.056,-0.386
4076,-0.054,-0.364
4077,-0.052,-0.364
4078,-0.051,-0.364
4079,-0.050,-0.364
4080,-0.048,-0.386
4081,-0.047,-0.386
4082,-0.046,-0.386
4083,-0.045,-0.386
4084,-0.046,-0.407
4085,-0.047,-0.407
4086,-0.047,-0.407
4087,-0.047,-0.407
4088,-0.047,-0.386
4089,-0.047,-0.386
4090,-0.046,-0.386
4091,-0.045,-0.386
4092,-0.044,-0.386
4093,-0.042,-0.386
4094,-0.040,-0.386
4095,-0.038,-0.386
4096,-0.036,-0.407
4097,-0.034,-0.407
4098,-0.031,-0.407
4099,-0.028,-0.407
4100,-0.025,-0.407
4101,-0.022,-0.407
4102,-0.020,-0.407
4103,-0.017,-0.407
4104,-0.016,-0.386
4105,-0.016,-0.386
4106,-0.014,-0.386
4107,-0.013,-0.386
4108,-0.012,-0.386
4109,-0.011,-0.386
4110,-0.011,-0.386
4111,-0.011,-0.386
4112,-0.011,-0.407
4113,-0.011,-0.407
4114,-0.009,-0.407
4115,-0.006,-0.407
4116,-0.003,-0.386
4117,0.000,-0.386
4118,0.003,-0.386
4119,0.006,-0.386
4120,0.009,-0.386
4121,0.011,-0.386
4122,0.013,-0.386
4123,0.014,-0.386
4124,0.015,-0.407
4125,0.016,-0.407
4126,0.016,-0.407
4127,0.017,-0.407
4128,0.017,-0.407
4129,0.017,-0.407
4130,0.016,-0.407
4131,0.016,-0.407
4132,0.014,-0.386
4133,0.013,-0.386
4134,0.012,-0.386
4135,0.011,-0.386
4136,0.013,-0.386
4137,0.016,-0.386
4138,0.017,-0.386
4139,0.019,-0.386
4140,0.020,-0.407
4141,0.022,-0.407
4142,0.023,-0.407
4143,0.023,-0.407
4144,0.023,-0.386
4145,0.022,-0.386
4146,0.022,-0.386
4147,0.022,-0.386
4148,0.021,-0.407
4149,0.020,-0.407
4150,0.019,-0.407
4151,0.017,-0.407
4152,0.016,-0.407
4153,0.016,-0.407
4154,0.016,-0.407
4155,0.017,-0.407
4156,0.017,-0.364
4157,0.017,-0.364
4158,0.017,-0.364
4159,0.017,-0.364
4160,0.016,-0.364
4161,0.016,-0.364
4162,0.014,-0.364
4163,0.013,-0.364
4164,0.011,-0.364
4165,0.009,-0.364
4166,0.010,-0.364
4167,0.011,-0.364
4168,0.011,-0.322
4169,0.011,-0.322
4170,0.011,-0.322
4171,0.011,-0.322
4172,0.011,-0.322
4173,0.011,-0.322
4174,0.010,-0.322
4175,0.009,-0.322
4176,0.008,-0.258
4177,0.006,-0.258
4178,0.005,-0.258
4179,0.005,-0.258
4180,0.005,-0.214
4181,0.006,-0.214
4182,0.008,-0.214
4183,0.009,-0.214
4184,0.012,-0.150
4185,0.014,-0.150
4186,0.016,-0.150
4187,0.017,-0.150
4188,0.020,-0.086
4189,0.022,-0.086
4190,0.023,-0.086
4191,0.023,-0.086
4192,0.023,-0.043
4193,0.022,-0.043
4194,0.022,-0.043
4195,0.022,-0.043
4196,0.022,0.043
4197,0.022,0.043
4198,0.022,0.043
4199,0.022,0.043
4200,0.022,0.107
4201,0.022,0.107
4202,0.021,0.107
4203,0.020,0.107
4204,0.019,0.172
4205,0.017,0.172
4206,0.016,0.172
4207,0.014,0.172
4208,0.013,0.214
4209,0.011,0.214
4210,0.007,0.214
4211,0.003,0.214
4212,0.001,0.300
4213,-0.002,0.300
4214,-0.005,0.300
4215,-0.008,0.300
4216,-0.009,0.343
4217,-0.011,0.343
4218,-0.012,0.343
4219,-0.013,0.343
4220,-0.013,0.364
4221,-0.013,0.364
4222,-0.012,0.364
4223,-0.011,0.364
4224,-0.012,0.386
4225,-0.013,0.386
4226,-0.015,0.386
4227,-0.017,0.386
4228,-0.017,0.428
4229,-0.017,0.428
4230,-0.016,0.428
4231,-0.016,0.428
4232,-0.014,0.428
4233,-0.013,0.428
4234,-0.012,0.428
4235,-0.011,0.428
4236,-0.011,0.450
4237,-0.011,0.450
4238,-0.011,0.450
4239,-0.011,0.450
4240,-0.009,0.450
4241,-0.008,0.450
4242,-0.006,0.450
4243,-0.005,0.450
4244,-0.002,0.450
4245,0.000,0.450
4246,0.002,0.450
4247,0.005,0.450
4248,0.005,0.428
4249,0.006,0.428
4250,0.006,0.428
4251,0.006,0.428
4252,0.007,0.428
4253,0.008,0.428
4254,0.008,0.428
4255,0.008,0.428
4256,0.006,0.428
4257,0.005,0.428
4258,0.005,0.428
4259,0.005,0.428
4260,0.005,0.428
4261,0.005,0.428
4262,0.005,0.428
4263,0.005,0.428
4264,0.005,0.386
4265,0.005,0.386
4266,0.005,0.386
4267,0.005,0.386
4268,0.004,0.364
4269,0.003,0.364
4270,0.002,0.364
4271,0.000,0.364
4272,0.000,0.364
4273,0.000,0.364
4274,0.002,0.364
4275,0.005,0.364
4276,0.005,0.343
4277,0.006,0.343
4278,0.005,0.343
4279,0.005,0.343
4280,0.005,0.343
4281,0.005,0.343
4282,0.005,0.343
4283,0.005,0.343
4284,0.005,0.300
4285,0.006,0.300
4286,0.008,0.300
4287,0.009,0.300
4288,0.011,0.279
4289,0.013,0.279
4290,0.012,0.279
4291,0.011,0.279
4292,0.010,0.257
4293,0.009,0.257
4294,0.008,0.257
4295,0.006,0.257
4296,0.005,0.214
4297,0.005,0.214
4298,0.005,0.214
4299,0.005,0.214
4300,0.005,0.193
4301,0.006,0.193
4302,0.008,0.193
4303,0.009,0.193
4304,0.011,0.193
4305,0.013,0.193
4306,0.012,0.193
4307,0.011,0.193
4308,0.011,0.150
4309,0.011,0.150
4310,0.010,0.150
4311,0.009,0.150
4312,0.007,0.107
4313,0.005,0.107
4314,0.002,0.107
4315,0.000,0.107
4316,-0.001,0.086
4317,-0.002,0.086
4318,-0.001,0.086
4319,0.000,0.086
4320,0.000,0.043
4321,0.000,0.043
4322,0.000,0.043
4323,0.000,0.043
4324,0.001,0.021
4325,0.002,0.021
4326,0.003,0.021
4327,0.005,0.021
4328,0.005,-0.021
4329,0.005,-0.021
4330,0.005,-0.021
4331,0.005,-0.021
4332,0.005,-0.043
4333,0.005,-0.043
4334,0.005,-0.043
4335,0.005,-0.043
4336,0.004,-0.086
4337,0.003,-0.086
4338,0.002,-0.086
4339,0.000,-0.086
4340,-0.001,-0.086
4341,-0.002,-0.086
4342,-0.001,-0.086
4343,0.000,-0.086
4344,0.000,-0.129
4345,0.000,-0.129
4346,0.000,-0.129
4347,0.000,-0.129
4348,0.001,-0.107
4349,0.002,-0.107
4350,0.003,-0.107
4351,0.005,-0.107
4352,0.005,-0.129
4353,0.006,-0.129
4354,0.009,-0.129
4355,0.011,-0.129
4356,0.015,-0.150
4357,0.019,-0.150
4358,0.022,-0.150
4359,0.025,-0.150
4360,0.030,-0.150
4361,0.036,-0.150
4362,0.043,-0.150
4363,0.050,-0.150
4364,0.058,-0.150
4365,0.066,-0.150
4366,0.073,-0.150
4367,0.081,-0.150
4368,0.084,-0.172
4369,0.088,-0.172
4370,0.090,-0.172
4371,0.092,-0.172
4372,0.095,-0.172
4373,0.099,-0.172
4374,0.101,-0.172
4375,0.103,-0.172
4376,0.107,-0.193
4377,0.111,-0.193
4378,0.115,-0.193
4379,0.119,-0.193
4380,0.120,-0.172
4381,0.120,-0.172
4382,0.119,-0.172
4383,0.117,-0.172
4384,0.112,-0.172
4385,0.106,-0.172
4386,0.100,-0.172
4387,0.094,-0.172
4388,0.088,-0.172
4389,0.083,-0.172
4390,0.077,-0.172
4391,0.070,-0.172
4392,0.062,-0.172
4393,0.053,-0.172
4394,0.046,-0.172
4395,0.039,-0.172
4396,0.034,-0.193
4397,0.030,-0.193
4398,0.025,-0.193
4399,0.020,-0.193
4400,0.015,-0.193
4401,0.009,-0.193
4402,0.003,-0.193
4403,-0.003,-0.193
4404,-0.009,-0.193
4405,-0.016,-0.193
4406,-0.023,-0.193
4407,-0.030,-0.193
4408,-0.034,-0.214
4409,-0.038,-0.214
4410,-0.040,-0.214
4411,-0.042,-0.214
4412,-0.044,-0.236
4413,-0.045,-0.236
4414,-0.046,-0.236
4415,-0.047,-0.236
4416,-0.047,-0.214
4417,-0.047,-0.214
4418,-0.047,-0.214
4419,-0.047,-0.214
4420,-0.047,-0.236
4421,-0.047,-0.236
4422,-0.048,-0.236
4423,-0.048,-0.236
4424,-0.049,-0.258
4425,-0.050,-0.258
4426,-0.048,-0.258
4427,-0.047,-0.258
4428,-0.040,-0.236
4429,-0.033,-0.236
4430,-0.019,-0.236
4431,-0.005,-0.236
4432,0.018,-0.258
4433,0.041,-0.258
4434,0.069,-0.258
4435,0.097,-0.258
4436,0.127,-0.279
4437,0.156,-0.279
4438,0.188,-0.279
4439,0.219,-0.279
4440,0.252,-0.300
4441,0.285,-0.300
4442,0.319,-0.300
4443,0.353,-0.300
4444,0.389,-0.279
4445,0.425,-0.279
4446,0.454,-0.279
4447,0.483,-0.279
4448,0.491,-0.300
4449,0.499,-0.300
4450,0.475,-0.300
4451,0.452,-0.300
4452,0.404,-0.322
4453,0.357,-0.322
4454,0.298,-0.322
4455,0.239,-0.322
4456,0.190,-0.300
4457,0.141,-0.300
4458,0.112,-0.300
4459,0.083,-0.300
4460,0.079,-0.300
4461,0.075,-0.300
4462,0.089,-0.300
4463,0.103,-0.300
4464,0.125,-0.322
4465,0.147,-0.322
4466,0.160,-0.322
4467,0.174,-0.322
4468,0.174,-0.343
4469,0.174,-0.343
4470,0.161,-0.343
4471,0.149,-0.343
4472,0.127,-0.322
4473,0.106,-0.322
4474,0.081,-0.322
4475,0.055,-0.322
4476,0.030,-0.343
4477,0.006,-0.343
4478,-0.012,-0.343
4479,-0.030,-0.343
4480,-0.040,-0.364
4481,-0.050,-0.364
4482,-0.056,-0.364
4483,-0.061,-0.364
4484,-0.063,-0.343
4485,-0.064,-0.343
4486,-0.068,-0.343
4487,-0.072,-0.343
4488,-0.077,-0.364
4489,-0.081,-0.364
4490,-0.084,-0.364
4491,-0.088,-0.364
4492,-0.088,-0.386
4493,-0.088,-0.386
4494,-0.086,-0.386
4495,-0.084,-0.386
4496,-0.083,-0.364
4497,-0.081,-0.364
4498,-0.081,-0.364
4499,-0.080,-0.364
4500,-0.080,-0.386
4501,-0.080,-0.386
4502,-0.080,-0.386
4503,-0.080,-0.386
4504,-0.078,-0.386
4505,-0.077,-0.386
4506,-0.075,-0.386
4507,-0.073,-0.386
4508,-0.070,-0.386
4509,-0.067,-0.386
4510,-0.065,-0.386
4511,-0.063,-0.386
4512,-0.059,-0.407
4513,-0.056,-0.407
4514,-0.053,-0.407
4515,-0.050,-0.407
4516,-0.048,-0.386
4517,-0.047,-0.386
4518,-0.046,-0.386
4519,-0.045,-0.386
4520,-0.046,-0.407
4521,-0.047,-0.407
4522,-0.047,-0.407
4523,-0.047,-0.407
4524,-0.046,-0.429
4525,-0.045,-0.429
4526,-0.044,-0.429
4527,-0.042,-0.429
4528,-0.041,-0.421
4529,-0.039,-0.421
4530,-0.039,-0.421
4531,-0.039,-0.421
4532,-0.038,-0.444
4533,-0.036,-0.444
4534,-0.034,-0.444
4535,-0.033,-0.444
4536,-0.030,-0.466
4537,-0.028,-0.466
4538,-0.025,-0.466
4539,-0.022,-0.466
4540,-0.020,-0.444
4541,-0.017,-0.444
4542,-0.016,-0.444
4543,-0.016,-0.444
4544,-0.014,-0.466
4545,-0.013,-0.466
4546,-0.012,-0.466
4547,-0.011,-0.466
4548,-0.011,-0.444
4549,-0.011,-0.444
4550,-0.012,-0.444
4551,-0.013,-0.444
4552,-0.013,-0.444
4553,-0.013,-0.444
4554,-0.011,-0.444
4555,-0.009,-0.444
4556,-0.008,-0.466
4557,-0.006,-0.466
4558,-0.005,-0.466
4559,-0.005,-0.466
4560,-0.003,-0.444
4561,-0.002,-0.444
4562,-0.001,-0.444
4563,0.000,-0.444
4564,0.000,-0.466
4565,0.000,-0.466
4566,0.000,-0.466
4567,0.000,-0.466
4568,0.001,-0.466
4569,0.002,-0.466
4570,0.003,-0.466
4571,0.005,-0.466
4572,0.005,-0.444
4573,0.005,-0.444
4574,0.005,-0.444
4575,0.005,-0.444
4576,0.004,-0.444
4577,0.003,-0.444
4578,0.002,-0.444
4579,0.002,-0.444
4580,0.002,-0.466
4581,0.003,-0.466
4582,0.005,-0.466
4583,0.006,-0.466
4584,0.008,-0.466
4585,0.009,-0.466
4586,0.011,-0.466
4587,0.013,-0.466
4588,0.012,-0.421
4589,0.011,-0.421
4590,0.010,-0.421
4591,0.009,-0.421
4592,0.007,-0.400
4593,0.005,-0.400
4594,0.002,-0.400
4595,-0.002,-0.400
4596,-0.005,-0.378
4597,-0.008,-0.378
4598,-0.009,-0.378
4599,-0.011,-0.378
4600,-0.012,-0.355
4601,-0.013,-0.355
4602,-0.013,-0.355
4603,-0.013,-0.355
4604,-0.011,-0.288
4605,-0.009,-0.288
4606,-0.007,-0.288
4607,-0.005,-0.288
4608,-0.002,-0.244
4609,0.000,-0.244
4610,0.003,-0.244
4611,0.006,-0.244
4612,0.009,-0.177
4613,0.013,-0.177
4614,0.015,-0.177
4615,0.017,-0.177
4616,0.017,-0.133
4617,0.017,-0.133
4618,0.016,-0.133
4619,0.016,-0.133
4620,0.014,-0.044
4621,0.013,-0.044
4622,0.010,-0.044
4623,0.008,-0.044
4624,0.006,0.022
4625,0.005,0.022
4626,0.002,0.022
4627,0.000,0.022
4628,-0.002,0.111
4629,-0.003,0.111
4630,-0.005,0.111
4631,-0.006,0.111
4632,-0.009,0.155
4633,-0.013,0.155
4634,-0.016,0.155
4635,-0.020,0.155
4636,-0.025,0.222
4637,-0.030,0.222
4638,-0.033,0.222
4639,-0.036,0.222
4640,-0.039,0.266
4641,-0.042,0.266
4642,-0.045,0.266
4643,-0.047,0.266
4644,-0.046,0.310
4645,-0.045,0.310
4646,-0.044,0.310
4647,-0.042,0.310
4648,-0.041,0.355
4649,-0.039,0.355
4650,-0.040,0.355
4651,-0.041,0.355
4652,-0.041,0.377
4653,-0.041,0.377
4654,-0.041,0.377
4655,-0.041,0.377
4656,-0.041,0.400
4657,-0.041,0.400
4658,-0.041,0.400
4659,-0.042,0.400
4660,-0.044,0.421
4661,-0.045,0.421
4662,-0.045,0.421
4663,-0.045,0.421
4664,-0.044,0.466
4665,-0.042,0.466
4666,-0.040,0.466
4667,-0.038,0.466
4668,-0.037,0.444
4669,-0.036,0.444
4670,-0.034,0.444
4671,-0.033,0.444
4672,-0.031,0.466
4673,-0.030,0.466
4674,-0.029,0.466
4675,-0.028,0.466
4676,-0.029,0.444
4677,-0.030,0.444
4678,-0.030,0.444
4679,-0.030,0.444
4680,-0.030,0.421
4681,-0.030,0.421
4682,-0.029,0.421
4683,-0.028,0.421
4684,-0.027,0.421
4685,-0.025,0.421
4686,-0.024,0.421
4687,-0.023,0.421
4688,-0.023,0.400
4689,-0.022,0.400
4690,-0.023,0.400
4691,-0.025,0.400
4692,-0.027,0.400
4693,-0.028,0.400
4694,-0.029,0.400
4695,-0.030,0.400
4696,-0.029,0.377
4697,-0.028,0.377
4698,-0.026,0.377
4699,-0.023,0.377
4700,-0.020,0.355
4701,-0.017,0.355
4702,-0.016,0.355
4703,-0.016,0.355
4704,-0.014,0.355
4705,-0.013,0.355
4706,-0.011,0.355
4707,-0.009,0.355
4708,-0.008,0.333
4709,-0.006,0.333
4710,-0.005,0.333
4711,-0.005,0.333
4712,-0.003,0.310
4713,-0.002,0.310
4714,-0.001,0.310
4715,0.000,0.310
4716,-0.001,0.266
4717,-0.002,0.266
4718,-0.003,0.266
4719,-0.005,0.266
4720,-0.005,0.244
4721,-0.006,0.244
4722,-0.005,0.244
4723,-0.005,0.244
4724,-0.003,0.200
4725,-0.002,0.200
4726,-0.001,0.200
4727,0.000,0.200
4728,-0.001,0.200
4729,-0.002,0.200
4730,-0.003,0.200
4731,-0.005,0.200
4732,-0.005,0.155
4733,-0.006,0.155
4734,-0.005,0.155
4735,-0.005,0.155
4736,-0.003,0.111
4737,-0.002,0.111
4738,0.000,0.111
4739,0.002,0.111
4740,0.003,0.111
4741,0.005,0.111
4742,0.005,0.111
4743,0.005,0.111
4744,0.005,0.067
4745,0.005,0.067
4746,0.004,0.067
4747,0.003,0.067
4748,0.002,0.067
4749,0.000,0.067
4750,-0.001,0.067
4751,-0.002,0.067
4752,0.000,0.022
4753,0.002,0.022
4754,0.003,0.022
4755,0.005,0.022
4756,0.005,-0.022
4757,0.005,-0.022
4758,0.005,-0.022
4759,0.005,-0.022
4760,0.004,-0.022
4761,0.003,-0.022
4762,0.002,-0.022
4763,0.000,-0.022
4764,0.000,-0.067
4765,0.000,-0.067
4766,0.002,-0.067
4767,0.003,-0.067
4768,0.003,-0.089
4769,0.003,-0.089
4770,0.002,-0.089
4771,0.002,-0.089
4772,0.001,-0.133
4773,0.000,-0.133
4774,-0.001,-0.133
4775,-0.002,-0.133
4776,0.001,-0.133
4777,0.003,-0.133
4778,0.007,-0.133
4779,0.011,-0.133
4780,0.016,-0.155
4781,0.020,-0.155
4782,0.026,-0.155
4783,0.031,-0.155
4784,0.038,-0.195
4785,0.044,-0.195
4786,0.052,-0.195
4787,0.059,-0.195
4788,0.068,-0.195
4789,0.077,-0.195
4790,0.082,-0.195
4791,0.088,-0.195
4792,0.090,-0.195
4793,0.092,-0.195
4794,0.095,-0.195
4795,0.099,-0.195
4796,0.102,-0.195
4797,0.105,-0.195
4798,0.109,-0.195
4799,0.114,-0.195
4800,0.117,-0.195
4801,0.120,-0.195
4802,0.119,-0.195
4803,0.117,-0.195
4804,0.113,-0.195
4805,0.108,-0.195
4806,0.104,-0.195
4807,0.100,-0.195
4808,0.098,-0.195
4809,0.095,-0.195
4810,0.092,-0.195
4811,0.089,-0.195
4812,0.084,-0.216
4813,0.080,-0.216
4814,0.075,-0.216
4815,0.070,-0.216
4816,0.066,-0.216
4817,0.061,-0.216
4818,0.054,-0.216
4819,0.047,-0.216
4820,0.039,-0.195
4821,0.031,-0.195
4822,0.022,-0.195
4823,0.013,-0.195
4824,0.005,-0.216
4825,-0.003,-0.216
4826,-0.009,-0.216
4827,-0.014,-0.216
4828,-0.020,-0.237
4829,-0.025,-0.237
4830,-0.028,-0.237
4831,-0.031,-0.237
4832,-0.034,-0.260
4833,-0.036,-0.260
4834,-0.038,-0.260
4835,-0.039,-0.260
4836,-0.041,-0.237
4837,-0.044,-0.237
4838,-0.045,-0.237
4839,-0.045,-0.237
4840,-0.046,-0.260
4841,-0.047,-0.260
4842,-0.047,-0.260
4843,-0.047,-0.260
4844,-0.047,-0.260
4845,-0.047,-0.260
4846,-0.046,-0.260
4847,-0.045,-0.260
4848,-0.043,-0.281
4849,-0.041,-0.281
4850,-0.036,-0.281
4851,-0.031,-0.281
4852,-0.026,-0.260
4853,-0.020,-0.260
4854,-0.009,-0.260
4855,0.003,-0.260
4856,0.024,-0.281
4857,0.045,-0.281
4858,0.075,-0.281
4859,0.105,-0.281
4860,0.140,-0.302
4861,0.175,-0.302
4862,0.213,-0.302
4863,0.250,-0.302
4864,0.289,-0.324
4865,0.327,-0.324
4866,0.367,-0.324
4867,0.408,-0.324
4868,0.447,-0.302
4869,0.486,-0.302
4870,0.515,-0.302
4871,0.544,-0.302
4872,0.551,-0.324
4873,0.558,-0.324
4874,0.534,-0.324
4875,0.510,-0.324
4876,0.457,-0.324
4877,0.405,-0.324
4878,0.342,-0.324
4879,0.280,-0.324
4880,0.227,-0.302
4881,0.174,-0.302
4882,0.146,-0.302
4883,0.119,-0.302
4884,0.118,-0.324
4885,0.117,-0.324
4886,0.135,-0.324
4887,0.153,-0.324
4888,0.174,-0.346
4889,0.194,-0.346
4890,0.203,-0.346
4891,0.213,-0.346
4892,0.203,-0.367
4893,0.194,-0.367
4894,0.168,-0.367
4895,0.142,-0.367
4896,0.110,-0.346
4897,0.078,-0.346
4898,0.048,-0.346
4899,0.017,-0.346
4900,-0.008,-0.367
4901,-0.033,-0.367
4902,-0.048,-0.367
4903,-0.063,-0.367
4904,-0.071,-0.389
4905,-0.080,-0.389
4906,-0.084,-0.389
4907,-0.088,-0.389
4908,-0.090,-0.367
4909,-0.092,-0.367
4910,-0.093,-0.367
4911,-0.094,-0.367
4912,-0.095,-0.389
4913,-0.097,-0.389
4914,-0.096,-0.389
4915,-0.095,-0.389
4916,-0.091,-0.410
4917,-0.088,-0.410
4918,-0.083,-0.410
4919,-0.078,-0.410
4920,-0.075,-0.389
4921,-0.072,-0.389
4922,-0.070,-0.389
4923,-0.067,-0.389
4924,-0.065,-0.410
4925,-0.063,-0.410
4926,-0.059,-0.410
4927,-0.056,-0.410
4928,-0.054,-0.410
4929,-0.052,-0.410
4930,-0.052,-0.410
4931,-0.052,-0.410
4932,-0.051,-0.432
4933,-0.050,-0.432
4934,-0.048,-0.432
4935,-0.047,-0.432
4936,-0.045,-0.432
4937,-0.044,-0.432
4938,-0.043,-0.432
4939,-0.042,-0.432
4940,-0.040,-0.454
4941,-0.038,-0.454
4942,-0.037,-0.454
4943,-0.036,-0.454
4944,-0.034,-0.454
4945,-0.033,-0.454
4946,-0.031,-0.454
4947,-0.030,-0.454
4948,-0.029,-0.497
4949,-0.028,-0.497
4950,-0.028,-0.497
4951,-0.028,-0.497
4952,-0.026,-0.475
4953,-0.023,-0.475
4954,-0.020,-0.475
4955,-0.016,-0.475
4956,-0.013,-0.475
4957,-0.009,-0.475
4958,-0.005,-0.475
4959,-0.002,-0.475
4960,0.000,-0.475
4961,0.002,-0.475
4962,0.004,-0.475
4963,0.006,-0.475
4964,0.009,-0.475
4965,0.011,-0.475
4966,0.015,-0.475
4967,0.019,-0.475
4968,0.021,-0.475
4969,0.023,-0.475
4970,0.027,-0.475
4971,0.030,-0.475
4972,0.032,-0.432
4973,0.034,-0.432
4974,0.035,-0.432
4975,0.036,-0.432
4976,0.038,-0.432
4977,0.039,-0.432
4978,0.040,-0.432
4979,0.041,-0.432
4980,0.041,-0.432
4981,0.041,-0.432
4982,0.044,-0.432
4983,0.047,-0.432
4984,0.052,-0.432
4985,0.056,-0.432
4986,0.060,-0.432
4987,0.064,-0.432
4988,0.066,-0.454
4989,0.069,-0.454
4990,0.069,-0.454
4991,0.069,-0.454
4992,0.069,-0.432
4993,0.069,-0.432
4994,0.070,-0.432
4995,0.070,-0.432
4996,0.072,-0.432
4997,0.073,-0.432
4998,0.073,-0.432
4999,0.073,-0.432
5000,0.074,-0.432
5001,0.075,-0.432
5002,0.077,-0.432
5003,0.078,-0.432
5004,0.080,-0.410
5005,0.081,-0.410
5006,0.080,-0.410
5007,0.078,-0.410
5008,0.077,-0.410
5009,0.075,-0.410
5010,0.074,-0.410
5011,0.073,-0.410
5012,0.073,-0.389
5013,0.073,-0.389
5014,0.073,-0.389
5015,0.072,-0.389
5016,0.070,-0.367
5017,0.069,-0.367
5018,0.067,-0.367
5019,0.066,-0.367
5020,0.065,-0.324
5021,0.064,-0.324
5022,0.063,-0.324
5023,0.061,-0.324
5024,0.058,-0.302
5025,0.055,-0.302
5026,0.052,-0.302
5027,0.050,-0.302
5028,0.047,-0.260
5029,0.044,-0.260
5030,0.041,-0.260
5031,0.039,-0.260
5032,0.037,-0.195
5033,0.034,-0.195
5034,0.034,-0.195
5035,0.034,-0.195
5036,0.036,-0.130
5037,0.038,-0.130
5038,0.037,-0.130
5039,0.036,-0.130
5040,0.034,-0.043
5041,0.033,-0.043
5042,0.030,-0.043
5043,0.028,-0.043
5044,0.024,0.000
5045,0.020,0.000
5046,0.018,0.000
5047,0.016,0.000
5048,0.013,0.086
5049,0.009,0.086
5050,0.006,0.086
5051,0.003,0.086
5052,0.001,0.130
5053,-0.002,0.130
5054,-0.005,0.130
5055,-0.008,0.130
5056,-0.010,0.216
5057,-0.013,0.216
5058,-0.016,0.216
5059,-0.019,0.216
5060,-0.022,0.238
5061,-0.025,0.238
5062,-0.027,0.238
5063,-0.030,0.238
5064,-0.033,0.303
5065,-0.036,0.303
5066,-0.038,0.303
5067,-0.041,0.303
5068,-0.041,0.346
5069,-0.041,0.346
5070,-0.038,0.346
5071,-0.036,0.346
5072,-0.035,0.368
5073,-0.034,0.368
5074,-0.034,0.368
5075,-0.033,0.368
5076,-0.031,0.390
5077,-0.030,0.390
5078,-0.029,0.390
5079,-0.028,0.390
5080,-0.029,0.432
5081,-0.030,0.432
5082,-0.030,0.432
5083,-0.031,0.432
5084,-0.033,0.432
5085,-0.034,0.432
5086,-0.035,0.432
5087,-0.036,0.432
5088,-0.038,0.455
5089,-0.039,0.455
5090,-0.041,0.455
5091,-0.042,0.455
5092,-0.041,0.432
5093,-0.039,0.432
5094,-0.037,0.432
5095,-0.034,0.432
5096,-0.032,0.455
5097,-0.030,0.455
5098,-0.029,0.455
5099,-0.028,0.455
5100,-0.029,0.411
5101,-0.030,0.411
5102,-0.030,0.411
5103,-0.030,0.411
5104,-0.030,0.432
5105,-0.030,0.432
5106,-0.030,0.432
5107,-0.030,0.432
5108,-0.030,0.432
5109,-0.030,0.432
5110,-0.030,0.432
5111,-0.030,0.432
5112,-0.030,0.411
5113,-0.030,0.411
5114,-0.030,0.411
5115,-0.030,0.411
5116,-0.029,0.390
5117,-0.028,0.390
5118,-0.026,0.390
5119,-0.023,0.390
5120,-0.020,0.368
5121,-0.017,0.368
5122,-0.016,0.368
5123,-0.016,0.368
5124,-0.015,0.368
5125,-0.014,0.368
5126,-0.016,0.368
5127,-0.017,0.368
5128,-0.020,0.346
5129,-0.022,0.346
5130,-0.023,0.346
5131,-0.025,0.346
5132,-0.023,0.325
5133,-0.022,0.325
5134,-0.020,0.325
5135,-0.017,0.325
5136,-0.016,0.303
5137,-0.016,0.303
5138,-0.015,0.303
5139,-0.014,0.303
5140,-0.015,0.281
5141,-0.016,0.281
5142,-0.016,0.281
5143,-0.017,0.281
5144,-0.017,0.260
5145,-0.017,0.260
5146,-0.017,0.260
5147,-0.017,0.260
5148,-0.016,0.216
5149,-0.016,0.216
5150,-0.013,0.216
5151,-0.011,0.216
5152,-0.009,0.216
5153,-0.006,0.216
5154,-0.006,0.216
5155,-0.006,0.216
5156,-0.007,0.173
5157,-0.008,0.173
5158,-0.010,0.173
5159,-0.013,0.173
5160,-0.015,0.130
5161,-0.017,0.130
5162,-0.017,0.130
5163,-0.017,0.130
5164,-0.017,0.108
5165,-0.017,0.108
5166,-0.016,0.108
5167,-0.016,0.108
5168,-0.015,0.065
5169,-0.014,0.065
5170,-0.015,0.065
5171,-0.016,0.065
5172,-0.016,0.065
5173,-0.017,0.065
5174,-0.017,0.065
5175,-0.017,0.065
5176,-0.016,0.022
5177,-0.016,0.022
5178,-0.013,0.022
5179,-0.011,0.022
5180,-0.008,-0.021
5181,-0.005,-0.021
5182,-0.003,-0.021
5183,-0.002,-0.021
5184,0.000,-0.043
5185,0.002,-0.043
5186,0.003,-0.043
5187,0.005,-0.043
5188,0.004,-0.086
5189,0.003,-0.086
5190,0.002,-0.086
5191,0.000,-0.086
5192,-0.002,-0.086
5193,-0.003,-0.086
5194,-0.005,-0.086
5195,-0.006,-0.086
5196,-0.009,-0.130
5197,-0.011,-0.130
5198,-0.012,-0.130
5199,-0.013,-0.130
5200,-0.013,-0.151
5201,-0.013,-0.151
5202,-0.012,-0.151
5203,-0.011,-0.151
5204,-0.009,-0.151
5205,-0.008,-0.151
5206,-0.005,-0.151
5207,-0.002,-0.151
5208,0.003,-0.173
5209,0.008,-0.173
5210,0.014,-0.173
5211,0.020,-0.173
5212,0.028,-0.173
5213,0.036,-0.173
5214,0.043,-0.173
5215,0.050,-0.173
5216,0.057,-0.195
5217,0.064,-0.195
5218,0.071,-0.195
5219,0.078,-0.195
5220,0.082,-0.216
5221,0.086,-0.216
5222,0.089,-0.216
5223,0.092,-0.216
5224,0.095,-0.195
5225,0.099,-0.195
5226,0.101,-0.195
5227,0.103,-0.195
5228,0.106,-0.195
5229,0.108,-0.195
5230,0.109,-0.195
5231,0.109,-0.195
5232,0.108,-0.216
5233,0.106,-0.216
5234,0.103,-0.216
5235,0.100,-0.216
5236,0.095,-0.216
5237,0.091,-0.216
5238,0.087,-0.216
5239,0.083,-0.216
5240,0.077,-0.216
5241,0.070,-0.216
5242,0.063,-0.216
5243,0.055,-0.216
5244,0.049,-0.216
5245,0.044,-0.216
5246,0.040,-0.216
5247,0.036,-0.216
5248,0.032,-0.216
5249,0.028,-0.216
5250,0.023,-0.216
5251,0.017,-0.216
5252,0.010,-0.216
5253,0.003,-0.216
5254,-0.004,-0.216
5255,-0.011,-0.216
5256,-0.018,-0.216
5257,-0.025,-0.216
5258,-0.031,-0.216
5259,-0.038,-0.216
5260,-0.040,-0.216
5261,-0.042,-0.216
5262,-0.045,-0.216
5263,-0.047,-0.216
5264,-0.050,-0.216
5265,-0.053,-0.216
5266,-0.056,-0.216
5267,-0.058,-0.216
5268,-0.058,-0.216
5269,-0.058,-0.216
5270,-0.057,-0.216
5271,-0.056,-0.216
5272,-0.055,-0.237
5273,-0.053,-0.237
5274,-0.052,-0.237
5275,-0.050,-0.237
5276,-0.048,-0.216
5277,-0.047,-0.216
5278,-0.045,-0.216
5279,-0.042,-0.216
5280,-0.036,-0.216
5281,-0.030,-0.216
5282,-0.016,-0.216
5283,-0.002,-0.216
5284,0.021,-0.237
5285,0.044,-0.237
5286,0.075,-0.237
5287,0.106,-0.237
5288,0.141,-0.260
5289,0.175,-0.260
5290,0.210,-0.260
5291,0.244,-0.260
5292,0.279,-0.260
5293,0.314,-0.260
5294,0.353,-0.260
5295,0.391,-0.260
5296,0.431,-0.252
5297,0.471,-0.252
5298,0.502,-0.252
5299,0.533,-0.252
5300,0.543,-0.273
5301,0.554,-0.273
5302,0.532,-0.273
5303,0.510,-0.273
5304,0.460,-0.293
5305,0.410,-0.293
5306,0.345,-0.293
5307,0.280,-0.293
5308,0.224,-0.273
5309,0.167,-0.273
5310,0.137,-0.273
5311,0.106,-0.273
5312,0.106,-0.293
5313,0.105,-0.293
5314,0.124,-0.293
5315,0.142,-0.293
5316,0.165,-0.314
5317,0.188,-0.314
5318,0.199,-0.314
5319,0.211,-0.314
5320,0.205,-0.293
5321,0.199,-0.293
5322,0.174,-0.293
5323,0.150,-0.293
5324,0.117,-0.314
5325,0.084,-0.314
5326,0.054,-0.314
5327,0.023,-0.314
5328,0.000,-0.335
5329,-0.023,-0.335
5330,-0.038,-0.335
5331,-0.053,-0.335
5332,-0.061,-0.356
5333,-0.069,-0.356
5334,-0.072,-0.356
5335,-0.075,-0.356
5336,-0.077,-0.335
5337,-0.078,-0.335
5338,-0.082,-0.335
5339,-0.086,-0.335
5340,-0.089,-0.335
5341,-0.092,-0.335
5342,-0.093,-0.335
5343,-0.094,-0.335
5344,-0.092,-0.356
5345,-0.091,-0.356
5346,-0.087,-0.356
5347,-0.083,-0.356
5348,-0.079,-0.356
5349,-0.075,-0.356
5350,-0.071,-0.356
5351,-0.067,-0.356
5352,-0.065,-0.335
5353,-0.063,-0.335
5354,-0.063,-0.335
5355,-0.063,-0.335
5356,-0.063,-0.356
5357,-0.064,-0.356
5358,-0.066,-0.356
5359,-0.067,-0.356
5360,-0.067,-0.356
5361,-0.067,-0.356
5362,-0.066,-0.356
5363,-0.064,-0.356
5364,-0.063,-0.356
5365,-0.063,-0.356
5366,-0.062,-0.356
5367,-0.061,-0.356
5368,-0.059,-0.377
5369,-0.056,-0.377
5370,-0.054,-0.377
5371,-0.052,-0.377
5372,-0.048,-0.398
5373,-0.045,-0.398
5374,-0.043,-0.398
5375,-0.041,-0.398
5376,-0.039,-0.377
5377,-0.038,-0.377
5378,-0.036,-0.377
5379,-0.034,-0.377
5380,-0.032,-0.398
5381,-0.030,-0.398
5382,-0.029,-0.398
5383,-0.028,-0.398
5384,-0.028,-0.419
5385,-0.028,-0.419
5386,-0.026,-0.419
5387,-0.023,-0.419
5388,-0.020,-0.398
5389,-0.017,-0.398
5390,-0.016,-0.398
5391,-0.016,-0.398
5392,-0.014,-0.419
5393,-0.013,-0.419
5394,-0.011,-0.419
5395,-0.009,-0.419
5396,-0.006,-0.419
5397,-0.003,-0.419
5398,0.001,-0.419
5399,0.005,-0.419
5400,0.009,-0.419
5401,0.013,-0.419
5402,0.015,-0.419
5403,0.017,-0.419
5404,0.018,-0.440
5405,0.019,-0.440
5406,0.020,-0.440
5407,0.022,-0.440
5408,0.023,-0.419
5409,0.023,-0.419
5410,0.023,-0.419
5411,0.022,-0.419
5412,0.022,-0.419
5413,0.022,-0.419
5414,0.022,-0.419
5415,0.022,-0.419
5416,0.022,-0.419
5417,0.022,-0.419
5418,0.022,-0.419
5419,0.022,-0.419
5420,0.022,-0.419
5421,0.022,-0.419
5422,0.022,-0.419
5423,0.022,-0.419
5424,0.022,-0.398
5425,0.022,-0.398
5426,0.022,-0.398
5427,0.022,-0.398
5428,0.022,-0.398
5429,0.022,-0.398
5430,0.022,-0.398
5431,0.022,-0.398
5432,0.023,-0.377
5433,0.023,-0.377
5434,0.025,-0.377
5435,0.027,-0.377
5436,0.028,-0.377
5437,0.030,-0.377
5438,0.029,-0.377
5439,0.028,-0.377
5440,0.027,-0.356
5441,0.027,-0.356
5442,0.025,-0.356
5443,0.023,-0.356
5444,0.023,-0.356
5445,0.022,-0.356
5446,0.022,-0.356
5447,0.022,-0.356
5448,0.022,-0.335
5449,0.022,-0.335
5450,0.021,-0.335
5451,0.020,-0.335
5452,0.018,-0.314
5453,0.016,-0.314
5454,0.013,-0.314
5455,0.011,-0.314
5456,0.009,-0.252
5457,0.008,-0.252
5458,0.007,-0.252
5459,0.006,-0.252
5460,0.005,-0.209
5461,0.005,-0.209
5462,0.005,-0.209
5463,0.005,-0.209
5464,0.005,-0.146
5465,0.006,-0.146
5466,0.008,-0.146
5467,0.009,-0.146
5468,0.012,-0.084
5469,0.014,-0.084
5470,0.015,-0.084
5471,0.016,-0.084
5472,0.016,-0.021
5473,0.017,-0.021
5474,0.016,-0.021
5475,0.016,-0.021
5476,0.013,0.021
5477,0.009,0.021
5478,0.003,0.021
5479,-0.003,0.021
5480,-0.008,0.104
5481,-0.013,0.104
5482,-0.016,0.104
5483,-0.020,0.104
5484,-0.023,0.168
5485,-0.027,0.168
5486,-0.030,0.168
5487,-0.034,0.168
5488,-0.038,0.230
5489,-0.041,0.230
5490,-0.042,0.230
5491,-0.044,0.230
5492,-0.045,0.251
5493,-0.045,0.251
5494,-0.046,0.251
5495,-0.047,0.251
5496,-0.047,0.293
5497,-0.047,0.293
5498,-0.047,0.293
5499,-0.047,0.293
5500,-0.047,0.335
5501,-0.047,0.335
5502,-0.047,0.335
5503,-0.047,0.335
5504,-0.047,0.377
5505,-0.047,0.377
5506,-0.047,0.377
5507,-0.047,0.377
5508,-0.047,0.398
5509,-0.047,0.398
5510,-0.047,0.398
5511,-0.047,0.398
5512,-0.047,0.398
5513,-0.047,0.398
5514,-0.047,0.398
5515,-0.047,0.398
5516,-0.046,0.418
5517,-0.045,0.418
5518,-0.044,0.418
5519,-0.042,0.418
5520,-0.041,0.398
5521,-0.039,0.398
5522,-0.039,0.398
5523,-0.039,0.398
5524,-0.036,0.398
5525,-0.033,0.398
5526,-0.029,0.398
5527,-0.025,0.398
5528,-0.023,0.398
5529,-0.020,0.398
5530,-0.019,0.398
5531,-0.017,0.398
5532,-0.017,0.377
5533,-0.017,0.377
5534,-0.018,0.377
5535,-0.019,0.377
5536,-0.021,0.377
5537,-0.023,0.377
5538,-0.023,0.377
5539,-0.023,0.377
5540,-0.023,0.377
5541,-0.023,0.377
5542,-0.023,0.377
5543,-0.023,0.377
5544,-0.023,0.335
5545,-0.023,0.335
5546,-0.023,0.335
5547,-0.022,0.335
5548,-0.020,0.314
5549,-0.019,0.314
5550,-0.017,0.314
5551,-0.016,0.314
5552,-0.014,0.335
5553,-0.013,0.335
5554,-0.012,0.335
5555,-0.011,0.335
5556,-0.011,0.314
5557,-0.011,0.314
5558,-0.012,0.314
5559,-0.013,0.314
5560,-0.012,0.293
5561,-0.011,0.293
5562,-0.008,0.293
5563,-0.005,0.293
5564,-0.003,0.272
5565,-0.002,0.272
5566,-0.001,0.272
5567,0.000,0.272
5568,0.000,0.230
5569,0.000,0.230
5570,-0.001,0.230
5571,-0.002,0.230
5572,-0.004,0.251
5573,-0.006,0.251
5574,-0.009,0.251
5575,-0.011,0.251
5576,-0.012,0.230
5577,-0.013,0.230
5578,-0.013,0.230
5579,-0.013,0.230
5580,-0.012,0.189
5581,-0.011,0.189
5582,-0.011,0.189
5583,-0.011,0.189
5584,-0.011,0.168
5585,-0.011,0.168
5586,-0.009,0.168
5587,-0.006,0.168
5588,-0.004,0.146
5589,-0.002,0.146
5590,0.000,0.146
5591,0.002,0.146
5592,0.003,0.126
5593,0.005,0.126
5594,0.005,0.126
5595,0.005,0.126
5596,0.005,0.104
5597,0.005,0.104
5598,0.005,0.104
5599,0.005,0.104
5600,0.005,0.062
5601,0.005,0.062
5602,0.004,0.062
5603,0.003,0.062
5604,0.002,0.062
5605,0.000,0.062
5606,-0.001,0.062
5607,-0.002,0.062
5608,-0.001,0.042
5609,0.000,0.042
5610,0.001,0.042
5611,0.002,0.042
5612,0.003,0.000
5613,0.005,0.000
5614,0.005,0.000
5615,0.005,0.000
5616,0.005,0.000
5617,0.006,0.000
5618,0.007,0.000
5619,0.008,0.000
5620,0.008,-0.021
5621,0.008,-0.021
5622,0.006,-0.021
5623,0.005,-0.021
5624,0.005,-0.042
5625,0.005,-0.042
5626,0.005,-0.042
5627,0.006,-0.042
5628,0.008,-0.063
5629,0.009,-0.063
5630,0.012,-0.063
5631,0.014,-0.063
5632,0.016,-0.063
5633,0.019,-0.063
5634,0.024,-0.063
5635,0.030,-0.063
5636,0.038,-0.063
5637,0.045,-0.063
5638,0.055,-0.063
5639,0.064,-0.063
5640,0.071,-0.084
5641,0.078,-0.084
5642,0.083,-0.084
5643,0.088,-0.084
5644,0.092,-0.084
5645,0.097,-0.084
5646,0.101,-0.084
5647,0.105,-0.084
5648,0.108,-0.105
5649,0.111,-0.105
5650,0.115,-0.105
5651,0.119,-0.105
5652,0.120,-0.105
5653,0.122,-0.105
5654,0.123,-0.105
5655,0.124,-0.105
5656,0.121,-0.105
5657,0.119,-0.105
5658,0.116,-0.105
5659,0.113,-0.105
5660,0.109,-0.126
5661,0.105,-0.126
5662,0.100,-0.126
5663,0.095,-0.126
5664,0.089,-0.126
5665,0.083,-0.126
5666,0.077,-0.126
5667,0.070,-0.126
5668,0.065,-0.126
5669,0.059,-0.126
5670,0.054,-0.126
5671,0.048,-0.126
5672,0.043,-0.126
5673,0.038,-0.126
5674,0.031,-0.126
5675,0.025,-0.126
5676,0.020,-0.126
5677,0.014,-0.126
5678,0.008,-0.126
5679,0.002,-0.126
5680,-0.005,-0.126
5681,-0.013,-0.126
5682,-0.016,-0.126
5683,-0.020,-0.126
5684,-0.023,-0.126
5685,-0.025,-0.126
5686,-0.027,-0.126
5687,-0.030,-0.126
5688,-0.032,-0.126
5689,-0.034,-0.126
5690,-0.036,-0.126
5691,-0.038,-0.126
5692,-0.039,-0.146
5693,-0.041,-0.146
5694,-0.041,-0.146
5695,-0.041,-0.146
5696,-0.041,-0.146
5697,-0.041,-0.146
5698,-0.041,-0.146
5699,-0.041,-0.146
5700,-0.039,-0.146
5701,-0.038,-0.146
5702,-0.032,-0.146
5703,-0.027,-0.146
5704,-0.016,-0.168
5705,-0.005,-0.168
5706,0.011,-0.168
5707,0.027,-0.168
5708,0.051,-0.168
5709,0.075,-0.168
5710,0.108,-0.168
5711,0.141,-0.168
5712,0.177,-0.146
5713,0.213,-0.146
5714,0.246,-0.146
5715,0.280,-0.146
5716,0.314,-0.168
5717,0.349,-0.168
5718,0.385,-0.168
5719,0.421,-0.168
5720,0.452,-0.168
5721,0.483,-0.168
5722,0.500,-0.168
5723,0.516,-0.168
5724,0.509,-0.189
5725,0.502,-0.189
5726,0.466,-0.189
5727,0.430,-0.189
5728,0.372,-0.189
5729,0.314,-0.189
5730,0.256,-0.189
5731,0.197,-0.189
5732,0.156,-0.209
5733,0.114,-0.209
5734,0.099,-0.209
5735,0.083,-0.209
5736,0.090,-0.209
5737,0.097,-0.209
5738,0.119,-0.209
5739,0.141,-0.209
5740,0.163,-0.189
5741,0.185,-0.189
5742,0.195,-0.189
5743,0.206,-0.189
5744,0.203,-0.209
5745,0.199,-0.209
5746,0.181,-0.209
5747,0.164,-0.209
5748,0.139,-0.209
5749,0.114,-0.209
5750,0.087,-0.209
5751,0.059,-0.209
5752,0.037,-0.231
5753,0.014,-0.231
5754,0.001,-0.231
5755,-0.013,-0.231
5756,-0.020,-0.252
5757,-0.028,-0.252
5758,-0.033,-0.252
5759,-0.038,-0.252
5760,-0.042,-0.231
5761,-0.047,-0.231
5762,-0.052,-0.231
5763,-0.056,-0.231
5764,-0.063,-0.252
5765,-0.069,-0.252
5766,-0.073,-0.252
5767,-0.077,-0.252
5768,-0.077,-0.273
5769,-0.078,-0.273
5770,-0.077,-0.273
5771,-0.075,-0.273
5772,-0.072,-0.293
5773,-0.069,-0.293
5774,-0.065,-0.293
5775,-0.061,-0.293
5776,-0.059,-0.273
5777,-0.056,-0.273
5778,-0.055,-0.273
5779,-0.053,-0.273
5780,-0.052,-0.293
5781,-0.050,-0.293
5782,-0.048,-0.293
5783,-0.047,-0.293
5784,-0.046,-0.314
5785,-0.045,-0.314
5786,-0.045,-0.314
5787,-0.045,-0.314
5788,-0.044,-0.293
5789,-0.042,-0.293
5790,-0.040,-0.293
5791,-0.038,-0.293
5792,-0.036,-0.314
5793,-0.034,-0.314
5794,-0.032,-0.314
5795,-0.030,-0.314
5796,-0.029,-0.356
5797,-0.028,-0.356
5798,-0.029,-0.356
5799,-0.030,-0.356
5800,-0.029,-0.335
5801,-0.028,-0.335
5802,-0.026,-0.335
5803,-0.023,-0.335
5804,-0.020,-0.356
5805,-0.017,-0.356
5806,-0.016,-0.356
5807,-0.016,-0.356
5808,-0.014,-0.350
5809,-0.013,-0.350
5810,-0.011,-0.350
5811,-0.009,-0.350
5812,-0.007,-0.330
5813,-0.005,-0.330
5814,-0.002,-0.330
5815,0.000,-0.330
5816,0.004,-0.330
5817,0.008,-0.330
5818,0.012,-0.330
5819,0.016,-0.330
5820,0.017,-0.330
5821,0.019,-0.330
5822,0.020,-0.330
5823,0.022,-0.330
5824,0.023,-0.330
5825,0.023,-0.330
5826,0.022,-0.330
5827,0.020,-0.330
5828,0.019,-0.330
5829,0.017,-0.330
5830,0.016,-0.330
5831,0.016,-0.330
5832,0.016,-0.330
5833,0.017,-0.330
5834,0.018,-0.330
5835,0.019,-0.330
5836,0.020,-0.350
5837,0.022,-0.350
5838,0.023,-0.350
5839,0.023,-0.350
5840,0.023,-0.309
5841,0.022,-0.309
5842,0.022,-0.309
5843,0.022,-0.309
5844,0.022,-0.330
5845,0.022,-0.330
5846,0.022,-0.330
5847,0.022,-0.330
5848,0.022,-0.330
5849,0.022,-0.330
5850,0.022,-0.330
5851,0.022,-0.330
5852,0.022,-0.350
5853,0.022,-0.350
5854,0.022,-0.350
5855,0.022,-0.350
5856,0.022,-0.330
5857,0.022,-0.330
5858,0.022,-0.330
5859,0.022,-0.330
5860,0.022,-0.330
5861,0.022,-0.330
5862,0.022,-0.330
5863,0.022,-0.330
5864,0.022,-0.330
5865,0.022,-0.330
5866,0.021,-0.330
5867,0.020,-0.330
5868,0.018,-0.309
5869,0.016,-0.309
5870,0.013,-0.309
5871,0.011,-0.309
5872,0.009,-0.288
5873,0.008,-0.288
5874,0.007,-0.288
5875,0.006,-0.288
5876,0.006,-0.268
5877,0.006,-0.268
5878,0.008,-0.268
5879,0.009,-0.268
5880,0.011,-0.227
5881,0.013,-0.227
5882,0.012,-0.227
5883,0.011,-0.227
5884,0.011,-0.185
5885,0.011,-0.185
5886,0.011,-0.185
5887,0.011,-0.185
5888,0.011,-0.123
5889,0.011,-0.123
5890,0.011,-0.123
5891,0.011,-0.123
5892,0.011,-0.062
5893,0.011,-0.062
5894,0.010,-0.062
5895,0.009,-0.062
5896,0.008,0.000
5897,0.006,0.000
5898,0.005,0.000
5899,0.005,0.000
5900,0.004,0.042
5901,0.003,0.042
5902,0.002,0.042
5903,0.000,0.042
5904,-0.002,0.124
5905,-0.005,0.124
5906,-0.008,0.124
5907,-0.011,0.124
5908,-0.015,0.185
5909,-0.019,0.185
5910,-0.022,0.185
5911,-0.025,0.185
5912,-0.027,0.206
5913,-0.028,0.206
5914,-0.030,0.206
5915,-0.031,0.206
5916,-0.033,0.247
5917,-0.034,0.247
5918,-0.034,0.247
5919,-0.034,0.247
5920,-0.034,0.289
5921,-0.034,0.289
5922,-0.034,0.289
5923,-0.034,0.289
5924,-0.034,0.309
5925,-0.034,0.309
5926,-0.034,0.309
5927,-0.034,0.309
5928,-0.034,0.309
5929,-0.034,0.309
5930,-0.034,0.309
5931,-0.034,0.309
5932,-0.034,0.330
5933,-0.034,0.330
5934,-0.034,0.330
5935,-0.033,0.330
5936,-0.031,0.309
5937,-0.030,0.309
5938,-0.030,0.309
5939,-0.030,0.309
5940,-0.031,0.330
5941,-0.033,0.330
5942,-0.032,0.330
5943,-0.031,0.330
5944,-0.030,0.330
5945,-0.028,0.330
5946,-0.027,0.330
5947,-0.027,0.330
5948,-0.025,0.309
5949,-0.023,0.309
5950,-0.020,0.309
5951,-0.016,0.309
5952,-0.013,0.330
5953,-0.011,0.330
5954,-0.008,0.330
5955,-0.005,0.330
5956,-0.004,0.330
5957,-0.003,0.330
5958,-0.004,0.330
5959,-0.005,0.330
5960,-0.006,0.309
5961,-0.008,0.309
5962,-0.009,0.309
5963,-0.011,0.309
5964,-0.012,0.309
5965,-0.013,0.309
5966,-0.013,0.309
5967,-0.014,0.309
5968,-0.014,0.289
5969,-0.014,0.289
5970,-0.013,0.289
5971,-0.013,0.289
5972,-0.012,0.268
5973,-0.011,0.268
5974,-0.011,0.268
5975,-0.011,0.268
5976,-0.012,0.247
5977,-0.013,0.247
5978,-0.013,0.247
5979,-0.013,0.247
5980,-0.012,0.247
5981,-0.011,0.247
5982,-0.011,0.247
5983,-0.011,0.247
5984,-0.012,0.227
5985,-0.013,0.227
5986,-0.013,0.227
5987,-0.013,0.227
5988,-0.011,0.185
5989,-0.009,0.185
5990,-0.008,0.185
5991,-0.006,0.185
5992,-0.006,0.165
5993,-0.006,0.165
5994,-0.007,0.165
5995,-0.008,0.165
5996,-0.009,0.124
5997,-0.011,0.124
5998,-0.012,0.124
5999,-0.013,0.124
6000,-0.013,0.124
6001,-0.014,0.124
6002,-0.014,0.124
6003,-0.014,0.124
6004,-0.013,0.083
6005,-0.013,0.083
6006,-0.011,0.083
6007,-0.009,0.083
6008,-0.007,0.042
6009,-0.005,0.042
6010,-0.003,0.042
6011,-0.002,0.042
6012,-0.001,0.042
6013,0.000,0.042
6014,0.000,0.042
6015,0.000,0.042
6016,-0.001,0.000
6017,-0.002,0.000
6018,-0.004,0.000
6019,-0.006,0.000
6020,-0.009,-0.021
6021,-0.011,-0.021
6022,-0.012,-0.021
6023,-0.013,-0.021
6024,-0.013,-0.062
6025,-0.013,-0.062
6026,-0.012,-0.062
6027,-0.011,-0.062
6028,-0.010,-0.083
6029,-0.009,-0.083
6030,-0.009,-0.083
6031,-0.008,-0.083
6032,-0.006,-0.083
6033,-0.005,-0.083
6034,-0.004,-0.083
6035,-0.003,-0.083
6036,-0.004,-0.123
6037,-0.005,-0.123
6038,-0.006,-0.123
6039,-0.008,-0.123
6040,-0.009,-0.144
6041,-0.009,-0.144
6042,-0.009,-0.144
6043,-0.008,-0.144
6044,-0.007,-0.144
6045,-0.006,-0.144
6046,-0.005,-0.144
6047,-0.005,-0.144
6048,-0.002,-0.165
6049,0.002,-0.165
6050,0.007,-0.165
6051,0.013,-0.165
6052,0.018,-0.185
6053,0.023,-0.185
6054,0.029,-0.185
6055,0.034,-0.185
6056,0.041,-0.206
6057,0.048,-0.206
6058,0.056,-0.206
6059,0.064,-0.206
6060,0.071,-0.206
6061,0.078,-0.206
6062,0.082,-0.206
6063,0.086,-0.206
6064,0.089,-0.245
6065,0.092,-0.245
6066,0.095,-0.245
6067,0.099,-0.245
6068,0.101,-0.225
6069,0.103,-0.225
6070,0.106,-0.225
6071,0.108,-0.225
6072,0.109,-0.245
6073,0.109,-0.245
6074,0.108,-0.245
6075,0.106,-0.245
6076,0.104,-0.266
6077,0.102,-0.266
6078,0.098,-0.266
6079,0.094,-0.266
6080,0.088,-0.266
6081,0.083,-0.266
6082,0.077,-0.266
6083,0.072,-0.266
6084,0.065,-0.286
6085,0.058,-0.286
6086,0.051,-0.286
6087,0.044,-0.286
6088,0.037,-0.286
6089,0.030,-0.286
6090,0.026,-0.286
6091,0.022,-0.286
6092,0.019,-0.286
6093,0.016,-0.286
6094,0.012,-0.286
6095,0.008,-0.286
6096,0.002,-0.306
6097,-0.003,-0.306
6098,-0.009,-0.306
6099,-0.014,-0.306
6100,-0.020,-0.286
6101,-0.027,-0.286
6102,-0.031,-0.286
6103,-0.036,-0.286
6104,-0.038,-0.286
6105,-0.041,-0.286
6106,-0.041,-0.286
6107,-0.042,-0.286
6108,-0.041,-0.306
6109,-0.041,-0.306
6110,-0.041,-0.306
6111,-0.041,-0.306
6112,-0.041,-0.327
6113,-0.041,-0.327
6114,-0.041,-0.327
6115,-0.042,-0.327
6116,-0.044,-0.306
6117,-0.045,-0.306
6118,-0.045,-0.306
6119,-0.045,-0.306
6120,-0.043,-0.327
6121,-0.041,-0.327
6122,-0.036,-0.327
6123,-0.031,-0.327
6124,-0.023,-0.347
6125,-0.016,-0.347
6126,0.002,-0.347
6127,0.020,-0.347
6128,0.048,-0.327
6129,0.077,-0.327
6130,0.111,-0.327
6131,0.145,-0.327
6132,0.181,-0.347
6133,0.217,-0.347
6134,0.254,-0.347
6135,0.291,-0.347
6136,0.328,-0.347
6137,0.366,-0.347
6138,0.401,-0.347
6139,0.436,-0.347
6140,0.463,-0.368
6141,0.489,-0.368
6142,0.498,-0.368
6143,0.507,-0.368
6144,0.488,-0.347
6145,0.469,-0.347
6146,0.425,-0.347
6147,0.380,-0.347
6148,0.322,-0.368
6149,0.264,-0.368
6150,0.213,-0.368
6151,0.161,-0.368
6152,0.130,-0.368
6153,0.099,-0.368
6154,0.093,-0.368
6155,0.088,-0.368
6156,0.101,-0.389
6157,0.114,-0.389
6158,0.138,-0.389
6159,0.163,-0.389
6160,0.183,-0.368
6161,0.203,-0.368
6162,0.213,-0.368
6163,0.222,-0.368
6164,0.213,-0.368
6165,0.203,-0.368
6166,0.180,-0.368
6167,0.156,-0.368
6168,0.125,-0.389
6169,0.094,-0.389
6170,0.065,-0.389
6171,0.036,-0.389
6172,0.013,-0.368
6173,-0.009,-0.368
6174,-0.023,-0.368
6175,-0.038,-0.368
6176,-0.044,-0.389
6177,-0.050,-0.389
6178,-0.051,-0.389
6179,-0.052,-0.389
6180,-0.053,-0.409
6181,-0.055,-0.409
6182,-0.059,-0.409
6183,-0.064,-0.409
6184,-0.070,-0.409
6185,-0.075,-0.409
6186,-0.077,-0.409
6187,-0.078,-0.409
6188,-0.079,-0.429
6189,-0.080,-0.429
6190,-0.080,-0.429
6191,-0.080,-0.429
6192,-0.078,-0.450
6193,-0.077,-0.450
6194,-0.075,-0.450
6195,-0.073,-0.450
6196,-0.070,-0.429
6197,-0.067,-0.429
6198,-0.066,-0.429
6199,-0.064,-0.429
6200,-0.063,-0.450
6201,-0.061,-0.450
6202,-0.059,-0.450
6203,-0.058,-0.450
6204,-0.057,-0.450
6205,-0.056,-0.450
6206,-0.054,-0.450
6207,-0.052,-0.450
6208,-0.049,-0.470
6209,-0.047,-0.470
6210,-0.046,-0.470
6211,-0.045,-0.470
6212,-0.046,-0.470
6213,-0.047,-0.470
6214,-0.047,-0.470
6215,-0.047,-0.470
6216,-0.046,-0.490
6217,-0.045,-0.490
6218,-0.044,-0.490
6219,-0.042,-0.490
6220,-0.040,-0.470
6221,-0.038,-0.470
6222,-0.036,-0.470
6223,-0.034,-0.470
6224,-0.031,-0.490
6225,-0.028,-0.490
6226,-0.025,-0.490
6227,-0.022,-0.490
6228,-0.020,-0.490
6229,-0.017,-0.490
6230,-0.016,-0.490
6231,-0.016,-0.490
6232,-0.013,-0.490
6233,-0.011,-0.490
6234,-0.008,-0.490
6235,-0.005,-0.490
6236,-0.002,-0.511
6237,0.000,-0.511
6238,0.002,-0.511
6239,0.005,-0.511
6240,0.006,-0.490
6241,0.008,-0.490
6242,0.009,-0.490
6243,0.011,-0.490
6244,0.012,-0.511
6245,0.013,-0.511
6246,0.015,-0.511
6247,0.017,-0.511
6248,0.020,-0.511
6249,0.022,-0.511
6250,0.023,-0.511
6251,0.025,-0.511
6252,0.026,-0.531
6253,0.027,-0.531
6254,0.028,-0.531
6255,0.030,-0.531
6256,0.029,-0.511
6257,0.028,-0.511
6258,0.027,-0.511
6259,0.027,-0.511
6260,0.025,-0.511
6261,0.023,-0.511
6262,0.023,-0.511
6263,0.023,-0.511
6264,0.025,-0.531
6265,0.027,-0.531
6266,0.029,-0.531
6267,0.031,-0.531
6268,0.032,-0.511
6269,0.033,-0.511
6270,0.034,-0.511
6271,0.036,-0.511
6272,0.038,-0.511
6273,0.041,-0.511
6274,0.043,-0.511
6275,0.045,-0.511
6276,0.046,-0.511
6277,0.047,-0.511
6278,0.048,-0.511
6279,0.048,-0.511
6280,0.048,-0.511
6281,0.047,-0.511
6282,0.045,-0.511
6283,0.044,-0.511
6284,0.041,-0.470
6285,0.039,-0.470
6286,0.036,-0.470
6287,0.033,-0.470
6288,0.030,-0.450
6289,0.028,-0.450
6290,0.027,-0.450
6291,0.025,-0.450
6292,0.024,-0.409
6293,0.023,-0.409
6294,0.023,-0.409
6295,0.022,-0.409
6296,0.022,-0.389
6297,0.022,-0.389
6298,0.022,-0.389
6299,0.022,-0.389
6300,0.022,-0.347
6301,0.022,-0.347
6302,0.022,-0.347
6303,0.022,-0.347
6304,0.022,-0.286
6305,0.022,-0.286
6306,0.022,-0.286
6307,0.022,-0.286
6308,0.022,-0.225
6309,0.022,-0.225
6310,0.022,-0.225
6311,0.022,-0.225
6312,0.022,-0.143
6313,0.022,-0.143
6314,0.022,-0.143
6315,0.022,-0.143
6316,0.021,-0.082
6317,0.020,-0.082
6318,0.018,-0.082
6319,0.016,-0.082
6320,0.013,0.000
6321,0.011,0.000
6322,0.009,0.000
6323,0.008,0.000
6324,0.006,0.041
6325,0.005,0.041
6326,0.002,0.041
6327,-0.002,0.041
6328,-0.005,0.122
6329,-0.008,0.122
6330,-0.010,0.122
6331,-0.013,0.122
6332,-0.016,0.164
6333,-0.019,0.164
6334,-0.021,0.164
6335,-0.023,0.164
6336,-0.024,0.225
6337,-0.025,0.225
6338,-0.027,0.225
6339,-0.028,0.225
6340,-0.029,0.266
6341,-0.030,0.266
6342,-0.030,0.266
6343,-0.030,0.266
6344,-0.030,0.306
6345,-0.030,0.306
6346,-0.029,0.306
6347,-0.028,0.306
6348,-0.027,0.327
6349,-0.025,0.327
6350,-0.023,0.327
6351,-0.022,0.327
6352,-0.020,0.347
6353,-0.017,0.347
6354,-0.017,0.347
6355,-0.017,0.347
6356,-0.017,0.367
6357,-0.017,0.367
6358,-0.017,0.367
6359,-0.017,0.367
6360,-0.016,0.367
6361,-0.016,0.367
6362,-0.014,0.367
6363,-0.013,0.367
6364,-0.012,0.388
6365,-0.011,0.388
6366,-0.011,0.388
6367,-0.011,0.388
6368,-0.012,0.347
6369,-0.013,0.347
6370,-0.013,0.347
6371,-0.013,0.347
6372,-0.011,0.347
6373,-0.009,0.347
6374,-0.008,0.347
6375,-0.006,0.347
6376,-0.006,0.347
6377,-0.006,0.347
6378,-0.006,0.347
6379,-0.006,0.347
6380,-0.006,0.347
6381,-0.006,0.347
6382,-0.005,0.347
6383,-0.005,0.347
6384,-0.002,0.347
6385,0.000,0.347
6386,0.002,0.347
6387,0.005,0.347
6388,0.005,0.306
6389,0.006,0.306
6390,0.005,0.306
6391,0.005,0.306
6392,0.005,0.286
6393,0.005,0.286
6394,0.005,0.286
6395,0.005,0.286
6396,0.005,0.286
6397,0.005,0.286
6398,0.005,0.286
6399,0.005,0.286
6400,0.005,0.245
6401,0.005,0.245
6402,0.005,0.245
6403,0.005,0.245
6404,0.005,0.245
6405,0.005,0.245
6406,0.005,0.245
6407,0.005,0.245
6408,0.005,0.225
6409,0.005,0.225
6410,0.005,0.225
6411,0.005,0.225
6412,0.005,0.184
6413,0.005,0.184
6414,0.004,0.184
6415,0.003,0.184
6416,0.002,0.143
6417,0.000,0.143
6418,-0.001,0.143
6419,-0.002,0.143
6420,-0.001,0.122
6421,0.000,0.122
6422,0.000,0.122
6423,0.000,0.122
6424,0.000,0.082
6425,0.000,0.082
6426,0.000,0.082
6427,0.000,0.082
6428,0.000,0.082
6429,0.000,0.082
6430,-0.001,0.082
6431,-0.002,0.082
6432,-0.002,0.041
6433,-0.003,0.041
6434,-0.002,0.041
6435,-0.002,0.041
6436,0.000,0.000
6437,0.002,0.000
6438,0.003,0.000
6439,0.005,0.000
6440,0.005,0.000
6441,0.006,0.000
6442,0.008,0.000
6443,0.009,0.000
6444,0.011,-0.041
6445,0.013,-0.041
6446,0.012,-0.041
6447,0.011,-0.041
6448,0.011,-0.041
6449,0.011,-0.041
6450,0.011,-0.041
6451,0.011,-0.041
6452,0.010,-0.082
6453,0.009,-0.082
6454,0.008,-0.082
6455,0.006,-0.082
6456,0.005,-0.123
6457,0.005,-0.123
6458,0.005,-0.123
6459,0.005,-0.123
6460,0.005,-0.123
6461,0.006,-0.123
6462,0.008,-0.123
6463,0.009,-0.123
6464,0.012,-0.143
6465,0.014,-0.143
6466,0.015,-0.143
6467,0.016,-0.143
6468,0.017,-0.143
6469,0.019,-0.143
6470,0.020,-0.143
6471,0.020,-0.143
6472,0.020,-0.164
6473,0.019,-0.164
6474,0.018,-0.164
6475,0.017,-0.164
6476,0.021,-0.184
6477,0.025,-0.184
6478,0.031,-0.184
6479,0.038,-0.184
6480,0.046,-0.204
6481,0.055,-0.204
6482,0.063,-0.204
6483,0.072,-0.204
6484,0.080,-0.204
6485,0.088,-0.204
6486,0.093,-0.204
6487,0.099,-0.204
6488,0.102,-0.225
6489,0.106,-0.225
6490,0.110,-0.225
6491,0.114,-0.225
6492,0.118,-0.184
6493,0.122,-0.184
6494,0.124,-0.184
6495,0.127,-0.184
6496,0.129,-0.204
6497,0.131,-0.204
6498,0.131,-0.204
6499,0.131,-0.204
6500,0.131,-0.204
6501,0.130,-0.204
6502,0.127,-0.204
6503,0.124,-0.204
6504,0.118,-0.204
6505,0.113,-0.204
6506,0.106,-0.204
6507,0.099,-0.204
6508,0.091,-0.225
6509,0.084,-0.225
6510,0.078,-0.225
6511,0.072,-0.225
6512,0.068,-0.225
6513,0.064,-0.225
6514,0.059,-0.225
6515,0.055,-0.225
6516,0.048,-0.225
6517,0.042,-0.225
6518,0.037,-0.225
6519,0.031,-0.225
6520,0.026,-0.225
6521,0.020,-0.225
6522,0.014,-0.225
6523,0.008,-0.225
6524,0.000,-0.225
6525,-0.008,-0.225
6526,-0.015,-0.225
6527,-0.022,-0.225
6528,-0.027,-0.225
6529,-0.031,-0.225
6530,-0.037,-0.225
6531,-0.042,-0.225
6532,-0.045,-0.204
6533,-0.047,-0.204
6534,-0.046,-0.204
6535,-0.045,-0.204
6536,-0.043,-0.204
6537,-0.041,-0.204
6538,-0.038,-0.204
6539,-0.034,-0.204
6540,-0.034,-0.225
6541,-0.034,-0.225
6542,-0.035,-0.225
6543,-0.036,-0.225
6544,-0.038,-0.225
6545,-0.039,-0.225
6546,-0.039,-0.225
6547,-0.039,-0.225
6548,-0.032,-0.245
6549,-0.025,-0.245
6550,-0.011,-0.245
6551,0.003,-0.245
6552,0.026,-0.266
6553,0.048,-0.266
6554,0.079,-0.266
6555,0.109,-0.266
6556,0.146,-0.245
6557,0.183,-0.245
6558,0.222,-0.245
6559,0.261,-0.245
6560,0.301,-0.266
6561,0.341,-0.266
6562,0.384,-0.266
6563,0.427,-0.266
6564,0.474,-0.266
6565,0.521,-0.266
6566,0.560,-0.266
6567,0.599,-0.266
6568,0.615,-0.286
6569,0.632,-0.286
6570,0.616,-0.286
6571,0.600,-0.286
6572,0.552,-0.306
6573,0.504,-0.306
6574,0.437,-0.306
6575,0.371,-0.306
6576,0.310,-0.327
6577,0.249,-0.327
6578,0.210,-0.327
6579,0.172,-0.327
6580,0.163,-0.304
6581,0.153,-0.304
6582,0.163,-0.304
6583,0.174,-0.304
6584,0.186,-0.304
6585,0.199,-0.304
6586,0.199,-0.304
6587,0.199,-0.304
6588,0.181,-0.304
6589,0.163,-0.304
6590,0.131,-0.304
6591,0.100,-0.304
6592,0.067,-0.327
6593,0.034,-0.327
6594,0.006,-0.327
6595,-0.022,-0.327
6596,-0.041,-0.327
6597,-0.061,-0.327
6598,-0.072,-0.327
6599,-0.083,-0.327
6600,-0.086,-0.304
6601,-0.089,-0.304
6602,-0.088,-0.304
6603,-0.086,-0.304
6604,-0.084,-0.304
6605,-0.081,-0.304
6606,-0.081,-0.304
6607,-0.080,-0.304
6608,-0.080,-0.304
6609,-0.080,-0.304
6610,-0.081,-0.304
6611,-0.081,-0.304
6612,-0.081,-0.283
6613,-0.080,-0.283
6614,-0.077,-0.283
6615,-0.075,-0.283
6616,-0.075,-0.283
6617,-0.075,-0.283
6618,-0.074,-0.283
6619,-0.073,-0.283
6620,-0.070,-0.304
6621,-0.067,-0.304
6622,-0.064,-0.304
6623,-0.061,-0.304
6624,-0.056,-0.304
6625,-0.052,-0.304
6626,-0.049,-0.304
6627,-0.047,-0.304
6628,-0.046,-0.327
6629,-0.045,-0.327
6630,-0.046,-0.327
6631,-0.047,-0.327
6632,-0.047,-0.348
6633,-0.047,-0.348
6634,-0.046,-0.348
6635,-0.045,-0.348
6636,-0.043,-0.327
6637,-0.041,-0.327
6638,-0.037,-0.327
6639,-0.033,-0.327
6640,-0.030,-0.348
6641,-0.028,-0.348
6642,-0.025,-0.348
6643,-0.022,-0.348
6644,-0.019,-0.348
6645,-0.016,-0.348
6646,-0.014,-0.348
6647,-0.013,-0.348
6648,-0.011,-0.327
6649,-0.009,-0.327
6650,-0.007,-0.327
6651,-0.005,-0.327
6652,-0.002,-0.327
6653,0.000,-0.327
6654,0.002,-0.327
6655,0.005,-0.327
6656,0.006,-0.348
6657,0.008,-0.348
6658,0.009,-0.348
6659,0.011,-0.348
6660,0.012,-0.348
6661,0.013,-0.348
6662,0.015,-0.348
6663,0.017,-0.348
6664,0.020,-0.370
