,ECG,PPG
0,-0.048,-0.554
1,-0.046,-0.554
2,-0.045,-0.554
3,-0.044,-0.554
4,-0.047,-0.556
5,-0.051,-0.556
6,-0.058,-0.556
7,-0.065,-0.556
8,-0.071,-0.558
9,-0.078,-0.558
10,-0.084,-0.558
11,-0.090,-0.558
12,-0.094,-0.561
13,-0.099,-0.561
14,-0.101,-0.561
15,-0.102,-0.561
16,-0.102,-0.562
17,-0.102,-0.562
18,-0.102,-0.562
19,-0.101,-0.562
20,-0.099,-0.564
21,-0.098,-0.564
22,-0.096,-0.564
23,-0.094,-0.564
24,-0.093,-0.564
25,-0.092,-0.564
26,-0.091,-0.564
27,-0.090,-0.564
28,-0.089,-0.567
29,-0.087,-0.567
30,-0.084,-0.567
31,-0.081,-0.567
32,-0.078,-0.568
33,-0.075,-0.568
34,-0.071,-0.568
35,-0.068,-0.568
36,-0.067,-0.567
37,-0.065,-0.567
38,-0.066,-0.567
39,-0.066,-0.567
40,-0.067,-0.568
41,-0.067,-0.568
42,-0.067,-0.568
43,-0.067,-0.568
44,-0.067,-0.568
45,-0.066,-0.568
46,-0.065,-0.568
47,-0.063,-0.568
48,-0.061,-0.566
49,-0.058,-0.566
50,-0.056,-0.566
51,-0.053,-0.566
52,-0.050,-0.564
53,-0.047,-0.564
54,-0.044,-0.564
55,-0.041,-0.564
56,-0.037,-0.564
57,-0.034,-0.564
58,-0.031,-0.564
59,-0.028,-0.564
60,-0.026,-0.562
61,-0.025,-0.562
62,-0.024,-0.562
63,-0.024,-0.562
64,-0.024,-0.559
65,-0.024,-0.559
66,-0.023,-0.559
67,-0.022,-0.559
68,-0.021,-0.556
69,-0.020,-0.556
70,-0.019,-0.556
71,-0.017,-0.556
72,-0.015,-0.551
73,-0.013,-0.551
74,-0.011,-0.551
75,-0.010,-0.551
76,-0.008,-0.543
77,-0.006,-0.543
78,-0.003,-0.543
79,0.000,-0.543
80,0.001,-0.534
81,0.003,-0.534
82,0.004,-0.534
83,0.005,-0.534
84,0.005,-0.520
85,0.006,-0.520
86,0.005,-0.520
87,0.004,-0.520
88,0.003,-0.501
89,0.003,-0.501
90,0.003,-0.501
91,0.004,-0.501
92,0.005,-0.474
93,0.006,-0.474
94,0.007,-0.474
95,0.008,-0.474
96,0.007,-0.443
97,0.007,-0.443
98,0.007,-0.443
99,0.007,-0.443
100,0.006,-0.403
101,0.006,-0.403
102,0.005,-0.403
103,0.005,-0.403
104,0.005,-0.355
105,0.005,-0.355
106,0.004,-0.355
107,0.004,-0.355
108,0.003,-0.299
109,0.003,-0.299
110,0.003,-0.299
111,0.003,-0.299
112,0.002,-0.241
113,0.002,-0.241
114,0.000,-0.241
115,-0.001,-0.241
116,-0.003,-0.178
117,-0.005,-0.178
118,-0.006,-0.178
119,-0.008,-0.178
120,-0.010,-0.114
121,-0.011,-0.114
122,-0.013,-0.114
123,-0.015,-0.114
124,-0.017,-0.050
125,-0.018,-0.050
126,-0.020,-0.050
127,-0.021,-0.050
128,-0.022,0.013
129,-0.022,0.013
130,-0.021,0.013
131,-0.020,0.013
132,-0.019,0.073
133,-0.017,0.073
134,-0.015,0.073
135,-0.013,0.073
136,-0.011,0.130
137,-0.008,0.130
138,-0.004,0.130
139,0.000,0.130
140,0.004,0.180
141,0.009,0.180
142,0.011,0.180
143,0.014,0.180
144,0.014,0.229
145,0.014,0.229
146,0.013,0.229
147,0.012,0.229
148,0.011,0.271
149,0.009,0.271
150,0.006,0.271
151,0.003,0.271
152,0.000,0.311
153,-0.003,0.311
154,-0.005,0.311
155,-0.008,0.311
156,-0.010,0.345
157,-0.012,0.345
158,-0.013,0.345
159,-0.014,0.345
160,-0.014,0.375
161,-0.014,0.375
162,-0.014,0.375
163,-0.014,0.375
164,-0.015,0.403
165,-0.015,0.403
166,-0.017,0.403
167,-0.018,0.403
168,-0.020,0.424
169,-0.022,0.424
170,-0.024,0.424
171,-0.026,0.424
172,-0.028,0.444
173,-0.030,0.444
174,-0.031,0.444
175,-0.032,0.444
176,-0.033,0.459
177,-0.034,0.459
178,-0.034,0.459
179,-0.034,0.459
180,-0.035,0.469
181,-0.035,0.469
182,-0.035,0.469
183,-0.035,0.469
184,-0.034,0.475
185,-0.034,0.475
186,-0.032,0.475
187,-0.030,0.475
188,-0.028,0.478
189,-0.027,0.478
190,-0.026,0.478
191,-0.026,0.478
192,-0.025,0.476
193,-0.025,0.476
194,-0.027,0.476
195,-0.029,0.476
196,-0.030,0.472
197,-0.031,0.472
198,-0.030,0.472
199,-0.030,0.472
200,-0.028,0.464
201,-0.026,0.464
202,-0.023,0.464
203,-0.020,0.464
204,-0.016,0.453
205,-0.012,0.453
206,-0.008,0.453
207,-0.003,0.453
208,0.000,0.437
209,0.004,0.437
210,0.003,0.437
211,0.003,0.437
212,0.000,0.419
213,-0.002,0.419
214,-0.006,0.419
215,-0.010,0.419
216,-0.014,0.397
217,-0.018,0.397
218,-0.020,0.397
219,-0.022,0.397
220,-0.022,0.372
221,-0.021,0.372
222,-0.019,0.372
223,-0.017,0.372
224,-0.015,0.344
225,-0.012,0.344
226,-0.010,0.344
227,-0.007,0.344
228,-0.005,0.312
229,-0.003,0.312
230,-0.002,0.312
231,-0.001,0.312
232,-0.000,0.280
233,0.000,0.280
234,0.000,0.280
235,0.000,0.280
236,0.000,0.242
237,0.001,0.242
238,0.002,0.242
239,0.003,0.242
240,0.003,0.205
241,0.003,0.205
242,0.002,0.205
243,0.002,0.205
244,0.001,0.167
245,0.001,0.167
246,0.001,0.167
247,0.002,0.167
248,0.003,0.129
249,0.004,0.129
250,0.005,0.129
251,0.006,0.129
252,0.007,0.089
253,0.009,0.089
254,0.009,0.089
255,0.009,0.089
256,0.009,0.052
257,0.009,0.052
258,0.009,0.052
259,0.009,0.052
260,0.009,0.017
261,0.009,0.017
262,0.009,0.017
263,0.009,0.017
264,0.009,-0.018
265,0.009,-0.018
266,0.009,-0.018
267,0.010,-0.018
268,0.010,-0.051
269,0.011,-0.051
270,0.010,-0.051
271,0.010,-0.051
272,0.009,-0.082
273,0.008,-0.082
274,0.006,-0.082
275,0.005,-0.082
276,0.005,-0.110
277,0.006,-0.110
278,0.009,-0.110
279,0.011,-0.110
280,0.019,-0.134
281,0.026,-0.134
282,0.037,-0.134
283,0.049,-0.134
284,0.061,-0.159
285,0.074,-0.159
286,0.086,-0.159
287,0.099,-0.159
288,0.109,-0.181
289,0.119,-0.181
290,0.125,-0.181
291,0.131,-0.181
292,0.135,-0.201
293,0.138,-0.201
294,0.139,-0.201
295,0.141,-0.201
296,0.143,-0.222
297,0.145,-0.222
298,0.146,-0.222
299,0.148,-0.222
300,0.149,-0.238
301,0.150,-0.238
302,0.149,-0.238
303,0.148,-0.238
304,0.146,-0.255
305,0.143,-0.255
306,0.139,-0.255
307,0.135,-0.255
308,0.131,-0.271
309,0.126,-0.271
310,0.121,-0.271
311,0.116,-0.271
312,0.109,-0.287
313,0.102,-0.287
314,0.094,-0.287
315,0.086,-0.287
316,0.078,-0.300
317,0.070,-0.300
318,0.060,-0.300
319,0.051,-0.300
320,0.040,-0.312
321,0.030,-0.312
322,0.020,-0.312
323,0.011,-0.312
324,0.003,-0.324
325,-0.005,-0.324
326,-0.012,-0.324
327,-0.020,-0.324
328,-0.027,-0.337
329,-0.034,-0.337
330,-0.038,-0.337
331,-0.043,-0.337
332,-0.048,-0.346
333,-0.053,-0.346
334,-0.056,-0.346
335,-0.059,-0.346
336,-0.062,-0.358
337,-0.064,-0.358
338,-0.066,-0.358
339,-0.068,-0.358
340,-0.069,-0.366
341,-0.070,-0.366
342,-0.070,-0.366
343,-0.071,-0.366
344,-0.070,-0.376
345,-0.069,-0.376
346,-0.068,-0.376
347,-0.067,-0.376
348,-0.066,-0.383
349,-0.065,-0.383
350,-0.064,-0.383
351,-0.063,-0.383
352,-0.060,-0.392
353,-0.057,-0.392
354,-0.049,-0.392
355,-0.042,-0.392
356,-0.030,-0.401
357,-0.017,-0.401
358,0.002,-0.401
359,0.021,-0.401
360,0.046,-0.406
361,0.072,-0.406
362,0.102,-0.406
363,0.131,-0.406
364,0.163,-0.413
365,0.194,-0.413
366,0.229,-0.413
367,0.263,-0.413
368,0.305,-0.421
369,0.346,-0.421
370,0.391,-0.421
371,0.437,-0.421
372,0.475,-0.427
373,0.512,-0.427
374,0.528,-0.427
375,0.544,-0.427
376,0.529,-0.432
377,0.513,-0.432
378,0.472,-0.432
379,0.430,-0.432
380,0.377,-0.440
381,0.324,-0.440
382,0.277,-0.440
383,0.230,-0.440
384,0.201,-0.445
385,0.171,-0.445
386,0.160,-0.445
387,0.148,-0.445
388,0.149,-0.449
389,0.150,-0.449
390,0.158,-0.449
391,0.165,-0.449
392,0.169,-0.455
393,0.172,-0.455
394,0.166,-0.455
395,0.159,-0.455
396,0.141,-0.459
397,0.123,-0.459
398,0.097,-0.459
399,0.071,-0.459
400,0.046,-0.463
401,0.021,-0.463
402,0.004,-0.463
403,-0.012,-0.463
404,-0.019,-0.467
405,-0.025,-0.467
406,-0.025,-0.467
407,-0.025,-0.467
408,-0.024,-0.471
409,-0.023,-0.471
410,-0.025,-0.471
411,-0.027,-0.471
412,-0.034,-0.474
413,-0.040,-0.474
414,-0.052,-0.474
415,-0.063,-0.474
416,-0.076,-0.470
417,-0.088,-0.470
418,-0.096,-0.470
419,-0.104,-0.470
420,-0.108,-0.473
421,-0.111,-0.473
422,-0.112,-0.473
423,-0.112,-0.473
424,-0.111,-0.475
425,-0.109,-0.475
426,-0.108,-0.475
427,-0.107,-0.475
428,-0.106,-0.478
429,-0.105,-0.478
430,-0.103,-0.478
431,-0.101,-0.478
432,-0.099,-0.480
433,-0.098,-0.480
434,-0.096,-0.480
435,-0.094,-0.480
436,-0.092,-0.482
437,-0.090,-0.482
438,-0.087,-0.482
439,-0.083,-0.482
440,-0.080,-0.485
441,-0.076,-0.485
442,-0.072,-0.485
443,-0.069,-0.485
444,-0.067,-0.486
445,-0.064,-0.486
446,-0.063,-0.486
447,-0.061,-0.486
448,-0.061,-0.486
449,-0.060,-0.486
450,-0.060,-0.486
451,-0.059,-0.486
452,-0.060,-0.488
453,-0.060,-0.488
454,-0.060,-0.488
455,-0.059,-0.488
456,-0.058,-0.487
457,-0.057,-0.487
458,-0.054,-0.487
459,-0.052,-0.487
460,-0.050,-0.488
461,-0.049,-0.488
462,-0.046,-0.488
463,-0.044,-0.488
464,-0.041,-0.487
465,-0.038,-0.487
466,-0.036,-0.487
467,-0.034,-0.487
468,-0.033,-0.487
469,-0.032,-0.487
470,-0.031,-0.487
471,-0.031,-0.487
472,-0.030,-0.486
473,-0.029,-0.486
474,-0.028,-0.486
475,-0.027,-0.486
476,-0.026,-0.483
477,-0.025,-0.483
478,-0.023,-0.483
479,-0.020,-0.483
480,-0.019,-0.480
481,-0.018,-0.480
482,-0.017,-0.480
483,-0.016,-0.480
484,-0.015,-0.475
485,-0.014,-0.475
486,-0.012,-0.475
487,-0.010,-0.475
488,-0.008,-0.467
489,-0.006,-0.467
490,-0.003,-0.467
491,0.000,-0.467
492,0.002,-0.453
493,0.004,-0.453
494,0.005,-0.453
495,0.006,-0.453
496,0.004,-0.433
497,0.003,-0.433
498,-0.000,-0.433
499,-0.004,-0.433
500,-0.006,-0.407
501,-0.009,-0.407
502,-0.009,-0.407
503,-0.010,-0.407
504,-0.009,-0.374
505,-0.008,-0.374
506,-0.006,-0.374
507,-0.005,-0.374
508,-0.002,-0.334
509,0.000,-0.334
510,0.002,-0.334
511,0.004,-0.334
512,0.005,-0.285
513,0.006,-0.285
514,0.005,-0.285
515,0.005,-0.285
516,0.003,-0.231
517,0.001,-0.231
518,-0.001,-0.231
519,-0.004,-0.231
520,-0.006,-0.172
521,-0.009,-0.172
522,-0.010,-0.172
523,-0.011,-0.172
524,-0.013,-0.110
525,-0.015,-0.110
526,-0.016,-0.110
527,-0.017,-0.110
528,-0.018,-0.045
529,-0.019,-0.045
530,-0.020,-0.045
531,-0.020,-0.045
532,-0.019,0.017
533,-0.017,0.017
534,-0.016,0.017
535,-0.014,0.017
536,-0.013,0.079
537,-0.012,0.079
538,-0.011,0.079
539,-0.011,0.079
540,-0.009,0.138
541,-0.007,0.138
542,-0.005,0.138
543,-0.003,0.138
544,-0.001,0.191
545,0.000,0.191
546,0.002,0.191
547,0.004,0.191
548,0.006,0.241
549,0.008,0.241
550,0.009,0.241
551,0.010,0.241
552,0.009,0.287
553,0.009,0.287
554,0.009,0.287
555,0.010,0.287
556,0.010,0.331
557,0.011,0.331
558,0.011,0.331
559,0.011,0.331
560,0.010,0.368
561,0.010,0.368
562,0.008,0.368
563,0.007,0.368
564,0.004,0.402
565,0.001,0.402
566,-0.002,0.402
567,-0.005,0.402
568,-0.008,0.430
569,-0.011,0.430
570,-0.014,0.430
571,-0.016,0.430
572,-0.019,0.457
573,-0.021,0.457
574,-0.023,0.457
575,-0.024,0.457
576,-0.023,0.477
577,-0.023,0.477
578,-0.023,0.477
579,-0.022,0.477
580,-0.023,0.496
581,-0.025,0.496
582,-0.027,0.496
583,-0.030,0.496
584,-0.031,0.508
585,-0.033,0.508
586,-0.034,0.508
587,-0.036,0.508
588,-0.038,0.517
589,-0.039,0.517
590,-0.041,0.517
591,-0.043,0.517
592,-0.045,0.524
593,-0.046,0.524
594,-0.046,0.524
595,-0.047,0.524
596,-0.047,0.525
597,-0.047,0.525
598,-0.045,0.525
599,-0.043,0.525
600,-0.040,0.523
601,-0.036,0.523
602,-0.034,0.523
603,-0.033,0.523
604,-0.032,0.516
605,-0.031,0.516
606,-0.029,0.516
607,-0.027,0.516
608,-0.023,0.507
609,-0.020,0.507
610,-0.017,0.507
611,-0.013,0.507
612,-0.012,0.493
613,-0.011,0.493
614,-0.011,0.493
615,-0.012,0.493
616,-0.015,0.478
617,-0.018,0.478
618,-0.020,0.478
619,-0.022,0.478
620,-0.023,0.457
621,-0.024,0.457
622,-0.023,0.457
623,-0.022,0.457
624,-0.020,0.434
625,-0.017,0.434
626,-0.016,0.434
627,-0.014,0.434
628,-0.014,0.407
629,-0.013,0.407
630,-0.014,0.407
631,-0.014,0.407
632,-0.014,0.378
633,-0.014,0.378
634,-0.014,0.378
635,-0.013,0.378
636,-0.012,0.344
637,-0.011,0.344
638,-0.009,0.344
639,-0.007,0.344
640,-0.005,0.311
641,-0.004,0.311
642,-0.004,0.311
643,-0.004,0.311
644,-0.003,0.274
645,-0.003,0.274
646,-0.002,0.274
647,-0.001,0.274
648,-0.000,0.235
649,0.000,0.235
650,-0.000,0.235
651,-0.001,0.235
652,-0.002,0.196
653,-0.003,0.196
654,-0.003,0.196
655,-0.004,0.196
656,-0.004,0.157
657,-0.004,0.157
658,-0.003,0.157
659,-0.003,0.157
660,-0.002,0.117
661,-0.001,0.117
662,-0.001,0.117
663,-0.001,0.117
664,-0.002,0.077
665,-0.003,0.077
666,-0.003,0.077
667,-0.004,0.077
668,-0.003,0.042
669,-0.003,0.042
670,-0.002,0.042
671,-0.001,0.042
672,0.000,0.006
673,0.001,0.006
674,0.001,0.006
675,0.002,0.006
676,0.000,-0.027
677,-0.001,-0.027
678,-0.002,-0.027
679,-0.004,-0.027
680,-0.003,-0.059
681,-0.003,-0.059
682,-0.001,-0.059
683,0.000,-0.059
684,0.004,-0.088
685,0.008,-0.088
686,0.015,-0.088
687,0.023,-0.088
688,0.034,-0.114
689,0.044,-0.114
690,0.056,-0.114
691,0.067,-0.114
692,0.078,-0.140
693,0.089,-0.140
694,0.098,-0.140
695,0.107,-0.140
696,0.113,-0.162
697,0.118,-0.162
698,0.121,-0.162
699,0.124,-0.162
700,0.125,-0.184
701,0.127,-0.184
702,0.130,-0.184
703,0.132,-0.184
704,0.136,-0.204
705,0.139,-0.204
706,0.142,-0.204
707,0.145,-0.204
708,0.145,-0.222
709,0.146,-0.222
710,0.144,-0.222
711,0.143,-0.222
712,0.139,-0.238
713,0.135,-0.238
714,0.129,-0.238
715,0.124,-0.238
716,0.118,-0.257
717,0.113,-0.257
718,0.107,-0.257
719,0.102,-0.257
720,0.095,-0.271
721,0.088,-0.271
722,0.081,-0.271
723,0.074,-0.271
724,0.066,-0.284
725,0.058,-0.284
726,0.050,-0.284
727,0.041,-0.284
728,0.033,-0.298
729,0.024,-0.298
730,0.015,-0.298
731,0.007,-0.298
732,-0.001,-0.311
733,-0.010,-0.311
734,-0.015,-0.311
735,-0.021,-0.311
736,-0.026,-0.322
737,-0.031,-0.322
738,-0.036,-0.322
739,-0.041,-0.322
740,-0.046,-0.335
741,-0.051,-0.335
742,-0.054,-0.335
743,-0.057,-0.335
744,-0.060,-0.344
745,-0.062,-0.344
746,-0.065,-0.344
747,-0.067,-0.344
748,-0.068,-0.354
749,-0.070,-0.354
750,-0.070,-0.354
751,-0.071,-0.354
752,-0.070,-0.364
753,-0.069,-0.364
754,-0.068,-0.364
755,-0.067,-0.364
756,-0.066,-0.372
757,-0.064,-0.372
758,-0.062,-0.372
759,-0.059,-0.372
760,-0.054,-0.382
761,-0.049,-0.382
762,-0.038,-0.382
763,-0.028,-0.382
764,-0.010,-0.389
765,0.008,-0.389
766,0.031,-0.389
767,0.055,-0.389
768,0.082,-0.398
769,0.109,-0.398
770,0.139,-0.398
771,0.170,-0.398
772,0.203,-0.404
773,0.237,-0.404
774,0.275,-0.404
775,0.314,-0.404
776,0.359,-0.411
777,0.403,-0.411
778,0.444,-0.411
779,0.485,-0.411
780,0.507,-0.417
781,0.530,-0.417
782,0.524,-0.417
783,0.519,-0.417
784,0.485,-0.423
785,0.451,-0.423
786,0.399,-0.423
787,0.347,-0.423
788,0.295,-0.428
789,0.244,-0.428
790,0.208,-0.428
791,0.172,-0.428
792,0.156,-0.436
793,0.140,-0.436
794,0.140,-0.436
795,0.140,-0.436
796,0.148,-0.441
797,0.157,-0.441
798,0.165,-0.441
799,0.172,-0.441
800,0.170,-0.445
801,0.167,-0.445
802,0.150,-0.445
803,0.134,-0.445
804,0.107,-0.451
805,0.080,-0.451
806,0.051,-0.451
807,0.022,-0.451
808,0.001,-0.456
809,-0.020,-0.456
810,-0.029,-0.456
811,-0.038,-0.456
812,-0.039,-0.460
813,-0.039,-0.460
814,-0.036,-0.460
815,-0.033,-0.460
816,-0.033,-0.465
817,-0.033,-0.465
818,-0.037,-0.465
819,-0.041,-0.465
820,-0.049,-0.469
821,-0.057,-0.469
822,-0.065,-0.469
823,-0.074,-0.469
824,-0.081,-0.473
825,-0.089,-0.473
826,-0.093,-0.473
827,-0.097,-0.473
828,-0.098,-0.477
829,-0.099,-0.477
830,-0.099,-0.477
831,-0.099,-0.477
832,-0.099,-0.480
833,-0.099,-0.480
834,-0.098,-0.480
835,-0.098,-0.480
836,-0.097,-0.482
837,-0.096,-0.482
838,-0.094,-0.482
839,-0.093,-0.482
840,-0.091,-0.486
841,-0.088,-0.486
842,-0.085,-0.486
843,-0.082,-0.486
844,-0.080,-0.488
845,-0.077,-0.488
846,-0.074,-0.488
847,-0.072,-0.488
848,-0.069,-0.490
849,-0.066,-0.490
850,-0.064,-0.490
851,-0.062,-0.490
852,-0.061,-0.492
853,-0.060,-0.492
854,-0.059,-0.492
855,-0.058,-0.492
856,-0.058,-0.493
857,-0.057,-0.493
858,-0.057,-0.493
859,-0.056,-0.493
860,-0.054,-0.493
861,-0.053,-0.493
862,-0.052,-0.493
863,-0.052,-0.493
864,-0.050,-0.493
865,-0.049,-0.493
866,-0.047,-0.493
867,-0.045,-0.493
868,-0.043,-0.495
869,-0.040,-0.495
870,-0.038,-0.495
871,-0.035,-0.495
872,-0.034,-0.493
873,-0.032,-0.493
874,-0.031,-0.493
875,-0.031,-0.493
876,-0.030,-0.493
877,-0.029,-0.493
878,-0.028,-0.493
879,-0.027,-0.493
880,-0.026,-0.492
881,-0.025,-0.492
882,-0.023,-0.492
883,-0.020,-0.492
884,-0.019,-0.490
885,-0.017,-0.490
886,-0.016,-0.490
887,-0.014,-0.490
888,-0.014,-0.485
889,-0.013,-0.485
890,-0.013,-0.485
891,-0.013,-0.485
892,-0.012,-0.479
893,-0.011,-0.479
894,-0.010,-0.479
895,-0.009,-0.479
896,-0.006,-0.468
897,-0.003,-0.468
898,0.000,-0.468
899,0.004,-0.468
900,0.005,-0.454
901,0.007,-0.454
902,0.007,-0.454
903,0.007,-0.454
904,0.005,-0.431
905,0.003,-0.431
906,0.001,-0.431
907,-0.001,-0.431
908,-0.003,-0.403
909,-0.005,-0.403
910,-0.006,-0.403
911,-0.007,-0.403
912,-0.007,-0.367
913,-0.007,-0.367
914,-0.006,-0.367
915,-0.006,-0.367
916,-0.006,-0.324
917,-0.007,-0.324
918,-0.008,-0.324
919,-0.009,-0.324
920,-0.010,-0.273
921,-0.011,-0.273
922,-0.011,-0.273
923,-0.011,-0.273
924,-0.011,-0.217
925,-0.011,-0.217
926,-0.011,-0.217
927,-0.011,-0.217
928,-0.011,-0.160
929,-0.011,-0.160
930,-0.013,-0.160
931,-0.015,-0.160
932,-0.017,-0.095
933,-0.018,-0.095
934,-0.020,-0.095
935,-0.021,-0.095
936,-0.021,-0.033
937,-0.021,-0.033
938,-0.019,-0.033
939,-0.017,-0.033
940,-0.015,0.030
941,-0.012,0.030
942,-0.010,0.030
943,-0.007,0.030
944,-0.005,0.091
945,-0.003,0.091
946,-0.001,0.091
947,0.000,0.091
948,0.002,0.148
949,0.004,0.148
950,0.005,0.148
951,0.007,0.148
952,0.008,0.202
953,0.009,0.202
954,0.009,0.202
955,0.010,0.202
956,0.011,0.251
957,0.011,0.251
958,0.012,0.251
959,0.013,0.251
960,0.014,0.294
961,0.014,0.294
962,0.013,0.294
963,0.012,0.294
964,0.011,0.336
965,0.011,0.336
966,0.009,0.336
967,0.008,0.336
968,0.006,0.370
969,0.004,0.370
970,0.002,0.370
971,0.001,0.370
972,-0.002,0.404
973,-0.005,0.404
974,-0.008,0.404
975,-0.011,0.404
976,-0.013,0.430
977,-0.015,0.430
978,-0.016,0.430
979,-0.017,0.430
980,-0.018,0.456
981,-0.019,0.456
982,-0.021,0.456
983,-0.022,0.456
984,-0.023,0.474
985,-0.025,0.474
986,-0.027,0.474
987,-0.030,0.474
988,-0.031,0.489
989,-0.032,0.489
990,-0.032,0.489
991,-0.033,0.489
992,-0.032,0.502
993,-0.031,0.502
994,-0.030,0.502
995,-0.029,0.502
996,-0.029,0.509
997,-0.029,0.509
998,-0.031,0.509
999,-0.033,0.509
1000,-0.034,0.512
1001,-0.036,0.512
1002,-0.037,0.512
1003,-0.038,0.512
1004,-0.039,0.511
1005,-0.039,0.511
1006,-0.039,0.511
1007,-0.038,0.511
1008,-0.038,0.508
1009,-0.037,0.508
1010,-0.036,0.508
1011,-0.034,0.508
1012,-0.033,0.500
1013,-0.032,0.500
1014,-0.030,0.500
1015,-0.029,0.500
1016,-0.028,0.489
1017,-0.027,0.489
1018,-0.026,0.489
1019,-0.026,0.489
1020,-0.024,0.475
1021,-0.022,0.475
1022,-0.021,0.475
1023,-0.019,0.475
1024,-0.017,0.458
1025,-0.015,0.458
1026,-0.013,0.458
1027,-0.011,0.458
1028,-0.010,0.436
1029,-0.009,0.436
1030,-0.008,0.436
1031,-0.008,0.436
1032,-0.007,0.412
1033,-0.007,0.412
1034,-0.006,0.412
1035,-0.006,0.412
1036,-0.005,0.385
1037,-0.005,0.385
1038,-0.005,0.385
1039,-0.005,0.385
1040,-0.006,0.354
1041,-0.007,0.354
1042,-0.007,0.354
1043,-0.008,0.354
1044,-0.008,0.321
1045,-0.008,0.321
1046,-0.007,0.321
1047,-0.006,0.321
1048,-0.004,0.287
1049,-0.003,0.287
1050,-0.001,0.287
1051,0.000,0.287
1052,0.002,0.249
1053,0.004,0.249
1054,0.006,0.249
1055,0.008,0.249
1056,0.009,0.210
1057,0.011,0.210
1058,0.011,0.210
1059,0.011,0.210
1060,0.011,0.171
1061,0.011,0.171
1062,0.010,0.171
1063,0.009,0.171
1064,0.007,0.132
1065,0.005,0.132
1066,0.003,0.132
1067,0.001,0.132
1068,0.000,0.091
1069,0.000,0.091
1070,-0.000,0.091
1071,-0.001,0.091
1072,-0.000,0.054
1073,0.000,0.054
1074,0.000,0.054
1075,0.000,0.054
1076,0.000,0.018
1077,0.000,0.018
1078,0.000,0.018
1079,0.000,0.018
1080,0.000,-0.018
1081,0.001,-0.018
1082,0.002,-0.018
1083,0.003,-0.018
1084,0.003,-0.052
1085,0.004,-0.052
1086,0.005,-0.052
1087,0.006,-0.052
1088,0.008,-0.084
1089,0.010,-0.084
1090,0.012,-0.084
1091,0.015,-0.084
1092,0.022,-0.113
1093,0.029,-0.113
1094,0.039,-0.113
1095,0.049,-0.113
1096,0.060,-0.140
1097,0.072,-0.140
1098,0.083,-0.140
1099,0.094,-0.140
1100,0.102,-0.167
1101,0.111,-0.167
1102,0.115,-0.167
1103,0.120,-0.167
1104,0.122,-0.189
1105,0.125,-0.189
1106,0.125,-0.189
1107,0.126,-0.189
1108,0.128,-0.211
1109,0.130,-0.211
1110,0.134,-0.211
1111,0.137,-0.211
1112,0.140,-0.231
1113,0.143,-0.231
1114,0.145,-0.231
1115,0.148,-0.231
1116,0.148,-0.251
1117,0.149,-0.251
1118,0.148,-0.251
1119,0.147,-0.251
1120,0.143,-0.266
1121,0.140,-0.266
1122,0.134,-0.266
1123,0.128,-0.266
1124,0.122,-0.282
1125,0.115,-0.282
1126,0.108,-0.282
1127,0.102,-0.282
1128,0.094,-0.298
1129,0.087,-0.298
1130,0.079,-0.298
1131,0.070,-0.298
1132,0.060,-0.312
1133,0.051,-0.312
1134,0.041,-0.312
1135,0.031,-0.312
1136,0.022,-0.326
1137,0.012,-0.326
1138,0.004,-0.326
1139,-0.004,-0.326
1140,-0.012,-0.339
1141,-0.021,-0.339
1142,-0.028,-0.339
1143,-0.035,-0.339
1144,-0.041,-0.350
1145,-0.047,-0.350
1146,-0.051,-0.350
1147,-0.056,-0.350
1148,-0.058,-0.361
1149,-0.060,-0.361
1150,-0.062,-0.361
1151,-0.063,-0.361
1152,-0.064,-0.371
1153,-0.065,-0.371
1154,-0.066,-0.371
1155,-0.066,-0.371
1156,-0.067,-0.381
1157,-0.067,-0.381
1158,-0.067,-0.381
1159,-0.067,-0.381
1160,-0.067,-0.390
1161,-0.067,-0.390
1162,-0.067,-0.390
1163,-0.067,-0.390
1164,-0.065,-0.400
1165,-0.063,-0.400
1166,-0.057,-0.400
1167,-0.051,-0.400
1168,-0.039,-0.409
1169,-0.028,-0.409
1170,-0.011,-0.409
1171,0.005,-0.409
1172,0.028,-0.417
1173,0.051,-0.417
1174,0.079,-0.417
1175,0.106,-0.417
1176,0.137,-0.424
1177,0.168,-0.424
1178,0.200,-0.424
1179,0.233,-0.424
1180,0.270,-0.431
1181,0.307,-0.431
1182,0.348,-0.431
1183,0.390,-0.431
1184,0.430,-0.432
1185,0.469,-0.432
1186,0.493,-0.432
1187,0.517,-0.432
1188,0.514,-0.439
1189,0.511,-0.439
1190,0.480,-0.439
1191,0.449,-0.439
1192,0.401,-0.446
1193,0.353,-0.446
1194,0.305,-0.446
1195,0.257,-0.446
1196,0.222,-0.452
1197,0.187,-0.452
1198,0.170,-0.452
1199,0.152,-0.452
1200,0.149,-0.455
1201,0.146,-0.455
1202,0.150,-0.455
1203,0.154,-0.455
1204,0.159,-0.462
1205,0.163,-0.462
1206,0.159,-0.462
1207,0.155,-0.462
1208,0.140,-0.467
1209,0.125,-0.467
1210,0.101,-0.467
1211,0.077,-0.467
1212,0.052,-0.471
1213,0.027,-0.471
1214,0.009,-0.471
1215,-0.010,-0.471
1216,-0.018,-0.476
1217,-0.026,-0.476
1218,-0.026,-0.476
1219,-0.027,-0.476
1220,-0.026,-0.480
1221,-0.025,-0.480
1222,-0.026,-0.480
1223,-0.027,-0.480
1224,-0.033,-0.484
1225,-0.038,-0.484
1226,-0.047,-0.484
1227,-0.056,-0.484
1228,-0.064,-0.486
1229,-0.073,-0.486
1230,-0.080,-0.486
1231,-0.087,-0.486
1232,-0.091,-0.491
1233,-0.096,-0.491
1234,-0.098,-0.491
1235,-0.100,-0.491
1236,-0.099,-0.494
1237,-0.098,-0.494
1238,-0.096,-0.494
1239,-0.095,-0.494
1240,-0.094,-0.497
1241,-0.093,-0.497
1242,-0.091,-0.497
1243,-0.088,-0.497
1244,-0.085,-0.500
1245,-0.082,-0.500
1246,-0.079,-0.500
1247,-0.076,-0.500
1248,-0.073,-0.501
1249,-0.070,-0.501
1250,-0.068,-0.501
1251,-0.067,-0.501
1252,-0.066,-0.503
1253,-0.065,-0.503
1254,-0.065,-0.503
1255,-0.064,-0.503
1256,-0.063,-0.505
1257,-0.062,-0.505
1258,-0.061,-0.505
1259,-0.059,-0.505
1260,-0.058,-0.506
1261,-0.057,-0.506
1262,-0.056,-0.506
1263,-0.056,-0.506
1264,-0.056,-0.507
1265,-0.057,-0.507
1266,-0.056,-0.507
1267,-0.056,-0.507
1268,-0.054,-0.507
1269,-0.053,-0.507
1270,-0.050,-0.507
1271,-0.048,-0.507
1272,-0.045,-0.508
1273,-0.042,-0.508
1274,-0.039,-0.508
1275,-0.035,-0.508
1276,-0.032,-0.507
1277,-0.029,-0.507
1278,-0.025,-0.507
1279,-0.022,-0.507
1280,-0.020,-0.506
1281,-0.018,-0.506
1282,-0.018,-0.506
1283,-0.017,-0.506
1284,-0.017,-0.505
1285,-0.017,-0.505
1286,-0.015,-0.505
1287,-0.013,-0.505
1288,-0.010,-0.502
1289,-0.007,-0.502
1290,-0.005,-0.502
1291,-0.003,-0.502
1292,-0.002,-0.498
1293,-0.001,-0.498
1294,-0.000,-0.498
1295,0.000,-0.498
1296,0.000,-0.493
1297,0.001,-0.493
1298,0.002,-0.493
1299,0.004,-0.493
1300,0.005,-0.484
1301,0.007,-0.484
1302,0.009,-0.484
1303,0.011,-0.484
1304,0.011,-0.470
1305,0.011,-0.470
1306,0.012,-0.470
1307,0.013,-0.470
1308,0.014,-0.450
1309,0.014,-0.450
1310,0.014,-0.450
1311,0.013,-0.450
1312,0.013,-0.424
1313,0.012,-0.424
1314,0.011,-0.424
1315,0.010,-0.424
1316,0.008,-0.392
1317,0.006,-0.392
1318,0.004,-0.392
1319,0.003,-0.392
1320,0.003,-0.351
1321,0.003,-0.351
1322,0.003,-0.351
1323,0.004,-0.351
1324,0.005,-0.301
1325,0.006,-0.301
1326,0.007,-0.301
1327,0.008,-0.301
1328,0.007,-0.248
1329,0.006,-0.248
1330,0.005,-0.248
1331,0.004,-0.248
1332,0.003,-0.187
1333,0.002,-0.187
1334,0.001,-0.187
1335,0.000,-0.187
1336,-0.000,-0.124
1337,-0.001,-0.124
1338,-0.000,-0.124
1339,0.000,-0.124
1340,-0.000,-0.060
1341,-0.001,-0.060
1342,-0.002,-0.060
1343,-0.004,-0.060
1344,-0.006,0.004
1345,-0.008,0.004
1346,-0.009,0.004
1347,-0.010,0.004
1348,-0.009,0.068
1349,-0.008,0.068
1350,-0.006,0.068
1351,-0.005,0.068
1352,-0.002,0.128
1353,0.000,0.128
1354,0.002,0.128
1355,0.005,0.128
1356,0.007,0.184
1357,0.010,0.184
1358,0.011,0.184
1359,0.011,0.184
1360,0.012,0.236
1361,0.013,0.236
1362,0.014,0.236
1363,0.015,0.236
1364,0.016,0.282
1365,0.016,0.282
1366,0.017,0.282
1367,0.018,0.282
1368,0.017,0.328
1369,0.016,0.328
1370,0.015,0.328
1371,0.013,0.328
1372,0.012,0.366
1373,0.011,0.366
1374,0.010,0.366
1375,0.009,0.366
1376,0.008,0.403
1377,0.008,0.403
1378,0.006,0.403
1379,0.004,0.403
1380,0.002,0.434
1381,0.001,0.434
1382,-0.001,0.434
1383,-0.003,0.434
1384,-0.005,0.464
1385,-0.007,0.464
1386,-0.008,0.464
1387,-0.009,0.464
1388,-0.010,0.487
1389,-0.011,0.487
1390,-0.014,0.487
1391,-0.017,0.487
1392,-0.021,0.507
1393,-0.025,0.507
1394,-0.029,0.507
1395,-0.034,0.507
1396,-0.037,0.522
1397,-0.040,0.522
1398,-0.043,0.522
1399,-0.046,0.522
1400,-0.046,0.533
1401,-0.047,0.533
1402,-0.046,0.533
1403,-0.045,0.533
1404,-0.043,0.540
1405,-0.041,0.540
1406,-0.040,0.540
1407,-0.038,0.540
1408,-0.036,0.542
1409,-0.034,0.542
1410,-0.033,0.542
1411,-0.031,0.542
1412,-0.028,0.540
1413,-0.026,0.540
1414,-0.023,0.540
1415,-0.019,0.540
1416,-0.018,0.533
1417,-0.016,0.533
1418,-0.016,0.533
1419,-0.015,0.533
1420,-0.017,0.524
1421,-0.018,0.524
1422,-0.020,0.524
1423,-0.021,0.524
1424,-0.021,0.510
1425,-0.020,0.510
1426,-0.017,0.510
1427,-0.014,0.510
1428,-0.012,0.495
1429,-0.010,0.495
1430,-0.008,0.495
1431,-0.007,0.495
1432,-0.006,0.475
1433,-0.005,0.475
1434,-0.006,0.475
1435,-0.007,0.475
1436,-0.007,0.452
1437,-0.008,0.452
1438,-0.007,0.452
1439,-0.007,0.452
1440,-0.005,0.428
1441,-0.003,0.428
1442,-0.002,0.428
1443,-0.001,0.428
1444,0.000,0.399
1445,0.001,0.399
1446,0.002,0.399
1447,0.003,0.399
1448,0.003,0.367
1449,0.003,0.367
1450,0.003,0.367
1451,0.003,0.367
1452,0.003,0.333
1453,0.004,0.333
1454,0.005,0.333
1455,0.006,0.333
1456,0.007,0.296
1457,0.009,0.296
1458,0.009,0.296
1459,0.009,0.296
1460,0.009,0.259
1461,0.009,0.259
1462,0.009,0.259
1463,0.009,0.259
1464,0.009,0.218
1465,0.009,0.218
1466,0.009,0.218
1467,0.010,0.218
1468,0.011,0.178
1469,0.011,0.178
1470,0.012,0.178
1471,0.013,0.178
1472,0.014,0.138
1473,0.014,0.138
1474,0.014,0.138
1475,0.013,0.138
1476,0.013,0.098
1477,0.012,0.098
1478,0.011,0.098
1479,0.010,0.098
1480,0.008,0.059
1481,0.006,0.059
1482,0.004,0.059
1483,0.003,0.059
1484,0.003,0.022
1485,0.003,0.022
1486,0.003,0.022
1487,0.004,0.022
1488,0.005,-0.013
1489,0.006,-0.013
1490,0.007,-0.013
1491,0.008,-0.013
1492,0.007,-0.045
1493,0.007,-0.045
1494,0.007,-0.045
1495,0.008,-0.045
1496,0.010,-0.077
1497,0.011,-0.077
1498,0.016,-0.077
1499,0.021,-0.077
1500,0.030,-0.105
1501,0.039,-0.105
1502,0.051,-0.105
1503,0.063,-0.105
1504,0.075,-0.131
1505,0.086,-0.131
1506,0.097,-0.131
1507,0.108,-0.131
1508,0.117,-0.155
1509,0.125,-0.155
1510,0.130,-0.155
1511,0.134,-0.155
1512,0.136,-0.177
1513,0.138,-0.177
1514,0.139,-0.177
1515,0.140,-0.177
1516,0.141,-0.199
1517,0.142,-0.199
1518,0.143,-0.199
1519,0.144,-0.199
1520,0.145,-0.216
1521,0.147,-0.216
1522,0.147,-0.216
1523,0.147,-0.216
1524,0.144,-0.234
1525,0.141,-0.234
1526,0.136,-0.234
1527,0.131,-0.234
1528,0.125,-0.250
1529,0.119,-0.250
1530,0.112,-0.250
1531,0.105,-0.250
1532,0.099,-0.264
1533,0.093,-0.264
1534,0.088,-0.264
1535,0.082,-0.264
1536,0.075,-0.278
1537,0.068,-0.278
1538,0.060,-0.278
1539,0.052,-0.278
1540,0.043,-0.290
1541,0.034,-0.290
1542,0.025,-0.290
1543,0.016,-0.290
1544,0.008,-0.301
1545,0.000,-0.301
1546,-0.007,-0.301
1547,-0.014,-0.301
1548,-0.021,-0.312
1549,-0.028,-0.312
1550,-0.034,-0.312
1551,-0.041,-0.312
1552,-0.046,-0.323
1553,-0.052,-0.323
1554,-0.056,-0.323
1555,-0.060,-0.323
1556,-0.062,-0.332
1557,-0.064,-0.332
1558,-0.064,-0.332
1559,-0.064,-0.332
1560,-0.064,-0.342
1561,-0.063,-0.342
1562,-0.063,-0.342
1563,-0.063,-0.342
1564,-0.064,-0.350
1565,-0.064,-0.350
1566,-0.066,-0.350
1567,-0.067,-0.350
1568,-0.068,-0.358
1569,-0.070,-0.358
1570,-0.069,-0.358
1571,-0.069,-0.358
1572,-0.065,-0.366
1573,-0.060,-0.366
1574,-0.051,-0.366
1575,-0.041,-0.366
1576,-0.023,-0.373
1577,-0.006,-0.373
1578,0.019,-0.373
1579,0.043,-0.373
1580,0.072,-0.380
1581,0.101,-0.380
1582,0.133,-0.380
1583,0.165,-0.380
1584,0.199,-0.387
1585,0.234,-0.387
1586,0.273,-0.387
1587,0.312,-0.387
1588,0.359,-0.392
1589,0.405,-0.392
1590,0.453,-0.392
1591,0.500,-0.392
1592,0.535,-0.398
1593,0.571,-0.398
1594,0.580,-0.398
1595,0.590,-0.398
1596,0.568,-0.403
1597,0.545,-0.403
1598,0.498,-0.403
1599,0.450,-0.403
1600,0.395,-0.407
1601,0.340,-0.407
1602,0.293,-0.407
1603,0.246,-0.407
1604,0.216,-0.413
1605,0.187,-0.413
1606,0.175,-0.413
1607,0.163,-0.413
1608,0.164,-0.417
1609,0.165,-0.417
1610,0.168,-0.417
1611,0.171,-0.417
1612,0.167,-0.421
1613,0.162,-0.421
1614,0.144,-0.421
1615,0.125,-0.421
1616,0.097,-0.424
1617,0.068,-0.424
1618,0.038,-0.424
1619,0.008,-0.424
1620,-0.015,-0.426
1621,-0.038,-0.426
1622,-0.049,-0.426
1623,-0.059,-0.426
1624,-0.060,-0.431
1625,-0.060,-0.431
1626,-0.057,-0.431
1627,-0.053,-0.431
1628,-0.050,-0.433
1629,-0.047,-0.433
1630,-0.049,-0.433
1631,-0.051,-0.433
1632,-0.057,-0.435
1633,-0.062,-0.435
1634,-0.069,-0.435
1635,-0.076,-0.435
1636,-0.081,-0.439
1637,-0.086,-0.439
1638,-0.089,-0.439
1639,-0.092,-0.439
1640,-0.092,-0.441
1641,-0.092,-0.441
1642,-0.091,-0.441
1643,-0.089,-0.441
1644,-0.086,-0.442
1645,-0.083,-0.442
1646,-0.080,-0.442
1647,-0.077,-0.442
1648,-0.075,-0.443
1649,-0.073,-0.443
1650,-0.071,-0.443
1651,-0.070,-0.443
1652,-0.070,-0.444
1653,-0.070,-0.444
1654,-0.070,-0.444
1655,-0.070,-0.444
1656,-0.069,-0.445
1657,-0.069,-0.445
1658,-0.068,-0.445
1659,-0.067,-0.445
1660,-0.066,-0.445
1661,-0.065,-0.445
1662,-0.064,-0.445
1663,-0.063,-0.445
1664,-0.061,-0.444
1665,-0.058,-0.444
1666,-0.056,-0.444
1667,-0.053,-0.444
1668,-0.050,-0.443
1669,-0.047,-0.443
1670,-0.045,-0.443
1671,-0.042,-0.443
1672,-0.040,-0.441
1673,-0.038,-0.441
1674,-0.037,-0.441
1675,-0.036,-0.441
1676,-0.034,-0.440
1677,-0.032,-0.440
1678,-0.029,-0.440
1679,-0.027,-0.440
1680,-0.024,-0.436
1681,-0.022,-0.436
1682,-0.021,-0.436
1683,-0.019,-0.436
1684,-0.019,-0.434
1685,-0.018,-0.434
1686,-0.017,-0.434
1687,-0.016,-0.434
1688,-0.015,-0.430
1689,-0.014,-0.430
1690,-0.011,-0.430
1691,-0.009,-0.430
1692,-0.006,-0.426
1693,-0.004,-0.426
1694,-0.001,-0.426
1695,0.002,-0.426
1696,0.005,-0.426
1697,0.008,-0.426
1698,0.010,-0.426
1699,0.012,-0.426
1700,0.015,-0.418
1701,0.018,-0.418
1702,0.021,-0.418
1703,0.023,-0.418
1704,0.025,-0.410
1705,0.028,-0.410
1706,0.030,-0.410
1707,0.032,-0.410
1708,0.032,-0.398
1709,0.032,-0.398
1710,0.032,-0.398
1711,0.032,-0.398
1712,0.033,-0.380
1713,0.034,-0.380
1714,0.034,-0.380
1715,0.035,-0.380
1716,0.037,-0.355
1717,0.038,-0.355
1718,0.039,-0.355
1719,0.039,-0.355
1720,0.040,-0.326
1721,0.041,-0.326
1722,0.042,-0.326
1723,0.042,-0.326
1724,0.043,-0.287
1725,0.043,-0.287
1726,0.045,-0.287
1727,0.046,-0.287
1728,0.047,-0.242
1729,0.048,-0.242
1730,0.049,-0.242
1731,0.050,-0.242
1732,0.049,-0.192
1733,0.048,-0.192
1734,0.045,-0.192
1735,0.043,-0.192
1736,0.039,-0.135
1737,0.035,-0.135
1738,0.032,-0.135
1739,0.029,-0.135
1740,0.026,-0.074
1741,0.024,-0.074
1742,0.022,-0.074
1743,0.020,-0.074
1744,0.018,-0.009
1745,0.016,-0.009
1746,0.014,-0.009
1747,0.012,-0.009
1748,0.011,0.052
1749,0.011,0.052
1750,0.010,0.052
1751,0.009,0.052
1752,0.008,0.117
1753,0.008,0.117
1754,0.007,0.117
1755,0.006,0.117
1756,0.006,0.174
1757,0.007,0.174
1758,0.007,0.174
1759,0.007,0.174
1760,0.007,0.231
1761,0.007,0.231
1762,0.007,0.231
1763,0.008,0.231
1764,0.009,0.282
1765,0.011,0.282
1766,0.012,0.282
1767,0.013,0.282
1768,0.014,0.330
1769,0.014,0.330
1770,0.013,0.330
1771,0.012,0.330
1772,0.011,0.374
1773,0.010,0.374
1774,0.008,0.374
1775,0.006,0.374
1776,0.004,0.414
1777,0.002,0.414
1778,0.000,0.414
1779,-0.001,0.414
1780,-0.003,0.454
1781,-0.005,0.454
1782,-0.006,0.454
1783,-0.008,0.454
1784,-0.009,0.488
1785,-0.011,0.488
1786,-0.011,0.488
1787,-0.012,0.488
1788,-0.015,0.518
1789,-0.018,0.518
1790,-0.021,0.518
1791,-0.023,0.518
1792,-0.026,0.546
1793,-0.030,0.546
1794,-0.033,0.546
1795,-0.035,0.546
1796,-0.037,0.571
1797,-0.039,0.571
1798,-0.039,0.571
1799,-0.039,0.571
1800,-0.039,0.591
1801,-0.038,0.591
1802,-0.038,0.591
1803,-0.037,0.591
1804,-0.036,0.606
1805,-0.035,0.606
1806,-0.035,0.606
1807,-0.034,0.606
1808,-0.033,0.617
1809,-0.032,0.617
1810,-0.030,0.617
1811,-0.028,0.617
1812,-0.026,0.625
1813,-0.024,0.625
1814,-0.022,0.625
1815,-0.020,0.625
1816,-0.019,0.628
1817,-0.017,0.628
1818,-0.016,0.628
1819,-0.014,0.628
1820,-0.014,0.627
1821,-0.013,0.627
1822,-0.014,0.627
1823,-0.014,0.627
1824,-0.014,0.623
1825,-0.014,0.623
1826,-0.014,0.623
1827,-0.013,0.623
1828,-0.012,0.617
1829,-0.011,0.617
1830,-0.011,0.617
1831,-0.011,0.617
1832,-0.013,0.607
1833,-0.014,0.607
1834,-0.016,0.607
1835,-0.018,0.607
1836,-0.020,0.592
1837,-0.021,0.592
1838,-0.021,0.592
1839,-0.021,0.592
1840,-0.019,0.575
1841,-0.017,0.575
1842,-0.015,0.575
1843,-0.013,0.575
1844,-0.011,0.556
1845,-0.010,0.556
1846,-0.009,0.556
1847,-0.008,0.556
1848,-0.007,0.531
1849,-0.007,0.531
1850,-0.007,0.531
1851,-0.008,0.531
1852,-0.009,0.503
1853,-0.010,0.503
1854,-0.008,0.503
1855,-0.007,0.503
1856,-0.005,0.472
1857,-0.003,0.472
1858,-0.002,0.472
1859,-0.001,0.472
1860,-0.000,0.440
1861,0.000,0.440
1862,0.000,0.440
1863,0.001,0.440
1864,0.002,0.405
1865,0.003,0.405
1866,0.003,0.405
1867,0.003,0.405
1868,0.003,0.366
1869,0.003,0.366
1870,0.003,0.366
1871,0.003,0.366
1872,0.003,0.328
1873,0.004,0.328
1874,0.004,0.328
1875,0.005,0.328
1876,0.005,0.289
1877,0.006,0.289
1878,0.006,0.289
1879,0.006,0.289
1880,0.006,0.249
1881,0.007,0.249
1882,0.006,0.249
1883,0.006,0.249
1884,0.005,0.211
1885,0.004,0.211
1886,0.003,0.211
1887,0.003,0.211
1888,0.003,0.174
1889,0.004,0.174
1890,0.005,0.174
1891,0.006,0.174
1892,0.007,0.139
1893,0.008,0.139
1894,0.007,0.139
1895,0.007,0.139
1896,0.007,0.104
1897,0.007,0.104
1898,0.007,0.104
1899,0.007,0.104
1900,0.007,0.073
1901,0.008,0.073
1902,0.009,0.073
1903,0.010,0.073
1904,0.011,0.043
1905,0.011,0.043
1906,0.013,0.043
1907,0.014,0.043
1908,0.017,0.015
1909,0.020,0.015
1910,0.026,0.015
1911,0.032,0.015
1912,0.040,-0.011
1913,0.049,-0.011
1914,0.059,-0.011
1915,0.070,-0.011
1916,0.081,-0.036
1917,0.092,-0.036
1918,0.101,-0.036
1919,0.110,-0.036
1920,0.116,-0.059
1921,0.122,-0.059
1922,0.124,-0.059
1923,0.126,-0.059
1924,0.127,-0.081
1925,0.127,-0.081
1926,0.129,-0.081
1927,0.130,-0.081
1928,0.132,-0.101
1929,0.134,-0.101
1930,0.137,-0.101
1931,0.140,-0.101
1932,0.142,-0.121
1933,0.144,-0.121
1934,0.143,-0.121
1935,0.142,-0.121
1936,0.138,-0.139
1937,0.134,-0.139
1938,0.128,-0.139
1939,0.123,-0.139
1940,0.115,-0.158
1941,0.107,-0.158
1942,0.098,-0.158
1943,0.089,-0.158
1944,0.080,-0.173
1945,0.072,-0.173
1946,0.064,-0.173
1947,0.057,-0.173
1948,0.049,-0.191
1949,0.042,-0.191
1950,0.034,-0.191
1951,0.027,-0.191
1952,0.018,-0.234
1953,0.010,-0.234
1954,-0.001,-0.234
1955,-0.011,-0.234
1956,-0.022,-0.249
1957,-0.033,-0.249
1958,-0.040,-0.249
1959,-0.048,-0.249
1960,-0.054,-0.263
1961,-0.059,-0.263
1962,-0.063,-0.263
1963,-0.067,-0.263
1964,-0.069,-0.277
1965,-0.072,-0.277
1966,-0.073,-0.277
1967,-0.074,-0.277
1968,-0.074,-0.291
1969,-0.075,-0.291
1970,-0.074,-0.291
1971,-0.074,-0.291
1972,-0.073,-0.303
1973,-0.073,-0.303
1974,-0.072,-0.303
1975,-0.071,-0.303
1976,-0.070,-0.316
1977,-0.070,-0.316
1978,-0.070,-0.316
1979,-0.070,-0.316
1980,-0.069,-0.327
1981,-0.068,-0.327
1982,-0.065,-0.327
1983,-0.061,-0.327
1984,-0.055,-0.339
1985,-0.049,-0.339
1986,-0.036,-0.339
1987,-0.023,-0.339
1988,-0.003,-0.349
1989,0.017,-0.349
1990,0.045,-0.349
1991,0.074,-0.349
1992,0.108,-0.361
1993,0.142,-0.361
1994,0.181,-0.361
1995,0.220,-0.361
1996,0.267,-0.370
1997,0.314,-0.370
1998,0.370,-0.370
1999,0.425,-0.370
2000,0.484,-0.381
2001,0.543,-0.381
2002,0.591,-0.381
2003,0.638,-0.381
2004,0.656,-0.391
2005,0.674,-0.391
2006,0.656,-0.391
2007,0.637,-0.391
2008,0.589,-0.400
2009,0.541,-0.400
2010,0.478,-0.400
2011,0.415,-0.400
2012,0.355,-0.407
2013,0.296,-0.407
2014,0.253,-0.407
2015,0.210,-0.407
2016,0.185,-0.416
2017,0.161,-0.416
2018,0.150,-0.416
2019,0.140,-0.416
2020,0.134,-0.423
2021,0.127,-0.423
2022,0.113,-0.423
2023,0.098,-0.423
2024,0.070,-0.431
2025,0.042,-0.431
2026,0.006,-0.431
2027,-0.030,-0.431
2028,-0.063,-0.438
2029,-0.097,-0.438
2030,-0.118,-0.438
2031,-0.139,-0.438
2032,-0.143,-0.445
2033,-0.148,-0.445
2034,-0.140,-0.445
2035,-0.132,-0.445
2036,-0.123,-0.452
2037,-0.113,-0.452
2038,-0.107,-0.452
2039,-0.102,-0.452
2040,-0.102,-0.457
2041,-0.102,-0.457
2042,-0.106,-0.457
2043,-0.109,-0.457
2044,-0.114,-0.463
2045,-0.118,-0.463
2046,-0.120,-0.463
2047,-0.123,-0.463
2048,-0.123,-0.469
2049,-0.124,-0.469
2050,-0.123,-0.469
2051,-0.122,-0.469
2052,-0.120,-0.474
2053,-0.119,-0.474
2054,-0.117,-0.474
2055,-0.115,-0.474
2056,-0.111,-0.478
2057,-0.107,-0.478
2058,-0.103,-0.478
2059,-0.100,-0.478
2060,-0.096,-0.483
2061,-0.093,-0.483
2062,-0.090,-0.483
2063,-0.087,-0.483
2064,-0.085,-0.486
2065,-0.083,-0.486
2066,-0.082,-0.486
2067,-0.081,-0.486
2068,-0.080,-0.491
2069,-0.080,-0.491
2070,-0.079,-0.491
2071,-0.078,-0.491
2072,-0.077,-0.493
2073,-0.076,-0.493
2074,-0.073,-0.493
2075,-0.070,-0.493
2076,-0.068,-0.496
2077,-0.065,-0.496
2078,-0.062,-0.496
2079,-0.059,-0.496
2080,-0.057,-0.499
2081,-0.054,-0.499
2082,-0.051,-0.499
2083,-0.049,-0.499
2084,-0.046,-0.500
2085,-0.044,-0.500
2086,-0.044,-0.500
2087,-0.043,-0.500
2088,-0.044,-0.502
2089,-0.045,-0.502
2090,-0.046,-0.502
2091,-0.047,-0.502
2092,-0.048,-0.504
2093,-0.049,-0.504
2094,-0.048,-0.504
2095,-0.048,-0.504
2096,-0.045,-0.507
2097,-0.043,-0.507
2098,-0.040,-0.507
2099,-0.036,-0.507
2100,-0.034,-0.507
2101,-0.031,-0.507
2102,-0.027,-0.507
2103,-0.024,-0.507
2104,-0.020,-0.508
2105,-0.016,-0.508
2106,-0.012,-0.508
2107,-0.009,-0.508
2108,-0.005,-0.507
2109,-0.002,-0.507
2110,0.001,-0.507
2111,0.004,-0.507
2112,0.006,-0.502
2113,0.008,-0.502
2114,0.010,-0.502
2115,0.011,-0.502
2116,0.013,-0.497
2117,0.014,-0.497
2118,0.016,-0.497
2119,0.017,-0.497
2120,0.018,-0.486
2121,0.019,-0.486
2122,0.020,-0.486
2123,0.020,-0.486
2124,0.022,-0.470
2125,0.023,-0.470
2126,0.025,-0.470
2127,0.027,-0.470
2128,0.028,-0.448
2129,0.029,-0.448
2130,0.028,-0.448
2131,0.027,-0.448
2132,0.025,-0.419
2133,0.024,-0.419
2134,0.022,-0.419
2135,0.020,-0.419
2136,0.019,-0.383
2137,0.018,-0.383
2138,0.018,-0.383
2139,0.018,-0.383
2140,0.018,-0.339
2141,0.018,-0.339
2142,0.018,-0.339
2143,0.017,-0.339
2144,0.017,-0.291
2145,0.016,-0.291
2146,0.015,-0.291
2147,0.013,-0.291
2148,0.012,-0.235
2149,0.011,-0.235
2150,0.010,-0.235
2151,0.009,-0.235
2152,0.008,-0.178
2153,0.007,-0.178
2154,0.004,-0.178
2155,0.002,-0.178
2156,0.000,-0.120
2157,-0.002,-0.120
2158,-0.005,-0.120
2159,-0.008,-0.120
2160,-0.010,-0.061
2161,-0.011,-0.061
2162,-0.012,-0.061
2163,-0.012,-0.061
2164,-0.013,-0.005
2165,-0.013,-0.005
2166,-0.014,-0.005
2167,-0.015,-0.005
2168,-0.016,0.048
2169,-0.017,0.048
2170,-0.018,0.048
2171,-0.018,0.048
2172,-0.018,0.098
2173,-0.018,0.098
2174,-0.017,0.098
2175,-0.016,0.098
2176,-0.014,0.143
2177,-0.012,0.143
2178,-0.011,0.143
2179,-0.009,0.143
2180,-0.008,0.185
2181,-0.008,0.185
2182,-0.007,0.185
2183,-0.007,0.185
2184,-0.007,0.224
2185,-0.008,0.224
2186,-0.010,0.224
2187,-0.011,0.224
2188,-0.013,0.257
2189,-0.014,0.257
2190,-0.015,0.257
2191,-0.015,0.257
2192,-0.017,0.287
2193,-0.019,0.287
2194,-0.022,0.287
2195,-0.025,0.287
2196,-0.028,0.314
2197,-0.032,0.314
2198,-0.035,0.314
2199,-0.039,0.314
2200,-0.043,0.336
2201,-0.047,0.336
2202,-0.048,0.336
2203,-0.050,0.336
2204,-0.050,0.356
2205,-0.050,0.356
2206,-0.050,0.356
2207,-0.050,0.356
2208,-0.051,0.371
2209,-0.052,0.371
2210,-0.053,0.371
2211,-0.054,0.371
2212,-0.055,0.384
2213,-0.057,0.384
2214,-0.057,0.384
2215,-0.057,0.384
2216,-0.056,0.392
2217,-0.056,0.392
2218,-0.054,0.392
2219,-0.053,0.392
2220,-0.051,0.397
2221,-0.050,0.397
2222,-0.049,0.397
2223,-0.049,0.397
2224,-0.049,0.398
2225,-0.049,0.398
2226,-0.050,0.398
2227,-0.051,0.398
2228,-0.052,0.395
2229,-0.053,0.395
2230,-0.053,0.395
2231,-0.054,0.395
2232,-0.055,0.389
2233,-0.056,0.389
2234,-0.054,0.389
2235,-0.053,0.389
2236,-0.051,0.380
2237,-0.049,0.380
2238,-0.047,0.380
2239,-0.046,0.380
2240,-0.045,0.368
2241,-0.045,0.368
2242,-0.044,0.368
2243,-0.042,0.368
2244,-0.042,0.351
2245,-0.041,0.351
2246,-0.040,0.351
2247,-0.038,0.351
2248,-0.036,0.334
2249,-0.034,0.334
2250,-0.033,0.334
2251,-0.031,0.334
2252,-0.030,0.312
2253,-0.030,0.312
2254,-0.030,0.312
2255,-0.031,0.312
2256,-0.032,0.286
2257,-0.034,0.286
2258,-0.034,0.286
2259,-0.034,0.286
2260,-0.035,0.260
2261,-0.035,0.260
2262,-0.035,0.260
2263,-0.034,0.260
2264,-0.034,0.230
2265,-0.033,0.230
2266,-0.032,0.230
2267,-0.031,0.230
2268,-0.029,0.198
2269,-0.028,0.198
2270,-0.026,0.198
2271,-0.024,0.198
2272,-0.023,0.163
2273,-0.021,0.163
2274,-0.021,0.163
2275,-0.021,0.163
2276,-0.021,0.127
2277,-0.021,0.127
2278,-0.021,0.127
2279,-0.021,0.127
2280,-0.022,0.089
2281,-0.022,0.089
2282,-0.023,0.089
2283,-0.023,0.089
2284,-0.023,0.051
2285,-0.023,0.051
2286,-0.022,0.051
2287,-0.020,0.051
2288,-0.019,0.012
2289,-0.017,0.012
2290,-0.016,0.012
2291,-0.014,0.012
2292,-0.014,-0.026
2293,-0.013,-0.026
2294,-0.014,-0.026
2295,-0.014,-0.026
2296,-0.014,-0.062
2297,-0.014,-0.062
2298,-0.014,-0.062
2299,-0.014,-0.062
2300,-0.014,-0.099
2301,-0.013,-0.099
2302,-0.012,-0.099
2303,-0.011,-0.099
2304,-0.011,-0.133
2305,-0.011,-0.133
2306,-0.011,-0.133
2307,-0.011,-0.133
2308,-0.011,-0.166
2309,-0.011,-0.166
2310,-0.011,-0.166
2311,-0.011,-0.166
2312,-0.011,-0.196
2313,-0.011,-0.196
2314,-0.011,-0.196
2315,-0.011,-0.196
2316,-0.010,-0.224
2317,-0.010,-0.224
2318,-0.007,-0.224
2319,-0.005,-0.224
2320,0.000,-0.250
2321,0.006,-0.250
2322,0.014,-0.250
2323,0.023,-0.250
2324,0.034,-0.274
2325,0.045,-0.274
2326,0.057,-0.274
2327,0.069,-0.274
2328,0.080,-0.296
2329,0.090,-0.296
2330,0.097,-0.296
2331,0.104,-0.296
2332,0.107,-0.318
2333,0.110,-0.318
2334,0.111,-0.318
2335,0.112,-0.318
2336,0.113,-0.336
2337,0.113,-0.336
2338,0.114,-0.336
2339,0.115,-0.336
2340,0.115,-0.354
2341,0.116,-0.354
2342,0.115,-0.354
2343,0.115,-0.354
2344,0.113,-0.370
2345,0.111,-0.370
2346,0.109,-0.370
2347,0.107,-0.370
2348,0.106,-0.387
2349,0.104,-0.387
2350,0.102,-0.387
2351,0.099,-0.387
2352,0.094,-0.401
2353,0.089,-0.401
2354,0.083,-0.401
2355,0.078,-0.401
2356,0.070,-0.412
2357,0.062,-0.412
2358,0.053,-0.412
2359,0.044,-0.412
2360,0.034,-0.425
2361,0.024,-0.425
2362,0.015,-0.425
2363,0.007,-0.425
2364,-0.001,-0.437
2365,-0.009,-0.437
2366,-0.016,-0.437
2367,-0.024,-0.437
2368,-0.031,-0.449
2369,-0.038,-0.449
2370,-0.045,-0.449
2371,-0.051,-0.449
2372,-0.055,-0.461
2373,-0.058,-0.461
2374,-0.061,-0.461
2375,-0.064,-0.461
2376,-0.066,-0.471
2377,-0.067,-0.471
2378,-0.068,-0.471
2379,-0.068,-0.471
2380,-0.069,-0.481
2381,-0.070,-0.481
2382,-0.071,-0.481
2383,-0.072,-0.481
2384,-0.073,-0.492
2385,-0.074,-0.492
2386,-0.076,-0.492
2387,-0.079,-0.492
2388,-0.080,-0.502
2389,-0.080,-0.502
2390,-0.080,-0.502
2391,-0.080,-0.502
2392,-0.077,-0.512
2393,-0.073,-0.512
2394,-0.064,-0.512
2395,-0.055,-0.512
2396,-0.039,-0.521
2397,-0.023,-0.521
2398,-0.001,-0.521
2399,0.021,-0.521
2400,0.048,-0.530
2401,0.076,-0.530
2402,0.105,-0.530
2403,0.135,-0.530
2404,0.167,-0.538
2405,0.198,-0.538
2406,0.234,-0.538
2407,0.270,-0.538
2408,0.313,-0.546
2409,0.356,-0.546
2410,0.402,-0.546
2411,0.448,-0.546
2412,0.486,-0.553
2413,0.523,-0.553
2414,0.537,-0.553
2415,0.552,-0.553
2416,0.534,-0.559
2417,0.517,-0.559
2418,0.474,-0.559
2419,0.430,-0.559
2420,0.375,-0.565
2421,0.320,-0.565
2422,0.271,-0.565
2423,0.222,-0.565
2424,0.192,-0.570
2425,0.161,-0.570
2426,0.149,-0.570
2427,0.138,-0.570
2428,0.141,-0.577
2429,0.144,-0.577
2430,0.151,-0.577
2431,0.159,-0.577
2432,0.162,-0.580
2433,0.165,-0.580
2434,0.155,-0.580
2435,0.146,-0.580
2436,0.124,-0.585
2437,0.102,-0.585
2438,0.073,-0.585
2439,0.045,-0.585
2440,0.019,-0.587
2441,-0.008,-0.587
2442,-0.024,-0.587
2443,-0.040,-0.587
2444,-0.045,-0.591
2445,-0.051,-0.591
2446,-0.050,-0.591
2447,-0.049,-0.591
2448,-0.046,-0.593
2449,-0.043,-0.593
2450,-0.044,-0.593
2451,-0.044,-0.593
2452,-0.050,-0.596
2453,-0.056,-0.596
2454,-0.065,-0.596
2455,-0.074,-0.596
2456,-0.082,-0.598
2457,-0.091,-0.598
2458,-0.097,-0.598
2459,-0.103,-0.598
2460,-0.108,-0.600
2461,-0.112,-0.600
2462,-0.114,-0.600
2463,-0.116,-0.600
2464,-0.116,-0.606
2465,-0.117,-0.606
2466,-0.115,-0.606
2467,-0.114,-0.606
2468,-0.112,-0.606
2469,-0.109,-0.606
2470,-0.106,-0.606
2471,-0.103,-0.606
2472,-0.101,-0.609
2473,-0.098,-0.609
2474,-0.095,-0.609
2475,-0.093,-0.609
2476,-0.091,-0.609
2477,-0.088,-0.609
2478,-0.085,-0.609
2479,-0.082,-0.609
2480,-0.080,-0.611
2481,-0.077,-0.611
2482,-0.075,-0.611
2483,-0.074,-0.611
2484,-0.073,-0.612
2485,-0.072,-0.612
2486,-0.071,-0.612
2487,-0.070,-0.612
2488,-0.068,-0.611
2489,-0.066,-0.611
2490,-0.064,-0.611
2491,-0.062,-0.611
2492,-0.060,-0.611
2493,-0.058,-0.611
2494,-0.056,-0.611
2495,-0.053,-0.611
2496,-0.050,-0.610
2497,-0.047,-0.610
2498,-0.045,-0.610
2499,-0.042,-0.610
2500,-0.040,-0.608
2501,-0.038,-0.608
2502,-0.039,-0.608
2503,-0.039,-0.608
2504,-0.041,-0.605
2505,-0.042,-0.605
2506,-0.044,-0.605
2507,-0.046,-0.605
2508,-0.046,-0.603
2509,-0.046,-0.603
2510,-0.045,-0.603
2511,-0.045,-0.603
2512,-0.043,-0.600
2513,-0.041,-0.600
2514,-0.040,-0.600
2515,-0.038,-0.600
2516,-0.036,-0.595
2517,-0.034,-0.595
2518,-0.030,-0.595
2519,-0.027,-0.595
2520,-0.023,-0.591
2521,-0.019,-0.591
2522,-0.014,-0.591
2523,-0.010,-0.591
2524,-0.006,-0.582
2525,-0.003,-0.582
2526,-0.001,-0.582
2527,0.000,-0.582
2528,-0.000,-0.572
2529,-0.001,-0.572
2530,-0.003,-0.572
2531,-0.005,-0.572
2532,-0.007,-0.556
2533,-0.010,-0.556
2534,-0.011,-0.556
2535,-0.012,-0.556
2536,-0.013,-0.536
2537,-0.014,-0.536
2538,-0.014,-0.536
2539,-0.014,-0.536
2540,-0.014,-0.510
2541,-0.013,-0.510
2542,-0.012,-0.510
2543,-0.011,-0.510
2544,-0.009,-0.474
2545,-0.008,-0.474
2546,-0.007,-0.474
2547,-0.007,-0.474
2548,-0.007,-0.433
2549,-0.007,-0.433
2550,-0.007,-0.433
2551,-0.008,-0.433
2552,-0.008,-0.385
2553,-0.008,-0.385
2554,-0.007,-0.385
2555,-0.007,-0.385
2556,-0.007,-0.329
2557,-0.007,-0.329
2558,-0.008,-0.329
2559,-0.009,-0.329
2560,-0.010,-0.269
2561,-0.011,-0.269
2562,-0.011,-0.269
2563,-0.012,-0.269
2564,-0.015,-0.205
2565,-0.018,-0.205
2566,-0.020,-0.205
2567,-0.022,-0.205
2568,-0.023,-0.141
2569,-0.025,-0.141
2570,-0.025,-0.141
2571,-0.026,-0.141
2572,-0.025,-0.075
2573,-0.025,-0.075
2574,-0.025,-0.075
2575,-0.025,-0.075
2576,-0.025,-0.013
2577,-0.025,-0.013
2578,-0.024,-0.013
2579,-0.024,-0.013
2580,-0.022,0.047
2581,-0.020,0.047
2582,-0.017,0.047
2583,-0.013,0.047
2584,-0.009,0.102
2585,-0.005,0.102
2586,-0.001,0.102
2587,0.003,0.102
2588,0.006,0.155
2589,0.010,0.155
2590,0.011,0.155
2591,0.013,0.155
2592,0.014,0.202
2593,0.014,0.202
2594,0.013,0.202
2595,0.011,0.202
2596,0.009,0.245
2597,0.006,0.245
2598,0.001,0.245
2599,-0.003,0.245
2600,-0.007,0.283
2601,-0.011,0.283
2602,-0.016,0.283
2603,-0.020,0.283
2604,-0.023,0.318
2605,-0.026,0.318
2606,-0.027,0.318
2607,-0.029,0.318
2608,-0.029,0.349
2609,-0.029,0.349
2610,-0.029,0.349
2611,-0.029,0.349
2612,-0.029,0.374
2613,-0.030,0.374
2614,-0.031,0.374
2615,-0.033,0.374
2616,-0.034,0.398
2617,-0.036,0.398
2618,-0.038,0.398
2619,-0.039,0.398
2620,-0.041,0.415
2621,-0.043,0.415
2622,-0.045,0.415
2623,-0.046,0.415
2624,-0.046,0.430
2625,-0.046,0.430
2626,-0.046,0.430
2627,-0.047,0.430
2628,-0.048,0.440
2629,-0.049,0.440
2630,-0.049,0.440
2631,-0.050,0.440
2632,-0.049,0.447
2633,-0.049,0.447
2634,-0.046,0.447
2635,-0.044,0.447
2636,-0.041,0.450
2637,-0.037,0.450
2638,-0.034,0.450
2639,-0.032,0.450
2640,-0.030,0.449
2641,-0.028,0.449
2642,-0.026,0.449
2643,-0.025,0.449
2644,-0.024,0.446
2645,-0.024,0.446
2646,-0.024,0.446
2647,-0.025,0.446
2648,-0.024,0.439
2649,-0.024,0.439
2650,-0.023,0.439
2651,-0.022,0.439
2652,-0.021,0.427
2653,-0.020,0.427
2654,-0.019,0.427
2655,-0.018,0.427
2656,-0.017,0.412
2657,-0.016,0.412
2658,-0.016,0.412
2659,-0.015,0.412
2660,-0.014,0.397
2661,-0.013,0.397
2662,-0.012,0.397
2663,-0.011,0.397
2664,-0.011,0.373
2665,-0.011,0.373
2666,-0.011,0.373
2667,-0.011,0.373
2668,-0.010,0.350
2669,-0.010,0.350
2670,-0.008,0.350
2671,-0.007,0.350
2672,-0.005,0.323
2673,-0.003,0.323
2674,-0.001,0.323
2675,0.000,0.323
2676,0.001,0.291
2677,0.003,0.291
2678,0.003,0.291
2679,0.003,0.291
2680,0.000,0.258
2681,-0.002,0.258
2682,-0.005,0.258
2683,-0.008,0.258
2684,-0.010,0.222
2685,-0.011,0.222
2686,-0.011,0.222
2687,-0.011,0.222
2688,-0.009,0.185
2689,-0.007,0.185
2690,-0.005,0.185
2691,-0.003,0.185
2692,-0.002,0.147
2693,-0.001,0.147
2694,-0.001,0.147
2695,-0.001,0.147
2696,-0.002,0.107
2697,-0.004,0.107
2698,-0.006,0.107
2699,-0.008,0.107
2700,-0.009,0.070
2701,-0.011,0.070
2702,-0.010,0.070
2703,-0.010,0.070
2704,-0.008,0.034
2705,-0.006,0.034
2706,-0.003,0.034
2707,0.000,0.034
2708,0.001,-0.002
2709,0.003,-0.002
2710,0.003,-0.002
2711,0.004,-0.002
2712,0.003,-0.038
2713,0.002,-0.038
2714,0.001,-0.038
2715,0.000,-0.038
2716,-0.001,-0.069
2717,-0.002,-0.069
2718,-0.002,-0.069
2719,-0.002,-0.069
2720,-0.001,-0.099
2721,0.000,-0.099
2722,0.002,-0.099
2723,0.004,-0.099
2724,0.007,-0.128
2725,0.011,-0.128
2726,0.017,-0.128
2727,0.023,-0.128
2728,0.032,-0.153
2729,0.040,-0.153
2730,0.051,-0.153
2731,0.062,-0.153
2732,0.072,-0.178
2733,0.082,-0.178
2734,0.091,-0.178
2735,0.099,-0.178
2736,0.103,-0.199
2737,0.108,-0.199
2738,0.111,-0.199
2739,0.113,-0.199
2740,0.115,-0.221
2741,0.117,-0.221
2742,0.120,-0.221
2743,0.124,-0.221
2744,0.127,-0.240
2745,0.131,-0.240
2746,0.135,-0.240
2747,0.139,-0.240
2748,0.143,-0.258
2749,0.147,-0.258
2750,0.148,-0.258
2751,0.149,-0.258
2752,0.148,-0.275
2753,0.146,-0.275
2754,0.142,-0.275
2755,0.138,-0.275
2756,0.132,-0.290
2757,0.125,-0.290
2758,0.118,-0.290
2759,0.110,-0.290
2760,0.102,-0.303
2761,0.094,-0.303
2762,0.087,-0.303
2763,0.080,-0.303
2764,0.073,-0.320
2765,0.065,-0.320
2766,0.057,-0.320
2767,0.050,-0.320
2768,0.041,-0.332
2769,0.033,-0.332
2770,0.024,-0.332
2771,0.015,-0.332
2772,0.006,-0.345
2773,-0.003,-0.345
2774,-0.011,-0.345
2775,-0.020,-0.345
2776,-0.028,-0.357
2777,-0.035,-0.357
2778,-0.041,-0.357
2779,-0.047,-0.357
2780,-0.051,-0.368
2781,-0.055,-0.368
2782,-0.056,-0.368
2783,-0.057,-0.368
2784,-0.059,-0.379
2785,-0.060,-0.379
2786,-0.062,-0.379
2787,-0.064,-0.379
2788,-0.067,-0.391
2789,-0.069,-0.391
2790,-0.071,-0.391
2791,-0.074,-0.391
2792,-0.074,-0.400
2793,-0.075,-0.400
2794,-0.074,-0.400
2795,-0.074,-0.400
2796,-0.073,-0.409
2797,-0.073,-0.409
2798,-0.071,-0.409
2799,-0.069,-0.409
2800,-0.065,-0.418
2801,-0.060,-0.418
2802,-0.052,-0.418
2803,-0.044,-0.418
2804,-0.031,-0.426
2805,-0.017,-0.426
2806,0.004,-0.426
2807,0.025,-0.426
2808,0.052,-0.433
2809,0.080,-0.433
2810,0.112,-0.433
2811,0.144,-0.433
2812,0.178,-0.442
2813,0.213,-0.442
2814,0.250,-0.442
2815,0.288,-0.442
2816,0.331,-0.448
2817,0.374,-0.448
2818,0.416,-0.448
2819,0.459,-0.448
2820,0.490,-0.454
2821,0.522,-0.454
2822,0.530,-0.454
2823,0.537,-0.454
2824,0.516,-0.460
2825,0.494,-0.460
2826,0.450,-0.460
2827,0.406,-0.460
2828,0.354,-0.465
2829,0.302,-0.465
2830,0.257,-0.465
2831,0.213,-0.465
2832,0.185,-0.470
2833,0.158,-0.470
2834,0.148,-0.470
2835,0.139,-0.470
2836,0.143,-0.476
2837,0.148,-0.476
2838,0.156,-0.476
2839,0.165,-0.476
2840,0.168,-0.479
2841,0.171,-0.479
2842,0.163,-0.479
2843,0.154,-0.479
2844,0.133,-0.483
2845,0.112,-0.483
2846,0.084,-0.483
2847,0.057,-0.483
2848,0.032,-0.488
2849,0.007,-0.488
2850,-0.008,-0.488
2851,-0.022,-0.488
2852,-0.026,-0.491
2853,-0.031,-0.491
2854,-0.030,-0.491
2855,-0.029,-0.491
2856,-0.028,-0.495
2857,-0.027,-0.495
2858,-0.031,-0.495
2859,-0.035,-0.495
2860,-0.044,-0.497
2861,-0.052,-0.497
2862,-0.062,-0.497
2863,-0.072,-0.497
2864,-0.081,-0.501
2865,-0.090,-0.501
2866,-0.096,-0.501
2867,-0.102,-0.501
2868,-0.104,-0.503
2869,-0.106,-0.503
2870,-0.108,-0.503
2871,-0.109,-0.503
2872,-0.108,-0.507
2873,-0.107,-0.507
2874,-0.104,-0.507
2875,-0.102,-0.507
2876,-0.097,-0.509
2877,-0.093,-0.509
2878,-0.089,-0.509
2879,-0.085,-0.509
2880,-0.081,-0.511
2881,-0.077,-0.511
2882,-0.073,-0.511
2883,-0.069,-0.511
2884,-0.068,-0.515
2885,-0.066,-0.515
2886,-0.067,-0.515
2887,-0.067,-0.515
2888,-0.068,-0.516
2889,-0.070,-0.516
2890,-0.071,-0.516
2891,-0.072,-0.516
2892,-0.072,-0.516
2893,-0.072,-0.516
2894,-0.071,-0.516
2895,-0.070,-0.516
2896,-0.068,-0.518
2897,-0.065,-0.518
2898,-0.062,-0.518
2899,-0.058,-0.518
2900,-0.055,-0.518
2901,-0.052,-0.518
2902,-0.050,-0.518
2903,-0.048,-0.518
2904,-0.047,-0.519
2905,-0.047,-0.519
2906,-0.047,-0.519
2907,-0.048,-0.519
2908,-0.047,-0.518
2909,-0.046,-0.518
2910,-0.044,-0.518
2911,-0.042,-0.518
2912,-0.040,-0.518
2913,-0.037,-0.518
2914,-0.036,-0.518
2915,-0.035,-0.518
2916,-0.035,-0.517
2917,-0.035,-0.517
2918,-0.035,-0.517
2919,-0.034,-0.517
2920,-0.033,-0.516
2921,-0.032,-0.516
2922,-0.029,-0.516
2923,-0.027,-0.516
2924,-0.023,-0.514
2925,-0.020,-0.514
2926,-0.017,-0.514
2927,-0.013,-0.514
2928,-0.011,-0.511
2929,-0.010,-0.511
2930,-0.009,-0.511
2931,-0.008,-0.511
2932,-0.007,-0.504
2933,-0.006,-0.504
2934,-0.004,-0.504
2935,-0.002,-0.504
2936,0.000,-0.496
2937,0.003,-0.496
2938,0.005,-0.496
2939,0.008,-0.496
2940,0.009,-0.480
2941,0.011,-0.480
2942,0.011,-0.480
2943,0.011,-0.480
2944,0.010,-0.463
2945,0.010,-0.463
2946,0.009,-0.463
2947,0.008,-0.463
2948,0.006,-0.435
2949,0.005,-0.435
2950,0.004,-0.435
2951,0.004,-0.435
2952,0.003,-0.402
2953,0.003,-0.402
2954,0.003,-0.402
2955,0.003,-0.402
2956,0.003,-0.361
2957,0.003,-0.361
2958,0.003,-0.361
2959,0.003,-0.361
2960,0.003,-0.313
2961,0.004,-0.313
2962,0.005,-0.313
2963,0.006,-0.313
2964,0.006,-0.258
2965,0.007,-0.258
2966,0.005,-0.258
2967,0.003,-0.258
2968,0.001,-0.198
2969,-0.001,-0.198
2970,-0.003,-0.198
2971,-0.006,-0.198
2972,-0.008,-0.135
2973,-0.010,-0.135
2974,-0.011,-0.135
2975,-0.012,-0.135
2976,-0.013,-0.053
2977,-0.014,-0.053
2978,-0.014,-0.053
2979,-0.014,-0.053
2980,-0.014,0.009
2981,-0.014,0.009
2982,-0.014,0.009
2983,-0.013,0.009
2984,-0.012,0.069
2985,-0.011,0.069
2986,-0.009,0.069
2987,-0.007,0.069
2988,-0.005,0.130
2989,-0.003,0.130
2990,-0.001,0.130
2991,0.000,0.130
2992,0.002,0.183
2993,0.004,0.183
2994,0.005,0.183
2995,0.007,0.183
2996,0.008,0.234
2997,0.009,0.234
2998,0.009,0.234
2999,0.010,0.234
3000,0.010,0.281
3001,0.011,0.281
3002,0.011,0.281
3003,0.011,0.281
3004,0.010,0.323
3005,0.010,0.323
3006,0.009,0.323
3007,0.008,0.323
3008,0.006,0.360
3009,0.005,0.360
3010,0.004,0.360
3011,0.003,0.360
3012,0.000,0.395
3013,-0.003,0.395
3014,-0.007,0.395
3015,-0.011,0.395
3016,-0.014,0.424
3017,-0.017,0.424
3018,-0.020,0.424
3019,-0.022,0.424
3020,-0.023,0.451
3021,-0.025,0.451
3022,-0.025,0.451
3023,-0.026,0.451
3024,-0.025,0.473
3025,-0.024,0.473
3026,-0.023,0.473
3027,-0.022,0.473
3028,-0.022,0.491
3029,-0.021,0.491
3030,-0.022,0.491
3031,-0.022,0.491
3032,-0.024,0.503
3033,-0.026,0.503
3034,-0.029,0.503
3035,-0.033,0.503
3036,-0.034,0.514
3037,-0.034,0.514
3038,-0.034,0.514
3039,-0.033,0.514
3040,-0.032,0.520
3041,-0.031,0.520
3042,-0.029,0.520
3043,-0.028,0.520
3044,-0.026,0.521
3045,-0.025,0.521
3046,-0.024,0.521
3047,-0.024,0.521
3048,-0.024,0.520
3049,-0.025,0.520
3050,-0.025,0.520
3051,-0.025,0.520
3052,-0.025,0.514
3053,-0.025,0.514
3054,-0.024,0.514
3055,-0.024,0.514
3056,-0.023,0.506
3057,-0.021,0.506
3058,-0.019,0.506
3059,-0.016,0.506
3060,-0.013,0.493
3061,-0.011,0.493
3062,-0.009,0.493
3063,-0.007,0.493
3064,-0.007,0.477
3065,-0.008,0.477
3066,-0.010,0.477
3067,-0.012,0.477
3068,-0.015,0.458
3069,-0.018,0.458
3070,-0.020,0.458
3071,-0.021,0.458
3072,-0.021,0.435
3073,-0.020,0.435
3074,-0.017,0.435
3075,-0.014,0.435
3076,-0.011,0.408
3077,-0.009,0.408
3078,-0.007,0.408
3079,-0.005,0.408
3080,-0.004,0.381
3081,-0.004,0.381
3082,-0.006,0.381
3083,-0.008,0.381
3084,-0.009,0.347
3085,-0.011,0.347
3086,-0.010,0.347
3087,-0.010,0.347
3088,-0.009,0.313
3089,-0.008,0.313
3090,-0.007,0.313
3091,-0.006,0.313
3092,-0.004,0.277
3093,-0.003,0.277
3094,-0.001,0.277
3095,0.000,0.277
3096,0.001,0.238
3097,0.003,0.238
3098,0.003,0.238
3099,0.004,0.238
3100,0.003,0.199
3101,0.003,0.199
3102,0.002,0.199
3103,0.002,0.199
3104,0.001,0.159
3105,0.001,0.159
3106,0.001,0.159
3107,0.001,0.159
3108,0.001,0.120
3109,0.001,0.120
3110,0.001,0.120
3111,0.002,0.120
3112,0.003,0.082
3113,0.004,0.082
3114,0.005,0.082
3115,0.006,0.082
3116,0.007,0.044
3117,0.008,0.044
3118,0.007,0.044
3119,0.007,0.044
3120,0.007,0.009
3121,0.007,0.009
3122,0.007,0.009
3123,0.007,0.009
3124,0.007,-0.025
3125,0.007,-0.025
3126,0.007,-0.025
3127,0.008,-0.025
3128,0.009,-0.056
3129,0.011,-0.056
3130,0.013,-0.056
3131,0.015,-0.056
3132,0.019,-0.084
3133,0.023,-0.084
3134,0.030,-0.084
3135,0.036,-0.084
3136,0.046,-0.111
3137,0.057,-0.111
3138,0.067,-0.111
3139,0.078,-0.111
3140,0.089,-0.137
3141,0.100,-0.137
3142,0.108,-0.137
3143,0.116,-0.137
3144,0.120,-0.160
3145,0.125,-0.160
3146,0.125,-0.160
3147,0.126,-0.160
3148,0.126,-0.181
3149,0.126,-0.181
3150,0.128,-0.181
3151,0.130,-0.181
3152,0.134,-0.201
3153,0.137,-0.201
3154,0.139,-0.201
3155,0.142,-0.201
3156,0.142,-0.220
3157,0.143,-0.220
3158,0.141,-0.220
3159,0.139,-0.220
3160,0.135,-0.237
3161,0.131,-0.237
3162,0.127,-0.237
3163,0.124,-0.237
3164,0.119,-0.256
3165,0.115,-0.256
3166,0.109,-0.256
3167,0.103,-0.256
3168,0.097,-0.270
3169,0.091,-0.270
3170,0.084,-0.270
3171,0.078,-0.270
3172,0.070,-0.285
3173,0.062,-0.285
3174,0.053,-0.285
3175,0.044,-0.285
3176,0.034,-0.299
3177,0.023,-0.299
3178,0.012,-0.299
3179,0.002,-0.299
3180,-0.008,-0.313
3181,-0.018,-0.313
3182,-0.026,-0.313
3183,-0.034,-0.313
3184,-0.040,-0.324
3185,-0.046,-0.324
3186,-0.050,-0.324
3187,-0.054,-0.324
3188,-0.056,-0.336
3189,-0.057,-0.336
3190,-0.058,-0.336
3191,-0.059,-0.336
3192,-0.060,-0.348
3193,-0.061,-0.348
3194,-0.062,-0.348
3195,-0.063,-0.348
3196,-0.063,-0.359
3197,-0.063,-0.359
3198,-0.064,-0.359
3199,-0.064,-0.359
3200,-0.065,-0.371
3201,-0.065,-0.371
3202,-0.065,-0.371
3203,-0.064,-0.371
3204,-0.063,-0.383
3205,-0.062,-0.383
3206,-0.059,-0.383
3207,-0.057,-0.383
3208,-0.049,-0.395
3209,-0.041,-0.395
3210,-0.027,-0.395
3211,-0.012,-0.395
3212,0.009,-0.406
3213,0.031,-0.406
3214,0.059,-0.406
3215,0.088,-0.406
3216,0.121,-0.415
3217,0.154,-0.415
3218,0.188,-0.415
3219,0.222,-0.415
3220,0.257,-0.426
3221,0.291,-0.426
3222,0.330,-0.426
3223,0.368,-0.426
3224,0.407,-0.433
3225,0.446,-0.433
3226,0.478,-0.433
3227,0.511,-0.433
3228,0.522,-0.441
3229,0.533,-0.441
3230,0.515,-0.441
3231,0.497,-0.441
3232,0.455,-0.445
3233,0.412,-0.445
3234,0.360,-0.445
3235,0.308,-0.445
3236,0.264,-0.451
3237,0.219,-0.451
3238,0.191,-0.451
3239,0.163,-0.451
3240,0.151,-0.455
3241,0.140,-0.455
3242,0.142,-0.455
3243,0.145,-0.455
3244,0.153,-0.458
3245,0.161,-0.458
3246,0.165,-0.458
3247,0.169,-0.458
3248,0.160,-0.461
3249,0.151,-0.461
3250,0.130,-0.461
3251,0.108,-0.461
3252,0.081,-0.465
3253,0.054,-0.465
3254,0.030,-0.465
3255,0.006,-0.465
3256,-0.008,-0.468
3257,-0.021,-0.468
3258,-0.026,-0.468
3259,-0.031,-0.468
3260,-0.030,-0.472
3261,-0.029,-0.472
3262,-0.027,-0.472
3263,-0.026,-0.472
3264,-0.028,-0.474
3265,-0.030,-0.474
3266,-0.036,-0.474
3267,-0.042,-0.474
3268,-0.052,-0.477
3269,-0.061,-0.477
3270,-0.070,-0.477
3271,-0.080,-0.477
3272,-0.087,-0.481
3273,-0.095,-0.481
3274,-0.100,-0.481
3275,-0.105,-0.481
3276,-0.106,-0.485
3277,-0.107,-0.485
3278,-0.105,-0.485
3279,-0.103,-0.485
3280,-0.100,-0.488
3281,-0.097,-0.488
3282,-0.094,-0.488
3283,-0.091,-0.488
3284,-0.089,-0.491
3285,-0.086,-0.491
3286,-0.084,-0.491
3287,-0.082,-0.491
3288,-0.080,-0.494
3289,-0.077,-0.494
3290,-0.073,-0.494
3291,-0.070,-0.494
3292,-0.068,-0.496
3293,-0.065,-0.496
3294,-0.064,-0.496
3295,-0.063,-0.496
3296,-0.063,-0.499
3297,-0.062,-0.499
3298,-0.061,-0.499
3299,-0.060,-0.499
3300,-0.060,-0.500
3301,-0.059,-0.500
3302,-0.060,-0.500
3303,-0.060,-0.500
3304,-0.060,-0.503
3305,-0.060,-0.503
3306,-0.060,-0.503
3307,-0.059,-0.503
3308,-0.058,-0.503
3309,-0.057,-0.503
3310,-0.054,-0.503
3311,-0.052,-0.503
3312,-0.051,-0.505
3313,-0.050,-0.505
3314,-0.049,-0.505
3315,-0.049,-0.505
3316,-0.048,-0.504
3317,-0.048,-0.504
3318,-0.047,-0.504
3319,-0.047,-0.504
3320,-0.045,-0.503
3321,-0.044,-0.503
3322,-0.042,-0.503
3323,-0.039,-0.503
3324,-0.038,-0.502
3325,-0.037,-0.502
3326,-0.036,-0.502
3327,-0.034,-0.502
3328,-0.033,-0.502
3329,-0.031,-0.502
3330,-0.028,-0.502
3331,-0.025,-0.502
3332,-0.022,-0.498
3333,-0.019,-0.498
3334,-0.017,-0.498
3335,-0.014,-0.498
3336,-0.012,-0.494
3337,-0.010,-0.494
3338,-0.008,-0.494
3339,-0.006,-0.494
3340,-0.003,-0.485
3341,-0.001,-0.485
3342,0.000,-0.485
3343,0.001,-0.485
3344,0.002,-0.473
3345,0.004,-0.473
3346,0.005,-0.473
3347,0.007,-0.473
3348,0.009,-0.456
3349,0.011,-0.456
3350,0.011,-0.456
3351,0.011,-0.456
3352,0.010,-0.433
3353,0.010,-0.433
3354,0.008,-0.433
3355,0.007,-0.433
3356,0.005,-0.402
3357,0.003,-0.402
3358,0.003,-0.402
3359,0.003,-0.402
3360,0.003,-0.365
3361,0.003,-0.365
3362,0.003,-0.365
3363,0.003,-0.365
3364,0.003,-0.318
3365,0.003,-0.318
3366,0.003,-0.318
3367,0.003,-0.318
3368,0.002,-0.266
3369,0.002,-0.266
3370,0.000,-0.266
3371,-0.001,-0.266
3372,-0.003,-0.207
3373,-0.005,-0.207
3374,-0.006,-0.207
3375,-0.008,-0.207
3376,-0.009,-0.146
3377,-0.010,-0.146
3378,-0.009,-0.146
3379,-0.009,-0.146
3380,-0.010,-0.081
3381,-0.011,-0.081
3382,-0.012,-0.081
3383,-0.013,-0.081
3384,-0.014,-0.018
3385,-0.015,-0.018
3386,-0.014,-0.018
3387,-0.013,-0.018
3388,-0.011,0.046
3389,-0.010,0.046
3390,-0.009,0.046
3391,-0.008,0.046
3392,-0.007,0.105
3393,-0.006,0.105
3394,-0.004,0.105
3395,-0.002,0.105
3396,0.000,0.162
3397,0.003,0.162
3398,0.005,0.162
3399,0.008,0.162
3400,0.009,0.215
3401,0.011,0.215
3402,0.011,0.215
3403,0.011,0.215
3404,0.011,0.264
3405,0.011,0.264
3406,0.010,0.264
3407,0.010,0.264
3408,0.009,0.307
3409,0.009,0.307
3410,0.009,0.307
3411,0.009,0.307
3412,0.008,0.347
3413,0.008,0.347
3414,0.006,0.347
3415,0.005,0.347
3416,0.004,0.382
3417,0.004,0.382
3418,0.003,0.382
3419,0.002,0.382
3420,0.000,0.413
3421,-0.001,0.413
3422,-0.003,0.413
3423,-0.005,0.413
3424,-0.006,0.443
3425,-0.008,0.443
3426,-0.010,0.443
3427,-0.011,0.443
3428,-0.013,0.466
3429,-0.015,0.466
3430,-0.017,0.466
3431,-0.018,0.466
3432,-0.020,0.484
3433,-0.022,0.484
3434,-0.023,0.484
3435,-0.025,0.484
3436,-0.025,0.500
3437,-0.025,0.500
3438,-0.023,0.500
3439,-0.021,0.500
3440,-0.019,0.510
3441,-0.017,0.510
3442,-0.016,0.510
3443,-0.014,0.510
3444,-0.013,0.519
3445,-0.012,0.519
3446,-0.012,0.519
3447,-0.012,0.519
3448,-0.013,0.521
3449,-0.013,0.521
3450,-0.014,0.521
3451,-0.014,0.521
3452,-0.013,0.521
3453,-0.012,0.521
3454,-0.010,0.521
3455,-0.007,0.521
3456,-0.003,0.519
3457,0.000,0.519
3458,0.001,0.519
3459,0.003,0.519
3460,0.003,0.511
3461,0.004,0.511
3462,0.003,0.511
3463,0.003,0.511
3464,0.002,0.502
3465,0.002,0.502
3466,0.000,0.502
3467,-0.001,0.502
3468,-0.003,0.487
3469,-0.005,0.487
3470,-0.007,0.487
3471,-0.009,0.487
3472,-0.011,0.469
3473,-0.013,0.469
3474,-0.014,0.469
3475,-0.015,0.469
3476,-0.014,0.450
3477,-0.013,0.450
3478,-0.011,0.450
3479,-0.009,0.450
3480,-0.006,0.425
3481,-0.004,0.425
3482,-0.001,0.425
3483,0.001,0.425
3484,0.002,0.399
3485,0.004,0.399
3486,0.003,0.399
3487,0.003,0.399
3488,0.002,0.366
3489,0.002,0.366
3490,0.000,0.366
3491,-0.001,0.366
3492,-0.003,0.334
3493,-0.005,0.334
3494,-0.006,0.334
3495,-0.007,0.334
3496,-0.007,0.298
3497,-0.007,0.298
3498,-0.005,0.298
3499,-0.004,0.298
3500,-0.002,0.262
3501,0.000,0.262
3502,0.001,0.262
3503,0.003,0.262
3504,0.004,0.222
3505,0.005,0.222
3506,0.005,0.222
3507,0.006,0.222
3508,0.005,0.181
3509,0.005,0.181
3510,0.005,0.181
3511,0.005,0.181
3512,0.004,0.143
3513,0.004,0.143
3514,0.003,0.143
3515,0.002,0.143
3516,0.001,0.103
3517,0.000,0.103
3518,-0.000,0.103
3519,-0.001,0.103
3520,-0.000,0.065
3521,0.000,0.065
3522,0.000,0.065
3523,0.000,0.065
3524,0.000,0.028
3525,0.000,0.028
3526,0.000,0.028
3527,0.001,0.028
3528,0.002,-0.009
3529,0.004,-0.009
3530,0.005,-0.009
3531,0.007,-0.009
3532,0.009,-0.043
3533,0.011,-0.043
3534,0.011,-0.043
3535,0.011,-0.043
3536,0.011,-0.074
3537,0.011,-0.074
3538,0.014,-0.074
3539,0.017,-0.074
3540,0.024,-0.103
3541,0.031,-0.103
3542,0.041,-0.103
3543,0.051,-0.103
3544,0.063,-0.131
3545,0.075,-0.131
3546,0.086,-0.131
3547,0.098,-0.131
3548,0.107,-0.156
3549,0.116,-0.156
3550,0.122,-0.156
3551,0.127,-0.156
3552,0.131,-0.179
3553,0.135,-0.179
3554,0.138,-0.179
3555,0.141,-0.179
3556,0.142,-0.199
3557,0.144,-0.199
3558,0.144,-0.199
3559,0.145,-0.199
3560,0.147,-0.220
3561,0.148,-0.220
3562,0.151,-0.220
3563,0.153,-0.220
3564,0.153,-0.238
3565,0.153,-0.238
3566,0.150,-0.238
3567,0.148,-0.238
3568,0.141,-0.256
3569,0.135,-0.256
3570,0.126,-0.256
3571,0.118,-0.256
3572,0.110,-0.273
3573,0.102,-0.273
3574,0.096,-0.273
3575,0.089,-0.273
3576,0.082,-0.288
3577,0.075,-0.288
3578,0.066,-0.288
3579,0.057,-0.288
3580,0.046,-0.303
3581,0.035,-0.303
3582,0.025,-0.303
3583,0.015,-0.303
3584,0.006,-0.317
3585,-0.004,-0.317
3586,-0.012,-0.317
3587,-0.021,-0.317
3588,-0.028,-0.332
3589,-0.034,-0.332
3590,-0.039,-0.332
3591,-0.044,-0.332
3592,-0.047,-0.343
3593,-0.051,-0.343
3594,-0.054,-0.343
3595,-0.057,-0.343
3596,-0.059,-0.354
3597,-0.060,-0.354
3598,-0.060,-0.354
3599,-0.060,-0.354
3600,-0.061,-0.367
3601,-0.061,-0.367
3602,-0.063,-0.367
3603,-0.064,-0.367
3604,-0.065,-0.377
3605,-0.066,-0.377
3606,-0.067,-0.377
3607,-0.068,-0.377
3608,-0.068,-0.387
3609,-0.069,-0.387
3610,-0.068,-0.387
3611,-0.066,-0.387
3612,-0.061,-0.395
3613,-0.057,-0.395
3614,-0.048,-0.395
3615,-0.040,-0.395
3616,-0.026,-0.404
3617,-0.012,-0.404
3618,0.008,-0.404
3619,0.029,-0.404
3620,0.055,-0.413
3621,0.080,-0.413
3622,0.110,-0.413
3623,0.139,-0.413
3624,0.171,-0.419
3625,0.204,-0.419
3626,0.239,-0.419
3627,0.274,-0.419
3628,0.314,-0.426
3629,0.354,-0.426
3630,0.397,-0.426
3631,0.439,-0.426
3632,0.471,-0.434
3633,0.503,-0.434
3634,0.513,-0.434
3635,0.523,-0.434
3636,0.505,-0.440
3637,0.487,-0.440
3638,0.444,-0.440
3639,0.402,-0.440
3640,0.352,-0.446
3641,0.302,-0.446
3642,0.260,-0.446
3643,0.217,-0.446
3644,0.192,-0.453
3645,0.167,-0.453
3646,0.158,-0.453
3647,0.149,-0.453
3648,0.153,-0.458
3649,0.157,-0.458
3650,0.165,-0.458
3651,0.173,-0.458
3652,0.176,-0.463
3653,0.179,-0.463
3654,0.170,-0.463
3655,0.160,-0.463
3656,0.138,-0.467
3657,0.117,-0.467
3658,0.090,-0.467
3659,0.062,-0.467
3660,0.038,-0.472
3661,0.013,-0.472
3662,-0.002,-0.472
3663,-0.018,-0.472
3664,-0.023,-0.476
3665,-0.029,-0.476
3666,-0.029,-0.476
3667,-0.029,-0.476
3668,-0.030,-0.481
3669,-0.031,-0.481
3670,-0.034,-0.481
3671,-0.038,-0.481
3672,-0.045,-0.485
3673,-0.053,-0.485
3674,-0.061,-0.485
3675,-0.070,-0.485
3676,-0.078,-0.488
3677,-0.086,-0.488
3678,-0.090,-0.488
3679,-0.094,-0.488
3680,-0.096,-0.492
3681,-0.098,-0.492
3682,-0.098,-0.492
3683,-0.099,-0.492
3684,-0.098,-0.494
3685,-0.098,-0.494
3686,-0.096,-0.494
3687,-0.095,-0.494
3688,-0.093,-0.496
3689,-0.091,-0.496
3690,-0.089,-0.496
3691,-0.087,-0.496
3692,-0.085,-0.500
3693,-0.082,-0.500
3694,-0.080,-0.500
3695,-0.078,-0.500
3696,-0.075,-0.501
3697,-0.073,-0.501
3698,-0.071,-0.501
3699,-0.070,-0.501
3700,-0.069,-0.502
3701,-0.069,-0.502
3702,-0.068,-0.502
3703,-0.068,-0.502
3704,-0.068,-0.505
3705,-0.068,-0.505
3706,-0.068,-0.505
3707,-0.067,-0.505
3708,-0.065,-0.507
3709,-0.063,-0.507
3710,-0.061,-0.507
3711,-0.059,-0.507
3712,-0.057,-0.507
3713,-0.056,-0.507
3714,-0.053,-0.507
3715,-0.051,-0.507
3716,-0.048,-0.509
3717,-0.046,-0.509
3718,-0.044,-0.509
3719,-0.041,-0.509
3720,-0.040,-0.509
3721,-0.038,-0.509
3722,-0.038,-0.509
3723,-0.037,-0.509
3724,-0.036,-0.507
3725,-0.034,-0.507
3726,-0.033,-0.507
3727,-0.032,-0.507
3728,-0.029,-0.506
3729,-0.027,-0.506
3730,-0.024,-0.506
3731,-0.021,-0.506
3732,-0.018,-0.504
3733,-0.015,-0.504
3734,-0.013,-0.504
3735,-0.011,-0.504
3736,-0.011,-0.503
3737,-0.010,-0.503
3738,-0.010,-0.503
3739,-0.011,-0.503
3740,-0.011,-0.500
3741,-0.011,-0.500
3742,-0.010,-0.500
3743,-0.010,-0.500
3744,-0.008,-0.481
3745,-0.007,-0.481
3746,-0.005,-0.481
3747,-0.003,-0.481
3748,-0.002,-0.471
3749,-0.001,-0.471
3750,-0.000,-0.471
3751,0.000,-0.471
3752,0.000,-0.456
3753,0.000,-0.456
3754,-0.000,-0.456
3755,-0.001,-0.456
3756,-0.002,-0.435
3757,-0.003,-0.435
3758,-0.003,-0.435
3759,-0.003,-0.435
3760,-0.001,-0.407
3761,0.001,-0.407
3762,0.004,-0.407
3763,0.007,-0.407
3764,0.009,-0.372
3765,0.011,-0.372
3766,0.012,-0.372
3767,0.013,-0.372
3768,0.013,-0.332
3769,0.013,-0.332
3770,0.011,-0.332
3771,0.010,-0.332
3772,0.008,-0.281
3773,0.006,-0.281
3774,0.004,-0.281
3775,0.002,-0.281
3776,0.000,-0.224
3777,-0.001,-0.224
3778,-0.003,-0.224
3779,-0.005,-0.224
3780,-0.006,-0.163
3781,-0.007,-0.163
3782,-0.008,-0.163
3783,-0.009,-0.163
3784,-0.010,-0.099
3785,-0.011,-0.099
3786,-0.011,-0.099
3787,-0.011,-0.099
3788,-0.013,-0.034
3789,-0.015,-0.034
3790,-0.016,-0.034
3791,-0.017,-0.034
3792,-0.017,0.031
3793,-0.017,0.031
3794,-0.015,0.031
3795,-0.013,0.031
3796,-0.010,0.093
3797,-0.007,0.093
3798,-0.005,0.093
3799,-0.003,0.093
3800,-0.001,0.151
3801,0.000,0.151
3802,0.002,0.151
3803,0.004,0.151
3804,0.006,0.208
3805,0.009,0.208
3806,0.011,0.208
3807,0.014,0.208
3808,0.016,0.260
3809,0.017,0.260
3810,0.018,0.260
3811,0.018,0.260
3812,0.017,0.307
3813,0.016,0.307
3814,0.015,0.307
3815,0.014,0.307
3816,0.013,0.349
3817,0.012,0.349
3818,0.011,0.349
3819,0.010,0.349
3820,0.008,0.389
3821,0.007,0.389
3822,0.006,0.389
3823,0.005,0.389
3824,0.004,0.421
3825,0.004,0.421
3826,0.003,0.421
3827,0.002,0.421
3828,0.000,0.453
3829,-0.002,0.453
3830,-0.005,0.453
3831,-0.008,0.453
3832,-0.011,0.479
3833,-0.013,0.479
3834,-0.016,0.479
3835,-0.018,0.479
3836,-0.020,0.499
3837,-0.022,0.499
3838,-0.023,0.499
3839,-0.025,0.499
3840,-0.026,0.517
3841,-0.027,0.517
3842,-0.027,0.517
3843,-0.028,0.517
3844,-0.028,0.532
3845,-0.029,0.532
3846,-0.029,0.532
3847,-0.030,0.532
3848,-0.031,0.541
3849,-0.032,0.541
3850,-0.032,0.541
3851,-0.032,0.541
3852,-0.030,0.546
3853,-0.029,0.546
3854,-0.028,0.546
3855,-0.027,0.546
3856,-0.026,0.549
3857,-0.026,0.549
3858,-0.024,0.549
3859,-0.023,0.549
3860,-0.022,0.546
3861,-0.021,0.546
3862,-0.020,0.546
3863,-0.018,0.546
3864,-0.017,0.540
3865,-0.016,0.540
3866,-0.016,0.540
3867,-0.015,0.540
3868,-0.015,0.531
3869,-0.014,0.531
3870,-0.014,0.531
3871,-0.013,0.531
3872,-0.014,0.519
3873,-0.014,0.519
3874,-0.014,0.519
3875,-0.014,0.519
3876,-0.014,0.501
3877,-0.014,0.501
3878,-0.014,0.501
3879,-0.014,0.501
3880,-0.014,0.480
3881,-0.014,0.480
3882,-0.014,0.480
3883,-0.014,0.480
3884,-0.014,0.459
3885,-0.013,0.459
3886,-0.012,0.459
3887,-0.011,0.459
3888,-0.008,0.432
3889,-0.006,0.432
3890,-0.003,0.432
3891,0.000,0.432
3892,0.001,0.403
3893,0.003,0.403
3894,0.003,0.403
3895,0.004,0.403
3896,0.003,0.369
3897,0.003,0.369
3898,0.002,0.369
3899,0.002,0.369
3900,0.001,0.334
3901,0.000,0.334
3902,-0.000,0.334
3903,-0.001,0.334
3904,0.000,0.295
3905,0.001,0.295
3906,0.002,0.295
3907,0.003,0.295
3908,0.003,0.257
3909,0.004,0.257
3910,0.005,0.257
3911,0.006,0.257
3912,0.007,0.214
3913,0.009,0.214
3914,0.009,0.214
3915,0.010,0.214
3916,0.010,0.173
3917,0.011,0.173
3918,0.011,0.173
3919,0.011,0.173
3920,0.010,0.133
3921,0.010,0.133
3922,0.009,0.133
3923,0.008,0.133
3924,0.007,0.092
3925,0.006,0.092
3926,0.006,0.092
3927,0.007,0.092
3928,0.007,0.054
3929,0.007,0.054
3930,0.006,0.054
3931,0.006,0.054
3932,0.005,0.017
3933,0.004,0.017
3934,0.003,0.017
3935,0.003,0.017
3936,0.003,-0.018
3937,0.003,-0.018
3938,0.003,-0.018
3939,0.003,-0.018
3940,0.003,-0.052
3941,0.004,-0.052
3942,0.006,-0.052
3943,0.008,-0.052
3944,0.012,-0.083
3945,0.017,-0.083
3946,0.025,-0.083
3947,0.033,-0.083
3948,0.043,-0.110
3949,0.054,-0.110
3950,0.067,-0.110
3951,0.080,-0.110
3952,0.092,-0.138
3953,0.104,-0.138
3954,0.113,-0.138
3955,0.122,-0.138
3956,0.125,-0.162
3957,0.127,-0.162
3958,0.128,-0.162
3959,0.128,-0.162
3960,0.128,-0.183
3961,0.127,-0.183
3962,0.128,-0.183
3963,0.129,-0.183
3964,0.132,-0.205
3965,0.134,-0.205
3966,0.136,-0.205
3967,0.139,-0.205
3968,0.139,-0.226
3969,0.140,-0.226
3970,0.137,-0.226
3971,0.135,-0.226
3972,0.131,-0.243
3973,0.127,-0.243
3974,0.122,-0.243
3975,0.117,-0.243
3976,0.111,-0.260
3977,0.105,-0.260
3978,0.099,-0.260
3979,0.093,-0.260
3980,0.086,-0.275
3981,0.079,-0.275
3982,0.070,-0.275
3983,0.061,-0.275
3984,0.054,-0.291
3985,0.046,-0.291
3986,0.038,-0.291
3987,0.030,-0.291
3988,0.021,-0.303
3989,0.011,-0.303
3990,0.003,-0.303
3991,-0.005,-0.303
3992,-0.012,-0.318
3993,-0.020,-0.318
3994,-0.028,-0.318
3995,-0.035,-0.318
3996,-0.041,-0.329
3997,-0.047,-0.329
3998,-0.051,-0.329
3999,-0.056,-0.329
4000,-0.058,-0.342
4001,-0.061,-0.342
4002,-0.065,-0.342
4003,-0.068,-0.342
4004,-0.071,-0.353
4005,-0.074,-0.353
4006,-0.076,-0.353
4007,-0.078,-0.353
4008,-0.078,-0.362
4009,-0.078,-0.362
4010,-0.078,-0.362
4011,-0.078,-0.362
4012,-0.078,-0.371
4013,-0.078,-0.371
4014,-0.078,-0.371
4015,-0.079,-0.371
4016,-0.079,-0.381
4017,-0.079,-0.381
4018,-0.075,-0.381
4019,-0.072,-0.381
4020,-0.063,-0.389
4021,-0.054,-0.389
4022,-0.038,-0.389
4023,-0.022,-0.389
4024,0.001,-0.397
4025,0.024,-0.397
4026,0.052,-0.397
4027,0.080,-0.397
4028,0.112,-0.405
4029,0.143,-0.405
4030,0.176,-0.405
4031,0.209,-0.405
4032,0.246,-0.410
4033,0.283,-0.410
4034,0.326,-0.410
4035,0.369,-0.410
4036,0.414,-0.416
4037,0.459,-0.416
4038,0.494,-0.416
4039,0.529,-0.416
4040,0.541,-0.423
4041,0.554,-0.423
4042,0.536,-0.423
4043,0.518,-0.423
4044,0.475,-0.426
4045,0.431,-0.426
4046,0.379,-0.426
4047,0.327,-0.426
4048,0.282,-0.431
4049,0.238,-0.431
4050,0.208,-0.431
4051,0.179,-0.431
4052,0.167,-0.436
4053,0.155,-0.436
4054,0.156,-0.436
4055,0.157,-0.436
4056,0.162,-0.441
4057,0.167,-0.441
4058,0.166,-0.441
4059,0.165,-0.441
4060,0.150,-0.445
4061,0.135,-0.445
4062,0.108,-0.445
4063,0.081,-0.445
4064,0.050,-0.448
4065,0.019,-0.448
4066,-0.006,-0.448
4067,-0.031,-0.448
4068,-0.043,-0.453
4069,-0.056,-0.453
4070,-0.058,-0.453
4071,-0.061,-0.453
4072,-0.058,-0.455
4073,-0.056,-0.455
4074,-0.053,-0.455
4075,-0.051,-0.455
4076,-0.053,-0.457
4077,-0.055,-0.457
4078,-0.060,-0.457
4079,-0.066,-0.457
4080,-0.073,-0.460
4081,-0.080,-0.460
4082,-0.087,-0.460
4083,-0.094,-0.460
4084,-0.099,-0.462
4085,-0.103,-0.462
4086,-0.106,-0.462
4087,-0.109,-0.462
4088,-0.109,-0.463
4089,-0.108,-0.463
4090,-0.106,-0.463
4091,-0.104,-0.463
4092,-0.101,-0.465
4093,-0.097,-0.465
4094,-0.093,-0.465
4095,-0.089,-0.465
4096,-0.085,-0.466
4097,-0.080,-0.466
4098,-0.078,-0.466
4099,-0.076,-0.466
4100,-0.074,-0.467
4101,-0.073,-0.467
4102,-0.071,-0.467
4103,-0.070,-0.467
4104,-0.068,-0.469
4105,-0.066,-0.469
4106,-0.064,-0.469
4107,-0.062,-0.469
4108,-0.061,-0.469
4109,-0.060,-0.469
4110,-0.059,-0.469
4111,-0.058,-0.469
4112,-0.058,-0.469
4113,-0.057,-0.469
4114,-0.056,-0.469
4115,-0.055,-0.469
4116,-0.052,-0.469
4117,-0.049,-0.469
4118,-0.046,-0.469
4119,-0.043,-0.469
4120,-0.041,-0.469
4121,-0.039,-0.469
4122,-0.039,-0.469
4123,-0.038,-0.469
4124,-0.038,-0.466
4125,-0.037,-0.466
4126,-0.035,-0.466
4127,-0.034,-0.466
4128,-0.031,-0.465
4129,-0.028,-0.465
4130,-0.024,-0.465
4131,-0.020,-0.465
4132,-0.016,-0.464
4133,-0.012,-0.464
4134,-0.009,-0.464
4135,-0.006,-0.464
4136,-0.002,-0.461
4137,0.001,-0.461
4138,0.005,-0.461
4139,0.009,-0.461
4140,0.011,-0.459
4141,0.013,-0.459
4142,0.014,-0.459
4143,0.014,-0.459
4144,0.014,-0.453
4145,0.013,-0.453
4146,0.013,-0.453
4147,0.012,-0.453
4148,0.012,-0.448
4149,0.011,-0.448
4150,0.012,-0.448
4151,0.013,-0.448
4152,0.015,-0.438
4153,0.017,-0.438
4154,0.018,-0.438
4155,0.019,-0.438
4156,0.021,-0.424
4157,0.022,-0.424
4158,0.025,-0.424
4159,0.028,-0.424
4160,0.030,-0.405
4161,0.033,-0.405
4162,0.034,-0.405
4163,0.034,-0.405
4164,0.034,-0.378
4165,0.034,-0.378
4166,0.034,-0.378
4167,0.033,-0.378
4168,0.031,-0.344
4169,0.030,-0.344
4170,0.029,-0.344
4171,0.029,-0.344
4172,0.029,-0.304
4173,0.030,-0.304
4174,0.030,-0.304
4175,0.031,-0.304
4176,0.031,-0.257
4177,0.032,-0.257
4178,0.031,-0.257
4179,0.031,-0.257
4180,0.029,-0.203
4181,0.028,-0.203
4182,0.027,-0.203
4183,0.027,-0.203
4184,0.025,-0.143
4185,0.024,-0.143
4186,0.023,-0.143
4187,0.021,-0.143
4188,0.020,-0.081
4189,0.019,-0.081
4190,0.018,-0.081
4191,0.016,-0.081
4192,0.015,-0.017
4193,0.013,-0.017
4194,0.011,-0.017
4195,0.010,-0.017
4196,0.008,0.050
4197,0.006,0.050
4198,0.004,0.050
4199,0.003,0.050
4200,0.003,0.112
4201,0.004,0.112
4202,0.005,0.112
4203,0.006,0.112
4204,0.007,0.171
4205,0.009,0.171
4206,0.009,0.171
4207,0.009,0.171
4208,0.008,0.227
4209,0.008,0.227
4210,0.007,0.227
4211,0.006,0.227
4212,0.007,0.278
4213,0.008,0.278
4214,0.009,0.278
4215,0.011,0.278
4216,0.012,0.326
4217,0.013,0.326
4218,0.014,0.326
4219,0.014,0.326
4220,0.013,0.369
4221,0.012,0.369
4222,0.011,0.369
4223,0.010,0.369
4224,0.008,0.407
4225,0.007,0.407
4226,0.006,0.407
4227,0.005,0.407
4228,0.004,0.443
4229,0.003,0.443
4230,0.001,0.443
4231,-0.001,0.443
4232,-0.003,0.474
4233,-0.005,0.474
4234,-0.006,0.474
4235,-0.008,0.474
4236,-0.009,0.500
4237,-0.011,0.500
4238,-0.011,0.500
4239,-0.011,0.500
4240,-0.013,0.523
4241,-0.014,0.523
4242,-0.015,0.523
4243,-0.016,0.523
4244,-0.019,0.542
4245,-0.021,0.542
4246,-0.024,0.542
4247,-0.027,0.542
4248,-0.029,0.558
4249,-0.032,0.558
4250,-0.033,0.558
4251,-0.034,0.558
4252,-0.034,0.569
4253,-0.034,0.569
4254,-0.034,0.569
4255,-0.034,0.569
4256,-0.033,0.576
4257,-0.032,0.576
4258,-0.030,0.576
4259,-0.028,0.576
4260,-0.026,0.580
4261,-0.024,0.580
4262,-0.023,0.580
4263,-0.022,0.580
4264,-0.023,0.579
4265,-0.023,0.579
4266,-0.023,0.579
4267,-0.023,0.579
4268,-0.022,0.574
4269,-0.021,0.574
4270,-0.021,0.574
4271,-0.020,0.574
4272,-0.019,0.566
4273,-0.018,0.566
4274,-0.017,0.566
4275,-0.016,0.566
4276,-0.016,0.554
4277,-0.015,0.554
4278,-0.015,0.554
4279,-0.014,0.554
4280,-0.013,0.540
4281,-0.012,0.540
4282,-0.012,0.540
4283,-0.011,0.540
4284,-0.011,0.524
4285,-0.010,0.524
4286,-0.009,0.524
4287,-0.008,0.524
4288,-0.007,0.502
4289,-0.007,0.502
4290,-0.007,0.502
4291,-0.007,0.502
4292,-0.007,0.479
4293,-0.007,0.479
4294,-0.005,0.479
4295,-0.004,0.479
4296,-0.001,0.452
4297,0.001,0.452
4298,0.004,0.452
4299,0.007,0.452
4300,0.007,0.421
4301,0.008,0.421
4302,0.007,0.421
4303,0.006,0.421
4304,0.004,0.390
4305,0.002,0.390
4306,-0.000,0.390
4307,-0.003,0.390
4308,-0.004,0.355
4309,-0.005,0.355
4310,-0.003,0.355
4311,-0.002,0.355
4312,0.000,0.320
4313,0.003,0.320
4314,0.005,0.320
4315,0.008,0.320
4316,0.009,0.281
4317,0.011,0.281
4318,0.011,0.281
4319,0.011,0.281
4320,0.012,0.241
4321,0.013,0.241
4322,0.013,0.241
4323,0.013,0.241
4324,0.011,0.202
4325,0.010,0.202
4326,0.007,0.202
4327,0.005,0.202
4328,0.001,0.163
4329,-0.002,0.163
4330,-0.005,0.163
4331,-0.008,0.163
4332,-0.010,0.127
4333,-0.011,0.127
4334,-0.011,0.127
4335,-0.011,0.127
4336,-0.009,0.089
4337,-0.007,0.089
4338,-0.005,0.089
4339,-0.003,0.089
4340,-0.002,0.054
4341,-0.001,0.054
4342,-0.000,0.054
4343,0.000,0.054
4344,0.000,0.022
4345,0.001,0.022
4346,0.002,0.022
4347,0.003,0.022
4348,0.003,-0.009
4349,0.004,-0.009
4350,0.006,-0.009
4351,0.008,-0.009
4352,0.012,-0.037
4353,0.016,-0.037
4354,0.022,-0.037
4355,0.028,-0.037
4356,0.035,-0.065
4357,0.042,-0.065
4358,0.052,-0.065
4359,0.061,-0.065
4360,0.073,-0.090
4361,0.084,-0.090
4362,0.094,-0.090
4363,0.104,-0.090
4364,0.112,-0.114
4365,0.120,-0.114
4366,0.125,-0.114
4367,0.130,-0.114
4368,0.134,-0.134
4369,0.138,-0.134
4370,0.142,-0.134
4371,0.147,-0.134
4372,0.151,-0.156
4373,0.155,-0.156
4374,0.158,-0.156
4375,0.161,-0.156
4376,0.161,-0.174
4377,0.161,-0.174
4378,0.158,-0.174
4379,0.154,-0.174
4380,0.148,-0.193
4381,0.142,-0.193
4382,0.134,-0.193
4383,0.125,-0.193
4384,0.119,-0.208
4385,0.112,-0.208
4386,0.105,-0.208
4387,0.099,-0.208
4388,0.092,-0.225
4389,0.085,-0.225
4390,0.079,-0.225
4391,0.073,-0.225
4392,0.066,-0.238
4393,0.059,-0.238
4394,0.052,-0.238
4395,0.045,-0.238
4396,0.037,-0.254
4397,0.029,-0.254
4398,0.021,-0.254
4399,0.012,-0.254
4400,0.005,-0.267
4401,-0.003,-0.267
4402,-0.011,-0.267
4403,-0.019,-0.267
4404,-0.027,-0.281
4405,-0.035,-0.281
4406,-0.043,-0.281
4407,-0.051,-0.281
4408,-0.057,-0.293
4409,-0.062,-0.293
4410,-0.065,-0.293
4411,-0.068,-0.293
4412,-0.068,-0.304
4413,-0.069,-0.304
4414,-0.068,-0.304
4415,-0.068,-0.304
4416,-0.067,-0.315
4417,-0.066,-0.315
4418,-0.067,-0.315
4419,-0.068,-0.315
4420,-0.069,-0.326
4421,-0.070,-0.326
4422,-0.070,-0.326
4423,-0.071,-0.326
4424,-0.070,-0.337
4425,-0.069,-0.337
4426,-0.067,-0.337
4427,-0.065,-0.337
4428,-0.060,-0.344
4429,-0.055,-0.344
4430,-0.043,-0.344
4431,-0.032,-0.344
4432,-0.012,-0.354
4433,0.007,-0.354
4434,0.032,-0.354
4435,0.057,-0.354
4436,0.089,-0.362
4437,0.120,-0.362
4438,0.156,-0.362
4439,0.192,-0.362
4440,0.233,-0.370
4441,0.274,-0.370
4442,0.325,-0.370
4443,0.375,-0.370
4444,0.434,-0.378
4445,0.492,-0.378
4446,0.551,-0.378
4447,0.609,-0.378
4448,0.649,-0.385
4449,0.689,-0.385
4450,0.696,-0.385
4451,0.704,-0.385
4452,0.675,-0.391
4453,0.647,-0.391
4454,0.590,-0.391
4455,0.533,-0.391
4456,0.466,-0.396
4457,0.400,-0.396
4458,0.344,-0.396
4459,0.287,-0.396
4460,0.250,-0.401
4461,0.212,-0.401
4462,0.193,-0.401
4463,0.173,-0.401
4464,0.163,-0.406
4465,0.153,-0.406
4466,0.141,-0.406
4467,0.128,-0.406
4468,0.105,-0.411
4469,0.081,-0.411
4470,0.046,-0.411
4471,0.011,-0.411
4472,-0.027,-0.416
4473,-0.065,-0.416
4474,-0.094,-0.416
4475,-0.124,-0.416
4476,-0.137,-0.422
4477,-0.150,-0.422
4478,-0.148,-0.422
4479,-0.145,-0.422
4480,-0.132,-0.426
4481,-0.120,-0.426
4482,-0.108,-0.426
4483,-0.096,-0.426
4484,-0.090,-0.430
4485,-0.083,-0.430
4486,-0.084,-0.430
4487,-0.085,-0.430
4488,-0.091,-0.434
4489,-0.096,-0.434
4490,-0.100,-0.434
4491,-0.103,-0.434
4492,-0.104,-0.438
4493,-0.105,-0.438
4494,-0.105,-0.438
4495,-0.105,-0.438
4496,-0.105,-0.441
4497,-0.105,-0.441
4498,-0.105,-0.441
4499,-0.105,-0.441
4500,-0.105,-0.444
4501,-0.104,-0.444
4502,-0.103,-0.444
4503,-0.102,-0.444
4504,-0.099,-0.446
4505,-0.097,-0.446
4506,-0.094,-0.446
4507,-0.091,-0.446
4508,-0.089,-0.448
4509,-0.086,-0.448
4510,-0.085,-0.448
4511,-0.083,-0.448
4512,-0.082,-0.476
4513,-0.080,-0.476
4514,-0.079,-0.476
4515,-0.077,-0.476
4516,-0.075,-0.478
4517,-0.073,-0.478
4518,-0.071,-0.478
4519,-0.069,-0.478
4520,-0.067,-0.479
4521,-0.065,-0.479
4522,-0.062,-0.479
4523,-0.059,-0.479
4524,-0.057,-0.479
4525,-0.054,-0.479
4526,-0.051,-0.479
4527,-0.049,-0.479
4528,-0.046,-0.481
4529,-0.043,-0.481
4530,-0.041,-0.481
4531,-0.038,-0.481
4532,-0.036,-0.481
4533,-0.034,-0.481
4534,-0.031,-0.481
4535,-0.029,-0.481
4536,-0.028,-0.481
4537,-0.027,-0.481
4538,-0.026,-0.481
4539,-0.025,-0.481
4540,-0.022,-0.482
4541,-0.019,-0.482
4542,-0.016,-0.482
4543,-0.013,-0.482
4544,-0.010,-0.482
4545,-0.006,-0.482
4546,-0.003,-0.482
4547,0.000,-0.482
4548,0.001,-0.480
4549,0.003,-0.480
4550,0.004,-0.480
4551,0.005,-0.480
4552,0.006,-0.479
4553,0.008,-0.479
4554,0.009,-0.479
4555,0.011,-0.479
4556,0.012,-0.475
4557,0.014,-0.475
4558,0.016,-0.475
4559,0.018,-0.475
4560,0.020,-0.469
4561,0.021,-0.469
4562,0.021,-0.469
4563,0.021,-0.469
4564,0.022,-0.459
4565,0.022,-0.459
4566,0.023,-0.459
4567,0.024,-0.459
4568,0.025,-0.443
4569,0.026,-0.443
4570,0.026,-0.443
4571,0.027,-0.443
4572,0.028,-0.420
4573,0.030,-0.420
4574,0.032,-0.420
4575,0.034,-0.420
4576,0.035,-0.392
4577,0.036,-0.392
4578,0.037,-0.392
4579,0.037,-0.392
4580,0.036,-0.355
4581,0.034,-0.355
4582,0.032,-0.355
4583,0.030,-0.355
4584,0.027,-0.310
4585,0.025,-0.310
4586,0.024,-0.310
4587,0.024,-0.310
4588,0.023,-0.261
4589,0.023,-0.261
4590,0.022,-0.261
4591,0.021,-0.261
4592,0.020,-0.205
4593,0.019,-0.205
4594,0.016,-0.205
4595,0.013,-0.205
4596,0.011,-0.146
4597,0.009,-0.146
4598,0.006,-0.146
4599,0.003,-0.146
4600,0.000,-0.085
4601,-0.002,-0.085
4602,-0.003,-0.085
4603,-0.005,-0.085
4604,-0.006,-0.024
4605,-0.008,-0.024
4606,-0.009,-0.024
4607,-0.011,-0.024
4608,-0.011,0.035
4609,-0.012,0.035
4610,-0.015,0.035
4611,-0.018,0.035
4612,-0.020,0.091
4613,-0.021,0.091
4614,-0.022,0.091
4615,-0.022,0.091
4616,-0.022,0.143
4617,-0.021,0.143
4618,-0.020,0.143
4619,-0.019,0.143
4620,-0.017,0.194
4621,-0.014,0.194
4622,-0.012,0.194
4623,-0.010,0.194
4624,-0.008,0.238
4625,-0.007,0.238
4626,-0.005,0.238
4627,-0.004,0.238
4628,-0.004,0.278
4629,-0.005,0.278
4630,-0.007,0.278
4631,-0.009,0.278
4632,-0.011,0.315
4633,-0.014,0.315
4634,-0.018,0.315
4635,-0.021,0.315
4636,-0.025,0.344
4637,-0.029,0.344
4638,-0.032,0.344
4639,-0.034,0.344
4640,-0.037,0.373
4641,-0.039,0.373
4642,-0.041,0.373
4643,-0.043,0.373
4644,-0.045,0.398
4645,-0.047,0.398
4646,-0.048,0.398
4647,-0.050,0.398
4648,-0.051,0.417
4649,-0.053,0.417
4650,-0.053,0.417
4651,-0.054,0.417
4652,-0.056,0.432
4653,-0.057,0.432
4654,-0.059,0.432
4655,-0.060,0.432
4656,-0.062,0.445
4657,-0.064,0.445
4658,-0.066,0.445
4659,-0.067,0.445
4660,-0.068,0.453
4661,-0.068,0.453
4662,-0.068,0.453
4663,-0.069,0.453
4664,-0.068,0.457
4665,-0.068,0.457
4666,-0.067,0.457
4667,-0.066,0.457
4668,-0.066,0.459
4669,-0.066,0.459
4670,-0.065,0.459
4671,-0.063,0.459
4672,-0.061,0.455
4673,-0.059,0.455
4674,-0.058,0.455
4675,-0.057,0.455
4676,-0.056,0.449
4677,-0.055,0.449
4678,-0.054,0.449
4679,-0.054,0.449
4680,-0.053,0.440
4681,-0.053,0.440
4682,-0.052,0.440
4683,-0.052,0.440
4684,-0.050,0.427
4685,-0.049,0.427
4686,-0.047,0.427
4687,-0.046,0.427
4688,-0.046,0.410
4689,-0.046,0.410
4690,-0.045,0.410
4691,-0.045,0.410
4692,-0.044,0.392
4693,-0.042,0.392
4694,-0.042,0.392
4695,-0.041,0.392
4696,-0.040,0.370
4697,-0.038,0.370
4698,-0.036,0.370
4699,-0.034,0.370
4700,-0.031,0.344
4701,-0.029,0.344
4702,-0.028,0.344
4703,-0.027,0.344
4704,-0.026,0.315
4705,-0.026,0.315
4706,-0.025,0.315
4707,-0.024,0.315
4708,-0.024,0.284
4709,-0.025,0.284
4710,-0.025,0.284
4711,-0.025,0.284
4712,-0.025,0.250
4713,-0.025,0.250
4714,-0.025,0.250
4715,-0.026,0.250
4716,-0.026,0.212
4717,-0.027,0.212
4718,-0.026,0.212
4719,-0.026,0.212
4720,-0.024,0.174
4721,-0.023,0.174
4722,-0.023,0.174
4723,-0.022,0.174
4724,-0.022,0.137
4725,-0.021,0.137
4726,-0.022,0.137
4727,-0.022,0.137
4728,-0.023,0.095
4729,-0.024,0.095
4730,-0.025,0.095
4731,-0.026,0.095
4732,-0.025,0.055
4733,-0.025,0.055
4734,-0.025,0.055
4735,-0.025,0.055
4736,-0.025,0.015
4737,-0.025,0.015
4738,-0.025,0.015
4739,-0.025,0.015
4740,-0.024,-0.025
4741,-0.024,-0.025
4742,-0.023,-0.025
4743,-0.023,-0.025
4744,-0.023,-0.061
4745,-0.023,-0.061
4746,-0.023,-0.061
4747,-0.022,-0.061
4748,-0.022,-0.097
4749,-0.021,-0.097
4750,-0.022,-0.097
4751,-0.022,-0.097
4752,-0.023,-0.131
4753,-0.024,-0.131
4754,-0.025,-0.131
4755,-0.027,-0.131
4756,-0.027,-0.163
4757,-0.028,-0.163
4758,-0.027,-0.163
4759,-0.027,-0.163
4760,-0.024,-0.192
4761,-0.021,-0.192
4762,-0.015,-0.192
4763,-0.010,-0.192
4764,-0.002,-0.220
4765,0.006,-0.220
4766,0.015,-0.220
4767,0.025,-0.220
4768,0.034,-0.248
4769,0.043,-0.248
4770,0.053,-0.248
4771,0.062,-0.248
4772,0.071,-0.274
4773,0.080,-0.274
4774,0.084,-0.274
4775,0.088,-0.274
4776,0.090,-0.295
4777,0.091,-0.295
4778,0.091,-0.295
4779,0.092,-0.295
4780,0.094,-0.316
4781,0.096,-0.316
4782,0.100,-0.316
4783,0.104,-0.316
4784,0.110,-0.336
4785,0.116,-0.336
4786,0.119,-0.336
4787,0.123,-0.336
4788,0.122,-0.355
4789,0.122,-0.355
4790,0.119,-0.355
4791,0.117,-0.355
4792,0.112,-0.374
4793,0.106,-0.374
4794,0.099,-0.374
4795,0.091,-0.374
4796,0.084,-0.391
4797,0.077,-0.391
4798,0.069,-0.391
4799,0.062,-0.391
4800,0.055,-0.406
4801,0.047,-0.406
4802,0.039,-0.406
4803,0.031,-0.406
4804,0.025,-0.421
4805,0.019,-0.421
4806,0.014,-0.421
4807,0.010,-0.421
4808,0.004,-0.435
4809,-0.002,-0.435
4810,-0.008,-0.435
4811,-0.014,-0.435
4812,-0.022,-0.448
4813,-0.029,-0.448
4814,-0.037,-0.448
4815,-0.046,-0.448
4816,-0.055,-0.462
4817,-0.063,-0.462
4818,-0.069,-0.462
4819,-0.076,-0.462
4820,-0.080,-0.473
4821,-0.084,-0.473
4822,-0.088,-0.473
4823,-0.091,-0.473
4824,-0.092,-0.485
4825,-0.093,-0.485
4826,-0.093,-0.485
4827,-0.094,-0.485
4828,-0.093,-0.496
4829,-0.092,-0.496
4830,-0.091,-0.496
4831,-0.090,-0.496
4832,-0.089,-0.508
4833,-0.088,-0.508
4834,-0.088,-0.508
4835,-0.087,-0.508
4836,-0.084,-0.518
4837,-0.081,-0.518
4838,-0.076,-0.518
4839,-0.070,-0.518
4840,-0.058,-0.527
4841,-0.046,-0.527
4842,-0.027,-0.527
4843,-0.008,-0.527
4844,0.018,-0.535
4845,0.044,-0.535
4846,0.075,-0.535
4847,0.105,-0.535
4848,0.139,-0.544
4849,0.173,-0.544
4850,0.212,-0.544
4851,0.250,-0.544
4852,0.294,-0.553
4853,0.337,-0.553
4854,0.385,-0.553
4855,0.432,-0.553
4856,0.473,-0.561
4857,0.514,-0.561
4858,0.534,-0.561
4859,0.553,-0.561
4860,0.541,-0.569
4861,0.529,-0.569
4862,0.489,-0.569
4863,0.449,-0.569
4864,0.395,-0.576
4865,0.341,-0.576
4866,0.290,-0.576
4867,0.239,-0.576
4868,0.206,-0.581
4869,0.173,-0.581
4870,0.159,-0.581
4871,0.144,-0.581
4872,0.144,-0.588
4873,0.145,-0.588
4874,0.153,-0.588
4875,0.161,-0.588
4876,0.165,-0.594
4877,0.170,-0.594
4878,0.162,-0.594
4879,0.154,-0.594
4880,0.133,-0.599
4881,0.111,-0.599
4882,0.081,-0.599
4883,0.051,-0.599
4884,0.023,-0.603
4885,-0.006,-0.603
4886,-0.025,-0.603
4887,-0.044,-0.603
4888,-0.052,-0.609
4889,-0.059,-0.609
4890,-0.060,-0.609
4891,-0.060,-0.609
4892,-0.059,-0.613
4893,-0.057,-0.613
4894,-0.058,-0.613
4895,-0.058,-0.613
4896,-0.062,-0.617
4897,-0.065,-0.617
4898,-0.071,-0.617
4899,-0.077,-0.617
4900,-0.084,-0.620
4901,-0.091,-0.620
4902,-0.097,-0.620
4903,-0.102,-0.620
4904,-0.106,-0.622
4905,-0.110,-0.622
4906,-0.112,-0.622
4907,-0.113,-0.622
4908,-0.113,-0.624
4909,-0.112,-0.624
4910,-0.110,-0.624
4911,-0.108,-0.624
4912,-0.107,-0.625
4913,-0.105,-0.625
4914,-0.104,-0.625
4915,-0.103,-0.625
4916,-0.102,-0.626
4917,-0.102,-0.626
4918,-0.100,-0.626
4919,-0.098,-0.626
4920,-0.096,-0.627
4921,-0.094,-0.627
4922,-0.092,-0.627
4923,-0.091,-0.627
4924,-0.089,-0.627
4925,-0.087,-0.627
4926,-0.085,-0.627
4927,-0.083,-0.627
4928,-0.081,-0.628
4929,-0.080,-0.628
4930,-0.077,-0.628
4931,-0.075,-0.628
4932,-0.073,-0.627
4933,-0.072,-0.627
4934,-0.071,-0.627
4935,-0.070,-0.627
4936,-0.068,-0.627
4937,-0.066,-0.627
4938,-0.064,-0.627
4939,-0.061,-0.627
4940,-0.059,-0.625
4941,-0.057,-0.625
4942,-0.056,-0.625
4943,-0.055,-0.625
4944,-0.053,-0.624
4945,-0.052,-0.624
4946,-0.050,-0.624
4947,-0.049,-0.624
4948,-0.046,-0.622
4949,-0.044,-0.622
4950,-0.041,-0.622
4951,-0.037,-0.622
4952,-0.034,-0.620
4953,-0.032,-0.620
4954,-0.030,-0.620
4955,-0.028,-0.620
4956,-0.026,-0.617
4957,-0.025,-0.617
4958,-0.024,-0.617
4959,-0.023,-0.617
4960,-0.022,-0.614
4961,-0.021,-0.614
4962,-0.020,-0.614
4963,-0.018,-0.614
4964,-0.018,-0.609
4965,-0.017,-0.609
4966,-0.018,-0.609
4967,-0.018,-0.609
4968,-0.018,-0.601
4969,-0.017,-0.601
4970,-0.016,-0.601
4971,-0.014,-0.601
4972,-0.012,-0.591
4973,-0.010,-0.591
4974,-0.008,-0.591
4975,-0.007,-0.591
4976,-0.005,-0.575
4977,-0.003,-0.575
4978,-0.002,-0.575
4979,-0.001,-0.575
4980,-0.000,-0.555
4981,0.000,-0.555
4982,0.000,-0.555
4983,0.000,-0.555
4984,0.000,-0.529
4985,0.001,-0.529
4986,0.002,-0.529
4987,0.004,-0.529
4988,0.005,-0.494
4989,0.006,-0.494
4990,0.007,-0.494
4991,0.008,-0.494
4992,0.007,-0.452
4993,0.006,-0.452
4994,0.004,-0.452
4995,0.003,-0.452
4996,0.001,-0.402
4997,-0.001,-0.402
4998,-0.002,-0.402
4999,-0.004,-0.402
5000,-0.004,-0.347
5001,-0.004,-0.347
5002,-0.004,-0.347
5003,-0.004,-0.347
5004,-0.004,-0.286
5005,-0.005,-0.286
5006,-0.007,-0.286
5007,-0.009,-0.286
5008,-0.011,-0.222
5009,-0.014,-0.222
5010,-0.017,-0.222
5011,-0.019,-0.222
5012,-0.021,-0.156
5013,-0.022,-0.156
5014,-0.021,-0.156
5015,-0.020,-0.156
5016,-0.019,-0.090
5017,-0.018,-0.090
5018,-0.017,-0.090
5019,-0.016,-0.090
5020,-0.016,-0.026
5021,-0.016,-0.026
5022,-0.016,-0.026
5023,-0.016,-0.026
5024,-0.015,0.035
5025,-0.014,0.035
5026,-0.012,0.035
5027,-0.010,0.035
5028,-0.008,0.092
5029,-0.007,0.092
5030,-0.006,0.092
5031,-0.005,0.092
5032,-0.006,0.143
5033,-0.007,0.143
5034,-0.007,0.143
5035,-0.007,0.143
5036,-0.005,0.193
5037,-0.004,0.193
5038,-0.002,0.193
5039,0.000,0.193
5040,0.001,0.236
5041,0.003,0.236
5042,0.003,0.236
5043,0.004,0.236
5044,0.003,0.278
5045,0.003,0.278
5046,0.002,0.278
5047,0.001,0.278
5048,-0.001,0.314
5049,-0.004,0.314
5050,-0.007,0.314
5051,-0.010,0.314
5052,-0.012,0.344
5053,-0.015,0.344
5054,-0.020,0.344
5055,-0.024,0.344
5056,-0.028,0.371
5057,-0.033,0.371
5058,-0.036,0.371
5059,-0.040,0.371
5060,-0.043,0.396
5061,-0.046,0.396
5062,-0.047,0.396
5063,-0.048,0.396
5064,-0.048,0.414
5065,-0.049,0.414
5066,-0.049,0.414
5067,-0.050,0.414
5068,-0.050,0.430
5069,-0.050,0.430
5070,-0.049,0.430
5071,-0.048,0.430
5072,-0.046,0.441
5073,-0.045,0.441
5074,-0.043,0.441
5075,-0.040,0.441
5076,-0.038,0.448
5077,-0.036,0.448
5078,-0.035,0.448
5079,-0.034,0.448
5080,-0.035,0.450
5081,-0.035,0.450
5082,-0.036,0.450
5083,-0.036,0.450
5084,-0.037,0.450
5085,-0.038,0.450
5086,-0.038,0.450
5087,-0.038,0.450
5088,-0.037,0.445
5089,-0.035,0.445
5090,-0.034,0.445
5091,-0.034,0.445
5092,-0.033,0.436
5093,-0.033,0.436
5094,-0.032,0.436
5095,-0.031,0.436
5096,-0.030,0.425
5097,-0.030,0.425
5098,-0.030,0.425
5099,-0.030,0.425
5100,-0.029,0.409
5101,-0.029,0.409
5102,-0.026,0.409
5103,-0.024,0.409
5104,-0.021,0.392
5105,-0.017,0.392
5106,-0.015,0.392
5107,-0.012,0.392
5108,-0.011,0.369
5109,-0.011,0.369
5110,-0.011,0.369
5111,-0.011,0.369
5112,-0.011,0.344
5113,-0.011,0.344
5114,-0.011,0.344
5115,-0.011,0.344
5116,-0.011,0.317
5117,-0.011,0.317
5118,-0.011,0.317
5119,-0.011,0.317
5120,-0.011,0.284
5121,-0.011,0.284
5122,-0.011,0.284
5123,-0.012,0.284
5124,-0.015,0.251
5125,-0.017,0.251
5126,-0.018,0.251
5127,-0.019,0.251
5128,-0.020,0.215
5129,-0.021,0.215
5130,-0.020,0.215
5131,-0.019,0.215
5132,-0.017,0.179
5133,-0.014,0.179
5134,-0.011,0.179
5135,-0.009,0.179
5136,-0.007,0.141
5137,-0.005,0.141
5138,-0.004,0.141
5139,-0.003,0.141
5140,-0.004,0.102
5141,-0.005,0.102
5142,-0.006,0.102
5143,-0.007,0.102
5144,-0.008,0.062
5145,-0.009,0.062
5146,-0.010,0.062
5147,-0.011,0.062
5148,-0.011,0.026
5149,-0.011,0.026
5150,-0.011,0.026
5151,-0.011,0.026
5152,-0.010,-0.011
5153,-0.010,-0.011
5154,-0.009,-0.011
5155,-0.008,-0.011
5156,-0.007,-0.046
5157,-0.007,-0.046
5158,-0.006,-0.046
5159,-0.006,-0.046
5160,-0.005,-0.079
5161,-0.004,-0.079
5162,-0.002,-0.079
5163,-0.001,-0.079
5164,0.000,-0.109
5165,0.001,-0.109
5166,0.003,-0.109
5167,0.005,-0.109
5168,0.008,-0.137
5169,0.011,-0.137
5170,0.016,-0.137
5171,0.020,-0.137
5172,0.027,-0.164
5173,0.034,-0.164
5174,0.041,-0.164
5175,0.049,-0.164
5176,0.058,-0.188
5177,0.067,-0.188
5178,0.077,-0.188
5179,0.086,-0.188
5180,0.094,-0.209
5181,0.102,-0.209
5182,0.107,-0.209
5183,0.113,-0.209
5184,0.117,-0.232
5185,0.121,-0.232
5186,0.124,-0.232
5187,0.127,-0.232
5188,0.131,-0.251
5189,0.134,-0.251
5190,0.136,-0.251
5191,0.139,-0.251
5192,0.140,-0.268
5193,0.141,-0.268
5194,0.139,-0.268
5195,0.138,-0.268
5196,0.135,-0.285
5197,0.132,-0.285
5198,0.128,-0.285
5199,0.124,-0.285
5200,0.118,-0.300
5201,0.113,-0.300
5202,0.107,-0.300
5203,0.101,-0.300
5204,0.092,-0.315
5205,0.084,-0.315
5206,0.075,-0.315
5207,0.066,-0.315
5208,0.059,-0.328
5209,0.053,-0.328
5210,0.045,-0.328
5211,0.037,-0.328
5212,0.029,-0.343
5213,0.021,-0.343
5214,0.012,-0.343
5215,0.003,-0.343
5216,-0.006,-0.354
5217,-0.015,-0.354
5218,-0.023,-0.354
5219,-0.031,-0.354
5220,-0.036,-0.364
5221,-0.042,-0.364
5222,-0.046,-0.364
5223,-0.051,-0.364
5224,-0.054,-0.377
5225,-0.057,-0.377
5226,-0.059,-0.377
5227,-0.061,-0.377
5228,-0.063,-0.388
5229,-0.064,-0.388
5230,-0.066,-0.388
5231,-0.068,-0.388
5232,-0.071,-0.397
5233,-0.075,-0.397
5234,-0.078,-0.397
5235,-0.081,-0.397
5236,-0.084,-0.407
5237,-0.086,-0.407
5238,-0.087,-0.407
5239,-0.088,-0.407
5240,-0.088,-0.416
5241,-0.087,-0.416
5242,-0.085,-0.416
5243,-0.082,-0.416
5244,-0.078,-0.426
5245,-0.073,-0.426
5246,-0.062,-0.426
5247,-0.051,-0.426
5248,-0.033,-0.434
5249,-0.015,-0.434
5250,0.009,-0.434
5251,0.033,-0.434
5252,0.062,-0.443
5253,0.092,-0.443
5254,0.125,-0.443
5255,0.157,-0.443
5256,0.192,-0.449
5257,0.227,-0.449
5258,0.265,-0.449
5259,0.303,-0.449
5260,0.344,-0.457
5261,0.386,-0.457
5262,0.428,-0.457
5263,0.470,-0.457
5264,0.500,-0.463
5265,0.529,-0.463
5266,0.533,-0.463
5267,0.536,-0.463
5268,0.511,-0.470
5269,0.486,-0.470
5270,0.438,-0.470
5271,0.390,-0.470
5272,0.336,-0.474
5273,0.283,-0.474
5274,0.240,-0.474
5275,0.197,-0.474
5276,0.174,-0.479
5277,0.150,-0.479
5278,0.145,-0.479
5279,0.139,-0.479
5280,0.145,-0.459
5281,0.150,-0.459
5282,0.158,-0.459
5283,0.165,-0.459
5284,0.164,-0.464
5285,0.163,-0.464
5286,0.149,-0.464
5287,0.135,-0.464
5288,0.110,-0.468
5289,0.084,-0.468
5290,0.056,-0.468
5291,0.028,-0.468
5292,0.005,-0.471
5293,-0.017,-0.471
5294,-0.030,-0.471
5295,-0.042,-0.471
5296,-0.045,-0.474
5297,-0.048,-0.474
5298,-0.046,-0.474
5299,-0.045,-0.474
5300,-0.045,-0.478
5301,-0.045,-0.478
5302,-0.049,-0.478
5303,-0.054,-0.478
5304,-0.061,-0.481
5305,-0.068,-0.481
5306,-0.075,-0.481
5307,-0.082,-0.481
5308,-0.089,-0.483
5309,-0.095,-0.483
5310,-0.099,-0.483
5311,-0.102,-0.483
5312,-0.104,-0.485
5313,-0.106,-0.485
5314,-0.107,-0.485
5315,-0.107,-0.485
5316,-0.107,-0.488
5317,-0.107,-0.488
5318,-0.106,-0.488
5319,-0.105,-0.488
5320,-0.102,-0.490
5321,-0.100,-0.490
5322,-0.097,-0.490
5323,-0.095,-0.490
5324,-0.092,-0.491
5325,-0.090,-0.491
5326,-0.089,-0.491
5327,-0.087,-0.491
5328,-0.085,-0.493
5329,-0.083,-0.493
5330,-0.082,-0.493
5331,-0.080,-0.493
5332,-0.079,-0.494
5333,-0.077,-0.494
5334,-0.074,-0.494
5335,-0.072,-0.494
5336,-0.069,-0.496
5337,-0.066,-0.496
5338,-0.064,-0.496
5339,-0.061,-0.496
5340,-0.059,-0.499
5341,-0.057,-0.499
5342,-0.055,-0.499
5343,-0.053,-0.499
5344,-0.052,-0.499
5345,-0.052,-0.499
5346,-0.051,-0.499
5347,-0.050,-0.499
5348,-0.049,-0.498
5349,-0.048,-0.498
5350,-0.046,-0.498
5351,-0.045,-0.498
5352,-0.043,-0.499
5353,-0.041,-0.499
5354,-0.040,-0.499
5355,-0.038,-0.499
5356,-0.037,-0.497
5357,-0.035,-0.497
5358,-0.034,-0.497
5359,-0.033,-0.497
5360,-0.031,-0.496
5361,-0.029,-0.496
5362,-0.026,-0.496
5363,-0.024,-0.496
5364,-0.022,-0.493
5365,-0.020,-0.493
5366,-0.019,-0.493
5367,-0.018,-0.493
5368,-0.018,-0.490
5369,-0.017,-0.490
5370,-0.017,-0.490
5371,-0.017,-0.490
5372,-0.016,-0.487
5373,-0.014,-0.487
5374,-0.012,-0.487
5375,-0.010,-0.487
5376,-0.008,-0.481
5377,-0.007,-0.481
5378,-0.005,-0.481
5379,-0.004,-0.481
5380,-0.004,-0.472
5381,-0.004,-0.472
5382,-0.004,-0.472
5383,-0.004,-0.472
5384,-0.004,-0.457
5385,-0.005,-0.457
5386,-0.005,-0.457
5387,-0.006,-0.457
5388,-0.005,-0.437
5389,-0.005,-0.437
5390,-0.004,-0.437
5391,-0.003,-0.437
5392,-0.001,-0.409
5393,0.000,-0.409
5394,0.002,-0.409
5395,0.005,-0.409
5396,0.007,-0.374
5397,0.010,-0.374
5398,0.010,-0.374
5399,0.011,-0.374
5400,0.010,-0.333
5401,0.010,-0.333
5402,0.008,-0.333
5403,0.007,-0.333
5404,0.003,-0.284
5405,0.000,-0.284
5406,-0.003,-0.284
5407,-0.007,-0.284
5408,-0.009,-0.228
5409,-0.011,-0.228
5410,-0.013,-0.228
5411,-0.015,-0.228
5412,-0.017,-0.168
5413,-0.019,-0.168
5414,-0.022,-0.168
5415,-0.024,-0.168
5416,-0.025,-0.104
5417,-0.026,-0.104
5418,-0.025,-0.104
5419,-0.024,-0.104
5420,-0.023,-0.041
5421,-0.021,-0.041
5422,-0.019,-0.041
5423,-0.016,-0.041
5424,-0.013,0.024
5425,-0.011,0.024
5426,-0.009,0.024
5427,-0.007,0.024
5428,-0.006,0.086
5429,-0.006,0.086
5430,-0.005,0.086
5431,-0.005,0.086
5432,-0.004,0.145
5433,-0.003,0.145
5434,-0.001,0.145
5435,0.001,0.145
5436,0.004,0.200
5437,0.007,0.200
5438,0.009,0.200
5439,0.011,0.200
5440,0.011,0.251
5441,0.011,0.251
5442,0.011,0.251
5443,0.011,0.251
5444,0.011,0.297
5445,0.011,0.297
5446,0.011,0.297
5447,0.011,0.297
5448,0.011,0.339
5449,0.011,0.339
5450,0.010,0.339
5451,0.010,0.339
5452,0.008,0.377
5453,0.007,0.377
5454,0.004,0.377
5455,0.002,0.377
5456,0.000,0.410
5457,-0.001,0.410
5458,-0.003,0.410
5459,-0.006,0.410
5460,-0.009,0.440
5461,-0.011,0.440
5462,-0.015,0.440
5463,-0.018,0.440
5464,-0.021,0.466
5465,-0.023,0.466
5466,-0.026,0.466
5467,-0.029,0.466
5468,-0.031,0.486
5469,-0.034,0.486
5470,-0.036,0.486
5471,-0.038,0.486
5472,-0.040,0.503
5473,-0.041,0.503
5474,-0.042,0.503
5475,-0.042,0.503
5476,-0.044,0.517
5477,-0.045,0.517
5478,-0.044,0.517
5479,-0.042,0.517
5480,-0.040,0.526
5481,-0.038,0.526
5482,-0.036,0.526
5483,-0.034,0.526
5484,-0.033,0.532
5485,-0.031,0.532
5486,-0.029,0.532
5487,-0.028,0.532
5488,-0.026,0.532
5489,-0.024,0.532
5490,-0.023,0.532
5491,-0.021,0.532
5492,-0.021,0.530
5493,-0.021,0.530
5494,-0.021,0.530
5495,-0.021,0.530
5496,-0.022,0.523
5497,-0.022,0.523
5498,-0.023,0.523
5499,-0.025,0.523
5500,-0.027,0.514
5501,-0.029,0.514
5502,-0.029,0.514
5503,-0.030,0.514
5504,-0.031,0.500
5505,-0.032,0.500
5506,-0.032,0.500
5507,-0.032,0.500
5508,-0.030,0.483
5509,-0.028,0.483
5510,-0.026,0.483
5511,-0.024,0.483
5512,-0.023,0.464
5513,-0.021,0.464
5514,-0.021,0.464
5515,-0.020,0.464
5516,-0.019,0.439
5517,-0.017,0.439
5518,-0.015,0.439
5519,-0.012,0.439
5520,-0.009,0.413
5521,-0.006,0.413
5522,-0.003,0.413
5523,0.000,0.413
5524,0.001,0.383
5525,0.002,0.383
5526,0.001,0.383
5527,0.000,0.383
5528,-0.002,0.350
5529,-0.005,0.350
5530,-0.006,0.350
5531,-0.007,0.350
5532,-0.007,0.315
5533,-0.007,0.315
5534,-0.005,0.315
5535,-0.004,0.315
5536,-0.002,0.278
5537,-0.001,0.278
5538,-0.001,0.278
5539,-0.002,0.278
5540,-0.004,0.238
5541,-0.006,0.238
5542,-0.007,0.238
5543,-0.009,0.238
5544,-0.009,0.199
5545,-0.009,0.199
5546,-0.007,0.199
5547,-0.005,0.199
5548,-0.003,0.160
5549,-0.002,0.160
5550,-0.001,0.160
5551,-0.001,0.160
5552,-0.000,0.120
5553,0.000,0.120
5554,-0.000,0.120
5555,-0.001,0.120
5556,-0.001,0.081
5557,-0.002,0.081
5558,-0.001,0.081
5559,-0.001,0.081
5560,-0.000,0.043
5561,0.000,0.043
5562,0.000,0.043
5563,0.000,0.043
5564,0.000,0.009
5565,0.000,0.009
5566,0.000,0.009
5567,0.001,0.009
5568,0.002,-0.025
5569,0.004,-0.025
5570,0.006,-0.025
5571,0.008,-0.025
5572,0.011,-0.056
5573,0.014,-0.056
5574,0.017,-0.056
5575,0.020,-0.056
5576,0.024,-0.085
5577,0.028,-0.085
5578,0.034,-0.085
5579,0.041,-0.085
5580,0.051,-0.113
5581,0.060,-0.113
5582,0.071,-0.113
5583,0.081,-0.113
5584,0.091,-0.138
5585,0.101,-0.138
5586,0.108,-0.138
5587,0.115,-0.138
5588,0.119,-0.161
5589,0.123,-0.161
5590,0.125,-0.161
5591,0.127,-0.161
5592,0.128,-0.181
5593,0.129,-0.181
5594,0.130,-0.181
5595,0.130,-0.181
5596,0.131,-0.202
5597,0.132,-0.202
5598,0.133,-0.202
5599,0.133,-0.202
5600,0.133,-0.221
5601,0.133,-0.221
5602,0.132,-0.221
5603,0.131,-0.221
5604,0.128,-0.238
5605,0.125,-0.238
5606,0.120,-0.238
5607,0.115,-0.238
5608,0.109,-0.255
5609,0.103,-0.255
5610,0.097,-0.255
5611,0.091,-0.255
5612,0.085,-0.269
5613,0.079,-0.269
5614,0.072,-0.269
5615,0.065,-0.269
5616,0.057,-0.283
5617,0.050,-0.283
5618,0.041,-0.283
5619,0.032,-0.283
5620,0.022,-0.298
5621,0.011,-0.298
5622,0.001,-0.298
5623,-0.010,-0.298
5624,-0.019,-0.310
5625,-0.029,-0.310
5626,-0.037,-0.310
5627,-0.046,-0.310
5628,-0.052,-0.323
5629,-0.058,-0.323
5630,-0.061,-0.323
5631,-0.064,-0.323
5632,-0.066,-0.335
5633,-0.068,-0.335
5634,-0.069,-0.335
5635,-0.071,-0.335
5636,-0.072,-0.345
5637,-0.074,-0.345
5638,-0.075,-0.345
5639,-0.076,-0.345
5640,-0.076,-0.356
5641,-0.077,-0.356
5642,-0.077,-0.356
5643,-0.077,-0.356
5644,-0.076,-0.365
5645,-0.075,-0.365
5646,-0.073,-0.365
5647,-0.071,-0.365
5648,-0.068,-0.376
5649,-0.065,-0.376
5650,-0.059,-0.376
5651,-0.053,-0.376
5652,-0.042,-0.384
5653,-0.032,-0.384
5654,-0.015,-0.384
5655,0.001,-0.384
5656,0.023,-0.394
5657,0.046,-0.394
5658,0.073,-0.394
5659,0.100,-0.394
5660,0.130,-0.401
5661,0.161,-0.401
5662,0.193,-0.401
5663,0.226,-0.401
5664,0.262,-0.406
5665,0.299,-0.406
5666,0.341,-0.406
5667,0.382,-0.406
5668,0.424,-0.415
5669,0.466,-0.415
5670,0.495,-0.415
5671,0.524,-0.415
5672,0.528,-0.421
5673,0.533,-0.421
5674,0.507,-0.421
5675,0.482,-0.421
5676,0.435,-0.428
5677,0.388,-0.428
5678,0.338,-0.428
5679,0.287,-0.428
5680,0.247,-0.433
5681,0.207,-0.433
5682,0.183,-0.433
5683,0.160,-0.433
5684,0.153,-0.441
5685,0.146,-0.441
5686,0.148,-0.441
5687,0.151,-0.441
5688,0.158,-0.445
5689,0.164,-0.445
5690,0.164,-0.445
5691,0.165,-0.445
5692,0.153,-0.449
5693,0.142,-0.449
5694,0.118,-0.449
5695,0.095,-0.449
5696,0.068,-0.456
5697,0.040,-0.456
5698,0.018,-0.456
5699,-0.005,-0.456
5700,-0.018,-0.459
5701,-0.031,-0.459
5702,-0.035,-0.459
5703,-0.039,-0.459
5704,-0.039,-0.464
5705,-0.038,-0.464
5706,-0.037,-0.464
5707,-0.036,-0.464
5708,-0.038,-0.467
5709,-0.040,-0.467
5710,-0.046,-0.467
5711,-0.052,-0.467
5712,-0.059,-0.470
5713,-0.066,-0.470
5714,-0.073,-0.470
5715,-0.080,-0.470
5716,-0.084,-0.475
5717,-0.089,-0.475
5718,-0.091,-0.475
5719,-0.094,-0.475
5720,-0.096,-0.477
5721,-0.098,-0.477
5722,-0.099,-0.477
5723,-0.100,-0.477
5724,-0.100,-0.479
5725,-0.101,-0.479
5726,-0.099,-0.479
5727,-0.097,-0.479
5728,-0.094,-0.482
5729,-0.091,-0.482
5730,-0.088,-0.482
5731,-0.085,-0.482
5732,-0.082,-0.483
5733,-0.080,-0.483
5734,-0.076,-0.483
5735,-0.073,-0.483
5736,-0.070,-0.486
5737,-0.068,-0.486
5738,-0.066,-0.486
5739,-0.063,-0.486
5740,-0.062,-0.487
5741,-0.060,-0.487
5742,-0.059,-0.487
5743,-0.058,-0.487
5744,-0.058,-0.488
5745,-0.057,-0.488
5746,-0.057,-0.488
5747,-0.056,-0.488
5748,-0.054,-0.490
5749,-0.052,-0.490
5750,-0.051,-0.490
5751,-0.050,-0.490
5752,-0.049,-0.490
5753,-0.048,-0.490
5754,-0.046,-0.490
5755,-0.045,-0.490
5756,-0.043,-0.491
5757,-0.040,-0.491
5758,-0.038,-0.491
5759,-0.036,-0.491
5760,-0.035,-0.489
5761,-0.034,-0.489
5762,-0.033,-0.489
5763,-0.033,-0.489
5764,-0.032,-0.489
5765,-0.031,-0.489
5766,-0.029,-0.489
5767,-0.028,-0.489
5768,-0.026,-0.490
5769,-0.024,-0.490
5770,-0.022,-0.490
5771,-0.019,-0.490
5772,-0.017,-0.488
5773,-0.014,-0.488
5774,-0.012,-0.488
5775,-0.010,-0.488
5776,-0.008,-0.484
5777,-0.006,-0.484
5778,-0.003,-0.484
5779,-0.001,-0.484
5780,-0.000,-0.479
5781,0.000,-0.479
5782,0.000,-0.479
5783,0.000,-0.479
5784,0.000,-0.471
5785,0.001,-0.471
5786,0.002,-0.471
5787,0.004,-0.471
5788,0.005,-0.459
5789,0.006,-0.459
5790,0.007,-0.459
5791,0.008,-0.459
5792,0.007,-0.443
5793,0.007,-0.443
5794,0.007,-0.443
5795,0.007,-0.443
5796,0.007,-0.418
5797,0.007,-0.418
5798,0.007,-0.418
5799,0.007,-0.418
5800,0.006,-0.386
5801,0.006,-0.386
5802,0.005,-0.386
5803,0.005,-0.386
5804,0.004,-0.347
5805,0.004,-0.347
5806,0.003,-0.347
5807,0.002,-0.347
5808,0.002,-0.300
5809,0.002,-0.300
5810,0.002,-0.300
5811,0.003,-0.300
5812,0.003,-0.248
5813,0.003,-0.248
5814,0.002,-0.248
5815,0.002,-0.248
5816,0.000,-0.189
5817,-0.001,-0.189
5818,-0.002,-0.189
5819,-0.004,-0.189
5820,-0.004,-0.126
5821,-0.005,-0.126
5822,-0.006,-0.126
5823,-0.007,-0.126
5824,-0.008,-0.062
5825,-0.009,-0.062
5826,-0.010,-0.062
5827,-0.011,-0.062
5828,-0.014,0.003
5829,-0.016,0.003
5830,-0.018,0.003
5831,-0.020,0.003
5832,-0.021,0.066
5833,-0.022,0.066
5834,-0.021,0.066
5835,-0.019,0.066
5836,-0.017,0.126
5837,-0.014,0.126
5838,-0.011,0.126
5839,-0.009,0.126
5840,-0.006,0.182
5841,-0.003,0.182
5842,0.000,0.182
5843,0.004,0.182
5844,0.006,0.235
5845,0.008,0.235
5846,0.009,0.235
5847,0.011,0.235
5848,0.011,0.282
5849,0.011,0.282
5850,0.011,0.282
5851,0.011,0.282
5852,0.011,0.326
5853,0.011,0.326
5854,0.012,0.326
5855,0.013,0.326
5856,0.014,0.364
5857,0.014,0.364
5858,0.013,0.364
5859,0.011,0.364
5860,0.009,0.401
5861,0.006,0.401
5862,0.001,0.401
5863,-0.003,0.401
5864,-0.007,0.430
5865,-0.011,0.430
5866,-0.015,0.430
5867,-0.019,0.430
5868,-0.022,0.458
5869,-0.024,0.458
5870,-0.026,0.458
5871,-0.028,0.458
5872,-0.029,0.480
5873,-0.030,0.480
5874,-0.031,0.480
5875,-0.032,0.480
5876,-0.032,0.499
5877,-0.033,0.499
5878,-0.032,0.499
5879,-0.032,0.499
5880,-0.032,0.513
5881,-0.033,0.513
5882,-0.033,0.513
5883,-0.034,0.513
5884,-0.033,0.525
5885,-0.033,0.525
5886,-0.032,0.525
5887,-0.032,0.525
5888,-0.032,0.531
5889,-0.032,0.531
5890,-0.032,0.531
5891,-0.032,0.531
5892,-0.032,0.534
5893,-0.033,0.534
5894,-0.034,0.534
5895,-0.035,0.534
5896,-0.037,0.532
5897,-0.038,0.532
5898,-0.038,0.532
5899,-0.038,0.532
5900,-0.037,0.528
5901,-0.035,0.528
5902,-0.034,0.528
5903,-0.034,0.528
5904,-0.033,0.518
5905,-0.032,0.518
5906,-0.030,0.518
5907,-0.028,0.518
5908,-0.026,0.507
5909,-0.024,0.507
5910,-0.023,0.507
5911,-0.021,0.507
5912,-0.021,0.491
5913,-0.020,0.491
5914,-0.019,0.491
5915,-0.018,0.491
5916,-0.018,0.472
5917,-0.017,0.472
5918,-0.017,0.472
5919,-0.017,0.472
5920,-0.016,0.451
5921,-0.014,0.451
5922,-0.012,0.451
5923,-0.011,0.451
5924,-0.011,0.424
5925,-0.011,0.424
5926,-0.011,0.424
5927,-0.011,0.424
5928,-0.011,0.395
5929,-0.011,0.395
5930,-0.012,0.395
5931,-0.013,0.395
5932,-0.012,0.363
5933,-0.011,0.363
5934,-0.011,0.363
5935,-0.010,0.363
5936,-0.008,0.330
5937,-0.007,0.330
5938,-0.005,0.330
5939,-0.003,0.330
5940,-0.001,0.292
5941,0.000,0.292
5942,0.001,0.292
5943,0.003,0.292
5944,0.003,0.255
5945,0.004,0.255
5946,0.003,0.255
5947,0.003,0.255
5948,0.002,0.214
5949,0.002,0.214
5950,0.000,0.214
5951,-0.001,0.214
5952,-0.003,0.174
5953,-0.005,0.174
5954,-0.006,0.174
5955,-0.007,0.174
5956,-0.007,0.133
5957,-0.007,0.133
5958,-0.005,0.133
5959,-0.004,0.133
5960,-0.002,0.095
5961,-0.001,0.095
5962,0.000,0.095
5963,0.001,0.095
5964,0.001,0.054
5965,0.002,0.054
5966,0.001,0.054
5967,0.000,0.054
5968,-0.000,0.017
5969,-0.001,0.017
5970,-0.001,0.017
5971,-0.001,0.017
5972,-0.002,-0.018
5973,-0.003,-0.018
5974,-0.003,-0.018
5975,-0.003,-0.018
5976,-0.001,-0.051
5977,0.000,-0.051
5978,0.002,-0.051
5979,0.005,-0.051
5980,0.009,-0.083
5981,0.013,-0.083
5982,0.020,-0.083
5983,0.027,-0.083
5984,0.035,-0.111
5985,0.043,-0.111
5986,0.053,-0.111
5987,0.062,-0.111
5988,0.072,-0.137
5989,0.081,-0.137
5990,0.090,-0.137
5991,0.098,-0.137
5992,0.104,-0.162
5993,0.110,-0.162
5994,0.114,-0.162
5995,0.118,-0.162
5996,0.121,-0.184
5997,0.124,-0.184
5998,0.127,-0.184
5999,0.131,-0.184
6000,0.135,-0.206
6001,0.138,-0.206
6002,0.140,-0.206
6003,0.143,-0.206
6004,0.143,-0.225
6005,0.144,-0.225
6006,0.141,-0.225
6007,0.139,-0.225
6008,0.135,-0.243
6009,0.130,-0.243
6010,0.125,-0.243
6011,0.121,-0.243
6012,0.116,-0.261
6013,0.112,-0.261
6014,0.106,-0.261
6015,0.101,-0.261
6016,0.095,-0.277
6017,0.090,-0.277
6018,0.084,-0.277
6019,0.078,-0.277
6020,0.070,-0.291
6021,0.062,-0.291
6022,0.054,-0.291
6023,0.045,-0.291
6024,0.036,-0.304
6025,0.027,-0.304
6026,0.018,-0.304
6027,0.010,-0.304
6028,0.001,-0.320
6029,-0.007,-0.320
6030,-0.014,-0.320
6031,-0.021,-0.320
6032,-0.029,-0.332
6033,-0.036,-0.332
6034,-0.043,-0.332
6035,-0.050,-0.332
6036,-0.055,-0.344
6037,-0.059,-0.344
6038,-0.062,-0.344
6039,-0.064,-0.344
6040,-0.066,-0.355
6041,-0.067,-0.355
6042,-0.068,-0.355
6043,-0.068,-0.355
6044,-0.068,-0.367
6045,-0.069,-0.367
6046,-0.068,-0.367
6047,-0.068,-0.367
6048,-0.067,-0.372
6049,-0.066,-0.372
6050,-0.067,-0.372
6051,-0.067,-0.372
6052,-0.067,-0.382
6053,-0.066,-0.382
6054,-0.064,-0.382
6055,-0.062,-0.382
6056,-0.057,-0.391
6057,-0.052,-0.391
6058,-0.039,-0.391
6059,-0.027,-0.391
6060,-0.008,-0.401
6061,0.011,-0.401
6062,0.034,-0.401
6063,0.058,-0.401
6064,0.086,-0.409
6065,0.113,-0.409
6066,0.142,-0.409
6067,0.170,-0.409
6068,0.202,-0.417
6069,0.233,-0.417
6070,0.269,-0.417
6071,0.306,-0.417
6072,0.348,-0.424
6073,0.390,-0.424
6074,0.431,-0.424
6075,0.471,-0.424
6076,0.498,-0.432
6077,0.524,-0.432
6078,0.523,-0.432
6079,0.521,-0.432
6080,0.490,-0.439
6081,0.460,-0.439
6082,0.411,-0.439
6083,0.363,-0.439
6084,0.314,-0.444
6085,0.264,-0.444
6086,0.228,-0.444
6087,0.192,-0.444
6088,0.173,-0.450
6089,0.155,-0.450
6090,0.153,-0.450
6091,0.150,-0.450
6092,0.156,-0.457
6093,0.162,-0.457
6094,0.167,-0.457
6095,0.172,-0.457
6096,0.168,-0.462
6097,0.164,-0.462
6098,0.148,-0.462
6099,0.133,-0.462
6100,0.109,-0.466
6101,0.085,-0.466
6102,0.059,-0.466
6103,0.033,-0.466
6104,0.011,-0.470
6105,-0.010,-0.470
6106,-0.020,-0.470
6107,-0.031,-0.470
6108,-0.033,-0.475
6109,-0.034,-0.475
6110,-0.033,-0.475
6111,-0.031,-0.475
6112,-0.031,-0.479
6113,-0.031,-0.479
6114,-0.034,-0.479
6115,-0.037,-0.479
6116,-0.045,-0.482
6117,-0.053,-0.482
6118,-0.062,-0.482
6119,-0.072,-0.482
6120,-0.079,-0.484
6121,-0.085,-0.484
6122,-0.088,-0.484
6123,-0.091,-0.484
6124,-0.092,-0.488
6125,-0.093,-0.488
6126,-0.093,-0.488
6127,-0.093,-0.488
6128,-0.091,-0.490
6129,-0.088,-0.490
6130,-0.086,-0.490
6131,-0.083,-0.490
6132,-0.081,-0.492
6133,-0.080,-0.492
6134,-0.078,-0.492
6135,-0.077,-0.492
6136,-0.075,-0.496
6137,-0.074,-0.496
6138,-0.072,-0.496
6139,-0.070,-0.496
6140,-0.069,-0.498
6141,-0.069,-0.498
6142,-0.068,-0.498
6143,-0.067,-0.498
6144,-0.066,-0.500
6145,-0.065,-0.500
6146,-0.065,-0.500
6147,-0.064,-0.500
6148,-0.063,-0.501
6149,-0.062,-0.501
6150,-0.061,-0.501
6151,-0.060,-0.501
6152,-0.059,-0.502
6153,-0.058,-0.502
6154,-0.058,-0.502
6155,-0.057,-0.502
6156,-0.057,-0.503
6157,-0.056,-0.503
6158,-0.054,-0.503
6159,-0.052,-0.503
6160,-0.050,-0.504
6161,-0.049,-0.504
6162,-0.047,-0.504
6163,-0.046,-0.504
6164,-0.046,-0.504
6165,-0.046,-0.504
6166,-0.045,-0.504
6167,-0.044,-0.504
6168,-0.041,-0.502
6169,-0.038,-0.502
6170,-0.036,-0.502
6171,-0.034,-0.502
6172,-0.030,-0.501
6173,-0.027,-0.501
6174,-0.024,-0.501
6175,-0.021,-0.501
6176,-0.019,-0.501
6177,-0.017,-0.501
6178,-0.017,-0.501
6179,-0.017,-0.501
6180,-0.018,-0.498
6181,-0.018,-0.498
6182,-0.018,-0.498
6183,-0.018,-0.498
6184,-0.019,-0.492
6185,-0.019,-0.492
6186,-0.020,-0.492
6187,-0.021,-0.492
6188,-0.021,-0.486
6189,-0.020,-0.486
6190,-0.019,-0.486
6191,-0.017,-0.486
6192,-0.015,-0.475
6193,-0.013,-0.475
6194,-0.012,-0.475
6195,-0.011,-0.475
6196,-0.011,-0.460
6197,-0.011,-0.460
6198,-0.011,-0.460
6199,-0.011,-0.460
6200,-0.011,-0.438
6201,-0.011,-0.438
6202,-0.013,-0.438
6203,-0.014,-0.438
6204,-0.014,-0.409
6205,-0.014,-0.409
6206,-0.014,-0.409
6207,-0.014,-0.409
6208,-0.014,-0.373
6209,-0.013,-0.373
6210,-0.012,-0.373
6211,-0.011,-0.373
6212,-0.011,-0.328
6213,-0.010,-0.328
6214,-0.009,-0.328
6215,-0.008,-0.328
6216,-0.007,-0.277
6217,-0.006,-0.277
6218,-0.005,-0.277
6219,-0.004,-0.277
6220,-0.004,-0.220
6221,-0.005,-0.220
6222,-0.006,-0.220
6223,-0.008,-0.220
6224,-0.009,-0.157
6225,-0.011,-0.157
6226,-0.011,-0.157
6227,-0.011,-0.157
6228,-0.013,-0.091
6229,-0.015,-0.091
6230,-0.016,-0.091
6231,-0.017,-0.091
6232,-0.018,-0.026
6233,-0.018,-0.026
6234,-0.018,-0.026
6235,-0.017,-0.026
6236,-0.016,0.038
6237,-0.015,0.038
6238,-0.014,0.038
6239,-0.012,0.038
6240,-0.010,0.102
6241,-0.007,0.102
6242,-0.005,0.102
6243,-0.003,0.102
6244,-0.001,0.160
6245,0.000,0.160
6246,0.001,0.160
6247,0.003,0.160
6248,0.004,0.215
6249,0.005,0.215
6250,0.006,0.215
6251,0.007,0.215
6252,0.007,0.266
6253,0.008,0.266
6254,0.008,0.266
6255,0.009,0.266
6256,0.009,0.311
6257,0.009,0.311
6258,0.009,0.311
6259,0.009,0.311
6260,0.008,0.353
6261,0.007,0.353
6262,0.004,0.353
6263,0.001,0.353
6264,-0.001,0.391
6265,-0.004,0.391
6266,-0.007,0.391
6267,-0.010,0.391
6268,-0.012,0.421
6269,-0.014,0.421
6270,-0.017,0.421
6271,-0.019,0.421
6272,-0.021,0.451
6273,-0.023,0.451
6274,-0.024,0.451
6275,-0.026,0.451
6276,-0.027,0.474
6277,-0.028,0.474
6278,-0.028,0.474
6279,-0.029,0.474
6280,-0.029,0.495
6281,-0.029,0.495
6282,-0.029,0.495
6283,-0.030,0.495
6284,-0.031,0.512
6285,-0.033,0.512
6286,-0.034,0.512
6287,-0.036,0.512
6288,-0.038,0.525
6289,-0.039,0.525
6290,-0.041,0.525
6291,-0.043,0.525
6292,-0.045,0.533
6293,-0.046,0.533
6294,-0.046,0.533
6295,-0.047,0.533
6296,-0.047,0.538
6297,-0.048,0.538
6298,-0.047,0.538
6299,-0.047,0.538
6300,-0.046,0.539
6301,-0.046,0.539
6302,-0.046,0.539
6303,-0.046,0.539
6304,-0.046,0.537
6305,-0.046,0.537
6306,-0.046,0.537
6307,-0.047,0.537
6308,-0.047,0.528
6309,-0.048,0.528
6310,-0.047,0.528
6311,-0.046,0.528
6312,-0.044,0.518
6313,-0.041,0.518
6314,-0.037,0.518
6315,-0.034,0.518
6316,-0.030,0.505
6317,-0.027,0.505
6318,-0.023,0.505
6319,-0.020,0.505
6320,-0.017,0.487
6321,-0.014,0.487
6322,-0.013,0.487
6323,-0.012,0.487
6324,-0.011,0.467
6325,-0.011,0.467
6326,-0.008,0.467
6327,-0.006,0.467
6328,-0.002,0.442
6329,0.001,0.442
6330,0.004,0.442
6331,0.007,0.442
6332,0.008,0.414
6333,0.009,0.414
6334,0.009,0.414
6335,0.010,0.414
6336,0.011,0.385
6337,0.011,0.385
6338,0.012,0.385
6339,0.012,0.385
6340,0.012,0.350
6341,0.012,0.350
6342,0.012,0.350
6343,0.011,0.350
6344,0.011,0.315
6345,0.011,0.315
6346,0.010,0.315
6347,0.010,0.315
6348,0.009,0.275
6349,0.008,0.275
6350,0.007,0.275
6351,0.006,0.275
6352,0.006,0.237
6353,0.007,0.237
6354,0.007,0.237
6355,0.007,0.237
6356,0.007,0.196
6357,0.007,0.196
6358,0.006,0.196
6359,0.006,0.196
6360,0.005,0.155
6361,0.004,0.155
6362,0.003,0.155
6363,0.003,0.155
6364,0.003,0.114
6365,0.003,0.114
6366,0.003,0.114
6367,0.003,0.114
6368,0.003,0.075
6369,0.003,0.075
6370,0.003,0.075
6371,0.003,0.075
6372,0.003,0.036
6373,0.003,0.036
6374,0.003,0.036
6375,0.004,0.036
6376,0.005,0.001
6377,0.007,0.001
6378,0.009,0.001
6379,0.011,0.001
6380,0.012,-0.034
6381,0.013,-0.034
6382,0.014,-0.034
6383,0.015,-0.034
6384,0.017,-0.068
6385,0.018,-0.068
6386,0.022,-0.068
6387,0.026,-0.068
6388,0.031,-0.097
6389,0.035,-0.097
6390,0.044,-0.097
6391,0.052,-0.097
6392,0.061,-0.125
6393,0.070,-0.125
6394,0.079,-0.125
6395,0.087,-0.125
6396,0.093,-0.152
6397,0.100,-0.152
6398,0.103,-0.152
6399,0.107,-0.152
6400,0.110,-0.175
6401,0.112,-0.175
6402,0.114,-0.175
6403,0.115,-0.175
6404,0.117,-0.198
6405,0.120,-0.198
6406,0.124,-0.198
6407,0.127,-0.198
6408,0.131,-0.217
6409,0.134,-0.217
6410,0.137,-0.217
6411,0.140,-0.217
6412,0.141,-0.237
6413,0.142,-0.237
6414,0.139,-0.237
6415,0.137,-0.237
6416,0.134,-0.255
6417,0.130,-0.255
6418,0.125,-0.255
6419,0.121,-0.255
6420,0.115,-0.272
6421,0.109,-0.272
6422,0.102,-0.272
6423,0.096,-0.272
6424,0.090,-0.286
6425,0.084,-0.286
6426,0.079,-0.286
6427,0.073,-0.286
6428,0.065,-0.300
6429,0.057,-0.300
6430,0.047,-0.300
6431,0.038,-0.300
6432,0.029,-0.315
6433,0.020,-0.315
6434,0.012,-0.315
6435,0.004,-0.315
6436,-0.004,-0.328
6437,-0.011,-0.328
6438,-0.018,-0.328
6439,-0.024,-0.328
6440,-0.029,-0.341
6441,-0.034,-0.341
6442,-0.039,-0.341
6443,-0.043,-0.341
6444,-0.045,-0.351
6445,-0.047,-0.351
6446,-0.048,-0.351
6447,-0.050,-0.351
6448,-0.052,-0.363
6449,-0.055,-0.363
6450,-0.057,-0.363
6451,-0.060,-0.363
6452,-0.062,-0.372
6453,-0.064,-0.372
6454,-0.066,-0.372
6455,-0.067,-0.372
6456,-0.067,-0.384
6457,-0.067,-0.384
6458,-0.067,-0.384
6459,-0.066,-0.384
6460,-0.063,-0.392
6461,-0.060,-0.392
6462,-0.053,-0.392
6463,-0.045,-0.392
6464,-0.033,-0.400
6465,-0.020,-0.400
6466,-0.001,-0.400
6467,0.018,-0.400
6468,0.043,-0.409
6469,0.068,-0.409
6470,0.096,-0.409
6471,0.124,-0.409
6472,0.154,-0.416
6473,0.184,-0.416
6474,0.217,-0.416
6475,0.250,-0.416
6476,0.289,-0.423
6477,0.329,-0.423
6478,0.373,-0.423
6479,0.418,-0.423
6480,0.460,-0.430
6481,0.502,-0.430
6482,0.527,-0.430
6483,0.553,-0.430
6484,0.550,-0.435
6485,0.548,-0.435
6486,0.516,-0.435
6487,0.484,-0.435
6488,0.433,-0.442
6489,0.382,-0.442
6490,0.329,-0.442
6491,0.276,-0.442
6492,0.236,-0.447
6493,0.196,-0.447
6494,0.176,-0.447
6495,0.155,-0.447
6496,0.150,-0.450
6497,0.146,-0.450
6498,0.150,-0.450
6499,0.155,-0.450
6500,0.160,-0.455
6501,0.165,-0.455
6502,0.160,-0.455
6503,0.156,-0.455
6504,0.139,-0.460
6505,0.123,-0.460
6506,0.095,-0.460
6507,0.068,-0.460
6508,0.038,-0.465
6509,0.009,-0.465
6510,-0.013,-0.465
6511,-0.035,-0.465
6512,-0.045,-0.467
6513,-0.055,-0.467
6514,-0.055,-0.467
6515,-0.056,-0.467
6516,-0.053,-0.470
6517,-0.051,-0.470
6518,-0.050,-0.470
6519,-0.050,-0.470
6520,-0.053,-0.473
6521,-0.057,-0.473
6522,-0.064,-0.473
6523,-0.071,-0.473
6524,-0.079,-0.476
6525,-0.086,-0.476
6526,-0.091,-0.476
6527,-0.096,-0.476
6528,-0.098,-0.479
6529,-0.100,-0.479
6530,-0.099,-0.479
6531,-0.099,-0.479
6532,-0.098,-0.480
6533,-0.097,-0.480
6534,-0.096,-0.480
6535,-0.095,-0.480
6536,-0.093,-0.484
6537,-0.092,-0.484
6538,-0.091,-0.484
6539,-0.090,-0.484
6540,-0.089,-0.486
6541,-0.087,-0.486
6542,-0.085,-0.486
6543,-0.082,-0.486
6544,-0.080,-0.489
6545,-0.078,-0.489
6546,-0.075,-0.489
6547,-0.073,-0.489
6548,-0.071,-0.489
6549,-0.070,-0.489
6550,-0.069,-0.489
6551,-0.069,-0.489
6552,-0.068,-0.492
6553,-0.066,-0.492
6554,-0.064,-0.492
6555,-0.062,-0.492
6556,-0.061,-0.492
6557,-0.059,-0.492
6558,-0.058,-0.492
6559,-0.057,-0.492
6560,-0.056,-0.480
6561,-0.055,-0.480
6562,-0.053,-0.480
6563,-0.052,-0.480
6564,-0.048,-0.479
6565,-0.044,-0.479
6566,-0.040,-0.479
6567,-0.035,-0.479
6568,-0.033,-0.475
6569,-0.031,-0.475
6570,-0.030,-0.475
6571,-0.030,-0.475
6572,-0.031,-0.473
6573,-0.032,-0.473
6574,-0.033,-0.473
6575,-0.034,-0.473
6576,-0.033,-0.469
6577,-0.031,-0.469
6578,-0.027,-0.469
6579,-0.024,-0.469
6580,-0.020,-0.467
6581,-0.016,-0.467
6582,-0.012,-0.467
6583,-0.009,-0.467
6584,-0.005,-0.463
6585,-0.002,-0.463
6586,0.001,-0.463
6587,0.004,-0.463
6588,0.005,-0.457
6589,0.007,-0.457
6590,0.008,-0.457
6591,0.009,-0.457
6592,0.009,-0.449
6593,0.010,-0.449
6594,0.011,-0.449
6595,0.011,-0.449
6596,0.013,-0.438
6597,0.014,-0.438
6598,0.016,-0.438
6599,0.018,-0.438
6600,0.020,-0.421
6601,0.022,-0.421
6602,0.023,-0.421
6603,0.023,-0.421
6604,0.023,-0.402
6605,0.023,-0.402
6606,0.023,-0.402
6607,0.024,-0.402
6608,0.025,-0.373
6609,0.026,-0.373
6610,0.027,-0.373
6611,0.028,-0.373
6612,0.030,-0.339
6613,0.032,-0.339
6614,0.034,-0.339
6615,0.036,-0.339
6616,0.039,-0.296
6617,0.041,-0.296
6618,0.042,-0.296
6619,0.042,-0.296
6620,0.042,-0.248
6621,0.042,-0.248
6622,0.042,-0.248
6623,0.042,-0.248
6624,0.042,-0.193
6625,0.041,-0.193
6626,0.040,-0.193
6627,0.039,-0.193
6628,0.038,-0.133
6629,0.036,-0.133
6630,0.033,-0.133
6631,0.030,-0.133
6632,0.027,-0.070
6633,0.024,-0.070
6634,0.022,-0.070
6635,0.019,-0.070
6636,0.017,-0.006
