,ECG,PPG
0,-0.065,0.148
1,-0.065,0.148
2,-0.053,0.148
3,-0.053,0.148
4,-0.053,0.103
5,-0.053,0.103
6,-0.053,0.103
7,-0.035,0.103
8,-0.035,0.051
9,-0.047,0.051
10,-0.035,0.051
11,-0.035,0.051
12,-0.029,0.007
13,-0.029,0.007
14,-0.023,0.007
15,-0.029,0.007
16,-0.023,-0.034
17,-0.029,-0.034
18,-0.053,-0.034
19,-0.071,-0.034
20,-0.100,-0.078
21,-0.112,-0.078
22,-0.159,-0.078
23,-0.485,-0.078
24,-,-0.118
25,-,-0.118
26,-,-0.118
27,-,-0.118
28,-0.396,-0.155
29,-0.290,-0.155
30,-0.307,-0.155
31,-0.360,-0.155
32,-0.360,-0.185
33,-0.337,-0.185
34,-0.325,-0.185
35,-0.325,-0.185
36,-0.325,-0.211
37,-0.307,-0.211
38,-0.295,-0.211
39,-0.295,-0.211
40,-0.307,-0.241
41,-0.313,-0.241
42,-0.325,-0.241
43,-0.349,-0.241
44,-0.360,-0.263
45,-0.378,-0.263
46,-0.390,-0.263
47,-0.378,-0.263
48,-0.355,-0.285
49,-0.295,-0.285
50,-0.260,-0.285
51,-0.207,-0.285
52,-0.159,-0.300
53,-0.118,-0.300
54,-0.077,-0.300
55,-0.035,-0.300
56,-0.011,-0.315
57,0.001,-0.315
58,0.006,-0.315
59,0.001,-0.315
60,0.006,-0.326
61,0.006,-0.326
62,0.001,-0.326
63,0.001,-0.326
64,0.001,-0.337
65,-0.005,-0.337
66,-0.011,-0.337
67,-0.011,-0.337
68,-0.011,-0.344
69,-0.011,-0.344
70,-0.011,-0.344
71,-0.011,-0.344
72,-0.005,-0.348
73,-0.005,-0.348
74,-0.005,-0.348
75,0.001,-0.348
76,0.001,-0.355
77,0.001,-0.355
78,0.006,-0.355
79,0.006,-0.355
80,0.006,-0.359
81,0.012,-0.359
82,0.012,-0.359
83,0.012,-0.359
84,0.012,-0.363
85,0.006,-0.363
86,0.012,-0.363
87,0.012,-0.363
88,0.012,-0.367
89,0.012,-0.367
90,0.012,-0.367
91,0.012,-0.367
92,0.012,-0.374
93,0.012,-0.374
94,0.006,-0.374
95,0.006,-0.374
96,0.012,-0.378
97,0.006,-0.378
98,0.006,-0.378
99,0.006,-0.378
100,0.001,-0.382
101,-0.005,-0.382
102,-0.005,-0.382
103,-0.011,-0.382
104,-0.005,-0.386
105,-0.005,-0.386
106,-0.005,-0.386
107,-0.005,-0.386
108,0.001,-0.393
109,0.001,-0.393
110,0.001,-0.393
111,0.001,-0.393
112,0.001,-0.397
113,-0.005,-0.397
114,0.001,-0.397
115,0.001,-0.397
116,0.001,-0.404
117,-0.005,-0.404
118,-0.005,-0.404
119,-0.005,-0.404
120,-0.011,-0.411
121,-0.011,-0.411
122,-0.011,-0.411
123,-0.011,-0.411
124,-0.011,-0.415
125,-0.023,-0.415
126,-0.023,-0.415
127,-0.023,-0.415
128,-0.023,-0.422
129,-0.035,-0.422
130,-0.029,-0.422
131,-0.029,-0.422
132,-0.029,-0.433
133,-0.029,-0.433
134,-0.035,-0.433
135,-0.035,-0.433
136,-0.047,-0.441
137,-0.035,-0.441
138,-0.047,-0.441
139,-0.047,-0.441
140,-0.035,-0.452
141,-0.035,-0.452
142,-0.029,-0.452
143,-0.035,-0.452
144,-0.035,-0.463
145,-0.029,-0.463
146,-0.029,-0.463
147,-0.023,-0.463
148,-0.023,-0.463
149,-0.023,-0.463
150,-0.023,-0.463
151,-0.029,-0.463
152,-0.029,-0.467
153,-0.023,-0.467
154,-0.023,-0.467
155,-0.023,-0.467
156,-0.011,-0.460
157,-0.005,-0.460
158,-0.005,-0.460
159,-0.005,-0.460
160,-0.005,-0.441
161,-0.005,-0.441
162,-0.005,-0.441
163,-0.005,-0.441
164,-0.005,-0.422
165,0.006,-0.422
166,0.012,-0.422
167,0.012,-0.422
168,-0.011,-0.386
169,-0.011,-0.386
170,-0.005,-0.386
171,-0.035,-0.386
172,-0.142,-0.348
173,-0.260,-0.348
174,-0.337,-0.348
175,-0.443,-0.348
176,-0.485,-0.300
177,-0.378,-0.300
178,-0.201,-0.300
179,-0.088,-0.300
180,-0.088,-0.244
181,-0.112,-0.244
182,-0.112,-0.244
183,-0.094,-0.244
184,-0.065,-0.189
185,-0.047,-0.189
186,-0.023,-0.189
187,-0.005,-0.189
188,0.012,-0.130
189,0.024,-0.130
190,0.024,-0.130
191,0.024,-0.130
192,0.012,-0.059
193,0.012,-0.059
194,0.006,-0.059
195,0.006,-0.059
196,0.001,0.000
197,0.006,0.000
198,0.012,0.000
199,0.024,0.000
200,0.024,0.063
201,0.030,0.063
202,0.036,0.063
203,0.048,0.063
204,0.066,0.122
205,0.077,0.122
206,0.089,0.122
207,0.113,0.122
208,0.113,0.183
209,0.119,0.183
210,0.131,0.183
211,0.142,0.183
212,0.160,0.237
213,0.166,0.237
214,0.178,0.237
215,0.184,0.237
216,0.184,0.286
217,0.196,0.286
218,0.196,0.286
219,0.196,0.286
220,0.196,0.329
221,0.202,0.329
222,0.202,0.329
223,0.202,0.329
224,0.196,0.367
225,0.196,0.367
226,0.202,0.367
227,0.196,0.367
228,0.196,0.401
229,0.184,0.401
230,0.196,0.401
231,0.184,0.401
232,0.196,0.424
233,0.184,0.424
234,0.184,0.424
235,0.184,0.424
236,0.184,0.440
237,0.184,0.440
238,0.184,0.440
239,0.184,0.440
240,0.184,0.447
241,0.184,0.447
242,0.184,0.447
243,0.184,0.447
244,0.184,0.459
245,0.196,0.459
246,0.196,0.459
247,0.196,0.459
248,0.202,0.451
249,0.202,0.451
250,0.202,0.451
251,0.196,0.451
252,0.196,0.443
253,0.184,0.443
254,0.178,0.443
255,0.178,0.443
256,0.166,0.428
257,0.160,0.428
258,0.160,0.428
259,0.142,0.428
260,0.137,0.412
261,0.131,0.412
262,0.119,0.412
263,0.113,0.412
264,0.101,0.382
265,0.095,0.382
266,0.077,0.382
267,0.072,0.382
268,0.048,0.359
269,0.036,0.359
270,0.030,0.359
271,0.024,0.359
272,0.030,0.325
273,0.012,0.325
274,0.012,0.325
275,0.012,0.325
276,0.006,0.279
277,0.006,0.279
278,0.001,0.279
279,0.001,0.279
280,-0.005,0.237
281,0.001,0.237
282,0.001,0.237
283,0.001,0.237
284,0.001,0.195
285,-0.005,0.195
286,0.001,0.195
287,-0.005,0.195
288,-0.005,0.149
289,0.001,0.149
290,0.001,0.149
291,0.001,0.149
292,0.001,0.100
293,0.001,0.100
294,0.001,0.100
295,0.006,0.100
296,0.001,0.050
297,0.006,0.050
298,0.006,0.050
299,0.001,0.050
300,0.001,0.007
301,-0.023,0.007
302,-0.029,0.007
303,-0.035,0.007
304,-0.053,-0.035
305,-0.047,-0.035
306,-0.047,-0.035
307,-0.035,-0.035
308,-0.029,-0.076
309,-0.011,-0.076
310,-0.005,-0.076
311,0.001,-0.076
312,-0.005,-0.111
313,-0.005,-0.111
314,0.001,-0.111
315,-0.047,-0.111
316,-0.201,-0.149
317,-0.420,-0.149
318,-0.532,-0.149
319,-,-0.149
320,-,-0.179
321,-0.313,-0.179
322,-0.094,-0.179
323,0.001,-0.179
324,-0.023,-0.214
325,-0.136,-0.214
326,-0.272,-0.214
327,-0.360,-0.214
328,-0.390,-0.237
329,-0.414,-0.237
330,-0.414,-0.237
331,-0.420,-0.237
332,-0.396,-0.264
333,-0.355,-0.264
334,-0.307,-0.264
335,-0.260,-0.264
336,-0.219,-0.282
337,-0.159,-0.282
338,-0.136,-0.282
339,-0.112,-0.282
340,-0.088,-0.301
341,-0.053,-0.301
342,-0.023,-0.301
343,0.001,-0.301
344,0.024,-0.321
345,0.036,-0.321
346,0.054,-0.321
347,0.066,-0.321
348,0.072,-0.329
349,0.072,-0.329
350,0.077,-0.329
351,0.089,-0.329
352,0.089,-0.340
353,0.095,-0.340
354,0.095,-0.340
355,0.095,-0.340
356,0.101,-0.351
357,0.095,-0.351
358,0.101,-0.351
359,0.095,-0.351
360,0.089,-0.351
361,0.089,-0.351
362,0.089,-0.351
363,0.077,-0.351
364,0.072,-0.363
365,0.066,-0.363
366,0.054,-0.363
367,0.054,-0.363
368,0.048,-0.363
369,0.036,-0.363
370,0.030,-0.363
371,0.030,-0.363
372,0.024,-0.366
373,0.024,-0.366
374,0.024,-0.366
375,0.006,-0.366
376,0.006,-0.370
377,0.001,-0.370
378,0.001,-0.370
379,0.001,-0.370
380,-0.005,-0.374
381,-0.005,-0.374
382,-0.005,-0.374
383,-0.005,-0.374
384,-0.011,-0.382
385,-0.011,-0.382
386,-0.023,-0.382
387,-0.029,-0.382
388,-0.023,-0.382
389,-0.029,-0.382
390,-0.023,-0.382
391,-0.029,-0.382
392,-0.029,-0.386
393,-0.029,-0.386
394,-0.029,-0.386
395,-0.023,-0.386
396,-0.023,-0.382
397,-0.011,-0.382
398,-0.011,-0.382
399,-0.005,-0.382
400,-0.005,-0.386
401,-0.005,-0.386
402,-0.005,-0.386
403,-0.005,-0.386
404,-0.005,-0.390
405,-0.005,-0.390
406,0.001,-0.390
407,0.001,-0.390
408,0.001,-0.390
409,0.001,-0.390
410,0.001,-0.390
411,0.001,-0.390
412,0.006,-0.397
413,0.006,-0.397
414,0.006,-0.397
415,0.012,-0.397
416,0.024,-0.401
417,0.012,-0.401
418,0.012,-0.401
419,0.012,-0.401
420,0.012,-0.412
421,0.012,-0.412
422,0.012,-0.412
423,0.024,-0.412
424,0.024,-0.416
425,0.030,-0.416
426,0.030,-0.416
427,0.024,-0.416
428,0.030,-0.424
429,0.030,-0.424
430,0.036,-0.424
431,0.036,-0.424
432,0.036,-0.428
433,0.036,-0.428
434,0.036,-0.428
435,0.048,-0.428
436,0.036,-0.424
437,0.048,-0.424
438,0.036,-0.424
439,0.048,-0.424
440,0.048,-0.412
441,0.048,-0.412
442,0.054,-0.412
443,0.054,-0.412
444,0.066,-0.394
445,0.054,-0.394
446,0.054,-0.394
447,0.066,-0.394
448,0.066,-0.370
449,0.072,-0.370
450,0.072,-0.370
451,0.072,-0.370
452,0.072,-0.340
453,0.072,-0.340
454,0.072,-0.340
455,0.072,-0.340
456,0.072,-0.294
457,0.072,-0.294
458,0.077,-0.294
459,0.072,-0.294
460,0.077,-0.244
461,0.077,-0.244
462,0.066,-0.244
463,0.048,-0.244
464,0.077,-0.191
465,-0.005,-0.191
466,-0.136,-0.191
467,-0.248,-0.191
468,-0.355,-0.126
469,-0.437,-0.126
470,-0.390,-0.126
471,-0.225,-0.126
472,-0.077,-0.065
473,-0.077,-0.065
474,-0.100,-0.065
475,-0.100,-0.065
476,-0.088,0.000
477,-0.071,0.000
478,-0.053,0.000
479,-0.047,0.000
480,-0.029,0.061
481,-0.023,0.061
482,-0.011,0.061
483,-0.005,0.061
484,-0.011,0.126
485,0.001,0.126
486,0.012,0.126
487,0.030,0.126
488,0.036,0.183
489,0.048,0.183
490,0.054,0.183
491,0.066,0.183
492,0.066,0.241
493,0.066,0.241
494,0.072,0.241
495,0.077,0.241
496,0.089,0.290
497,0.101,0.290
498,0.113,0.290
499,0.131,0.290
500,0.142,0.337
501,0.154,0.337
502,0.154,0.337
503,0.154,0.337
504,0.154,0.374
505,0.160,0.374
506,0.154,0.374
507,0.160,0.374
508,0.160,0.409
509,0.160,0.409
510,0.154,0.409
511,0.154,0.409
512,0.154,0.443
513,0.154,0.443
514,0.166,0.443
515,0.160,0.443
516,0.166,0.463
517,0.160,0.463
518,0.166,0.463
519,0.160,0.463
520,0.166,0.474
521,0.166,0.474
522,0.166,0.474
523,0.178,0.474
524,0.178,0.485
525,0.178,0.485
526,0.178,0.485
527,0.184,0.485
528,0.196,0.485
529,0.196,0.485
530,0.196,0.485
531,0.202,0.485
532,0.208,0.485
533,0.208,0.485
534,0.202,0.485
535,0.202,0.485
536,0.196,0.474
537,0.196,0.474
538,0.196,0.474
539,0.196,0.474
540,0.196,0.459
541,0.184,0.459
542,0.184,0.459
543,0.184,0.459
544,0.178,0.443
545,0.178,0.443
546,0.178,0.443
547,0.178,0.443
548,0.166,0.416
549,0.160,0.416
550,0.154,0.416
551,0.142,0.416
552,0.137,0.394
553,0.131,0.394
554,0.113,0.394
555,0.119,0.394
556,0.113,0.363
557,0.101,0.363
558,0.095,0.363
559,0.077,0.363
560,0.077,0.325
561,0.066,0.325
562,0.054,0.325
563,0.048,0.325
564,0.036,0.286
565,0.030,0.286
566,0.024,0.286
567,0.024,0.286
568,0.012,0.252
569,0.006,0.252
570,0.006,0.252
571,0.001,0.252
572,0.001,0.206
573,0.001,0.206
574,0.001,0.206
575,-0.005,0.206
576,-0.005,0.165
577,-0.011,0.165
578,-0.005,0.165
579,-0.011,0.165
580,-0.023,0.122
581,-0.011,0.122
582,-0.029,0.122
583,-0.035,0.122
584,-0.053,0.081
585,-0.071,0.081
586,-0.088,0.081
587,-0.094,0.081
588,-0.094,0.038
589,-0.094,0.038
590,-0.077,0.038
591,-0.071,0.038
592,-0.065,-0.007
593,-0.053,-0.007
594,-0.053,-0.007
595,-0.065,-0.007
596,-0.065,-0.046
597,-0.053,-0.046
598,-0.065,-0.046
599,-0.077,-0.046
600,-0.100,-0.084
601,-0.118,-0.084
602,-0.118,-0.084
603,-0.118,-0.084
604,-0.112,-0.122
605,-0.100,-0.122
606,-0.077,-0.122
607,-0.130,-0.122
608,-0.230,-0.152
609,-0.331,-0.152
610,-0.414,-0.152
611,-0.467,-0.152
612,-,-0.183
613,-,-0.183
614,-0.455,-0.183
615,-0.272,-0.183
616,-0.142,-0.210
617,-0.094,-0.210
618,-0.071,-0.210
619,-0.035,-0.210
620,0.006,-0.237
621,0.030,-0.237
622,0.048,-0.237
623,0.054,-0.237
624,0.066,-0.260
625,0.072,-0.260
626,0.066,-0.260
627,0.054,-0.260
628,0.030,-0.279
629,0.012,-0.279
630,0.006,-0.279
631,0.006,-0.279
632,0.006,-0.298
633,0.001,-0.298
634,0.001,-0.298
635,0.001,-0.298
636,-0.005,-0.309
637,0.001,-0.309
638,0.001,-0.309
639,0.024,-0.309
640,0.024,-0.321
641,0.036,-0.321
642,0.048,-0.321
643,0.066,-0.321
644,0.072,-0.333
645,0.077,-0.333
646,0.095,-0.333
647,0.095,-0.333
648,0.113,-0.336
649,0.119,-0.336
650,0.119,-0.336
651,0.131,-0.336
652,0.137,-0.347
653,0.142,-0.347
654,0.142,-0.347
655,0.154,-0.347
656,0.160,-0.347
657,0.160,-0.347
658,0.166,-0.347
659,0.166,-0.347
660,0.160,-0.355
661,0.160,-0.355
662,0.160,-0.355
663,0.160,-0.355
664,0.160,-0.359
665,0.154,-0.359
666,0.154,-0.359
667,0.154,-0.359
668,0.142,-0.366
669,0.137,-0.366
670,0.131,-0.366
671,0.119,-0.366
672,0.119,-0.366
673,0.119,-0.366
674,0.113,-0.366
675,0.101,-0.366
676,0.101,-0.370
677,0.095,-0.370
678,0.089,-0.370
679,0.089,-0.370
680,0.077,-0.366
681,0.077,-0.366
682,0.077,-0.366
683,0.077,-0.366
684,0.072,-0.366
685,0.072,-0.366
686,0.072,-0.366
687,0.066,-0.366
688,0.066,-0.366
689,0.054,-0.366
690,0.072,-0.366
691,0.054,-0.366
692,0.054,-0.370
693,0.048,-0.370
694,0.036,-0.370
695,0.036,-0.370
696,0.030,-0.370
697,0.030,-0.370
698,0.024,-0.370
699,0.024,-0.370
700,0.024,-0.366
701,0.006,-0.366
702,0.006,-0.366
703,0.001,-0.366
704,0.006,-0.370
705,0.001,-0.370
706,0.001,-0.370
707,0.001,-0.370
708,0.001,-0.370
709,0.001,-0.370
710,0.001,-0.370
711,0.001,-0.370
712,0.001,-0.366
713,0.001,-0.366
714,0.006,-0.366
715,0.006,-0.366
716,0.006,-0.359
717,0.006,-0.359
718,0.012,-0.359
719,0.006,-0.359
720,0.006,-0.359
721,0.012,-0.359
722,0.012,-0.359
723,0.024,-0.359
724,0.024,-0.344
725,0.024,-0.344
726,0.024,-0.344
727,0.024,-0.344
728,0.030,-0.312
729,0.030,-0.312
730,0.030,-0.312
731,0.030,-0.312
732,0.048,-0.277
733,0.048,-0.277
734,0.048,-0.277
735,0.048,-0.277
736,0.048,-0.238
737,0.066,-0.238
738,0.054,-0.238
739,0.054,-0.238
740,0.048,-0.188
741,0.054,-0.188
742,0.024,-0.188
743,-0.159,-0.188
744,-0.349,-0.129
745,-,-0.129
746,-,-0.129
747,-,-0.129
748,-0.331,-0.074
749,-0.071,-0.074
750,0.001,-0.074
751,-0.077,-0.074
752,-0.183,-0.011
753,-0.242,-0.011
754,-0.266,-0.011
755,-0.266,-0.011
756,-0.260,0.051
757,-0.266,0.051
758,-0.290,0.051
759,-0.295,0.051
760,-0.290,0.110
761,-0.290,0.110
762,-0.272,0.110
763,-0.248,0.110
764,-0.225,0.168
765,-0.195,0.168
766,-0.165,0.168
767,-0.136,0.168
768,-0.112,0.227
769,-0.088,0.227
770,-0.065,0.227
771,-0.047,0.227
772,-0.023,0.278
773,-0.005,0.278
774,0.012,0.278
775,0.024,0.278
776,0.036,0.329
777,0.048,0.329
778,0.066,0.329
779,0.077,0.329
780,0.089,0.371
781,0.095,0.371
782,0.101,0.371
783,0.113,0.371
784,0.101,0.410
785,0.113,0.410
786,0.113,0.410
787,0.113,0.410
788,0.113,0.446
789,0.113,0.446
790,0.101,0.446
791,0.101,0.446
792,0.095,0.477
793,0.089,0.477
794,0.077,0.477
795,0.077,0.477
796,0.072,0.496
797,0.072,0.496
798,0.077,0.496
799,0.072,0.496
800,0.072,0.516
801,0.072,0.516
802,0.072,0.516
803,0.072,0.516
804,0.066,0.527
805,0.066,0.527
806,0.066,0.527
807,0.072,0.527
808,0.072,0.539
809,0.077,0.539
810,0.077,0.539
811,0.089,0.539
812,0.089,0.535
813,0.089,0.535
814,0.089,0.535
815,0.089,0.535
816,0.077,0.535
817,0.072,0.535
818,0.072,0.535
819,0.066,0.535
820,0.054,0.520
821,0.054,0.520
822,0.048,0.520
823,0.048,0.520
824,0.036,0.512
825,0.036,0.512
826,0.030,0.512
827,0.030,0.512
828,0.030,0.484
829,0.030,0.484
830,0.030,0.484
831,0.024,0.484
832,0.012,0.465
833,0.012,0.465
834,0.012,0.465
835,0.006,0.465
836,0.006,0.434
837,0.001,0.434
838,0.001,0.434
839,0.006,0.434
840,0.001,0.403
841,0.001,0.403
842,0.001,0.403
843,-0.005,0.403
844,-0.005,0.371
845,-0.005,0.371
846,0.001,0.371
847,0.001,0.371
848,0.001,0.325
849,0.001,0.325
850,0.001,0.325
851,0.001,0.325
852,0.001,0.285
853,0.006,0.285
854,0.001,0.285
855,0.006,0.285
856,0.006,0.242
857,0.006,0.242
858,0.006,0.242
859,0.006,0.242
860,0.012,0.192
861,0.006,0.192
862,0.006,0.192
863,0.006,0.192
864,0.006,0.152
865,0.001,0.152
866,-0.023,0.152
867,-0.023,0.152
868,-0.035,0.105
869,-0.047,0.105
870,-0.047,0.105
871,-0.053,0.105
872,-0.035,0.059
873,-0.029,0.059
874,-0.011,0.059
875,-0.011,0.059
876,-0.011,0.020
877,-0.011,0.020
878,-0.011,0.020
879,-0.011,0.020
880,-0.023,-0.027
881,-0.047,-0.027
882,-0.094,-0.027
883,-0.118,-0.027
884,-0.260,-0.066
885,-0.426,-0.066
886,-,-0.066
887,-,-0.066
888,-,-0.105
889,-0.485,-0.105
890,-0.219,-0.105
891,-0.065,-0.105
892,-0.071,-0.141
893,-0.195,-0.141
894,-0.290,-0.141
895,-0.307,-0.141
896,-0.272,-0.179
897,-0.230,-0.179
898,-0.219,-0.179
899,-0.230,-0.179
900,-0.260,-0.210
901,-0.260,-0.210
902,-0.260,-0.210
903,-0.248,-0.210
904,-0.219,-0.238
905,-0.195,-0.238
906,-0.154,-0.238
907,-0.118,-0.238
908,-0.088,-0.266
909,-0.065,-0.266
910,-0.047,-0.266
911,-0.029,-0.266
912,-0.023,-0.289
913,-0.011,-0.289
914,-0.005,-0.289
915,0.001,-0.289
916,0.006,-0.312
917,0.006,-0.312
918,0.006,-0.312
919,0.012,-0.312
920,0.024,-0.328
921,0.030,-0.328
922,0.036,-0.328
923,0.048,-0.328
924,0.048,-0.347
925,0.054,-0.347
926,0.048,-0.347
927,0.048,-0.347
928,0.048,-0.355
929,0.048,-0.355
930,0.048,-0.355
931,0.036,-0.355
932,0.036,-0.371
933,0.030,-0.371
934,0.024,-0.371
935,0.012,-0.371
936,0.006,-0.383
937,0.006,-0.383
938,0.001,-0.383
939,0.001,-0.383
940,-0.011,-0.395
941,-0.011,-0.395
942,-0.011,-0.395
943,-0.023,-0.395
944,-0.023,-0.402
945,-0.029,-0.402
946,-0.029,-0.402
947,-0.029,-0.402
948,-0.029,-0.414
949,-0.029,-0.414
950,-0.029,-0.414
951,-0.029,-0.414
952,-0.035,-0.417
953,-0.035,-0.417
954,-0.035,-0.417
955,-0.035,-0.417
956,-0.035,-0.421
957,-0.035,-0.421
958,-0.035,-0.421
959,-0.047,-0.421
960,-0.035,-0.429
961,-0.035,-0.429
962,-0.035,-0.429
963,-0.047,-0.429
964,-0.035,-0.429
965,-0.035,-0.429
966,-0.035,-0.429
967,-0.035,-0.429
968,-0.035,-0.433
969,-0.047,-0.433
970,-0.035,-0.433
971,-0.047,-0.433
972,-0.047,-0.429
973,-0.047,-0.429
974,-0.047,-0.429
975,-0.047,-0.429
976,-0.053,-0.467
977,-0.053,-0.467
978,-0.053,-0.467
979,-0.047,-0.467
980,-0.047,-0.467
981,-0.035,-0.467
982,-0.035,-0.467
983,-0.029,-0.467
984,-0.023,-0.470
985,-0.023,-0.470
986,-0.011,-0.470
987,-0.005,-0.470
988,0.006,-0.470
989,0.006,-0.470
990,0.024,-0.470
991,0.024,-0.470
992,0.030,-0.470
993,0.036,-0.470
994,0.036,-0.470
995,0.048,-0.470
996,0.036,-0.458
997,0.048,-0.458
998,0.054,-0.458
999,0.054,-0.458
1000,0.054,-0.450
1001,0.054,-0.450
1002,0.054,-0.450
1003,0.054,-0.450
1004,0.054,-0.433
1005,0.066,-0.433
1006,0.066,-0.433
1007,0.072,-0.433
1008,0.072,-0.405
1009,0.072,-0.405
1010,0.066,-0.405
1011,0.072,-0.405
1012,0.077,-0.371
1013,0.072,-0.371
1014,0.077,-0.371
1015,0.089,-0.371
1016,0.077,-0.335
1017,0.072,-0.335
1018,0.072,-0.335
1019,0.054,-0.335
1020,-0.005,-0.281
1021,-0.230,-0.281
1022,-,-0.281
1023,-,-0.281
1024,-,-0.231
1025,-0.503,-0.231
1026,-0.284,-0.231
1027,-0.142,-0.231
1028,-0.130,-0.173
1029,-0.230,-0.173
1030,-0.307,-0.173
1031,-0.331,-0.173
1032,-0.337,-0.107
1033,-0.349,-0.107
1034,-0.331,-0.107
1035,-0.325,-0.107
1036,-0.295,-0.045
1037,-0.272,-0.045
1038,-0.266,-0.045
1039,-0.230,-0.045
1040,-0.201,0.021
1041,-0.159,0.021
1042,-0.118,0.021
1043,-0.112,0.021
1044,-0.088,0.086
1045,-0.077,0.086
1046,-0.071,0.086
1047,-0.071,0.086
1048,-0.053,0.144
1049,-0.053,0.144
1050,-0.035,0.144
1051,-0.023,0.144
1052,0.006,0.198
1053,0.036,0.198
1054,0.077,0.198
1055,0.101,0.198
1056,0.131,0.260
1057,0.131,0.260
1058,0.131,0.260
1059,0.101,0.260
1060,0.077,0.309
1061,0.054,0.309
1062,0.054,0.309
1063,0.066,0.309
1064,0.066,0.358
1065,0.054,0.358
1066,0.036,0.358
1067,0.024,0.358
1068,-0.011,0.400
1069,-0.071,0.400
1070,-0.112,0.400
1071,-0.159,0.400
1072,-0.177,0.437
1073,-0.165,0.437
1074,-0.142,0.437
1075,-0.118,0.437
1076,-0.088,0.466
1077,-0.065,0.466
1078,-0.047,0.466
1079,-0.029,0.466
1080,-0.023,0.495
1081,-0.005,0.495
1082,0.001,0.495
1083,0.006,0.495
1084,0.001,0.511
1085,0.006,0.511
1086,0.012,0.511
1087,0.006,0.511
1088,0.006,0.519
1089,0.006,0.519
1090,0.006,0.519
1091,0.001,0.519
1092,0.001,0.532
1093,-0.005,0.532
1094,-0.011,0.532
1095,-0.011,0.532
1096,-0.011,0.528
1097,-0.011,0.528
1098,-0.023,0.528
1099,-0.011,0.528
1100,-0.011,0.523
1101,-0.011,0.523
1102,-0.023,0.523
1103,-0.011,0.523
1104,-0.011,0.511
1105,-0.011,0.511
1106,-0.005,0.511
1107,-0.005,0.511
1108,-0.005,0.490
1109,-0.005,0.490
1110,-0.005,0.490
1111,-0.005,0.490
1112,-0.011,0.470
1113,-0.005,0.470
1114,-0.011,0.470
1115,-0.005,0.470
1116,-0.005,0.437
1117,-0.005,0.437
1118,-0.005,0.437
1119,-0.011,0.437
1120,-0.005,0.396
1121,-0.011,0.396
1122,-0.011,0.396
1123,-0.005,0.396
1124,-0.011,0.358
1125,-0.011,0.358
1126,-0.023,0.358
1127,-0.011,0.358
1128,-0.011,0.309
1129,-0.011,0.309
1130,-0.011,0.309
1131,-0.011,0.309
1132,-0.005,0.264
1133,-0.005,0.264
1134,-0.005,0.264
1135,-0.005,0.264
1136,-0.005,0.214
1137,-0.005,0.214
1138,-0.005,0.214
1139,0.001,0.214
1140,-0.005,0.161
1141,0.006,0.161
1142,0.001,0.161
1143,0.001,0.161
1144,0.001,0.116
1145,0.001,0.116
1146,0.006,0.116
1147,0.006,0.116
1148,0.012,0.061
1149,0.012,0.061
1150,0.012,0.061
1151,0.012,0.061
1152,0.012,0.012
1153,0.012,0.012
1154,0.012,0.012
1155,0.024,0.012
1156,0.024,-0.037
1157,0.024,-0.037
1158,0.012,-0.037
1159,0.001,-0.037
1160,0.012,-0.087
1161,-0.088,-0.087
1162,-0.313,-0.087
1163,-,-0.087
1164,-,-0.132
1165,-,-0.132
1166,-0.508,-0.132
1167,-0.207,-0.132
1168,-0.047,-0.177
1169,-0.029,-0.177
1170,-0.094,-0.177
1171,-0.130,-0.177
1172,-0.112,-0.219
1173,-0.088,-0.219
1174,-0.071,-0.219
1175,-0.077,-0.219
1176,-0.100,-0.252
1177,-0.142,-0.252
1178,-0.177,-0.252
1179,-0.195,-0.252
1180,-0.201,-0.285
1181,-0.195,-0.285
1182,-0.183,-0.285
1183,-0.159,-0.285
1184,-0.142,-0.314
1185,-0.136,-0.314
1186,-0.118,-0.314
1187,-0.100,-0.314
1188,-0.094,-0.335
1189,-0.088,-0.335
1190,-0.071,-0.335
1191,-0.065,-0.335
1192,-0.047,-0.351
1193,-0.029,-0.351
1194,-0.005,-0.351
1195,0.006,-0.351
1196,0.024,-0.359
1197,0.066,-0.359
1198,0.072,-0.359
1199,0.089,-0.359
1200,0.101,-0.363
1201,0.119,-0.363
1202,0.137,-0.363
1203,0.137,-0.363
1204,0.142,-0.359
1205,0.142,-0.359
1206,0.160,-0.359
1207,0.154,-0.359
1208,0.154,-0.346
1209,0.154,-0.346
1210,0.142,-0.346
1211,0.142,-0.346
1212,0.137,-0.326
1213,0.137,-0.326
1214,0.137,-0.326
1215,0.131,-0.326
1216,0.131,-0.305
1217,0.131,-0.305
1218,0.131,-0.305
1219,0.131,-0.305
1220,0.131,-0.277
1221,0.131,-0.277
1222,0.131,-0.277
1223,0.131,-0.277
1224,0.131,-0.247
1225,0.137,-0.247
1226,0.131,-0.247
1227,0.119,-0.247
1228,0.119,-0.219
1229,0.119,-0.219
1230,0.119,-0.219
1231,0.119,-0.219
1232,0.113,-0.219
1233,0.113,-0.219
1234,0.101,-0.219
1235,0.101,-0.219
1236,0.095,-0.194
1237,0.089,-0.194
1238,0.089,-0.194
1239,0.095,-0.194
1240,0.077,-0.168
1241,0.077,-0.168
1242,0.077,-0.168
1243,0.072,-0.168
1244,0.072,-0.150
1245,0.072,-0.150
1246,0.072,-0.150
1247,0.072,-0.150
1248,0.072,-0.133
1249,0.072,-0.133
1250,0.066,-0.133
1251,0.066,-0.133
1252,0.054,-0.129
1253,0.054,-0.129
1254,0.048,-0.129
1255,0.048,-0.129
1256,0.048,-0.129
1257,0.048,-0.129
1258,0.048,-0.129
1259,0.036,-0.129
1260,0.036,-0.133
1261,0.024,-0.133
1262,0.030,-0.133
1263,0.030,-0.133
1264,0.030,-0.146
1265,0.030,-0.146
1266,0.024,-0.146
1267,0.024,-0.146
1268,0.024,-0.159
1269,0.024,-0.159
1270,0.012,-0.159
1271,0.024,-0.159
1272,0.024,-0.189
1273,0.024,-0.189
1274,0.024,-0.189
1275,0.012,-0.189
1276,0.024,-0.215
1277,0.012,-0.215
1278,0.012,-0.215
1279,0.012,-0.215
1280,0.012,-0.249
1281,0.024,-0.249
1282,0.024,-0.249
1283,0.024,-0.249
1284,0.012,-0.279
1285,0.024,-0.279
1286,0.024,-0.279
1287,0.012,-0.279
1288,0.024,-0.322
1289,0.024,-0.322
1290,0.030,-0.322
1291,0.030,-0.322
1292,0.036,-0.361
1293,0.036,-0.361
1294,0.036,-0.361
1295,0.048,-0.361
1296,0.036,-0.391
1297,0.036,-0.391
1298,0.030,-0.391
1299,0.036,-0.391
1300,-0.094,-0.434
1301,-0.272,-0.434
1302,-0.503,-0.434
1303,-,-0.434
1304,-,-0.472
1305,-0.396,-0.472
1306,-0.142,-0.472
1307,-0.011,-0.472
1308,0.006,-0.502
1309,-0.011,-0.502
1310,-0.053,-0.502
1311,-0.077,-0.502
1312,-0.094,-0.537
1313,-0.077,-0.537
1314,-0.065,-0.537
1315,-0.071,-0.537
1316,-0.094,-0.567
1317,-0.118,-0.567
1318,-0.136,-0.567
1319,-0.154,-0.567
1320,-0.142,-0.597
1321,-0.142,-0.597
1322,-0.136,-0.597
1323,-0.130,-0.597
1324,-0.118,-0.623
1325,-0.118,-0.623
1326,-0.100,-0.623
1327,-0.094,-0.623
1328,-0.077,-0.644
1329,-0.071,-0.644
1330,-0.053,-0.644
1331,-0.035,-0.644
1332,-0.023,-0.661
1333,-0.011,-0.661
1334,0.001,-0.661
1335,0.006,-0.661
1336,0.024,-0.674
1337,0.030,-0.674
1338,0.036,-0.674
1339,0.054,-0.674
1340,0.072,-0.688
1341,0.089,-0.688
1342,0.095,-0.688
1343,0.101,-0.688
1344,0.101,-0.696
1345,0.101,-0.696
1346,0.113,-0.696
1347,0.119,-0.696
1348,0.113,-0.705
1349,0.113,-0.705
1350,0.113,-0.705
1351,0.101,-0.705
1352,0.101,-0.709
1353,0.101,-0.709
1354,0.101,-0.709
1355,0.113,-0.709
1356,0.113,-0.713
1357,0.101,-0.713
1358,0.095,-0.713
1359,0.089,-0.713
1360,0.072,-0.713
1361,0.054,-0.713
1362,0.048,-0.713
1363,0.036,-0.713
1364,0.036,-0.713
1365,0.036,-0.713
1366,0.048,-0.713
1367,0.048,-0.713
1368,0.048,-0.713
1369,0.048,-0.713
1370,0.030,-0.713
1371,0.024,-0.713
1372,0.030,-0.705
1373,0.024,-0.705
1374,0.006,-0.705
1375,-0.035,-0.705
1376,-0.077,-0.696
1377,-0.094,-0.696
1378,-0.077,-0.696
1379,-0.065,-0.696
1380,-0.047,-0.688
1381,-0.047,-0.688
1382,-0.035,-0.688
1383,-0.047,-0.688
1384,-0.071,-0.679
1385,-0.100,-0.679
1386,-0.136,-0.679
1387,-0.165,-0.679
1388,-0.177,-0.666
1389,-0.159,-0.666
1390,-0.142,-0.666
1391,-0.118,-0.666
1392,-0.088,-0.657
1393,-0.071,-0.657
1394,-0.047,-0.657
1395,-0.029,-0.657
1396,-0.023,-0.657
1397,-0.005,-0.657
1398,-0.005,-0.657
1399,0.006,-0.657
1400,0.006,-0.653
1401,0.001,-0.653
1402,0.006,-0.653
1403,0.006,-0.653
1404,0.006,-0.649
1405,0.006,-0.649
1406,0.012,-0.649
1407,0.006,-0.649
1408,0.006,-0.649
1409,0.006,-0.649
1410,0.006,-0.649
1411,0.006,-0.649
1412,0.001,-0.657
1413,0.006,-0.657
1414,0.001,-0.657
1415,0.001,-0.657
1416,0.006,-0.666
1417,0.006,-0.666
1418,0.001,-0.666
1419,-0.005,-0.666
1420,0.001,-0.679
1421,0.001,-0.679
1422,0.001,-0.679
1423,0.006,-0.679
1424,0.001,-0.688
1425,0.006,-0.688
1426,0.006,-0.688
1427,0.001,-0.688
1428,0.006,-0.701
1429,0.006,-0.701
1430,0.006,-0.701
1431,0.006,-0.701
1432,0.006,-0.713
1433,0.006,-0.713
1434,0.006,-0.713
1435,0.001,-0.713
1436,-0.011,-0.731
1437,-0.112,-0.731
1438,-0.272,-0.731
1439,-0.437,-0.731
1440,-,-0.748
1441,-,-0.748
1442,-0.550,-0.748
1443,-0.266,-0.748
1444,-0.047,-0.765
1445,0.024,-0.765
1446,0.006,-0.765
1447,-0.047,-0.765
1448,-0.094,-0.786
1449,-0.112,-0.786
1450,-0.130,-0.786
1451,-0.142,-0.786
1452,-0.165,-0.799
1453,-0.195,-0.799
1454,-0.219,-0.799
1455,-0.207,-0.799
1456,-0.207,-0.812
1457,-0.207,-0.812
1458,-0.195,-0.812
1459,-0.183,-0.812
1460,-0.177,-0.821
1461,-0.165,-0.821
1462,-0.154,-0.821
1463,-0.130,-0.821
1464,-0.100,-0.838
1465,-0.077,-0.838
1466,-0.065,-0.838
1467,-0.029,-0.838
1468,-0.023,-0.842
1469,0.001,-0.842
1470,0.006,-0.842
1471,0.030,-0.842
1472,0.048,-0.847
1473,0.054,-0.847
1474,0.072,-0.847
1475,0.077,-0.847
1476,0.089,-0.847
1477,0.095,-0.847
1478,0.101,-0.847
1479,0.095,-0.847
1480,0.101,-0.842
1481,0.101,-0.842
1482,0.101,-0.842
1483,0.113,-0.842
1484,0.095,-0.829
1485,0.101,-0.829
1486,0.089,-0.829
1487,0.089,-0.829
1488,0.077,-0.843
1489,0.077,-0.843
1490,0.077,-0.843
1491,0.077,-0.843
1492,0.077,-0.817
1493,0.072,-0.817
1494,0.072,-0.817
1495,0.072,-0.817
1496,0.072,-0.773
1497,0.072,-0.773
1498,0.072,-0.773
1499,0.072,-0.773
1500,0.072,-0.731
1501,0.072,-0.731
1502,0.072,-0.731
1503,0.072,-0.731
1504,0.072,-0.666
1505,0.072,-0.666
1506,0.077,-0.666
1507,0.066,-0.666
1508,0.077,-0.589
1509,0.077,-0.589
1510,0.072,-0.589
1511,0.077,-0.589
1512,0.072,-0.494
1513,0.077,-0.494
1514,0.077,-0.494
1515,0.077,-0.494
1516,0.077,-0.400
1517,0.089,-0.400
1518,0.077,-0.400
1519,0.077,-0.400
1520,0.077,-0.292
1521,0.089,-0.292
1522,0.089,-0.292
1523,0.089,-0.292
1524,0.089,-0.185
1525,0.077,-0.185
1526,0.077,-0.185
1527,0.077,-0.185
1528,0.066,-0.077
1529,0.072,-0.077
1530,0.072,-0.077
1531,0.072,-0.077
1532,0.072,0.038
1533,0.066,0.038
1534,0.066,0.038
1535,0.066,0.038
1536,0.054,0.138
1537,0.048,0.138
1538,0.054,0.138
1539,0.054,0.138
1540,0.054,0.236
1541,0.054,0.236
1542,0.054,0.236
1543,0.054,0.236
1544,0.048,0.322
1545,0.048,0.322
1546,0.048,0.322
1547,0.048,0.322
1548,0.048,0.395
1549,0.036,0.395
1550,0.036,0.395
1551,0.036,0.395
1552,0.036,0.472
1553,0.030,0.472
1554,0.030,0.472
1555,0.036,0.472
1556,0.030,0.528
1557,0.036,0.528
1558,0.030,0.528
1559,0.030,0.528
1560,0.030,0.584
1561,0.030,0.584
1562,0.036,0.584
1563,0.036,0.584
1564,0.036,0.623
1565,0.036,0.623
1566,0.036,0.623
1567,0.036,0.623
1568,0.036,0.657
1569,0.048,0.657
1570,0.048,0.657
1571,0.048,0.657
1572,0.048,0.678
1573,0.030,0.678
1574,0.036,0.678
1575,0.030,0.678
1576,-0.100,0.688
1577,-0.248,0.688
1578,-0.349,0.688
1579,-0.467,0.688
1580,-0.461,0.696
1581,-0.325,0.696
1582,-0.159,0.696
1583,-0.065,0.696
1584,-0.023,0.683
1585,0.024,0.683
1586,0.072,0.683
1587,0.137,0.683
1588,0.178,0.674
1589,0.196,0.674
1590,0.166,0.674
1591,0.113,0.674
1592,0.072,0.648
1593,0.030,0.648
1594,0.001,0.648
1595,-0.023,0.648
1596,-0.035,0.623
1597,-0.047,0.623
1598,-0.053,0.623
1599,-0.047,0.623
1600,-0.035,0.584
1601,-0.035,0.584
1602,-0.029,0.584
1603,-0.023,0.584
1604,-0.011,0.550
1605,-0.005,0.550
1606,0.006,0.550
1607,0.006,0.550
1608,0.012,0.507
1609,0.012,0.507
1610,0.012,0.507
1611,0.024,0.507
1612,0.024,0.468
1613,0.024,0.468
1614,0.024,0.468
1615,0.036,0.468
1616,0.036,0.425
1617,0.048,0.425
1618,0.048,0.425
1619,0.048,0.425
1620,0.054,0.383
1621,0.054,0.383
1622,0.054,0.383
1623,0.066,0.383
1624,0.066,0.344
1625,0.072,0.344
1626,0.066,0.344
1627,0.066,0.344
1628,0.072,0.305
1629,0.072,0.305
1630,0.072,0.305
1631,0.072,0.305
1632,0.072,0.262
1633,0.072,0.262
1634,0.077,0.262
1635,0.072,0.262
1636,0.072,0.228
1637,0.072,0.228
1638,0.072,0.228
1639,0.077,0.228
1640,0.077,0.193
1641,0.089,0.193
1642,0.077,0.193
1643,0.077,0.193
1644,0.072,0.163
1645,0.054,0.163
1646,0.048,0.163
1647,0.030,0.163
1648,0.030,0.129
1649,0.024,0.129
1650,0.024,0.129
1651,0.030,0.129
1652,0.036,0.112
1653,0.066,0.112
1654,0.077,0.112
1655,0.089,0.112
1656,0.095,0.082
1657,0.095,0.082
1658,0.095,0.082
1659,0.095,0.082
1660,0.089,0.065
1661,0.066,0.065
1662,0.036,0.065
1663,0.030,0.065
1664,0.036,0.047
1665,0.066,0.047
1666,0.072,0.047
1667,0.066,0.047
1668,0.066,0.021
1669,0.048,0.021
1670,0.012,0.021
1671,-0.011,0.021
1672,-0.047,0.004
1673,-0.094,0.004
1674,-0.118,0.004
1675,-0.118,0.004
1676,-0.112,-0.021
1677,-0.077,-0.021
1678,-0.053,-0.021
1679,-0.029,-0.021
1680,-0.005,-0.048
1681,0.006,-0.048
1682,0.024,-0.048
1683,0.024,-0.048
1684,0.030,-0.073
1685,0.036,-0.073
1686,0.036,-0.073
1687,0.036,-0.073
1688,0.048,-0.099
1689,0.036,-0.099
1690,0.048,-0.099
1691,0.036,-0.099
1692,0.036,-0.129
1693,0.030,-0.129
1694,0.030,-0.129
1695,0.036,-0.129
1696,0.030,-0.159
1697,0.030,-0.159
1698,0.030,-0.159
1699,0.030,-0.159
1700,0.030,-0.194
1701,0.030,-0.194
1702,0.030,-0.194
1703,0.024,-0.194
1704,0.030,-0.215
1705,0.030,-0.215
1706,0.030,-0.215
1707,0.030,-0.215
1708,0.030,-0.249
1709,0.036,-0.249
1710,0.036,-0.249
1711,0.036,-0.249
1712,0.030,-0.284
1713,0.036,-0.284
1714,0.036,-0.284
1715,0.048,-0.284
1716,0.048,-0.309
1717,0.048,-0.309
1718,0.048,-0.309
1719,0.030,-0.309
1720,0.012,-0.344
1721,0.001,-0.344
1722,0.006,-0.344
1723,-0.112,-0.344
1724,-0.266,-0.369
1725,-0.443,-0.369
1726,-,-0.369
1727,-,-0.369
1728,-0.532,-0.404
1729,-0.284,-0.404
1730,-0.077,-0.404
1731,-0.011,-0.404
1732,-0.035,-0.425
1733,-0.071,-0.425
1734,-0.071,-0.425
1735,-0.077,-0.425
1736,-0.088,-0.447
1737,-0.100,-0.447
1738,-0.118,-0.447
1739,-0.142,-0.447
1740,-0.154,-0.473
1741,-0.165,-0.473
1742,-0.177,-0.473
1743,-0.177,-0.473
1744,-0.195,-0.438
1745,-0.195,-0.438
1746,-0.177,-0.438
1747,-0.165,-0.438
1748,-0.142,-0.450
1749,-0.136,-0.450
1750,-0.100,-0.450
1751,-0.094,-0.450
1752,-0.071,-0.469
1753,-0.053,-0.469
1754,-0.035,-0.469
1755,-0.011,-0.469
1756,0.001,-0.476
1757,0.012,-0.476
1758,0.030,-0.476
1759,0.048,-0.476
1760,0.072,-0.480
1761,0.089,-0.480
1762,0.095,-0.480
1763,0.101,-0.480
1764,0.119,-0.488
1765,0.119,-0.488
1766,0.131,-0.488
1767,0.137,-0.488
1768,0.142,-0.488
1769,0.142,-0.488
1770,0.142,-0.488
1771,0.142,-0.488
1772,0.154,-0.484
1773,0.154,-0.484
1774,0.160,-0.484
1775,0.166,-0.484
1776,0.166,-0.476
1777,0.166,-0.476
1778,0.178,-0.476
1779,0.178,-0.476
1780,0.184,-0.461
1781,0.196,-0.461
1782,0.196,-0.461
1783,0.196,-0.461
1784,0.196,-0.438
1785,0.196,-0.438
1786,0.196,-0.438
1787,0.196,-0.438
1788,0.196,-0.399
1789,0.184,-0.399
1790,0.184,-0.399
1791,0.184,-0.399
1792,0.184,-0.348
1793,0.178,-0.348
1794,0.166,-0.348
1795,0.166,-0.348
1796,0.166,-0.298
1797,0.166,-0.298
1798,0.160,-0.298
1799,0.160,-0.298
1800,0.160,-0.229
1801,0.160,-0.229
1802,0.160,-0.229
1803,0.160,-0.229
1804,0.166,-0.159
1805,0.166,-0.159
1806,0.178,-0.159
1807,0.178,-0.159
1808,0.178,-0.085
1809,0.178,-0.085
1810,0.184,-0.085
1811,0.184,-0.085
1812,0.184,-0.007
1813,0.196,-0.007
1814,0.196,-0.007
1815,0.202,-0.007
1816,0.202,0.070
1817,0.208,0.070
1818,0.202,0.070
1819,0.202,0.070
1820,0.208,0.140
1821,0.208,0.140
1822,0.219,0.140
1823,0.219,0.140
1824,0.219,0.213
1825,0.208,0.213
1826,0.219,0.213
1827,0.219,0.213
1828,0.219,0.276
1829,0.225,0.276
1830,0.219,0.276
1831,0.225,0.276
1832,0.225,0.338
1833,0.225,0.338
1834,0.225,0.338
1835,0.219,0.338
1836,0.225,0.388
1837,0.225,0.388
1838,0.225,0.388
1839,0.225,0.388
1840,0.231,0.430
1841,0.225,0.430
1842,0.225,0.430
1843,0.225,0.430
1844,0.219,0.469
1845,0.219,0.469
1846,0.219,0.469
1847,0.219,0.469
1848,0.208,0.500
1849,0.208,0.500
1850,0.202,0.500
1851,0.196,0.500
1852,0.196,0.523
1853,0.178,0.523
1854,0.178,0.523
1855,0.166,0.523
1856,0.154,0.539
1857,0.142,0.539
1858,0.131,0.539
1859,0.113,0.539
1860,0.089,0.542
1861,0.072,0.542
1862,0.054,0.542
1863,0.036,0.542
1864,0.030,0.539
1865,0.012,0.539
1866,0.012,0.539
1867,0.006,0.539
1868,0.006,0.531
1869,0.001,0.531
1870,0.001,0.531
1871,0.024,0.531
1872,0.030,0.508
1873,0.054,0.508
1874,0.089,0.508
1875,0.101,0.508
1876,0.119,0.488
1877,0.137,0.488
1878,0.142,0.488
1879,0.142,0.488
1880,0.154,0.458
1881,0.166,0.458
1882,0.184,0.458
1883,0.202,0.458
1884,0.208,0.426
1885,0.208,0.426
1886,0.202,0.426
1887,0.202,0.426
1888,0.208,0.392
1889,0.219,0.392
1890,0.231,0.392
1891,0.231,0.392
1892,0.243,0.356
1893,0.243,0.356
1894,0.243,0.356
1895,0.231,0.356
1896,0.225,0.318
1897,0.219,0.318
1898,0.208,0.318
1899,0.208,0.318
1900,0.196,0.276
1901,0.184,0.276
1902,0.178,0.276
1903,0.166,0.276
1904,0.166,0.233
1905,0.160,0.233
1906,0.160,0.233
1907,0.154,0.233
1908,0.154,0.194
1909,0.154,0.194
1910,0.142,0.194
1911,0.137,0.194
1912,0.131,0.155
1913,0.131,0.155
1914,0.113,0.155
1915,0.101,0.155
1916,0.095,0.113
1917,0.089,0.113
1918,0.077,0.113
1919,0.072,0.113
1920,0.077,0.074
1921,0.066,0.074
1922,0.072,0.074
1923,0.066,0.074
1924,0.066,0.039
1925,0.066,0.039
1926,0.054,0.039
1927,0.048,0.039
1928,0.030,0.004
1929,0.012,0.004
1930,0.001,0.004
1931,-0.023,0.004
1932,-0.035,-0.035
1933,-0.047,-0.035
1934,-0.065,-0.035
1935,-0.071,-0.035
1936,-0.053,-0.066
1937,-0.065,-0.066
1938,-0.047,-0.066
1939,-0.035,-0.066
1940,-0.035,-0.097
1941,-0.035,-0.097
1942,-0.035,-0.097
1943,-0.029,-0.097
1944,-0.047,-0.128
1945,-0.065,-0.128
1946,-0.094,-0.128
1947,-0.118,-0.128
1948,-0.118,-0.151
1949,-0.100,-0.151
1950,-0.077,-0.151
1951,-0.077,-0.151
1952,-0.077,-0.182
1953,-0.065,-0.182
1954,-0.071,-0.182
1955,-0.094,-0.182
1956,-0.130,-0.202
1957,-0.154,-0.202
1958,-0.177,-0.202
1959,-0.183,-0.202
1960,-0.177,-0.225
1961,-0.154,-0.225
1962,-0.118,-0.225
1963,-0.088,-0.225
1964,-0.047,-0.248
1965,-0.029,-0.248
1966,-0.005,-0.248
1967,0.001,-0.248
1968,0.006,-0.271
1969,0.024,-0.271
1970,0.024,-0.271
1971,0.030,-0.271
1972,0.024,-0.286
1973,0.030,-0.286
1974,0.024,-0.286
1975,0.012,-0.286
1976,0.006,-0.314
1977,-0.005,-0.314
1978,-0.005,-0.314
1979,-0.011,-0.314
1980,-0.011,-0.333
1981,-0.023,-0.333
1982,-0.023,-0.333
1983,-0.023,-0.333
1984,-0.029,-0.352
1985,-0.035,-0.352
1986,-0.035,-0.352
1987,-0.035,-0.352
1988,-0.053,-0.376
1989,-0.065,-0.376
1990,-0.071,-0.376
1991,-0.088,-0.376
1992,-0.094,-0.399
1993,-0.112,-0.399
1994,-0.130,-0.399
1995,-0.142,-0.399
1996,-0.142,-0.418
1997,-0.154,-0.418
1998,-0.154,-0.418
1999,-0.154,-0.418
2000,-0.154,-0.433
2001,-0.154,-0.433
2002,-0.154,-0.433
2003,-0.154,-0.433
2004,-0.142,-0.452
2005,-0.130,-0.452
2006,-0.112,-0.452
2007,-0.094,-0.452
2008,-0.071,-0.478
2009,-0.047,-0.478
2010,-0.011,-0.478
2011,0.006,-0.478
2012,0.024,-0.496
2013,0.048,-0.496
2014,0.066,-0.496
2015,0.089,-0.496
2016,0.095,-0.519
2017,0.113,-0.519
2018,0.113,-0.519
2019,0.119,-0.519
2020,0.119,-0.537
2021,0.113,-0.537
2022,0.101,-0.537
2023,0.077,-0.537
2024,0.054,-0.556
2025,0.036,-0.556
2026,0.030,-0.556
2027,0.024,-0.556
2028,0.024,-0.571
2029,0.030,-0.571
2030,0.048,-0.571
2031,0.054,-0.571
2032,0.066,-0.594
2033,0.072,-0.594
2034,0.077,-0.594
2035,0.077,-0.594
2036,0.077,-0.605
2037,0.077,-0.605
2038,0.072,-0.605
2039,0.066,-0.605
2040,0.048,-0.613
2041,0.030,-0.613
2042,0.012,-0.613
2043,0.001,-0.613
2044,-0.023,-0.624
2045,-0.035,-0.624
2046,-0.047,-0.624
2047,-0.065,-0.624
2048,-0.065,-0.627
2049,-0.071,-0.627
2050,-0.071,-0.627
2051,-0.088,-0.627
2052,-0.088,-0.634
2053,-0.094,-0.634
2054,-0.094,-0.634
2055,-0.100,-0.634
2056,-0.112,-0.624
2057,-0.100,-0.624
2058,-0.112,-0.624
2059,-0.118,-0.624
2060,-0.118,-0.616
2061,-0.118,-0.616
2062,-0.118,-0.616
2063,-0.112,-0.616
2064,-0.100,-0.598
2065,-0.100,-0.598
2066,-0.094,-0.598
2067,-0.094,-0.598
2068,-0.088,-0.571
2069,-0.077,-0.571
2070,-0.071,-0.571
2071,-0.065,-0.571
2072,-0.053,-0.530
2073,-0.047,-0.530
2074,-0.029,-0.530
2075,-0.011,-0.530
2076,-0.005,-0.489
2077,0.001,-0.489
2078,0.006,-0.489
2079,0.006,-0.489
2080,0.024,-0.433
2081,0.024,-0.433
2082,0.024,-0.433
2083,0.036,-0.433
2084,0.030,-0.373
2085,0.030,-0.373
2086,0.024,-0.373
2087,0.024,-0.373
2088,0.012,-0.306
2089,0.012,-0.306
2090,0.012,-0.306
2091,0.006,-0.306
2092,0.006,-0.239
2093,0.001,-0.239
2094,0.001,-0.239
2095,-0.005,-0.239
2096,-0.005,-0.164
2097,-0.005,-0.164
2098,-0.005,-0.164
2099,0.001,-0.164
2100,0.001,-0.093
2101,0.001,-0.093
2102,-0.005,-0.093
2103,-0.005,-0.093
2104,0.001,-0.026
2105,0.001,-0.026
2106,0.001,-0.026
2107,0.001,-0.026
2108,0.012,0.041
2109,0.006,0.041
2110,0.012,0.041
2111,0.024,0.041
2112,0.024,0.101
2113,0.036,0.101
2114,0.036,0.101
2115,0.048,0.101
2116,0.048,0.165
2117,0.048,0.165
2118,0.048,0.165
2119,0.048,0.165
2120,0.048,0.213
2121,0.048,0.213
2122,0.048,0.213
2123,0.036,0.213
2124,0.036,0.262
2125,0.036,0.262
2126,0.036,0.262
2127,0.036,0.262
2128,0.036,0.302
2129,0.036,0.302
2130,0.030,0.302
2131,0.036,0.302
2132,0.036,0.340
2133,0.030,0.340
2134,0.024,0.340
2135,0.012,0.340
2136,0.006,0.366
2137,-0.005,0.366
2138,-0.011,0.366
2139,-0.023,0.366
2140,-0.029,0.389
2141,-0.035,0.389
2142,-0.047,0.389
2143,-0.053,0.389
2144,-0.065,0.407
2145,-0.071,0.407
2146,-0.077,0.407
2147,-0.071,0.407
2148,-0.071,0.414
2149,-0.077,0.414
2150,-0.071,0.414
2151,-0.071,0.414
2152,-0.077,0.418
2153,-0.077,0.418
2154,-0.088,0.418
2155,-0.077,0.418
2156,-0.071,0.411
2157,-0.065,0.411
2158,-0.071,0.411
2159,-0.065,0.411
2160,-0.071,0.404
2161,-0.071,0.404
2162,-0.065,0.404
2163,-0.071,0.404
2164,-0.071,0.389
2165,-0.071,0.389
2166,-0.077,0.389
2167,-0.077,0.389
2168,-0.088,0.366
2169,-0.077,0.366
2170,-0.088,0.366
2171,-0.094,0.366
2172,-0.094,0.347
2173,-0.088,0.347
2174,-0.094,0.347
2175,-0.094,0.347
2176,-0.094,0.314
2177,-0.100,0.314
2178,-0.100,0.314
2179,-0.100,0.314
2180,-0.112,0.287
2181,-0.112,0.287
2182,-0.118,0.287
2183,-0.118,0.287
2184,-0.118,0.251
2185,-0.112,0.251
2186,-0.118,0.251
2187,-0.112,0.251
2188,-0.112,0.217
2189,-0.100,0.217
2190,-0.100,0.217
2191,-0.094,0.217
2192,-0.088,0.175
2193,-0.088,0.175
2194,-0.077,0.175
2195,-0.088,0.175
2196,-0.071,0.142
2197,-0.071,0.142
2198,-0.065,0.142
2199,-0.065,0.142
2200,-0.053,0.098
2201,-0.053,0.098
2202,-0.053,0.098
2203,-0.053,0.098
2204,-0.053,0.060
2205,-0.047,0.060
2206,-0.047,0.060
2207,-0.035,0.060
2208,-0.029,0.022
2209,-0.035,0.022
2210,-0.029,0.022
2211,-0.029,0.022
2212,-0.035,-0.011
2213,-0.047,-0.011
2214,-0.053,-0.011
2215,-0.065,-0.011
2216,-0.071,-0.049
2217,-0.071,-0.049
2218,-0.077,-0.049
2219,-0.077,-0.049
2220,-0.071,-0.082
2221,-0.053,-0.082
2222,-0.029,-0.082
2223,-0.023,-0.082
2224,-0.023,-0.116
2225,-0.023,-0.116
2226,-0.023,-0.116
2227,-0.011,-0.116
2228,-0.011,-0.145
2229,-0.029,-0.145
2230,-0.065,-0.145
2231,-0.071,-0.145
2232,-0.071,-0.175
2233,-0.053,-0.175
2234,-0.029,-0.175
2235,-0.029,-0.175
2236,-0.023,-0.205
2237,-0.011,-0.205
2238,-0.011,-0.205
2239,-0.047,-0.205
2240,-0.071,-0.235
2241,-0.100,-0.235
2242,-0.118,-0.235
2243,-0.130,-0.235
2244,-0.112,-0.258
2245,-0.088,-0.258
2246,-0.053,-0.258
2247,-0.029,-0.258
2248,-0.005,-0.283
2249,0.012,-0.283
2250,0.030,-0.283
2251,0.036,-0.283
2252,0.066,-0.306
2253,0.054,-0.306
2254,0.072,-0.306
2255,0.072,-0.306
2256,0.077,-0.287
2257,0.077,-0.287
2258,0.077,-0.287
2259,0.077,-0.287
2260,0.089,-0.306
2261,0.077,-0.306
2262,0.077,-0.306
2263,0.089,-0.306
2264,0.089,-0.332
2265,0.089,-0.332
2266,0.095,-0.332
2267,0.089,-0.332
2268,0.089,-0.346
2269,0.077,-0.346
2270,0.089,-0.346
2271,0.089,-0.346
2272,0.077,-0.360
2273,0.089,-0.360
2274,0.089,-0.360
2275,0.089,-0.360
2276,0.089,-0.375
2277,0.089,-0.375
2278,0.077,-0.375
2279,0.077,-0.375
2280,0.077,-0.393
2281,0.077,-0.393
2282,0.077,-0.393
2283,0.077,-0.393
2284,0.077,-0.404
2285,0.072,-0.404
2286,0.072,-0.404
2287,0.072,-0.404
2288,0.066,-0.418
2289,0.072,-0.418
2290,0.072,-0.418
2291,0.072,-0.418
2292,0.072,-0.433
2293,0.066,-0.433
2294,0.072,-0.433
2295,0.066,-0.433
2296,0.072,-0.444
2297,0.066,-0.444
2298,0.066,-0.444
2299,0.066,-0.444
2300,0.066,-0.455
2301,0.066,-0.455
2302,0.054,-0.455
2303,0.066,-0.455
2304,0.066,-0.469
2305,0.066,-0.469
2306,0.066,-0.469
2307,0.066,-0.469
2308,0.072,-0.480
2309,0.066,-0.480
2310,0.072,-0.480
2311,0.066,-0.480
2312,0.054,-0.491
2313,0.066,-0.491
2314,0.066,-0.491
2315,0.066,-0.491
2316,0.066,-0.502
2317,0.066,-0.502
2318,0.066,-0.502
2319,0.066,-0.502
2320,0.054,-0.513
2321,0.054,-0.513
2322,0.066,-0.513
2323,0.054,-0.513
2324,0.054,-0.520
2325,0.054,-0.520
2326,0.054,-0.520
2327,0.054,-0.520
2328,0.048,-0.528
2329,0.048,-0.528
2330,0.048,-0.528
2331,0.048,-0.528
2332,0.048,-0.535
2333,0.048,-0.535
2334,0.036,-0.535
2335,0.048,-0.535
2336,0.048,-0.539
2337,0.036,-0.539
2338,0.048,-0.539
2339,0.048,-0.539
2340,0.048,-0.539
2341,0.048,-0.539
2342,0.048,-0.539
2343,0.048,-0.539
2344,0.036,-0.531
2345,0.036,-0.531
2346,0.036,-0.531
2347,0.036,-0.531
2348,0.048,-0.517
2349,0.048,-0.517
2350,0.048,-0.517
2351,0.036,-0.517
2352,0.048,-0.495
2353,0.048,-0.495
2354,0.048,-0.495
2355,0.048,-0.495
2356,0.048,-0.469
2357,0.054,-0.469
2358,0.048,-0.469
2359,0.054,-0.469
2360,0.048,-0.429
2361,0.048,-0.429
2362,0.048,-0.429
2363,0.054,-0.429
2364,0.054,-0.379
2365,0.054,-0.379
2366,0.066,-0.379
2367,0.054,-0.379
2368,0.054,-0.328
2369,0.054,-0.328
2370,0.054,-0.328
2371,0.054,-0.328
2372,0.054,-0.262
2373,0.066,-0.262
2374,0.066,-0.262
2375,0.066,-0.262
2376,0.054,-0.201
2377,0.054,-0.201
2378,0.054,-0.201
2379,0.054,-0.201
2380,0.066,-0.131
2381,0.066,-0.131
2382,0.066,-0.131
2383,0.066,-0.131
2384,0.066,-0.062
2385,0.066,-0.062
2386,0.054,-0.062
2387,0.066,-0.062
2388,0.066,0.011
2389,0.066,0.011
2390,0.072,0.011
2391,0.072,0.011
2392,0.072,0.073
2393,0.072,0.073
2394,0.072,0.073
2395,0.066,0.073
2396,0.072,0.139
2397,0.072,0.139
2398,0.072,0.139
2399,0.072,0.139
2400,0.077,0.197
2401,0.077,0.197
2402,0.072,0.197
2403,0.072,0.197
2404,0.077,0.244
2405,0.072,0.244
2406,0.077,0.244
2407,0.077,0.244
2408,0.077,0.295
2409,0.077,0.295
2410,0.077,0.295
2411,0.077,0.295
2412,0.077,0.332
2413,0.077,0.332
2414,0.089,0.332
2415,0.089,0.332
2416,0.077,0.367
2417,0.089,0.367
2418,0.089,0.367
2419,0.089,0.367
2420,0.089,0.393
2421,0.089,0.393
2422,0.077,0.393
2423,0.077,0.393
2424,0.089,0.415
2425,0.089,0.415
2426,0.089,0.415
2427,0.077,0.415
2428,0.089,0.429
2429,0.095,0.429
2430,0.095,0.429
2431,0.101,0.429
2432,0.101,0.437
2433,0.113,0.437
2434,0.113,0.437
2435,0.113,0.437
2436,0.113,0.437
2437,0.119,0.437
2438,0.119,0.437
2439,0.131,0.437
2440,0.131,0.433
2441,0.137,0.433
2442,0.137,0.433
2443,0.142,0.433
2444,0.142,0.418
2445,0.142,0.418
2446,0.154,0.418
2447,0.142,0.418
2448,0.142,0.404
2449,0.142,0.404
2450,0.142,0.404
2451,0.137,0.404
2452,0.142,0.379
2453,0.137,0.379
2454,0.131,0.379
2455,0.131,0.379
2456,0.131,0.357
2457,0.131,0.357
2458,0.131,0.357
2459,0.119,0.357
2460,0.119,0.324
2461,0.119,0.324
2462,0.113,0.324
2463,0.101,0.324
2464,0.095,0.295
2465,0.095,0.295
2466,0.095,0.295
2467,0.077,0.295
2468,0.077,0.259
2469,0.077,0.259
2470,0.077,0.259
2471,0.072,0.259
2472,0.072,0.218
2473,0.072,0.218
2474,0.072,0.218
2475,0.072,0.218
2476,0.072,0.185
2477,0.072,0.185
2478,0.066,0.185
2479,0.072,0.185
2480,0.072,0.142
2481,0.066,0.142
2482,0.072,0.142
2483,0.072,0.142
2484,0.066,0.109
2485,0.072,0.109
2486,0.072,0.109
2487,0.066,0.109
2488,0.066,0.076
2489,0.072,0.076
2490,0.072,0.076
2491,0.072,0.076
2492,0.072,0.036
2493,0.072,0.036
2494,0.077,0.036
2495,0.072,0.036
2496,0.066,0.007
2497,0.048,0.007
2498,0.030,0.007
2499,0.024,0.007
2500,0.006,-0.025
2501,0.001,-0.025
2502,-0.005,-0.025
2503,0.001,-0.025
2504,0.001,-0.051
2505,0.006,-0.051
2506,0.024,-0.051
2507,0.024,-0.051
2508,0.030,-0.076
2509,0.012,-0.076
2510,0.024,-0.076
2511,0.012,-0.076
2512,0.006,-0.109
2513,-0.011,-0.109
2514,-0.035,-0.109
2515,-0.065,-0.109
2516,-0.053,-0.131
2517,-0.029,-0.131
2518,-0.023,-0.131
2519,-0.023,-0.131
2520,-0.011,-0.160
2521,-0.011,-0.160
2522,-0.029,-0.160
2523,-0.065,-0.160
2524,-0.088,-0.178
2525,-0.130,-0.178
2526,-0.142,-0.178
2527,-0.142,-0.178
2528,-0.130,-0.201
2529,-0.100,-0.201
2530,-0.077,-0.201
2531,-0.047,-0.201
2532,-0.029,-0.218
2533,-0.005,-0.218
2534,0.006,-0.218
2535,0.006,-0.218
2536,0.012,-0.236
2537,0.024,-0.236
2538,0.024,-0.236
2539,0.024,-0.236
2540,0.024,-0.255
2541,0.024,-0.255
2542,0.024,-0.255
2543,0.024,-0.255
2544,0.024,-0.273
2545,0.024,-0.273
2546,0.012,-0.273
2547,0.012,-0.273
2548,0.012,-0.287
2549,0.012,-0.287
2550,0.012,-0.287
2551,0.012,-0.287
2552,0.006,-0.306
2553,0.001,-0.306
2554,0.001,-0.306
2555,0.001,-0.306
2556,0.006,-0.324
2557,0.001,-0.324
2558,0.001,-0.324
2559,0.001,-0.324
2560,0.001,-0.335
2561,0.001,-0.335
2562,0.001,-0.335
2563,0.001,-0.335
2564,0.001,-0.349
2565,0.001,-0.349
2566,0.001,-0.349
2567,-0.005,-0.349
2568,0.001,-0.367
2569,0.001,-0.367
2570,-0.005,-0.367
2571,-0.005,-0.367
2572,-0.005,-0.383
2573,-0.005,-0.383
2574,-0.005,-0.383
2575,-0.005,-0.383
2576,-0.005,-0.393
2577,-0.005,-0.393
2578,-0.005,-0.393
2579,-0.011,-0.393
2580,-0.011,-0.408
2581,-0.011,-0.408
2582,-0.011,-0.408
2583,-0.011,-0.408
2584,-0.005,-0.426
2585,-0.011,-0.426
2586,-0.023,-0.426
2587,-0.011,-0.426
2588,-0.011,-0.437
2589,-0.011,-0.437
2590,-0.011,-0.437
2591,-0.011,-0.437
2592,-0.011,-0.452
2593,-0.011,-0.452
2594,-0.011,-0.452
2595,-0.023,-0.452
2596,-0.011,-0.466
2597,-0.023,-0.466
2598,-0.023,-0.466
2599,-0.023,-0.466
2600,-0.023,-0.484
2601,-0.023,-0.484
2602,-0.023,-0.484
2603,-0.023,-0.484
2604,-0.023,-0.491
2605,-0.023,-0.491
2606,-0.023,-0.491
2607,-0.023,-0.491
2608,-0.023,-0.506
2609,-0.029,-0.506
2610,-0.023,-0.506
2611,-0.029,-0.506
2612,-0.029,-0.513
2613,-0.029,-0.513
2614,-0.029,-0.513
2615,-0.023,-0.513
2616,-0.029,-0.520
2617,-0.029,-0.520
2618,-0.029,-0.520
2619,-0.023,-0.520
2620,-0.023,-0.531
2621,-0.029,-0.531
2622,-0.023,-0.531
2623,-0.023,-0.531
2624,-0.011,-0.528
2625,-0.011,-0.528
2626,-0.005,-0.528
2627,-0.023,-0.528
2628,-0.023,-0.528
2629,-0.011,-0.528
2630,-0.011,-0.528
2631,-0.011,-0.528
2632,-0.011,-0.513
2633,-0.011,-0.513
2634,-0.011,-0.513
2635,-0.011,-0.513
2636,-0.005,-0.495
2637,-0.011,-0.495
2638,0.001,-0.495
2639,-0.005,-0.495
2640,-0.005,-0.463
2641,-0.005,-0.463
2642,-0.005,-0.463
2643,-0.005,-0.463
2644,0.001,-0.422
2645,0.001,-0.422
2646,0.001,-0.422
2647,0.006,-0.422
2648,0.001,-0.375
2649,0.006,-0.375
2650,0.006,-0.375
2651,0.006,-0.375
2652,0.006,-0.328
2653,0.001,-0.328
2654,0.006,-0.328
2655,0.006,-0.328
2656,0.006,-0.262
2657,0.006,-0.262
2658,0.006,-0.262
2659,0.006,-0.262
2660,0.006,-0.197
2661,0.006,-0.197
2662,0.001,-0.197
2663,0.001,-0.197
2664,0.001,-0.131
2665,0.001,-0.131
2666,0.006,-0.131
2667,0.001,-0.131
2668,0.006,-0.066
2669,0.001,-0.066
2670,-0.005,-0.066
2671,0.001,-0.066
2672,-0.005,0.004
2673,-0.005,0.004
2674,-0.005,0.004
2675,0.001,0.004
2676,-0.005,0.062
2677,-0.005,0.062
2678,-0.011,0.062
2679,-0.005,0.062
2680,-0.005,0.124
2681,-0.005,0.124
2682,-0.005,0.124
2683,-0.011,0.124
2684,-0.005,0.182
2685,-0.011,0.182
2686,-0.011,0.182
2687,-0.011,0.182
2688,-0.011,0.230
2689,-0.011,0.230
2690,-0.011,0.230
2691,-0.011,0.230
2692,-0.011,0.273
2693,-0.011,0.273
2694,-0.023,0.273
2695,-0.023,0.273
2696,-0.023,0.313
2697,-0.023,0.313
2698,-0.023,0.313
2699,-0.023,0.313
2700,-0.023,0.346
2701,-0.023,0.346
2702,-0.023,0.346
2703,-0.011,0.346
2704,-0.023,0.367
2705,-0.023,0.367
2706,-0.023,0.367
2707,-0.023,0.367
2708,-0.023,0.393
2709,-0.023,0.393
2710,-0.023,0.393
2711,-0.023,0.393
2712,-0.011,0.401
2713,-0.011,0.401
2714,-0.011,0.401
2715,-0.005,0.401
2716,-0.005,0.411
2717,0.001,0.411
2718,0.001,0.411
2719,0.006,0.411
2720,0.006,0.407
2721,0.006,0.407
2722,0.006,0.407
2723,0.012,0.407
2724,0.012,0.404
2725,0.012,0.404
2726,0.024,0.404
2727,0.024,0.404
2728,0.024,0.393
2729,0.024,0.393
2730,0.030,0.393
2731,0.030,0.393
2732,0.024,0.371
2733,0.024,0.371
2734,0.024,0.371
2735,0.012,0.371
2736,0.012,0.349
2737,0.012,0.349
2738,0.012,0.349
2739,0.001,0.349
2740,0.006,0.321
2741,0.001,0.321
2742,0.001,0.321
2743,0.001,0.321
2744,-0.005,0.287
2745,-0.005,0.287
2746,-0.011,0.287
2747,-0.023,0.287
2748,-0.029,0.251
2749,-0.029,0.251
2750,-0.035,0.251
2751,-0.035,0.251
2752,-0.047,0.218
2753,-0.053,0.218
2754,-0.053,0.218
2755,-0.065,0.218
2756,-0.053,0.178
2757,-0.053,0.178
2758,-0.065,0.178
2759,-0.065,0.178
2760,-0.071,0.139
2761,-0.071,0.139
2762,-0.077,0.139
2763,-0.071,0.139
2764,-0.071,0.099
2765,-0.071,0.099
2766,-0.071,0.099
2767,-0.071,0.099
2768,-0.071,0.084
2769,-0.077,0.084
2770,-0.071,0.084
2771,-0.071,0.084
2772,-0.071,0.052
2773,-0.065,0.052
2774,-0.071,0.052
2775,-0.065,0.052
2776,-0.071,0.014
2777,-0.065,0.014
2778,-0.071,0.014
2779,-0.065,0.014
2780,-0.065,-0.021
2781,-0.077,-0.021
2782,-0.088,-0.021
2783,-0.100,-0.021
2784,-0.118,-0.056
2785,-0.130,-0.056
2786,-0.130,-0.056
2787,-0.130,-0.056
2788,-0.130,-0.080
2789,-0.112,-0.080
2790,-0.100,-0.080
2791,-0.088,-0.080
2792,-0.088,-0.111
2793,-0.094,-0.111
2794,-0.094,-0.111
2795,-0.100,-0.111
2796,-0.100,-0.139
2797,-0.130,-0.139
2798,-0.154,-0.139
2799,-0.177,-0.139
2800,-0.183,-0.167
2801,-0.159,-0.167
2802,-0.154,-0.167
2803,-0.142,-0.167
2804,-0.142,-0.194
2805,-0.136,-0.194
2806,-0.142,-0.194
2807,-0.165,-0.194
2808,-0.201,-0.211
2809,-0.230,-0.211
2810,-0.260,-0.211
2811,-0.272,-0.211
2812,-0.260,-0.233
2813,-0.230,-0.233
2814,-0.207,-0.233
2815,-0.177,-0.233
2816,-0.154,-0.253
2817,-0.130,-0.253
2818,-0.112,-0.253
2819,-0.094,-0.253
2820,-0.088,-0.274
2821,-0.077,-0.274
2822,-0.071,-0.274
2823,-0.071,-0.274
2824,-0.065,-0.295
2825,-0.065,-0.295
2826,-0.065,-0.295
2827,-0.065,-0.295
2828,-0.065,-0.312
2829,-0.065,-0.312
2830,-0.065,-0.312
2831,-0.053,-0.312
2832,-0.053,-0.326
2833,-0.053,-0.326
2834,-0.053,-0.326
2835,-0.065,-0.326
2836,-0.065,-0.340
2837,-0.065,-0.340
2838,-0.053,-0.340
2839,-0.053,-0.340
2840,-0.053,-0.357
2841,-0.053,-0.357
2842,-0.053,-0.357
2843,-0.053,-0.357
2844,-0.065,-0.371
2845,-0.065,-0.371
2846,-0.053,-0.371
2847,-0.053,-0.371
2848,-0.053,-0.385
2849,-0.053,-0.385
2850,-0.053,-0.385
2851,-0.053,-0.385
2852,-0.053,-0.399
2853,-0.053,-0.399
2854,-0.053,-0.399
2855,-0.053,-0.399
2856,-0.053,-0.409
2857,-0.047,-0.409
2858,-0.047,-0.409
2859,-0.047,-0.409
2860,-0.047,-0.419
2861,-0.047,-0.419
2862,-0.047,-0.419
2863,-0.035,-0.419
2864,-0.035,-0.433
2865,-0.035,-0.433
2866,-0.029,-0.433
2867,-0.029,-0.433
2868,-0.029,-0.448
2869,-0.029,-0.448
2870,-0.029,-0.448
2871,-0.023,-0.448
2872,-0.023,-0.458
2873,-0.011,-0.458
2874,-0.005,-0.458
2875,0.001,-0.458
2876,0.001,-0.471
2877,0.001,-0.471
2878,0.006,-0.471
2879,0.006,-0.471
2880,0.012,-0.482
2881,0.024,-0.482
2882,0.030,-0.482
2883,0.030,-0.482
2884,0.036,-0.496
2885,0.036,-0.496
2886,0.048,-0.496
2887,0.048,-0.496
2888,0.054,-0.506
2889,0.066,-0.506
2890,0.066,-0.506
2891,0.072,-0.506
2892,0.072,-0.513
2893,0.072,-0.513
2894,0.077,-0.513
2895,0.077,-0.513
2896,0.089,-0.523
2897,0.089,-0.523
2898,0.095,-0.523
2899,0.095,-0.523
2900,0.095,-0.534
2901,0.095,-0.534
2902,0.095,-0.534
2903,0.095,-0.534
2904,0.101,-0.537
2905,0.101,-0.537
2906,0.101,-0.537
2907,0.101,-0.537
2908,0.113,-0.537
2909,0.113,-0.537
2910,0.113,-0.537
2911,0.101,-0.537
2912,0.113,-0.530
2913,0.113,-0.530
2914,0.119,-0.530
2915,0.113,-0.530
2916,0.119,-0.520
2917,0.119,-0.520
2918,0.119,-0.520
2919,0.119,-0.520
2920,0.119,-0.510
2921,0.119,-0.510
2922,0.119,-0.510
2923,0.131,-0.510
2924,0.131,-0.482
2925,0.131,-0.482
2926,0.131,-0.482
2927,0.131,-0.482
2928,0.137,-0.451
2929,0.137,-0.451
2930,0.137,-0.451
2931,0.137,-0.451
2932,0.137,-0.409
2933,0.137,-0.409
2934,0.131,-0.409
2935,0.137,-0.409
2936,0.137,-0.357
2937,0.137,-0.357
2938,0.137,-0.357
2939,0.137,-0.357
2940,0.142,-0.305
2941,0.142,-0.305
2942,0.137,-0.305
2943,0.137,-0.305
2944,0.137,-0.239
2945,0.137,-0.239
2946,0.137,-0.239
2947,0.137,-0.239
2948,0.131,-0.177
2949,0.137,-0.177
2950,0.137,-0.177
2951,0.131,-0.177
2952,0.131,-0.115
2953,0.119,-0.115
2954,0.131,-0.115
2955,0.119,-0.115
2956,0.119,-0.049
2957,0.119,-0.049
2958,0.119,-0.049
2959,0.131,-0.049
2960,0.119,0.014
2961,0.119,0.014
2962,0.119,0.014
2963,0.119,0.014
2964,0.119,0.073
2965,0.119,0.073
2966,0.119,0.073
2967,0.119,0.073
2968,0.119,0.132
2969,0.113,0.132
2970,0.119,0.132
2971,0.119,0.132
2972,0.119,0.180
2973,0.131,0.180
2974,0.119,0.180
2975,0.131,0.180
2976,0.119,0.222
2977,0.119,0.222
2978,0.119,0.222
2979,0.119,0.222
2980,0.119,0.264
2981,0.131,0.264
2982,0.131,0.264
2983,0.119,0.264
2984,0.131,0.298
2985,0.119,0.298
2986,0.119,0.298
2987,0.131,0.298
2988,0.131,0.326
2989,0.119,0.326
2990,0.131,0.326
2991,0.131,0.326
2992,0.131,0.347
2993,0.131,0.347
2994,0.119,0.347
2995,0.119,0.347
2996,0.131,0.364
2997,0.131,0.364
2998,0.137,0.364
2999,0.131,0.364
3000,0.137,0.374
3001,0.137,0.374
3002,0.137,0.374
3003,0.137,0.374
3004,0.137,0.378
3005,0.142,0.378
3006,0.142,0.378
3007,0.154,0.378
3008,0.154,0.378
3009,0.154,0.378
3010,0.160,0.378
3011,0.160,0.378
3012,0.166,0.364
3013,0.166,0.364
3014,0.166,0.364
3015,0.178,0.364
3016,0.178,0.354
3017,0.166,0.354
3018,0.166,0.354
3019,0.166,0.354
3020,0.160,0.333
3021,0.166,0.333
3022,0.160,0.333
3023,0.160,0.333
3024,0.154,0.312
3025,0.154,0.312
3026,0.142,0.312
3027,0.142,0.312
3028,0.137,0.281
3029,0.142,0.281
3030,0.137,0.281
3031,0.137,0.281
3032,0.119,0.254
3033,0.119,0.254
3034,0.113,0.254
3035,0.101,0.254
3036,0.095,0.218
3037,0.089,0.218
3038,0.089,0.218
3039,0.089,0.218
3040,0.089,0.184
3041,0.077,0.184
3042,0.077,0.184
3043,0.077,0.184
3044,0.072,0.149
3045,0.072,0.149
3046,0.072,0.149
3047,0.077,0.149
3048,0.072,0.115
3049,0.072,0.115
3050,0.072,0.115
3051,0.072,0.115
3052,0.077,0.076
3053,0.072,0.076
3054,0.072,0.076
3055,0.072,0.076
3056,0.072,0.038
3057,0.077,0.038
3058,0.077,0.038
3059,0.077,0.038
3060,0.072,0.007
3061,0.077,0.007
3062,0.077,0.007
3063,0.077,0.007
3064,0.077,-0.028
3065,0.072,-0.028
3066,0.054,-0.028
3067,0.036,-0.028
3068,0.030,-0.056
3069,0.012,-0.056
3070,0.012,-0.056
3071,0.012,-0.056
3072,0.012,-0.086
3073,0.024,-0.086
3074,0.030,-0.086
3075,0.048,-0.086
3076,0.054,-0.111
3077,0.054,-0.111
3078,0.048,-0.111
3079,0.048,-0.111
3080,0.054,-0.139
3081,0.036,-0.139
3082,0.012,-0.139
3083,-0.011,-0.139
3084,-0.023,-0.167
3085,-0.023,-0.167
3086,-0.005,-0.167
3087,0.006,-0.167
3088,0.006,-0.191
3089,0.012,-0.191
3090,0.012,-0.191
3091,-0.005,-0.191
3092,-0.035,-0.215
3093,-0.077,-0.215
3094,-0.112,-0.215
3095,-0.136,-0.215
3096,-0.130,-0.233
3097,-0.118,-0.233
3098,-0.088,-0.233
3099,-0.065,-0.233
3100,-0.035,-0.253
3101,-0.011,-0.253
3102,0.001,-0.253
3103,0.012,-0.253
3104,0.024,-0.274
3105,0.036,-0.274
3106,0.036,-0.274
3107,0.048,-0.274
3108,0.048,-0.294
3109,0.048,-0.294
3110,0.048,-0.294
3111,0.048,-0.294
3112,0.048,-0.312
3113,0.054,-0.312
3114,0.054,-0.312
3115,0.048,-0.312
3116,0.048,-0.330
3117,0.054,-0.330
3118,0.048,-0.330
3119,0.048,-0.330
3120,0.048,-0.344
3121,0.048,-0.344
3122,0.048,-0.344
3123,0.048,-0.344
3124,0.048,-0.360
3125,0.036,-0.360
3126,0.048,-0.360
3127,0.036,-0.360
3128,0.036,-0.367
3129,0.036,-0.367
3130,0.036,-0.367
3131,0.036,-0.367
3132,0.036,-0.382
3133,0.036,-0.382
3134,0.030,-0.382
3135,0.036,-0.382
3136,0.030,-0.399
3137,0.030,-0.399
3138,0.030,-0.399
3139,0.030,-0.399
3140,0.030,-0.412
3141,0.030,-0.412
3142,0.036,-0.412
3143,0.030,-0.412
3144,0.024,-0.426
3145,0.024,-0.426
3146,0.024,-0.426
3147,0.024,-0.426
3148,0.030,-0.433
3149,0.030,-0.433
3150,0.030,-0.433
3151,0.030,-0.433
3152,0.024,-0.448
3153,0.024,-0.448
3154,0.030,-0.448
3155,0.024,-0.448
3156,0.024,-0.458
3157,0.030,-0.458
3158,0.030,-0.458
3159,0.030,-0.458
3160,0.024,-0.471
3161,0.030,-0.471
3162,0.024,-0.471
3163,0.030,-0.471
3164,0.030,-0.478
3165,0.030,-0.478
3166,0.030,-0.478
3167,0.030,-0.478
3168,0.036,-0.489
3169,0.030,-0.489
3170,0.036,-0.489
3171,0.036,-0.489
3172,0.036,-0.496
3173,0.036,-0.496
3174,0.036,-0.496
3175,0.048,-0.496
3176,0.036,-0.510
3177,0.036,-0.510
3178,0.036,-0.510
3179,0.036,-0.510
3180,0.036,-0.513
3181,0.036,-0.513
3182,0.048,-0.513
3183,0.036,-0.513
3184,0.048,-0.523
3185,0.048,-0.523
3186,0.036,-0.523
3187,0.048,-0.523
3188,0.036,-0.530
3189,0.048,-0.530
3190,0.036,-0.530
3191,0.048,-0.530
3192,0.048,-0.530
3193,0.048,-0.530
3194,0.048,-0.530
3195,0.036,-0.530
3196,0.048,-0.520
3197,0.036,-0.520
3198,0.048,-0.520
3199,0.048,-0.520
3200,0.048,-0.510
3201,0.048,-0.510
3202,0.048,-0.510
3203,0.048,-0.510
3204,0.048,-0.492
3205,0.054,-0.492
3206,0.048,-0.492
3207,0.054,-0.492
3208,0.054,-0.465
3209,0.054,-0.465
3210,0.066,-0.465
3211,0.054,-0.465
3212,0.054,-0.433
3213,0.054,-0.433
3214,0.054,-0.433
3215,0.066,-0.433
3216,0.066,-0.392
3217,0.054,-0.392
3218,0.054,-0.392
3219,0.054,-0.392
3220,0.054,-0.340
3221,0.054,-0.340
3222,0.054,-0.340
3223,0.054,-0.340
3224,0.054,-0.288
3225,0.054,-0.288
3226,0.066,-0.288
3227,0.054,-0.288
3228,0.054,-0.226
3229,0.048,-0.226
3230,0.054,-0.226
3231,0.054,-0.226
3232,0.054,-0.163
3233,0.054,-0.163
3234,0.054,-0.163
3235,0.054,-0.163
3236,0.048,-0.101
3237,0.048,-0.101
3238,0.054,-0.101
3239,0.048,-0.101
3240,0.054,-0.035
3241,0.054,-0.035
3242,0.048,-0.035
3243,0.048,-0.035
3244,0.036,0.028
3245,0.036,0.028
3246,0.036,0.028
3247,0.048,0.028
3248,0.048,0.087
3249,0.054,0.087
3250,0.048,0.087
3251,0.048,0.087
3252,0.048,0.146
3253,0.036,0.146
3254,0.048,0.146
3255,0.036,0.146
3256,0.036,0.198
3257,0.048,0.198
3258,0.048,0.198
3259,0.036,0.198
3260,0.036,0.246
3261,0.036,0.246
3262,0.036,0.246
3263,0.036,0.246
3264,0.036,0.288
3265,0.036,0.288
3266,0.048,0.288
3267,0.036,0.288
3268,0.036,0.323
3269,0.036,0.323
3270,0.036,0.323
3271,0.036,0.323
3272,0.036,0.350
3273,0.048,0.350
3274,0.036,0.350
3275,0.048,0.350
3276,0.036,0.374
3277,0.036,0.374
3278,0.036,0.374
3279,0.036,0.374
3280,0.048,0.474
3281,0.048,0.474
3282,0.048,0.474
3283,0.048,0.474
3284,0.054,0.490
3285,0.054,0.490
3286,0.054,0.490
3287,0.054,0.490
3288,0.066,0.494
3289,0.072,0.494
3290,0.066,0.494
3291,0.072,0.494
3292,0.072,0.490
3293,0.072,0.490
3294,0.077,0.490
3295,0.077,0.490
3296,0.089,0.482
3297,0.089,0.482
3298,0.095,0.482
3299,0.095,0.482
3300,0.095,0.463
3301,0.095,0.463
3302,0.089,0.463
3303,0.089,0.463
3304,0.077,0.444
3305,0.077,0.444
3306,0.077,0.444
3307,0.077,0.444
3308,0.077,0.417
3309,0.072,0.417
3310,0.072,0.417
3311,0.066,0.417
3312,0.066,0.387
3313,0.066,0.387
3314,0.054,0.387
3315,0.048,0.387
3316,0.048,0.352
3317,0.036,0.352
3318,0.030,0.352
3319,0.024,0.352
3320,0.012,0.322
3321,0.012,0.322
3322,0.012,0.322
3323,0.006,0.322
3324,0.006,0.280
3325,0.006,0.280
3326,0.001,0.280
3327,0.001,0.280
3328,-0.005,0.241
3329,-0.005,0.241
3330,0.001,0.241
3331,0.001,0.241
3332,0.001,0.203
3333,0.001,0.203
3334,0.001,0.203
3335,0.001,0.203
3336,0.001,0.161
3337,0.001,0.161
3338,0.001,0.161
3339,0.001,0.161
3340,0.001,0.127
3341,0.001,0.127
3342,0.001,0.127
3343,0.001,0.127
3344,0.001,0.088
3345,0.001,0.088
3346,0.006,0.088
3347,0.006,0.088
3348,0.006,0.053
3349,0.001,0.053
3350,-0.005,0.053
3351,-0.011,0.053
3352,-0.035,0.015
3353,-0.053,0.015
3354,-0.047,0.015
3355,-0.053,0.015
3356,-0.053,-0.023
3357,-0.047,-0.023
3358,-0.029,-0.023
3359,-0.011,-0.023
3360,-0.011,-0.053
3361,-0.005,-0.053
3362,-0.011,-0.053
3363,-0.011,-0.053
3364,-0.011,-0.081
3365,-0.023,-0.081
3366,-0.047,-0.081
3367,-0.071,-0.081
3368,-0.088,-0.115
3369,-0.088,-0.115
3370,-0.071,-0.115
3371,-0.047,-0.115
3372,-0.047,-0.145
3373,-0.047,-0.145
3374,-0.035,-0.145
3375,-0.065,-0.145
3376,-0.100,-0.169
3377,-0.142,-0.169
3378,-0.177,-0.169
3379,-0.201,-0.169
3380,-0.201,-0.199
3381,-0.183,-0.199
3382,-0.159,-0.199
3383,-0.136,-0.199
3384,-0.100,-0.222
3385,-0.088,-0.222
3386,-0.065,-0.222
3387,-0.047,-0.222
3388,-0.035,-0.249
3389,-0.029,-0.249
3390,-0.023,-0.249
3391,-0.011,-0.249
3392,-0.011,-0.268
3393,-0.011,-0.268
3394,-0.011,-0.268
3395,-0.005,-0.268
3396,-0.005,-0.287
3397,-0.005,-0.287
3398,0.001,-0.287
3399,-0.005,-0.287
3400,0.001,-0.310
3401,0.001,-0.310
3402,0.001,-0.310
3403,0.001,-0.310
3404,-0.005,-0.329
3405,0.001,-0.329
3406,-0.005,-0.329
3407,0.001,-0.329
3408,-0.005,-0.344
3409,0.001,-0.344
3410,0.001,-0.344
3411,-0.005,-0.344
3412,-0.005,-0.356
3413,-0.005,-0.356
3414,0.001,-0.356
3415,0.001,-0.356
3416,0.001,-0.371
3417,-0.005,-0.371
3418,-0.005,-0.371
3419,-0.005,-0.371
3420,-0.005,-0.383
3421,-0.005,-0.383
3422,-0.005,-0.383
3423,-0.005,-0.383
3424,0.001,-0.398
3425,-0.005,-0.398
3426,-0.005,-0.398
3427,-0.005,-0.398
3428,-0.011,-0.409
3429,-0.011,-0.409
3430,-0.011,-0.409
3431,-0.005,-0.409
3432,-0.005,-0.425
3433,-0.005,-0.425
3434,-0.011,-0.425
3435,-0.011,-0.425
3436,-0.011,-0.432
3437,-0.011,-0.432
3438,-0.011,-0.432
3439,-0.011,-0.432
3440,-0.011,-0.448
3441,-0.011,-0.448
3442,-0.011,-0.448
3443,-0.011,-0.448
3444,-0.005,-0.463
3445,-0.011,-0.463
3446,-0.011,-0.463
3447,-0.005,-0.463
3448,-0.005,-0.467
3449,-0.005,-0.467
3450,-0.005,-0.467
3451,-0.005,-0.467
3452,0.001,-0.478
3453,-0.005,-0.478
3454,-0.005,-0.478
3455,-0.005,-0.478
3456,0.006,-0.490
3457,0.001,-0.490
3458,0.001,-0.490
3459,0.001,-0.490
3460,0.001,-0.497
3461,0.006,-0.497
3462,0.001,-0.497
3463,0.006,-0.497
3464,0.001,-0.501
3465,0.006,-0.501
3466,0.006,-0.501
3467,0.006,-0.501
3468,0.006,-0.505
3469,0.006,-0.505
3470,0.006,-0.505
3471,0.006,-0.505
3472,0.006,-0.505
3473,0.006,-0.505
3474,0.006,-0.505
3475,0.012,-0.505
3476,0.012,-0.505
3477,0.012,-0.505
3478,0.006,-0.505
3479,0.012,-0.505
3480,0.012,-0.501
3481,0.012,-0.501
3482,0.024,-0.501
3483,0.012,-0.501
3484,0.024,-0.486
3485,0.012,-0.486
3486,0.024,-0.486
3487,0.024,-0.486
3488,0.012,-0.463
3489,0.024,-0.463
3490,0.024,-0.463
3491,0.030,-0.463
3492,0.024,-0.432
3493,0.030,-0.432
3494,0.030,-0.432
3495,0.024,-0.432
3496,0.030,-0.398
3497,0.024,-0.398
3498,0.030,-0.398
3499,0.030,-0.398
3500,0.036,-0.348
3501,0.030,-0.348
3502,0.030,-0.348
3503,0.036,-0.348
3504,0.036,-0.298
3505,0.036,-0.298
3506,0.036,-0.298
3507,0.036,-0.298
3508,0.036,-0.237
3509,0.030,-0.237
3510,0.030,-0.237
3511,0.030,-0.237
3512,0.030,-0.169
3513,0.030,-0.169
3514,0.030,-0.169
3515,0.030,-0.169
3516,0.030,-0.100
3517,0.030,-0.100
3518,0.030,-0.100
3519,0.030,-0.100
3520,0.024,-0.027
3521,0.036,-0.027
3522,0.030,-0.027
3523,0.030,-0.027
3524,0.036,0.038
3525,0.030,0.038
3526,0.036,0.038
3527,0.030,0.038
3528,0.036,0.107
3529,0.030,0.107
3530,0.030,0.107
3531,0.036,0.107
3532,0.030,0.176
3533,0.030,0.176
3534,0.024,0.176
3535,0.036,0.176
3536,0.030,0.244
3537,0.024,0.244
3538,0.024,0.244
3539,0.024,0.244
3540,0.030,0.306
3541,0.024,0.306
3542,0.030,0.306
3543,0.024,0.306
3544,0.024,0.360
3545,0.024,0.360
3546,0.024,0.360
3547,0.024,0.360
3548,0.024,0.407
3549,0.024,0.407
3550,0.030,0.407
3551,0.024,0.407
3552,0.024,0.446
3553,0.024,0.446
3554,0.030,0.446
3555,0.024,0.446
3556,0.024,0.480
3557,0.024,0.480
3558,0.024,0.480
3559,0.024,0.480
3560,0.024,0.511
3561,0.024,0.511
3562,0.024,0.511
3563,0.030,0.511
3564,0.030,0.531
3565,0.030,0.531
3566,0.036,0.531
3567,0.036,0.531
3568,0.048,0.546
3569,0.036,0.546
3570,0.048,0.546
3571,0.048,0.546
3572,0.054,0.554
3573,0.054,0.554
3574,0.066,0.554
3575,0.066,0.554
3576,0.066,0.554
3577,0.072,0.554
3578,0.072,0.554
3579,0.072,0.554
3580,0.077,0.546
3581,0.077,0.546
3582,0.089,0.546
3583,0.089,0.546
3584,0.089,0.531
3585,0.077,0.531
3586,0.072,0.531
3587,0.072,0.531
3588,0.072,0.511
3589,0.072,0.511
3590,0.072,0.511
3591,0.072,0.511
3592,0.066,0.492
3593,0.072,0.492
3594,0.066,0.492
3595,0.054,0.492
3596,0.054,0.462
3597,0.054,0.462
3598,0.054,0.462
3599,0.054,0.462
3600,0.048,0.434
3601,0.030,0.434
3602,0.030,0.434
3603,0.024,0.434
3604,0.012,0.396
3605,0.024,0.396
3606,0.006,0.396
3607,0.006,0.396
3608,0.006,0.360
3609,0.001,0.360
3610,0.006,0.360
3611,0.001,0.360
3612,0.001,0.326
3613,0.001,0.326
3614,0.001,0.326
3615,0.001,0.326
3616,0.001,0.283
3617,0.001,0.283
3618,0.001,0.283
3619,0.001,0.283
3620,-0.005,0.248
3621,0.001,0.248
3622,0.001,0.248
3623,0.001,0.248
3624,0.001,0.209
3625,0.001,0.209
3626,0.001,0.209
3627,0.001,0.209
3628,0.001,0.167
3629,0.001,0.167
3630,0.006,0.167
3631,0.006,0.167
3632,0.006,0.124
3633,0.001,0.124
3634,-0.005,0.124
3635,-0.023,0.124
3636,-0.047,0.093
3637,-0.053,0.093
3638,-0.053,0.093
3639,-0.065,0.093
3640,-0.065,0.054
3641,-0.053,0.054
3642,-0.047,0.054
3643,-0.035,0.054
3644,-0.029,0.019
3645,-0.029,0.019
3646,-0.029,0.019
3647,-0.029,0.019
3648,-0.029,-0.007
3649,-0.029,-0.007
3650,-0.053,-0.007
3651,-0.088,-0.007
3652,-0.112,-0.038
3653,-0.112,-0.038
3654,-0.088,-0.038
3655,-0.071,-0.038
3656,-0.065,-0.070
3657,-0.071,-0.070
3658,-0.065,-0.070
3659,-0.077,-0.070
3660,-0.112,-0.101
3661,-0.142,-0.101
3662,-0.183,-0.101
3663,-0.207,-0.101
3664,-0.219,-0.120
3665,-0.201,-0.120
3666,-0.177,-0.120
3667,-0.154,-0.120
3668,-0.118,-0.147
3669,-0.100,-0.147
3670,-0.077,-0.147
3671,-0.065,-0.147
3672,-0.053,-0.171
3673,-0.047,-0.171
3674,-0.029,-0.171
3675,-0.023,-0.171
3676,-0.029,-0.190
3677,-0.029,-0.190
3678,-0.029,-0.190
3679,-0.023,-0.190
3680,-0.023,-0.213
3681,-0.023,-0.213
3682,-0.023,-0.213
3683,-0.023,-0.213
3684,-0.011,-0.229
3685,-0.023,-0.229
3686,-0.029,-0.229
3687,-0.029,-0.229
3688,-0.023,-0.244
3689,-0.023,-0.244
3690,-0.023,-0.244
3691,-0.011,-0.244
3692,-0.023,-0.264
3693,-0.023,-0.264
3694,-0.023,-0.264
3695,-0.029,-0.264
3696,-0.029,-0.279
3697,-0.029,-0.279
3698,-0.023,-0.279
3699,-0.023,-0.279
3700,-0.023,-0.294
3701,-0.029,-0.294
3702,-0.029,-0.294
3703,-0.029,-0.294
3704,-0.029,-0.306
3705,-0.029,-0.306
3706,-0.035,-0.306
3707,-0.023,-0.306
3708,-0.029,-0.322
3709,-0.029,-0.322
3710,-0.029,-0.322
3711,-0.029,-0.322
3712,-0.029,-0.333
3713,-0.035,-0.333
3714,-0.029,-0.333
3715,-0.029,-0.333
3716,-0.035,-0.344
3717,-0.035,-0.344
3718,-0.035,-0.344
3719,-0.029,-0.344
3720,-0.035,-0.360
3721,-0.029,-0.360
3722,-0.029,-0.360
3723,-0.029,-0.360
3724,-0.029,-0.372
3725,-0.029,-0.372
3726,-0.029,-0.372
3727,-0.029,-0.372
3728,-0.029,-0.380
3729,-0.029,-0.380
3730,-0.023,-0.380
3731,-0.023,-0.380
3732,-0.029,-0.388
3733,-0.023,-0.388
3734,-0.029,-0.388
3735,-0.023,-0.388
3736,-0.029,-0.395
3737,-0.029,-0.395
3738,-0.023,-0.395
3739,-0.023,-0.395
3740,-0.011,-0.406
3741,-0.011,-0.406
3742,-0.011,-0.406
3743,-0.023,-0.406
3744,-0.011,-0.414
3745,-0.023,-0.414
3746,-0.023,-0.414
3747,-0.011,-0.414
3748,-0.023,-0.422
3749,-0.011,-0.422
3750,-0.011,-0.422
3751,-0.011,-0.422
3752,-0.011,-0.430
3753,-0.011,-0.430
3754,-0.011,-0.430
3755,-0.011,-0.430
3756,-0.011,-0.434
3757,-0.011,-0.434
3758,-0.005,-0.434
3759,-0.005,-0.434
3760,-0.005,-0.438
3761,-0.005,-0.438
3762,-0.011,-0.438
3763,0.001,-0.438
3764,-0.005,-0.434
3765,-0.005,-0.434
3766,0.001,-0.434
3767,-0.005,-0.434
3768,0.001,-0.418
3769,-0.005,-0.418
3770,-0.005,-0.418
3771,-0.005,-0.418
3772,0.001,-0.403
3773,0.001,-0.403
3774,0.001,-0.403
3775,0.001,-0.403
3776,0.001,-0.376
3777,0.001,-0.376
3778,-0.005,-0.376
3779,0.001,-0.376
3780,0.001,-0.341
3781,0.001,-0.341
3782,0.001,-0.341
3783,0.001,-0.341
3784,0.001,-0.294
3785,0.001,-0.294
3786,0.006,-0.294
3787,0.001,-0.294
3788,0.001,-0.236
3789,0.001,-0.236
3790,0.006,-0.236
3791,0.012,-0.236
3792,0.006,-0.173
3793,0.006,-0.173
3794,0.006,-0.173
3795,0.006,-0.173
3796,0.006,-0.112
3797,0.006,-0.112
3798,0.006,-0.112
3799,0.006,-0.112
3800,0.012,-0.043
3801,0.006,-0.043
3802,0.006,-0.043
3803,0.006,-0.043
3804,0.006,0.027
3805,0.006,0.027
3806,0.006,0.027
3807,0.006,0.027
3808,0.012,0.104
3809,0.012,0.104
3810,0.012,0.104
3811,0.006,0.104
3812,0.012,0.170
3813,0.006,0.170
3814,0.006,0.170
3815,0.006,0.170
3816,0.012,0.232
3817,0.006,0.232
3818,0.006,0.232
3819,0.006,0.232
3820,0.001,0.289
3821,0.001,0.289
3822,0.001,0.289
3823,0.006,0.289
3824,0.006,0.347
3825,0.006,0.347
3826,0.006,0.347
3827,0.001,0.347
3828,0.001,0.398
3829,0.001,0.398
3830,0.001,0.398
3831,0.001,0.398
3832,0.001,0.436
3833,0.001,0.436
3834,0.001,0.436
3835,0.001,0.436
3836,0.001,0.478
3837,-0.005,0.478
3838,0.001,0.478
3839,0.001,0.478
3840,0.001,0.513
3841,0.001,0.513
3842,0.001,0.513
3843,0.001,0.513
3844,0.006,0.532
3845,0.001,0.532
3846,0.001,0.532
3847,0.001,0.532
3848,0.001,0.552
3849,0.006,0.552
3850,0.001,0.552
3851,0.006,0.552
3852,0.012,0.559
3853,0.012,0.559
3854,0.012,0.559
3855,0.012,0.559
3856,0.024,0.568
3857,0.024,0.568
3858,0.036,0.568
3859,0.030,0.568
3860,0.030,0.559
3861,0.036,0.559
3862,0.036,0.559
3863,0.048,0.559
3864,0.048,0.552
3865,0.048,0.552
3866,0.054,0.552
3867,0.054,0.552
3868,0.054,0.532
3869,0.048,0.532
3870,0.054,0.532
3871,0.048,0.532
3872,0.048,0.513
3873,0.048,0.513
3874,0.036,0.513
3875,0.048,0.513
3876,0.036,0.490
3877,0.030,0.490
3878,0.024,0.490
3879,0.030,0.490
3880,0.024,0.460
3881,0.024,0.460
3882,0.024,0.460
3883,0.012,0.460
3884,0.012,0.424
3885,0.006,0.424
3886,0.001,0.424
3887,-0.005,0.424
3888,-0.005,0.394
3889,-0.011,0.394
3890,-0.011,0.394
3891,-0.011,0.394
3892,-0.023,0.359
3893,-0.011,0.359
3894,-0.023,0.359
3895,-0.023,0.359
3896,-0.023,0.321
3897,-0.023,0.321
3898,-0.023,0.321
3899,-0.029,0.321
3900,-0.011,0.282
3901,-0.023,0.282
3902,-0.023,0.282
3903,-0.029,0.282
3904,-0.023,0.243
3905,-0.023,0.243
3906,-0.029,0.243
3907,-0.023,0.243
3908,-0.023,0.204
3909,-0.023,0.204
3910,-0.023,0.204
3911,-0.023,0.204
3912,-0.023,0.162
3913,-0.011,0.162
3914,-0.011,0.162
3915,-0.023,0.162
3916,-0.023,0.123
3917,-0.023,0.123
3918,-0.035,0.123
3919,-0.053,0.123
3920,-0.071,0.093
3921,-0.071,0.093
3922,-0.088,0.093
3923,-0.088,0.093
3924,-0.088,0.058
3925,-0.077,0.058
3926,-0.077,0.058
3927,-0.065,0.058
3928,-0.065,0.024
3929,-0.065,0.024
3930,-0.065,0.024
3931,-0.065,0.024
3932,-0.065,-0.004
3933,-0.071,-0.004
3934,-0.088,-0.004
3935,-0.112,-0.004
3936,-0.142,-0.030
3937,-0.142,-0.030
3938,-0.118,-0.030
3939,-0.100,-0.030
3940,-0.088,-0.061
3941,-0.088,-0.061
3942,-0.077,-0.061
3943,-0.100,-0.061
3944,-0.130,-0.085
3945,-0.159,-0.085
3946,-0.195,-0.085
3947,-0.219,-0.085
3948,-0.230,-0.108
3949,-0.207,-0.108
3950,-0.183,-0.108
3951,-0.154,-0.108
3952,-0.136,-0.135
3953,-0.112,-0.135
3954,-0.088,-0.135
3955,-0.071,-0.135
3956,-0.065,-0.150
3957,-0.053,-0.150
3958,-0.035,-0.150
3959,-0.035,-0.150
3960,-0.035,-0.170
3961,-0.035,-0.170
3962,-0.035,-0.170
3963,-0.029,-0.170
3964,-0.029,-0.193
3965,-0.029,-0.193
3966,-0.029,-0.193
3967,-0.029,-0.193
3968,-0.029,-0.204
3969,-0.035,-0.204
3970,-0.035,-0.204
3971,-0.035,-0.204
3972,-0.029,-0.228
3973,-0.029,-0.228
3974,-0.029,-0.228
3975,-0.029,-0.228
3976,-0.029,-0.239
3977,-0.029,-0.239
3978,-0.035,-0.239
3979,-0.035,-0.239
3980,-0.035,-0.255
3981,-0.035,-0.255
3982,-0.035,-0.255
3983,-0.035,-0.255
3984,-0.035,-0.274
3985,-0.035,-0.274
3986,-0.035,-0.274
3987,-0.035,-0.274
3988,-0.035,-0.285
3989,-0.047,-0.285
3990,-0.035,-0.285
3991,-0.035,-0.285
3992,-0.047,-0.301
3993,-0.035,-0.301
3994,-0.047,-0.301
3995,-0.035,-0.301
3996,-0.047,-0.317
3997,-0.035,-0.317
3998,-0.047,-0.317
3999,-0.035,-0.317
4000,-0.029,-0.336
4001,-0.035,-0.336
4002,-0.035,-0.336
4003,-0.035,-0.336
4004,-0.035,-0.351
4005,-0.029,-0.351
4006,-0.029,-0.351
4007,-0.029,-0.351
4008,-0.029,-0.359
4009,-0.029,-0.359
4010,-0.029,-0.359
4011,-0.029,-0.359
4012,-0.029,-0.374
4013,-0.023,-0.374
4014,-0.011,-0.374
4015,-0.023,-0.374
4016,-0.011,-0.386
4017,-0.011,-0.386
4018,-0.011,-0.386
4019,-0.011,-0.386
4020,-0.011,-0.401
4021,-0.005,-0.401
4022,-0.005,-0.401
4023,-0.005,-0.401
4024,0.001,-0.409
4025,0.001,-0.409
4026,0.001,-0.409
4027,-0.005,-0.409
4028,0.001,-0.420
4029,-0.005,-0.420
4030,0.006,-0.420
4031,0.001,-0.420
4032,0.001,-0.428
4033,0.001,-0.428
4034,0.001,-0.428
4035,0.001,-0.428
4036,0.001,-0.436
4037,-0.005,-0.436
4038,0.001,-0.436
4039,0.001,-0.436
4040,0.006,-0.440
4041,0.001,-0.440
4042,0.001,-0.440
4043,-0.005,-0.440
4044,0.001,-0.440
4045,0.001,-0.440
4046,0.001,-0.440
4047,0.001,-0.440
4048,0.001,-0.442
4049,0.001,-0.442
4050,0.001,-0.442
4051,0.001,-0.442
4052,0.001,-0.426
4053,0.001,-0.426
4054,0.001,-0.426
4055,0.001,-0.426
4056,0.006,-0.400
4057,0.001,-0.400
4058,0.006,-0.400
4059,0.001,-0.400
4060,0.006,-0.373
4061,0.006,-0.373
4062,0.006,-0.373
4063,0.006,-0.373
4064,0.006,-0.331
4065,0.012,-0.331
4066,0.006,-0.331
4067,0.012,-0.331
4068,0.012,-0.281
4069,0.012,-0.281
4070,0.012,-0.281
4071,0.012,-0.281
4072,0.012,-0.219
4073,0.024,-0.219
4074,0.024,-0.219
4075,0.024,-0.219
4076,0.024,-0.162
4077,0.024,-0.162
4078,0.024,-0.162
4079,0.024,-0.162
4080,0.024,-0.092
4081,0.024,-0.092
4082,0.030,-0.092
4083,0.030,-0.092
4084,0.030,-0.027
4085,0.024,-0.027
4086,0.030,-0.027
4087,0.024,-0.027
4088,0.030,0.046
4089,0.030,0.046
4090,0.030,0.046
4091,0.030,0.046
4092,0.024,0.116
4093,0.030,0.116
4094,0.024,0.116
4095,0.024,0.116
4096,0.030,0.184
4097,0.024,0.184
4098,0.030,0.184
4099,0.030,0.184
4100,0.030,0.246
4101,0.024,0.246
4102,0.024,0.246
4103,0.024,0.246
4104,0.024,0.303
4105,0.024,0.303
4106,0.024,0.303
4107,0.030,0.303
4108,0.024,0.357
4109,0.024,0.357
4110,0.024,0.357
4111,0.024,0.357
4112,0.024,0.407
4113,0.024,0.407
4114,0.024,0.407
4115,0.024,0.407
4116,0.024,0.454
4117,0.024,0.454
4118,0.012,0.454
4119,0.012,0.454
4120,0.012,0.492
4121,0.024,0.492
4122,0.012,0.492
4123,0.024,0.492
4124,0.024,0.523
4125,0.012,0.523
4126,0.024,0.523
4127,0.012,0.523
4128,0.012,0.546
4129,0.024,0.546
4130,0.024,0.546
4131,0.024,0.546
4132,0.030,0.561
4133,0.030,0.561
4134,0.030,0.561
4135,0.036,0.561
4136,0.036,0.569
4137,0.036,0.569
4138,0.048,0.569
4139,0.048,0.569
4140,0.066,0.569
4141,0.054,0.569
4142,0.066,0.569
4143,0.066,0.569
4144,0.072,0.565
4145,0.066,0.565
4146,0.072,0.565
4147,0.077,0.565
4148,0.077,0.557
4149,0.089,0.557
4150,0.095,0.557
4151,0.095,0.557
4152,0.095,0.534
4153,0.089,0.534
4154,0.095,0.534
4155,0.089,0.534
4156,0.095,0.511
4157,0.089,0.511
4158,0.089,0.511
4159,0.077,0.511
4160,0.077,0.488
4161,0.072,0.488
4162,0.072,0.488
4163,0.077,0.488
4164,0.072,0.454
4165,0.072,0.454
4166,0.072,0.454
4167,0.072,0.454
4168,0.066,0.415
4169,0.054,0.415
4170,0.048,0.415
4171,0.036,0.415
4172,0.036,0.377
4173,0.030,0.377
4174,0.030,0.377
4175,0.030,0.377
4176,0.024,0.342
4177,0.024,0.342
4178,0.024,0.342
4179,0.024,0.342
4180,0.024,0.296
4181,0.024,0.296
4182,0.024,0.296
4183,0.024,0.296
4184,0.024,0.254
4185,0.012,0.254
4186,0.024,0.254
4187,0.012,0.254
4188,0.024,0.215
4189,0.024,0.215
4190,0.024,0.215
4191,0.024,0.215
4192,0.024,0.173
4193,0.024,0.173
4194,0.012,0.173
4195,0.024,0.173
4196,0.024,0.131
4197,0.030,0.131
4198,0.030,0.131
4199,0.030,0.131
4200,0.030,0.092
4201,0.030,0.092
4202,0.024,0.092
4203,0.006,0.092
4204,-0.005,0.050
4205,-0.011,0.050
4206,-0.029,0.050
4207,-0.035,0.050
4208,-0.035,0.015
4209,-0.029,0.015
4210,-0.029,0.015
4211,-0.023,0.015
4212,-0.005,-0.023
4213,0.001,-0.023
4214,0.001,-0.023
4215,-0.005,-0.023
4216,-0.005,-0.054
4217,-0.011,-0.054
4218,-0.023,-0.054
4219,-0.053,-0.054
4220,-0.077,-0.088
4221,-0.094,-0.088
4222,-0.077,-0.088
4223,-0.053,-0.088
4224,-0.047,-0.116
4225,-0.047,-0.116
4226,-0.035,-0.116
4227,-0.035,-0.116
4228,-0.065,-0.146
4229,-0.100,-0.146
4230,-0.136,-0.146
4231,-0.159,-0.146
4232,-0.183,-0.173
4233,-0.177,-0.173
4234,-0.159,-0.173
4235,-0.136,-0.173
4236,-0.100,-0.196
4237,-0.077,-0.196
4238,-0.065,-0.196
4239,-0.035,-0.196
4240,-0.023,-0.219
4241,-0.011,-0.219
4242,-0.005,-0.219
4243,-0.005,-0.219
4244,0.001,-0.238
4245,0.001,-0.238
4246,0.001,-0.238
4247,0.006,-0.238
4248,0.006,-0.262
4249,0.006,-0.262
4250,0.006,-0.262
4251,0.012,-0.262
4252,0.006,-0.277
4253,0.001,-0.277
4254,0.006,-0.277
4255,0.001,-0.277
4256,0.001,-0.296
4257,0.006,-0.296
4258,0.006,-0.296
4259,0.001,-0.296
4260,0.001,-0.311
4261,0.001,-0.311
4262,0.001,-0.311
4263,0.001,-0.311
4264,0.001,-0.327
4265,0.001,-0.327
4266,0.001,-0.327
4267,0.001,-0.327
4268,0.001,-0.346
4269,-0.005,-0.346
4270,-0.005,-0.346
4271,-0.005,-0.346
4272,-0.005,-0.361
4273,-0.005,-0.361
4274,-0.005,-0.361
4275,-0.005,-0.361
4276,-0.005,-0.377
4277,-0.011,-0.377
4278,-0.011,-0.377
4279,-0.011,-0.377
4280,-0.011,-0.392
4281,-0.005,-0.392
4282,-0.011,-0.392
4283,-0.005,-0.392
4284,-0.005,-0.400
4285,-0.011,-0.400
4286,-0.011,-0.400
4287,-0.011,-0.400
4288,-0.011,-0.415
4289,-0.011,-0.415
4290,-0.011,-0.415
4291,-0.005,-0.415
4292,-0.011,-0.430
4293,-0.005,-0.430
4294,-0.011,-0.430
4295,-0.005,-0.430
4296,-0.005,-0.446
4297,-0.005,-0.446
4298,0.001,-0.446
4299,-0.005,-0.446
4300,0.001,-0.454
4301,0.001,-0.454
4302,0.006,-0.454
4303,0.001,-0.454
4304,0.001,-0.496
4305,0.001,-0.496
4306,0.001,-0.496
4307,0.006,-0.496
4308,0.006,-0.507
4309,0.006,-0.507
4310,0.006,-0.507
4311,0.006,-0.507
4312,0.006,-0.519
4313,0.006,-0.519
4314,0.012,-0.519
4315,0.006,-0.519
4316,0.012,-0.523
4317,0.006,-0.523
4318,0.006,-0.523
4319,0.006,-0.523
4320,0.006,-0.530
4321,0.006,-0.530
4322,0.006,-0.530
4323,0.012,-0.530
4324,0.012,-0.534
4325,0.012,-0.534
4326,0.012,-0.534
4327,0.012,-0.534
4328,0.012,-0.534
4329,0.006,-0.534
4330,0.024,-0.534
4331,0.012,-0.534
4332,0.024,-0.534
4333,0.024,-0.534
4334,0.024,-0.534
4335,0.024,-0.534
4336,0.012,-0.523
4337,0.024,-0.523
4338,0.024,-0.523
4339,0.024,-0.523
4340,0.024,-0.507
4341,0.024,-0.507
4342,0.024,-0.507
4343,0.024,-0.507
4344,0.024,-0.480
4345,0.024,-0.480
4346,0.024,-0.480
4347,0.024,-0.480
4348,0.030,-0.450
4349,0.030,-0.450
4350,0.030,-0.450
4351,0.030,-0.450
4352,0.030,-0.407
4353,0.024,-0.407
4354,0.030,-0.407
4355,0.030,-0.407
4356,0.030,-0.357
4357,0.024,-0.357
4358,0.036,-0.357
4359,0.030,-0.357
4360,0.030,-0.296
4361,0.030,-0.296
4362,0.030,-0.296
4363,0.036,-0.296
4364,0.036,-0.231
4365,0.048,-0.231
4366,0.036,-0.231
4367,0.048,-0.231
4368,0.036,-0.166
4369,0.036,-0.166
4370,0.036,-0.166
4371,0.036,-0.166
4372,0.048,-0.096
4373,0.048,-0.096
4374,0.048,-0.096
4375,0.048,-0.096
4376,0.048,-0.027
4377,0.054,-0.027
4378,0.054,-0.027
4379,0.054,-0.027
4380,0.054,0.038
4381,0.054,0.038
4382,0.066,0.038
4383,0.066,0.038
4384,0.066,0.103
4385,0.066,0.103
4386,0.066,0.103
4387,0.066,0.103
4388,0.072,0.165
4389,0.072,0.165
4390,0.066,0.165
4391,0.072,0.165
4392,0.072,0.223
4393,0.066,0.223
4394,0.066,0.223
4395,0.072,0.223
4396,0.072,0.277
4397,0.072,0.277
4398,0.072,0.277
4399,0.072,0.277
4400,0.077,0.327
4401,0.072,0.327
4402,0.072,0.327
4403,0.066,0.327
4404,0.066,0.369
4405,0.066,0.369
4406,0.066,0.369
4407,0.066,0.369
4408,0.072,0.407
4409,0.072,0.407
4410,0.066,0.407
4411,0.066,0.407
4412,0.066,0.434
4413,0.066,0.434
4414,0.077,0.434
4415,0.072,0.434
4416,0.072,0.458
4417,0.072,0.458
4418,0.077,0.458
4419,0.072,0.458
4420,0.072,0.476
4421,0.077,0.476
4422,0.089,0.476
4423,0.095,0.476
4424,0.095,0.492
4425,0.101,0.492
4426,0.101,0.492
4427,0.101,0.492
4428,0.113,0.492
4429,0.101,0.492
4430,0.119,0.492
4431,0.119,0.492
4432,0.137,0.488
4433,0.137,0.488
4434,0.137,0.488
4435,0.142,0.488
4436,0.142,0.476
4437,0.142,0.476
4438,0.154,0.476
4439,0.142,0.476
4440,0.142,0.458
4441,0.142,0.458
4442,0.142,0.458
4443,0.154,0.458
4444,0.137,0.434
4445,0.131,0.434
4446,0.142,0.434
4447,0.137,0.434
4448,0.137,0.411
4449,0.142,0.411
4450,0.137,0.411
4451,0.131,0.411
4452,0.119,0.377
4453,0.119,0.377
4454,0.113,0.377
4455,0.101,0.377
4456,0.101,0.346
4457,0.095,0.346
4458,0.089,0.346
4459,0.089,0.346
4460,0.095,0.311
4461,0.089,0.311
4462,0.089,0.311
4463,0.089,0.311
4464,0.089,0.269
4465,0.089,0.269
4466,0.089,0.269
4467,0.089,0.269
4468,0.077,0.231
4469,0.089,0.231
4470,0.077,0.231
4471,0.077,0.231
4472,0.089,0.189
4473,0.077,0.189
4474,0.089,0.189
4475,0.077,0.189
4476,0.089,0.146
4477,0.077,0.146
4478,0.077,0.146
4479,0.077,0.146
4480,0.089,0.112
4481,0.089,0.112
4482,0.089,0.112
4483,0.089,0.112
4484,0.089,0.069
4485,0.089,0.069
4486,0.077,0.069
4487,0.066,0.069
4488,0.054,0.035
4489,0.036,0.035
4490,0.024,0.035
4491,0.012,0.035
4492,0.012,-0.007
4493,0.012,-0.007
4494,0.012,-0.007
4495,0.024,-0.007
4496,0.036,-0.038
4497,0.048,-0.038
4498,0.054,-0.038
4499,0.048,-0.038
4500,0.048,-0.073
4501,0.048,-0.073
4502,0.036,-0.073
4503,0.012,-0.073
4504,-0.011,-0.104
4505,-0.035,-0.104
4506,-0.029,-0.104
4507,-0.005,-0.104
4508,0.001,-0.131
4509,0.006,-0.131
4510,0.001,-0.131
4511,0.001,-0.131
4512,-0.011,-0.162
4513,-0.047,-0.162
4514,-0.077,-0.162
4515,-0.118,-0.162
4516,-0.142,-0.189
4517,-0.159,-0.189
4518,-0.154,-0.189
4519,-0.130,-0.189
4520,-0.112,-0.215
4521,-0.077,-0.215
4522,-0.053,-0.215
4523,-0.029,-0.215
4524,-0.023,-0.238
4525,-0.005,-0.238
4526,0.001,-0.238
4527,0.001,-0.238
4528,0.006,-0.258
4529,0.006,-0.258
4530,0.024,-0.258
4531,0.012,-0.258
4532,0.012,-0.277
4533,0.012,-0.277
4534,0.012,-0.277
4535,0.012,-0.277
4536,0.006,-0.300
4537,0.012,-0.300
4538,0.006,-0.300
4539,0.012,-0.300
4540,0.012,-0.319
4541,0.012,-0.319
4542,0.012,-0.319
4543,0.006,-0.319
4544,0.012,-0.339
4545,0.012,-0.339
4546,0.012,-0.339
4547,0.012,-0.339
4548,0.012,-0.357
4549,0.024,-0.357
4550,0.012,-0.357
4551,0.024,-0.357
4552,0.012,-0.373
4553,0.012,-0.373
4554,0.012,-0.373
4555,0.012,-0.373
4556,0.012,-0.392
4557,0.006,-0.392
4558,0.012,-0.392
4559,0.006,-0.392
4560,0.006,-0.409
4561,0.001,-0.409
4562,0.001,-0.409
4563,0.006,-0.409
4564,0.001,-0.424
4565,0.001,-0.424
4566,0.001,-0.424
4567,0.006,-0.424
4568,0.001,-0.440
4569,-0.005,-0.440
4570,-0.005,-0.440
4571,-0.005,-0.440
4572,0.001,-0.456
4573,-0.005,-0.456
4574,-0.005,-0.456
4575,0.001,-0.456
4576,-0.005,-0.467
4577,0.001,-0.467
4578,-0.005,-0.467
4579,-0.005,-0.467
4580,-0.005,-0.482
4581,-0.005,-0.482
4582,-0.005,-0.482
4583,0.001,-0.482
4584,0.001,-0.494
4585,-0.005,-0.494
4586,0.001,-0.494
4587,-0.005,-0.494
4588,0.001,-0.502
4589,0.001,-0.502
4590,0.001,-0.502
4591,0.001,-0.502
4592,0.001,-0.513
4593,0.001,-0.513
4594,0.001,-0.513
4595,0.006,-0.513
4596,0.001,-0.529
4597,0.001,-0.529
4598,0.001,-0.529
4599,0.001,-0.529
4600,0.006,-0.532
4601,0.001,-0.532
4602,0.006,-0.532
4603,0.001,-0.532
4604,0.001,-0.544
4605,0.001,-0.544
4606,0.001,-0.544
4607,0.006,-0.544
4608,0.006,-0.548
4609,0.006,-0.548
4610,0.001,-0.548
4611,0.006,-0.548
4612,0.006,-0.548
4613,0.001,-0.548
4614,0.012,-0.548
4615,0.006,-0.548
4616,0.006,-0.552
4617,0.006,-0.552
4618,0.006,-0.552
4619,0.006,-0.552
4620,0.006,-0.540
4621,0.006,-0.540
4622,0.001,-0.540
4623,0.006,-0.540
4624,0.006,-0.529
4625,0.006,-0.529
4626,0.006,-0.529
4627,0.006,-0.529
4628,0.006,-0.505
4629,0.006,-0.505
4630,0.012,-0.505
4631,0.012,-0.505
4632,0.012,-0.471
4633,0.012,-0.471
4634,0.012,-0.471
4635,0.012,-0.471
4636,0.012,-0.424
4637,0.012,-0.424
4638,0.012,-0.424
4639,0.012,-0.424
4640,0.012,-0.379
4641,0.012,-0.379
4642,0.012,-0.379
4643,0.012,-0.379
4644,0.012,-0.321
4645,0.006,-0.321
4646,0.006,-0.321
4647,0.012,-0.321
4648,0.006,-0.255
4649,0.012,-0.255
4650,0.006,-0.255
4651,0.012,-0.255
4652,0.012,-0.193
4653,0.006,-0.193
4654,0.012,-0.193
4655,0.012,-0.193
4656,0.012,-0.123
4657,0.006,-0.123
4658,0.012,-0.123
4659,0.012,-0.123
4660,0.012,-0.050
4661,0.006,-0.050
4662,0.006,-0.050
4663,0.006,-0.050
4664,0.006,0.015
4665,0.012,0.015
4666,0.006,0.015
4667,0.006,0.015
4668,0.006,0.081
4669,0.006,0.081
4670,0.006,0.081
4671,0.006,0.081
4672,0.006,0.142
4673,0.006,0.142
4674,0.006,0.142
4675,0.001,0.142
4676,0.001,0.204
4677,0.001,0.204
4678,0.001,0.204
4679,0.001,0.204
4680,0.001,0.255
4681,0.001,0.255
4682,0.001,0.255
4683,0.001,0.255
4684,0.006,0.301
4685,0.001,0.301
4686,0.001,0.301
4687,-0.005,0.301
4688,0.001,0.347
4689,0.001,0.347
4690,0.006,0.347
4691,0.001,0.347
4692,0.001,0.382
4693,0.001,0.382
4694,-0.005,0.382
4695,0.001,0.382
4696,0.001,0.413
4697,0.001,0.413
4698,0.001,0.413
4699,0.006,0.413
4700,0.006,0.432
4701,0.006,0.432
4702,0.012,0.432
4703,0.012,0.432
4704,0.012,0.448
4705,0.024,0.448
4706,0.024,0.448
4707,0.030,0.448
4708,0.030,0.459
4709,0.036,0.459
4710,0.030,0.459
4711,0.036,0.459
4712,0.036,0.456
4713,0.048,0.456
4714,0.054,0.456
4715,0.054,0.456
4716,0.066,0.456
4717,0.066,0.456
4718,0.072,0.456
4719,0.072,0.456
4720,0.072,0.440
4721,0.072,0.440
4722,0.072,0.440
4723,0.072,0.440
4724,0.066,0.428
4725,0.072,0.428
4726,0.072,0.428
4727,0.066,0.428
4728,0.066,0.402
4729,0.054,0.402
4730,0.066,0.402
4731,0.054,0.402
4732,0.066,0.378
4733,0.054,0.378
4734,0.054,0.378
4735,0.048,0.378
4736,0.036,0.347
4737,0.036,0.347
4738,0.030,0.347
4739,0.024,0.347
4740,0.024,0.312
4741,0.012,0.312
4742,0.006,0.312
4743,0.006,0.312
4744,0.006,0.274
4745,0.001,0.274
4746,0.001,0.274
4747,0.001,0.274
4748,0.001,0.235
4749,0.001,0.235
4750,-0.005,0.235
4751,-0.005,0.235
4752,-0.011,0.193
4753,-0.005,0.193
4754,-0.005,0.193
4755,-0.005,0.193
4756,-0.005,0.150
4757,-0.005,0.150
4758,-0.005,0.150
4759,-0.005,0.150
4760,-0.005,0.112
4761,-0.005,0.112
4762,-0.005,0.112
4763,-0.011,0.112
4764,-0.005,0.070
4765,-0.005,0.070
4766,-0.005,0.070
4767,0.001,0.070
4768,-0.005,0.027
4769,-0.005,0.027
4770,-0.011,0.027
4771,-0.023,0.027
4772,-0.035,-0.011
4773,-0.053,-0.011
4774,-0.065,-0.011
4775,-0.071,-0.011
4776,-0.077,-0.046
4777,-0.077,-0.046
4778,-0.071,-0.046
4779,-0.065,-0.046
4780,-0.047,-0.081
4781,-0.029,-0.081
4782,-0.029,-0.081
4783,-0.029,-0.081
4784,-0.035,-0.112
4785,-0.029,-0.112
4786,-0.035,-0.112
4787,-0.053,-0.112
4788,-0.088,-0.146
4789,-0.112,-0.146
4790,-0.112,-0.146
4791,-0.088,-0.146
4792,-0.077,-0.177
4793,-0.071,-0.177
4794,-0.077,-0.177
4795,-0.071,-0.177
4796,-0.088,-0.201
4797,-0.112,-0.201
4798,-0.154,-0.201
4799,-0.183,-0.201
4800,-0.219,-0.228
4801,-0.219,-0.228
4802,-0.207,-0.228
4803,-0.195,-0.228
4804,-0.159,-0.251
4805,-0.136,-0.251
4806,-0.100,-0.251
4807,-0.088,-0.251
4808,-0.071,-0.278
4809,-0.053,-0.278
4810,-0.047,-0.278
4811,-0.035,-0.278
4812,-0.029,-0.293
4813,-0.029,-0.293
4814,-0.023,-0.293
4815,-0.023,-0.293
4816,-0.011,-0.317
4817,-0.023,-0.317
4818,-0.023,-0.317
4819,-0.023,-0.317
4820,-0.023,-0.336
4821,-0.023,-0.336
4822,-0.023,-0.336
4823,-0.011,-0.336
4824,-0.023,-0.355
4825,-0.023,-0.355
4826,-0.023,-0.355
4827,-0.023,-0.355
4828,-0.023,-0.371
4829,-0.029,-0.371
4830,-0.023,-0.371
4831,-0.023,-0.371
4832,-0.023,-0.383
4833,-0.023,-0.383
4834,-0.029,-0.383
4835,-0.029,-0.383
4836,-0.029,-0.395
4837,-0.029,-0.395
4838,-0.029,-0.395
4839,-0.023,-0.395
4840,-0.029,-0.403
4841,-0.029,-0.403
4842,-0.029,-0.403
4843,-0.029,-0.403
4844,-0.029,-0.418
4845,-0.035,-0.418
4846,-0.035,-0.418
4847,-0.029,-0.418
4848,-0.035,-0.429
4849,-0.029,-0.429
4850,-0.035,-0.429
4851,-0.029,-0.429
4852,-0.035,-0.438
4853,-0.029,-0.438
4854,-0.035,-0.438
4855,-0.035,-0.438
4856,-0.029,-0.449
4857,-0.029,-0.449
4858,-0.029,-0.449
4859,-0.029,-0.449
4860,-0.029,-0.461
4861,-0.029,-0.461
4862,-0.029,-0.461
4863,-0.029,-0.461
4864,-0.023,-0.476
4865,-0.011,-0.476
4866,-0.023,-0.476
4867,-0.023,-0.476
4868,-0.023,-0.484
4869,-0.023,-0.484
4870,-0.023,-0.484
4871,-0.023,-0.484
4872,-0.011,-0.500
4873,-0.005,-0.500
4874,0.001,-0.500
4875,-0.005,-0.500
4876,-0.005,-0.508
4877,-0.011,-0.508
4878,-0.005,-0.508
4879,-0.005,-0.508
4880,-0.005,-0.519
4881,-0.005,-0.519
4882,-0.005,-0.519
4883,0.001,-0.519
4884,0.001,-0.527
4885,0.001,-0.527
4886,0.001,-0.527
4887,0.001,-0.527
4888,0.001,-0.535
4889,0.001,-0.535
4890,0.001,-0.535
4891,0.006,-0.535
4892,0.006,-0.543
4893,0.006,-0.543
4894,0.001,-0.543
4895,0.006,-0.543
4896,0.001,-0.543
4897,0.006,-0.543
4898,0.006,-0.543
4899,0.006,-0.543
4900,0.006,-0.539
4901,0.006,-0.539
4902,0.012,-0.539
4903,0.012,-0.539
4904,0.006,-0.531
4905,0.012,-0.531
4906,0.012,-0.531
4907,0.012,-0.531
4908,0.024,-0.519
4909,0.024,-0.519
4910,0.012,-0.519
4911,0.024,-0.519
4912,0.024,-0.496
4913,0.024,-0.496
4914,0.024,-0.496
4915,0.024,-0.496
4916,0.030,-0.465
4917,0.024,-0.465
4918,0.030,-0.465
4919,0.030,-0.465
4920,0.024,-0.422
4921,0.030,-0.422
4922,0.036,-0.422
4923,0.030,-0.422
4924,0.030,-0.371
4925,0.036,-0.371
4926,0.036,-0.371
4927,0.036,-0.371
4928,0.036,-0.312
4929,0.036,-0.312
4930,0.048,-0.312
4931,0.036,-0.312
4932,0.048,-0.246
4933,0.048,-0.246
4934,0.036,-0.246
4935,0.036,-0.246
4936,0.036,-0.179
4937,0.036,-0.179
4938,0.036,-0.179
4939,0.036,-0.179
4940,0.048,-0.105
4941,0.036,-0.105
4942,0.036,-0.105
4943,0.030,-0.105
4944,0.030,-0.035
4945,0.030,-0.035
4946,0.036,-0.035
4947,0.030,-0.035
4948,0.030,0.039
4949,0.030,0.039
4950,0.030,0.039
4951,0.030,0.039
4952,0.024,0.102
4953,0.024,0.102
4954,0.024,0.102
4955,0.024,0.102
4956,0.024,0.164
4957,0.024,0.164
4958,0.024,0.164
4959,0.012,0.164
4960,0.024,0.223
4961,0.012,0.223
4962,0.024,0.223
4963,0.030,0.223
4964,0.024,0.274
4965,0.024,0.274
4966,0.024,0.274
4967,0.024,0.274
4968,0.024,0.324
4969,0.024,0.324
4970,0.024,0.324
4971,0.024,0.324
4972,0.030,0.371
4973,0.024,0.371
4974,0.030,0.371
4975,0.024,0.371
4976,0.024,0.406
4977,0.024,0.406
4978,0.024,0.406
4979,0.024,0.406
4980,0.024,0.438
4981,0.024,0.438
4982,0.024,0.438
4983,0.024,0.438
4984,0.030,0.461
4985,0.024,0.461
4986,0.030,0.461
4987,0.024,0.461
4988,0.030,0.480
4989,0.030,0.480
4990,0.036,0.480
4991,0.048,0.480
4992,0.048,0.488
4993,0.048,0.488
4994,0.048,0.488
4995,0.054,0.488
4996,0.054,0.488
4997,0.066,0.488
4998,0.072,0.488
4999,0.072,0.488
5000,0.077,0.484
5001,0.072,0.484
5002,0.077,0.484
5003,0.077,0.484
5004,0.089,0.472
5005,0.089,0.472
5006,0.089,0.472
5007,0.077,0.472
5008,0.077,0.457
5009,0.077,0.457
5010,0.072,0.457
5011,0.072,0.457
5012,0.066,0.433
5013,0.066,0.433
5014,0.072,0.433
5015,0.066,0.433
5016,0.066,0.406
5017,0.066,0.406
5018,0.054,0.406
5019,0.048,0.406
5020,0.048,0.375
5021,0.036,0.375
5022,0.030,0.375
5023,0.030,0.375
5024,0.024,0.336
5025,0.024,0.336
5026,0.012,0.336
5027,0.006,0.336
5028,0.006,0.301
5029,0.001,0.301
5030,0.001,0.301
5031,0.006,0.301
5032,0.006,0.258
5033,0.001,0.258
5034,0.001,0.258
5035,0.001,0.258
5036,0.001,0.223
5037,0.001,0.223
5038,0.001,0.223
5039,0.001,0.223
5040,0.001,0.179
5041,0.001,0.179
5042,0.001,0.179
5043,0.001,0.179
5044,0.001,0.137
5045,0.001,0.137
5046,0.006,0.137
5047,0.001,0.137
5048,0.001,0.098
5049,0.001,0.098
5050,0.006,0.098
5051,0.006,0.098
5052,0.001,0.062
5053,0.001,0.062
5054,-0.005,0.062
5055,-0.011,0.062
5056,-0.029,0.028
5057,-0.035,0.028
5058,-0.053,0.028
5059,-0.065,0.028
5060,-0.065,-0.008
5061,-0.065,-0.008
5062,-0.053,-0.008
5063,-0.047,-0.008
5064,-0.029,-0.043
5065,-0.023,-0.043
5066,-0.023,-0.043
5067,-0.023,-0.043
5068,-0.023,-0.070
5069,-0.023,-0.070
5070,-0.029,-0.070
5071,-0.053,-0.070
5072,-0.088,-0.102
5073,-0.100,-0.102
5074,-0.088,-0.102
5075,-0.077,-0.102
5076,-0.065,-0.129
5077,-0.065,-0.129
5078,-0.065,-0.129
5079,-0.065,-0.129
5080,-0.077,-0.157
5081,-0.112,-0.157
5082,-0.142,-0.157
5083,-0.177,-0.157
5084,-0.201,-0.179
5085,-0.201,-0.179
5086,-0.195,-0.179
5087,-0.165,-0.179
5088,-0.130,-0.203
5089,-0.112,-0.203
5090,-0.088,-0.203
5091,-0.071,-0.203
5092,-0.053,-0.227
5093,-0.035,-0.227
5094,-0.029,-0.227
5095,-0.023,-0.227
5096,-0.023,-0.242
5097,-0.011,-0.242
5098,-0.011,-0.242
5099,-0.005,-0.242
5100,-0.005,-0.262
5101,-0.011,-0.262
5102,-0.005,-0.262
5103,-0.011,-0.262
5104,-0.011,-0.278
5105,-0.011,-0.278
5106,-0.005,-0.278
5107,-0.005,-0.278
5108,-0.011,-0.293
5109,-0.011,-0.293
5110,-0.011,-0.293
5111,-0.011,-0.293
5112,-0.011,-0.317
5113,-0.011,-0.317
5114,-0.011,-0.317
5115,-0.011,-0.317
5116,-0.011,-0.328
5117,-0.023,-0.328
5118,-0.023,-0.328
5119,-0.023,-0.328
5120,-0.023,-0.340
5121,-0.023,-0.340
5122,-0.023,-0.340
5123,-0.023,-0.340
5124,-0.029,-0.351
5125,-0.011,-0.351
5126,-0.029,-0.351
5127,-0.023,-0.351
5128,-0.023,-0.367
5129,-0.023,-0.367
5130,-0.023,-0.367
5131,-0.023,-0.367
5132,-0.023,-0.379
5133,-0.029,-0.379
5134,-0.023,-0.379
5135,-0.023,-0.379
5136,-0.023,-0.387
5137,-0.023,-0.387
5138,-0.023,-0.387
5139,-0.023,-0.387
5140,-0.023,-0.399
5141,-0.023,-0.399
5142,-0.023,-0.399
5143,-0.023,-0.399
5144,-0.029,-0.410
5145,-0.023,-0.410
5146,-0.023,-0.410
5147,-0.029,-0.410
5148,-0.023,-0.426
5149,-0.023,-0.426
5150,-0.011,-0.426
5151,-0.023,-0.426
5152,-0.023,-0.438
5153,-0.011,-0.438
5154,-0.011,-0.438
5155,-0.011,-0.438
5156,-0.011,-0.453
5157,-0.005,-0.453
5158,-0.005,-0.453
5159,-0.005,-0.453
5160,-0.005,-0.465
5161,-0.005,-0.465
5162,-0.005,-0.465
5163,-0.005,-0.465
5164,0.001,-0.472
5165,0.001,-0.472
5166,0.001,-0.472
5167,0.001,-0.472
5168,-0.005,-0.488
5169,-0.005,-0.488
5170,-0.005,-0.488
5171,-0.005,-0.488
5172,-0.005,-0.492
5173,-0.005,-0.492
5174,0.001,-0.492
5175,-0.005,-0.492
5176,0.001,-0.500
5177,0.001,-0.500
5178,0.001,-0.500
5179,-0.005,-0.500
5180,-0.005,-0.500
5181,0.001,-0.500
5182,0.001,-0.500
5183,0.001,-0.500
5184,0.001,-0.500
5185,-0.005,-0.500
5186,0.001,-0.500
5187,0.001,-0.500
5188,0.001,-0.492
5189,0.001,-0.492
5190,0.006,-0.492
5191,0.006,-0.492
5192,0.006,-0.472
5193,0.006,-0.472
5194,0.001,-0.472
5195,0.006,-0.472
5196,0.006,-0.449
5197,0.006,-0.449
5198,0.006,-0.449
5199,0.006,-0.449
5200,0.006,-0.410
5201,0.006,-0.410
5202,0.006,-0.410
5203,0.006,-0.410
5204,0.006,-0.367
5205,0.006,-0.367
5206,0.006,-0.367
5207,0.012,-0.367
5208,0.006,-0.312
5209,0.012,-0.312
5210,0.006,-0.312
5211,0.012,-0.312
5212,0.006,-0.258
5213,0.006,-0.258
5214,0.012,-0.258
5215,0.012,-0.258
5216,0.012,-0.188
5217,0.006,-0.188
5218,0.024,-0.188
5219,0.012,-0.188
5220,0.012,-0.121
5221,0.006,-0.121
5222,0.006,-0.121
5223,0.012,-0.121
5224,0.012,-0.051
5225,0.012,-0.051
5226,0.006,-0.051
5227,0.006,-0.051
5228,0.006,0.024
5229,0.006,0.024
5230,0.006,0.024
5231,0.006,0.024
5232,0.012,0.093
5233,0.006,0.093
5234,0.006,0.093
5235,0.006,0.093
5236,0.006,0.156
5237,0.006,0.156
5238,0.006,0.156
5239,0.006,0.156
5240,0.006,0.223
5241,0.006,0.223
5242,0.006,0.223
5243,0.001,0.223
5244,0.001,0.278
5245,-0.005,0.278
5246,0.012,0.278
5247,0.006,0.278
5248,0.006,0.332
5249,0.001,0.332
5250,0.006,0.332
5251,0.001,0.332
5252,0.001,0.379
5253,0.001,0.379
5254,0.001,0.379
5255,0.006,0.379
5256,0.006,0.422
5257,0.006,0.422
5258,0.001,0.422
5259,0.001,0.422
5260,0.001,0.457
5261,0.006,0.457
5262,0.001,0.457
5263,0.006,0.457
5264,0.001,0.484
5265,0.006,0.484
5266,0.012,0.484
5267,0.012,0.484
5268,0.006,0.515
5269,0.012,0.515
5270,0.012,0.515
5271,0.024,0.515
5272,0.024,0.527
5273,0.024,0.527
5274,0.030,0.527
5275,0.030,0.527
5276,0.036,0.539
5277,0.036,0.539
5278,0.036,0.539
5279,0.048,0.539
5280,0.048,0.543
5281,0.048,0.543
5282,0.054,0.543
5283,0.066,0.543
5284,0.066,0.535
5285,0.066,0.535
5286,0.066,0.535
5287,0.066,0.535
5288,0.077,0.527
5289,0.072,0.527
5290,0.072,0.527
5291,0.066,0.527
5292,0.066,0.511
5293,0.066,0.511
5294,0.054,0.511
5295,0.054,0.511
5296,0.054,0.492
5297,0.048,0.492
5298,0.048,0.492
5299,0.054,0.492
5300,0.048,0.465
5301,0.036,0.465
5302,0.048,0.465
5303,0.030,0.465
5304,0.024,0.438
5305,0.024,0.438
5306,0.012,0.438
5307,0.012,0.438
5308,0.006,0.406
5309,0.001,0.406
5310,0.001,0.406
5311,0.001,0.406
5312,0.001,0.363
5313,-0.005,0.363
5314,-0.005,0.363
5315,-0.005,0.363
5316,-0.005,0.332
5317,-0.005,0.332
5318,-0.011,0.332
5319,-0.011,0.332
5320,-0.005,0.289
5321,-0.011,0.289
5322,-0.005,0.289
5323,-0.011,0.289
5324,-0.005,0.250
5325,-0.005,0.250
5326,-0.005,0.250
5327,-0.011,0.250
5328,-0.011,0.230
5329,-0.011,0.230
5330,-0.005,0.230
5331,-0.005,0.230
5332,-0.005,0.191
5333,-0.005,0.191
5334,0.001,0.191
5335,-0.005,0.191
5336,-0.005,0.152
5337,-0.011,0.152
5338,-0.029,0.152
5339,-0.029,0.152
5340,-0.047,0.117
5341,-0.065,0.117
5342,-0.071,0.117
5343,-0.077,0.117
5344,-0.077,0.078
5345,-0.071,0.078
5346,-0.065,0.078
5347,-0.053,0.078
5348,-0.047,0.047
5349,-0.047,0.047
5350,-0.053,0.047
5351,-0.047,0.047
5352,-0.047,0.019
5353,-0.047,0.019
5354,-0.077,0.019
5355,-0.112,0.019
5356,-0.130,-0.011
5357,-0.130,-0.011
5358,-0.100,-0.011
5359,-0.094,-0.011
5360,-0.088,-0.043
5361,-0.094,-0.043
5362,-0.077,-0.043
5363,-0.094,-0.043
5364,-0.118,-0.070
5365,-0.159,-0.070
5366,-0.195,-0.070
5367,-0.207,-0.070
5368,-0.219,-0.097
5369,-0.201,-0.097
5370,-0.177,-0.097
5371,-0.154,-0.097
5372,-0.112,-0.120
5373,-0.100,-0.120
5374,-0.077,-0.120
5375,-0.065,-0.120
5376,-0.047,-0.140
5377,-0.047,-0.140
5378,-0.035,-0.140
5379,-0.029,-0.140
5380,-0.029,-0.160
5381,-0.023,-0.160
5382,-0.023,-0.160
5383,-0.023,-0.160
5384,-0.029,-0.182
5385,-0.023,-0.182
5386,-0.023,-0.182
5387,-0.029,-0.182
5388,-0.023,-0.199
5389,-0.023,-0.199
5390,-0.023,-0.199
5391,-0.023,-0.199
5392,-0.023,-0.218
5393,-0.023,-0.218
5394,-0.029,-0.218
5395,-0.023,-0.218
5396,-0.029,-0.234
5397,-0.029,-0.234
5398,-0.023,-0.234
5399,-0.023,-0.234
5400,-0.029,-0.249
5401,-0.029,-0.249
5402,-0.029,-0.249
5403,-0.035,-0.249
5404,-0.029,-0.261
5405,-0.029,-0.261
5406,-0.029,-0.261
5407,-0.029,-0.261
5408,-0.029,-0.276
5409,-0.029,-0.276
5410,-0.029,-0.276
5411,-0.029,-0.276
5412,-0.035,-0.288
5413,-0.035,-0.288
5414,-0.035,-0.288
5415,-0.035,-0.288
5416,-0.035,-0.303
5417,-0.035,-0.303
5418,-0.035,-0.303
5419,-0.035,-0.303
5420,-0.035,-0.315
5421,-0.035,-0.315
5422,-0.035,-0.315
5423,-0.035,-0.315
5424,-0.035,-0.327
5425,-0.029,-0.327
5426,-0.035,-0.327
5427,-0.035,-0.327
5428,-0.035,-0.346
5429,-0.035,-0.346
5430,-0.035,-0.346
5431,-0.035,-0.346
5432,-0.029,-0.358
5433,-0.029,-0.358
5434,-0.029,-0.358
5435,-0.029,-0.358
5436,-0.029,-0.369
5437,-0.029,-0.369
5438,-0.029,-0.369
5439,-0.023,-0.369
5440,-0.029,-0.381
5441,-0.023,-0.381
5442,-0.023,-0.381
5443,-0.023,-0.381
5444,-0.023,-0.393
5445,-0.029,-0.393
5446,-0.011,-0.393
5447,-0.023,-0.393
5448,-0.011,-0.401
5449,-0.011,-0.401
5450,-0.011,-0.401
5451,-0.011,-0.401
5452,-0.011,-0.412
5453,-0.011,-0.412
5454,-0.011,-0.412
5455,-0.011,-0.412
5456,-0.011,-0.424
5457,-0.011,-0.424
5458,-0.011,-0.424
5459,-0.011,-0.424
5460,-0.011,-0.424
5461,-0.011,-0.424
5462,-0.011,-0.424
5463,-0.011,-0.424
5464,-0.011,-0.428
5465,-0.005,-0.428
5466,-0.005,-0.428
5467,-0.005,-0.428
5468,-0.011,-0.420
5469,-0.005,-0.420
5470,-0.005,-0.420
5471,-0.005,-0.420
5472,-0.005,-0.408
5473,-0.005,-0.408
5474,0.001,-0.408
5475,-0.005,-0.408
5476,0.001,-0.389
5477,-0.005,-0.389
5478,-0.005,-0.389
5479,-0.005,-0.389
5480,0.001,-0.361
5481,0.001,-0.361
5482,0.001,-0.361
5483,0.001,-0.361
5484,0.001,-0.319
5485,0.001,-0.319
5486,0.001,-0.319
5487,0.001,-0.319
5488,0.001,-0.276
5489,0.006,-0.276
5490,0.006,-0.276
5491,0.006,-0.276
5492,0.006,-0.222
5493,0.001,-0.222
5494,0.001,-0.222
5495,0.006,-0.222
5496,0.001,-0.160
5497,0.006,-0.160
5498,0.001,-0.160
5499,0.006,-0.160
5500,0.006,-0.093
5501,0.001,-0.093
5502,0.001,-0.093
5503,0.001,-0.093
5504,0.001,-0.031
5505,0.001,-0.031
5506,0.006,-0.031
5507,0.006,-0.031
5508,0.006,0.043
5509,0.006,0.043
5510,0.001,0.043
5511,0.006,0.043
5512,0.001,0.109
5513,0.006,0.109
5514,0.006,0.109
5515,0.006,0.109
5516,0.006,0.172
5517,0.006,0.172
5518,0.006,0.172
5519,0.001,0.172
5520,0.006,0.230
5521,0.001,0.230
5522,0.006,0.230
5523,0.006,0.230
5524,0.006,0.288
5525,0.012,0.288
5526,0.006,0.288
5527,0.006,0.288
5528,0.001,0.343
5529,0.001,0.343
5530,0.006,0.343
5531,0.006,0.343
5532,0.006,0.389
5533,0.006,0.389
5534,0.006,0.389
5535,0.006,0.389
5536,0.006,0.432
5537,0.006,0.432
5538,0.006,0.432
5539,0.006,0.432
5540,0.006,0.471
5541,0.012,0.471
5542,0.006,0.471
5543,0.012,0.471
5544,0.006,0.502
5545,0.006,0.502
5546,0.006,0.502
5547,0.006,0.502
5548,0.012,0.529
5549,0.006,0.529
5550,0.012,0.529
5551,0.012,0.529
5552,0.012,0.545
5553,0.012,0.545
5554,0.024,0.545
5555,0.024,0.545
5556,0.024,0.560
5557,0.024,0.560
5558,0.030,0.560
5559,0.030,0.560
5560,0.036,0.560
5561,0.030,0.560
5562,0.036,0.560
5563,0.048,0.560
5564,0.048,0.565
5565,0.048,0.565
5566,0.054,0.565
5567,0.066,0.565
5568,0.054,0.560
5569,0.066,0.560
5570,0.066,0.560
5571,0.066,0.560
5572,0.066,0.541
5573,0.066,0.541
5574,0.066,0.541
5575,0.054,0.541
5576,0.066,0.525
5577,0.054,0.525
5578,0.048,0.525
5579,0.048,0.525
5580,0.048,0.502
5581,0.048,0.502
5582,0.048,0.502
5583,0.048,0.502
5584,0.036,0.475
5585,0.036,0.475
5586,0.036,0.475
5587,0.030,0.475
5588,0.024,0.444
5589,0.024,0.444
5590,0.024,0.444
5591,0.006,0.444
5592,0.006,0.412
5593,0.006,0.412
5594,0.006,0.412
5595,0.001,0.412
5596,0.001,0.370
5597,0.001,0.370
5598,0.001,0.370
5599,0.006,0.370
5600,0.001,0.335
5601,0.001,0.335
5602,-0.005,0.335
5603,-0.005,0.335
5604,0.001,0.288
5605,0.001,0.288
5606,0.006,0.288
5607,0.001,0.288
5608,0.006,0.249
5609,0.006,0.249
5610,0.001,0.249
5611,0.001,0.249
5612,0.001,0.206
5613,0.006,0.206
5614,0.006,0.206
5615,0.006,0.206
5616,0.006,0.168
5617,0.006,0.168
5618,0.006,0.168
5619,0.006,0.168
5620,0.001,0.124
5621,-0.005,0.124
5622,-0.023,0.124
5623,-0.029,0.124
5624,-0.035,0.093
5625,-0.053,0.093
5626,-0.065,0.093
5627,-0.053,0.093
5628,-0.053,0.054
5629,-0.047,0.054
5630,-0.047,0.054
5631,-0.029,0.054
5632,-0.029,0.019
5633,-0.035,0.019
5634,-0.029,0.019
5635,-0.035,0.019
5636,-0.047,-0.015
5637,-0.065,-0.015
5638,-0.094,-0.015
5639,-0.112,-0.015
5640,-0.100,-0.046
5641,-0.088,-0.046
5642,-0.071,-0.046
5643,-0.065,-0.046
5644,-0.065,-0.073
5645,-0.065,-0.073
5646,-0.071,-0.073
5647,-0.100,-0.073
5648,-0.130,-0.108
5649,-0.165,-0.108
5650,-0.195,-0.108
5651,-0.201,-0.108
5652,-0.183,-0.132
5653,-0.159,-0.132
5654,-0.136,-0.132
5655,-0.100,-0.132
5656,-0.077,-0.155
5657,-0.065,-0.155
5658,-0.047,-0.155
5659,-0.035,-0.155
5660,-0.023,-0.178
5661,-0.011,-0.178
5662,-0.005,-0.178
5663,-0.005,-0.178
5664,0.001,-0.202
5665,0.001,-0.202
5666,0.001,-0.202
5667,0.001,-0.202
5668,0.001,-0.230
5669,0.012,-0.230
5670,0.001,-0.230
5671,0.001,-0.230
5672,0.001,-0.249
5673,0.001,-0.249
5674,0.001,-0.249
5675,0.001,-0.249
5676,0.001,-0.268
5677,-0.005,-0.268
5678,0.001,-0.268
5679,-0.005,-0.268
5680,-0.005,-0.287
5681,-0.005,-0.287
5682,-0.005,-0.287
5683,0.001,-0.287
5684,-0.005,-0.303
5685,-0.005,-0.303
5686,-0.011,-0.303
5687,-0.005,-0.303
5688,-0.005,-0.319
5689,-0.005,-0.319
5690,-0.005,-0.319
5691,-0.005,-0.319
5692,-0.005,-0.335
5693,-0.011,-0.335
5694,-0.005,-0.335
5695,-0.005,-0.335
5696,-0.011,-0.354
5697,0.001,-0.354
5698,-0.005,-0.354
5699,-0.005,-0.354
5700,-0.011,-0.365
5701,-0.005,-0.365
5702,-0.011,-0.365
5703,-0.011,-0.365
5704,-0.011,-0.377
5705,-0.011,-0.377
5706,-0.005,-0.377
5707,-0.005,-0.377
5708,-0.005,-0.393
5709,-0.005,-0.393
5710,-0.005,-0.393
5711,0.001,-0.393
5712,-0.005,-0.408
5713,-0.005,-0.408
5714,0.001,-0.408
5715,0.001,-0.408
5716,0.001,-0.424
5717,0.001,-0.424
5718,0.001,-0.424
5719,0.001,-0.424
5720,0.006,-0.431
5721,0.001,-0.431
5722,0.006,-0.431
5723,0.012,-0.431
5724,0.012,-0.444
5725,0.006,-0.444
5726,0.006,-0.444
5727,0.012,-0.444
5728,0.012,-0.459
5729,0.012,-0.459
5730,0.012,-0.459
5731,0.012,-0.459
5732,0.012,-0.470
5733,0.012,-0.470
5734,0.024,-0.470
5735,0.012,-0.470
5736,0.012,-0.482
5737,0.012,-0.482
5738,0.012,-0.482
5739,0.024,-0.482
5740,0.024,-0.490
5741,0.024,-0.490
5742,0.012,-0.490
5743,0.024,-0.490
5744,0.024,-0.498
5745,0.024,-0.498
5746,0.024,-0.498
5747,0.024,-0.498
5748,0.030,-0.498
5749,0.024,-0.498
5750,0.024,-0.498
5751,0.024,-0.498
5752,0.024,-0.494
5753,0.024,-0.494
5754,0.024,-0.494
5755,0.030,-0.494
5756,0.024,-0.478
5757,0.030,-0.478
5758,0.030,-0.478
5759,0.030,-0.478
5760,0.036,-0.459
5761,0.030,-0.459
5762,0.030,-0.459
5763,0.030,-0.459
5764,0.036,-0.431
5765,0.036,-0.431
5766,0.030,-0.431
5767,0.036,-0.431
5768,0.036,-0.397
5769,0.030,-0.397
5770,0.030,-0.397
5771,0.036,-0.397
5772,0.036,-0.346
5773,0.036,-0.346
5774,0.048,-0.346
5775,0.036,-0.346
5776,0.036,-0.291
5777,0.036,-0.291
5778,0.036,-0.291
5779,0.036,-0.291
5780,0.036,-0.233
5781,0.036,-0.233
5782,0.036,-0.233
5783,0.036,-0.233
5784,0.030,-0.171
5785,0.036,-0.171
5786,0.036,-0.171
5787,0.036,-0.171
5788,0.036,-0.101
5789,0.036,-0.101
5790,0.048,-0.101
5791,0.036,-0.101
5792,0.036,-0.031
5793,0.036,-0.031
5794,0.030,-0.031
5795,0.036,-0.031
5796,0.036,0.039
5797,0.036,0.039
5798,0.030,0.039
5799,0.048,0.039
5800,0.036,0.098
5801,0.036,0.098
5802,0.036,0.098
5803,0.036,0.098
5804,0.036,0.164
5805,0.036,0.164
5806,0.036,0.164
5807,0.036,0.164
5808,0.036,0.218
5809,0.048,0.218
5810,0.036,0.218
5811,0.048,0.218
5812,0.036,0.273
5813,0.036,0.273
5814,0.036,0.273
5815,0.036,0.273
5816,0.036,0.323
5817,0.036,0.323
5818,0.036,0.323
5819,0.030,0.323
5820,0.030,0.370
5821,0.030,0.370
5822,0.036,0.370
5823,0.036,0.370
5824,0.036,0.405
5825,0.036,0.405
5826,0.030,0.405
5827,0.036,0.405
5828,0.030,0.436
5829,0.030,0.436
5830,0.036,0.436
5831,0.036,0.436
5832,0.048,0.460
5833,0.048,0.460
5834,0.048,0.460
5835,0.036,0.460
5836,0.036,0.482
5837,0.036,0.482
5838,0.048,0.482
5839,0.054,0.482
5840,0.054,0.474
5841,0.066,0.474
5842,0.066,0.474
5843,0.066,0.474
5844,0.066,0.482
5845,0.066,0.482
5846,0.072,0.482
5847,0.072,0.482
5848,0.077,0.478
5849,0.072,0.478
5850,0.077,0.478
5851,0.077,0.478
5852,0.077,0.474
5853,0.077,0.474
5854,0.089,0.474
5855,0.089,0.474
5856,0.077,0.459
5857,0.077,0.459
5858,0.077,0.459
5859,0.077,0.459
5860,0.077,0.439
5861,0.072,0.439
5862,0.072,0.439
5863,0.072,0.439
5864,0.072,0.407
5865,0.066,0.407
5866,0.066,0.407
5867,0.072,0.407
5868,0.066,0.377
5869,0.066,0.377
5870,0.054,0.377
5871,0.048,0.377
5872,0.036,0.345
5873,0.030,0.345
5874,0.030,0.345
5875,0.024,0.345
5876,0.024,0.305
5877,0.024,0.305
5878,0.024,0.305
5879,0.012,0.305
5880,0.012,0.267
5881,0.012,0.267
5882,0.012,0.267
5883,0.012,0.267
5884,0.012,0.224
5885,0.012,0.224
5886,0.012,0.224
5887,0.012,0.224
5888,0.012,0.184
5889,0.012,0.184
5890,0.012,0.184
5891,0.012,0.184
5892,0.024,0.141
5893,0.012,0.141
5894,0.012,0.141
5895,0.012,0.141
5896,0.012,0.105
5897,0.024,0.105
5898,0.024,0.105
5899,0.024,0.105
5900,0.024,0.062
5901,0.024,0.062
5902,0.024,0.062
5903,0.012,0.062
5904,0.012,0.024
5905,0.001,0.024
5906,-0.005,0.024
5907,-0.029,0.024
5908,-0.035,-0.012
5909,-0.047,-0.012
5910,-0.047,-0.012
5911,-0.035,-0.012
5912,-0.029,-0.048
5913,-0.023,-0.048
5914,-0.023,-0.048
5915,-0.005,-0.048
5916,-0.011,-0.083
5917,-0.023,-0.083
5918,-0.011,-0.083
5919,-0.023,-0.083
5920,-0.029,-0.118
5921,-0.053,-0.118
5922,-0.077,-0.118
5923,-0.088,-0.118
5924,-0.077,-0.141
5925,-0.053,-0.141
5926,-0.047,-0.141
5927,-0.047,-0.141
5928,-0.035,-0.173
5929,-0.035,-0.173
5930,-0.065,-0.173
5931,-0.094,-0.173
5932,-0.130,-0.204
5933,-0.159,-0.204
5934,-0.177,-0.204
5935,-0.177,-0.204
5936,-0.159,-0.232
5937,-0.130,-0.232
5938,-0.100,-0.232
5939,-0.077,-0.232
5940,-0.053,-0.259
5941,-0.035,-0.259
5942,-0.023,-0.259
5943,-0.011,-0.259
5944,-0.005,-0.279
5945,-0.005,-0.279
5946,0.001,-0.279
5947,0.006,-0.279
5948,0.012,-0.302
5949,0.006,-0.302
5950,0.006,-0.302
5951,0.006,-0.302
5952,0.001,-0.330
5953,0.006,-0.330
5954,0.006,-0.330
5955,0.006,-0.330
5956,0.006,-0.345
5957,0.006,-0.345
5958,0.006,-0.345
5959,0.006,-0.345
5960,0.006,-0.365
5961,0.001,-0.365
5962,0.006,-0.365
5963,0.006,-0.365
5964,0.006,-0.385
5965,0.006,-0.385
5966,0.006,-0.385
5967,0.006,-0.385
5968,0.001,-0.404
5969,0.001,-0.404
5970,0.001,-0.404
5971,0.001,-0.404
5972,0.001,-0.420
5973,0.001,-0.420
5974,0.001,-0.420
5975,0.001,-0.420
5976,0.001,-0.435
5977,-0.005,-0.435
5978,-0.005,-0.435
5979,0.001,-0.435
5980,0.001,-0.448
5981,0.001,-0.448
5982,0.001,-0.448
5983,0.001,-0.448
5984,-0.005,-0.463
5985,0.001,-0.463
5986,-0.005,-0.463
5987,-0.005,-0.463
5988,-0.005,-0.475
5989,-0.005,-0.475
5990,0.001,-0.475
5991,-0.005,-0.475
5992,-0.005,-0.490
5993,-0.011,-0.490
5994,-0.005,-0.490
5995,-0.011,-0.490
5996,-0.011,-0.498
5997,-0.011,-0.498
5998,-0.011,-0.498
5999,-0.011,-0.498
6000,-0.011,-0.514
6001,-0.011,-0.514
6002,-0.011,-0.514
6003,-0.023,-0.514
6004,-0.011,-0.529
6005,-0.023,-0.529
6006,-0.011,-0.529
6007,-0.011,-0.529
6008,-0.011,-0.537
6009,-0.011,-0.537
6010,-0.011,-0.537
6011,-0.011,-0.537
6012,-0.011,-0.553
6013,-0.011,-0.553
6014,-0.005,-0.553
6015,-0.011,-0.553
6016,-0.011,-0.561
6017,-0.005,-0.561
6018,-0.011,-0.561
6019,-0.011,-0.561
6020,-0.011,-0.573
6021,-0.011,-0.573
6022,-0.005,-0.573
6023,-0.005,-0.573
6024,-0.011,-0.577
6025,-0.011,-0.577
6026,-0.011,-0.577
6027,-0.005,-0.577
6028,-0.005,-0.581
6029,-0.005,-0.581
6030,-0.005,-0.581
6031,0.001,-0.581
6032,0.001,-0.581
6033,0.001,-0.581
6034,0.001,-0.581
6035,0.001,-0.581
6036,0.006,-0.573
6037,0.006,-0.573
6038,0.006,-0.573
6039,0.006,-0.573
6040,0.012,-0.561
6041,0.012,-0.561
6042,0.012,-0.561
6043,0.024,-0.561
6044,0.012,-0.537
6045,0.012,-0.537
6046,0.024,-0.537
6047,0.024,-0.537
6048,0.024,-0.506
6049,0.024,-0.506
6050,0.030,-0.506
6051,0.024,-0.506
6052,0.030,-0.463
6053,0.024,-0.463
6054,0.030,-0.463
6055,0.030,-0.463
6056,0.030,-0.416
6057,0.030,-0.416
6058,0.030,-0.416
6059,0.024,-0.416
6060,0.030,-0.353
6061,0.030,-0.353
6062,0.024,-0.353
6063,0.024,-0.353
6064,0.030,-0.290
6065,0.030,-0.290
6066,0.030,-0.290
6067,0.030,-0.290
6068,0.030,-0.224
6069,0.030,-0.224
6070,0.030,-0.224
6071,0.030,-0.224
6072,0.030,-0.149
6073,0.036,-0.149
6074,0.036,-0.149
6075,0.036,-0.149
6076,0.036,-0.074
6077,0.036,-0.074
6078,0.048,-0.074
6079,0.036,-0.074
6080,0.048,-0.008
6081,0.048,-0.008
6082,0.048,-0.008
6083,0.048,-0.008
6084,0.048,0.059
6085,0.048,0.059
6086,0.036,0.059
6087,0.048,0.059
6088,0.036,0.129
6089,0.036,0.129
6090,0.036,0.129
6091,0.036,0.129
6092,0.048,0.184
6093,0.030,0.184
6094,0.030,0.184
6095,0.030,0.184
6096,0.036,0.236
6097,0.036,0.236
6098,0.048,0.236
6099,0.048,0.236
6100,0.036,0.287
6101,0.048,0.287
6102,0.036,0.287
6103,0.036,0.287
6104,0.048,0.339
6105,0.048,0.339
6106,0.048,0.339
6107,0.048,0.339
6108,0.048,0.374
6109,0.048,0.374
6110,0.048,0.374
6111,0.048,0.374
6112,0.048,0.409
6113,0.054,0.409
6114,0.036,0.409
6115,0.048,0.409
6116,0.048,0.437
6117,0.048,0.437
6118,0.048,0.437
6119,0.048,0.437
6120,0.066,0.457
6121,0.054,0.457
6122,0.066,0.457
6123,0.066,0.457
6124,0.066,0.469
6125,0.072,0.469
6126,0.072,0.469
6127,0.072,0.469
6128,0.072,0.472
6129,0.077,0.472
6130,0.077,0.472
6131,0.089,0.472
6132,0.095,0.476
6133,0.095,0.476
6134,0.095,0.476
6135,0.095,0.476
6136,0.101,0.465
6137,0.101,0.465
6138,0.101,0.465
6139,0.101,0.465
6140,0.101,0.453
6141,0.095,0.453
6142,0.089,0.453
6143,0.095,0.453
6144,0.089,0.433
6145,0.089,0.433
6146,0.077,0.433
6147,0.077,0.433
6148,0.077,0.406
6149,0.072,0.406
6150,0.072,0.406
6151,0.072,0.406
6152,0.066,0.378
6153,0.066,0.378
6154,0.054,0.378
6155,0.048,0.378
6156,0.036,0.346
6157,0.036,0.346
6158,0.030,0.346
6159,0.024,0.346
6160,0.024,0.311
6161,0.024,0.311
6162,0.024,0.311
6163,0.012,0.311
6164,0.024,0.268
6165,0.012,0.268
6166,0.012,0.268
6167,0.012,0.268
6168,0.006,0.229
6169,0.006,0.229
6170,0.006,0.229
6171,0.012,0.229
6172,0.006,0.185
6173,0.006,0.185
6174,0.006,0.185
6175,0.006,0.185
6176,0.006,0.149
6177,0.006,0.149
6178,0.006,0.149
6179,0.006,0.149
6180,0.012,0.102
6181,0.012,0.102
6182,0.012,0.102
6183,0.012,0.102
6184,0.012,0.063
6185,0.012,0.063
6186,0.006,0.063
6187,0.006,0.063
6188,0.001,0.028
6189,-0.005,0.028
6190,-0.029,0.028
6191,-0.035,0.028
6192,-0.047,-0.016
6193,-0.053,-0.016
6194,-0.053,-0.016
6195,-0.047,-0.016
6196,-0.029,-0.055
6197,-0.023,-0.055
6198,-0.011,-0.055
6199,-0.005,-0.055
6200,-0.011,-0.083
6201,-0.011,-0.083
6202,-0.011,-0.083
6203,-0.011,-0.083
6204,-0.035,-0.118
6205,-0.071,-0.118
6206,-0.088,-0.118
6207,-0.088,-0.118
6208,-0.065,-0.149
6209,-0.047,-0.149
6210,-0.047,-0.149
6211,-0.047,-0.149
6212,-0.047,-0.177
6213,-0.053,-0.177
6214,-0.088,-0.177
6215,-0.118,-0.177
6216,-0.159,-0.201
6217,-0.183,-0.201
6218,-0.195,-0.201
6219,-0.183,-0.201
6220,-0.154,-0.233
6221,-0.130,-0.233
6222,-0.094,-0.233
6223,-0.077,-0.233
6224,-0.053,-0.260
6225,-0.035,-0.260
6226,-0.029,-0.260
6227,-0.011,-0.260
6228,-0.005,-0.280
6229,-0.005,-0.280
6230,0.001,-0.280
6231,0.001,-0.280
6232,0.006,-0.303
6233,0.006,-0.303
6234,0.001,-0.303
6235,0.001,-0.303
6236,0.006,-0.323
6237,0.001,-0.323
6238,0.006,-0.323
6239,0.006,-0.323
6240,0.006,-0.343
6241,0.001,-0.343
6242,0.001,-0.343
6243,0.001,-0.343
6244,0.001,-0.358
6245,0.001,-0.358
6246,0.001,-0.358
6247,0.006,-0.358
6248,0.001,-0.374
6249,0.001,-0.374
6250,0.006,-0.374
6251,0.001,-0.374
6252,0.001,-0.394
6253,-0.005,-0.394
6254,-0.005,-0.394
6255,0.001,-0.394
6256,-0.005,-0.406
6257,0.001,-0.406
6258,-0.005,-0.406
6259,-0.005,-0.406
6260,0.001,-0.417
6261,-0.005,-0.417
6262,-0.005,-0.417
6263,-0.011,-0.417
6264,-0.005,-0.425
6265,-0.005,-0.425
6266,-0.005,-0.425
6267,-0.005,-0.425
6268,-0.005,-0.437
6269,-0.005,-0.437
6270,-0.005,-0.437
6271,-0.005,-0.437
6272,-0.005,-0.457
6273,-0.005,-0.457
6274,-0.011,-0.457
6275,-0.005,-0.457
6276,-0.005,-0.469
6277,-0.011,-0.469
6278,-0.005,-0.469
6279,-0.005,-0.469
6280,0.001,-0.472
6281,0.001,-0.472
6282,0.001,-0.472
6283,0.001,-0.472
6284,0.001,-0.484
6285,0.001,-0.484
6286,0.001,-0.484
6287,0.006,-0.484
6288,0.001,-0.492
6289,0.006,-0.492
6290,0.006,-0.492
6291,0.006,-0.492
6292,0.012,-0.504
6293,0.006,-0.504
6294,0.006,-0.504
6295,0.012,-0.504
6296,0.006,-0.516
6297,0.024,-0.516
6298,0.024,-0.516
6299,0.024,-0.516
6300,0.024,-0.523
6301,0.024,-0.523
6302,0.024,-0.523
6303,0.012,-0.523
6304,0.024,-0.531
6305,0.024,-0.531
6306,0.024,-0.531
6307,0.024,-0.531
6308,0.024,-0.535
6309,0.024,-0.535
6310,0.024,-0.535
6311,0.024,-0.535
6312,0.024,-0.539
6313,0.024,-0.539
6314,0.024,-0.539
6315,0.036,-0.539
6316,0.030,-0.535
6317,0.030,-0.535
6318,0.030,-0.535
6319,0.030,-0.535
6320,0.030,-0.527
6321,0.030,-0.527
6322,0.030,-0.527
6323,0.030,-0.527
6324,0.036,-0.512
6325,0.030,-0.512
6326,0.030,-0.512
6327,0.030,-0.512
6328,0.030,-0.484
6329,0.036,-0.484
6330,0.030,-0.484
6331,0.036,-0.484
6332,0.048,-0.453
6333,0.036,-0.453
6334,0.048,-0.453
6335,0.048,-0.453
6336,0.048,-0.406
6337,0.048,-0.406
6338,0.048,-0.406
6339,0.048,-0.406
6340,0.054,-0.354
6341,0.048,-0.354
6342,0.048,-0.354
6343,0.054,-0.354
6344,0.048,-0.299
6345,0.054,-0.299
6346,0.048,-0.299
6347,0.054,-0.299
6348,0.066,-0.233
6349,0.054,-0.233
6350,0.066,-0.233
6351,0.054,-0.233
6352,0.054,-0.157
6353,0.054,-0.157
6354,0.054,-0.157
6355,0.054,-0.157
6356,0.054,-0.082
6357,0.066,-0.082
6358,0.066,-0.082
6359,0.066,-0.082
6360,0.054,-0.008
6361,0.054,-0.008
6362,0.054,-0.008
6363,0.066,-0.008
6364,0.066,0.062
6365,0.054,0.062
6366,0.072,0.062
6367,0.066,0.062
6368,0.054,0.129
6369,0.066,0.129
6370,0.066,0.129
6371,0.066,0.129
6372,0.066,0.199
6373,0.066,0.199
6374,0.066,0.199
6375,0.066,0.199
6376,0.054,0.258
6377,0.054,0.258
6378,0.054,0.258
6379,0.054,0.258
6380,0.054,0.308
6381,0.054,0.308
6382,0.054,0.308
6383,0.054,0.308
6384,0.054,0.359
6385,0.054,0.359
6386,0.054,0.359
6387,0.054,0.359
6388,0.048,0.406
6389,0.054,0.406
6390,0.054,0.406
6391,0.054,0.406
6392,0.054,0.445
6393,0.054,0.445
6394,0.054,0.445
6395,0.048,0.445
6396,0.054,0.472
6397,0.054,0.472
6398,0.054,0.472
6399,0.066,0.472
6400,0.054,0.500
6401,0.054,0.500
6402,0.054,0.500
6403,0.066,0.500
6404,0.066,0.515
6405,0.072,0.515
6406,0.072,0.515
6407,0.072,0.515
6408,0.077,0.527
6409,0.077,0.527
6410,0.077,0.527
6411,0.077,0.527
6412,0.089,0.535
6413,0.089,0.535
6414,0.089,0.535
6415,0.101,0.535
6416,0.101,0.531
6417,0.101,0.531
6418,0.113,0.531
6419,0.101,0.531
6420,0.113,0.527
6421,0.113,0.527
6422,0.113,0.527
6423,0.113,0.527
6424,0.113,0.511
6425,0.101,0.511
6426,0.101,0.511
6427,0.101,0.511
6428,0.095,0.484
6429,0.089,0.484
6430,0.095,0.484
6431,0.089,0.484
6432,0.089,0.465
6433,0.089,0.465
6434,0.089,0.465
6435,0.077,0.465
6436,0.077,0.433
6437,0.072,0.433
6438,0.066,0.433
6439,0.054,0.433
6440,0.054,0.395
6441,0.048,0.395
6442,0.036,0.395
6443,0.030,0.395
6444,0.030,0.359
6445,0.024,0.359
6446,0.024,0.359
6447,0.030,0.359
6448,0.030,0.320
6449,0.024,0.320
6450,0.024,0.320
6451,0.012,0.320
6452,0.012,0.281
6453,0.012,0.281
6454,0.012,0.281
6455,0.024,0.281
6456,0.012,0.234
6457,0.024,0.234
6458,0.012,0.234
6459,0.012,0.234
6460,0.012,0.199
6461,0.012,0.199
6462,0.012,0.199
6463,0.012,0.199
6464,0.024,0.156
6465,0.024,0.156
6466,0.024,0.156
6467,0.024,0.156
6468,0.024,0.110
6469,0.024,0.110
6470,0.024,0.110
6471,0.006,0.110
6472,-0.005,0.074
6473,-0.011,0.074
6474,-0.029,0.074
6475,-0.035,0.074
6476,-0.047,0.027
6477,-0.047,0.027
6478,-0.035,0.027
6479,-0.029,0.027
6480,-0.011,-0.008
6481,-0.005,-0.008
6482,0.001,-0.008
6483,0.001,-0.008
6484,-0.005,-0.043
6485,0.001,-0.043
6486,-0.005,-0.043
6487,-0.011,-0.043
6488,-0.047,-0.082
6489,-0.071,-0.082
6490,-0.077,-0.082
6491,-0.065,-0.082
6492,-0.035,-0.114
6493,-0.035,-0.114
6494,-0.029,-0.114
6495,-0.035,-0.114
6496,-0.035,-0.148
6497,-0.065,-0.148
6498,-0.100,-0.148
6499,-0.136,-0.148
6500,-0.177,-0.176
6501,-0.177,-0.176
6502,-0.177,-0.176
6503,-0.154,-0.176
6504,-0.130,-0.211
6505,-0.100,-0.211
6506,-0.071,-0.211
6507,-0.047,-0.211
6508,-0.029,-0.234
6509,-0.011,-0.234
6510,-0.005,-0.234
6511,0.001,-0.234
6512,0.001,-0.266
6513,0.006,-0.266
6514,0.006,-0.266
6515,0.012,-0.266
6516,0.006,-0.289
6517,0.006,-0.289
6518,0.012,-0.289
6519,0.006,-0.289
6520,0.012,-0.317
6521,0.012,-0.317
6522,0.024,-0.317
6523,0.012,-0.317
6524,0.012,-0.332
6525,0.006,-0.332
6526,0.006,-0.332
6527,0.006,-0.332
6528,0.006,-0.351
6529,0.012,-0.351
6530,0.006,-0.351
6531,0.006,-0.351
6532,0.012,-0.367
6533,0.012,-0.367
6534,0.012,-0.367
6535,0.006,-0.367
6536,0.006,-0.391
6537,0.001,-0.391
6538,0.006,-0.391
6539,0.006,-0.391
6540,0.006,-0.406
6541,0.006,-0.406
6542,0.006,-0.406
6543,0.012,-0.406
6544,0.001,-0.422
6545,0.006,-0.422
6546,0.006,-0.422
6547,0.006,-0.422
6548,0.012,-0.430
6549,0.006,-0.430
6550,0.006,-0.430
6551,0.006,-0.430
6552,0.006,-0.450
6553,0.001,-0.450
6554,0.001,-0.450
6555,0.001,-0.450
6556,0.001,-0.465
6557,0.006,-0.465
6558,0.001,-0.465
6559,0.006,-0.465
6560,0.006,-0.473
6561,0.001,-0.473
6562,0.001,-0.473
6563,0.001,-0.473
6564,0.006,-0.488
6565,0.006,-0.488
6566,0.006,-0.488
6567,0.006,-0.488
6568,0.006,-0.504
6569,0.006,-0.504
6570,0.006,-0.504
6571,0.006,-0.504
6572,0.006,-0.515
6573,0.012,-0.515
6574,0.012,-0.515
6575,0.012,-0.515
6576,0.024,-0.519
6577,0.012,-0.519
6578,0.024,-0.519
6579,0.024,-0.519
6580,0.030,-0.531
6581,0.024,-0.531
6582,0.030,-0.531
6583,0.030,-0.531
6584,0.024,-0.543
6585,0.024,-0.543
6586,0.006,-0.543
6587,0.012,-0.543
6588,0.006,-0.551
6589,0.001,-0.551
6590,0.006,-0.551
6591,0.001,-0.551
6592,0.006,-0.555
6593,0.006,-0.555
6594,0.012,-0.555
6595,0.012,-0.555
6596,0.012,-0.551
6597,0.024,-0.551
6598,0.024,-0.551
6599,0.030,-0.551
6600,0.024,-0.547
6601,0.024,-0.547
6602,0.012,-0.547
6603,0.012,-0.547
6604,0.012,-0.535
6605,0.024,-0.535
6606,0.024,-0.535
6607,0.024,-0.535
6608,0.030,-0.510
6609,0.030,-0.510
6610,0.030,-0.510
6611,0.030,-0.510
6612,0.024,-0.479
6613,0.030,-0.479
6614,0.024,-0.479
6615,0.024,-0.479
6616,0.024,-0.444
6617,0.024,-0.444
6618,0.024,-0.444
6619,0.024,-0.444
6620,0.024,-0.397
6621,0.024,-0.397
6622,0.030,-0.397
6623,0.030,-0.397
6624,0.030,-0.339
6625,0.030,-0.339
6626,0.024,-0.339
6627,0.024,-0.339
6628,0.024,-0.281
6629,0.024,-0.281
6630,0.024,-0.281
6631,0.030,-0.281
6632,0.030,-0.210
6633,0.030,-0.210
6634,0.030,-0.210
6635,0.024,-0.210
6636,0.030,-0.141
6637,0.024,-0.141
6638,0.030,-0.141
6639,0.030,-0.141
6640,0.030,-0.070
6641,0.024,-0.070
6642,0.024,-0.070
6643,0.024,-0.070
6644,0.012,0.004
6645,0.024,0.004
6646,0.012,0.004
6647,0.012,0.004
6648,0.024,0.082
6649,0.012,0.082
6650,0.012,0.082
6651,0.006,0.082
6652,0.006,0.151
6653,0.001,0.151
6654,0.001,0.151
6655,0.006,0.151
6656,0.006,0.222
6657,0.006,0.222
6658,0.006,0.222
6659,0.006,0.222
6660,0.001,0.284
6661,0.001,0.284
6662,0.001,0.284
6663,0.006,0.284
6664,0.006,0.339
6665,0.006,0.339
6666,0.006,0.339
6667,0.006,0.339
6668,0.012,0.393
6669,0.012,0.393
6670,0.012,0.393
6671,0.012,0.393
6672,0.012,0.440
6673,0.024,0.440
6674,0.024,0.440
6675,0.024,0.440
6676,0.024,0.482
6677,0.024,0.482
6678,0.030,0.482
6679,0.030,0.482
6680,0.036,0.517
6681,0.036,0.517
6682,0.048,0.517
6683,0.048,0.517
6684,0.054,0.544
6685,0.054,0.544
6686,0.066,0.544
6687,0.072,0.544
6688,0.072,0.568
6689,0.077,0.568
6690,0.089,0.568
6691,0.095,0.568
6692,0.101,0.576
6693,0.101,0.576
6694,0.113,0.576
6695,0.113,0.576
6696,0.113,0.588
6697,0.119,0.588
6698,0.131,0.588
6699,0.137,0.588
6700,0.131,0.588
6701,0.137,0.588
6702,0.137,0.588
6703,0.137,0.588
6704,0.142,0.580
6705,0.142,0.580
6706,0.137,0.580
6707,0.137,0.580
6708,0.131,0.564
6709,0.131,0.564
6710,0.119,0.564
6711,0.113,0.564
6712,0.101,0.540
6713,0.101,0.540
6714,0.101,0.540
6715,0.101,0.540
6716,0.095,0.513
6717,0.089,0.513
6718,0.089,0.513
6719,0.077,0.513
6720,0.072,0.482
6721,0.072,0.482
6722,0.066,0.482
6723,0.048,0.482
6724,0.048,0.447
6725,0.036,0.447
6726,0.030,0.447
6727,0.030,0.447
6728,0.024,0.408
6729,0.024,0.408
6730,0.024,0.408
6731,0.024,0.408
6732,0.024,0.369
6733,0.012,0.369
6734,0.012,0.369
6735,0.012,0.369
6736,0.024,0.331
6737,0.012,0.331
6738,0.024,0.331
6739,0.024,0.331
6740,0.024,0.287
6741,0.024,0.287
6742,0.024,0.287
6743,0.030,0.287
6744,0.024,0.245
6745,0.024,0.245
6746,0.030,0.245
6747,0.030,0.245
6748,0.030,0.206
6749,0.030,0.206
6750,0.030,0.206
6751,0.030,0.206
6752,0.036,0.167
