,ECG,PPG
0,-0.043,-0.844
1,-0.043,-0.844
2,-0.043,-0.844
3,-0.021,-0.844
4,-0.010,-0.844
5,-0.010,-0.844
6,0.001,-0.844
7,-0.010,-0.844
8,-0.021,-0.844
9,-0.032,-0.844
10,-0.032,-0.844
11,-0.021,-0.844
12,0.001,-0.830
13,0.001,-0.830
14,0.001,-0.830
15,0.001,-0.830
16,0.001,-0.830
17,-0.010,-0.830
18,-0.021,-0.830
19,-0.010,-0.830
20,0.001,-0.830
21,0.022,-0.830
22,0.022,-0.830
23,0.022,-0.830
24,0.011,-0.815
25,0.001,-0.815
26,0.001,-0.815
27,0.001,-0.815
28,0.022,-0.815
29,0.033,-0.815
30,0.044,-0.815
31,0.044,-0.815
32,0.044,-0.815
33,0.022,-0.815
34,0.022,-0.815
35,0.022,-0.815
36,0.033,-0.785
37,0.055,-0.785
38,0.066,-0.785
39,0.077,-0.785
40,0.077,-0.770
41,0.055,-0.770
42,0.044,-0.770
43,0.044,-0.770
44,0.066,-0.770
45,0.077,-0.770
46,0.088,-0.770
47,0.099,-0.770
48,0.099,-0.741
49,0.088,-0.741
50,0.088,-0.741
51,0.077,-0.741
52,0.088,-0.711
53,0.110,-0.711
54,0.121,-0.711
55,0.143,-0.711
56,0.143,-0.696
57,0.132,-0.696
58,0.121,-0.696
59,0.121,-0.696
60,0.121,-0.651
61,0.132,-0.651
62,0.154,-0.651
63,0.164,-0.651
64,0.175,-0.593
65,0.164,-0.593
66,0.154,-0.593
67,0.154,-0.593
68,0.143,-0.533
69,0.143,-0.533
70,0.164,-0.533
71,0.186,-0.533
72,0.186,-0.459
73,0.186,-0.459
74,0.175,-0.459
75,0.164,-0.459
76,0.164,-0.385
77,0.164,-0.385
78,0.175,-0.385
79,0.186,-0.385
80,0.186,-0.281
81,0.186,-0.281
82,0.186,-0.281
83,0.164,-0.281
84,0.154,-0.193
85,0.154,-0.193
86,0.154,-0.193
87,0.164,-0.193
88,0.164,-0.103
89,0.164,-0.103
90,0.154,-0.103
91,0.132,-0.103
92,0.121,-0.015
93,0.099,-0.015
94,0.110,-0.015
95,0.121,-0.015
96,0.121,0.059
97,0.121,0.059
98,0.110,0.059
99,0.088,0.059
100,0.066,0.148
101,0.044,0.148
102,0.044,0.148
103,0.044,0.148
104,0.055,0.223
105,0.055,0.223
106,0.055,0.223
107,0.033,0.223
108,0.022,0.311
109,0.001,0.311
110,0.001,0.311
111,0.001,0.311
112,0.011,0.355
113,0.011,0.355
114,0.011,0.355
115,0.001,0.355
116,-0.010,0.415
117,-0.021,0.415
118,-0.032,0.415
119,-0.032,0.415
120,-0.021,0.445
121,-0.010,0.445
122,-0.010,0.445
123,-0.021,0.445
124,-0.032,0.474
125,-0.043,0.474
126,-0.065,0.474
127,-0.054,0.474
128,-0.043,0.533
129,-0.032,0.533
130,-0.021,0.533
131,-0.032,0.533
132,-0.043,0.533
133,-0.065,0.533
134,-0.065,0.533
135,-0.065,0.533
136,-0.065,0.533
137,-0.043,0.533
138,-0.032,0.533
139,-0.032,0.533
140,-0.043,0.548
141,-0.065,0.548
142,-0.065,0.548
143,-0.076,0.548
144,-0.065,0.548
145,-0.065,0.548
146,-0.043,0.548
147,-0.043,0.548
148,-0.043,0.533
149,-0.065,0.533
150,-0.076,0.533
151,-0.086,0.533
152,-0.076,0.518
153,-0.065,0.518
154,-0.054,0.518
155,-0.054,0.518
156,-0.054,0.503
157,-0.065,0.503
158,-0.076,0.503
159,-0.086,0.503
160,-0.086,0.445
161,-0.076,0.445
162,-0.065,0.445
163,-0.043,0.445
164,-0.065,0.415
165,-0.065,0.415
166,-0.076,0.415
167,-0.086,0.415
168,-0.086,0.385
169,-0.097,0.385
170,-0.076,0.385
171,-0.065,0.385
172,-0.065,0.326
173,-0.065,0.326
174,-0.076,0.326
175,-0.086,0.326
176,-0.097,0.281
177,-0.086,0.281
178,-0.076,0.281
179,-0.065,0.281
180,-0.065,0.207
181,-0.065,0.207
182,-0.065,0.207
183,-0.086,0.207
184,-0.086,0.134
185,-0.097,0.134
186,-0.086,0.134
187,-0.065,0.134
188,-0.065,0.089
189,-0.065,0.089
190,-0.065,0.089
191,-0.086,0.089
192,-0.086,0.015
193,-0.097,0.015
194,-0.086,0.015
195,-0.076,0.015
196,-0.065,-0.059
197,-0.065,-0.059
198,-0.065,-0.059
199,-0.086,-0.059
200,-0.086,-0.089
201,-0.097,-0.089
202,-0.108,-0.089
203,-0.086,-0.089
204,-0.065,-0.148
205,-0.065,-0.148
206,-0.065,-0.148
207,-0.076,-0.148
208,-0.086,-0.177
209,-0.097,-0.177
210,-0.086,-0.177
211,-0.086,-0.177
212,-0.076,-0.207
213,-0.065,-0.207
214,-0.065,-0.207
215,-0.065,-0.207
216,-0.076,-0.222
217,-0.097,-0.222
218,-0.097,-0.222
219,-0.086,-0.222
220,-0.065,-0.237
221,-0.065,-0.237
222,-0.065,-0.237
223,-0.065,-0.237
224,-0.076,-0.252
225,-0.086,-0.252
226,-0.097,-0.252
227,-0.086,-0.252
228,-0.076,-0.237
229,-0.065,-0.237
230,-0.054,-0.237
231,-0.065,-0.237
232,-0.065,-0.252
233,-0.086,-0.252
234,-0.086,-0.252
235,-0.086,-0.252
236,-0.086,-0.252
237,-0.065,-0.252
238,-0.065,-0.252
239,-0.054,-0.252
240,-0.065,-0.252
241,-0.076,-0.252
242,-0.086,-0.252
243,-0.086,-0.252
244,-0.086,-0.267
245,-0.065,-0.267
246,-0.065,-0.267
247,-0.054,-0.267
248,-0.065,-0.296
249,-0.065,-0.296
250,-0.086,-0.296
251,-0.086,-0.296
252,-0.086,-0.296
253,-0.076,-0.296
254,-0.065,-0.296
255,-0.054,-0.296
256,-0.065,-0.341
257,-0.065,-0.341
258,-0.086,-0.341
259,-0.086,-0.341
260,-0.086,-0.370
261,-0.086,-0.370
262,-0.065,-0.370
263,-0.054,-0.370
264,-0.054,-0.385
265,-0.065,-0.385
266,-0.076,-0.385
267,-0.086,-0.385
268,-0.086,-0.429
269,-0.086,-0.429
270,-0.065,-0.429
271,-0.054,-0.429
272,-0.043,-0.415
273,-0.054,-0.415
274,-0.065,-0.415
275,-0.086,-0.415
276,-0.086,-0.445
277,-0.086,-0.445
278,-0.076,-0.445
279,-0.065,-0.445
280,-0.054,-0.459
281,-0.054,-0.459
282,-0.065,-0.459
283,-0.076,-0.459
284,-0.086,-0.474
285,-0.086,-0.474
286,-0.076,-0.474
287,-0.065,-0.474
288,-0.054,-0.474
289,-0.054,-0.474
290,-0.065,-0.474
291,-0.065,-0.474
292,-0.086,-0.503
293,-0.086,-0.503
294,-0.086,-0.503
295,-0.065,-0.503
296,-0.054,-0.533
297,-0.054,-0.533
298,-0.065,-0.533
299,-0.076,-0.533
300,-0.086,-0.533
301,-0.086,-0.533
302,-0.086,-0.533
303,-0.076,-0.533
304,-0.065,-0.563
305,-0.043,-0.563
306,-0.054,-0.563
307,-0.065,-0.563
308,-0.076,-0.578
309,-0.086,-0.578
310,-0.086,-0.578
311,-0.076,-0.578
312,-0.065,-0.578
313,-0.054,-0.578
314,-0.054,-0.578
315,-0.065,-0.578
316,-0.076,-0.608
317,-0.086,-0.608
318,-0.086,-0.608
319,-0.076,-0.608
320,-0.065,-0.608
321,-0.043,-0.608
322,-0.043,-0.608
323,-0.054,-0.608
324,-0.065,-0.622
325,-0.076,-0.622
326,-0.076,-0.622
327,-0.076,-0.622
328,-0.065,-0.637
329,-0.043,-0.637
330,-0.043,-0.637
331,-0.043,-0.637
332,-0.054,-0.622
333,-0.065,-0.622
334,-0.076,-0.622
335,-0.076,-0.622
336,-0.065,-0.637
337,-0.054,-0.637
338,-0.043,-0.637
339,-0.043,-0.637
340,-0.043,-0.652
341,-0.065,-0.652
342,-0.065,-0.652
343,-0.054,-0.652
344,-0.043,-0.666
345,-0.021,-0.666
346,-0.021,-0.666
347,-0.010,-0.666
348,-0.010,-0.652
349,-0.021,-0.652
350,-0.032,-0.652
351,-0.032,-0.652
352,-0.032,-0.681
353,-0.021,-0.681
354,0.001,-0.681
355,0.001,-0.681
356,0.001,-0.666
357,0.001,-0.666
358,-0.021,-0.666
359,-0.032,-0.666
360,-0.032,-0.696
361,-0.032,-0.696
362,-0.021,-0.696
363,-0.021,-0.696
364,-0.021,-0.696
365,-0.032,-0.696
366,-0.043,-0.696
367,-0.054,-0.696
368,-0.065,-0.696
369,-0.065,-0.696
370,-0.043,-0.696
371,-0.043,-0.696
372,-0.043,-0.726
373,-0.043,-0.726
374,-0.065,-0.726
375,-0.076,-0.726
376,-0.086,-0.726
377,-0.076,-0.726
378,-0.065,-0.726
379,-0.065,-0.726
380,-0.065,-0.726
381,-0.054,-0.726
382,-0.065,-0.726
383,-0.076,-0.726
384,-0.086,-0.741
385,-0.076,-0.741
386,-0.065,-0.741
387,-0.054,-0.741
388,-0.043,-0.755
389,-0.043,-0.755
390,-0.054,-0.755
391,-0.076,-0.755
392,-0.086,-0.741
393,-0.086,-0.741
394,-0.086,-0.741
395,-0.076,-0.741
396,-0.065,-0.741
397,-0.065,-0.741
398,-0.065,-0.741
399,-0.076,-0.741
400,-0.086,-0.741
401,-0.086,-0.741
402,-0.086,-0.741
403,-0.065,-0.741
404,-0.054,-0.726
405,-0.054,-0.726
406,-0.054,-0.726
407,-0.065,-0.726
408,-0.076,-0.726
409,-0.086,-0.726
410,-0.086,-0.726
411,-0.086,-0.726
412,-0.086,-0.726
413,-0.076,-0.726
414,-0.076,-0.726
415,-0.086,-0.726
416,-0.097,-0.726
417,-0.086,-0.726
418,-0.065,-0.726
419,0.001,-0.726
420,0.066,-0.711
421,0.132,-0.711
422,0.197,-0.711
423,0.284,-0.711
424,0.338,-0.726
425,0.393,-0.726
426,0.437,-0.726
427,0.502,-0.726
428,0.568,-0.741
429,0.600,-0.741
430,0.611,-0.741
431,0.600,-0.741
432,0.557,-0.741
433,0.524,-0.741
434,0.480,-0.741
435,0.448,-0.741
436,0.404,-0.726
437,0.349,-0.726
438,0.273,-0.726
439,0.186,-0.726
440,0.110,-0.755
441,0.044,-0.755
442,-0.010,-0.755
443,-0.043,-0.755
444,-0.065,-0.755
445,-0.076,-0.755
446,-0.076,-0.755
447,-0.065,-0.755
448,-0.065,-0.755
449,-0.076,-0.755
450,-0.086,-0.755
451,-0.076,-0.755
452,-0.054,-0.770
453,-0.043,-0.770
454,-0.021,-0.770
455,-0.021,-0.770
456,-0.021,-0.755
457,-0.021,-0.755
458,-0.043,-0.755
459,-0.043,-0.755
460,-0.043,-0.770
461,-0.032,-0.770
462,-0.021,-0.770
463,0.001,-0.770
464,-0.010,-0.755
465,-0.021,-0.755
466,-0.032,-0.755
467,-0.043,-0.755
468,-0.043,-0.770
469,-0.032,-0.770
470,-0.021,-0.770
471,-0.010,-0.770
472,0.001,-0.755
473,-0.010,-0.755
474,-0.021,-0.755
475,-0.043,-0.755
476,-0.043,-0.755
477,-0.043,-0.755
478,-0.021,-0.755
479,-0.010,-0.755
480,0.001,-0.770
481,0.001,-0.770
482,-0.021,-0.770
483,-0.032,-0.770
484,-0.043,-0.755
485,-0.032,-0.755
486,-0.021,-0.755
487,-0.010,-0.755
488,0.001,-0.770
489,0.001,-0.770
490,0.001,-0.770
491,-0.010,-0.770
492,-0.021,-0.755
493,-0.021,-0.755
494,-0.021,-0.755
495,0.001,-0.755
496,0.001,-0.770
497,0.001,-0.770
498,0.001,-0.770
499,0.001,-0.770
500,-0.021,-0.755
501,-0.021,-0.755
502,-0.021,-0.755
503,0.001,-0.755
504,0.011,-0.755
505,0.022,-0.755
506,0.011,-0.755
507,0.001,-0.755
508,0.001,-0.755
509,-0.010,-0.755
510,0.001,-0.755
511,0.001,-0.755
512,0.022,-0.755
513,0.022,-0.755
514,0.022,-0.755
515,0.022,-0.755
516,0.001,-0.741
517,0.001,-0.741
518,0.001,-0.741
519,0.011,-0.741
520,0.022,-0.741
521,0.033,-0.741
522,0.044,-0.741
523,0.044,-0.741
524,0.022,-0.741
525,0.022,-0.741
526,0.022,-0.741
527,0.022,-0.741
528,0.044,-0.726
529,0.055,-0.726
530,0.066,-0.726
531,0.066,-0.726
532,0.055,-0.726
533,0.044,-0.726
534,0.033,-0.726
535,0.044,-0.726
536,0.055,-0.741
537,0.066,-0.741
538,0.077,-0.741
539,0.077,-0.741
540,0.077,-0.711
541,0.066,-0.711
542,0.066,-0.711
543,0.066,-0.711
544,0.066,-0.711
545,0.088,-0.711
546,0.099,-0.711
547,0.110,-0.711
548,0.110,-0.681
549,0.088,-0.681
550,0.088,-0.681
551,0.088,-0.681
552,0.099,-0.666
553,0.121,-0.666
554,0.121,-0.666
555,0.143,-0.666
556,0.143,-0.652
557,0.143,-0.652
558,0.121,-0.652
559,0.121,-0.652
560,0.132,-0.637
561,0.143,-0.637
562,0.164,-0.637
563,0.164,-0.637
564,0.175,-0.593
565,0.164,-0.593
566,0.164,-0.593
567,0.154,-0.593
568,0.154,-0.548
569,0.164,-0.548
570,0.186,-0.548
571,0.208,-0.548
572,0.208,-0.503
573,0.197,-0.503
574,0.197,-0.503
575,0.186,-0.503
576,0.186,-0.445
577,0.186,-0.445
578,0.208,-0.445
579,0.219,-0.445
580,0.230,-0.355
581,0.230,-0.355
582,0.208,-0.355
583,0.208,-0.355
584,0.197,-0.296
585,0.197,-0.296
586,0.208,-0.296
587,0.219,-0.296
588,0.230,-0.207
589,0.219,-0.207
590,0.219,-0.207
591,0.186,-0.207
592,0.186,-0.118
593,0.186,-0.118
594,0.186,-0.118
595,0.197,-0.118
596,0.208,-0.015
597,0.208,-0.015
598,0.186,-0.015
599,0.175,-0.015
600,0.164,0.074
601,0.143,0.074
602,0.143,0.074
603,0.154,0.074
604,0.164,0.163
605,0.154,0.163
606,0.143,0.163
607,0.121,0.163
608,0.110,0.237
609,0.088,0.237
610,0.088,0.237
611,0.088,0.237
612,0.088,0.311
613,0.099,0.311
614,0.088,0.311
615,0.077,0.311
616,0.055,0.370
617,0.044,0.370
618,0.033,0.370
619,0.033,0.370
620,0.044,0.445
621,0.044,0.445
622,0.044,0.445
623,0.044,0.445
624,0.022,0.474
625,0.001,0.474
626,0.001,0.474
627,0.001,0.474
628,0.011,0.518
629,0.022,0.518
630,0.022,0.518
631,0.011,0.518
632,0.001,0.548
633,-0.010,0.548
634,-0.021,0.548
635,-0.021,0.548
636,-0.010,0.593
637,0.001,0.593
638,0.001,0.593
639,0.001,0.593
640,0.001,0.593
641,-0.021,0.593
642,-0.032,0.593
643,-0.043,0.593
644,-0.032,0.608
645,-0.010,0.608
646,0.001,0.608
647,0.001,0.608
648,-0.010,0.608
649,-0.021,0.608
650,-0.043,0.608
651,-0.043,0.608
652,-0.043,0.608
653,-0.021,0.608
654,-0.010,0.608
655,0.001,0.608
656,-0.010,0.593
657,-0.021,0.593
658,-0.043,0.593
659,-0.043,0.593
660,-0.043,0.593
661,-0.032,0.593
662,-0.021,0.593
663,-0.010,0.593
664,-0.021,0.548
665,-0.021,0.548
666,-0.043,0.548
667,-0.043,0.548
668,-0.043,0.518
669,-0.043,0.518
670,-0.021,0.518
671,-0.021,0.518
672,-0.021,0.474
673,-0.021,0.474
674,-0.043,0.474
675,-0.043,0.474
676,-0.054,0.414
677,-0.043,0.414
678,-0.043,0.414
679,-0.021,0.414
680,-0.021,0.370
681,-0.021,0.370
682,-0.043,0.370
683,-0.054,0.370
684,-0.054,0.296
685,-0.065,0.296
686,-0.043,0.296
687,-0.032,0.296
688,-0.021,0.237
689,-0.021,0.237
690,-0.043,0.237
691,-0.054,0.237
692,-0.065,0.193
693,-0.065,0.193
694,-0.054,0.193
695,-0.032,0.193
696,-0.032,0.134
697,-0.032,0.134
698,-0.043,0.134
699,-0.043,0.134
700,-0.065,0.059
701,-0.065,0.059
702,-0.065,0.059
703,-0.043,0.059
704,-0.032,0.000
705,-0.032,0.000
706,-0.043,0.000
707,-0.043,0.000
708,-0.065,-0.044
709,-0.065,-0.044
710,-0.065,-0.044
711,-0.043,-0.044
712,-0.032,-0.089
713,-0.021,-0.089
714,-0.032,-0.089
715,-0.043,-0.089
716,-0.065,-0.134
717,-0.065,-0.134
718,-0.065,-0.134
719,-0.065,-0.134
720,-0.043,-0.134
721,-0.032,-0.134
722,-0.032,-0.134
723,-0.032,-0.134
724,-0.054,-0.148
725,-0.065,-0.148
726,-0.065,-0.148
727,-0.065,-0.148
728,-0.043,-0.178
729,-0.032,-0.178
730,-0.021,-0.178
731,-0.032,-0.178
732,-0.043,-0.178
733,-0.054,-0.178
734,-0.065,-0.178
735,-0.065,-0.178
736,-0.043,-0.178
737,-0.032,-0.178
738,-0.021,-0.178
739,-0.032,-0.178
740,-0.043,-0.193
741,-0.054,-0.193
742,-0.065,-0.193
743,-0.065,-0.193
744,-0.054,-0.193
745,-0.043,-0.193
746,-0.032,-0.193
747,-0.021,-0.193
748,-0.032,-0.207
749,-0.043,-0.207
750,-0.065,-0.207
751,-0.065,-0.207
752,-0.054,-0.222
753,-0.043,-0.222
754,-0.032,-0.222
755,-0.021,-0.222
756,-0.021,-0.252
757,-0.043,-0.252
758,-0.054,-0.252
759,-0.065,-0.252
760,-0.054,-0.281
761,-0.043,-0.281
762,-0.032,-0.281
763,-0.021,-0.281
764,-0.032,-0.281
765,-0.043,-0.281
766,-0.043,-0.281
767,-0.065,-0.281
768,-0.054,-0.326
769,-0.054,-0.326
770,-0.032,-0.326
771,-0.021,-0.326
772,-0.021,-0.341
773,-0.032,-0.341
774,-0.043,-0.341
775,-0.054,-0.341
776,-0.065,-0.355
777,-0.065,-0.355
778,-0.043,-0.355
779,-0.032,-0.355
780,-0.021,-0.400
781,-0.032,-0.400
782,-0.043,-0.400
783,-0.065,-0.400
784,-0.065,-0.370
785,-0.065,-0.370
786,-0.043,-0.370
787,-0.032,-0.370
788,-0.021,-0.400
789,-0.021,-0.400
790,-0.032,-0.400
791,-0.054,-0.400
792,-0.065,-0.429
793,-0.065,-0.429
794,-0.054,-0.429
795,-0.043,-0.429
796,-0.021,-0.429
797,-0.021,-0.429
798,-0.032,-0.429
799,-0.043,-0.429
800,-0.065,-0.460
801,-0.065,-0.460
802,-0.054,-0.460
803,-0.043,-0.460
804,-0.021,-0.460
805,-0.021,-0.460
806,-0.021,-0.460
807,-0.043,-0.460
808,-0.043,-0.489
809,-0.065,-0.489
810,-0.065,-0.489
811,-0.043,-0.489
812,-0.021,-0.489
813,-0.021,-0.489
814,-0.021,-0.489
815,-0.032,-0.489
816,-0.054,-0.533
817,-0.054,-0.533
818,-0.054,-0.533
819,-0.043,-0.533
820,-0.032,-0.533
821,-0.021,-0.533
822,-0.021,-0.533
823,-0.021,-0.533
824,-0.043,-0.548
825,-0.054,-0.548
826,-0.065,-0.548
827,-0.054,-0.548
828,-0.032,-0.578
829,-0.021,-0.578
830,-0.021,-0.578
831,-0.021,-0.578
832,-0.032,-0.578
833,-0.043,-0.578
834,-0.065,-0.578
835,-0.054,-0.578
836,-0.043,-0.593
837,-0.021,-0.593
838,-0.021,-0.593
839,-0.021,-0.593
840,-0.032,-0.608
841,-0.043,-0.608
842,-0.054,-0.608
843,-0.054,-0.608
844,-0.043,-0.593
845,-0.021,-0.593
846,0.001,-0.593
847,0.001,-0.593
848,0.001,-0.608
849,0.001,-0.608
850,-0.021,-0.608
851,-0.021,-0.608
852,-0.010,-0.608
853,0.001,-0.608
854,0.011,-0.608
855,0.022,-0.608
856,0.022,-0.623
857,0.001,-0.623
858,0.001,-0.623
859,0.001,-0.623
860,0.001,-0.623
861,0.001,-0.623
862,0.011,-0.623
863,0.011,-0.623
864,0.011,-0.637
865,0.001,-0.637
866,-0.021,-0.637
867,-0.032,-0.637
868,-0.043,-0.637
869,-0.021,-0.637
870,-0.010,-0.637
871,0.001,-0.637
872,-0.010,-0.652
873,-0.021,-0.652
874,-0.032,-0.652
875,-0.054,-0.652
876,-0.065,-0.652
877,-0.065,-0.652
878,-0.043,-0.652
879,-0.021,-0.652
880,-0.021,-0.681
881,-0.043,-0.681
882,-0.043,-0.681
883,-0.065,-0.681
884,-0.065,-0.666
885,-0.065,-0.666
886,-0.043,-0.666
887,-0.032,-0.666
888,-0.021,-0.681
889,-0.021,-0.681
890,-0.032,-0.681
891,-0.043,-0.681
892,-0.065,-0.681
893,-0.065,-0.681
894,-0.054,-0.681
895,-0.043,-0.681
896,-0.043,-0.681
897,-0.032,-0.681
898,-0.043,-0.681
899,-0.054,-0.681
900,-0.065,-0.697
901,-0.065,-0.697
902,-0.065,-0.697
903,-0.043,-0.697
904,-0.032,-0.681
905,-0.032,-0.681
906,-0.032,-0.681
907,-0.043,-0.681
908,-0.054,-0.681
909,-0.065,-0.681
910,-0.065,-0.681
911,-0.043,-0.681
912,-0.032,-0.681
913,-0.032,-0.681
914,-0.054,-0.681
915,-0.065,-0.681
916,-0.086,-0.681
917,-0.086,-0.681
918,-0.086,-0.681
919,-0.065,-0.681
920,-0.021,-0.697
921,0.033,-0.697
922,0.088,-0.697
923,0.132,-0.697
924,0.175,-0.697
925,0.241,-0.697
926,0.317,-0.697
927,0.393,-0.697
928,0.459,-0.681
929,0.524,-0.681
930,0.579,-0.681
931,0.622,-0.681
932,0.611,-0.697
933,0.600,-0.697
934,0.568,-0.697
935,0.546,-0.697
936,0.524,-0.711
937,0.513,-0.711
938,0.480,-0.711
939,0.404,-0.711
940,0.317,-0.681
941,0.230,-0.681
942,0.143,-0.681
943,0.088,-0.681
944,0.033,-0.697
945,0.022,-0.697
946,0.001,-0.697
947,-0.032,-0.697
948,-0.054,-0.697
949,-0.065,-0.697
950,-0.076,-0.697
951,-0.065,-0.697
952,-0.054,-0.681
953,-0.021,-0.681
954,-0.010,-0.681
955,0.001,-0.681
956,0.001,-0.681
957,-0.010,-0.681
958,-0.021,-0.681
959,-0.021,-0.681
960,-0.021,-0.697
961,0.001,-0.697
962,0.011,-0.697
963,0.022,-0.697
964,0.022,-0.681
965,0.001,-0.681
966,0.001,-0.681
967,-0.010,-0.681
968,-0.010,-0.697
969,0.001,-0.697
970,0.001,-0.697
971,0.011,-0.697
972,0.011,-0.697
973,0.011,-0.697
974,0.001,-0.697
975,-0.010,-0.697
976,-0.010,-0.697
977,0.001,-0.697
978,0.001,-0.697
979,0.022,-0.697
980,0.022,-0.711
981,0.011,-0.711
982,0.001,-0.711
983,0.001,-0.711
984,0.001,-0.711
985,0.001,-0.711
986,0.001,-0.711
987,0.022,-0.711
988,0.022,-0.711
989,0.022,-0.711
990,0.011,-0.711
991,0.001,-0.711
992,0.001,-0.726
993,0.001,-0.726
994,0.001,-0.726
995,0.022,-0.726
996,0.033,-0.726
997,0.033,-0.726
998,0.022,-0.726
999,0.011,-0.726
1000,0.001,-0.726
1001,0.001,-0.726
1002,0.001,-0.726
1003,0.022,-0.726
1004,0.033,-0.741
1005,0.044,-0.741
1006,0.044,-0.741
1007,0.022,-0.741
1008,0.022,-0.726
1009,0.001,-0.726
1010,0.022,-0.726
1011,0.033,-0.726
1012,0.044,-0.726
1013,0.055,-0.726
1014,0.044,-0.726
1015,0.044,-0.726
1016,0.033,-0.726
1017,0.022,-0.726
1018,0.022,-0.726
1019,0.044,-0.726
1020,0.055,-0.711
1021,0.066,-0.711
1022,0.066,-0.711
1023,0.066,-0.711
1024,0.044,-0.711
1025,0.044,-0.711
1026,0.033,-0.711
1027,0.044,-0.711
1028,0.066,-0.681
1029,0.088,-0.681
1030,0.088,-0.681
1031,0.077,-0.681
1032,0.066,-0.697
1033,0.055,-0.697
1034,0.055,-0.697
1035,0.066,-0.697
1036,0.088,-0.697
1037,0.099,-0.697
1038,0.110,-0.697
1039,0.110,-0.697
1040,0.099,-0.666
1041,0.088,-0.666
1042,0.077,-0.666
1043,0.088,-0.666
1044,0.099,-0.666
1045,0.121,-0.666
1046,0.132,-0.666
1047,0.143,-0.666
1048,0.132,-0.666
1049,0.121,-0.666
1050,0.110,-0.666
1051,0.110,-0.666
1052,0.121,-0.652
1053,0.143,-0.652
1054,0.154,-0.652
1055,0.164,-0.652
1056,0.154,-0.637
1057,0.143,-0.637
1058,0.143,-0.637
1059,0.143,-0.637
1060,0.143,-0.623
1061,0.164,-0.623
1062,0.175,-0.623
1063,0.186,-0.623
1064,0.186,-0.593
1065,0.186,-0.593
1066,0.175,-0.593
1067,0.164,-0.593
1068,0.175,-0.548
1069,0.186,-0.548
1070,0.208,-0.548
1071,0.219,-0.548
1072,0.219,-0.504
1073,0.219,-0.504
1074,0.208,-0.504
1075,0.197,-0.504
1076,0.197,-0.460
1077,0.208,-0.460
1078,0.230,-0.460
1079,0.241,-0.460
1080,0.241,-0.386
1081,0.241,-0.386
1082,0.230,-0.386
1083,0.219,-0.386
1084,0.219,-0.311
1085,0.219,-0.311
1086,0.241,-0.311
1087,0.251,-0.311
1088,0.262,-0.252
1089,0.251,-0.252
1090,0.241,-0.252
1091,0.219,-0.252
1092,0.208,-0.148
1093,0.208,-0.148
1094,0.219,-0.148
1095,0.230,-0.148
1096,0.241,-0.044
1097,0.241,-0.044
1098,0.219,-0.044
1099,0.208,-0.044
1100,0.186,0.044
1101,0.186,0.044
1102,0.186,0.044
1103,0.186,0.044
1104,0.197,0.118
1105,0.186,0.118
1106,0.186,0.118
1107,0.164,0.118
1108,0.143,0.222
1109,0.132,0.222
1110,0.121,0.222
1111,0.132,0.222
1112,0.143,0.311
1113,0.143,0.311
1114,0.121,0.311
1115,0.110,0.311
1116,0.088,0.370
1117,0.066,0.370
1118,0.066,0.370
1119,0.066,0.370
1120,0.088,0.459
1121,0.088,0.459
1122,0.077,0.459
1123,0.066,0.459
1124,0.044,0.488
1125,0.033,0.488
1126,0.033,0.488
1127,0.033,0.488
1128,0.044,0.533
1129,0.044,0.533
1130,0.044,0.533
1131,0.044,0.533
1132,0.022,0.562
1133,0.001,0.562
1134,0.001,0.562
1135,0.001,0.562
1136,0.022,0.607
1137,0.022,0.607
1138,0.022,0.607
1139,0.022,0.607
1140,0.011,0.607
1141,0.001,0.607
1142,-0.010,0.607
1143,-0.010,0.607
1144,0.001,0.622
1145,0.011,0.622
1146,0.011,0.622
1147,0.011,0.622
1148,0.001,0.637
1149,0.001,0.637
1150,-0.010,0.637
1151,-0.021,0.637
1152,-0.021,0.637
1153,0.001,0.637
1154,0.001,0.637
1155,0.001,0.637
1156,0.001,0.607
1157,-0.010,0.607
1158,-0.021,0.607
1159,-0.021,0.607
1160,-0.021,0.622
1161,-0.010,0.622
1162,0.001,0.622
1163,0.001,0.622
1164,0.001,0.593
1165,-0.010,0.593
1166,-0.021,0.593
1167,-0.021,0.593
1168,-0.021,0.548
1169,-0.010,0.548
1170,0.001,0.548
1171,0.001,0.548
1172,0.001,0.533
1173,0.001,0.533
1174,-0.021,0.533
1175,-0.032,0.533
1176,-0.021,0.488
1177,-0.021,0.488
1178,-0.010,0.488
1179,0.001,0.488
1180,0.001,0.444
1181,0.001,0.444
1182,-0.021,0.444
1183,-0.021,0.444
1184,-0.043,0.370
1185,-0.032,0.370
1186,-0.021,0.370
1187,0.001,0.370
1188,0.001,0.311
1189,-0.010,0.311
1190,-0.021,0.311
1191,-0.032,0.311
1192,-0.043,0.252
1193,-0.032,0.252
1194,-0.021,0.252
1195,-0.010,0.252
1196,0.001,0.193
1197,0.001,0.193
1198,-0.010,0.193
1199,-0.021,0.193
1200,-0.032,0.118
1201,-0.043,0.118
1202,-0.032,0.118
1203,-0.010,0.118
1204,0.001,0.059
1205,0.001,0.059
1206,-0.010,0.059
1207,-0.021,0.059
1208,-0.032,0.000
1209,-0.043,0.000
1210,-0.032,0.000
1211,-0.021,0.000
1212,0.001,-0.044
1213,0.001,-0.044
1214,0.001,-0.044
1215,-0.021,-0.044
1216,-0.032,-0.089
1217,-0.043,-0.089
1218,-0.043,-0.089
1219,-0.021,-0.089
1220,-0.021,-0.118
1221,0.001,-0.118
1222,0.001,-0.118
1223,-0.021,-0.118
1224,-0.032,-0.118
1225,-0.043,-0.118
1226,-0.043,-0.118
1227,-0.043,-0.118
1228,-0.021,-0.148
1229,0.001,-0.148
1230,0.001,-0.148
1231,0.001,-0.148
1232,-0.021,-0.148
1233,-0.032,-0.148
1234,-0.043,-0.148
1235,-0.032,-0.148
1236,-0.021,-0.163
1237,-0.010,-0.163
1238,0.001,-0.163
1239,-0.010,-0.163
1240,-0.021,-0.163
1241,-0.032,-0.163
1242,-0.043,-0.163
1243,-0.043,-0.163
1244,-0.021,-0.163
1245,-0.010,-0.163
1246,0.001,-0.163
1247,0.001,-0.163
1248,-0.010,-0.178
1249,-0.021,-0.178
1250,-0.043,-0.178
1251,-0.043,-0.178
1252,-0.032,-0.193
1253,-0.021,-0.193
1254,0.001,-0.193
1255,0.001,-0.193
1256,-0.010,-0.207
1257,-0.021,-0.207
1258,-0.032,-0.207
1259,-0.032,-0.207
1260,-0.032,-0.207
1261,-0.021,-0.207
1262,0.001,-0.207
1263,0.001,-0.207
1264,0.001,-0.252
1265,-0.021,-0.252
1266,-0.032,-0.252
1267,-0.043,-0.252
1268,-0.032,-0.267
1269,-0.021,-0.267
1270,-0.010,-0.267
1271,0.001,-0.267
1272,0.001,-0.296
1273,-0.010,-0.296
1274,-0.021,-0.296
1275,-0.043,-0.296
1276,-0.043,-0.311
1277,-0.021,-0.311
1278,-0.021,-0.311
1279,0.001,-0.311
1280,0.001,-0.326
1281,0.001,-0.326
1282,-0.021,-0.326
1283,-0.032,-0.326
1284,-0.043,-0.355
1285,-0.032,-0.355
1286,-0.021,-0.355
1287,-0.010,-0.355
1288,0.001,-0.386
1289,0.001,-0.386
1290,-0.021,-0.386
1291,-0.032,-0.386
1292,-0.043,-0.386
1293,-0.032,-0.386
1294,-0.021,-0.386
1295,-0.010,-0.386
1296,0.001,-0.370
1297,0.001,-0.370
1298,-0.010,-0.370
1299,-0.032,-0.370
1300,-0.043,-0.385
1301,-0.043,-0.385
1302,-0.032,-0.385
1303,-0.021,-0.385
1304,0.001,-0.415
1305,0.001,-0.415
1306,-0.021,-0.415
1307,-0.021,-0.415
1308,-0.032,-0.415
1309,-0.043,-0.415
1310,-0.043,-0.415
1311,-0.021,-0.415
1312,-0.010,-0.429
1313,0.001,-0.429
1314,-0.010,-0.429
1315,-0.021,-0.429
1316,-0.032,-0.445
1317,-0.043,-0.445
1318,-0.043,-0.445
1319,-0.021,-0.445
1320,0.001,-0.474
1321,0.001,-0.474
1322,0.001,-0.474
1323,-0.010,-0.474
1324,-0.021,-0.474
1325,-0.043,-0.474
1326,-0.032,-0.474
1327,-0.021,-0.474
1328,0.001,-0.489
1329,0.001,-0.489
1330,0.001,-0.489
1331,-0.010,-0.489
1332,-0.021,-0.489
1333,-0.032,-0.489
1334,-0.043,-0.489
1335,-0.021,-0.489
1336,-0.010,-0.503
1337,0.001,-0.503
1338,0.001,-0.503
1339,0.001,-0.503
1340,-0.021,-0.518
1341,-0.032,-0.518
1342,-0.032,-0.518
1343,-0.021,-0.518
1344,-0.010,-0.518
1345,0.011,-0.518
1346,0.022,-0.518
1347,0.022,-0.518
1348,0.022,-0.548
1349,0.001,-0.548
1350,0.001,-0.548
1351,0.001,-0.548
1352,0.011,-0.548
1353,0.022,-0.548
1354,0.044,-0.548
1355,0.044,-0.548
1356,0.044,-0.548
1357,0.022,-0.548
1358,0.022,-0.548
1359,0.011,-0.548
1360,0.022,-0.563
1361,0.022,-0.563
1362,0.033,-0.563
1363,0.033,-0.563
1364,0.022,-0.563
1365,0.011,-0.563
1366,0.001,-0.563
1367,-0.021,-0.563
1368,-0.010,-0.593
1369,0.001,-0.593
1370,0.001,-0.593
1371,0.011,-0.593
1372,0.001,-0.578
1373,0.001,-0.578
1374,-0.021,-0.578
1375,-0.032,-0.578
1376,-0.043,-0.608
1377,-0.032,-0.608
1378,-0.021,-0.608
1379,0.001,-0.608
1380,0.001,-0.593
1381,-0.010,-0.593
1382,-0.032,-0.593
1383,-0.043,-0.593
1384,-0.043,-0.608
1385,-0.043,-0.608
1386,-0.021,-0.608
1387,0.001,-0.608
1388,0.001,-0.608
1389,0.001,-0.608
1390,-0.010,-0.608
1391,-0.032,-0.608
1392,-0.043,-0.622
1393,-0.043,-0.622
1394,-0.032,-0.622
1395,-0.021,-0.622
1396,-0.021,-0.608
1397,-0.021,-0.608
1398,-0.021,-0.608
1399,-0.043,-0.608
1400,-0.043,-0.622
1401,-0.043,-0.622
1402,-0.043,-0.622
1403,-0.021,-0.622
1404,-0.010,-0.622
1405,-0.021,-0.622
1406,-0.021,-0.622
1407,-0.032,-0.622
1408,-0.043,-0.608
1409,-0.043,-0.608
1410,-0.043,-0.608
1411,-0.021,-0.608
1412,-0.021,-0.622
1413,-0.021,-0.622
1414,-0.032,-0.622
1415,-0.043,-0.622
1416,-0.065,-0.622
1417,-0.076,-0.622
1418,-0.065,-0.622
1419,-0.043,-0.622
1420,0.001,-0.608
1421,0.055,-0.608
1422,0.110,-0.608
1423,0.143,-0.608
1424,0.197,-0.622
1425,0.262,-0.622
1426,0.338,-0.622
1427,0.415,-0.622
1428,0.480,-0.608
1429,0.546,-0.608
1430,0.611,-0.608
1431,0.633,-0.608
1432,0.622,-0.622
1433,0.600,-0.622
1434,0.579,-0.622
1435,0.557,-0.622
1436,0.546,-0.622
1437,0.524,-0.622
1438,0.480,-0.622
1439,0.426,-0.622
1440,0.317,-0.608
1441,0.230,-0.608
1442,0.154,-0.608
1443,0.088,-0.608
1444,0.055,-0.622
1445,0.033,-0.622
1446,0.001,-0.622
1447,-0.010,-0.622
1448,-0.032,-0.608
1449,-0.054,-0.608
1450,-0.054,-0.608
1451,-0.054,-0.608
1452,-0.032,-0.622
1453,-0.010,-0.622
1454,0.001,-0.622
1455,0.011,-0.622
1456,0.011,-0.622
1457,0.001,-0.622
1458,0.001,-0.622
1459,0.001,-0.622
1460,0.001,-0.637
1461,0.011,-0.637
1462,0.033,-0.637
1463,0.033,-0.637
1464,0.022,-0.622
1465,0.011,-0.622
1466,0.001,-0.622
1467,0.001,-0.622
1468,0.001,-0.637
1469,0.001,-0.637
1470,0.022,-0.637
1471,0.033,-0.637
1472,0.022,-0.622
1473,0.022,-0.622
1474,0.001,-0.622
1475,0.001,-0.622
1476,0.001,-0.637
1477,0.001,-0.637
1478,0.022,-0.637
1479,0.033,-0.637
1480,0.022,-0.637
1481,0.022,-0.637
1482,0.011,-0.637
1483,0.001,-0.637
1484,0.001,-0.652
1485,0.001,-0.652
1486,0.011,-0.652
1487,0.022,-0.652
1488,0.033,-0.652
1489,0.022,-0.652
1490,0.022,-0.652
1491,0.011,-0.652
1492,0.001,-0.652
1493,0.001,-0.652
1494,0.022,-0.652
1495,0.033,-0.652
1496,0.044,-0.666
1497,0.044,-0.666
1498,0.033,-0.666
1499,0.011,-0.666
1500,0.001,-0.666
1501,0.011,-0.666
1502,0.022,-0.666
1503,0.033,-0.666
1504,0.044,-0.666
1505,0.044,-0.666
1506,0.044,-0.666
1507,0.033,-0.666
1508,0.022,-0.681
1509,0.022,-0.681
1510,0.022,-0.681
1511,0.044,-0.681
1512,0.044,-0.666
1513,0.055,-0.666
1514,0.055,-0.666
1515,0.044,-0.666
1516,0.033,-0.681
1517,0.022,-0.681
1518,0.033,-0.681
1519,0.044,-0.681
1520,0.066,-0.666
1521,0.077,-0.666
1522,0.077,-0.666
1523,0.066,-0.666
1524,0.055,-0.666
1525,0.044,-0.666
1526,0.044,-0.666
1527,0.066,-0.666
1528,0.077,-0.652
1529,0.088,-0.652
1530,0.088,-0.652
1531,0.088,-0.652
1532,0.066,-0.652
1533,0.066,-0.652
1534,0.066,-0.652
1535,0.066,-0.652
1536,0.088,-0.652
1537,0.099,-0.652
1538,0.110,-0.652
1539,0.110,-0.652
1540,0.099,-0.637
1541,0.088,-0.637
1542,0.088,-0.637
1543,0.088,-0.637
1544,0.110,-0.622
1545,0.121,-0.622
1546,0.132,-0.622
1547,0.132,-0.622
1548,0.132,-0.622
1549,0.110,-0.622
1550,0.110,-0.622
1551,0.121,-0.622
1552,0.121,-0.593
1553,0.143,-0.593
1554,0.164,-0.593
1555,0.164,-0.593
1556,0.164,-0.563
1557,0.143,-0.563
1558,0.154,-0.563
1559,0.143,-0.563
1560,0.154,-0.548
1561,0.164,-0.548
1562,0.186,-0.548
1563,0.186,-0.548
1564,0.197,-0.518
1565,0.186,-0.518
1566,0.175,-0.518
1567,0.175,-0.518
1568,0.186,-0.488
1569,0.197,-0.488
1570,0.219,-0.488
1571,0.230,-0.488
1572,0.230,-0.429
1573,0.219,-0.429
1574,0.208,-0.429
1575,0.208,-0.429
1576,0.208,-0.370
1577,0.219,-0.370
1578,0.241,-0.370
1579,0.251,-0.370
1580,0.251,-0.326
1581,0.241,-0.326
1582,0.241,-0.326
1583,0.219,-0.326
1584,0.219,-0.252
1585,0.230,-0.252
1586,0.241,-0.252
1587,0.262,-0.252
1588,0.262,-0.148
1589,0.251,-0.148
1590,0.241,-0.148
1591,0.230,-0.148
1592,0.208,-0.074
1593,0.208,-0.074
1594,0.230,-0.074
1595,0.241,-0.074
1596,0.251,0.029
1597,0.241,0.029
1598,0.219,0.029
1599,0.208,0.029
1600,0.186,0.118
1601,0.186,0.118
1602,0.186,0.118
1603,0.197,0.118
1604,0.197,0.223
1605,0.186,0.223
1606,0.186,0.223
1607,0.164,0.223
1608,0.143,0.311
1609,0.143,0.311
1610,0.143,0.311
1611,0.143,0.311
1612,0.143,0.385
1613,0.143,0.385
1614,0.132,0.385
1615,0.121,0.385
1616,0.088,0.460
1617,0.077,0.460
1618,0.077,0.460
1619,0.088,0.460
1620,0.088,0.503
1621,0.088,0.503
1622,0.088,0.503
1623,0.066,0.503
1624,0.044,0.563
1625,0.044,0.563
1626,0.033,0.563
1627,0.044,0.563
1628,0.044,0.608
1629,0.055,0.608
1630,0.055,0.608
1631,0.044,0.608
1632,0.033,0.637
1633,0.011,0.637
1634,0.011,0.637
1635,0.011,0.637
1636,0.022,0.681
1637,0.033,0.681
1638,0.033,0.681
1639,0.033,0.681
1640,0.022,0.681
1641,0.001,0.681
1642,-0.010,0.681
1643,0.001,0.681
1644,0.011,0.681
1645,0.022,0.681
1646,0.022,0.681
1647,0.022,0.681
1648,0.011,0.697
1649,0.001,0.697
1650,-0.010,0.697
1651,-0.010,0.697
1652,0.001,0.711
1653,0.011,0.711
1654,0.011,0.711
1655,0.001,0.711
1656,0.001,0.697
1657,0.001,0.697
1658,-0.010,0.697
1659,-0.021,0.697
1660,0.001,0.681
1661,0.001,0.681
1662,0.011,0.681
1663,0.011,0.681
1664,0.001,0.666
1665,0.001,0.666
1666,-0.021,0.666
1667,-0.021,0.666
1668,-0.010,0.608
1669,-0.010,0.608
1670,0.001,0.608
1671,0.001,0.608
1672,0.001,0.563
1673,0.001,0.563
1674,-0.021,0.563
1675,-0.021,0.563
1676,-0.021,0.533
1677,-0.010,0.533
1678,0.001,0.533
1679,0.001,0.533
1680,0.001,0.474
1681,0.001,0.474
1682,-0.010,0.474
1683,-0.021,0.474
1684,-0.021,0.415
1685,-0.021,0.415
1686,0.001,0.415
1687,0.001,0.415
1688,0.001,0.355
1689,0.001,0.355
1690,-0.010,0.355
1691,-0.021,0.355
1692,-0.032,0.296
1693,-0.021,0.296
1694,-0.010,0.296
1695,0.001,0.296
1696,0.001,0.237
1697,0.001,0.237
1698,0.001,0.237
1699,-0.021,0.237
1700,-0.021,0.163
1701,-0.021,0.163
1702,-0.021,0.163
1703,0.001,0.163
1704,0.001,0.104
1705,0.001,0.104
1706,0.001,0.104
1707,-0.021,0.104
1708,-0.021,0.074
1709,-0.021,0.074
1710,-0.021,0.074
1711,0.001,0.074
1712,0.001,0.015
1713,0.001,0.015
1714,0.001,0.015
1715,-0.021,0.015
1716,-0.032,-0.015
1717,-0.032,-0.015
1718,-0.032,-0.015
1719,-0.021,-0.015
1720,0.001,-0.029
1721,0.001,-0.029
1722,0.001,-0.029
1723,-0.010,-0.029
1724,-0.021,-0.059
1725,-0.043,-0.059
1726,-0.032,-0.059
1727,-0.021,-0.059
1728,-0.010,-0.059
1729,0.001,-0.059
1730,0.001,-0.059
1731,-0.010,-0.059
1732,-0.021,-0.089
1733,-0.032,-0.089
1734,-0.032,-0.089
1735,-0.021,-0.089
1736,-0.010,-0.074
1737,0.001,-0.074
1738,0.001,-0.074
1739,0.001,-0.074
1740,-0.021,-0.089
1741,-0.032,-0.089
1742,-0.032,-0.089
1743,-0.021,-0.089
1744,-0.021,-0.089
1745,0.001,-0.089
1746,0.001,-0.089
1747,0.001,-0.089
1748,-0.010,-0.103
1749,-0.021,-0.103
1750,-0.043,-0.103
1751,-0.032,-0.103
1752,-0.021,-0.118
1753,-0.010,-0.118
1754,0.001,-0.118
1755,0.001,-0.118
1756,-0.010,-0.133
1757,-0.021,-0.133
1758,-0.032,-0.133
1759,-0.032,-0.133
1760,-0.021,-0.163
1761,-0.010,-0.163
1762,0.001,-0.163
1763,0.001,-0.163
1764,0.001,-0.177
1765,-0.021,-0.177
1766,-0.021,-0.177
1767,-0.032,-0.177
1768,-0.032,-0.222
1769,-0.021,-0.222
1770,-0.010,-0.222
1771,0.001,-0.222
1772,0.001,-0.237
1773,-0.010,-0.237
1774,-0.021,-0.237
1775,-0.043,-0.237
1776,-0.032,-0.252
1777,-0.021,-0.252
1778,-0.010,-0.252
1779,0.001,-0.252
1780,0.001,-0.296
1781,-0.010,-0.296
1782,-0.021,-0.296
1783,-0.032,-0.296
1784,-0.043,-0.296
1785,-0.021,-0.296
1786,-0.010,-0.296
1787,0.001,-0.296
1788,0.001,-0.326
1789,-0.010,-0.326
1790,-0.021,-0.326
1791,-0.032,-0.326
1792,-0.043,-0.326
1793,-0.021,-0.326
1794,-0.021,-0.326
1795,0.001,-0.326
1796,0.001,-0.355
1797,0.001,-0.355
1798,-0.010,-0.355
1799,-0.021,-0.355
1800,-0.032,-0.385
1801,-0.032,-0.385
1802,-0.021,-0.385
1803,-0.010,-0.385
1804,0.001,-0.385
1805,0.001,-0.385
1806,0.001,-0.385
1807,-0.021,-0.385
1808,-0.032,-0.400
1809,-0.032,-0.400
1810,-0.021,-0.400
1811,-0.010,-0.400
1812,0.001,-0.400
1813,0.001,-0.400
1814,0.001,-0.400
1815,-0.010,-0.400
1816,-0.032,-0.429
1817,-0.032,-0.429
1818,-0.032,-0.429
1819,-0.010,-0.429
1820,0.001,-0.445
1821,0.001,-0.445
1822,0.001,-0.445
1823,-0.010,-0.445
1824,-0.021,-0.474
1825,-0.032,-0.474
1826,-0.032,-0.474
1827,-0.021,-0.474
1828,0.001,-0.474
1829,0.001,-0.474
1830,0.001,-0.474
1831,0.001,-0.474
1832,-0.021,-0.474
1833,-0.021,-0.474
1834,-0.032,-0.474
1835,-0.032,-0.474
1836,-0.010,-0.503
1837,0.001,-0.503
1838,0.001,-0.503
1839,0.001,-0.503
1840,-0.010,-0.488
1841,-0.021,-0.488
1842,-0.010,-0.488
1843,0.001,-0.488
1844,0.001,-0.518
1845,0.022,-0.518
1846,0.033,-0.518
1847,0.033,-0.518
1848,0.022,-0.518
1849,0.011,-0.518
1850,0.011,-0.518
1851,0.011,-0.518
1852,0.022,-0.533
1853,0.044,-0.533
1854,0.055,-0.533
1855,0.044,-0.533
1856,0.044,-0.533
1857,0.022,-0.533
1858,0.011,-0.533
1859,0.011,-0.533
1860,0.022,-0.548
1861,0.022,-0.548
1862,0.033,-0.548
1863,0.033,-0.548
1864,0.022,-0.533
1865,0.001,-0.533
1866,-0.010,-0.533
1867,-0.010,-0.533
1868,-0.010,-0.563
1869,0.001,-0.563
1870,0.001,-0.563
1871,0.011,-0.563
1872,0.001,-0.548
1873,-0.010,-0.548
1874,-0.021,-0.548
1875,-0.032,-0.548
1876,-0.021,-0.578
1877,-0.021,-0.578
1878,-0.010,-0.578
1879,0.001,-0.578
1880,0.001,-0.563
1881,-0.010,-0.563
1882,-0.021,-0.563
1883,-0.032,-0.563
1884,-0.032,-0.578
1885,-0.021,-0.578
1886,0.001,-0.578
1887,0.001,-0.578
1888,0.001,-0.578
1889,0.001,-0.578
1890,-0.021,-0.578
1891,-0.032,-0.578
1892,-0.043,-0.593
1893,-0.043,-0.593
1894,-0.021,-0.593
1895,-0.010,-0.593
1896,-0.010,-0.593
1897,-0.010,-0.593
1898,-0.021,-0.593
1899,-0.032,-0.593
1900,-0.043,-0.607
1901,-0.043,-0.607
1902,-0.021,-0.607
1903,-0.010,-0.607
1904,0.001,-0.593
1905,0.001,-0.593
1906,-0.010,-0.593
1907,-0.021,-0.593
1908,-0.043,-0.607
1909,-0.032,-0.607
1910,-0.032,-0.607
1911,-0.021,-0.607
1912,-0.021,-0.593
1913,-0.021,-0.593
1914,-0.032,-0.593
1915,-0.043,-0.593
1916,-0.043,-0.607
1917,-0.043,-0.607
1918,0.001,-0.607
1919,0.066,-0.607
1920,0.143,-0.593
1921,0.186,-0.593
1922,0.262,-0.593
1923,0.328,-0.593
1924,0.382,-0.607
1925,0.426,-0.607
1926,0.491,-0.607
1927,0.557,-0.607
1928,0.622,-0.622
1929,0.644,-0.622
1930,0.633,-0.622
1931,0.622,-0.622
1932,0.579,-0.607
1933,0.546,-0.607
1934,0.502,-0.607
1935,0.480,-0.607
1936,0.448,-0.622
1937,0.382,-0.622
1938,0.295,-0.622
1939,0.208,-0.622
1940,0.143,-0.622
1941,0.066,-0.622
1942,0.022,-0.622
1943,0.001,-0.622
1944,-0.021,-0.607
1945,-0.021,-0.607
1946,-0.021,-0.607
1947,-0.021,-0.607
1948,-0.032,-0.637
1949,-0.043,-0.637
1950,-0.032,-0.637
1951,-0.021,-0.637
1952,0.001,-0.622
1953,0.011,-0.622
1954,0.022,-0.622
1955,0.022,-0.622
1956,0.011,-0.637
1957,0.001,-0.637
1958,0.001,-0.637
1959,-0.010,-0.637
1960,0.001,-0.637
1961,0.011,-0.637
1962,0.022,-0.637
1963,0.022,-0.637
1964,0.022,-0.607
1965,0.011,-0.607
1966,0.001,-0.607
1967,0.001,-0.607
1968,0.001,-0.622
1969,0.011,-0.622
1970,0.022,-0.622
1971,0.033,-0.622
1972,0.022,-0.622
1973,0.011,-0.622
1974,0.001,-0.622
1975,0.001,-0.622
1976,0.001,-0.607
1977,0.001,-0.607
1978,0.022,-0.607
1979,0.022,-0.607
1980,0.022,-0.622
1981,0.022,-0.622
1982,0.001,-0.622
1983,0.001,-0.622
1984,0.001,-0.607
1985,0.001,-0.607
1986,0.022,-0.607
1987,0.022,-0.607
1988,0.033,-0.622
1989,0.022,-0.622
1990,0.022,-0.622
1991,0.001,-0.622
1992,0.001,-0.622
1993,0.001,-0.622
1994,0.022,-0.622
1995,0.033,-0.622
1996,0.044,-0.607
1997,0.033,-0.607
1998,0.022,-0.607
1999,0.022,-0.607
2000,0.011,-0.637
2001,0.011,-0.637
2002,0.022,-0.637
2003,0.044,-0.637
2004,0.044,-0.622
2005,0.044,-0.622
2006,0.033,-0.622
2007,0.022,-0.622
2008,0.022,-0.637
2009,0.022,-0.637
2010,0.022,-0.637
2011,0.044,-0.637
2012,0.066,-0.622
2013,0.066,-0.622
2014,0.055,-0.622
2015,0.044,-0.622
2016,0.033,-0.637
2017,0.033,-0.637
2018,0.033,-0.637
2019,0.055,-0.637
2020,0.066,-0.622
2021,0.066,-0.622
2022,0.066,-0.622
2023,0.066,-0.622
2024,0.055,-0.622
2025,0.044,-0.622
2026,0.044,-0.622
2027,0.066,-0.622
2028,0.077,-0.607
2029,0.088,-0.607
2030,0.088,-0.607
2031,0.088,-0.607
2032,0.066,-0.607
2033,0.066,-0.607
2034,0.066,-0.607
2035,0.077,-0.607
2036,0.088,-0.622
2037,0.121,-0.622
2038,0.110,-0.622
2039,0.110,-0.622
2040,0.088,-0.593
2041,0.088,-0.593
2042,0.088,-0.593
2043,0.099,-0.593
2044,0.121,-0.607
2045,0.132,-0.607
2046,0.143,-0.607
2047,0.143,-0.607
2048,0.132,-0.578
2049,0.121,-0.578
2050,0.121,-0.578
2051,0.121,-0.578
2052,0.143,-0.563
2053,0.143,-0.563
2054,0.164,-0.563
2055,0.164,-0.563
2056,0.164,-0.548
2057,0.154,-0.548
2058,0.143,-0.548
2059,0.143,-0.548
2060,0.164,-0.518
2061,0.175,-0.518
2062,0.197,-0.518
2063,0.197,-0.518
2064,0.197,-0.503
2065,0.186,-0.503
2066,0.186,-0.503
2067,0.175,-0.503
2068,0.186,-0.445
2069,0.208,-0.445
2070,0.219,-0.445
2071,0.230,-0.445
2072,0.230,-0.400
2073,0.219,-0.400
2074,0.208,-0.400
2075,0.197,-0.400
2076,0.208,-0.341
2077,0.219,-0.341
2078,0.241,-0.341
2079,0.251,-0.341
2080,0.251,-0.267
2081,0.241,-0.267
2082,0.219,-0.267
2083,0.208,-0.267
2084,0.208,-0.177
2085,0.230,-0.177
2086,0.241,-0.177
2087,0.251,-0.177
2088,0.251,-0.089
2089,0.241,-0.089
2090,0.219,-0.089
2091,0.208,-0.089
2092,0.208,0.015
2093,0.197,0.015
2094,0.219,0.015
2095,0.230,0.015
2096,0.219,0.118
2097,0.208,0.118
2098,0.197,0.118
2099,0.175,0.118
2100,0.164,0.193
2101,0.164,0.193
2102,0.164,0.193
2103,0.164,0.193
2104,0.175,0.281
2105,0.164,0.281
2106,0.143,0.281
2107,0.121,0.281
2108,0.121,0.370
2109,0.099,0.370
2110,0.099,0.370
2111,0.121,0.370
2112,0.121,0.429
2113,0.121,0.429
2114,0.099,0.429
2115,0.088,0.429
2116,0.066,0.503
2117,0.044,0.503
2118,0.044,0.503
2119,0.066,0.503
2120,0.066,0.563
2121,0.066,0.563
2122,0.055,0.563
2123,0.044,0.563
2124,0.022,0.608
2125,0.011,0.608
2126,0.011,0.608
2127,0.022,0.608
2128,0.044,0.637
2129,0.044,0.637
2130,0.033,0.637
2131,0.022,0.637
2132,0.011,0.652
2133,0.001,0.652
2134,0.001,0.652
2135,0.001,0.652
2136,0.011,0.681
2137,0.022,0.681
2138,0.022,0.681
2139,0.011,0.681
2140,0.001,0.681
2141,-0.010,0.681
2142,-0.021,0.681
2143,-0.010,0.681
2144,0.001,0.697
2145,0.001,0.697
2146,0.011,0.697
2147,0.001,0.697
2148,0.001,0.697
2149,-0.010,0.697
2150,-0.021,0.697
2151,-0.021,0.697
2152,-0.010,0.697
2153,0.001,0.697
2154,0.001,0.697
2155,0.001,0.697
2156,0.001,0.666
2157,-0.021,0.666
2158,-0.032,0.666
2159,-0.021,0.666
2160,-0.021,0.637
2161,-0.010,0.637
2162,0.001,0.637
2163,0.001,0.637
2164,0.001,0.622
2165,-0.021,0.622
2166,-0.021,0.622
2167,-0.032,0.622
2168,-0.032,0.593
2169,-0.021,0.593
2170,0.001,0.593
2171,0.001,0.593
2172,0.001,0.548
2173,-0.021,0.548
2174,-0.032,0.548
2175,-0.043,0.548
2176,-0.043,0.503
2177,-0.021,0.503
2178,-0.010,0.503
2179,0.001,0.503
2180,0.001,0.460
2181,-0.010,0.460
2182,-0.032,0.460
2183,-0.043,0.460
2184,-0.043,0.385
2185,-0.032,0.385
2186,-0.021,0.385
2187,-0.010,0.385
2188,-0.010,0.326
2189,-0.010,0.326
2190,-0.021,0.326
2191,-0.043,0.326
2192,-0.043,0.281
2193,-0.043,0.281
2194,-0.021,0.281
2195,-0.010,0.281
2196,-0.010,0.223
2197,-0.021,0.223
2198,-0.021,0.223
2199,-0.043,0.223
2200,-0.043,0.163
2201,-0.043,0.163
2202,-0.032,0.163
2203,-0.021,0.163
2204,0.001,0.104
2205,-0.010,0.104
2206,-0.021,0.104
2207,-0.043,0.104
2208,-0.043,0.059
2209,-0.043,0.059
2210,-0.043,0.059
2211,-0.021,0.059
2212,-0.010,0.000
2213,0.001,0.000
2214,-0.021,0.000
2215,-0.032,0.000
2216,-0.043,-0.015
2217,-0.043,-0.015
2218,-0.043,-0.015
2219,-0.021,-0.015
2220,-0.010,-0.044
2221,0.001,-0.044
2222,-0.010,-0.044
2223,-0.021,-0.044
2224,-0.032,-0.059
2225,-0.043,-0.059
2226,-0.043,-0.059
2227,-0.021,-0.059
2228,-0.010,-0.074
2229,-0.010,-0.074
2230,-0.010,-0.074
2231,-0.021,-0.074
2232,-0.032,-0.059
2233,-0.043,-0.059
2234,-0.043,-0.059
2235,-0.043,-0.059
2236,-0.021,-0.089
2237,-0.010,-0.089
2238,-0.010,-0.089
2239,-0.021,-0.089
2240,-0.021,-0.074
2241,-0.043,-0.074
2242,-0.043,-0.074
2243,-0.043,-0.074
2244,-0.021,-0.074
2245,-0.010,-0.074
2246,-0.010,-0.074
2247,-0.010,-0.074
2248,-0.021,-0.089
2249,-0.043,-0.089
2250,-0.043,-0.089
2251,-0.032,-0.089
2252,-0.032,-0.103
2253,-0.021,-0.103
2254,-0.010,-0.103
2255,-0.010,-0.103
2256,-0.021,-0.133
2257,-0.043,-0.133
2258,-0.043,-0.133
2259,-0.043,-0.133
2260,-0.032,-0.148
2261,-0.021,-0.148
2262,-0.010,-0.148
2263,-0.010,-0.148
2264,-0.021,-0.193
2265,-0.032,-0.193
2266,-0.043,-0.193
2267,-0.043,-0.193
2268,-0.043,-0.222
2269,-0.021,-0.222
2270,-0.021,-0.222
2271,-0.021,-0.222
2272,-0.021,-0.237
2273,-0.032,-0.237
2274,-0.043,-0.237
2275,-0.043,-0.237
2276,-0.043,-0.281
2277,-0.032,-0.281
2278,-0.021,-0.281
2279,-0.010,-0.281
2280,-0.021,-0.281
2281,-0.021,-0.281
2282,-0.032,-0.281
2283,-0.065,-0.281
2284,-0.043,-0.311
2285,-0.043,-0.311
2286,-0.021,-0.311
2287,-0.010,-0.311
2288,-0.010,-0.326
2289,-0.021,-0.326
2290,-0.032,-0.326
2291,-0.043,-0.326
2292,-0.065,-0.355
2293,-0.043,-0.355
2294,-0.032,-0.355
2295,-0.021,-0.355
2296,-0.010,-0.355
2297,-0.021,-0.355
2298,-0.032,-0.355
2299,-0.043,-0.355
2300,-0.043,-0.385
2301,-0.043,-0.385
2302,-0.043,-0.385
2303,-0.010,-0.385
2304,-0.010,-0.400
2305,-0.021,-0.400
2306,-0.032,-0.400
2307,-0.043,-0.400
2308,-0.043,-0.400
2309,-0.043,-0.400
2310,-0.043,-0.400
2311,-0.021,-0.400
2312,-0.021,-0.429
2313,-0.021,-0.429
2314,-0.021,-0.429
2315,-0.043,-0.429
2316,-0.043,-0.429
2317,-0.054,-0.429
2318,-0.043,-0.429
2319,-0.021,-0.429
2320,-0.021,-0.474
2321,-0.010,-0.474
2322,-0.021,-0.474
2323,-0.032,-0.474
2324,-0.043,-0.489
2325,-0.043,-0.489
2326,-0.043,-0.489
2327,-0.032,-0.489
2328,-0.021,-0.489
2329,-0.021,-0.489
2330,-0.021,-0.489
2331,-0.021,-0.489
2332,-0.043,-0.503
2333,-0.043,-0.503
2334,-0.054,-0.503
2335,-0.043,-0.503
2336,-0.021,-0.489
2337,0.001,-0.489
2338,0.001,-0.489
2339,0.001,-0.489
2340,-0.010,-0.518
2341,-0.021,-0.518
2342,-0.021,-0.518
2343,-0.010,-0.518
2344,0.001,-0.533
2345,0.011,-0.533
2346,0.022,-0.533
2347,0.011,-0.533
2348,0.001,-0.518
2349,0.001,-0.518
2350,0.001,-0.518
2351,0.001,-0.518
2352,0.001,-0.533
2353,0.022,-0.533
2354,0.022,-0.533
2355,0.022,-0.533
2356,0.011,-0.533
2357,0.001,-0.533
2358,-0.021,-0.533
2359,-0.021,-0.533
2360,-0.021,-0.548
2361,0.001,-0.548
2362,0.001,-0.548
2363,0.001,-0.548
2364,-0.010,-0.548
2365,-0.032,-0.548
2366,-0.043,-0.548
2367,-0.054,-0.548
2368,-0.043,-0.563
2369,-0.032,-0.563
2370,-0.021,-0.563
2371,-0.021,-0.563
2372,-0.032,-0.563
2373,-0.043,-0.563
2374,-0.054,-0.563
2375,-0.065,-0.563
2376,-0.065,-0.578
2377,-0.054,-0.578
2378,-0.043,-0.578
2379,-0.021,-0.578
2380,-0.032,-0.578
2381,-0.043,-0.578
2382,-0.043,-0.578
2383,-0.054,-0.578
2384,-0.054,-0.593
2385,-0.043,-0.593
2386,-0.032,-0.593
2387,-0.032,-0.593
2388,-0.032,-0.593
2389,-0.043,-0.593
2390,-0.065,-0.593
2391,-0.076,-0.593
2392,-0.086,-0.593
2393,-0.065,-0.593
2394,-0.054,-0.593
2395,-0.043,-0.593
2396,-0.043,-0.593
2397,-0.043,-0.593
2398,-0.054,-0.593
2399,-0.065,-0.593
2400,-0.076,-0.578
2401,-0.065,-0.578
2402,-0.043,-0.578
2403,-0.032,-0.578
2404,-0.032,-0.593
2405,-0.043,-0.593
2406,-0.054,-0.593
2407,-0.065,-0.593
2408,-0.086,-0.608
2409,-0.086,-0.608
2410,-0.086,-0.608
2411,-0.076,-0.608
2412,-0.065,-0.593
2413,-0.043,-0.593
2414,-0.021,-0.593
2415,0.001,-0.593
2416,0.033,-0.593
2417,0.088,-0.593
2418,0.154,-0.593
2419,0.241,-0.593
2420,0.338,-0.593
2421,0.404,-0.593
2422,0.469,-0.593
2423,0.502,-0.593
2424,0.546,-0.578
2425,0.579,-0.578
2426,0.600,-0.578
2427,0.600,-0.578
2428,0.600,-0.593
2429,0.589,-0.593
2430,0.546,-0.593
2431,0.502,-0.593
2432,0.448,-0.593
2433,0.371,-0.593
2434,0.295,-0.593
2435,0.219,-0.593
2436,0.164,-0.578
2437,0.110,-0.578
2438,0.055,-0.578
2439,0.011,-0.578
2440,-0.021,-0.578
2441,-0.065,-0.578
2442,-0.086,-0.578
2443,-0.086,-0.578
2444,-0.065,-0.578
2445,-0.043,-0.578
2446,-0.032,-0.578
2447,-0.021,-0.578
2448,-0.032,-0.563
2449,-0.043,-0.563
2450,-0.043,-0.563
2451,-0.032,-0.563
2452,-0.021,-0.578
2453,0.001,-0.578
2454,0.001,-0.578
2455,0.001,-0.578
2456,-0.010,-0.593
2457,-0.021,-0.593
2458,-0.032,-0.593
2459,-0.021,-0.593
2460,-0.021,-0.578
2461,-0.010,-0.578
2462,0.001,-0.578
2463,0.001,-0.578
2464,0.001,-0.593
2465,-0.021,-0.593
2466,-0.021,-0.593
2467,-0.021,-0.593
2468,-0.021,-0.578
2469,-0.010,-0.578
2470,0.001,-0.578
2471,0.001,-0.578
2472,0.001,-0.608
2473,-0.010,-0.608
2474,-0.021,-0.608
2475,-0.032,-0.608
2476,-0.021,-0.593
2477,-0.021,-0.593
2478,0.001,-0.593
2479,0.001,-0.593
2480,0.001,-0.608
2481,0.001,-0.608
2482,-0.021,-0.608
2483,-0.021,-0.608
2484,-0.021,-0.608
2485,-0.010,-0.608
2486,0.001,-0.608
2487,0.011,-0.608
2488,0.011,-0.593
2489,0.001,-0.593
2490,0.001,-0.593
2491,-0.021,-0.593
2492,-0.010,-0.608
2493,0.001,-0.608
2494,0.001,-0.608
2495,0.011,-0.608
2496,0.022,-0.622
2497,0.011,-0.622
2498,0.001,-0.622
2499,0.001,-0.622
2500,-0.010,-0.608
2501,0.001,-0.608
2502,0.001,-0.608
2503,0.022,-0.608
2504,0.033,-0.608
2505,0.022,-0.608
2506,0.011,-0.608
2507,0.011,-0.608
2508,0.001,-0.593
2509,0.001,-0.593
2510,0.022,-0.593
2511,0.022,-0.593
2512,0.044,-0.593
2513,0.044,-0.593
2514,0.033,-0.593
2515,0.022,-0.593
2516,0.022,-0.593
2517,0.022,-0.593
2518,0.022,-0.593
2519,0.044,-0.593
2520,0.055,-0.608
2521,0.055,-0.608
2522,0.055,-0.608
2523,0.044,-0.608
2524,0.033,-0.578
2525,0.022,-0.578
2526,0.044,-0.578
2527,0.055,-0.578
2528,0.066,-0.593
2529,0.077,-0.593
2530,0.077,-0.593
2531,0.066,-0.593
2532,0.055,-0.563
2533,0.044,-0.563
2534,0.055,-0.563
2535,0.066,-0.563
2536,0.088,-0.563
2537,0.088,-0.563
2538,0.099,-0.563
2539,0.088,-0.563
2540,0.088,-0.563
2541,0.077,-0.563
2542,0.077,-0.563
2543,0.088,-0.563
2544,0.099,-0.548
2545,0.121,-0.548
2546,0.132,-0.548
2547,0.132,-0.548
2548,0.121,-0.533
2549,0.110,-0.533
2550,0.110,-0.533
2551,0.121,-0.533
2552,0.132,-0.503
2553,0.143,-0.503
2554,0.154,-0.503
2555,0.164,-0.503
2556,0.154,-0.474
2557,0.143,-0.474
2558,0.143,-0.474
2559,0.143,-0.474
2560,0.154,-0.460
2561,0.175,-0.460
2562,0.186,-0.460
2563,0.186,-0.460
2564,0.186,-0.385
2565,0.175,-0.385
2566,0.164,-0.385
2567,0.164,-0.385
2568,0.175,-0.355
2569,0.197,-0.355
2570,0.208,-0.355
2571,0.208,-0.355
2572,0.208,-0.281
2573,0.208,-0.281
2574,0.186,-0.281
2575,0.186,-0.281
2576,0.197,-0.207
2577,0.208,-0.207
2578,0.219,-0.207
2579,0.230,-0.207
2580,0.230,-0.134
2581,0.208,-0.134
2582,0.197,-0.134
2583,0.197,-0.134
2584,0.186,-0.044
2585,0.208,-0.044
2586,0.208,-0.044
2587,0.219,-0.044
2588,0.219,0.059
2589,0.208,0.059
2590,0.186,0.059
2591,0.175,0.059
2592,0.164,0.163
2593,0.175,0.163
2594,0.186,0.163
2595,0.186,0.163
2596,0.186,0.252
2597,0.164,0.252
2598,0.154,0.252
2599,0.143,0.252
2600,0.121,0.341
2601,0.121,0.341
2602,0.121,0.341
2603,0.132,0.341
2604,0.121,0.414
2605,0.110,0.414
2606,0.099,0.414
2607,0.077,0.414
2608,0.055,0.474
2609,0.055,0.474
2610,0.055,0.474
2611,0.066,0.474
2612,0.066,0.533
2613,0.066,0.533
2614,0.044,0.533
2615,0.022,0.533
2616,0.011,0.578
2617,0.001,0.578
2618,0.001,0.578
2619,0.022,0.578
2620,0.022,0.622
2621,0.022,0.622
2622,0.011,0.622
2623,0.001,0.622
2624,-0.010,0.651
2625,-0.021,0.651
2626,-0.021,0.651
2627,-0.010,0.651
2628,0.001,0.681
2629,0.001,0.681
2630,0.001,0.681
2631,-0.010,0.681
2632,-0.021,0.711
2633,-0.043,0.711
2634,-0.043,0.711
2635,-0.032,0.711
2636,-0.010,0.741
2637,-0.021,0.741
2638,-0.010,0.741
2639,-0.021,0.741
2640,-0.032,0.741
2641,-0.043,0.741
2642,-0.054,0.741
2643,-0.043,0.741
2644,-0.021,0.741
2645,-0.021,0.741
2646,-0.021,0.741
2647,-0.021,0.741
2648,-0.043,0.741
2649,-0.054,0.741
2650,-0.065,0.741
2651,-0.065,0.741
2652,-0.043,0.726
2653,-0.032,0.726
2654,-0.021,0.726
2655,-0.021,0.726
2656,-0.043,0.711
2657,-0.054,0.711
2658,-0.065,0.711
2659,-0.065,0.711
2660,-0.054,0.681
2661,-0.043,0.681
2662,-0.032,0.681
2663,-0.021,0.681
2664,-0.043,0.651
2665,-0.054,0.651
2666,-0.065,0.651
2667,-0.076,0.651
2668,-0.054,0.607
2669,-0.043,0.607
2670,-0.043,0.607
2671,-0.032,0.607
2672,-0.043,0.563
2673,-0.054,0.563
2674,-0.065,0.563
2675,-0.076,0.563
2676,-0.065,0.518
2677,-0.054,0.518
2678,-0.043,0.518
2679,-0.043,0.518
2680,-0.043,0.474
2681,-0.054,0.474
2682,-0.065,0.474
2683,-0.076,0.474
2684,-0.086,0.400
2685,-0.065,0.400
2686,-0.054,0.400
2687,-0.043,0.400
2688,-0.043,0.326
2689,-0.054,0.326
2690,-0.076,0.326
2691,-0.086,0.326
2692,-0.086,0.281
2693,-0.065,0.281
2694,-0.065,0.281
2695,-0.043,0.281
2696,-0.043,0.207
2697,-0.043,0.207
2698,-0.065,0.207
2699,-0.076,0.207
2700,-0.076,0.148
2701,-0.076,0.148
2702,-0.065,0.148
2703,-0.054,0.148
2704,-0.054,0.089
2705,-0.065,0.089
2706,-0.065,0.089
2707,-0.076,0.089
2708,-0.086,0.044
2709,-0.086,0.044
2710,-0.076,0.044
2711,-0.054,0.044
2712,-0.043,0.029
2713,-0.043,0.029
2714,-0.065,0.029
2715,-0.076,0.029
2716,-0.086,0.000
2717,-0.086,0.000
2718,-0.076,0.000
2719,-0.065,0.000
2720,-0.054,-0.015
2721,-0.043,-0.015
2722,-0.065,-0.015
2723,-0.065,-0.015
2724,-0.086,-0.029
2725,-0.086,-0.029
2726,-0.086,-0.029
2727,-0.065,-0.029
2728,-0.065,-0.044
2729,-0.043,-0.044
2730,-0.054,-0.044
2731,-0.065,-0.044
2732,-0.076,-0.029
2733,-0.086,-0.029
2734,-0.086,-0.029
2735,-0.076,-0.029
2736,-0.065,-0.044
2737,-0.054,-0.044
2738,-0.054,-0.044
2739,-0.065,-0.044
2740,-0.076,-0.044
2741,-0.086,-0.044
2742,-0.086,-0.044
2743,-0.076,-0.044
2744,-0.065,-0.059
2745,-0.054,-0.059
2746,-0.054,-0.059
2747,-0.065,-0.059
2748,-0.076,-0.074
2749,-0.086,-0.074
2750,-0.086,-0.074
2751,-0.086,-0.074
2752,-0.076,-0.089
2753,-0.054,-0.089
2754,-0.054,-0.089
2755,-0.065,-0.089
2756,-0.065,-0.118
2757,-0.086,-0.118
2758,-0.086,-0.118
2759,-0.086,-0.118
2760,-0.076,-0.118
2761,-0.065,-0.118
2762,-0.065,-0.118
2763,-0.054,-0.118
2764,-0.065,-0.148
2765,-0.086,-0.148
2766,-0.086,-0.148
2767,-0.086,-0.148
2768,-0.086,-0.178
2769,-0.065,-0.178
2770,-0.054,-0.178
2771,-0.054,-0.178
2772,-0.065,-0.193
2773,-0.065,-0.193
2774,-0.086,-0.193
2775,-0.086,-0.193
2776,-0.086,-0.223
2777,-0.076,-0.223
2778,-0.065,-0.223
2779,-0.065,-0.223
2780,-0.065,-0.237
2781,-0.076,-0.237
2782,-0.086,-0.237
2783,-0.086,-0.237
2784,-0.086,-0.267
2785,-0.086,-0.267
2786,-0.065,-0.267
2787,-0.054,-0.267
2788,-0.054,-0.267
2789,-0.065,-0.267
2790,-0.086,-0.267
2791,-0.086,-0.267
2792,-0.086,-0.296
2793,-0.086,-0.296
2794,-0.076,-0.296
2795,-0.065,-0.296
2796,-0.054,-0.326
2797,-0.065,-0.326
2798,-0.076,-0.326
2799,-0.086,-0.326
2800,-0.097,-0.341
2801,-0.086,-0.341
2802,-0.065,-0.341
2803,-0.065,-0.341
2804,-0.054,-0.341
2805,-0.054,-0.341
2806,-0.065,-0.341
2807,-0.086,-0.341
2808,-0.086,-0.355
2809,-0.086,-0.355
2810,-0.086,-0.355
2811,-0.065,-0.355
2812,-0.065,-0.370
2813,-0.065,-0.370
2814,-0.065,-0.370
2815,-0.086,-0.370
2816,-0.086,-0.370
2817,-0.086,-0.370
2818,-0.086,-0.370
2819,-0.076,-0.370
2820,-0.065,-0.400
2821,-0.054,-0.400
2822,-0.076,-0.400
2823,-0.086,-0.400
2824,-0.086,-0.415
2825,-0.086,-0.415
2826,-0.086,-0.415
2827,-0.076,-0.415
2828,-0.065,-0.415
2829,-0.054,-0.415
2830,-0.065,-0.415
2831,-0.076,-0.415
2832,-0.086,-0.444
2833,-0.086,-0.444
2834,-0.086,-0.444
2835,-0.086,-0.444
2836,-0.065,-0.459
2837,-0.043,-0.459
2838,-0.054,-0.459
2839,-0.054,-0.459
2840,-0.065,-0.459
2841,-0.065,-0.459
2842,-0.065,-0.459
2843,-0.054,-0.459
2844,-0.032,-0.474
2845,-0.021,-0.474
2846,-0.021,-0.474
2847,-0.021,-0.474
2848,-0.032,-0.488
2849,-0.043,-0.488
2850,-0.054,-0.488
2851,-0.043,-0.488
2852,-0.021,-0.474
2853,-0.021,-0.474
2854,-0.010,-0.474
2855,-0.021,-0.474
2856,-0.032,-0.488
2857,-0.043,-0.488
2858,-0.065,-0.488
2859,-0.065,-0.488
2860,-0.065,-0.503
2861,-0.054,-0.503
2862,-0.043,-0.503
2863,-0.043,-0.503
2864,-0.065,-0.533
2865,-0.076,-0.533
2866,-0.097,-0.533
2867,-0.086,-0.533
2868,-0.086,-0.518
2869,-0.076,-0.518
2870,-0.065,-0.518
2871,-0.076,-0.518
2872,-0.086,-0.533
2873,-0.086,-0.533
2874,-0.108,-0.533
2875,-0.119,-0.533
2876,-0.119,-0.533
2877,-0.097,-0.533
2878,-0.086,-0.533
2879,-0.076,-0.533
2880,-0.076,-0.562
2881,-0.086,-0.562
2882,-0.097,-0.562
2883,-0.097,-0.562
2884,-0.097,-0.562
2885,-0.086,-0.562
2886,-0.076,-0.562
2887,-0.065,-0.562
2888,-0.076,-0.578
2889,-0.086,-0.578
2890,-0.108,-0.578
2891,-0.119,-0.578
2892,-0.119,-0.562
2893,-0.119,-0.562
2894,-0.097,-0.562
2895,-0.086,-0.562
2896,-0.086,-0.578
2897,-0.086,-0.578
2898,-0.097,-0.578
2899,-0.119,-0.578
2900,-0.119,-0.578
2901,-0.108,-0.578
2902,-0.097,-0.578
2903,-0.086,-0.578
2904,-0.076,-0.578
2905,-0.086,-0.578
2906,-0.097,-0.578
2907,-0.119,-0.578
2908,-0.141,-0.578
2909,-0.141,-0.578
2910,-0.130,-0.578
2911,-0.119,-0.578
2912,-0.097,-0.562
2913,-0.086,-0.562
2914,-0.076,-0.562
2915,-0.021,-0.562
2916,0.001,-0.562
2917,0.066,-0.562
2918,0.143,-0.562
2919,0.230,-0.562
2920,0.328,-0.562
2921,0.404,-0.562
2922,0.459,-0.562
2923,0.502,-0.562
2924,0.546,-0.578
2925,0.589,-0.578
2926,0.600,-0.578
2927,0.611,-0.578
2928,0.600,-0.578
2929,0.568,-0.578
2930,0.535,-0.578
2931,0.480,-0.578
2932,0.415,-0.562
2933,0.328,-0.562
2934,0.251,-0.562
2935,0.164,-0.562
2936,0.110,-0.562
2937,0.055,-0.562
2938,0.001,-0.562
2939,-0.043,-0.562
2940,-0.086,-0.562
2941,-0.130,-0.562
2942,-0.130,-0.562
2943,-0.119,-0.562
2944,-0.097,-0.578
2945,-0.086,-0.578
2946,-0.065,-0.578
2947,-0.065,-0.578
2948,-0.076,-0.562
2949,-0.076,-0.562
2950,-0.086,-0.562
2951,-0.076,-0.562
2952,-0.065,-0.578
2953,-0.043,-0.578
2954,-0.032,-0.578
2955,-0.043,-0.578
2956,-0.043,-0.593
2957,-0.065,-0.593
2958,-0.065,-0.593
2959,-0.065,-0.593
2960,-0.054,-0.593
2961,-0.043,-0.593
2962,-0.021,-0.593
2963,-0.021,-0.593
2964,-0.043,-0.607
2965,-0.054,-0.607
2966,-0.065,-0.607
2967,-0.065,-0.607
2968,-0.043,-0.622
2969,-0.032,-0.622
2970,-0.021,-0.622
2971,-0.032,-0.622
2972,-0.032,-0.636
2973,-0.043,-0.636
2974,-0.065,-0.636
2975,-0.065,-0.636
2976,-0.054,-0.651
2977,-0.043,-0.651
2978,-0.021,-0.651
2979,-0.021,-0.651
2980,-0.032,-0.651
2981,-0.043,-0.651
2982,-0.054,-0.651
2983,-0.065,-0.651
2984,-0.054,-0.681
2985,-0.043,-0.681
2986,-0.021,-0.681
2987,-0.021,-0.681
2988,-0.021,-0.666
2989,-0.032,-0.666
2990,-0.043,-0.666
2991,-0.043,-0.666
2992,-0.043,-0.681
2993,-0.043,-0.681
2994,-0.021,-0.681
2995,-0.010,-0.681
2996,0.001,-0.666
2997,-0.021,-0.666
2998,-0.021,-0.666
2999,-0.043,-0.666
3000,-0.043,-0.666
3001,-0.021,-0.666
3002,-0.021,-0.666
3003,0.001,-0.666
3004,0.001,-0.651
3005,0.001,-0.651
3006,0.001,-0.651
3007,-0.021,-0.651
3008,-0.021,-0.636
3009,-0.021,-0.636
3010,0.001,-0.636
3011,0.001,-0.636
3012,0.011,-0.607
3013,0.011,-0.607
3014,0.001,-0.607
3015,0.001,-0.607
3016,-0.021,-0.593
3017,-0.010,-0.593
3018,0.001,-0.593
3019,0.011,-0.593
3020,0.022,-0.562
3021,0.022,-0.562
3022,0.022,-0.562
3023,0.011,-0.562
3024,0.001,-0.562
3025,0.001,-0.562
3026,0.001,-0.562
3027,0.022,-0.562
3028,0.044,-0.548
3029,0.044,-0.548
3030,0.044,-0.548
3031,0.022,-0.548
3032,0.022,-0.533
3033,0.011,-0.533
3034,0.022,-0.533
3035,0.033,-0.533
3036,0.055,-0.518
3037,0.066,-0.518
3038,0.066,-0.518
3039,0.066,-0.518
3040,0.044,-0.518
3041,0.044,-0.518
3042,0.044,-0.518
3043,0.055,-0.518
3044,0.077,-0.488
3045,0.088,-0.488
3046,0.088,-0.488
3047,0.088,-0.488
3048,0.088,-0.488
3049,0.077,-0.488
3050,0.066,-0.488
3051,0.088,-0.488
3052,0.099,-0.474
3053,0.121,-0.474
3054,0.132,-0.474
3055,0.132,-0.474
3056,0.121,-0.459
3057,0.121,-0.459
3058,0.110,-0.459
3059,0.121,-0.459
3060,0.143,-0.414
3061,0.154,-0.414
3062,0.164,-0.414
3063,0.164,-0.414
3064,0.164,-0.370
3065,0.154,-0.370
3066,0.143,-0.370
3067,0.143,-0.370
3068,0.164,-0.311
3069,0.175,-0.311
3070,0.186,-0.311
3071,0.186,-0.311
3072,0.186,-0.252
3073,0.175,-0.252
3074,0.164,-0.252
3075,0.164,-0.252
3076,0.175,-0.193
3077,0.186,-0.193
3078,0.208,-0.193
3079,0.208,-0.193
3080,0.197,-0.088
3081,0.186,-0.088
3082,0.175,-0.088
3083,0.164,-0.088
3084,0.164,0.000
3085,0.175,0.000
3086,0.186,0.000
3087,0.208,0.000
3088,0.197,0.089
3089,0.186,0.089
3090,0.164,0.089
3091,0.154,0.089
3092,0.143,0.178
3093,0.154,0.178
3094,0.164,0.178
3095,0.164,0.178
3096,0.164,0.252
3097,0.143,0.252
3098,0.121,0.252
3099,0.110,0.252
3100,0.099,0.326
3101,0.099,0.326
3102,0.110,0.326
3103,0.110,0.326
3104,0.099,0.370
3105,0.088,0.370
3106,0.066,0.370
3107,0.055,0.370
3108,0.044,0.445
3109,0.033,0.445
3110,0.044,0.445
3111,0.044,0.445
3112,0.044,0.474
3113,0.044,0.474
3114,0.022,0.474
3115,0.011,0.474
3116,0.001,0.518
3117,0.001,0.518
3118,0.001,0.518
3119,0.001,0.518
3120,0.011,0.548
3121,0.001,0.548
3122,0.001,0.548
3123,-0.021,0.548
3124,-0.032,0.593
3125,-0.043,0.593
3126,-0.043,0.593
3127,-0.021,0.593
3128,-0.021,0.608
3129,-0.021,0.608
3130,-0.021,0.608
3131,-0.043,0.608
3132,-0.065,0.608
3133,-0.065,0.608
3134,-0.054,0.608
3135,-0.043,0.608
3136,-0.032,0.637
3137,-0.032,0.637
3138,-0.043,0.637
3139,-0.043,0.637
3140,-0.065,0.652
3141,-0.065,0.652
3142,-0.065,0.652
3143,-0.065,0.652
3144,-0.043,0.637
3145,-0.043,0.637
3146,-0.043,0.637
3147,-0.043,0.637
3148,-0.054,0.623
3149,-0.076,0.623
3150,-0.086,0.623
3151,-0.065,0.623
3152,-0.054,0.608
3153,-0.043,0.608
3154,-0.043,0.608
3155,-0.054,0.608
3156,-0.065,0.593
3157,-0.076,0.593
3158,-0.086,0.593
3159,-0.086,0.593
3160,-0.065,0.578
3161,-0.054,0.578
3162,-0.043,0.578
3163,-0.054,0.578
3164,-0.065,0.518
3165,-0.086,0.518
3166,-0.086,0.518
3167,-0.086,0.518
3168,-0.076,0.504
3169,-0.065,0.504
3170,-0.054,0.504
3171,-0.054,0.504
3172,-0.065,0.445
3173,-0.076,0.445
3174,-0.086,0.445
3175,-0.086,0.445
3176,-0.086,0.400
3177,-0.065,0.400
3178,-0.065,0.400
3179,-0.065,0.400
3180,-0.065,0.326
3181,-0.086,0.326
3182,-0.097,0.326
3183,-0.108,0.326
3184,-0.097,0.281
3185,-0.086,0.281
3186,-0.076,0.281
3187,-0.065,0.281
3188,-0.076,0.223
3189,-0.086,0.223
3190,-0.097,0.223
3191,-0.097,0.223
3192,-0.108,0.163
3193,-0.086,0.163
3194,-0.086,0.163
3195,-0.065,0.163
3196,-0.065,0.104
3197,-0.076,0.104
3198,-0.086,0.104
3199,-0.097,0.104
3200,-0.108,0.044
3201,-0.086,0.044
3202,-0.086,0.044
3203,-0.065,0.044
3204,-0.065,-0.015
3205,-0.065,-0.015
3206,-0.086,-0.015
3207,-0.086,-0.015
3208,-0.097,-0.044
3209,-0.097,-0.044
3210,-0.086,-0.044
3211,-0.065,-0.044
3212,-0.065,-0.074
3213,-0.076,-0.074
3214,-0.086,-0.074
3215,-0.086,-0.074
3216,-0.097,-0.103
3217,-0.097,-0.103
3218,-0.086,-0.103
3219,-0.065,-0.103
3220,-0.065,-0.118
3221,-0.065,-0.118
3222,-0.065,-0.118
3223,-0.086,-0.118
3224,-0.097,-0.133
3225,-0.097,-0.133
3226,-0.097,-0.133
3227,-0.086,-0.133
3228,-0.065,-0.163
3229,-0.065,-0.163
3230,-0.065,-0.163
3231,-0.086,-0.163
3232,-0.097,-0.163
3233,-0.097,-0.163
3234,-0.086,-0.163
3235,-0.086,-0.163
3236,-0.065,-0.163
3237,-0.065,-0.163
3238,-0.065,-0.163
3239,-0.076,-0.163
3240,-0.086,-0.177
3241,-0.097,-0.177
3242,-0.097,-0.177
3243,-0.086,-0.177
3244,-0.076,-0.193
3245,-0.065,-0.193
3246,-0.065,-0.193
3247,-0.076,-0.193
3248,-0.086,-0.222
3249,-0.097,-0.222
3250,-0.097,-0.222
3251,-0.086,-0.222
3252,-0.076,-0.237
3253,-0.065,-0.237
3254,-0.065,-0.237
3255,-0.065,-0.237
3256,-0.086,-0.267
3257,-0.086,-0.267
3258,-0.108,-0.267
3259,-0.086,-0.267
3260,-0.086,-0.281
3261,-0.065,-0.281
3262,-0.054,-0.281
3263,-0.065,-0.281
3264,-0.065,-0.326
3265,-0.086,-0.326
3266,-0.097,-0.326
3267,-0.086,-0.326
3268,-0.086,-0.355
3269,-0.065,-0.355
3270,-0.065,-0.355
3271,-0.054,-0.355
3272,-0.065,-0.370
3273,-0.086,-0.370
3274,-0.086,-0.370
3275,-0.097,-0.370
3276,-0.086,-0.400
3277,-0.076,-0.400
3278,-0.054,-0.400
3279,-0.065,-0.400
3280,-0.065,-0.444
3281,-0.076,-0.444
3282,-0.086,-0.444
3283,-0.086,-0.444
3284,-0.086,-0.459
3285,-0.076,-0.459
3286,-0.054,-0.459
3287,-0.054,-0.459
3288,-0.065,-0.474
3289,-0.065,-0.474
3290,-0.086,-0.474
3291,-0.086,-0.474
3292,-0.086,-0.503
3293,-0.086,-0.503
3294,-0.065,-0.503
3295,-0.043,-0.503
3296,-0.054,-0.518
3297,-0.065,-0.518
3298,-0.076,-0.518
3299,-0.086,-0.518
3300,-0.086,-0.533
3301,-0.086,-0.533
3302,-0.065,-0.533
3303,-0.054,-0.533
3304,-0.043,-0.578
3305,-0.054,-0.578
3306,-0.065,-0.578
3307,-0.086,-0.578
3308,-0.086,-0.578
3309,-0.086,-0.578
3310,-0.065,-0.578
3311,-0.054,-0.578
3312,-0.054,-0.593
3313,-0.054,-0.593
3314,-0.065,-0.593
3315,-0.086,-0.593
3316,-0.086,-0.622
3317,-0.086,-0.622
3318,-0.076,-0.622
3319,-0.065,-0.622
3320,-0.054,-0.622
3321,-0.054,-0.622
3322,-0.065,-0.622
3323,-0.086,-0.622
3324,-0.086,-0.636
3325,-0.097,-0.636
3326,-0.086,-0.636
3327,-0.076,-0.636
3328,-0.065,-0.636
3329,-0.065,-0.636
3330,-0.065,-0.636
3331,-0.086,-0.636
3332,-0.086,-0.651
3333,-0.086,-0.651
3334,-0.086,-0.651
3335,-0.076,-0.651
3336,-0.065,-0.666
3337,-0.054,-0.666
3338,-0.054,-0.666
3339,-0.076,-0.666
3340,-0.086,-0.651
3341,-0.086,-0.651
3342,-0.086,-0.651
3343,-0.076,-0.651
3344,-0.065,-0.666
3345,-0.043,-0.666
3346,-0.054,-0.666
3347,-0.065,-0.666
3348,-0.076,-0.651
3349,-0.086,-0.651
3350,-0.086,-0.651
3351,-0.086,-0.651
3352,-0.065,-0.681
3353,-0.054,-0.681
3354,-0.065,-0.681
3355,-0.065,-0.681
3356,-0.065,-0.666
3357,-0.076,-0.666
3358,-0.076,-0.666
3359,-0.065,-0.666
3360,-0.043,-0.696
3361,-0.021,-0.696
3362,-0.021,-0.696
3363,-0.021,-0.696
3364,-0.021,-0.696
3365,-0.043,-0.696
3366,-0.043,-0.696
3367,-0.043,-0.696
3368,-0.021,-0.696
3369,-0.010,-0.696
3370,0.001,-0.696
3371,0.001,-0.696
3372,0.001,-0.711
3373,-0.021,-0.711
3374,-0.032,-0.711
3375,-0.043,-0.711
3376,-0.032,-0.711
3377,-0.021,-0.711
3378,-0.021,-0.711
3379,-0.021,-0.711
3380,-0.032,-0.726
3381,-0.043,-0.726
3382,-0.065,-0.726
3383,-0.065,-0.726
3384,-0.065,-0.726
3385,-0.054,-0.726
3386,-0.054,-0.726
3387,-0.043,-0.726
3388,-0.054,-0.741
3389,-0.065,-0.741
3390,-0.086,-0.741
3391,-0.086,-0.741
3392,-0.086,-0.741
3393,-0.076,-0.741
3394,-0.065,-0.741
3395,-0.065,-0.741
3396,-0.065,-0.741
3397,-0.076,-0.741
3398,-0.086,-0.741
3399,-0.097,-0.741
3400,-0.086,-0.755
3401,-0.086,-0.755
3402,-0.065,-0.755
3403,-0.054,-0.755
3404,-0.054,-0.755
3405,-0.054,-0.755
3406,-0.076,-0.755
3407,-0.086,-0.755
3408,-0.097,-0.755
3409,-0.086,-0.755
3410,-0.086,-0.755
3411,-0.076,-0.755
3412,-0.065,-0.770
3413,-0.065,-0.770
3414,-0.086,-0.770
3415,-0.086,-0.770
3416,-0.108,-0.755
3417,-0.097,-0.755
3418,-0.086,-0.755
3419,-0.076,-0.755
3420,-0.065,-0.755
3421,-0.065,-0.755
3422,-0.065,-0.755
3423,-0.086,-0.755
3424,-0.086,-0.770
3425,-0.097,-0.770
3426,-0.086,-0.770
3427,-0.086,-0.770
3428,-0.086,-0.755
3429,-0.086,-0.755
3430,-0.097,-0.755
3431,-0.108,-0.755
3432,-0.119,-0.755
3433,-0.086,-0.755
3434,-0.043,-0.755
3435,0.022,-0.755
3436,0.088,-0.755
3437,0.154,-0.755
3438,0.219,-0.755
3439,0.295,-0.755
3440,0.360,-0.770
3441,0.404,-0.770
3442,0.459,-0.770
3443,0.524,-0.770
3444,0.589,-0.770
3445,0.611,-0.770
3446,0.600,-0.770
3447,0.589,-0.770
3448,0.546,-0.770
3449,0.502,-0.770
3450,0.459,-0.770
3451,0.426,-0.770
3452,0.382,-0.755
3453,0.317,-0.755
3454,0.241,-0.755
3455,0.154,-0.755
3456,0.066,-0.770
3457,0.011,-0.770
3458,-0.032,-0.770
3459,-0.065,-0.770
3460,-0.076,-0.770
3461,-0.076,-0.770
3462,-0.086,-0.770
3463,-0.086,-0.770
3464,-0.086,-0.785
3465,-0.086,-0.785
3466,-0.086,-0.785
3467,-0.065,-0.785
3468,-0.054,-0.785
3469,-0.032,-0.785
3470,-0.021,-0.785
3471,-0.021,-0.785
3472,-0.032,-0.785
3473,-0.043,-0.785
3474,-0.054,-0.785
3475,-0.043,-0.785
3476,-0.043,-0.770
3477,-0.021,-0.770
3478,-0.021,-0.770
3479,-0.021,-0.770
3480,-0.021,-0.785
3481,-0.043,-0.785
3482,-0.054,-0.785
3483,-0.065,-0.785
3484,-0.054,-0.770
3485,-0.043,-0.770
3486,-0.021,-0.770
3487,-0.021,-0.770
3488,-0.021,-0.785
3489,-0.043,-0.785
3490,-0.043,-0.785
3491,-0.065,-0.785
3492,-0.054,-0.770
3493,-0.043,-0.770
3494,-0.021,-0.770
3495,-0.021,-0.770
3496,-0.021,-0.785
3497,-0.021,-0.785
3498,-0.043,-0.785
3499,-0.043,-0.785
3500,-0.043,-0.770
3501,-0.043,-0.770
3502,-0.021,-0.770
3503,-0.010,-0.770
3504,0.001,-0.785
3505,-0.010,-0.785
3506,-0.021,-0.785
3507,-0.043,-0.785
3508,-0.032,-0.785
3509,-0.032,-0.785
3510,-0.021,-0.785
3511,0.001,-0.785
3512,0.001,-0.785
3513,0.001,-0.785
3514,-0.010,-0.785
3515,-0.021,-0.785
3516,-0.032,-0.770
3517,-0.021,-0.770
3518,-0.010,-0.770
3519,0.001,-0.770
3520,0.011,-0.785
3521,0.011,-0.785
3522,0.001,-0.785
3523,0.001,-0.785
3524,-0.021,-0.770
3525,-0.021,-0.770
3526,0.001,-0.770
3527,0.001,-0.770
3528,0.022,-0.785
3529,0.022,-0.785
3530,0.022,-0.785
3531,0.001,-0.785
3532,0.001,-0.770
3533,0.001,-0.770
3534,0.001,-0.770
3535,0.011,-0.770
3536,0.022,-0.755
3537,0.044,-0.755
3538,0.033,-0.755
3539,0.022,-0.755
3540,0.022,-0.755
3541,0.001,-0.755
3542,0.022,-0.755
3543,0.022,-0.755
3544,0.044,-0.755
3545,0.055,-0.755
3546,0.055,-0.755
3547,0.044,-0.755
3548,0.044,-0.726
3549,0.033,-0.726
3550,0.033,-0.726
3551,0.044,-0.726
3552,0.066,-0.726
3553,0.077,-0.726
3554,0.077,-0.726
3555,0.077,-0.726
3556,0.066,-0.726
3557,0.066,-0.726
3558,0.055,-0.726
3559,0.066,-0.726
3560,0.088,-0.681
3561,0.099,-0.681
3562,0.099,-0.681
3563,0.099,-0.681
3564,0.088,-0.681
3565,0.088,-0.681
3566,0.077,-0.681
3567,0.088,-0.681
3568,0.110,-0.651
3569,0.121,-0.651
3570,0.143,-0.651
3571,0.143,-0.651
3572,0.132,-0.636
3573,0.121,-0.636
3574,0.121,-0.636
3575,0.121,-0.636
3576,0.143,-0.593
3577,0.154,-0.593
3578,0.164,-0.593
3579,0.164,-0.593
3580,0.164,-0.578
3581,0.154,-0.578
3582,0.143,-0.578
3583,0.143,-0.578
3584,0.154,-0.518
3585,0.175,-0.518
3586,0.186,-0.518
3587,0.197,-0.518
3588,0.197,-0.474
3589,0.186,-0.474
3590,0.186,-0.474
3591,0.164,-0.474
3592,0.175,-0.429
3593,0.197,-0.429
3594,0.219,-0.429
3595,0.230,-0.429
3596,0.219,-0.341
3597,0.208,-0.341
3598,0.208,-0.341
3599,0.197,-0.341
3600,0.186,-0.252
3601,0.208,-0.252
3602,0.208,-0.252
3603,0.230,-0.252
3604,0.219,-0.177
3605,0.208,-0.177
3606,0.197,-0.177
3607,0.186,-0.177
3608,0.186,-0.103
3609,0.186,-0.103
3610,0.186,-0.103
3611,0.197,-0.103
3612,0.208,-0.015
3613,0.197,-0.015
3614,0.186,-0.015
3615,0.164,-0.015
3616,0.143,0.089
3617,0.143,0.089
3618,0.143,0.089
3619,0.164,0.089
3620,0.164,0.163
3621,0.143,0.163
3622,0.132,0.163
3623,0.121,0.163
3624,0.088,0.267
3625,0.088,0.267
3626,0.088,0.267
3627,0.088,0.267
3628,0.099,0.326
3629,0.088,0.326
3630,0.088,0.326
3631,0.066,0.326
3632,0.044,0.386
3633,0.033,0.386
3634,0.033,0.386
3635,0.044,0.386
3636,0.044,0.445
3637,0.055,0.445
3638,0.044,0.445
3639,0.022,0.445
3640,0.011,0.474
3641,0.001,0.474
3642,0.001,0.474
3643,0.011,0.474
3644,0.022,0.504
3645,0.022,0.504
3646,0.022,0.504
3647,0.001,0.504
3648,0.001,0.533
3649,-0.021,0.533
3650,-0.021,0.533
3651,-0.010,0.533
3652,0.001,0.563
3653,0.001,0.563
3654,0.001,0.563
3655,0.001,0.563
3656,-0.010,0.578
3657,-0.021,0.578
3658,-0.032,0.578
3659,-0.021,0.578
3660,-0.010,0.593
3661,0.001,0.593
3662,0.001,0.593
3663,0.001,0.593
3664,-0.021,0.608
3665,-0.032,0.608
3666,-0.043,0.608
3667,-0.043,0.608
3668,-0.021,0.608
3669,-0.010,0.608
3670,0.001,0.608
3671,-0.010,0.608
3672,-0.021,0.608
3673,-0.043,0.608
3674,-0.043,0.608
3675,-0.043,0.608
3676,-0.043,0.578
3677,-0.021,0.578
3678,-0.021,0.578
3679,-0.010,0.578
3680,-0.021,0.548
3681,-0.032,0.548
3682,-0.043,0.548
3683,-0.054,0.548
3684,-0.043,0.518
3685,-0.032,0.518
3686,-0.021,0.518
3687,-0.021,0.518
3688,-0.021,0.489
3689,-0.032,0.489
3690,-0.054,0.489
3691,-0.054,0.489
3692,-0.054,0.430
3693,-0.043,0.430
3694,-0.021,0.430
3695,-0.021,0.430
3696,-0.021,0.386
3697,-0.032,0.386
3698,-0.043,0.386
3699,-0.065,0.386
3700,-0.065,0.326
3701,-0.043,0.326
3702,-0.032,0.326
3703,-0.021,0.326
3704,-0.021,0.252
3705,-0.032,0.252
3706,-0.043,0.252
3707,-0.065,0.252
3708,-0.065,0.178
3709,-0.054,0.178
3710,-0.043,0.178
3711,-0.021,0.178
3712,-0.021,0.134
3713,-0.032,0.134
3714,-0.043,0.134
3715,-0.054,0.134
3716,-0.065,0.059
3717,-0.065,0.059
3718,-0.043,0.059
3719,-0.021,0.059
3720,-0.021,0.000
3721,-0.021,0.000
3722,-0.043,0.000
3723,-0.043,0.000
3724,-0.065,-0.029
3725,-0.065,-0.029
3726,-0.043,-0.029
3727,-0.032,-0.029
3728,-0.021,-0.074
3729,-0.021,-0.074
3730,-0.032,-0.074
3731,-0.043,-0.074
3732,-0.054,-0.133
3733,-0.065,-0.133
3734,-0.054,-0.133
3735,-0.043,-0.133
3736,-0.021,-0.148
3737,-0.021,-0.148
3738,-0.021,-0.148
3739,-0.043,-0.148
3740,-0.054,-0.163
3741,-0.065,-0.163
3742,-0.065,-0.163
3743,-0.043,-0.163
3744,-0.032,-0.177
3745,-0.021,-0.177
3746,-0.021,-0.177
3747,-0.043,-0.177
3748,-0.054,-0.177
3749,-0.065,-0.177
3750,-0.054,-0.177
3751,-0.043,-0.177
3752,-0.032,-0.193
3753,-0.021,-0.193
3754,-0.021,-0.193
3755,-0.021,-0.193
3756,-0.043,-0.193
3757,-0.054,-0.193
3758,-0.054,-0.193
3759,-0.043,-0.193
3760,-0.032,-0.193
3761,-0.021,-0.193
3762,-0.021,-0.193
3763,-0.021,-0.193
3764,-0.032,-0.207
3765,-0.043,-0.207
3766,-0.054,-0.207
3767,-0.054,-0.207
3768,-0.043,-0.222
3769,-0.021,-0.222
3770,-0.021,-0.222
3771,-0.021,-0.222
3772,-0.032,-0.222
3773,-0.043,-0.222
3774,-0.054,-0.222
3775,-0.054,-0.222
3776,-0.043,-0.252
3777,-0.021,-0.252
3778,-0.021,-0.252
3779,-0.021,-0.252
3780,-0.021,-0.267
3781,-0.043,-0.267
3782,-0.043,-0.267
3783,-0.054,-0.267
3784,-0.043,-0.296
3785,-0.032,-0.296
3786,-0.021,-0.296
3787,-0.021,-0.296
3788,-0.021,-0.311
3789,-0.043,-0.311
3790,-0.043,-0.311
3791,-0.054,-0.311
3792,-0.043,-0.341
3793,-0.032,-0.341
3794,-0.021,-0.341
3795,-0.021,-0.341
3796,-0.021,-0.355
3797,-0.032,-0.355
3798,-0.043,-0.355
3799,-0.054,-0.355
3800,-0.054,-0.385
3801,-0.043,-0.385
3802,-0.021,-0.385
3803,-0.021,-0.385
3804,-0.021,-0.400
3805,-0.032,-0.400
3806,-0.043,-0.400
3807,-0.043,-0.400
3808,-0.054,-0.414
3809,-0.043,-0.414
3810,-0.032,-0.414
3811,-0.021,-0.414
3812,-0.021,-0.429
3813,-0.021,-0.429
3814,-0.032,-0.429
3815,-0.043,-0.429
3816,-0.054,-0.474
3817,-0.043,-0.474
3818,-0.043,-0.474
3819,-0.021,-0.474
3820,-0.021,-0.474
3821,-0.021,-0.474
3822,-0.021,-0.474
3823,-0.043,-0.474
3824,-0.054,-0.488
3825,-0.043,-0.488
3826,-0.043,-0.488
3827,-0.021,-0.488
3828,-0.021,-0.518
3829,-0.021,-0.518
3830,-0.021,-0.518
3831,-0.043,-0.518
3832,-0.043,-0.533
3833,-0.054,-0.533
3834,-0.043,-0.533
3835,-0.021,-0.533
3836,-0.021,-0.533
3837,-0.010,-0.533
3838,-0.021,-0.533
3839,-0.021,-0.533
3840,-0.043,-0.562
3841,-0.043,-0.562
3842,-0.043,-0.562
3843,-0.032,-0.562
3844,-0.021,-0.548
3845,-0.010,-0.548
3846,-0.010,-0.548
3847,-0.021,-0.548
3848,-0.043,-0.578
3849,-0.043,-0.578
3850,-0.043,-0.578
3851,-0.032,-0.578
3852,-0.021,-0.562
3853,-0.010,-0.562
3854,-0.010,-0.562
3855,-0.021,-0.562
3856,-0.032,-0.563
3857,-0.043,-0.563
3858,-0.043,-0.563
3859,-0.043,-0.563
3860,-0.021,-0.578
3861,-0.021,-0.578
3862,-0.010,-0.578
3863,-0.021,-0.578
3864,-0.021,-0.563
3865,-0.043,-0.563
3866,-0.043,-0.563
3867,-0.043,-0.563
3868,-0.032,-0.593
3869,-0.010,-0.593
3870,0.001,-0.593
3871,-0.010,-0.593
3872,-0.021,-0.593
3873,-0.032,-0.593
3874,-0.043,-0.593
3875,-0.043,-0.593
3876,-0.032,-0.593
3877,-0.021,-0.593
3878,-0.010,-0.593
3879,-0.010,-0.593
3880,-0.021,-0.622
3881,-0.021,-0.622
3882,-0.032,-0.622
3883,-0.021,-0.622
3884,-0.010,-0.622
3885,0.001,-0.622
3886,0.022,-0.622
3887,0.022,-0.622
3888,0.022,-0.637
3889,0.011,-0.637
3890,0.001,-0.637
3891,0.001,-0.637
3892,0.001,-0.637
3893,0.022,-0.637
3894,0.033,-0.637
3895,0.044,-0.637
3896,0.044,-0.652
3897,0.022,-0.652
3898,0.022,-0.652
3899,0.001,-0.652
3900,0.001,-0.652
3901,0.001,-0.652
3902,0.022,-0.652
3903,0.022,-0.652
3904,0.022,-0.637
3905,0.011,-0.637
3906,0.001,-0.637
3907,-0.010,-0.637
3908,-0.021,-0.652
3909,-0.021,-0.652
3910,-0.010,-0.652
3911,0.001,-0.652
3912,0.001,-0.666
3913,-0.010,-0.666
3914,-0.021,-0.666
3915,-0.043,-0.666
3916,-0.043,-0.652
3917,-0.043,-0.652
3918,-0.021,-0.652
3919,-0.021,-0.652
3920,-0.021,-0.652
3921,-0.021,-0.652
3922,-0.021,-0.652
3923,-0.043,-0.652
3924,-0.043,-0.637
3925,-0.043,-0.637
3926,-0.021,-0.637
3927,-0.010,-0.637
3928,0.001,-0.652
3929,0.001,-0.652
3930,-0.021,-0.652
3931,-0.032,-0.652
3932,-0.043,-0.637
3933,-0.043,-0.637
3934,-0.043,-0.637
3935,-0.032,-0.637
3936,-0.010,-0.652
3937,-0.010,-0.652
3938,-0.021,-0.652
3939,-0.032,-0.652
3940,-0.043,-0.652
3941,-0.043,-0.652
3942,-0.043,-0.652
3943,-0.021,-0.652
3944,-0.021,-0.666
3945,-0.010,-0.666
3946,-0.010,-0.666
3947,-0.021,-0.666
3948,-0.043,-0.652
3949,-0.043,-0.652
3950,-0.043,-0.652
3951,-0.043,-0.652
3952,-0.043,-0.666
3953,-0.032,-0.666
3954,-0.043,-0.666
3955,-0.043,-0.666
3956,-0.054,-0.652
3957,-0.043,-0.652
3958,-0.021,-0.652
3959,0.044,-0.652
3960,0.110,-0.652
3961,0.175,-0.652
3962,0.241,-0.652
3963,0.306,-0.652
3964,0.382,-0.666
3965,0.426,-0.666
3966,0.480,-0.666
3967,0.546,-0.666
3968,0.622,-0.666
3969,0.644,-0.666
3970,0.655,-0.666
3971,0.644,-0.666
3972,0.611,-0.652
3973,0.568,-0.652
3974,0.524,-0.652
3975,0.502,-0.652
3976,0.459,-0.666
3977,0.404,-0.666
3978,0.317,-0.666
3979,0.241,-0.666
3980,0.154,-0.666
3981,0.088,-0.666
3982,0.022,-0.666
3983,0.001,-0.666
3984,-0.021,-0.681
3985,-0.043,-0.681
3986,-0.032,-0.681
3987,-0.032,-0.681
3988,-0.032,-0.666
3989,-0.032,-0.666
3990,-0.043,-0.666
3991,-0.032,-0.666
3992,-0.021,-0.666
3993,0.001,-0.666
3994,0.011,-0.666
3995,0.022,-0.666
3996,0.022,-0.666
3997,0.001,-0.666
3998,0.001,-0.666
3999,0.001,-0.666
4000,0.001,-0.666
4001,0.001,-0.666
4002,0.022,-0.666
4003,0.022,-0.666
4004,0.033,-0.666
4005,0.022,-0.666
4006,0.011,-0.666
4007,0.001,-0.666
4008,0.001,-0.652
4009,0.001,-0.652
4010,0.022,-0.652
4011,0.022,-0.652
4012,0.033,-0.666
4013,0.022,-0.666
4014,0.011,-0.666
4015,0.001,-0.666
4016,0.001,-0.652
4017,0.001,-0.652
4018,0.022,-0.652
4019,0.022,-0.652
4020,0.033,-0.652
4021,0.033,-0.652
4022,0.022,-0.652
4023,0.001,-0.652
4024,0.001,-0.666
4025,0.001,-0.666
4026,0.011,-0.666
4027,0.022,-0.666
4028,0.033,-0.666
4029,0.033,-0.666
4030,0.033,-0.666
4031,0.022,-0.666
4032,0.011,-0.652
4033,0.011,-0.652
4034,0.022,-0.652
4035,0.033,-0.652
4036,0.044,-0.666
4037,0.044,-0.666
4038,0.044,-0.666
4039,0.033,-0.666
4040,0.022,-0.637
4041,0.022,-0.637
4042,0.022,-0.637
4043,0.033,-0.637
4044,0.055,-0.652
4045,0.055,-0.652
4046,0.055,-0.652
4047,0.044,-0.652
4048,0.033,-0.652
4049,0.022,-0.652
4050,0.033,-0.652
4051,0.044,-0.652
4052,0.066,-0.637
4053,0.066,-0.637
4054,0.066,-0.637
4055,0.066,-0.637
4056,0.044,-0.652
4057,0.044,-0.652
4058,0.044,-0.652
4059,0.055,-0.652
4060,0.066,-0.637
4061,0.088,-0.637
4062,0.088,-0.637
4063,0.088,-0.637
4064,0.077,-0.622
4065,0.066,-0.622
4066,0.055,-0.622
4067,0.066,-0.622
4068,0.088,-0.637
4069,0.099,-0.637
4070,0.110,-0.637
4071,0.110,-0.637
4072,0.099,-0.622
4073,0.088,-0.622
4074,0.077,-0.622
4075,0.088,-0.622
4076,0.099,-0.637
4077,0.121,-0.637
4078,0.132,-0.637
4079,0.132,-0.637
4080,0.121,-0.608
4081,0.110,-0.608
4082,0.110,-0.608
4083,0.110,-0.608
4084,0.121,-0.593
4085,0.132,-0.593
4086,0.143,-0.593
4087,0.154,-0.593
4088,0.154,-0.578
4089,0.143,-0.578
4090,0.132,-0.578
4091,0.121,-0.578
4092,0.143,-0.563
4093,0.164,-0.563
4094,0.175,-0.563
4095,0.186,-0.563
4096,0.186,-0.533
4097,0.175,-0.533
4098,0.164,-0.533
4099,0.164,-0.533
4100,0.164,-0.489
4101,0.186,-0.489
4102,0.208,-0.489
4103,0.219,-0.489
4104,0.219,-0.474
4105,0.208,-0.474
4106,0.208,-0.474
4107,0.186,-0.474
4108,0.197,-0.415
4109,0.208,-0.415
4110,0.230,-0.415
4111,0.241,-0.415
4112,0.251,-0.355
4113,0.251,-0.355
4114,0.241,-0.355
4115,0.219,-0.355
4116,0.230,-0.311
4117,0.219,-0.311
4118,0.241,-0.311
4119,0.262,-0.311
4120,0.273,-0.223
4121,0.262,-0.223
4122,0.251,-0.223
4123,0.241,-0.223
4124,0.241,-0.163
4125,0.241,-0.163
4126,0.262,-0.163
4127,0.262,-0.163
4128,0.273,-0.074
4129,0.262,-0.074
4130,0.262,-0.074
4131,0.241,-0.074
4132,0.230,0.015
4133,0.230,0.015
4134,0.230,0.015
4135,0.241,0.015
4136,0.251,0.103
4137,0.241,0.103
4138,0.230,0.103
4139,0.208,0.103
4140,0.197,0.193
4141,0.186,0.193
4142,0.186,0.193
4143,0.186,0.193
4144,0.197,0.281
4145,0.197,0.281
4146,0.186,0.281
4147,0.164,0.281
4148,0.143,0.355
4149,0.143,0.355
4150,0.132,0.355
4151,0.132,0.355
4152,0.143,0.429
4153,0.143,0.429
4154,0.132,0.429
4155,0.121,0.429
4156,0.099,0.474
4157,0.077,0.474
4158,0.088,0.474
4159,0.088,0.474
4160,0.088,0.533
4161,0.099,0.533
4162,0.088,0.533
4163,0.088,0.533
4164,0.066,0.578
4165,0.044,0.578
4166,0.044,0.578
4167,0.033,0.578
4168,0.055,0.607
4169,0.066,0.607
4170,0.066,0.607
4171,0.055,0.607
4172,0.044,0.651
4173,0.022,0.651
4174,0.022,0.651
4175,0.022,0.651
4176,0.022,0.666
4177,0.044,0.666
4178,0.044,0.666
4179,0.044,0.666
4180,0.022,0.696
4181,0.022,0.696
4182,0.001,0.696
4183,0.001,0.696
4184,0.001,0.696
4185,0.022,0.696
4186,0.033,0.696
4187,0.033,0.696
4188,0.022,0.696
4189,0.011,0.696
4190,0.001,0.696
4191,0.001,0.696
4192,0.001,0.681
4193,0.022,0.681
4194,0.022,0.681
4195,0.022,0.681
4196,0.022,0.666
4197,0.022,0.666
4198,0.001,0.666
4199,0.001,0.666
4200,0.001,0.666
4201,0.001,0.666
4202,0.022,0.666
4203,0.022,0.666
4204,0.022,0.637
4205,0.011,0.637
4206,0.001,0.637
4207,0.001,0.637
4208,0.001,0.607
4209,0.001,0.607
4210,0.011,0.607
4211,0.022,0.607
4212,0.022,0.578
4213,0.011,0.578
4214,0.001,0.578
4215,-0.010,0.578
4216,-0.010,0.533
4217,0.001,0.533
4218,0.001,0.533
4219,0.011,0.533
4220,0.011,0.488
4221,0.011,0.488
4222,0.001,0.488
4223,-0.010,0.488
4224,-0.021,0.414
4225,-0.010,0.414
4226,0.001,0.414
4227,0.001,0.414
4228,0.011,0.385
4229,0.022,0.385
4230,0.001,0.385
4231,-0.010,0.385
4232,-0.021,0.311
4233,-0.021,0.311
4234,-0.010,0.311
4235,0.001,0.311
4236,0.011,0.237
4237,0.011,0.237
4238,0.001,0.237
4239,0.001,0.237
4240,-0.010,0.163
4241,-0.021,0.163
4242,-0.010,0.163
4243,0.001,0.163
4244,0.001,0.133
4245,0.022,0.133
4246,0.001,0.133
4247,0.001,0.133
4248,-0.010,0.074
4249,-0.021,0.074
4250,-0.021,0.074
4251,-0.010,0.074
4252,0.001,0.029
4253,0.011,0.029
4254,0.011,0.029
4255,0.001,0.029
4256,-0.010,-0.015
4257,-0.021,-0.015
4258,-0.010,-0.015
4259,0.001,-0.015
4260,0.001,-0.044
4261,0.011,-0.044
4262,0.001,-0.044
4263,0.001,-0.044
4264,0.001,-0.059
4265,-0.010,-0.059
4266,-0.010,-0.059
4267,0.001,-0.059
4268,0.001,-0.074
4269,0.011,-0.074
4270,0.011,-0.074
4271,0.011,-0.074
4272,0.001,-0.089
4273,0.001,-0.089
4274,-0.021,-0.089
4275,0.001,-0.089
4276,0.001,-0.089
4277,0.011,-0.089
4278,0.022,-0.089
4279,0.011,-0.089
4280,0.001,-0.104
4281,0.001,-0.104
4282,-0.010,-0.104
4283,-0.010,-0.104
4284,0.001,-0.104
4285,0.001,-0.104
4286,0.022,-0.104
4287,0.022,-0.104
4288,0.011,-0.118
4289,0.001,-0.118
4290,-0.010,-0.118
4291,-0.010,-0.118
4292,-0.010,-0.134
4293,0.001,-0.134
4294,0.022,-0.134
4295,0.022,-0.134
4296,0.011,-0.134
4297,0.001,-0.134
4298,-0.010,-0.134
4299,-0.021,-0.134
4300,-0.010,-0.163
4301,0.001,-0.163
4302,0.011,-0.163
4303,0.022,-0.163
4304,0.022,-0.163
4305,0.001,-0.163
4306,0.001,-0.163
4307,-0.010,-0.163
4308,-0.010,-0.193
4309,0.001,-0.193
4310,0.001,-0.193
4311,0.022,-0.193
4312,0.022,-0.207
4313,0.011,-0.207
4314,0.001,-0.207
4315,-0.010,-0.207
4316,-0.010,-0.237
4317,-0.010,-0.237
4318,0.001,-0.237
4319,0.011,-0.237
4320,0.022,-0.252
4321,0.022,-0.252
4322,0.001,-0.252
4323,-0.010,-0.252
4324,-0.010,-0.296
4325,0.001,-0.296
4326,0.001,-0.296
4327,0.011,-0.296
4328,0.022,-0.311
4329,0.022,-0.311
4330,0.001,-0.311
4331,-0.010,-0.311
4332,-0.010,-0.326
4333,-0.021,-0.326
4334,0.001,-0.326
4335,0.011,-0.326
4336,0.022,-0.355
4337,0.022,-0.355
4338,0.011,-0.355
4339,0.001,-0.355
4340,0.001,-0.370
4341,-0.010,-0.370
4342,0.001,-0.370
4343,0.001,-0.370
4344,0.022,-0.385
4345,0.022,-0.385
4346,0.011,-0.385
4347,0.001,-0.385
4348,0.001,-0.415
4349,-0.010,-0.415
4350,-0.010,-0.415
4351,0.001,-0.415
4352,0.022,-0.429
4353,0.022,-0.429
4354,0.022,-0.429
4355,0.011,-0.429
4356,0.001,-0.429
4357,-0.010,-0.429
4358,0.001,-0.429
4359,0.001,-0.429
4360,0.011,-0.460
4361,0.022,-0.460
4362,0.022,-0.460
4363,0.022,-0.460
4364,0.001,-0.460
4365,-0.010,-0.460
4366,-0.010,-0.460
4367,0.001,-0.460
4368,0.001,-0.474
4369,0.011,-0.474
4370,0.022,-0.474
4371,0.022,-0.474
4372,0.001,-0.474
4373,0.001,-0.474
4374,-0.010,-0.474
4375,0.001,-0.474
4376,0.001,-0.489
4377,0.022,-0.489
4378,0.022,-0.489
4379,0.022,-0.489
4380,0.011,-0.503
4381,0.001,-0.503
4382,0.001,-0.503
4383,0.001,-0.503
4384,0.001,-0.503
4385,0.011,-0.503
4386,0.022,-0.503
4387,0.022,-0.503
4388,0.022,-0.533
4389,0.001,-0.533
4390,0.001,-0.533
4391,0.001,-0.533
4392,0.001,-0.518
4393,0.011,-0.518
4394,0.022,-0.518
4395,0.022,-0.518
4396,0.022,-0.518
4397,0.011,-0.518
4398,0.001,-0.518
4399,0.001,-0.518
4400,0.001,-0.533
4401,0.001,-0.533
4402,0.022,-0.533
4403,0.022,-0.533
4404,0.033,-0.533
4405,0.022,-0.533
4406,0.022,-0.533
4407,0.011,-0.533
4408,0.022,-0.548
4409,0.033,-0.548
4410,0.044,-0.548
4411,0.066,-0.548
4412,0.066,-0.563
4413,0.066,-0.563
4414,0.055,-0.563
4415,0.044,-0.563
4416,0.033,-0.563
4417,0.044,-0.563
4418,0.066,-0.563
4419,0.077,-0.563
4420,0.077,-0.563
4421,0.066,-0.563
4422,0.055,-0.563
4423,0.044,-0.563
4424,0.033,-0.578
4425,0.022,-0.578
4426,0.033,-0.578
4427,0.044,-0.578
4428,0.044,-0.578
4429,0.044,-0.578
4430,0.033,-0.578
4431,0.011,-0.578
4432,0.001,-0.608
4433,0.001,-0.608
4434,0.001,-0.608
4435,0.022,-0.608
4436,0.022,-0.593
4437,0.022,-0.593
4438,0.011,-0.593
4439,0.001,-0.593
4440,0.001,-0.593
4441,-0.010,-0.593
4442,-0.010,-0.593
4443,0.001,-0.593
4444,0.011,-0.608
4445,0.011,-0.608
4446,0.011,-0.608
4447,0.001,-0.608
4448,0.001,-0.608
4449,-0.010,-0.608
4450,0.001,-0.608
4451,0.001,-0.608
4452,0.022,-0.608
4453,0.022,-0.608
4454,0.022,-0.608
4455,0.001,-0.608
4456,-0.010,-0.608
4457,-0.021,-0.608
4458,-0.021,-0.608
4459,-0.010,-0.608
4460,0.001,-0.622
4461,0.011,-0.622
4462,0.011,-0.622
4463,0.001,-0.622
4464,0.001,-0.608
4465,-0.010,-0.608
4466,-0.021,-0.608
4467,0.001,-0.608
4468,0.001,-0.622
4469,0.011,-0.622
4470,0.022,-0.622
4471,0.011,-0.622
4472,0.001,-0.608
4473,-0.021,-0.608
4474,-0.021,-0.608
4475,-0.021,-0.608
4476,-0.021,-0.622
4477,-0.010,-0.622
4478,0.001,-0.622
4479,0.001,-0.622
4480,0.011,-0.608
4481,0.044,-0.608
4482,0.088,-0.608
4483,0.143,-0.608
4484,0.208,-0.622
4485,0.306,-0.622
4486,0.393,-0.622
4487,0.459,-0.622
4488,0.502,-0.608
4489,0.546,-0.608
4490,0.600,-0.608
4491,0.633,-0.608
4492,0.644,-0.622
4493,0.666,-0.622
4494,0.666,-0.622
4495,0.633,-0.622
4496,0.600,-0.608
4497,0.546,-0.608
4498,0.502,-0.608
4499,0.426,-0.608
4500,0.360,-0.622
4501,0.284,-0.622
4502,0.230,-0.622
4503,0.164,-0.622
4504,0.110,-0.593
4505,0.066,-0.593
4506,0.011,-0.593
4507,-0.021,-0.593
4508,-0.032,-0.608
4509,-0.021,-0.608
4510,0.001,-0.608
4511,0.001,-0.608
4512,0.011,-0.622
4513,0.011,-0.622
4514,0.001,-0.622
4515,0.001,-0.622
4516,0.001,-0.608
4517,0.022,-0.608
4518,0.033,-0.608
4519,0.044,-0.608
4520,0.055,-0.593
4521,0.044,-0.593
4522,0.033,-0.593
4523,0.022,-0.593
4524,0.022,-0.622
4525,0.022,-0.622
4526,0.044,-0.622
4527,0.044,-0.622
4528,0.055,-0.608
4529,0.055,-0.608
4530,0.044,-0.608
4531,0.022,-0.608
4532,0.011,-0.608
4533,0.022,-0.608
4534,0.033,-0.608
4535,0.044,-0.608
4536,0.066,-0.637
4537,0.055,-0.637
4538,0.044,-0.637
4539,0.033,-0.637
4540,0.022,-0.637
4541,0.022,-0.637
4542,0.022,-0.637
4543,0.044,-0.637
4544,0.055,-0.637
4545,0.066,-0.637
4546,0.044,-0.637
4547,0.044,-0.637
4548,0.033,-0.622
4549,0.022,-0.622
4550,0.033,-0.622
4551,0.044,-0.622
4552,0.066,-0.637
4553,0.066,-0.637
4554,0.066,-0.637
4555,0.055,-0.637
4556,0.044,-0.637
4557,0.033,-0.637
4558,0.033,-0.637
4559,0.044,-0.637
4560,0.066,-0.637
4561,0.066,-0.637
4562,0.066,-0.637
4563,0.066,-0.637
4564,0.055,-0.622
4565,0.044,-0.622
4566,0.044,-0.622
4567,0.066,-0.622
4568,0.066,-0.622
4569,0.088,-0.622
4570,0.088,-0.622
4571,0.077,-0.622
4572,0.066,-0.608
4573,0.055,-0.608
4574,0.055,-0.608
4575,0.066,-0.608
4576,0.077,-0.622
4577,0.088,-0.622
4578,0.099,-0.622
4579,0.088,-0.622
4580,0.088,-0.608
4581,0.077,-0.608
4582,0.066,-0.608
4583,0.066,-0.608
4584,0.088,-0.608
4585,0.099,-0.608
4586,0.121,-0.608
4587,0.121,-0.608
4588,0.110,-0.593
4589,0.088,-0.593
4590,0.088,-0.593
4591,0.088,-0.593
4592,0.099,-0.608
4593,0.110,-0.608
4594,0.121,-0.608
4595,0.132,-0.608
4596,0.132,-0.608
4597,0.121,-0.608
4598,0.099,-0.608
4599,0.110,-0.608
4600,0.121,-0.578
4601,0.121,-0.578
4602,0.143,-0.578
4603,0.154,-0.578
4604,0.154,-0.563
4605,0.143,-0.563
4606,0.132,-0.563
4607,0.132,-0.563
4608,0.132,-0.563
4609,0.143,-0.563
4610,0.164,-0.563
4611,0.175,-0.563
4612,0.175,-0.533
4613,0.164,-0.533
4614,0.164,-0.533
4615,0.154,-0.533
4616,0.154,-0.518
4617,0.164,-0.518
4618,0.186,-0.518
4619,0.208,-0.518
4620,0.208,-0.489
4621,0.208,-0.489
4622,0.197,-0.489
4623,0.186,-0.489
4624,0.186,-0.460
4625,0.186,-0.460
4626,0.208,-0.460
4627,0.241,-0.460
4628,0.241,-0.445
4629,0.241,-0.445
4630,0.241,-0.445
4631,0.219,-0.445
4632,0.208,-0.385
4633,0.219,-0.385
4634,0.241,-0.385
4635,0.251,-0.385
4636,0.262,-0.326
4637,0.273,-0.326
4638,0.262,-0.326
4639,0.251,-0.326
4640,0.241,-0.281
4641,0.241,-0.281
4642,0.251,-0.281
4643,0.273,-0.281
4644,0.284,-0.207
4645,0.284,-0.207
4646,0.284,-0.207
4647,0.262,-0.207
4648,0.262,-0.118
4649,0.241,-0.118
4650,0.251,-0.118
4651,0.262,-0.118
4652,0.284,-0.029
4653,0.284,-0.029
4654,0.273,-0.029
4655,0.262,-0.029
4656,0.241,0.059
4657,0.230,0.059
4658,0.230,0.059
4659,0.241,0.059
4660,0.251,0.148
4661,0.251,0.148
4662,0.251,0.148
4663,0.241,0.148
4664,0.208,0.237
4665,0.186,0.237
4666,0.175,0.237
4667,0.186,0.237
4668,0.186,0.326
4669,0.186,0.326
4670,0.186,0.326
4671,0.175,0.326
4672,0.164,0.400
4673,0.143,0.400
4674,0.132,0.400
4675,0.132,0.400
4676,0.132,0.445
4677,0.143,0.445
4678,0.143,0.445
4679,0.132,0.445
4680,0.121,0.518
4681,0.099,0.518
4682,0.077,0.518
4683,0.077,0.518
4684,0.088,0.578
4685,0.088,0.578
4686,0.099,0.578
4687,0.088,0.578
4688,0.077,0.622
4689,0.066,0.622
4690,0.044,0.622
4691,0.044,0.622
4692,0.044,0.651
4693,0.055,0.651
4694,0.066,0.651
4695,0.077,0.651
4696,0.055,0.666
4697,0.044,0.666
4698,0.022,0.666
4699,0.022,0.666
4700,0.022,0.711
4701,0.033,0.711
4702,0.044,0.711
4703,0.055,0.711
4704,0.044,0.711
4705,0.033,0.711
4706,0.022,0.711
4707,0.011,0.711
4708,0.011,0.726
4709,0.022,0.726
4710,0.033,0.726
4711,0.044,0.726
4712,0.044,0.726
4713,0.033,0.726
4714,0.022,0.726
4715,0.001,0.726
4716,0.001,0.711
4717,0.001,0.711
4718,0.022,0.711
4719,0.033,0.711
4720,0.033,0.681
4721,0.033,0.681
4722,0.011,0.681
4723,0.001,0.681
4724,0.001,0.666
4725,0.001,0.666
4726,0.011,0.666
4727,0.022,0.666
4728,0.022,0.637
4729,0.022,0.637
4730,0.011,0.637
4731,0.001,0.637
4732,0.001,0.607
4733,0.001,0.607
4734,0.001,0.607
4735,0.022,0.607
4736,0.022,0.563
4737,0.022,0.563
4738,0.022,0.563
4739,0.001,0.563
4740,-0.010,0.503
4741,-0.010,0.503
4742,0.001,0.503
4743,0.001,0.503
4744,0.022,0.459
4745,0.033,0.459
4746,0.011,0.459
4747,0.001,0.459
4748,-0.010,0.385
4749,-0.010,0.385
4750,-0.010,0.385
4751,0.001,0.385
4752,0.022,0.326
4753,0.022,0.326
4754,0.011,0.326
4755,0.001,0.326
4756,0.001,0.267
4757,-0.010,0.267
4758,-0.010,0.267
4759,0.001,0.267
4760,0.001,0.237
4761,0.022,0.237
4762,0.022,0.237
4763,0.001,0.237
4764,0.001,0.163
4765,-0.021,0.163
4766,-0.010,0.163
4767,0.001,0.163
4768,0.001,0.118
4769,0.022,0.118
4770,0.022,0.118
4771,0.022,0.118
4772,0.001,0.059
4773,-0.010,0.059
4774,-0.010,0.059
4775,0.001,0.059
4776,0.001,0.029
4777,0.011,0.029
4778,0.022,0.029
4779,0.011,0.029
4780,0.001,0.000
4781,0.001,0.000
4782,-0.010,0.000
4783,-0.010,0.000
4784,-0.010,-0.029
4785,0.011,-0.029
4786,0.022,-0.029
4787,0.022,-0.029
4788,0.001,-0.044
4789,0.001,-0.044
4790,-0.010,-0.044
4791,-0.021,-0.044
4792,-0.010,-0.044
4793,0.001,-0.044
4794,0.011,-0.044
4795,0.011,-0.044
4796,0.001,-0.059
4797,0.001,-0.059
4798,-0.021,-0.059
4799,-0.021,-0.059
4800,-0.010,-0.059
4801,0.001,-0.059
4802,0.001,-0.059
4803,0.022,-0.059
4804,0.011,-0.059
4805,0.001,-0.059
4806,0.001,-0.059
4807,-0.010,-0.059
4808,-0.010,-0.074
4809,0.001,-0.074
4810,0.001,-0.074
4811,0.011,-0.074
4812,0.022,-0.104
4813,0.001,-0.104
4814,0.001,-0.104
4815,-0.010,-0.104
4816,0.001,-0.118
4817,0.001,-0.118
4818,0.001,-0.118
4819,0.011,-0.118
4820,0.022,-0.118
4821,0.011,-0.118
4822,0.001,-0.118
4823,-0.010,-0.118
4824,-0.010,-0.148
4825,-0.010,-0.148
4826,0.001,-0.148
4827,0.001,-0.148
4828,0.022,-0.193
4829,0.011,-0.193
4830,0.001,-0.193
4831,-0.010,-0.193
4832,-0.021,-0.207
4833,-0.010,-0.207
4834,-0.010,-0.207
4835,0.001,-0.207
4836,0.011,-0.237
4837,0.011,-0.237
4838,0.001,-0.237
4839,0.001,-0.237
4840,-0.010,-0.252
4841,-0.021,-0.252
4842,-0.010,-0.252
4843,0.001,-0.252
4844,0.011,-0.267
4845,0.011,-0.267
4846,0.001,-0.267
4847,0.001,-0.267
4848,-0.021,-0.281
4849,-0.021,-0.281
4850,-0.010,-0.281
4851,0.001,-0.281
4852,0.011,-0.326
4853,0.022,-0.326
4854,0.001,-0.326
4855,0.001,-0.326
4856,-0.010,-0.341
4857,-0.021,-0.341
4858,-0.021,-0.341
4859,0.001,-0.341
4860,0.001,-0.370
4861,0.011,-0.370
4862,0.011,-0.370
4863,0.001,-0.370
4864,-0.010,-0.370
4865,-0.021,-0.370
4866,-0.021,-0.370
4867,-0.010,-0.370
4868,0.001,-0.400
4869,0.011,-0.400
4870,0.011,-0.400
4871,0.001,-0.400
4872,0.001,-0.400
4873,-0.010,-0.400
4874,-0.021,-0.400
4875,-0.010,-0.400
4876,0.001,-0.429
4877,0.011,-0.429
4878,0.011,-0.429
4879,0.001,-0.429
4880,0.001,-0.429
4881,-0.010,-0.429
4882,-0.021,-0.429
4883,-0.010,-0.429
4884,0.001,-0.460
4885,0.011,-0.460
4886,0.011,-0.460
4887,0.001,-0.460
4888,0.001,-0.460
4889,0.001,-0.460
4890,-0.021,-0.460
4891,-0.021,-0.460
4892,-0.010,-0.460
4893,0.001,-0.460
4894,0.011,-0.460
4895,0.022,-0.460
4896,0.001,-0.489
4897,0.001,-0.489
4898,-0.010,-0.489
4899,-0.021,-0.489
4900,-0.021,-0.489
4901,0.001,-0.489
4902,0.001,-0.489
4903,0.022,-0.489
4904,0.011,-0.503
4905,0.001,-0.503
4906,-0.010,-0.503
4907,-0.021,-0.503
4908,-0.021,-0.503
4909,0.001,-0.503
4910,0.001,-0.503
4911,0.022,-0.503
4912,0.011,-0.518
4913,0.001,-0.518
4914,-0.010,-0.518
4915,-0.021,-0.518
4916,-0.021,-0.518
4917,-0.010,-0.518
4918,0.001,-0.518
4919,0.001,-0.518
4920,0.011,-0.533
4921,0.001,-0.533
4922,0.001,-0.533
4923,-0.021,-0.533
4924,-0.021,-0.533
4925,-0.010,-0.533
4926,0.001,-0.533
4927,0.022,-0.533
4928,0.044,-0.548
4929,0.044,-0.548
4930,0.033,-0.548
4931,0.022,-0.548
4932,0.011,-0.548
4933,0.022,-0.548
4934,0.033,-0.548
4935,0.055,-0.548
4936,0.066,-0.563
4937,0.066,-0.563
4938,0.044,-0.563
4939,0.033,-0.563
4940,0.022,-0.563
4941,0.022,-0.563
4942,0.033,-0.563
4943,0.044,-0.563
4944,0.044,-0.578
4945,0.044,-0.578
4946,0.022,-0.578
4947,0.022,-0.578
4948,0.001,-0.578
4949,0.001,-0.578
4950,0.001,-0.578
4951,0.011,-0.578
4952,0.022,-0.578
4953,0.022,-0.578
4954,0.011,-0.578
4955,0.001,-0.578
4956,-0.010,-0.578
4957,-0.021,-0.578
4958,-0.021,-0.578
4959,-0.021,-0.578
4960,0.001,-0.578
4961,0.001,-0.578
4962,0.001,-0.578
4963,0.001,-0.578
4964,-0.021,-0.593
4965,-0.032,-0.593
4966,-0.032,-0.593
4967,-0.021,-0.593
4968,0.001,-0.578
4969,0.001,-0.578
4970,0.001,-0.578
4971,0.001,-0.578
4972,-0.021,-0.593
4973,-0.032,-0.593
4974,-0.021,-0.593
4975,-0.021,-0.593
4976,-0.021,-0.578
4977,-0.010,-0.578
4978,-0.010,-0.578
4979,-0.021,-0.578
4980,-0.032,-0.593
4981,-0.043,-0.593
4982,-0.043,-0.593
4983,-0.043,-0.593
4984,-0.021,-0.578
4985,-0.010,-0.578
4986,0.001,-0.578
4987,0.001,-0.578
4988,-0.021,-0.593
4989,-0.032,-0.593
4990,-0.043,-0.593
4991,-0.043,-0.593
4992,-0.032,-0.578
4993,-0.021,-0.578
4994,-0.010,-0.578
4995,-0.021,-0.578
4996,-0.043,-0.593
4997,-0.065,-0.593
4998,-0.065,-0.593
4999,-0.065,-0.593
5000,-0.054,-0.578
5001,0.001,-0.578
5002,0.044,-0.578
5003,0.099,-0.578
5004,0.154,-0.593
5005,0.197,-0.593
5006,0.262,-0.593
5007,0.328,-0.593
5008,0.404,-0.593
5009,0.480,-0.593
5010,0.546,-0.593
5011,0.600,-0.593
5012,0.644,-0.608
5013,0.644,-0.608
5014,0.622,-0.608
5015,0.600,-0.608
5016,0.568,-0.608
5017,0.546,-0.608
5018,0.524,-0.608
5019,0.502,-0.608
5020,0.426,-0.593
5021,0.338,-0.593
5022,0.241,-0.593
5023,0.164,-0.593
5024,0.088,-0.622
5025,0.044,-0.622
5026,0.033,-0.622
5027,0.011,-0.622
5028,0.001,-0.608
5029,-0.032,-0.608
5030,-0.043,-0.608
5031,-0.043,-0.608
5032,-0.043,-0.622
5033,-0.032,-0.622
5034,-0.021,-0.622
5035,0.001,-0.622
5036,0.022,-0.608
5037,0.022,-0.608
5038,0.011,-0.608
5039,0.001,-0.608
5040,0.001,-0.622
5041,0.001,-0.622
5042,0.001,-0.622
5043,0.022,-0.622
5044,0.033,-0.608
5045,0.033,-0.608
5046,0.022,-0.608
5047,0.011,-0.608
5048,0.001,-0.622
5049,0.001,-0.622
5050,0.001,-0.622
5051,0.022,-0.622
5052,0.022,-0.608
5053,0.022,-0.608
5054,0.022,-0.608
5055,0.022,-0.608
5056,0.001,-0.622
5057,0.001,-0.622
5058,0.001,-0.622
5059,0.011,-0.622
5060,0.022,-0.608
5061,0.033,-0.608
5062,0.022,-0.608
5063,0.022,-0.608
5064,0.001,-0.622
5065,0.001,-0.622
5066,0.001,-0.622
5067,0.001,-0.622
5068,0.022,-0.608
5069,0.033,-0.608
5070,0.044,-0.608
5071,0.022,-0.608
5072,0.011,-0.622
5073,0.001,-0.622
5074,0.001,-0.622
5075,0.011,-0.622
5076,0.022,-0.622
5077,0.033,-0.622
5078,0.044,-0.622
5079,0.033,-0.622
5080,0.022,-0.608
5081,0.011,-0.608
5082,0.011,-0.608
5083,0.011,-0.608
5084,0.022,-0.622
5085,0.044,-0.622
5086,0.055,-0.622
5087,0.044,-0.622
5088,0.044,-0.608
5089,0.022,-0.608
5090,0.022,-0.608
5091,0.022,-0.608
5092,0.033,-0.622
5093,0.044,-0.622
5094,0.066,-0.622
5095,0.055,-0.622
5096,0.044,-0.593
5097,0.033,-0.593
5098,0.022,-0.593
5099,0.022,-0.593
5100,0.033,-0.593
5101,0.055,-0.593
5102,0.066,-0.593
5103,0.077,-0.593
5104,0.066,-0.593
5105,0.044,-0.593
5106,0.044,-0.593
5107,0.044,-0.593
5108,0.044,-0.593
5109,0.055,-0.593
5110,0.077,-0.593
5111,0.088,-0.593
5112,0.088,-0.578
5113,0.077,-0.578
5114,0.066,-0.578
5115,0.055,-0.578
5116,0.055,-0.578
5117,0.066,-0.578
5118,0.088,-0.578
5119,0.099,-0.578
5120,0.099,-0.563
5121,0.099,-0.563
5122,0.088,-0.563
5123,0.077,-0.563
5124,0.077,-0.578
5125,0.088,-0.578
5126,0.110,-0.578
5127,0.121,-0.578
5128,0.132,-0.548
5129,0.132,-0.548
5130,0.121,-0.548
5131,0.110,-0.548
5132,0.110,-0.548
5133,0.110,-0.548
5134,0.132,-0.548
5135,0.143,-0.548
5136,0.154,-0.533
5137,0.154,-0.533
5138,0.143,-0.533
5139,0.143,-0.533
5140,0.132,-0.518
5141,0.143,-0.518
5142,0.143,-0.518
5143,0.164,-0.518
5144,0.186,-0.489
5145,0.186,-0.489
5146,0.186,-0.489
5147,0.164,-0.489
5148,0.164,-0.460
5149,0.164,-0.460
5150,0.175,-0.460
5151,0.197,-0.460
5152,0.208,-0.400
5153,0.208,-0.400
5154,0.208,-0.400
5155,0.208,-0.400
5156,0.197,-0.341
5157,0.197,-0.341
5158,0.197,-0.341
5159,0.219,-0.341
5160,0.241,-0.281
5161,0.241,-0.281
5162,0.241,-0.281
5163,0.230,-0.281
5164,0.219,-0.193
5165,0.208,-0.193
5166,0.208,-0.193
5167,0.219,-0.193
5168,0.241,-0.104
5169,0.241,-0.104
5170,0.251,-0.104
5171,0.241,-0.104
5172,0.219,-0.015
5173,0.208,-0.015
5174,0.208,-0.015
5175,0.208,-0.015
5176,0.219,0.074
5177,0.241,0.074
5178,0.230,0.074
5179,0.230,0.074
5180,0.208,0.163
5181,0.186,0.163
5182,0.175,0.163
5183,0.175,0.163
5184,0.186,0.252
5185,0.186,0.252
5186,0.186,0.252
5187,0.175,0.252
5188,0.164,0.326
5189,0.143,0.326
5190,0.132,0.326
5191,0.121,0.326
5192,0.121,0.400
5193,0.143,0.400
5194,0.143,0.400
5195,0.121,0.400
5196,0.110,0.474
5197,0.088,0.474
5198,0.077,0.474
5199,0.066,0.474
5200,0.066,0.518
5201,0.066,0.518
5202,0.077,0.518
5203,0.077,0.518
5204,0.055,0.578
5205,0.044,0.578
5206,0.022,0.578
5207,0.022,0.578
5208,0.022,0.607
5209,0.022,0.607
5210,0.044,0.607
5211,0.033,0.607
5212,0.044,0.651
5213,0.022,0.651
5214,0.001,0.651
5215,0.001,0.651
5216,-0.010,0.666
5217,0.001,0.666
5218,0.001,0.666
5219,0.022,0.666
5220,0.022,0.711
5221,0.001,0.711
5222,0.001,0.711
5223,-0.010,0.711
5224,-0.010,0.711
5225,-0.010,0.711
5226,0.001,0.711
5227,0.011,0.711
5228,0.011,0.726
5229,0.001,0.726
5230,0.001,0.726
5231,-0.021,0.726
5232,-0.021,0.726
5233,-0.021,0.726
5234,-0.010,0.726
5235,0.001,0.726
5236,0.001,0.726
5237,0.001,0.726
5238,-0.010,0.726
5239,-0.021,0.726
5240,-0.032,0.696
5241,-0.021,0.696
5242,-0.021,0.696
5243,-0.010,0.696
5244,0.001,0.681
5245,0.001,0.681
5246,-0.010,0.681
5247,-0.021,0.681
5248,-0.043,0.666
5249,-0.043,0.666
5250,-0.032,0.666
5251,-0.010,0.666
5252,0.001,0.637
5253,0.001,0.637
5254,-0.010,0.637
5255,-0.021,0.637
5256,-0.043,0.593
5257,-0.043,0.593
5258,-0.043,0.593
5259,-0.021,0.593
5260,-0.021,0.548
5261,-0.010,0.548
5262,-0.010,0.548
5263,-0.021,0.548
5264,-0.043,0.488
5265,-0.043,0.488
5266,-0.043,0.488
5267,-0.043,0.488
5268,-0.021,0.429
5269,-0.021,0.429
5270,-0.021,0.429
5271,-0.021,0.429
5272,-0.043,0.370
5273,-0.043,0.370
5274,-0.054,0.370
5275,-0.043,0.370
5276,-0.032,0.296
5277,-0.021,0.296
5278,-0.021,0.296
5279,-0.021,0.296
5280,-0.043,0.237
5281,-0.043,0.237
5282,-0.054,0.237
5283,-0.043,0.237
5284,-0.043,0.163
5285,-0.021,0.163
5286,-0.021,0.163
5287,-0.021,0.163
5288,-0.032,0.103
5289,-0.043,0.103
5290,-0.054,0.103
5291,-0.054,0.103
5292,-0.043,0.044
5293,-0.021,0.044
5294,-0.021,0.044
5295,-0.021,0.044
5296,-0.032,0.015
5297,-0.043,0.015
5298,-0.054,0.015
5299,-0.065,0.015
5300,-0.054,0.000
5301,-0.043,0.000
5302,-0.021,0.000
5303,-0.021,0.000
5304,-0.032,-0.044
5305,-0.043,-0.044
5306,-0.054,-0.044
5307,-0.065,-0.044
5308,-0.054,-0.059
5309,-0.043,-0.059
5310,-0.021,-0.059
5311,-0.021,-0.059
5312,-0.021,-0.059
5313,-0.043,-0.059
5314,-0.054,-0.059
5315,-0.065,-0.059
5316,-0.054,-0.074
5317,-0.043,-0.074
5318,-0.032,-0.074
5319,-0.021,-0.074
5320,-0.021,-0.074
5321,-0.032,-0.074
5322,-0.043,-0.074
5323,-0.065,-0.074
5324,-0.065,-0.089
5325,-0.054,-0.089
5326,-0.043,-0.089
5327,-0.021,-0.089
5328,-0.021,-0.089
5329,-0.032,-0.089
5330,-0.043,-0.089
5331,-0.054,-0.089
5332,-0.065,-0.104
5333,-0.065,-0.104
5334,-0.043,-0.104
5335,-0.032,-0.104
5336,-0.021,-0.118
5337,-0.032,-0.118
5338,-0.043,-0.118
5339,-0.054,-0.118
5340,-0.065,-0.148
5341,-0.065,-0.148
5342,-0.054,-0.148
5343,-0.043,-0.148
5344,-0.021,-0.148
5345,-0.032,-0.148
5346,-0.043,-0.148
5347,-0.054,-0.148
5348,-0.065,-0.163
5349,-0.065,-0.163
5350,-0.054,-0.163
5351,-0.043,-0.163
5352,-0.021,-0.207
5353,-0.032,-0.207
5354,-0.032,-0.207
5355,-0.043,-0.207
5356,-0.065,-0.223
5357,-0.065,-0.223
5358,-0.065,-0.223
5359,-0.043,-0.223
5360,-0.032,-0.252
5361,-0.021,-0.252
5362,-0.043,-0.252
5363,-0.043,-0.252
5364,-0.054,-0.267
5365,-0.065,-0.267
5366,-0.065,-0.267
5367,-0.054,-0.267
5368,-0.043,-0.296
5369,-0.032,-0.296
5370,-0.043,-0.296
5371,-0.043,-0.296
5372,-0.065,-0.296
5373,-0.065,-0.296
5374,-0.065,-0.296
5375,-0.065,-0.296
5376,-0.032,-0.326
5377,-0.032,-0.326
5378,-0.021,-0.326
5379,-0.032,-0.326
5380,-0.054,-0.341
5381,-0.054,-0.341
5382,-0.065,-0.341
5383,-0.054,-0.341
5384,-0.043,-0.370
5385,-0.032,-0.370
5386,-0.021,-0.370
5387,-0.032,-0.370
5388,-0.043,-0.385
5389,-0.065,-0.385
5390,-0.065,-0.385
5391,-0.065,-0.385
5392,-0.043,-0.400
5393,-0.032,-0.400
5394,-0.021,-0.400
5395,-0.032,-0.400
5396,-0.043,-0.429
5397,-0.054,-0.429
5398,-0.065,-0.429
5399,-0.065,-0.429
5400,-0.054,-0.445
5401,-0.043,-0.445
5402,-0.032,-0.445
5403,-0.032,-0.445
5404,-0.043,-0.445
5405,-0.043,-0.445
5406,-0.065,-0.445
5407,-0.065,-0.445
5408,-0.065,-0.474
5409,-0.043,-0.474
5410,-0.032,-0.474
5411,-0.032,-0.474
5412,-0.032,-0.489
5413,-0.054,-0.489
5414,-0.065,-0.489
5415,-0.065,-0.489
5416,-0.054,-0.503
5417,-0.043,-0.503
5418,-0.043,-0.503
5419,-0.032,-0.503
5420,-0.043,-0.503
5421,-0.043,-0.503
5422,-0.054,-0.503
5423,-0.065,-0.503
5424,-0.065,-0.518
5425,-0.054,-0.518
5426,-0.032,-0.518
5427,-0.032,-0.518
5428,-0.032,-0.518
5429,-0.043,-0.518
5430,-0.043,-0.518
5431,-0.054,-0.518
5432,-0.065,-0.533
5433,-0.065,-0.533
5434,-0.043,-0.533
5435,-0.032,-0.533
5436,-0.021,-0.533
5437,-0.043,-0.533
5438,-0.043,-0.533
5439,-0.065,-0.533
5440,-0.065,-0.548
5441,-0.065,-0.548
5442,-0.054,-0.548
5443,-0.032,-0.548
5444,-0.021,-0.548
5445,-0.021,-0.548
5446,-0.021,-0.548
5447,-0.021,-0.548
5448,-0.032,-0.578
5449,-0.032,-0.578
5450,-0.021,-0.578
5451,-0.010,-0.578
5452,0.001,-0.563
5453,0.011,-0.563
5454,0.001,-0.563
5455,0.001,-0.563
5456,-0.021,-0.578
5457,-0.021,-0.578
5458,-0.010,-0.578
5459,0.001,-0.578
5460,0.011,-0.578
5461,0.011,-0.578
5462,0.001,-0.578
5463,0.001,-0.578
5464,-0.021,-0.593
5465,-0.032,-0.593
5466,-0.043,-0.593
5467,-0.032,-0.593
5468,-0.021,-0.578
5469,-0.021,-0.578
5470,-0.021,-0.578
5471,-0.021,-0.578
5472,-0.043,-0.608
5473,-0.054,-0.608
5474,-0.065,-0.608
5475,-0.065,-0.608
5476,-0.043,-0.593
5477,-0.043,-0.593
5478,-0.043,-0.593
5479,-0.043,-0.593
5480,-0.065,-0.608
5481,-0.076,-0.608
5482,-0.086,-0.608
5483,-0.076,-0.608
5484,-0.065,-0.593
5485,-0.054,-0.593
5486,-0.043,-0.593
5487,-0.043,-0.593
5488,-0.054,-0.608
5489,-0.065,-0.608
5490,-0.065,-0.608
5491,-0.065,-0.608
5492,-0.054,-0.593
5493,-0.043,-0.593
5494,-0.043,-0.593
5495,-0.043,-0.593
5496,-0.065,-0.608
5497,-0.076,-0.608
5498,-0.086,-0.608
5499,-0.086,-0.608
5500,-0.076,-0.608
5501,-0.065,-0.608
5502,-0.043,-0.608
5503,-0.043,-0.608
5504,-0.065,-0.593
5505,-0.065,-0.593
5506,-0.076,-0.593
5507,-0.086,-0.593
5508,-0.076,-0.608
5509,-0.065,-0.608
5510,-0.043,-0.608
5511,-0.043,-0.608
5512,-0.054,-0.593
5513,-0.076,-0.593
5514,-0.097,-0.593
5515,-0.108,-0.593
5516,-0.108,-0.608
5517,-0.097,-0.608
5518,-0.076,-0.608
5519,-0.054,-0.608
5520,-0.021,-0.593
5521,0.001,-0.593
5522,0.033,-0.593
5523,0.077,-0.593
5524,0.143,-0.608
5525,0.219,-0.608
5526,0.328,-0.608
5527,0.393,-0.608
5528,0.448,-0.608
5529,0.502,-0.608
5530,0.535,-0.608
5531,0.568,-0.608
5532,0.557,-0.622
5533,0.568,-0.622
5534,0.568,-0.622
5535,0.546,-0.622
5536,0.524,-0.608
5537,0.491,-0.608
5538,0.426,-0.608
5539,0.360,-0.608
5540,0.262,-0.637
5541,0.186,-0.637
5542,0.132,-0.637
5543,0.077,-0.637
5544,0.044,-0.622
5545,0.001,-0.622
5546,-0.043,-0.622
5547,-0.076,-0.622
5548,-0.097,-0.622
5549,-0.108,-0.622
5550,-0.086,-0.622
5551,-0.065,-0.622
5552,-0.043,-0.637
5553,-0.043,-0.637
5554,-0.032,-0.637
5555,-0.043,-0.637
5556,-0.054,-0.622
5557,-0.054,-0.622
5558,-0.054,-0.622
5559,-0.021,-0.622
5560,-0.021,-0.637
5561,-0.010,-0.637
5562,-0.021,-0.637
5563,-0.021,-0.637
5564,-0.043,-0.622
5565,-0.043,-0.622
5566,-0.043,-0.622
5567,-0.032,-0.622
5568,-0.021,-0.637
5569,-0.010,-0.637
5570,-0.010,-0.637
5571,-0.021,-0.637
5572,-0.032,-0.637
5573,-0.043,-0.637
5574,-0.043,-0.637
5575,-0.032,-0.637
5576,-0.021,-0.622
5577,-0.010,-0.622
5578,0.001,-0.622
5579,-0.010,-0.622
5580,-0.021,-0.637
5581,-0.043,-0.637
5582,-0.043,-0.637
5583,-0.032,-0.637
5584,-0.021,-0.622
5585,0.001,-0.622
5586,0.001,-0.622
5587,0.001,-0.622
5588,-0.021,-0.637
5589,-0.032,-0.637
5590,-0.032,-0.637
5591,-0.032,-0.637
5592,-0.021,-0.637
5593,0.001,-0.637
5594,0.001,-0.637
5595,0.001,-0.637
5596,0.001,-0.637
5597,-0.021,-0.637
5598,-0.021,-0.637
5599,-0.021,-0.637
5600,-0.021,-0.622
5601,0.001,-0.622
5602,0.001,-0.622
5603,0.001,-0.622
5604,0.001,-0.622
5605,-0.010,-0.622
5606,-0.021,-0.622
5607,-0.021,-0.622
5608,-0.010,-0.622
5609,0.001,-0.622
5610,0.001,-0.622
5611,0.022,-0.622
5612,0.011,-0.622
5613,0.001,-0.622
5614,0.001,-0.622
5615,-0.010,-0.622
5616,0.001,-0.608
5617,0.001,-0.608
5618,0.022,-0.608
5619,0.022,-0.608
5620,0.022,-0.608
5621,0.022,-0.608
5622,0.001,-0.608
5623,0.001,-0.608
5624,0.001,-0.608
5625,0.011,-0.608
5626,0.022,-0.608
5627,0.033,-0.608
5628,0.044,-0.608
5629,0.033,-0.608
5630,0.022,-0.608
5631,0.011,-0.608
5632,0.011,-0.578
5633,0.022,-0.578
5634,0.033,-0.578
5635,0.044,-0.578
5636,0.055,-0.593
5637,0.044,-0.593
5638,0.033,-0.593
5639,0.033,-0.593
5640,0.022,-0.578
5641,0.033,-0.578
5642,0.044,-0.578
5643,0.066,-0.578
5644,0.088,-0.578
5645,0.077,-0.578
5646,0.066,-0.578
5647,0.055,-0.578
5648,0.055,-0.563
5649,0.066,-0.563
5650,0.066,-0.563
5651,0.088,-0.563
5652,0.099,-0.563
5653,0.110,-0.563
5654,0.110,-0.563
5655,0.088,-0.563
5656,0.088,-0.548
5657,0.088,-0.548
5658,0.088,-0.548
5659,0.121,-0.548
5660,0.132,-0.533
5661,0.143,-0.533
5662,0.143,-0.533
5663,0.132,-0.533
5664,0.121,-0.489
5665,0.121,-0.489
5666,0.121,-0.489
5667,0.143,-0.489
5668,0.164,-0.474
5669,0.164,-0.474
5670,0.175,-0.474
5671,0.164,-0.474
5672,0.154,-0.400
5673,0.154,-0.400
5674,0.143,-0.400
5675,0.164,-0.400
5676,0.186,-0.355
5677,0.197,-0.355
5678,0.197,-0.355
5679,0.186,-0.355
5680,0.175,-0.281
5681,0.164,-0.281
5682,0.164,-0.281
5683,0.186,-0.281
5684,0.197,-0.193
5685,0.208,-0.193
5686,0.208,-0.193
5687,0.208,-0.193
5688,0.186,-0.118
5689,0.175,-0.118
5690,0.164,-0.118
5691,0.164,-0.118
5692,0.186,-0.015
5693,0.197,-0.015
5694,0.197,-0.015
5695,0.197,-0.015
5696,0.186,0.074
5697,0.164,0.074
5698,0.143,0.074
5699,0.143,0.074
5700,0.143,0.177
5701,0.164,0.177
5702,0.164,0.177
5703,0.164,0.177
5704,0.154,0.252
5705,0.143,0.252
5706,0.110,0.252
5707,0.099,0.252
5708,0.099,0.355
5709,0.110,0.355
5710,0.110,0.355
5711,0.110,0.355
5712,0.088,0.414
5713,0.077,0.414
5714,0.055,0.414
5715,0.044,0.414
5716,0.044,0.474
5717,0.044,0.474
5718,0.044,0.474
5719,0.055,0.474
5720,0.044,0.533
5721,0.022,0.533
5722,0.001,0.533
5723,0.001,0.533
5724,0.001,0.593
5725,0.001,0.593
5726,0.001,0.593
5727,0.011,0.593
5728,0.011,0.637
5729,0.001,0.637
5730,-0.010,0.637
5731,-0.021,0.637
5732,-0.032,0.666
5733,-0.021,0.666
5734,-0.021,0.666
5735,-0.010,0.666
5736,0.001,0.696
5737,-0.010,0.696
5738,-0.021,0.696
5739,-0.043,0.696
5740,-0.043,0.711
5741,-0.043,0.711
5742,-0.032,0.711
5743,-0.021,0.711
5744,-0.021,0.741
5745,-0.021,0.741
5746,-0.032,0.741
5747,-0.043,0.741
5748,-0.065,0.726
5749,-0.065,0.726
5750,-0.054,0.726
5751,-0.032,0.726
5752,-0.021,0.741
5753,-0.021,0.741
5754,-0.043,0.741
5755,-0.054,0.741
5756,-0.065,0.726
5757,-0.065,0.726
5758,-0.065,0.726
5759,-0.043,0.726
5760,-0.043,0.711
5761,-0.032,0.711
5762,-0.043,0.711
5763,-0.054,0.711
5764,-0.065,0.681
5765,-0.076,0.681
5766,-0.065,0.681
5767,-0.054,0.681
5768,-0.043,0.651
5769,-0.043,0.651
5770,-0.043,0.651
5771,-0.054,0.651
5772,-0.065,0.607
5773,-0.076,0.607
5774,-0.076,0.607
5775,-0.065,0.607
5776,-0.054,0.563
5777,-0.043,0.563
5778,-0.043,0.563
5779,-0.054,0.563
5780,-0.065,0.533
5781,-0.076,0.533
5782,-0.086,0.533
5783,-0.065,0.533
5784,-0.065,0.459
5785,-0.043,0.459
5786,-0.043,0.459
5787,-0.054,0.459
5788,-0.065,0.414
5789,-0.076,0.414
5790,-0.086,0.414
5791,-0.076,0.414
5792,-0.065,0.355
5793,-0.054,0.355
5794,-0.043,0.355
5795,-0.054,0.355
5796,-0.065,0.281
5797,-0.076,0.281
5798,-0.086,0.281
5799,-0.086,0.281
5800,-0.076,0.207
5801,-0.065,0.207
5802,-0.054,0.207
5803,-0.054,0.207
5804,-0.065,0.148
5805,-0.076,0.148
5806,-0.086,0.148
5807,-0.086,0.148
5808,-0.076,0.118
5809,-0.065,0.118
5810,-0.054,0.118
5811,-0.043,0.118
5812,-0.054,0.074
5813,-0.065,0.074
5814,-0.086,0.074
5815,-0.086,0.074
5816,-0.086,0.015
5817,-0.065,0.015
5818,-0.065,0.015
5819,-0.043,0.015
5820,-0.054,0.000
5821,-0.065,0.000
5822,-0.076,0.000
5823,-0.086,0.000
5824,-0.086,-0.029
5825,-0.076,-0.029
5826,-0.065,-0.029
5827,-0.043,-0.029
5828,-0.054,-0.029
5829,-0.054,-0.029
5830,-0.065,-0.029
5831,-0.086,-0.029
5832,-0.086,-0.059
5833,-0.086,-0.059
5834,-0.065,-0.059
5835,-0.054,-0.059
5836,-0.054,-0.059
5837,-0.065,-0.059
5838,-0.065,-0.059
5839,-0.086,-0.059
5840,-0.097,-0.059
5841,-0.086,-0.059
5842,-0.076,-0.059
5843,-0.054,-0.059
5844,-0.043,-0.059
5845,-0.054,-0.059
5846,-0.065,-0.059
5847,-0.086,-0.059
5848,-0.086,-0.089
5849,-0.086,-0.089
5850,-0.076,-0.089
5851,-0.065,-0.089
5852,-0.054,-0.089
5853,-0.054,-0.089
5854,-0.065,-0.089
5855,-0.076,-0.089
5856,-0.086,-0.104
5857,-0.086,-0.104
5858,-0.086,-0.104
5859,-0.065,-0.104
5860,-0.065,-0.134
5861,-0.054,-0.134
5862,-0.065,-0.134
5863,-0.065,-0.134
5864,-0.086,-0.148
5865,-0.086,-0.148
5866,-0.086,-0.148
5867,-0.065,-0.148
5868,-0.065,-0.193
5869,-0.054,-0.193
5870,-0.054,-0.193
5871,-0.065,-0.193
5872,-0.076,-0.207
5873,-0.086,-0.207
5874,-0.086,-0.207
5875,-0.076,-0.207
5876,-0.065,-0.223
5877,-0.043,-0.223
5878,-0.054,-0.223
5879,-0.065,-0.223
5880,-0.076,-0.267
5881,-0.086,-0.267
5882,-0.086,-0.267
5883,-0.086,-0.267
5884,-0.065,-0.281
5885,-0.054,-0.281
5886,-0.043,-0.281
5887,-0.054,-0.281
5888,-0.065,-0.311
5889,-0.086,-0.311
5890,-0.086,-0.311
5891,-0.086,-0.311
5892,-0.076,-0.326
5893,-0.054,-0.326
5894,-0.054,-0.326
5895,-0.054,-0.326
5896,-0.065,-0.355
5897,-0.076,-0.355
5898,-0.086,-0.355
5899,-0.086,-0.355
5900,-0.076,-0.370
5901,-0.054,-0.370
5902,-0.043,-0.370
5903,-0.043,-0.370
5904,-0.065,-0.429
5905,-0.065,-0.429
5906,-0.086,-0.429
5907,-0.086,-0.429
5908,-0.086,-0.460
5909,-0.065,-0.460
5910,-0.043,-0.460
5911,-0.054,-0.460
5912,-0.054,-0.474
5913,-0.065,-0.474
5914,-0.086,-0.474
5915,-0.086,-0.474
5916,-0.086,-0.489
5917,-0.065,-0.489
5918,-0.054,-0.489
5919,-0.043,-0.489
5920,-0.043,-0.518
5921,-0.065,-0.518
5922,-0.076,-0.518
5923,-0.086,-0.518
5924,-0.086,-0.518
5925,-0.076,-0.518
5926,-0.054,-0.518
5927,-0.054,-0.518
5928,-0.043,-0.533
5929,-0.054,-0.533
5930,-0.065,-0.533
5931,-0.086,-0.533
5932,-0.086,-0.548
5933,-0.076,-0.548
5934,-0.054,-0.548
5935,-0.054,-0.548
5936,-0.043,-0.563
5937,-0.054,-0.563
5938,-0.065,-0.563
5939,-0.076,-0.563
5940,-0.086,-0.548
5941,-0.086,-0.548
5942,-0.065,-0.548
5943,-0.054,-0.548
5944,-0.043,-0.563
5945,-0.043,-0.563
5946,-0.065,-0.563
5947,-0.076,-0.563
5948,-0.086,-0.563
5949,-0.086,-0.563
5950,-0.076,-0.563
5951,-0.054,-0.563
5952,-0.043,-0.578
5953,-0.043,-0.578
5954,-0.054,-0.578
5955,-0.065,-0.578
5956,-0.086,-0.563
5957,-0.086,-0.563
5958,-0.076,-0.563
5959,-0.065,-0.563
5960,-0.043,-0.578
5961,-0.043,-0.578
5962,-0.043,-0.578
5963,-0.043,-0.578
5964,-0.054,-0.578
5965,-0.054,-0.578
5966,-0.043,-0.578
5967,-0.021,-0.578
5968,-0.010,-0.608
5969,0.001,-0.608
5970,0.001,-0.608
5971,-0.021,-0.608
5972,-0.021,-0.593
5973,-0.032,-0.593
5974,-0.032,-0.593
5975,-0.021,-0.593
5976,0.001,-0.593
5977,0.001,-0.593
5978,0.001,-0.593
5979,0.001,-0.593
5980,-0.021,-0.623
5981,-0.032,-0.623
5982,-0.043,-0.623
5983,-0.043,-0.623
5984,-0.021,-0.608
5985,-0.021,-0.608
5986,-0.021,-0.608
5987,-0.032,-0.608
5988,-0.054,-0.623
5989,-0.065,-0.623
5990,-0.076,-0.623
5991,-0.065,-0.623
5992,-0.065,-0.623
5993,-0.043,-0.623
5994,-0.054,-0.623
5995,-0.065,-0.623
5996,-0.065,-0.637
5997,-0.086,-0.637
5998,-0.086,-0.637
5999,-0.086,-0.637
6000,-0.076,-0.637
6001,-0.065,-0.637
6002,-0.065,-0.637
6003,-0.065,-0.637
6004,-0.065,-0.637
6005,-0.076,-0.637
6006,-0.086,-0.637
6007,-0.086,-0.637
6008,-0.076,-0.652
6009,-0.065,-0.652
6010,-0.054,-0.652
6011,-0.065,-0.652
6012,-0.065,-0.637
6013,-0.086,-0.637
6014,-0.097,-0.637
6015,-0.097,-0.637
6016,-0.097,-0.652
6017,-0.086,-0.652
6018,-0.065,-0.652
6019,-0.065,-0.652
6020,-0.065,-0.652
6021,-0.076,-0.652
6022,-0.086,-0.652
6023,-0.086,-0.652
6024,-0.086,-0.666
6025,-0.086,-0.666
6026,-0.065,-0.666
6027,-0.065,-0.666
6028,-0.054,-0.652
6029,-0.065,-0.652
6030,-0.086,-0.652
6031,-0.097,-0.652
6032,-0.119,-0.652
6033,-0.108,-0.652
6034,-0.086,-0.652
6035,-0.086,-0.652
6036,-0.086,-0.637
6037,-0.076,-0.637
6038,-0.065,-0.637
6039,-0.021,-0.637
6040,0.011,-0.652
6041,0.077,-0.652
6042,0.143,-0.652
6043,0.241,-0.652
6044,0.306,-0.666
6045,0.371,-0.666
6046,0.426,-0.666
6047,0.459,-0.666
6048,0.513,-0.652
6049,0.546,-0.652
6050,0.568,-0.652
6051,0.568,-0.652
6052,0.568,-0.637
6053,0.546,-0.637
6054,0.502,-0.637
6055,0.459,-0.637
6056,0.404,-0.666
6057,0.328,-0.666
6058,0.262,-0.666
6059,0.186,-0.666
6060,0.143,-0.652
6061,0.066,-0.652
6062,0.022,-0.652
6063,-0.021,-0.652
6064,-0.065,-0.666
6065,-0.108,-0.666
6066,-0.108,-0.666
6067,-0.086,-0.666
6068,-0.065,-0.652
6069,-0.065,-0.652
6070,-0.054,-0.652
6071,-0.065,-0.652
6072,-0.065,-0.666
6073,-0.065,-0.666
6074,-0.065,-0.666
6075,-0.043,-0.666
6076,-0.032,-0.652
6077,-0.021,-0.652
6078,-0.021,-0.652
6079,-0.021,-0.652
6080,-0.043,-0.681
6081,-0.043,-0.681
6082,-0.054,-0.681
6083,-0.043,-0.681
6084,-0.021,-0.666
6085,-0.021,-0.666
6086,-0.021,-0.666
6087,-0.021,-0.666
6088,-0.043,-0.681
6089,-0.054,-0.681
6090,-0.054,-0.681
6091,-0.043,-0.681
6092,-0.043,-0.681
6093,-0.021,-0.681
6094,-0.021,-0.681
6095,-0.021,-0.681
6096,-0.032,-0.681
6097,-0.054,-0.681
6098,-0.054,-0.681
6099,-0.054,-0.681
6100,-0.043,-0.681
6101,-0.021,-0.681
6102,-0.021,-0.681
6103,-0.021,-0.681
6104,-0.021,-0.697
6105,-0.043,-0.697
6106,-0.054,-0.697
6107,-0.054,-0.697
6108,-0.043,-0.697
6109,-0.021,-0.697
6110,-0.010,-0.697
6111,-0.010,-0.697
6112,-0.021,-0.711
6113,-0.021,-0.711
6114,-0.043,-0.711
6115,-0.043,-0.711
6116,-0.043,-0.697
6117,-0.021,-0.697
6118,0.001,-0.697
6119,0.001,-0.697
6120,0.001,-0.697
6121,-0.021,-0.697
6122,-0.032,-0.697
6123,-0.043,-0.697
6124,-0.032,-0.681
6125,-0.021,-0.681
6126,-0.010,-0.681
6127,0.001,-0.681
6128,0.001,-0.681
6129,0.001,-0.681
6130,-0.021,-0.681
6131,-0.021,-0.681
6132,-0.021,-0.681
6133,-0.010,-0.681
6134,0.001,-0.681
6135,0.011,-0.681
6136,0.011,-0.666
6137,0.001,-0.666
6138,0.001,-0.666
6139,-0.010,-0.666
6140,-0.021,-0.652
6141,0.001,-0.652
6142,0.001,-0.652
6143,0.022,-0.652
6144,0.022,-0.637
6145,0.022,-0.637
6146,0.011,-0.637
6147,0.001,-0.637
6148,0.001,-0.637
6149,0.001,-0.637
6150,0.022,-0.637
6151,0.022,-0.637
6152,0.044,-0.623
6153,0.044,-0.623
6154,0.033,-0.623
6155,0.022,-0.623
6156,0.022,-0.623
6157,0.022,-0.623
6158,0.022,-0.623
6159,0.044,-0.623
6160,0.055,-0.623
6161,0.066,-0.623
6162,0.066,-0.623
6163,0.044,-0.623
6164,0.044,-0.593
6165,0.033,-0.593
6166,0.044,-0.593
6167,0.066,-0.593
6168,0.077,-0.593
6169,0.088,-0.593
6170,0.088,-0.593
6171,0.077,-0.593
6172,0.066,-0.578
6173,0.066,-0.578
6174,0.077,-0.578
6175,0.088,-0.578
6176,0.110,-0.563
6177,0.121,-0.563
6178,0.121,-0.563
6179,0.121,-0.563
6180,0.110,-0.533
6181,0.099,-0.533
6182,0.099,-0.533
6183,0.121,-0.533
6184,0.143,-0.504
6185,0.143,-0.504
6186,0.154,-0.504
6187,0.143,-0.504
6188,0.143,-0.445
6189,0.132,-0.445
6190,0.143,-0.445
6191,0.143,-0.445
6192,0.164,-0.386
6193,0.175,-0.386
6194,0.175,-0.386
6195,0.186,-0.386
6196,0.164,-0.341
6197,0.154,-0.341
6198,0.143,-0.341
6199,0.164,-0.341
6200,0.164,-0.267
6201,0.186,-0.267
6202,0.197,-0.267
6203,0.186,-0.267
6204,0.186,-0.178
6205,0.164,-0.178
6206,0.164,-0.178
6207,0.164,-0.178
6208,0.164,-0.104
6209,0.186,-0.104
6210,0.186,-0.104
6211,0.186,-0.104
6212,0.186,0.000
6213,0.164,0.000
6214,0.154,0.000
6215,0.143,0.000
6216,0.143,0.088
6217,0.154,0.088
6218,0.164,0.088
6219,0.164,0.088
6220,0.143,0.193
6221,0.143,0.193
6222,0.121,0.193
6223,0.099,0.193
6224,0.099,0.281
6225,0.099,0.281
6226,0.110,0.281
6227,0.110,0.281
6228,0.099,0.355
6229,0.077,0.355
6230,0.055,0.355
6231,0.044,0.355
6232,0.033,0.429
6233,0.044,0.429
6234,0.044,0.429
6235,0.044,0.429
6236,0.044,0.474
6237,0.022,0.474
6238,0.011,0.474
6239,0.001,0.474
6240,-0.010,0.533
6241,-0.010,0.533
6242,0.001,0.533
6243,0.001,0.533
6244,0.001,0.593
6245,0.001,0.593
6246,-0.010,0.593
6247,-0.032,0.593
6248,-0.043,0.622
6249,-0.043,0.622
6250,-0.032,0.622
6251,-0.021,0.622
6252,-0.021,0.666
6253,-0.021,0.666
6254,-0.032,0.666
6255,-0.054,0.666
6256,-0.065,0.681
6257,-0.065,0.681
6258,-0.065,0.681
6259,-0.043,0.681
6260,-0.043,0.696
6261,-0.043,0.696
6262,-0.043,0.696
6263,-0.065,0.696
6264,-0.076,0.726
6265,-0.086,0.726
6266,-0.076,0.726
6267,-0.065,0.726
6268,-0.054,0.726
6269,-0.054,0.726
6270,-0.054,0.726
6271,-0.065,0.726
6272,-0.086,0.726
6273,-0.086,0.726
6274,-0.086,0.726
6275,-0.065,0.726
6276,-0.065,0.711
6277,-0.054,0.711
6278,-0.054,0.711
6279,-0.065,0.711
6280,-0.086,0.681
6281,-0.086,0.681
6282,-0.086,0.681
6283,-0.086,0.681
6284,-0.065,0.666
6285,-0.065,0.666
6286,-0.065,0.666
6287,-0.065,0.666
6288,-0.086,0.651
6289,-0.086,0.651
6290,-0.097,0.651
6291,-0.086,0.651
6292,-0.076,0.607
6293,-0.065,0.607
6294,-0.065,0.607
6295,-0.065,0.607
6296,-0.086,0.562
6297,-0.086,0.562
6298,-0.097,0.562
6299,-0.097,0.562
6300,-0.086,0.503
6301,-0.076,0.503
6302,-0.065,0.503
6303,-0.065,0.503
6304,-0.076,0.459
6305,-0.097,0.459
6306,-0.097,0.459
6307,-0.108,0.459
6308,-0.097,0.370
6309,-0.086,0.370
6310,-0.065,0.370
6311,-0.076,0.370
6312,-0.086,0.311
6313,-0.086,0.311
6314,-0.108,0.311
6315,-0.119,0.311
6316,-0.108,0.267
6317,-0.086,0.267
6318,-0.076,0.267
6319,-0.076,0.267
6320,-0.076,0.207
6321,-0.086,0.207
6322,-0.108,0.207
6323,-0.108,0.207
6324,-0.108,0.133
6325,-0.097,0.133
6326,-0.086,0.133
6327,-0.076,0.133
6328,-0.086,0.074
6329,-0.086,0.074
6330,-0.108,0.074
6331,-0.119,0.074
6332,-0.119,0.029
6333,-0.108,0.029
6334,-0.086,0.029
6335,-0.076,0.029
6336,-0.076,0.000
6337,-0.086,0.000
6338,-0.097,0.000
6339,-0.119,0.000
6340,-0.119,-0.030
6341,-0.108,-0.030
6342,-0.086,-0.030
6343,-0.086,-0.030
6344,-0.076,-0.044
6345,-0.086,-0.044
6346,-0.097,-0.044
6347,-0.119,-0.044
6348,-0.119,-0.059
6349,-0.119,-0.059
6350,-0.097,-0.059
6351,-0.086,-0.059
6352,-0.076,-0.074
6353,-0.086,-0.074
6354,-0.086,-0.074
6355,-0.119,-0.074
6356,-0.119,-0.074
6357,-0.119,-0.074
6358,-0.119,-0.074
6359,-0.086,-0.074
6360,-0.086,-0.089
6361,-0.086,-0.089
6362,-0.086,-0.089
6363,-0.108,-0.089
6364,-0.119,-0.089
6365,-0.119,-0.089
6366,-0.119,-0.089
6367,-0.097,-0.089
6368,-0.086,-0.089
6369,-0.086,-0.089
6370,-0.086,-0.089
6371,-0.097,-0.089
6372,-0.119,-0.104
6373,-0.119,-0.104
6374,-0.119,-0.104
6375,-0.097,-0.104
6376,-0.086,-0.118
6377,-0.086,-0.118
6378,-0.086,-0.118
6379,-0.086,-0.118
6380,-0.119,-0.134
6381,-0.119,-0.134
6382,-0.119,-0.134
6383,-0.108,-0.134
6384,-0.086,-0.163
6385,-0.086,-0.163
6386,-0.086,-0.163
6387,-0.086,-0.163
6388,-0.108,-0.178
6389,-0.119,-0.178
6390,-0.119,-0.178
6391,-0.119,-0.178
6392,-0.097,-0.193
6393,-0.086,-0.193
6394,-0.086,-0.193
6395,-0.086,-0.193
6396,-0.108,-0.207
6397,-0.119,-0.207
6398,-0.119,-0.207
6399,-0.119,-0.207
6400,-0.108,-0.252
6401,-0.086,-0.252
6402,-0.086,-0.252
6403,-0.086,-0.252
6404,-0.097,-0.267
6405,-0.119,-0.267
6406,-0.119,-0.267
6407,-0.119,-0.267
6408,-0.119,-0.296
6409,-0.086,-0.296
6410,-0.086,-0.296
6411,-0.086,-0.296
6412,-0.086,-0.296
6413,-0.108,-0.296
6414,-0.119,-0.296
6415,-0.119,-0.296
6416,-0.119,-0.326
6417,-0.097,-0.326
6418,-0.086,-0.326
6419,-0.086,-0.326
6420,-0.086,-0.355
6421,-0.108,-0.355
6422,-0.119,-0.355
6423,-0.119,-0.355
6424,-0.119,-0.370
6425,-0.086,-0.370
6426,-0.086,-0.370
6427,-0.076,-0.370
6428,-0.086,-0.370
6429,-0.097,-0.370
6430,-0.119,-0.370
6431,-0.119,-0.370
6432,-0.119,-0.386
6433,-0.119,-0.386
6434,-0.097,-0.386
6435,-0.086,-0.386
6436,-0.086,-0.400
6437,-0.086,-0.400
6438,-0.108,-0.400
6439,-0.119,-0.400
6440,-0.119,-0.415
6441,-0.119,-0.415
6442,-0.097,-0.415
6443,-0.086,-0.415
6444,-0.086,-0.415
6445,-0.086,-0.415
6446,-0.097,-0.415
6447,-0.119,-0.415
6448,-0.130,-0.445
6449,-0.119,-0.445
6450,-0.108,-0.445
6451,-0.086,-0.445
6452,-0.086,-0.460
6453,-0.086,-0.460
6454,-0.097,-0.460
6455,-0.119,-0.460
6456,-0.119,-0.474
6457,-0.119,-0.474
6458,-0.119,-0.474
6459,-0.097,-0.474
6460,-0.086,-0.474
6461,-0.086,-0.474
6462,-0.086,-0.474
6463,-0.108,-0.474
6464,-0.130,-0.489
6465,-0.119,-0.489
6466,-0.119,-0.489
6467,-0.097,-0.489
6468,-0.086,-0.489
6469,-0.086,-0.489
6470,-0.086,-0.489
6471,-0.108,-0.489
6472,-0.119,-0.518
6473,-0.119,-0.518
6474,-0.119,-0.518
6475,-0.108,-0.518
6476,-0.097,-0.518
6477,-0.086,-0.518
6478,-0.086,-0.518
6479,-0.086,-0.518
6480,-0.108,-0.533
6481,-0.108,-0.533
6482,-0.086,-0.533
6483,-0.086,-0.533
6484,-0.065,-0.518
6485,-0.054,-0.518
6486,-0.043,-0.518
6487,-0.065,-0.518
6488,-0.065,-0.533
6489,-0.076,-0.533
6490,-0.076,-0.533
6491,-0.065,-0.533
6492,-0.043,-0.548
6493,-0.043,-0.548
6494,-0.032,-0.548
6495,-0.043,-0.548
6496,-0.054,-0.548
6497,-0.076,-0.548
6498,-0.076,-0.548
6499,-0.076,-0.548
6500,-0.065,-0.548
6501,-0.065,-0.548
6502,-0.065,-0.548
6503,-0.065,-0.548
6504,-0.076,-0.563
6505,-0.097,-0.563
6506,-0.119,-0.563
6507,-0.119,-0.563
6508,-0.108,-0.548
6509,-0.097,-0.548
6510,-0.086,-0.548
6511,-0.086,-0.548
6512,-0.097,-0.563
6513,-0.119,-0.563
6514,-0.130,-0.563
6515,-0.130,-0.563
6516,-0.130,-0.548
6517,-0.119,-0.548
6518,-0.097,-0.548
6519,-0.097,-0.548
6520,-0.108,-0.563
6521,-0.119,-0.563
6522,-0.130,-0.563
6523,-0.130,-0.563
6524,-0.130,-0.563
6525,-0.108,-0.563
6526,-0.086,-0.563
6527,-0.086,-0.563
6528,-0.086,-0.578
6529,-0.108,-0.578
6530,-0.119,-0.578
6531,-0.141,-0.578
6532,-0.141,-0.593
6533,-0.119,-0.593
6534,-0.119,-0.593
6535,-0.108,-0.593
6536,-0.097,-0.578
6537,-0.108,-0.578
6538,-0.130,-0.578
6539,-0.141,-0.578
6540,-0.141,-0.578
6541,-0.130,-0.578
6542,-0.108,-0.578
6543,-0.097,-0.578
6544,-0.097,-0.593
6545,-0.108,-0.593
6546,-0.119,-0.593
6547,-0.130,-0.593
6548,-0.141,-0.593
6549,-0.141,-0.593
6550,-0.141,-0.593
6551,-0.130,-0.593
6552,-0.130,-0.578
6553,-0.141,-0.578
6554,-0.141,-0.578
6555,-0.141,-0.578
6556,-0.097,-0.578
6557,-0.054,-0.578
6558,0.011,-0.578
6559,0.088,-0.578
6560,0.164,-0.593
6561,0.241,-0.593
6562,0.306,-0.593
6563,0.360,-0.593
6564,0.415,-0.578
6565,0.469,-0.578
6566,0.524,-0.578
6567,0.568,-0.578
6568,0.589,-0.593
6569,0.579,-0.593
6570,0.546,-0.593
6571,0.502,-0.593
6572,0.459,-0.578
6573,0.415,-0.578
6574,0.360,-0.578
6575,0.295,-0.578
6576,0.208,-0.593
6577,0.143,-0.593
6578,0.066,-0.593
6579,0.001,-0.593
6580,-0.054,-0.608
6581,-0.086,-0.608
6582,-0.130,-0.608
6583,-0.141,-0.608
6584,-0.130,-0.608
6585,-0.119,-0.608
6586,-0.119,-0.608
6587,-0.119,-0.608
6588,-0.119,-0.608
6589,-0.119,-0.608
6590,-0.119,-0.608
6591,-0.086,-0.608
6592,-0.086,-0.608
6593,-0.065,-0.608
6594,-0.065,-0.608
6595,-0.076,-0.608
6596,-0.086,-0.608
6597,-0.086,-0.608
6598,-0.086,-0.608
6599,-0.086,-0.608
6600,-0.076,-0.623
6601,-0.065,-0.623
6602,-0.054,-0.623
6603,-0.065,-0.623
6604,-0.065,-0.593
6605,-0.086,-0.593
6606,-0.086,-0.593
6607,-0.086,-0.593
6608,-0.076,-0.593
6609,-0.065,-0.593
6610,-0.054,-0.593
6611,-0.054,-0.593
6612,-0.065,-0.578
6613,-0.086,-0.578
6614,-0.086,-0.578
6615,-0.086,-0.578
6616,-0.086,-0.578
6617,-0.065,-0.578
6618,-0.065,-0.578
6619,-0.054,-0.578
