,ECG,PPG
0,0.666,-0.130
1,0.666,-0.130
2,0.664,-0.130
3,0.663,-0.130
4,0.661,-0.129
5,0.659,-0.129
6,0.657,-0.129
7,0.654,-0.129
8,0.651,-0.130
9,0.648,-0.130
10,0.643,-0.130
11,0.637,-0.130
12,0.632,-0.128
13,0.626,-0.128
14,0.619,-0.128
15,0.613,-0.128
16,0.605,-0.126
17,0.598,-0.126
18,0.588,-0.126
19,0.579,-0.126
20,0.568,-0.122
21,0.557,-0.122
22,0.546,-0.122
23,0.536,-0.122
24,0.525,-0.118
25,0.514,-0.118
26,0.503,-0.118
27,0.492,-0.118
28,0.482,-0.113
29,0.472,-0.113
30,0.462,-0.113
31,0.452,-0.113
32,0.440,-0.087
33,0.428,-0.087
34,0.416,-0.087
35,0.403,-0.087
36,0.390,-0.082
37,0.377,-0.082
38,0.364,-0.082
39,0.352,-0.082
40,0.339,-0.074
41,0.326,-0.074
42,0.314,-0.074
43,0.302,-0.074
44,0.290,-0.069
45,0.279,-0.069
46,0.268,-0.069
47,0.257,-0.069
48,0.246,-0.061
49,0.236,-0.061
50,0.225,-0.061
51,0.215,-0.061
52,0.206,-0.057
53,0.196,-0.057
54,0.186,-0.057
55,0.176,-0.057
56,0.167,-0.052
57,0.157,-0.052
58,0.148,-0.052
59,0.139,-0.052
60,0.131,-0.048
61,0.122,-0.048
62,0.114,-0.048
63,0.105,-0.048
64,0.098,-0.045
65,0.091,-0.045
66,0.084,-0.045
67,0.078,-0.045
68,0.072,-0.044
69,0.066,-0.044
70,0.060,-0.044
71,0.053,-0.044
72,0.047,-0.043
73,0.040,-0.043
74,0.034,-0.043
75,0.029,-0.043
76,0.024,-0.043
77,0.020,-0.043
78,0.015,-0.043
79,0.011,-0.043
80,0.007,-0.044
81,0.004,-0.044
82,0.001,-0.044
83,-0.002,-0.044
84,-0.005,-0.044
85,-0.009,-0.044
86,-0.012,-0.044
87,-0.015,-0.044
88,-0.018,-0.046
89,-0.021,-0.046
90,-0.024,-0.046
91,-0.027,-0.046
92,-0.030,-0.046
93,-0.032,-0.046
94,-0.035,-0.046
95,-0.037,-0.046
96,-0.040,-0.048
97,-0.042,-0.048
98,-0.044,-0.048
99,-0.047,-0.048
100,-0.049,-0.048
101,-0.051,-0.048
102,-0.053,-0.048
103,-0.054,-0.048
104,-0.056,-0.046
105,-0.057,-0.046
106,-0.059,-0.046
107,-0.060,-0.046
108,-0.061,-0.046
109,-0.061,-0.046
110,-0.062,-0.046
111,-0.063,-0.046
112,-0.064,-0.044
113,-0.064,-0.044
114,-0.066,-0.044
115,-0.068,-0.044
116,-0.069,-0.044
117,-0.070,-0.044
118,-0.070,-0.044
119,-0.071,-0.044
120,-0.072,-0.043
121,-0.072,-0.043
122,-0.072,-0.043
123,-0.072,-0.043
124,-0.072,-0.043
125,-0.072,-0.043
126,-0.073,-0.043
127,-0.073,-0.043
128,-0.074,-0.040
129,-0.075,-0.040
130,-0.075,-0.040
131,-0.076,-0.040
132,-0.077,-0.038
133,-0.078,-0.038
134,-0.078,-0.038
135,-0.078,-0.038
136,-0.079,-0.038
137,-0.080,-0.038
138,-0.080,-0.038
139,-0.081,-0.038
140,-0.081,-0.038
141,-0.080,-0.038
142,-0.080,-0.038
143,-0.080,-0.038
144,-0.080,-0.037
145,-0.080,-0.037
146,-0.081,-0.037
147,-0.081,-0.037
148,-0.082,-0.037
149,-0.083,-0.037
150,-0.083,-0.037
151,-0.083,-0.037
152,-0.083,-0.037
153,-0.083,-0.037
154,-0.083,-0.037
155,-0.083,-0.037
156,-0.082,-0.037
157,-0.081,-0.037
158,-0.080,-0.037
159,-0.080,-0.037
160,-0.080,-0.037
161,-0.080,-0.037
162,-0.081,-0.037
163,-0.081,-0.037
164,-0.082,-0.037
165,-0.083,-0.037
166,-0.083,-0.037
167,-0.083,-0.037
168,-0.083,-0.038
169,-0.083,-0.038
170,-0.082,-0.038
171,-0.080,-0.038
172,-0.079,-0.038
173,-0.077,-0.038
174,-0.076,-0.038
175,-0.075,-0.038
176,-0.074,-0.037
177,-0.072,-0.037
178,-0.072,-0.037
179,-0.072,-0.037
180,-0.073,-0.037
181,-0.073,-0.037
182,-0.074,-0.037
183,-0.074,-0.037
184,-0.074,-0.036
185,-0.073,-0.036
186,-0.073,-0.036
187,-0.072,-0.036
188,-0.072,-0.037
189,-0.072,-0.037
190,-0.071,-0.037
191,-0.070,-0.037
192,-0.070,-0.037
193,-0.069,-0.037
194,-0.068,-0.037
195,-0.067,-0.037
196,-0.067,-0.036
197,-0.067,-0.036
198,-0.068,-0.036
199,-0.068,-0.036
200,-0.069,-0.036
201,-0.070,-0.036
202,-0.070,-0.036
203,-0.070,-0.036
204,-0.070,-0.037
205,-0.070,-0.037
206,-0.068,-0.037
207,-0.067,-0.037
208,-0.065,-0.038
209,-0.064,-0.038
210,-0.063,-0.038
211,-0.061,-0.038
212,-0.060,-0.038
213,-0.058,-0.038
214,-0.056,-0.038
215,-0.053,-0.038
216,-0.051,-0.038
217,-0.049,-0.038
218,-0.046,-0.038
219,-0.043,-0.038
220,-0.041,-0.040
221,-0.039,-0.040
222,-0.037,-0.040
223,-0.035,-0.040
224,-0.033,-0.041
225,-0.031,-0.041
226,-0.029,-0.041
227,-0.027,-0.041
228,-0.026,-0.043
229,-0.026,-0.043
230,-0.025,-0.043
231,-0.025,-0.043
232,-0.024,-0.043
233,-0.023,-0.043
234,-0.020,-0.043
235,-0.018,-0.043
236,-0.015,-0.046
237,-0.012,-0.046
238,-0.010,-0.046
239,-0.007,-0.046
240,-0.004,-0.048
241,-0.001,-0.048
242,0.000,-0.048
243,0.002,-0.048
244,0.003,-0.048
245,0.003,-0.048
246,0.003,-0.048
247,0.002,-0.048
248,0.003,-0.051
249,0.004,-0.051
250,0.006,-0.051
251,0.008,-0.051
252,0.010,-0.051
253,0.012,-0.051
254,0.014,-0.051
255,0.015,-0.051
256,0.015,-0.051
257,0.015,-0.051
258,0.012,-0.051
259,0.008,-0.051
260,0.001,-0.053
261,-0.005,-0.053
262,-0.012,-0.053
263,-0.019,-0.053
264,-0.025,-0.054
265,-0.031,-0.054
266,-0.035,-0.054
267,-0.039,-0.054
268,-0.040,-0.055
269,-0.042,-0.055
270,-0.043,-0.055
271,-0.044,-0.055
272,-0.045,-0.056
273,-0.047,-0.056
274,-0.050,-0.056
275,-0.053,-0.056
276,-0.057,-0.059
277,-0.061,-0.059
278,-0.064,-0.059
279,-0.067,-0.059
280,-0.069,-0.060
281,-0.071,-0.060
282,-0.072,-0.060
283,-0.073,-0.060
284,-0.074,-0.061
285,-0.075,-0.061
286,-0.075,-0.061
287,-0.075,-0.061
288,-0.074,-0.063
289,-0.072,-0.063
290,-0.071,-0.063
291,-0.070,-0.063
292,-0.068,-0.064
293,-0.067,-0.064
294,-0.065,-0.064
295,-0.064,-0.064
296,-0.063,-0.064
297,-0.061,-0.064
298,-0.060,-0.064
299,-0.059,-0.064
300,-0.057,-0.066
301,-0.056,-0.066
302,-0.056,-0.066
303,-0.055,-0.066
304,-0.055,-0.067
305,-0.054,-0.067
306,-0.053,-0.067
307,-0.053,-0.067
308,-0.052,-0.068
309,-0.051,-0.068
310,-0.051,-0.068
311,-0.050,-0.068
312,-0.051,-0.069
313,-0.051,-0.069
314,-0.051,-0.069
315,-0.050,-0.069
316,-0.050,-0.068
317,-0.049,-0.068
318,-0.048,-0.068
319,-0.048,-0.068
320,-0.046,-0.068
321,-0.045,-0.068
322,-0.044,-0.068
323,-0.043,-0.068
324,-0.042,-0.068
325,-0.042,-0.068
326,-0.041,-0.068
327,-0.041,-0.068
328,-0.040,-0.067
329,-0.040,-0.067
330,-0.039,-0.067
331,-0.038,-0.067
332,-0.038,-0.064
333,-0.037,-0.064
334,-0.037,-0.064
335,-0.037,-0.064
336,-0.038,-0.064
337,-0.038,-0.064
338,-0.038,-0.064
339,-0.038,-0.064
340,-0.038,-0.062
341,-0.037,-0.062
342,-0.037,-0.062
343,-0.037,-0.062
344,-0.038,-0.059
345,-0.038,-0.059
346,-0.038,-0.059
347,-0.038,-0.059
348,-0.037,-0.058
349,-0.037,-0.058
350,-0.035,-0.058
351,-0.034,-0.058
352,-0.032,-0.054
353,-0.030,-0.054
354,-0.027,-0.054
355,-0.024,-0.054
356,-0.020,-0.053
357,-0.016,-0.053
358,-0.011,-0.053
359,-0.006,-0.053
360,-0.001,-0.051
361,0.004,-0.051
362,0.008,-0.051
363,0.012,-0.051
364,0.015,-0.049
365,0.017,-0.049
366,0.017,-0.049
367,0.017,-0.049
368,0.013,-0.048
369,0.010,-0.048
370,-0.002,-0.048
371,-0.013,-0.048
372,-0.034,-0.044
373,-0.056,-0.044
374,-0.086,-0.044
375,-0.116,-0.044
376,-0.153,-0.043
377,-0.190,-0.043
378,-0.226,-0.043
379,-0.263,-0.043
380,-0.291,-0.042
381,-0.320,-0.042
382,-0.337,-0.042
383,-0.354,-0.042
384,-0.359,-0.040
385,-0.364,-0.040
386,-0.358,-0.040
387,-0.353,-0.040
388,-0.340,-0.038
389,-0.328,-0.038
390,-0.314,-0.038
391,-0.300,-0.038
392,-0.290,-0.037
393,-0.280,-0.037
394,-0.277,-0.037
395,-0.274,-0.037
396,-0.280,-0.036
397,-0.286,-0.036
398,-0.300,-0.036
399,-0.315,-0.036
400,-0.334,-0.036
401,-0.354,-0.036
402,-0.375,-0.036
403,-0.396,-0.036
404,-0.412,-0.034
405,-0.428,-0.034
406,-0.437,-0.034
407,-0.445,-0.034
408,-0.444,-0.033
409,-0.443,-0.033
410,-0.433,-0.033
411,-0.423,-0.033
412,-0.407,-0.032
413,-0.392,-0.032
414,-0.372,-0.032
415,-0.352,-0.032
416,-0.330,-0.032
417,-0.309,-0.032
418,-0.286,-0.032
419,-0.263,-0.032
420,-0.243,-0.031
421,-0.222,-0.031
422,-0.206,-0.031
423,-0.189,-0.031
424,-0.176,-0.031
425,-0.162,-0.031
426,-0.150,-0.031
427,-0.138,-0.031
428,-0.124,-0.029
429,-0.111,-0.029
430,-0.093,-0.029
431,-0.075,-0.029
432,-0.056,-0.028
433,-0.037,-0.028
434,-0.019,-0.028
435,-0.001,-0.028
436,0.014,-0.028
437,0.030,-0.028
438,0.043,-0.028
439,0.056,-0.028
440,0.064,-0.026
441,0.073,-0.026
442,0.079,-0.026
443,0.084,-0.026
444,0.087,-0.026
445,0.089,-0.026
446,0.090,-0.026
447,0.091,-0.026
448,0.091,-0.025
449,0.091,-0.025
450,0.091,-0.025
451,0.091,-0.025
452,0.090,-0.024
453,0.090,-0.024
454,0.089,-0.024
455,0.089,-0.024
456,0.088,-0.022
457,0.088,-0.022
458,0.088,-0.022
459,0.088,-0.022
460,0.089,-0.021
461,0.089,-0.021
462,0.090,-0.021
463,0.091,-0.021
464,0.091,-0.021
465,0.091,-0.021
466,0.090,-0.021
467,0.090,-0.021
468,0.089,-0.019
469,0.088,-0.019
470,0.087,-0.019
471,0.086,-0.019
472,0.085,-0.018
473,0.085,-0.018
474,0.084,-0.018
475,0.083,-0.018
476,0.084,-0.015
477,0.085,-0.015
478,0.085,-0.015
479,0.086,-0.015
480,0.085,-0.015
481,0.085,-0.015
482,0.084,-0.015
483,0.083,-0.015
484,0.083,-0.013
485,0.083,-0.013
486,0.082,-0.013
487,0.082,-0.013
488,0.081,-0.011
489,0.080,-0.011
490,0.080,-0.011
491,0.080,-0.011
492,0.080,-0.006
493,0.080,-0.006
494,0.081,-0.006
495,0.082,-0.006
496,0.082,-0.002
497,0.083,-0.002
498,0.083,-0.002
499,0.083,-0.002
500,0.083,0.005
501,0.083,0.005
502,0.084,0.005
503,0.085,0.005
504,0.086,0.015
505,0.086,0.015
506,0.087,0.015
507,0.089,0.015
508,0.090,0.025
509,0.091,0.025
510,0.091,0.025
511,0.091,0.025
512,0.092,0.039
513,0.093,0.039
514,0.094,0.039
515,0.094,0.039
516,0.095,0.053
517,0.095,0.053
518,0.095,0.053
519,0.094,0.053
520,0.095,0.070
521,0.096,0.070
522,0.097,0.070
523,0.099,0.070
524,0.101,0.086
525,0.103,0.086
526,0.105,0.086
527,0.107,0.086
528,0.108,0.103
529,0.109,0.103
530,0.111,0.103
531,0.112,0.103
532,0.114,0.120
533,0.116,0.120
534,0.117,0.120
535,0.118,0.120
536,0.120,0.138
537,0.121,0.138
538,0.124,0.138
539,0.126,0.138
540,0.127,0.154
541,0.129,0.154
542,0.130,0.154
543,0.132,0.154
544,0.133,0.168
545,0.134,0.168
546,0.134,0.168
547,0.135,0.168
548,0.135,0.183
549,0.136,0.183
550,0.137,0.183
551,0.138,0.183
552,0.138,0.198
553,0.138,0.198
554,0.139,0.198
555,0.139,0.198
556,0.139,0.212
557,0.138,0.212
558,0.138,0.212
559,0.137,0.212
560,0.136,0.225
561,0.135,0.225
562,0.133,0.225
563,0.131,0.225
564,0.129,0.236
565,0.127,0.236
566,0.125,0.236
567,0.123,0.236
568,0.121,0.248
569,0.119,0.248
570,0.118,0.248
571,0.117,0.248
572,0.115,0.260
573,0.113,0.260
574,0.112,0.260
575,0.111,0.260
576,0.109,0.267
577,0.108,0.267
578,0.106,0.267
579,0.104,0.267
580,0.102,0.274
581,0.101,0.274
582,0.100,0.274
583,0.098,0.274
584,0.097,0.279
585,0.095,0.279
586,0.094,0.279
587,0.093,0.279
588,0.092,0.282
589,0.091,0.282
590,0.090,0.282
591,0.090,0.282
592,0.089,0.280
593,0.088,0.280
594,0.086,0.280
595,0.084,0.280
596,0.082,0.278
597,0.080,0.278
598,0.078,0.278
599,0.077,0.278
600,0.075,0.272
601,0.074,0.272
602,0.072,0.272
603,0.071,0.272
604,0.070,0.265
605,0.069,0.265
606,0.068,0.265
607,0.067,0.265
608,0.066,0.255
609,0.066,0.255
610,0.065,0.255
611,0.064,0.255
612,0.062,0.243
613,0.061,0.243
614,0.059,0.243
615,0.058,0.243
616,0.057,0.232
617,0.057,0.232
618,0.058,0.232
619,0.059,0.232
620,0.063,0.218
621,0.067,0.218
622,0.074,0.218
623,0.081,0.218
624,0.093,0.206
625,0.104,0.206
626,0.118,0.206
627,0.132,0.206
628,0.147,0.193
629,0.163,0.193
630,0.180,0.193
631,0.198,0.193
632,0.216,0.181
633,0.234,0.181
634,0.255,0.181
635,0.275,0.181
636,0.300,0.170
637,0.325,0.170
638,0.355,0.170
639,0.385,0.170
640,0.419,0.159
641,0.453,0.159
642,0.488,0.159
643,0.523,0.159
644,0.553,0.147
645,0.583,0.147
646,0.602,0.147
647,0.621,0.147
648,0.625,0.139
649,0.628,0.139
650,0.615,0.139
651,0.603,0.139
652,0.576,0.129
653,0.550,0.129
654,0.510,0.129
655,0.471,0.129
656,0.423,0.121
657,0.375,0.121
658,0.323,0.121
659,0.271,0.121
660,0.222,0.112
661,0.172,0.112
662,0.128,0.112
663,0.085,0.112
664,0.051,0.104
665,0.018,0.104
666,-0.008,0.104
667,-0.034,0.104
668,-0.055,0.096
669,-0.076,0.096
670,-0.093,0.096
671,-0.111,0.096
672,-0.121,0.088
673,-0.132,0.088
674,-0.138,0.088
675,-0.143,0.088
676,-0.146,0.082
677,-0.148,0.082
678,-0.151,0.082
679,-0.155,0.082
680,-0.163,0.072
681,-0.171,0.072
682,-0.183,0.072
683,-0.195,0.072
684,-0.209,0.066
685,-0.222,0.066
686,-0.235,0.066
687,-0.248,0.066
688,-0.258,0.059
689,-0.268,0.059
690,-0.277,0.059
691,-0.286,0.059
692,-0.297,0.053
693,-0.309,0.053
694,-0.322,0.053
695,-0.335,0.053
696,-0.348,0.045
697,-0.361,0.045
698,-0.369,0.045
699,-0.378,0.045
700,-0.376,0.040
701,-0.375,0.040
702,-0.362,0.040
703,-0.348,0.040
704,-0.327,0.034
705,-0.306,0.034
706,-0.283,0.034
707,-0.260,0.034
708,-0.238,0.027
709,-0.217,0.027
710,-0.199,0.027
711,-0.181,0.027
712,-0.166,0.021
713,-0.151,0.021
714,-0.141,0.021
715,-0.130,0.021
716,-0.123,0.017
717,-0.116,0.017
718,-0.112,0.017
719,-0.108,0.017
720,-0.106,0.011
721,-0.105,0.011
722,-0.104,0.011
723,-0.104,0.011
724,-0.104,0.006
725,-0.104,0.006
726,-0.103,0.006
727,-0.102,0.006
728,-0.102,0.001
729,-0.101,0.001
730,-0.101,0.001
731,-0.100,0.001
732,-0.101,-0.003
733,-0.101,-0.003
734,-0.101,-0.003
735,-0.102,-0.003
736,-0.102,-0.007
737,-0.102,-0.007
738,-0.102,-0.007
739,-0.102,-0.007
740,-0.104,-0.013
741,-0.105,-0.013
742,-0.106,-0.013
743,-0.107,-0.013
744,-0.108,-0.018
745,-0.108,-0.018
746,-0.109,-0.018
747,-0.111,-0.018
748,-0.111,-0.023
749,-0.112,-0.023
750,-0.113,-0.023
751,-0.113,-0.023
752,-0.113,-0.029
753,-0.113,-0.029
754,-0.113,-0.029
755,-0.113,-0.029
756,-0.114,-0.035
757,-0.115,-0.035
758,-0.115,-0.035
759,-0.116,-0.035
760,-0.116,-0.041
761,-0.116,-0.041
762,-0.116,-0.041
763,-0.116,-0.041
764,-0.115,-0.049
765,-0.114,-0.049
766,-0.112,-0.049
767,-0.111,-0.049
768,-0.108,-0.055
769,-0.106,-0.055
770,-0.105,-0.055
771,-0.103,-0.055
772,-0.101,-0.062
773,-0.099,-0.062
774,-0.097,-0.062
775,-0.094,-0.062
776,-0.091,-0.069
777,-0.089,-0.069
778,-0.085,-0.069
779,-0.082,-0.069
780,-0.079,-0.075
781,-0.075,-0.075
782,-0.072,-0.075
783,-0.068,-0.075
784,-0.064,-0.082
785,-0.059,-0.082
786,-0.055,-0.082
787,-0.050,-0.082
788,-0.045,-0.089
789,-0.041,-0.089
790,-0.037,-0.089
791,-0.033,-0.089
792,-0.029,-0.094
793,-0.025,-0.094
794,-0.021,-0.094
795,-0.017,-0.094
796,-0.013,-0.101
797,-0.009,-0.101
798,-0.005,-0.101
799,-0.001,-0.101
800,0.003,-0.130
801,0.007,-0.130
802,0.010,-0.130
803,0.013,-0.130
804,0.016,-0.135
805,0.019,-0.135
806,0.022,-0.135
807,0.025,-0.135
808,0.027,-0.138
809,0.030,-0.138
810,0.031,-0.138
811,0.033,-0.138
812,0.034,-0.140
813,0.036,-0.140
814,0.038,-0.140
815,0.040,-0.140
816,0.040,-0.142
817,0.041,-0.142
818,0.042,-0.142
819,0.042,-0.142
820,0.043,-0.142
821,0.044,-0.142
822,0.044,-0.142
823,0.045,-0.142
824,0.045,-0.142
825,0.045,-0.142
826,0.045,-0.142
827,0.045,-0.142
828,0.045,-0.141
829,0.045,-0.141
830,0.045,-0.141
831,0.045,-0.141
832,0.045,-0.140
833,0.045,-0.140
834,0.045,-0.140
835,0.045,-0.140
836,0.045,-0.138
837,0.045,-0.138
838,0.045,-0.138
839,0.045,-0.138
840,0.044,-0.136
841,0.042,-0.136
842,0.041,-0.136
843,0.040,-0.136
844,0.040,-0.134
845,0.039,-0.134
846,0.038,-0.134
847,0.038,-0.134
848,0.037,-0.132
849,0.037,-0.132
850,0.037,-0.132
851,0.037,-0.132
852,0.036,-0.131
853,0.035,-0.131
854,0.035,-0.131
855,0.034,-0.131
856,0.034,-0.129
857,0.034,-0.129
858,0.034,-0.129
859,0.034,-0.129
860,0.033,-0.128
861,0.032,-0.128
862,0.032,-0.128
863,0.031,-0.128
864,0.031,-0.127
865,0.031,-0.127
866,0.031,-0.127
867,0.030,-0.127
868,0.029,-0.126
869,0.028,-0.126
870,0.026,-0.126
871,0.024,-0.126
872,0.023,-0.124
873,0.023,-0.124
874,0.022,-0.124
875,0.021,-0.124
876,0.021,-0.124
877,0.021,-0.124
878,0.021,-0.124
879,0.021,-0.124
880,0.021,-0.124
881,0.020,-0.124
882,0.019,-0.124
883,0.018,-0.124
884,0.017,-0.124
885,0.015,-0.124
886,0.014,-0.124
887,0.013,-0.124
888,0.013,-0.124
889,0.012,-0.124
890,0.012,-0.124
891,0.012,-0.124
892,0.012,-0.124
893,0.011,-0.124
894,0.010,-0.124
895,0.010,-0.124
896,0.008,-0.124
897,0.007,-0.124
898,0.006,-0.124
899,0.005,-0.124
900,0.004,-0.127
901,0.004,-0.127
902,0.003,-0.127
903,0.003,-0.127
904,0.002,-0.126
905,0.001,-0.126
906,0.001,-0.126
907,0.000,-0.126
908,-0.000,-0.127
909,-0.001,-0.127
910,-0.001,-0.127
911,-0.001,-0.127
912,-0.001,-0.126
913,-0.002,-0.126
914,-0.003,-0.126
915,-0.003,-0.126
916,-0.003,-0.124
917,-0.004,-0.124
918,-0.004,-0.124
919,-0.005,-0.124
920,-0.005,-0.124
921,-0.006,-0.124
922,-0.006,-0.124
923,-0.006,-0.124
924,-0.005,-0.124
925,-0.005,-0.124
926,-0.005,-0.124
927,-0.005,-0.124
928,-0.005,-0.123
929,-0.006,-0.123
930,-0.006,-0.123
931,-0.006,-0.123
932,-0.005,-0.121
933,-0.005,-0.121
934,-0.005,-0.121
935,-0.005,-0.121
936,-0.005,-0.120
937,-0.006,-0.120
938,-0.006,-0.120
939,-0.006,-0.120
940,-0.005,-0.118
941,-0.004,-0.118
942,-0.004,-0.118
943,-0.003,-0.118
944,-0.003,-0.118
945,-0.003,-0.118
946,-0.003,-0.118
947,-0.003,-0.118
948,-0.003,-0.117
949,-0.003,-0.117
950,-0.003,-0.117
951,-0.004,-0.117
952,-0.004,-0.117
953,-0.005,-0.117
954,-0.005,-0.117
955,-0.006,-0.117
956,-0.005,-0.117
957,-0.005,-0.117
958,-0.004,-0.117
959,-0.003,-0.117
960,-0.003,-0.116
961,-0.003,-0.116
962,-0.003,-0.116
963,-0.003,-0.116
964,-0.003,-0.117
965,-0.003,-0.117
966,-0.003,-0.117
967,-0.004,-0.117
968,-0.004,-0.117
969,-0.005,-0.117
970,-0.005,-0.117
971,-0.006,-0.117
972,-0.006,-0.118
973,-0.006,-0.118
974,-0.005,-0.118
975,-0.005,-0.118
976,-0.005,-0.117
977,-0.005,-0.117
978,-0.005,-0.117
979,-0.006,-0.117
980,-0.006,-0.117
981,-0.006,-0.117
982,-0.005,-0.117
983,-0.005,-0.117
984,-0.005,-0.117
985,-0.005,-0.117
986,-0.005,-0.117
987,-0.006,-0.117
988,-0.006,-0.116
989,-0.006,-0.116
990,-0.005,-0.116
991,-0.005,-0.116
992,-0.005,-0.116
993,-0.005,-0.116
994,-0.005,-0.116
995,-0.006,-0.116
996,-0.006,-0.115
997,-0.006,-0.115
998,-0.005,-0.115
999,-0.005,-0.115
1000,-0.005,-0.115
1001,-0.005,-0.115
1002,-0.005,-0.115
1003,-0.006,-0.115
1004,-0.005,-0.115
1005,-0.005,-0.115
1006,-0.004,-0.115
1007,-0.003,-0.115
1008,-0.003,-0.114
1009,-0.003,-0.114
1010,-0.003,-0.114
1011,-0.002,-0.114
1012,-0.001,-0.116
1013,0.000,-0.116
1014,0.002,-0.116
1015,0.004,-0.116
1016,0.006,-0.116
1017,0.009,-0.116
1018,0.011,-0.116
1019,0.014,-0.116
1020,0.017,-0.116
1021,0.020,-0.116
1022,0.022,-0.116
1023,0.025,-0.116
1024,0.027,-0.118
1025,0.030,-0.118
1026,0.031,-0.118
1027,0.033,-0.118
1028,0.034,-0.118
1029,0.034,-0.118
1030,0.034,-0.118
1031,0.034,-0.118
1032,0.035,-0.118
1033,0.035,-0.118
1034,0.037,-0.118
1035,0.038,-0.118
1036,0.041,-0.119
1037,0.044,-0.119
1038,0.046,-0.119
1039,0.049,-0.119
1040,0.052,-0.119
1041,0.055,-0.119
1042,0.057,-0.119
1043,0.059,-0.119
1044,0.059,-0.120
1045,0.059,-0.120
1046,0.059,-0.120
1047,0.059,-0.120
1048,0.060,-0.120
1049,0.060,-0.120
1050,0.062,-0.120
1051,0.064,-0.120
1052,0.066,-0.120
1053,0.068,-0.120
1054,0.070,-0.120
1055,0.072,-0.120
1056,0.071,-0.120
1057,0.070,-0.120
1058,0.066,-0.120
1059,0.062,-0.120
1060,0.056,-0.120
1061,0.050,-0.120
1062,0.042,-0.120
1063,0.034,-0.120
1064,0.027,-0.121
1065,0.020,-0.121
1066,0.015,-0.121
1067,0.011,-0.121
1068,0.009,-0.120
1069,0.007,-0.120
1070,0.005,-0.120
1071,0.004,-0.120
1072,0.001,-0.122
1073,-0.001,-0.122
1074,-0.004,-0.122
1075,-0.007,-0.122
1076,-0.010,-0.121
1077,-0.013,-0.121
1078,-0.016,-0.121
1079,-0.020,-0.121
1080,-0.022,-0.121
1081,-0.025,-0.121
1082,-0.026,-0.121
1083,-0.027,-0.121
1084,-0.027,-0.122
1085,-0.027,-0.122
1086,-0.027,-0.122
1087,-0.026,-0.122
1088,-0.026,-0.122
1089,-0.025,-0.122
1090,-0.024,-0.122
1091,-0.023,-0.122
1092,-0.023,-0.122
1093,-0.022,-0.122
1094,-0.021,-0.122
1095,-0.020,-0.122
1096,-0.020,-0.122
1097,-0.019,-0.122
1098,-0.018,-0.122
1099,-0.016,-0.122
1100,-0.016,-0.122
1101,-0.015,-0.122
1102,-0.015,-0.122
1103,-0.014,-0.122
1104,-0.014,-0.123
1105,-0.013,-0.123
1106,-0.014,-0.123
1107,-0.014,-0.123
1108,-0.014,-0.123
1109,-0.013,-0.123
1110,-0.012,-0.123
1111,-0.012,-0.123
1112,-0.011,-0.124
1113,-0.011,-0.124
1114,-0.011,-0.124
1115,-0.010,-0.124
1116,-0.011,-0.124
1117,-0.011,-0.124
1118,-0.011,-0.124
1119,-0.011,-0.124
1120,-0.011,-0.124
1121,-0.011,-0.124
1122,-0.011,-0.124
1123,-0.012,-0.124
1124,-0.012,-0.126
1125,-0.012,-0.126
1126,-0.012,-0.126
1127,-0.012,-0.126
1128,-0.011,-0.126
1129,-0.011,-0.126
1130,-0.010,-0.126
1131,-0.010,-0.126
1132,-0.009,-0.124
1133,-0.009,-0.124
1134,-0.008,-0.124
1135,-0.008,-0.124
1136,-0.008,-0.123
1137,-0.008,-0.123
1138,-0.008,-0.123
1139,-0.008,-0.123
1140,-0.008,-0.122
1141,-0.008,-0.122
1142,-0.008,-0.122
1143,-0.009,-0.122
1144,-0.010,-0.121
1145,-0.010,-0.121
1146,-0.010,-0.121
1147,-0.009,-0.121
1148,-0.008,-0.117
1149,-0.007,-0.117
1150,-0.006,-0.117
1151,-0.004,-0.117
1152,-0.002,-0.115
1153,0.001,-0.115
1154,0.004,-0.115
1155,0.007,-0.115
1156,0.011,-0.110
1157,0.015,-0.110
1158,0.019,-0.110
1159,0.023,-0.110
1160,0.027,-0.107
1161,0.031,-0.107
1162,0.033,-0.107
1163,0.035,-0.107
1164,0.035,-0.104
1165,0.035,-0.104
1166,0.033,-0.104
1167,0.031,-0.104
1168,0.023,-0.102
1169,0.016,-0.102
1170,0.000,-0.102
1171,-0.015,-0.102
1172,-0.040,-0.099
1173,-0.064,-0.099
1174,-0.098,-0.099
1175,-0.132,-0.099
1176,-0.170,-0.096
1177,-0.208,-0.096
1178,-0.243,-0.096
1179,-0.279,-0.096
1180,-0.306,-0.092
1181,-0.332,-0.092
1182,-0.346,-0.092
1183,-0.359,-0.092
1184,-0.360,-0.089
1185,-0.360,-0.089
1186,-0.351,-0.089
1187,-0.341,-0.089
1188,-0.325,-0.087
1189,-0.310,-0.087
1190,-0.294,-0.087
1191,-0.279,-0.087
1192,-0.269,-0.085
1193,-0.258,-0.085
1194,-0.257,-0.085
1195,-0.255,-0.085
1196,-0.263,-0.081
1197,-0.271,-0.081
1198,-0.286,-0.081
1199,-0.302,-0.081
1200,-0.322,-0.078
1201,-0.342,-0.078
1202,-0.362,-0.078
1203,-0.381,-0.078
1204,-0.395,-0.076
1205,-0.408,-0.076
1206,-0.413,-0.076
1207,-0.419,-0.076
1208,-0.415,-0.073
1209,-0.411,-0.073
1210,-0.400,-0.073
1211,-0.389,-0.073
1212,-0.372,-0.071
1213,-0.356,-0.071
1214,-0.335,-0.071
1215,-0.315,-0.071
1216,-0.291,-0.070
1217,-0.268,-0.070
1218,-0.245,-0.070
1219,-0.222,-0.070
1220,-0.202,-0.068
1221,-0.182,-0.068
1222,-0.167,-0.068
1223,-0.151,-0.068
1224,-0.138,-0.066
1225,-0.125,-0.066
1226,-0.113,-0.066
1227,-0.100,-0.066
1228,-0.085,-0.064
1229,-0.070,-0.064
1230,-0.052,-0.064
1231,-0.034,-0.064
1232,-0.015,-0.062
1233,0.003,-0.062
1234,0.020,-0.062
1235,0.038,-0.062
1236,0.053,-0.062
1237,0.068,-0.062
1238,0.080,-0.062
1239,0.091,-0.062
1240,0.098,-0.060
1241,0.105,-0.060
1242,0.109,-0.060
1243,0.113,-0.060
1244,0.116,-0.060
1245,0.119,-0.060
1246,0.120,-0.060
1247,0.121,-0.060
1248,0.121,-0.058
1249,0.121,-0.058
1250,0.120,-0.058
1251,0.119,-0.058
1252,0.119,-0.057
1253,0.118,-0.057
1254,0.117,-0.057
1255,0.117,-0.057
1256,0.117,-0.055
1257,0.116,-0.055
1258,0.116,-0.055
1259,0.116,-0.055
1260,0.117,-0.054
1261,0.117,-0.054
1262,0.117,-0.054
1263,0.118,-0.054
1264,0.118,-0.053
1265,0.118,-0.053
1266,0.117,-0.053
1267,0.117,-0.053
1268,0.117,-0.051
1269,0.116,-0.051
1270,0.116,-0.051
1271,0.116,-0.051
1272,0.115,-0.050
1273,0.115,-0.050
1274,0.115,-0.050
1275,0.115,-0.050
1276,0.115,-0.048
1277,0.114,-0.048
1278,0.113,-0.048
1279,0.113,-0.048
1280,0.112,-0.047
1281,0.112,-0.047
1282,0.112,-0.047
1283,0.112,-0.047
1284,0.112,-0.046
1285,0.112,-0.046
1286,0.112,-0.046
1287,0.111,-0.046
1288,0.111,-0.043
1289,0.110,-0.043
1290,0.110,-0.043
1291,0.110,-0.043
1292,0.110,-0.040
1293,0.111,-0.040
1294,0.111,-0.040
1295,0.112,-0.040
1296,0.113,-0.034
1297,0.113,-0.034
1298,0.114,-0.034
1299,0.114,-0.034
1300,0.115,-0.028
1301,0.115,-0.028
1302,0.115,-0.028
1303,0.115,-0.028
1304,0.115,-0.017
1305,0.116,-0.017
1306,0.117,-0.017
1307,0.118,-0.017
1308,0.119,-0.005
1309,0.121,-0.005
1310,0.122,-0.005
1311,0.124,-0.005
1312,0.125,0.008
1313,0.126,0.008
1314,0.127,0.008
1315,0.128,0.008
1316,0.129,0.024
1317,0.130,0.024
1318,0.132,0.024
1319,0.133,0.024
1320,0.134,0.042
1321,0.135,0.042
1322,0.137,0.042
1323,0.139,0.042
1324,0.141,0.059
1325,0.143,0.059
1326,0.145,0.059
1327,0.147,0.059
1328,0.149,0.077
1329,0.151,0.077
1330,0.153,0.077
1331,0.154,0.077
1332,0.156,0.095
1333,0.157,0.095
1334,0.157,0.095
1335,0.157,0.095
1336,0.158,0.112
1337,0.159,0.112
1338,0.160,0.112
1339,0.160,0.112
1340,0.160,0.129
1341,0.160,0.129
1342,0.160,0.129
1343,0.160,0.129
1344,0.160,0.144
1345,0.160,0.144
1346,0.160,0.144
1347,0.160,0.144
1348,0.160,0.160
1349,0.160,0.160
1350,0.161,0.160
1351,0.161,0.160
1352,0.162,0.173
1353,0.162,0.173
1354,0.163,0.173
1355,0.163,0.173
1356,0.163,0.189
1357,0.162,0.189
1358,0.161,0.189
1359,0.160,0.189
1360,0.159,0.203
1361,0.157,0.203
1362,0.156,0.203
1363,0.154,0.203
1364,0.153,0.214
1365,0.151,0.214
1366,0.150,0.214
1367,0.149,0.214
1368,0.146,0.227
1369,0.143,0.227
1370,0.141,0.227
1371,0.138,0.227
1372,0.137,0.238
1373,0.135,0.238
1374,0.134,0.238
1375,0.133,0.238
1376,0.132,0.248
1377,0.130,0.248
1378,0.129,0.248
1379,0.127,0.248
1380,0.126,0.256
1381,0.125,0.256
1382,0.123,0.256
1383,0.121,0.256
1384,0.120,0.262
1385,0.118,0.262
1386,0.117,0.262
1387,0.116,0.262
1388,0.114,0.265
1389,0.112,0.265
1390,0.111,0.265
1391,0.109,0.265
1392,0.108,0.265
1393,0.106,0.265
1394,0.105,0.265
1395,0.103,0.265
1396,0.102,0.261
1397,0.100,0.261
1398,0.098,0.261
1399,0.096,0.261
1400,0.094,0.255
1401,0.092,0.255
1402,0.091,0.255
1403,0.090,0.255
1404,0.090,0.247
1405,0.089,0.247
1406,0.090,0.247
1407,0.091,0.247
1408,0.093,0.234
1409,0.095,0.234
1410,0.100,0.234
1411,0.105,0.234
1412,0.112,0.223
1413,0.119,0.223
1414,0.129,0.223
1415,0.140,0.223
1416,0.153,0.209
1417,0.166,0.209
1418,0.182,0.209
1419,0.198,0.209
1420,0.216,0.196
1421,0.234,0.196
1422,0.256,0.196
1423,0.279,0.196
1424,0.307,0.181
1425,0.334,0.181
1426,0.367,0.181
1427,0.399,0.181
1428,0.434,0.168
1429,0.470,0.168
1430,0.505,0.168
1431,0.539,0.168
1432,0.567,0.154
1433,0.594,0.154
1434,0.608,0.154
1435,0.623,0.154
1436,0.621,0.141
1437,0.619,0.141
1438,0.601,0.141
1439,0.583,0.141
1440,0.551,0.129
1441,0.518,0.129
1442,0.474,0.129
1443,0.430,0.129
1444,0.378,0.118
1445,0.326,0.118
1446,0.271,0.118
1447,0.216,0.118
1448,0.165,0.108
1449,0.113,0.108
1450,0.073,0.108
1451,0.033,0.108
1452,0.005,0.098
1453,-0.023,0.098
1454,-0.040,0.098
1455,-0.058,0.098
1456,-0.069,0.088
1457,-0.080,0.088
1458,-0.085,0.088
1459,-0.091,0.088
1460,-0.092,0.080
1461,-0.093,0.080
1462,-0.091,0.080
1463,-0.090,0.080
1464,-0.091,0.071
1465,-0.091,0.071
1466,-0.099,0.071
1467,-0.107,0.071
1468,-0.121,0.062
1469,-0.136,0.062
1470,-0.154,0.062
1471,-0.173,0.062
1472,-0.190,0.051
1473,-0.207,0.051
1474,-0.220,0.051
1475,-0.233,0.051
1476,-0.242,0.045
1477,-0.251,0.045
1478,-0.260,0.045
1479,-0.269,0.045
1480,-0.281,0.036
1481,-0.293,0.036
1482,-0.309,0.036
1483,-0.325,0.036
1484,-0.339,0.029
1485,-0.353,0.029
1486,-0.360,0.029
1487,-0.367,0.029
1488,-0.362,0.019
1489,-0.356,0.019
1490,-0.341,0.019
1491,-0.325,0.019
1492,-0.304,0.013
1493,-0.282,0.013
1494,-0.260,0.013
1495,-0.238,0.013
1496,-0.217,0.004
1497,-0.197,0.004
1498,-0.180,0.004
1499,-0.162,0.004
1500,-0.150,-0.002
1501,-0.137,-0.002
1502,-0.128,-0.002
1503,-0.120,-0.002
1504,-0.115,-0.011
1505,-0.111,-0.011
1506,-0.107,-0.011
1507,-0.104,-0.011
1508,-0.103,-0.017
1509,-0.102,-0.017
1510,-0.102,-0.017
1511,-0.102,-0.017
1512,-0.102,-0.024
1513,-0.102,-0.024
1514,-0.102,-0.024
1515,-0.102,-0.024
1516,-0.101,-0.032
1517,-0.101,-0.032
1518,-0.100,-0.032
1519,-0.100,-0.032
1520,-0.099,-0.038
1521,-0.099,-0.038
1522,-0.099,-0.038
1523,-0.099,-0.038
1524,-0.100,-0.045
1525,-0.100,-0.045
1526,-0.101,-0.045
1527,-0.102,-0.045
1528,-0.102,-0.052
1529,-0.102,-0.052
1530,-0.102,-0.052
1531,-0.102,-0.052
1532,-0.104,-0.059
1533,-0.105,-0.059
1534,-0.105,-0.059
1535,-0.105,-0.059
1536,-0.105,-0.064
1537,-0.105,-0.064
1538,-0.105,-0.064
1539,-0.105,-0.064
1540,-0.105,-0.070
1541,-0.105,-0.070
1542,-0.105,-0.070
1543,-0.105,-0.070
1544,-0.105,-0.075
1545,-0.105,-0.075
1546,-0.105,-0.075
1547,-0.105,-0.075
1548,-0.105,-0.081
1549,-0.105,-0.081
1550,-0.104,-0.081
1551,-0.104,-0.081
1552,-0.103,-0.087
1553,-0.102,-0.087
1554,-0.100,-0.087
1555,-0.099,-0.087
1556,-0.097,-0.093
1557,-0.095,-0.093
1558,-0.093,-0.093
1559,-0.091,-0.093
1560,-0.088,-0.097
1561,-0.085,-0.097
1562,-0.082,-0.097
1563,-0.079,-0.097
1564,-0.076,-0.102
1565,-0.073,-0.102
1566,-0.070,-0.102
1567,-0.066,-0.102
1568,-0.061,-0.127
1569,-0.057,-0.127
1570,-0.053,-0.127
1571,-0.050,-0.127
1572,-0.047,-0.131
1573,-0.044,-0.131
1574,-0.040,-0.131
1575,-0.036,-0.131
1576,-0.032,-0.136
1577,-0.028,-0.136
1578,-0.024,-0.136
1579,-0.020,-0.136
1580,-0.015,-0.140
1581,-0.011,-0.140
1582,-0.006,-0.140
1583,-0.001,-0.140
1584,0.003,-0.144
1585,0.007,-0.144
1586,0.010,-0.144
1587,0.012,-0.144
1588,0.015,-0.148
1589,0.017,-0.148
1590,0.019,-0.148
1591,0.022,-0.148
1592,0.025,-0.152
1593,0.028,-0.152
1594,0.030,-0.152
1595,0.033,-0.152
1596,0.035,-0.154
1597,0.038,-0.154
1598,0.040,-0.154
1599,0.041,-0.154
1600,0.042,-0.157
1601,0.043,-0.157
1602,0.044,-0.157
1603,0.045,-0.157
1604,0.045,-0.159
1605,0.045,-0.159
1606,0.044,-0.159
1607,0.043,-0.159
1608,0.043,-0.162
1609,0.042,-0.162
1610,0.042,-0.162
1611,0.042,-0.162
1612,0.043,-0.163
1613,0.043,-0.163
1614,0.044,-0.163
1615,0.045,-0.163
1616,0.045,-0.163
1617,0.045,-0.163
1618,0.044,-0.163
1619,0.043,-0.163
1620,0.042,-0.165
1621,0.042,-0.165
1622,0.041,-0.165
1623,0.040,-0.165
1624,0.040,-0.164
1625,0.039,-0.164
1626,0.039,-0.164
1627,0.039,-0.164
1628,0.039,-0.165
1629,0.040,-0.165
1630,0.040,-0.165
1631,0.040,-0.165
1632,0.040,-0.166
1633,0.040,-0.166
1634,0.040,-0.166
1635,0.040,-0.166
1636,0.040,-0.165
1637,0.040,-0.165
1638,0.039,-0.165
1639,0.038,-0.165
1640,0.037,-0.165
1641,0.037,-0.165
1642,0.037,-0.165
1643,0.037,-0.165
1644,0.035,-0.165
1645,0.034,-0.165
1646,0.033,-0.165
1647,0.031,-0.165
1648,0.030,-0.165
1649,0.029,-0.165
1650,0.029,-0.165
1651,0.028,-0.165
1652,0.027,-0.164
1653,0.027,-0.164
1654,0.026,-0.164
1655,0.026,-0.164
1656,0.025,-0.162
1657,0.024,-0.162
1658,0.023,-0.162
1659,0.023,-0.162
1660,0.022,-0.160
1661,0.020,-0.160
1662,0.020,-0.160
1663,0.019,-0.160
1664,0.018,-0.159
1665,0.018,-0.159
1666,0.016,-0.159
1667,0.015,-0.159
1668,0.014,-0.157
1669,0.012,-0.157
1670,0.010,-0.157
1671,0.007,-0.157
1672,0.005,-0.157
1673,0.004,-0.157
1674,0.003,-0.157
1675,0.002,-0.157
1676,0.002,-0.155
1677,0.002,-0.155
1678,0.003,-0.155
1679,0.003,-0.155
1680,0.004,-0.154
1681,0.004,-0.154
1682,0.005,-0.154
1683,0.006,-0.154
1684,0.005,-0.153
1685,0.004,-0.153
1686,0.003,-0.153
1687,0.002,-0.153
1688,0.001,-0.152
1689,0.000,-0.152
1690,-0.000,-0.152
1691,-0.001,-0.152
1692,-0.000,-0.150
1693,0.000,-0.150
1694,-0.000,-0.150
1695,-0.001,-0.150
1696,-0.001,-0.149
1697,-0.002,-0.149
1698,-0.003,-0.149
1699,-0.004,-0.149
1700,-0.004,-0.150
1701,-0.005,-0.150
1702,-0.006,-0.150
1703,-0.007,-0.150
1704,-0.007,-0.148
1705,-0.008,-0.148
1706,-0.008,-0.148
1707,-0.008,-0.148
1708,-0.008,-0.147
1709,-0.008,-0.147
1710,-0.008,-0.147
1711,-0.008,-0.147
1712,-0.008,-0.146
1713,-0.008,-0.146
1714,-0.008,-0.146
1715,-0.009,-0.146
1716,-0.010,-0.146
1717,-0.011,-0.146
1718,-0.011,-0.146
1719,-0.012,-0.146
1720,-0.012,-0.145
1721,-0.013,-0.145
1722,-0.014,-0.145
1723,-0.014,-0.145
1724,-0.014,-0.145
1725,-0.013,-0.145
1726,-0.012,-0.145
1727,-0.012,-0.145
1728,-0.011,-0.145
1729,-0.011,-0.145
1730,-0.011,-0.145
1731,-0.011,-0.145
1732,-0.012,-0.145
1733,-0.013,-0.145
1734,-0.014,-0.145
1735,-0.015,-0.145
1736,-0.015,-0.143
1737,-0.015,-0.143
1738,-0.015,-0.143
1739,-0.015,-0.143
1740,-0.015,-0.144
1741,-0.015,-0.144
1742,-0.015,-0.144
1743,-0.015,-0.144
1744,-0.016,-0.144
1745,-0.018,-0.144
1746,-0.019,-0.144
1747,-0.020,-0.144
1748,-0.021,-0.143
1749,-0.021,-0.143
1750,-0.022,-0.143
1751,-0.022,-0.143
1752,-0.022,-0.143
1753,-0.021,-0.143
1754,-0.020,-0.143
1755,-0.020,-0.143
1756,-0.019,-0.143
1757,-0.018,-0.143
1758,-0.017,-0.143
1759,-0.016,-0.143
1760,-0.015,-0.143
1761,-0.014,-0.143
1762,-0.013,-0.143
1763,-0.012,-0.143
1764,-0.012,-0.144
1765,-0.012,-0.144
1766,-0.013,-0.144
1767,-0.013,-0.144
1768,-0.014,-0.143
1769,-0.015,-0.143
1770,-0.015,-0.143
1771,-0.016,-0.143
1772,-0.016,-0.144
1773,-0.017,-0.144
1774,-0.017,-0.144
1775,-0.018,-0.144
1776,-0.018,-0.143
1777,-0.018,-0.143
1778,-0.016,-0.143
1779,-0.015,-0.143
1780,-0.015,-0.144
1781,-0.014,-0.144
1782,-0.013,-0.144
1783,-0.012,-0.144
1784,-0.012,-0.145
1785,-0.011,-0.145
1786,-0.010,-0.145
1787,-0.008,-0.145
1788,-0.008,-0.146
1789,-0.008,-0.146
1790,-0.008,-0.146
1791,-0.008,-0.146
1792,-0.008,-0.147
1793,-0.009,-0.147
1794,-0.010,-0.147
1795,-0.011,-0.147
1796,-0.011,-0.148
1797,-0.012,-0.148
1798,-0.012,-0.148
1799,-0.012,-0.148
1800,-0.012,-0.149
1801,-0.012,-0.149
1802,-0.011,-0.149
1803,-0.010,-0.149
1804,-0.009,-0.151
1805,-0.007,-0.151
1806,-0.007,-0.151
1807,-0.006,-0.151
1808,-0.005,-0.152
1809,-0.005,-0.152
1810,-0.005,-0.152
1811,-0.005,-0.152
1812,-0.005,-0.154
1813,-0.006,-0.154
1814,-0.006,-0.154
1815,-0.006,-0.154
1816,-0.005,-0.155
1817,-0.005,-0.155
1818,-0.004,-0.155
1819,-0.004,-0.155
1820,-0.002,-0.157
1821,0.000,-0.157
1822,0.003,-0.157
1823,0.006,-0.157
1824,0.009,-0.157
1825,0.012,-0.157
1826,0.015,-0.157
1827,0.018,-0.157
1828,0.022,-0.159
1829,0.026,-0.159
1830,0.029,-0.159
1831,0.032,-0.159
1832,0.034,-0.160
1833,0.035,-0.160
1834,0.035,-0.160
1835,0.035,-0.160
1836,0.035,-0.162
1837,0.034,-0.162
1838,0.035,-0.162
1839,0.036,-0.162
1840,0.038,-0.163
1841,0.041,-0.163
1842,0.044,-0.163
1843,0.046,-0.163
1844,0.049,-0.165
1845,0.052,-0.165
1846,0.054,-0.165
1847,0.056,-0.165
1848,0.058,-0.166
1849,0.060,-0.166
1850,0.061,-0.166
1851,0.062,-0.166
1852,0.063,-0.167
1853,0.064,-0.167
1854,0.066,-0.167
1855,0.067,-0.167
1856,0.068,-0.169
1857,0.070,-0.169
1858,0.069,-0.169
1859,0.069,-0.169
1860,0.067,-0.169
1861,0.064,-0.169
1862,0.059,-0.169
1863,0.054,-0.169
1864,0.048,-0.170
1865,0.042,-0.170
1866,0.036,-0.170
1867,0.030,-0.170
1868,0.025,-0.170
1869,0.020,-0.170
1870,0.017,-0.170
1871,0.014,-0.170
1872,0.012,-0.171
1873,0.010,-0.171
1874,0.007,-0.171
1875,0.004,-0.171
1876,0.000,-0.171
1877,-0.004,-0.171
1878,-0.007,-0.171
1879,-0.010,-0.171
1880,-0.012,-0.171
1881,-0.015,-0.171
1882,-0.017,-0.171
1883,-0.020,-0.171
1884,-0.021,-0.170
1885,-0.023,-0.170
1886,-0.023,-0.170
1887,-0.024,-0.170
1888,-0.025,-0.169
1889,-0.025,-0.169
1890,-0.025,-0.169
1891,-0.024,-0.169
1892,-0.024,-0.167
1893,-0.024,-0.167
1894,-0.024,-0.167
1895,-0.024,-0.167
1896,-0.024,-0.165
1897,-0.023,-0.165
1898,-0.022,-0.165
1899,-0.021,-0.165
1900,-0.020,-0.164
1901,-0.018,-0.164
1902,-0.017,-0.164
1903,-0.016,-0.164
1904,-0.016,-0.161
1905,-0.016,-0.161
1906,-0.016,-0.161
1907,-0.016,-0.161
1908,-0.016,-0.159
1909,-0.016,-0.159
1910,-0.016,-0.159
1911,-0.016,-0.159
1912,-0.016,-0.157
1913,-0.016,-0.157
1914,-0.016,-0.157
1915,-0.017,-0.157
1916,-0.017,-0.154
1917,-0.018,-0.154
1918,-0.018,-0.154
1919,-0.018,-0.154
1920,-0.016,-0.152
1921,-0.015,-0.152
1922,-0.014,-0.152
1923,-0.013,-0.152
1924,-0.012,-0.149
1925,-0.011,-0.149
1926,-0.011,-0.149
1927,-0.010,-0.149
1928,-0.011,-0.147
1929,-0.011,-0.147
1930,-0.011,-0.147
1931,-0.011,-0.147
1932,-0.011,-0.145
1933,-0.011,-0.145
1934,-0.011,-0.145
1935,-0.011,-0.145
1936,-0.011,-0.143
1937,-0.010,-0.143
1938,-0.010,-0.143
1939,-0.010,-0.143
1940,-0.010,-0.141
1941,-0.010,-0.141
1942,-0.010,-0.141
1943,-0.010,-0.141
1944,-0.011,-0.138
1945,-0.012,-0.138
1946,-0.012,-0.138
1947,-0.012,-0.138
1948,-0.011,-0.135
1949,-0.010,-0.135
1950,-0.009,-0.135
1951,-0.007,-0.135
1952,-0.006,-0.133
1953,-0.005,-0.133
1954,-0.003,-0.133
1955,-0.001,-0.133
1956,0.001,-0.130
1957,0.004,-0.130
1958,0.008,-0.130
1959,0.012,-0.130
1960,0.019,-0.128
1961,0.025,-0.128
1962,0.032,-0.128
1963,0.040,-0.128
1964,0.047,-0.125
1965,0.055,-0.125
1966,0.062,-0.125
1967,0.069,-0.125
1968,0.074,-0.122
1969,0.079,-0.122
1970,0.080,-0.122
1971,0.082,-0.122
1972,0.078,-0.121
1973,0.074,-0.121
1974,0.062,-0.121
1975,0.050,-0.121
1976,0.027,-0.118
1977,0.004,-0.118
1978,-0.026,-0.118
1979,-0.057,-0.118
1980,-0.092,-0.116
1981,-0.127,-0.116
1982,-0.158,-0.116
1983,-0.190,-0.116
1984,-0.210,-0.115
1985,-0.231,-0.115
1986,-0.240,-0.115
1987,-0.249,-0.115
1988,-0.246,-0.113
1989,-0.243,-0.113
1990,-0.232,-0.113
1991,-0.221,-0.113
1992,-0.207,-0.113
1993,-0.193,-0.113
1994,-0.183,-0.113
1995,-0.172,-0.113
1996,-0.168,-0.112
1997,-0.163,-0.112
1998,-0.169,-0.112
1999,-0.174,-0.112
2000,-0.188,-0.110
2001,-0.202,-0.110
2002,-0.221,-0.110
2003,-0.239,-0.110
2004,-0.258,-0.108
2005,-0.277,-0.108
2006,-0.292,-0.108
2007,-0.308,-0.108
2008,-0.317,-0.107
2009,-0.326,-0.107
2010,-0.328,-0.107
2011,-0.329,-0.107
2012,-0.326,-0.105
2013,-0.323,-0.105
2014,-0.317,-0.105
2015,-0.311,-0.105
2016,-0.303,-0.103
2017,-0.296,-0.103
2018,-0.286,-0.103
2019,-0.277,-0.103
2020,-0.266,-0.103
2021,-0.255,-0.103
2022,-0.243,-0.103
2023,-0.232,-0.103
2024,-0.222,-0.102
2025,-0.212,-0.102
2026,-0.203,-0.102
2027,-0.193,-0.102
2028,-0.182,-0.100
2029,-0.171,-0.100
2030,-0.154,-0.100
2031,-0.138,-0.100
2032,-0.118,-0.099
2033,-0.098,-0.099
2034,-0.076,-0.099
2035,-0.053,-0.099
2036,-0.033,-0.097
2037,-0.013,-0.097
2038,0.003,-0.097
2039,0.020,-0.097
2040,0.033,-0.097
2041,0.045,-0.097
2042,0.056,-0.097
2043,0.066,-0.097
2044,0.074,-0.095
2045,0.083,-0.095
2046,0.088,-0.095
2047,0.093,-0.095
2048,0.095,-0.093
2049,0.097,-0.093
2050,0.098,-0.093
2051,0.098,-0.093
2052,0.097,-0.093
2053,0.096,-0.093
2054,0.095,-0.093
2055,0.094,-0.093
2056,0.093,-0.090
2057,0.093,-0.090
2058,0.093,-0.090
2059,0.094,-0.090
2060,0.093,-0.090
2061,0.093,-0.090
2062,0.092,-0.090
2063,0.091,-0.090
2064,0.091,-0.087
2065,0.091,-0.087
2066,0.091,-0.087
2067,0.091,-0.087
2068,0.091,-0.085
2069,0.091,-0.085
2070,0.093,-0.085
2071,0.094,-0.085
2072,0.095,-0.085
2073,0.097,-0.085
2074,0.098,-0.085
2075,0.099,-0.085
2076,0.099,-0.083
2077,0.100,-0.083
2078,0.099,-0.083
2079,0.099,-0.083
2080,0.098,-0.083
2081,0.098,-0.083
2082,0.097,-0.083
2083,0.096,-0.083
2084,0.094,-0.082
2085,0.093,-0.082
2086,0.092,-0.082
2087,0.091,-0.082
2088,0.091,-0.079
2089,0.091,-0.079
2090,0.092,-0.079
2091,0.093,-0.079
2092,0.093,-0.075
2093,0.094,-0.075
2094,0.094,-0.075
2095,0.094,-0.075
2096,0.093,-0.072
2097,0.093,-0.072
2098,0.092,-0.072
2099,0.091,-0.072
2100,0.091,-0.068
2101,0.091,-0.068
2102,0.091,-0.068
2103,0.091,-0.068
2104,0.092,-0.059
2105,0.093,-0.059
2106,0.093,-0.059
2107,0.093,-0.059
2108,0.093,-0.050
2109,0.092,-0.050
2110,0.093,-0.050
2111,0.093,-0.050
2112,0.094,-0.038
2113,0.095,-0.038
2114,0.097,-0.038
2115,0.099,-0.038
2116,0.101,-0.025
2117,0.102,-0.025
2118,0.104,-0.025
2119,0.105,-0.025
2120,0.106,-0.009
2121,0.107,-0.009
2122,0.108,-0.009
2123,0.108,-0.009
2124,0.109,0.009
2125,0.111,0.009
2126,0.112,0.009
2127,0.114,0.009
2128,0.115,0.028
2129,0.116,0.028
2130,0.115,0.028
2131,0.114,0.028
2132,0.113,0.049
2133,0.113,0.049
2134,0.113,0.049
2135,0.113,0.049
2136,0.114,0.068
2137,0.116,0.068
2138,0.119,0.068
2139,0.121,0.068
2140,0.126,0.088
2141,0.130,0.088
2142,0.135,0.088
2143,0.140,0.088
2144,0.143,0.105
2145,0.146,0.105
2146,0.146,0.105
2147,0.146,0.105
2148,0.143,0.124
2149,0.141,0.124
2150,0.138,0.124
2151,0.135,0.124
2152,0.133,0.141
2153,0.130,0.141
2154,0.129,0.141
2155,0.127,0.141
2156,0.127,0.157
2157,0.126,0.157
2158,0.126,0.157
2159,0.127,0.157
2160,0.129,0.172
2161,0.131,0.172
2162,0.132,0.172
2163,0.134,0.172
2164,0.134,0.187
2165,0.134,0.187
2166,0.133,0.187
2167,0.132,0.187
2168,0.130,0.200
2169,0.128,0.200
2170,0.125,0.200
2171,0.121,0.200
2172,0.119,0.211
2173,0.117,0.211
2174,0.116,0.211
2175,0.115,0.211
2176,0.115,0.220
2177,0.115,0.220
2178,0.115,0.220
2179,0.115,0.220
2180,0.115,0.230
2181,0.115,0.230
2182,0.114,0.230
2183,0.113,0.230
2184,0.112,0.234
2185,0.111,0.234
2186,0.109,0.234
2187,0.108,0.234
2188,0.107,0.238
2189,0.106,0.238
2190,0.105,0.238
2191,0.104,0.238
2192,0.103,0.239
2193,0.102,0.239
2194,0.101,0.239
2195,0.100,0.239
2196,0.100,0.238
2197,0.099,0.238
2198,0.097,0.238
2199,0.095,0.238
2200,0.094,0.234
2201,0.094,0.234
2202,0.093,0.234
2203,0.092,0.234
2204,0.092,0.229
2205,0.091,0.229
2206,0.091,0.229
2207,0.090,0.229
2208,0.089,0.219
2209,0.089,0.219
2210,0.088,0.219
2211,0.088,0.219
2212,0.088,0.209
2213,0.089,0.209
2214,0.090,0.209
2215,0.092,0.209
2216,0.095,0.197
2217,0.099,0.197
2218,0.106,0.197
2219,0.113,0.197
2220,0.123,0.184
2221,0.134,0.184
2222,0.147,0.184
2223,0.161,0.184
2224,0.177,0.172
2225,0.193,0.172
2226,0.211,0.172
2227,0.230,0.172
2228,0.251,0.157
2229,0.271,0.157
2230,0.297,0.157
2231,0.323,0.157
2232,0.354,0.144
2233,0.386,0.144
2234,0.422,0.144
2235,0.457,0.144
2236,0.493,0.131
2237,0.529,0.131
2238,0.558,0.131
2239,0.587,0.131
2240,0.605,0.120
2241,0.623,0.120
2242,0.626,0.120
2243,0.629,0.120
2244,0.618,0.108
2245,0.607,0.108
2246,0.583,0.108
2247,0.558,0.108
2248,0.519,0.098
2249,0.480,0.098
2250,0.429,0.098
2251,0.378,0.098
2252,0.323,0.087
2253,0.269,0.087
2254,0.217,0.087
2255,0.165,0.087
2256,0.125,0.077
2257,0.084,0.077
2258,0.056,0.077
2259,0.028,0.077
2260,0.011,0.068
2261,-0.007,0.068
2262,-0.017,0.068
2263,-0.027,0.068
2264,-0.034,0.059
2265,-0.040,0.059
2266,-0.045,0.059
2267,-0.050,0.059
2268,-0.055,0.051
2269,-0.059,0.051
2270,-0.065,0.051
2271,-0.071,0.051
2272,-0.080,0.042
2273,-0.089,0.042
2274,-0.101,0.042
2275,-0.114,0.042
2276,-0.130,0.032
2277,-0.146,0.032
2278,-0.162,0.032
2279,-0.179,0.032
2280,-0.194,0.024
2281,-0.209,0.024
2282,-0.222,0.024
2283,-0.235,0.024
2284,-0.248,0.015
2285,-0.261,0.015
2286,-0.276,0.015
2287,-0.291,0.015
2288,-0.306,0.007
2289,-0.322,0.007
2290,-0.336,0.007
2291,-0.349,0.007
2292,-0.355,-0.001
2293,-0.361,-0.001
2294,-0.356,-0.001
2295,-0.352,-0.001
2296,-0.337,-0.009
2297,-0.321,-0.009
2298,-0.299,-0.009
2299,-0.277,-0.009
2300,-0.253,-0.018
2301,-0.229,-0.018
2302,-0.206,-0.018
2303,-0.184,-0.018
2304,-0.165,-0.024
2305,-0.146,-0.024
2306,-0.132,-0.024
2307,-0.118,-0.024
2308,-0.108,-0.032
2309,-0.099,-0.032
2310,-0.093,-0.032
2311,-0.086,-0.032
2312,-0.084,-0.038
2313,-0.081,-0.038
2314,-0.080,-0.038
2315,-0.078,-0.038
2316,-0.078,-0.045
2317,-0.077,-0.045
2318,-0.076,-0.045
2319,-0.075,-0.045
2320,-0.075,-0.052
2321,-0.075,-0.052
2322,-0.075,-0.052
2323,-0.076,-0.052
2324,-0.077,-0.058
2325,-0.078,-0.058
2326,-0.079,-0.058
2327,-0.080,-0.058
2328,-0.080,-0.064
2329,-0.081,-0.064
2330,-0.081,-0.064
2331,-0.080,-0.064
2332,-0.080,-0.070
2333,-0.080,-0.070
2334,-0.080,-0.070
2335,-0.080,-0.070
2336,-0.080,-0.094
2337,-0.080,-0.094
2338,-0.081,-0.094
2339,-0.082,-0.094
2340,-0.083,-0.099
2341,-0.085,-0.099
2342,-0.086,-0.099
2343,-0.087,-0.099
2344,-0.087,-0.103
2345,-0.088,-0.103
2346,-0.089,-0.103
2347,-0.090,-0.103
2348,-0.090,-0.110
2349,-0.090,-0.110
2350,-0.090,-0.110
2351,-0.089,-0.110
2352,-0.089,-0.115
2353,-0.089,-0.115
2354,-0.089,-0.115
2355,-0.089,-0.115
2356,-0.088,-0.120
2357,-0.088,-0.120
2358,-0.087,-0.120
2359,-0.086,-0.120
2360,-0.086,-0.124
2361,-0.085,-0.124
2362,-0.083,-0.124
2363,-0.082,-0.124
2364,-0.080,-0.129
2365,-0.078,-0.129
2366,-0.075,-0.129
2367,-0.073,-0.129
2368,-0.071,-0.134
2369,-0.069,-0.134
2370,-0.066,-0.134
2371,-0.064,-0.134
2372,-0.061,-0.138
2373,-0.059,-0.138
2374,-0.056,-0.138
2375,-0.053,-0.138
2376,-0.050,-0.141
2377,-0.046,-0.141
2378,-0.042,-0.141
2379,-0.038,-0.141
2380,-0.033,-0.145
2381,-0.029,-0.145
2382,-0.024,-0.145
2383,-0.019,-0.145
2384,-0.015,-0.149
2385,-0.012,-0.149
2386,-0.008,-0.149
2387,-0.004,-0.149
2388,0.000,-0.151
2389,0.004,-0.151
2390,0.008,-0.151
2391,0.012,-0.151
2392,0.016,-0.154
2393,0.020,-0.154
2394,0.023,-0.154
2395,0.026,-0.154
2396,0.029,-0.157
2397,0.033,-0.157
2398,0.036,-0.157
2399,0.039,-0.157
2400,0.041,-0.160
2401,0.043,-0.160
2402,0.045,-0.160
2403,0.046,-0.160
2404,0.047,-0.161
2405,0.048,-0.161
2406,0.050,-0.161
2407,0.051,-0.161
2408,0.052,-0.164
2409,0.053,-0.164
2410,0.054,-0.164
2411,0.054,-0.164
2412,0.055,-0.164
2413,0.056,-0.164
2414,0.056,-0.164
2415,0.057,-0.164
2416,0.058,-0.165
2417,0.059,-0.165
2418,0.059,-0.165
2419,0.059,-0.165
2420,0.060,-0.165
2421,0.061,-0.165
2422,0.061,-0.165
2423,0.061,-0.165
2424,0.061,-0.165
2425,0.061,-0.165
2426,0.060,-0.165
2427,0.059,-0.165
2428,0.059,-0.165
2429,0.058,-0.165
2430,0.057,-0.165
2431,0.056,-0.165
2432,0.056,-0.164
2433,0.055,-0.164
2434,0.054,-0.164
2435,0.053,-0.164
2436,0.052,-0.163
2437,0.050,-0.163
2438,0.050,-0.163
2439,0.050,-0.163
2440,0.049,-0.162
2441,0.048,-0.162
2442,0.048,-0.162
2443,0.047,-0.162
2444,0.046,-0.163
2445,0.045,-0.163
2446,0.045,-0.163
2447,0.045,-0.163
2448,0.044,-0.161
2449,0.043,-0.161
2450,0.043,-0.161
2451,0.042,-0.161
2452,0.042,-0.160
2453,0.042,-0.160
2454,0.042,-0.160
2455,0.042,-0.160
2456,0.041,-0.160
2457,0.040,-0.160
2458,0.038,-0.160
2459,0.037,-0.160
2460,0.035,-0.158
2461,0.034,-0.158
2462,0.034,-0.158
2463,0.034,-0.158
2464,0.033,-0.157
2465,0.032,-0.157
2466,0.031,-0.157
2467,0.030,-0.157
2468,0.029,-0.157
2469,0.028,-0.157
2470,0.026,-0.157
2471,0.025,-0.157
2472,0.025,-0.156
2473,0.024,-0.156
2474,0.024,-0.156
2475,0.023,-0.156
2476,0.023,-0.154
2477,0.023,-0.154
2478,0.022,-0.154
2479,0.022,-0.154
2480,0.022,-0.153
2481,0.021,-0.153
2482,0.021,-0.153
2483,0.021,-0.153
2484,0.021,-0.153
2485,0.020,-0.153
2486,0.020,-0.153
2487,0.019,-0.153
2488,0.018,-0.152
2489,0.018,-0.152
2490,0.017,-0.152
2491,0.016,-0.152
2492,0.016,-0.151
2493,0.015,-0.151
2494,0.015,-0.151
2495,0.014,-0.151
2496,0.013,-0.151
2497,0.012,-0.151
2498,0.012,-0.151
2499,0.012,-0.151
2500,0.011,-0.150
2501,0.010,-0.150
2502,0.009,-0.150
2503,0.008,-0.150
2504,0.007,-0.149
2505,0.007,-0.149
2506,0.006,-0.149
2507,0.006,-0.149
2508,0.005,-0.147
2509,0.004,-0.147
2510,0.005,-0.147
2511,0.005,-0.147
2512,0.005,-0.148
2513,0.006,-0.148
2514,0.006,-0.148
2515,0.007,-0.148
2516,0.007,-0.146
2517,0.007,-0.146
2518,0.007,-0.146
2519,0.007,-0.146
2520,0.007,-0.146
2521,0.007,-0.146
2522,0.007,-0.146
2523,0.007,-0.146
2524,0.008,-0.144
2525,0.008,-0.144
2526,0.008,-0.144
2527,0.008,-0.144
2528,0.008,-0.144
2529,0.008,-0.144
2530,0.008,-0.144
2531,0.007,-0.144
2532,0.007,-0.142
2533,0.006,-0.142
2534,0.005,-0.142
2535,0.004,-0.142
2536,0.004,-0.141
2537,0.004,-0.141
2538,0.004,-0.141
2539,0.005,-0.141
2540,0.006,-0.140
2541,0.007,-0.140
2542,0.008,-0.140
2543,0.009,-0.140
2544,0.009,-0.140
2545,0.010,-0.140
2546,0.009,-0.140
2547,0.009,-0.140
2548,0.008,-0.139
2549,0.007,-0.139
2550,0.006,-0.139
2551,0.006,-0.139
2552,0.005,-0.139
2553,0.004,-0.139
2554,0.005,-0.139
2555,0.005,-0.139
2556,0.005,-0.137
2557,0.005,-0.137
2558,0.005,-0.137
2559,0.005,-0.137
2560,0.005,-0.136
2561,0.005,-0.136
2562,0.005,-0.136
2563,0.005,-0.136
2564,0.005,-0.135
2565,0.005,-0.135
2566,0.005,-0.135
2567,0.006,-0.135
2568,0.007,-0.136
2569,0.007,-0.136
2570,0.008,-0.136
2571,0.009,-0.136
2572,0.010,-0.136
2573,0.010,-0.136
2574,0.011,-0.136
2575,0.011,-0.136
2576,0.011,-0.136
2577,0.010,-0.136
2578,0.010,-0.136
2579,0.010,-0.136
2580,0.010,-0.136
2581,0.010,-0.136
2582,0.010,-0.136
2583,0.010,-0.136
2584,0.009,-0.136
2585,0.008,-0.136
2586,0.008,-0.136
2587,0.007,-0.136
2588,0.008,-0.136
2589,0.008,-0.136
2590,0.008,-0.136
2591,0.008,-0.136
2592,0.008,-0.137
2593,0.008,-0.137
2594,0.008,-0.137
2595,0.008,-0.137
2596,0.008,-0.137
2597,0.008,-0.137
2598,0.008,-0.137
2599,0.008,-0.137
2600,0.008,-0.138
2601,0.008,-0.138
2602,0.008,-0.138
2603,0.008,-0.138
2604,0.008,-0.138
2605,0.009,-0.138
2606,0.010,-0.138
2607,0.011,-0.138
2608,0.013,-0.140
2609,0.015,-0.140
2610,0.017,-0.140
2611,0.020,-0.140
2612,0.022,-0.141
2613,0.025,-0.141
2614,0.028,-0.141
2615,0.031,-0.141
2616,0.033,-0.142
2617,0.036,-0.142
2618,0.038,-0.142
2619,0.040,-0.142
2620,0.042,-0.142
2621,0.044,-0.142
2622,0.046,-0.142
2623,0.048,-0.142
2624,0.050,-0.143
2625,0.052,-0.143
2626,0.053,-0.143
2627,0.054,-0.143
2628,0.055,-0.144
2629,0.056,-0.144
2630,0.058,-0.144
2631,0.060,-0.144
2632,0.063,-0.144
2633,0.065,-0.144
2634,0.068,-0.144
2635,0.070,-0.144
2636,0.072,-0.146
2637,0.075,-0.146
2638,0.076,-0.146
2639,0.078,-0.146
2640,0.078,-0.146
2641,0.078,-0.146
2642,0.078,-0.146
2643,0.078,-0.146
2644,0.079,-0.148
2645,0.080,-0.148
2646,0.082,-0.148
2647,0.083,-0.148
2648,0.085,-0.148
2649,0.086,-0.148
2650,0.085,-0.148
2651,0.084,-0.148
2652,0.081,-0.149
2653,0.078,-0.149
2654,0.072,-0.149
2655,0.067,-0.149
2656,0.060,-0.149
2657,0.053,-0.149
2658,0.045,-0.149
2659,0.037,-0.149
2660,0.031,-0.150
2661,0.026,-0.150
2662,0.022,-0.150
2663,0.019,-0.150
2664,0.017,-0.151
2665,0.015,-0.151
2666,0.014,-0.151
2667,0.012,-0.151
2668,0.009,-0.151
2669,0.007,-0.151
2670,0.004,-0.151
2671,0.001,-0.151
2672,-0.003,-0.150
2673,-0.007,-0.150
2674,-0.010,-0.150
2675,-0.012,-0.150
2676,-0.014,-0.151
2677,-0.016,-0.151
2678,-0.017,-0.151
2679,-0.018,-0.151
2680,-0.018,-0.151
2681,-0.019,-0.151
2682,-0.019,-0.151
2683,-0.019,-0.151
2684,-0.019,-0.151
2685,-0.018,-0.151
2686,-0.017,-0.151
2687,-0.016,-0.151
2688,-0.015,-0.150
2689,-0.013,-0.150
2690,-0.012,-0.150
2691,-0.011,-0.150
2692,-0.010,-0.149
2693,-0.010,-0.149
2694,-0.009,-0.149
2695,-0.009,-0.149
2696,-0.008,-0.148
2697,-0.008,-0.148
2698,-0.008,-0.148
2699,-0.007,-0.148
2700,-0.007,-0.147
2701,-0.006,-0.147
2702,-0.005,-0.147
2703,-0.004,-0.147
2704,-0.003,-0.145
2705,-0.002,-0.145
2706,-0.001,-0.145
2707,-0.001,-0.145
2708,-0.001,-0.143
2709,-0.001,-0.143
2710,-0.001,-0.143
2711,-0.002,-0.143
2712,-0.003,-0.142
2713,-0.003,-0.142
2714,-0.003,-0.142
2715,-0.002,-0.142
2716,-0.001,-0.141
2717,0.000,-0.141
2718,0.001,-0.141
2719,0.003,-0.141
2720,0.004,-0.139
2721,0.005,-0.139
2722,0.005,-0.139
2723,0.005,-0.139
2724,0.004,-0.137
2725,0.003,-0.137
2726,0.003,-0.137
2727,0.002,-0.137
2728,0.002,-0.137
2729,0.002,-0.137
2730,0.002,-0.137
2731,0.002,-0.137
2732,0.003,-0.135
2733,0.003,-0.135
2734,0.003,-0.135
2735,0.004,-0.135
2736,0.004,-0.133
2737,0.004,-0.133
2738,0.003,-0.133
2739,0.002,-0.133
2740,0.003,-0.132
2741,0.003,-0.132
2742,0.004,-0.132
2743,0.004,-0.132
2744,0.005,-0.130
2745,0.006,-0.130
2746,0.006,-0.130
2747,0.007,-0.130
2748,0.009,-0.129
2749,0.012,-0.129
2750,0.016,-0.129
2751,0.020,-0.129
2752,0.025,-0.126
2753,0.029,-0.126
2754,0.034,-0.126
2755,0.039,-0.126
2756,0.043,-0.125
2757,0.048,-0.125
2758,0.051,-0.125
2759,0.054,-0.125
2760,0.056,-0.122
2761,0.058,-0.122
2762,0.056,-0.122
2763,0.053,-0.122
2764,0.045,-0.121
2765,0.036,-0.121
2766,0.018,-0.121
2767,0.000,-0.121
2768,-0.027,-0.119
2769,-0.053,-0.119
2770,-0.086,-0.119
2771,-0.119,-0.119
2772,-0.153,-0.116
2773,-0.187,-0.116
2774,-0.217,-0.116
2775,-0.246,-0.116
2776,-0.265,-0.115
2777,-0.283,-0.115
2778,-0.289,-0.115
2779,-0.296,-0.115
2780,-0.291,-0.114
2781,-0.285,-0.114
2782,-0.273,-0.114
2783,-0.261,-0.114
2784,-0.247,-0.112
2785,-0.233,-0.112
2786,-0.221,-0.112
2787,-0.209,-0.112
2788,-0.206,-0.111
2789,-0.203,-0.111
2790,-0.209,-0.111
2791,-0.216,-0.111
2792,-0.231,-0.108
2793,-0.247,-0.108
2794,-0.269,-0.108
2795,-0.291,-0.108
2796,-0.313,-0.107
2797,-0.335,-0.107
2798,-0.354,-0.107
2799,-0.372,-0.107
2800,-0.383,-0.105
2801,-0.393,-0.105
2802,-0.393,-0.105
2803,-0.394,-0.105
2804,-0.387,-0.104
2805,-0.381,-0.104
2806,-0.368,-0.104
2807,-0.356,-0.104
2808,-0.338,-0.104
2809,-0.321,-0.104
2810,-0.300,-0.104
2811,-0.280,-0.104
2812,-0.257,-0.102
2813,-0.234,-0.102
2814,-0.213,-0.102
2815,-0.191,-0.102
2816,-0.173,-0.102
2817,-0.155,-0.102
2818,-0.142,-0.102
2819,-0.129,-0.102
2820,-0.117,-0.101
2821,-0.105,-0.101
2822,-0.093,-0.101
2823,-0.080,-0.101
2824,-0.064,-0.101
2825,-0.048,-0.101
2826,-0.031,-0.101
2827,-0.013,-0.101
2828,0.005,-0.099
2829,0.023,-0.099
2830,0.038,-0.099
2831,0.054,-0.099
2832,0.067,-0.098
2833,0.080,-0.098
2834,0.088,-0.098
2835,0.096,-0.098
2836,0.100,-0.097
2837,0.104,-0.097
2838,0.106,-0.097
2839,0.108,-0.097
2840,0.109,-0.097
2841,0.110,-0.097
2842,0.110,-0.097
2843,0.110,-0.097
2844,0.110,-0.095
2845,0.110,-0.095
2846,0.110,-0.095
2847,0.110,-0.095
2848,0.110,-0.095
2849,0.110,-0.095
2850,0.109,-0.095
2851,0.109,-0.095
2852,0.108,-0.094
2853,0.108,-0.094
2854,0.107,-0.094
2855,0.106,-0.094
2856,0.106,-0.093
2857,0.107,-0.093
2858,0.107,-0.093
2859,0.107,-0.093
2860,0.107,-0.092
2861,0.107,-0.092
2862,0.107,-0.092
2863,0.107,-0.092
2864,0.107,-0.090
2865,0.107,-0.090
2866,0.106,-0.090
2867,0.106,-0.090
2868,0.105,-0.089
2869,0.104,-0.089
2870,0.103,-0.089
2871,0.102,-0.089
2872,0.101,-0.089
2873,0.100,-0.089
2874,0.100,-0.089
2875,0.100,-0.089
2876,0.099,-0.086
2877,0.099,-0.086
2878,0.100,-0.086
2879,0.101,-0.086
2880,0.101,-0.085
2881,0.101,-0.085
2882,0.100,-0.085
2883,0.100,-0.085
2884,0.098,-0.084
2885,0.097,-0.084
2886,0.097,-0.084
2887,0.097,-0.084
2888,0.096,-0.077
2889,0.095,-0.077
2890,0.094,-0.077
2891,0.094,-0.077
2892,0.093,-0.071
2893,0.093,-0.071
2894,0.093,-0.071
2895,0.094,-0.071
2896,0.094,-0.063
2897,0.094,-0.063
2898,0.094,-0.063
2899,0.094,-0.063
2900,0.094,-0.054
2901,0.094,-0.054
2902,0.095,-0.054
2903,0.096,-0.054
2904,0.096,-0.041
2905,0.097,-0.041
2906,0.098,-0.041
2907,0.099,-0.041
2908,0.101,-0.026
2909,0.103,-0.026
2910,0.105,-0.026
2911,0.108,-0.026
2912,0.109,-0.009
2913,0.111,-0.009
2914,0.112,-0.009
2915,0.113,-0.009
2916,0.114,0.007
2917,0.115,0.007
2918,0.115,0.007
2919,0.115,0.007
2920,0.115,0.025
2921,0.116,0.025
2922,0.117,0.025
2923,0.118,0.025
2924,0.119,0.041
2925,0.121,0.041
2926,0.123,0.041
2927,0.124,0.041
2928,0.126,0.058
2929,0.128,0.058
2930,0.130,0.058
2931,0.132,0.058
2932,0.133,0.075
2933,0.135,0.075
2934,0.136,0.075
2935,0.137,0.075
2936,0.138,0.091
2937,0.140,0.091
2938,0.141,0.091
2939,0.142,0.091
2940,0.143,0.108
2941,0.145,0.108
2942,0.147,0.108
2943,0.149,0.108
2944,0.150,0.123
2945,0.151,0.123
2946,0.153,0.123
2947,0.154,0.123
2948,0.154,0.139
2949,0.155,0.139
2950,0.155,0.139
2951,0.155,0.139
2952,0.155,0.153
2953,0.155,0.153
2954,0.155,0.153
2955,0.155,0.153
2956,0.155,0.166
2957,0.154,0.166
2958,0.153,0.166
2959,0.152,0.166
2960,0.151,0.179
2961,0.149,0.179
2962,0.148,0.179
2963,0.146,0.179
2964,0.145,0.191
2965,0.143,0.191
2966,0.142,0.191
2967,0.141,0.191
2968,0.139,0.202
2969,0.138,0.202
2970,0.136,0.202
2971,0.134,0.202
2972,0.133,0.211
2973,0.132,0.211
2974,0.132,0.211
2975,0.131,0.211
2976,0.130,0.219
2977,0.128,0.219
2978,0.127,0.219
2979,0.127,0.219
2980,0.125,0.222
2981,0.124,0.222
2982,0.122,0.222
2983,0.121,0.222
2984,0.119,0.225
2985,0.118,0.225
2986,0.117,0.225
2987,0.116,0.225
2988,0.115,0.225
2989,0.114,0.225
2990,0.113,0.225
2991,0.112,0.225
2992,0.111,0.222
2993,0.109,0.222
2994,0.108,0.222
2995,0.106,0.222
2996,0.105,0.215
2997,0.104,0.215
2998,0.104,0.215
2999,0.104,0.215
3000,0.105,0.207
3001,0.106,0.207
3002,0.111,0.207
3003,0.115,0.207
3004,0.122,0.198
3005,0.130,0.198
3006,0.139,0.198
3007,0.149,0.198
3008,0.160,0.186
3009,0.171,0.186
3010,0.185,0.186
3011,0.199,0.186
3012,0.215,0.173
3013,0.231,0.173
3014,0.250,0.173
3015,0.270,0.173
3016,0.295,0.160
3017,0.320,0.160
3018,0.349,0.160
3019,0.379,0.160
3020,0.413,0.145
3021,0.448,0.145
3022,0.482,0.145
3023,0.517,0.145
3024,0.545,0.133
3025,0.573,0.133
3026,0.589,0.133
3027,0.605,0.133
3028,0.606,0.118
3029,0.607,0.118
3030,0.593,0.118
3031,0.579,0.118
3032,0.551,0.106
3033,0.523,0.106
3034,0.483,0.106
3035,0.443,0.106
3036,0.393,0.094
3037,0.344,0.094
3038,0.290,0.094
3039,0.236,0.094
3040,0.185,0.083
3041,0.134,0.083
3042,0.091,0.083
3043,0.048,0.083
3044,0.017,0.071
3045,-0.015,0.071
3046,-0.035,0.071
3047,-0.055,0.071
3048,-0.067,0.060
3049,-0.079,0.060
3050,-0.085,0.060
3051,-0.090,0.060
3052,-0.089,0.051
3053,-0.089,0.051
3054,-0.086,0.051
3055,-0.083,0.051
3056,-0.081,0.042
3057,-0.080,0.042
3058,-0.085,0.042
3059,-0.091,0.042
3060,-0.105,0.033
3061,-0.119,0.033
3062,-0.137,0.033
3063,-0.156,0.033
3064,-0.174,0.025
3065,-0.192,0.025
3066,-0.206,0.025
3067,-0.220,0.025
3068,-0.230,0.013
3069,-0.240,0.013
3070,-0.249,0.013
3071,-0.258,0.013
3072,-0.268,0.006
3073,-0.279,0.006
3074,-0.293,0.006
3075,-0.307,0.006
3076,-0.321,-0.003
3077,-0.335,-0.003
3078,-0.344,-0.003
3079,-0.352,-0.003
3080,-0.349,-0.009
3081,-0.346,-0.009
3082,-0.332,-0.009
3083,-0.318,-0.009
3084,-0.296,-0.018
3085,-0.274,-0.018
3086,-0.251,-0.018
3087,-0.228,-0.018
3088,-0.207,-0.025
3089,-0.185,-0.025
3090,-0.166,-0.025
3091,-0.148,-0.025
3092,-0.134,-0.033
3093,-0.121,-0.033
3094,-0.112,-0.033
3095,-0.104,-0.033
3096,-0.099,-0.040
3097,-0.094,-0.040
3098,-0.091,-0.040
3099,-0.088,-0.040
3100,-0.086,-0.048
3101,-0.085,-0.048
3102,-0.084,-0.048
3103,-0.083,-0.048
3104,-0.081,-0.056
3105,-0.080,-0.056
3106,-0.079,-0.056
3107,-0.078,-0.056
3108,-0.079,-0.063
3109,-0.080,-0.063
3110,-0.081,-0.063
3111,-0.082,-0.063
3112,-0.082,-0.069
3113,-0.083,-0.069
3114,-0.083,-0.069
3115,-0.083,-0.069
3116,-0.083,-0.075
3117,-0.083,-0.075
3118,-0.082,-0.075
3119,-0.081,-0.075
3120,-0.081,-0.083
3121,-0.080,-0.083
3122,-0.082,-0.083
3123,-0.083,-0.083
3124,-0.083,-0.089
3125,-0.084,-0.089
3126,-0.085,-0.089
3127,-0.086,-0.089
3128,-0.086,-0.095
3129,-0.087,-0.095
3130,-0.087,-0.095
3131,-0.087,-0.095
3132,-0.087,-0.101
3133,-0.086,-0.101
3134,-0.086,-0.101
3135,-0.086,-0.101
3136,-0.086,-0.106
3137,-0.086,-0.106
3138,-0.086,-0.106
3139,-0.086,-0.106
3140,-0.085,-0.115
3141,-0.085,-0.115
3142,-0.084,-0.115
3143,-0.083,-0.115
3144,-0.082,-0.120
3145,-0.081,-0.120
3146,-0.079,-0.120
3147,-0.078,-0.120
3148,-0.076,-0.124
3149,-0.074,-0.124
3150,-0.072,-0.124
3151,-0.070,-0.124
3152,-0.067,-0.130
3153,-0.064,-0.130
3154,-0.062,-0.130
3155,-0.059,-0.130
3156,-0.056,-0.136
3157,-0.053,-0.136
3158,-0.050,-0.136
3159,-0.048,-0.136
3160,-0.044,-0.141
3161,-0.041,-0.141
3162,-0.037,-0.141
3163,-0.034,-0.141
3164,-0.029,-0.147
3165,-0.025,-0.147
3166,-0.021,-0.147
3167,-0.017,-0.147
3168,-0.012,-0.152
3169,-0.008,-0.152
3170,-0.004,-0.152
3171,0.000,-0.152
3172,0.004,-0.157
3173,0.007,-0.157
3174,0.011,-0.157
3175,0.015,-0.157
3176,0.018,-0.162
3177,0.020,-0.162
3178,0.024,-0.162
3179,0.027,-0.162
3180,0.031,-0.168
3181,0.034,-0.168
3182,0.038,-0.168
3183,0.041,-0.168
3184,0.044,-0.172
3185,0.047,-0.172
3186,0.049,-0.172
3187,0.051,-0.172
3188,0.052,-0.174
3189,0.053,-0.174
3190,0.054,-0.174
3191,0.054,-0.174
3192,0.055,-0.178
3193,0.056,-0.178
3194,0.056,-0.178
3195,0.057,-0.178
3196,0.058,-0.180
3197,0.059,-0.180
3198,0.059,-0.180
3199,0.059,-0.180
3200,0.060,-0.182
3201,0.061,-0.182
3202,0.060,-0.182
3203,0.059,-0.182
3204,0.059,-0.185
3205,0.059,-0.185
3206,0.058,-0.185
3207,0.058,-0.185
3208,0.057,-0.185
3209,0.056,-0.185
3210,0.056,-0.185
3211,0.055,-0.185
3212,0.054,-0.187
3213,0.053,-0.187
3214,0.053,-0.187
3215,0.053,-0.187
3216,0.052,-0.187
3217,0.050,-0.187
3218,0.050,-0.187
3219,0.049,-0.187
3220,0.048,-0.189
3221,0.046,-0.189
3222,0.045,-0.189
3223,0.043,-0.189
3224,0.042,-0.188
3225,0.041,-0.188
3226,0.040,-0.188
3227,0.040,-0.188
3228,0.040,-0.189
3229,0.040,-0.189
3230,0.040,-0.189
3231,0.040,-0.189
3232,0.038,-0.188
3233,0.037,-0.188
3234,0.036,-0.188
3235,0.034,-0.188
3236,0.034,-0.188
3237,0.034,-0.188
3238,0.034,-0.188
3239,0.034,-0.188
3240,0.033,-0.187
3241,0.032,-0.187
3242,0.031,-0.187
3243,0.031,-0.187
3244,0.030,-0.185
3245,0.029,-0.185
3246,0.028,-0.185
3247,0.026,-0.185
3248,0.026,-0.185
3249,0.026,-0.185
3250,0.026,-0.185
3251,0.026,-0.185
3252,0.025,-0.182
3253,0.024,-0.182
3254,0.023,-0.182
3255,0.023,-0.182
3256,0.022,-0.182
3257,0.021,-0.182
3258,0.021,-0.182
3259,0.020,-0.182
3260,0.020,-0.179
3261,0.019,-0.179
3262,0.019,-0.179
3263,0.018,-0.179
3264,0.018,-0.178
3265,0.018,-0.178
3266,0.018,-0.178
3267,0.018,-0.178
3268,0.018,-0.175
3269,0.018,-0.175
3270,0.016,-0.175
3271,0.015,-0.175
3272,0.015,-0.175
3273,0.014,-0.175
3274,0.013,-0.175
3275,0.012,-0.175
3276,0.013,-0.172
3277,0.013,-0.172
3278,0.013,-0.172
3279,0.013,-0.172
3280,0.013,-0.172
3281,0.013,-0.172
3282,0.013,-0.172
3283,0.012,-0.172
3284,0.012,-0.171
3285,0.011,-0.171
3286,0.011,-0.171
3287,0.010,-0.171
3288,0.010,-0.169
3289,0.010,-0.169
3290,0.010,-0.169
3291,0.010,-0.169
3292,0.009,-0.169
3293,0.008,-0.169
3294,0.008,-0.169
3295,0.007,-0.169
3296,0.008,-0.168
3297,0.008,-0.168
3298,0.008,-0.168
3299,0.007,-0.168
3300,0.007,-0.166
3301,0.006,-0.166
3302,0.005,-0.166
3303,0.004,-0.166
3304,0.004,-0.166
3305,0.004,-0.166
3306,0.004,-0.166
3307,0.004,-0.166
3308,0.005,-0.165
3309,0.005,-0.165
3310,0.005,-0.165
3311,0.006,-0.165
3312,0.007,-0.165
3313,0.007,-0.165
3314,0.008,-0.165
3315,0.008,-0.165
3316,0.008,-0.164
3317,0.007,-0.164
3318,0.007,-0.164
3319,0.006,-0.164
3320,0.005,-0.164
3321,0.004,-0.164
3322,0.005,-0.164
3323,0.005,-0.164
3324,0.005,-0.163
3325,0.005,-0.163
3326,0.005,-0.163
3327,0.006,-0.163
3328,0.007,-0.163
3329,0.007,-0.163
3330,0.008,-0.163
3331,0.008,-0.163
3332,0.008,-0.162
3333,0.008,-0.162
3334,0.008,-0.162
3335,0.008,-0.162
3336,0.008,-0.162
3337,0.008,-0.162
3338,0.008,-0.162
3339,0.008,-0.162
3340,0.008,-0.161
3341,0.008,-0.161
3342,0.008,-0.161
3343,0.008,-0.161
3344,0.008,-0.161
3345,0.008,-0.161
3346,0.008,-0.161
3347,0.008,-0.161
3348,0.008,-0.160
3349,0.008,-0.160
3350,0.008,-0.160
3351,0.008,-0.160
3352,0.008,-0.160
3353,0.008,-0.160
3354,0.008,-0.160
3355,0.008,-0.160
3356,0.008,-0.160
3357,0.008,-0.160
3358,0.008,-0.160
3359,0.008,-0.160
3360,0.008,-0.184
3361,0.008,-0.184
3362,0.008,-0.184
3363,0.008,-0.184
3364,0.008,-0.184
3365,0.008,-0.184
3366,0.008,-0.184
3367,0.008,-0.184
3368,0.008,-0.183
3369,0.008,-0.183
3370,0.008,-0.183
3371,0.009,-0.183
3372,0.009,-0.184
3373,0.010,-0.184
3374,0.009,-0.184
3375,0.009,-0.184
3376,0.008,-0.184
3377,0.007,-0.184
3378,0.007,-0.184
3379,0.007,-0.184
3380,0.007,-0.185
3381,0.006,-0.185
3382,0.005,-0.185
3383,0.004,-0.185
3384,0.005,-0.185
3385,0.005,-0.185
3386,0.005,-0.185
3387,0.005,-0.185
3388,0.005,-0.186
3389,0.005,-0.186
3390,0.005,-0.186
3391,0.005,-0.186
3392,0.005,-0.186
3393,0.005,-0.186
3394,0.005,-0.186
3395,0.005,-0.186
3396,0.005,-0.186
3397,0.005,-0.186
3398,0.005,-0.186
3399,0.005,-0.186
3400,0.005,-0.188
3401,0.004,-0.188
3402,0.004,-0.188
3403,0.004,-0.188
3404,0.005,-0.188
3405,0.006,-0.188
3406,0.008,-0.188
3407,0.011,-0.188
3408,0.014,-0.189
3409,0.018,-0.189
3410,0.020,-0.189
3411,0.022,-0.189
3412,0.024,-0.191
3413,0.026,-0.191
3414,0.029,-0.191
3415,0.031,-0.191
3416,0.033,-0.191
3417,0.034,-0.191
3418,0.036,-0.191
3419,0.037,-0.191
3420,0.039,-0.192
3421,0.041,-0.192
3422,0.042,-0.192
3423,0.043,-0.192
3424,0.045,-0.192
3425,0.046,-0.192
3426,0.047,-0.192
3427,0.048,-0.192
3428,0.050,-0.193
3429,0.052,-0.193
3430,0.054,-0.193
3431,0.056,-0.193
3432,0.058,-0.193
3433,0.060,-0.193
3434,0.061,-0.193
3435,0.062,-0.193
3436,0.063,-0.194
3437,0.064,-0.194
3438,0.065,-0.194
3439,0.067,-0.194
3440,0.068,-0.194
3441,0.069,-0.194
3442,0.070,-0.194
3443,0.072,-0.194
3444,0.073,-0.195
3445,0.075,-0.195
3446,0.075,-0.195
3447,0.075,-0.195
3448,0.072,-0.196
3449,0.070,-0.196
3450,0.066,-0.196
3451,0.062,-0.196
3452,0.056,-0.196
3453,0.050,-0.196
3454,0.042,-0.196
3455,0.034,-0.196
3456,0.028,-0.196
3457,0.022,-0.196
3458,0.018,-0.196
3459,0.014,-0.196
3460,0.011,-0.198
3461,0.009,-0.198
3462,0.007,-0.198
3463,0.004,-0.198
3464,0.003,-0.196
3465,0.001,-0.196
3466,-0.002,-0.196
3467,-0.004,-0.196
3468,-0.008,-0.196
3469,-0.011,-0.196
3470,-0.013,-0.196
3471,-0.015,-0.196
3472,-0.018,-0.193
3473,-0.020,-0.193
3474,-0.021,-0.193
3475,-0.022,-0.193
3476,-0.022,-0.192
3477,-0.022,-0.192
3478,-0.022,-0.192
3479,-0.022,-0.192
3480,-0.022,-0.190
3481,-0.021,-0.190
3482,-0.020,-0.190
3483,-0.020,-0.190
3484,-0.019,-0.188
3485,-0.018,-0.188
3486,-0.017,-0.188
3487,-0.016,-0.188
3488,-0.015,-0.188
3489,-0.014,-0.188
3490,-0.013,-0.188
3491,-0.012,-0.188
3492,-0.012,-0.186
3493,-0.011,-0.186
3494,-0.010,-0.186
3495,-0.008,-0.186
3496,-0.008,-0.184
3497,-0.007,-0.184
3498,-0.007,-0.184
3499,-0.006,-0.184
3500,-0.005,-0.182
3501,-0.005,-0.182
3502,-0.005,-0.182
3503,-0.005,-0.182
3504,-0.005,-0.179
3505,-0.006,-0.179
3506,-0.006,-0.179
3507,-0.006,-0.179
3508,-0.005,-0.177
3509,-0.005,-0.177
3510,-0.005,-0.177
3511,-0.005,-0.177
3512,-0.005,-0.175
3513,-0.006,-0.175
3514,-0.005,-0.175
3515,-0.005,-0.175
3516,-0.004,-0.172
3517,-0.003,-0.172
3518,-0.003,-0.172
3519,-0.003,-0.172
3520,-0.003,-0.171
3521,-0.003,-0.171
3522,-0.003,-0.171
3523,-0.003,-0.171
3524,-0.003,-0.169
3525,-0.003,-0.169
3526,-0.003,-0.169
3527,-0.003,-0.169
3528,-0.003,-0.166
3529,-0.002,-0.166
3530,-0.001,-0.166
3531,-0.001,-0.166
3532,0.000,-0.163
3533,0.001,-0.163
3534,0.001,-0.163
3535,0.002,-0.163
3536,0.002,-0.162
3537,0.002,-0.162
3538,0.002,-0.162
3539,0.002,-0.162
3540,0.003,-0.159
3541,0.003,-0.159
3542,0.004,-0.159
3543,0.005,-0.159
3544,0.007,-0.157
3545,0.010,-0.157
3546,0.012,-0.157
3547,0.015,-0.157
3548,0.018,-0.155
3549,0.021,-0.155
3550,0.026,-0.155
3551,0.031,-0.155
3552,0.035,-0.154
3553,0.039,-0.154
3554,0.041,-0.154
3555,0.042,-0.154
3556,0.042,-0.150
3557,0.042,-0.150
3558,0.040,-0.150
3559,0.037,-0.150
3560,0.029,-0.149
3561,0.020,-0.149
3562,0.003,-0.149
3563,-0.014,-0.149
3564,-0.040,-0.147
3565,-0.067,-0.147
3566,-0.101,-0.147
3567,-0.135,-0.147
3568,-0.172,-0.144
3569,-0.209,-0.144
3570,-0.242,-0.144
3571,-0.275,-0.144
3572,-0.299,-0.143
3573,-0.323,-0.143
3574,-0.336,-0.143
3575,-0.348,-0.143
3576,-0.349,-0.142
3577,-0.349,-0.142
3578,-0.340,-0.142
3579,-0.330,-0.142
3580,-0.315,-0.140
3581,-0.300,-0.140
3582,-0.286,-0.140
3583,-0.272,-0.140
3584,-0.265,-0.139
3585,-0.257,-0.139
3586,-0.258,-0.139
3587,-0.260,-0.139
3588,-0.271,-0.138
3589,-0.283,-0.138
3590,-0.302,-0.138
3591,-0.321,-0.138
3592,-0.341,-0.136
3593,-0.362,-0.136
3594,-0.379,-0.136
3595,-0.397,-0.136
3596,-0.408,-0.135
3597,-0.419,-0.135
3598,-0.422,-0.135
3599,-0.424,-0.135
3600,-0.418,-0.133
3601,-0.412,-0.133
3602,-0.399,-0.133
3603,-0.386,-0.133
3604,-0.367,-0.133
3605,-0.348,-0.133
3606,-0.325,-0.133
3607,-0.303,-0.133
3608,-0.279,-0.130
3609,-0.255,-0.130
3610,-0.232,-0.130
3611,-0.209,-0.130
3612,-0.189,-0.130
3613,-0.169,-0.130
3614,-0.154,-0.130
3615,-0.138,-0.130
3616,-0.126,-0.129
3617,-0.114,-0.129
3618,-0.102,-0.129
3619,-0.090,-0.129
3620,-0.075,-0.127
3621,-0.059,-0.127
3622,-0.042,-0.127
3623,-0.024,-0.127
3624,-0.006,-0.126
3625,0.012,-0.126
3626,0.030,-0.126
3627,0.047,-0.126
3628,0.061,-0.126
3629,0.075,-0.126
3630,0.086,-0.126
3631,0.097,-0.126
3632,0.105,-0.124
3633,0.112,-0.124
3634,0.115,-0.124
3635,0.118,-0.124
3636,0.118,-0.124
3637,0.119,-0.124
3638,0.117,-0.124
3639,0.116,-0.124
3640,0.116,-0.122
3641,0.115,-0.122
3642,0.115,-0.122
3643,0.115,-0.122
3644,0.115,-0.121
3645,0.115,-0.121
3646,0.115,-0.121
3647,0.115,-0.121
3648,0.115,-0.121
3649,0.115,-0.121
3650,0.115,-0.121
3651,0.114,-0.121
3652,0.113,-0.120
3653,0.112,-0.120
3654,0.111,-0.120
3655,0.109,-0.120
3656,0.108,-0.118
3657,0.106,-0.118
3658,0.105,-0.118
3659,0.103,-0.118
3660,0.102,-0.117
3661,0.102,-0.117
3662,0.101,-0.117
3663,0.100,-0.117
3664,0.100,-0.117
3665,0.100,-0.117
3666,0.100,-0.117
3667,0.100,-0.117
3668,0.100,-0.116
3669,0.100,-0.116
3670,0.098,-0.116
3671,0.097,-0.116
3672,0.097,-0.115
3673,0.097,-0.115
3674,0.096,-0.115
3675,0.096,-0.115
3676,0.096,-0.112
3677,0.096,-0.112
3678,0.096,-0.112
3679,0.096,-0.112
3680,0.096,-0.108
3681,0.096,-0.108
3682,0.096,-0.108
3683,0.096,-0.108
3684,0.096,-0.105
3685,0.096,-0.105
3686,0.096,-0.105
3687,0.096,-0.105
3688,0.096,-0.099
3689,0.096,-0.099
3690,0.096,-0.099
3691,0.096,-0.099
3692,0.096,-0.091
3693,0.097,-0.091
3694,0.097,-0.091
3695,0.098,-0.091
3696,0.099,-0.082
3697,0.100,-0.082
3698,0.099,-0.082
3699,0.099,-0.082
3700,0.099,-0.069
3701,0.099,-0.069
3702,0.100,-0.069
3703,0.100,-0.069
3704,0.102,-0.056
3705,0.103,-0.056
3706,0.105,-0.056
3707,0.106,-0.056
3708,0.108,-0.039
3709,0.110,-0.039
3710,0.111,-0.039
3711,0.113,-0.039
3712,0.114,-0.022
3713,0.116,-0.022
3714,0.116,-0.022
3715,0.117,-0.022
3716,0.118,-0.005
3717,0.119,-0.005
3718,0.120,-0.005
3719,0.121,-0.005
3720,0.122,0.013
3721,0.124,0.013
3722,0.125,0.013
3723,0.126,0.013
3724,0.127,0.030
3725,0.128,0.030
3726,0.129,0.030
3727,0.130,0.030
3728,0.132,0.048
3729,0.134,0.048
3730,0.135,0.048
3731,0.137,0.048
3732,0.139,0.066
3733,0.141,0.066
3734,0.142,0.066
3735,0.143,0.066
3736,0.145,0.082
3737,0.146,0.082
3738,0.147,0.082
3739,0.149,0.082
3740,0.149,0.097
3741,0.149,0.097
3742,0.150,0.097
3743,0.151,0.097
3744,0.152,0.113
3745,0.153,0.113
3746,0.153,0.113
3747,0.152,0.113
3748,0.151,0.129
3749,0.149,0.129
3750,0.148,0.129
3751,0.146,0.129
3752,0.145,0.142
3753,0.144,0.142
3754,0.144,0.142
3755,0.144,0.142
3756,0.144,0.155
3757,0.143,0.155
3758,0.142,0.155
3759,0.141,0.155
3760,0.140,0.169
3761,0.139,0.169
3762,0.138,0.169
3763,0.137,0.169
3764,0.136,0.179
3765,0.135,0.179
3766,0.133,0.179
3767,0.132,0.179
3768,0.130,0.189
3769,0.129,0.189
3770,0.128,0.189
3771,0.127,0.189
3772,0.126,0.196
3773,0.125,0.196
3774,0.124,0.196
3775,0.123,0.196
3776,0.122,0.201
3777,0.121,0.201
3778,0.121,0.201
3779,0.120,0.201
3780,0.119,0.202
3781,0.117,0.202
3782,0.115,0.202
3783,0.113,0.202
3784,0.112,0.202
3785,0.110,0.202
3786,0.108,0.202
3787,0.106,0.202
3788,0.105,0.200
3789,0.103,0.200
3790,0.102,0.200
3791,0.101,0.200
3792,0.100,0.193
3793,0.098,0.193
3794,0.097,0.193
3795,0.095,0.193
3796,0.094,0.185
3797,0.092,0.185
3798,0.090,0.185
3799,0.088,0.185
3800,0.086,0.175
3801,0.084,0.175
3802,0.083,0.175
3803,0.082,0.175
3804,0.080,0.164
3805,0.079,0.164
3806,0.077,0.164
3807,0.075,0.164
3808,0.073,0.153
3809,0.071,0.153
3810,0.070,0.153
3811,0.070,0.153
3812,0.069,0.140
3813,0.069,0.140
3814,0.070,0.140
3815,0.070,0.140
3816,0.071,0.127
3817,0.072,0.127
3818,0.074,0.127
3819,0.075,0.127
3820,0.075,0.114
3821,0.075,0.114
3822,0.075,0.114
3823,0.075,0.114
3824,0.074,0.102
3825,0.074,0.102
3826,0.073,0.102
3827,0.072,0.102
3828,0.070,0.088
3829,0.069,0.088
3830,0.067,0.088
3831,0.065,0.088
3832,0.064,0.076
3833,0.063,0.076
3834,0.063,0.076
3835,0.063,0.076
3836,0.064,0.065
3837,0.065,0.065
3838,0.066,0.065
3839,0.067,0.065
3840,0.067,0.053
3841,0.067,0.053
3842,0.066,0.053
3843,0.066,0.053
3844,0.065,0.043
3845,0.064,0.043
3846,0.063,0.043
3847,0.061,0.043
3848,0.061,0.032
3849,0.061,0.032
3850,0.061,0.032
3851,0.061,0.032
3852,0.061,0.021
3853,0.061,0.021
3854,0.059,0.021
3855,0.058,0.021
3856,0.054,0.011
3857,0.050,0.011
3858,0.044,0.011
3859,0.037,0.011
3860,0.029,0.002
3861,0.021,0.002
3862,0.014,0.002
3863,0.007,0.002
3864,0.002,-0.008
3865,-0.004,-0.008
3866,-0.007,-0.008
3867,-0.010,-0.008
3868,-0.011,-0.017
3869,-0.012,-0.017
3870,-0.013,-0.017
3871,-0.014,-0.017
3872,-0.016,-0.025
3873,-0.018,-0.025
3874,-0.020,-0.025
3875,-0.023,-0.025
3876,-0.026,-0.034
3877,-0.029,-0.034
3878,-0.032,-0.034
3879,-0.035,-0.034
3880,-0.037,-0.041
3881,-0.040,-0.041
3882,-0.040,-0.041
3883,-0.040,-0.041
3884,-0.040,-0.050
3885,-0.040,-0.050
3886,-0.040,-0.050
3887,-0.040,-0.050
3888,-0.038,-0.057
3889,-0.037,-0.057
3890,-0.036,-0.057
3891,-0.034,-0.057
3892,-0.033,-0.066
3893,-0.031,-0.066
3894,-0.031,-0.066
3895,-0.030,-0.066
3896,-0.030,-0.074
3897,-0.029,-0.074
3898,-0.029,-0.074
3899,-0.029,-0.074
3900,-0.029,-0.082
3901,-0.029,-0.082
3902,-0.029,-0.082
3903,-0.029,-0.082
3904,-0.029,-0.090
3905,-0.029,-0.090
3906,-0.028,-0.090
3907,-0.027,-0.090
3908,-0.027,-0.097
3909,-0.028,-0.097
3910,-0.029,-0.097
3911,-0.029,-0.097
3912,-0.029,-0.105
3913,-0.029,-0.105
3914,-0.028,-0.105
3915,-0.027,-0.105
3916,-0.026,-0.114
3917,-0.026,-0.114
3918,-0.025,-0.114
3919,-0.025,-0.114
3920,-0.025,-0.120
3921,-0.024,-0.120
3922,-0.024,-0.120
3923,-0.024,-0.120
3924,-0.025,-0.126
3925,-0.025,-0.126
3926,-0.026,-0.126
3927,-0.026,-0.126
3928,-0.027,-0.133
3929,-0.027,-0.133
3930,-0.027,-0.133
3931,-0.027,-0.133
3932,-0.027,-0.140
3933,-0.027,-0.140
3934,-0.027,-0.140
3935,-0.027,-0.140
3936,-0.027,-0.146
3937,-0.026,-0.146
3938,-0.026,-0.146
3939,-0.025,-0.146
3940,-0.025,-0.151
3941,-0.024,-0.151
3942,-0.024,-0.151
3943,-0.024,-0.151
3944,-0.024,-0.157
3945,-0.023,-0.157
3946,-0.023,-0.157
3947,-0.022,-0.157
3948,-0.021,-0.163
3949,-0.020,-0.163
3950,-0.018,-0.163
3951,-0.015,-0.163
3952,-0.012,-0.168
3953,-0.009,-0.168
3954,-0.004,-0.168
3955,0.001,-0.168
3956,0.007,-0.172
3957,0.013,-0.172
3958,0.018,-0.172
3959,0.022,-0.172
3960,0.025,-0.176
3961,0.028,-0.176
3962,0.028,-0.176
3963,0.029,-0.176
3964,0.026,-0.182
3965,0.023,-0.182
3966,0.016,-0.182
3967,0.008,-0.182
3968,-0.008,-0.187
3969,-0.024,-0.187
3970,-0.051,-0.187
3971,-0.078,-0.187
3972,-0.113,-0.191
3973,-0.148,-0.191
3974,-0.187,-0.191
3975,-0.225,-0.191
3976,-0.262,-0.197
3977,-0.299,-0.197
3978,-0.325,-0.197
3979,-0.352,-0.197
3980,-0.364,-0.200
3981,-0.377,-0.200
3982,-0.377,-0.200
3983,-0.376,-0.200
3984,-0.367,-0.203
3985,-0.357,-0.203
3986,-0.344,-0.203
3987,-0.330,-0.203
3988,-0.317,-0.207
3989,-0.304,-0.207
3990,-0.297,-0.207
3991,-0.291,-0.207
3992,-0.291,-0.211
3993,-0.292,-0.211
3994,-0.301,-0.211
3995,-0.310,-0.211
3996,-0.326,-0.216
3997,-0.342,-0.216
3998,-0.361,-0.216
3999,-0.380,-0.216
4000,-0.397,-0.218
4001,-0.415,-0.218
4002,-0.427,-0.218
4003,-0.440,-0.218
4004,-0.443,-0.220
4005,-0.447,-0.220
4006,-0.441,-0.220
4007,-0.435,-0.220
4008,-0.423,-0.222
4009,-0.411,-0.222
4010,-0.394,-0.222
4011,-0.377,-0.222
4012,-0.355,-0.224
4013,-0.332,-0.224
4014,-0.307,-0.224
4015,-0.281,-0.224
4016,-0.256,-0.225
4017,-0.232,-0.225
4018,-0.211,-0.225
4019,-0.190,-0.225
4020,-0.175,-0.226
4021,-0.160,-0.226
4022,-0.147,-0.226
4023,-0.134,-0.226
4024,-0.120,-0.225
4025,-0.106,-0.225
4026,-0.089,-0.225
4027,-0.072,-0.225
4028,-0.053,-0.226
4029,-0.034,-0.226
4030,-0.015,-0.226
4031,0.005,-0.226
4032,0.023,-0.224
4033,0.041,-0.224
4034,0.056,-0.224
4035,0.070,-0.224
4036,0.081,-0.224
4037,0.091,-0.224
4038,0.098,-0.224
4039,0.105,-0.224
4040,0.108,-0.223
4041,0.111,-0.223
4042,0.112,-0.223
4043,0.113,-0.223
4044,0.114,-0.221
4045,0.115,-0.221
4046,0.115,-0.221
4047,0.115,-0.221
4048,0.115,-0.219
4049,0.114,-0.219
4050,0.113,-0.219
4051,0.112,-0.219
4052,0.111,-0.218
4053,0.110,-0.218
4054,0.109,-0.218
4055,0.108,-0.218
4056,0.108,-0.215
4057,0.107,-0.215
4058,0.107,-0.215
4059,0.108,-0.215
4060,0.108,-0.214
4061,0.109,-0.214
4062,0.109,-0.214
4063,0.110,-0.214
4064,0.110,-0.210
4065,0.110,-0.210
4066,0.110,-0.210
4067,0.110,-0.210
4068,0.110,-0.209
4069,0.110,-0.209
4070,0.110,-0.209
4071,0.110,-0.209
4072,0.110,-0.206
4073,0.110,-0.206
4074,0.110,-0.206
4075,0.110,-0.206
4076,0.110,-0.204
4077,0.111,-0.204
4078,0.111,-0.204
4079,0.112,-0.204
4080,0.113,-0.202
4081,0.113,-0.202
4082,0.114,-0.202
4083,0.114,-0.202
4084,0.115,-0.201
4085,0.116,-0.201
4086,0.117,-0.201
4087,0.118,-0.201
4088,0.119,-0.198
4089,0.120,-0.198
4090,0.120,-0.198
4091,0.120,-0.198
4092,0.120,-0.196
4093,0.120,-0.196
4094,0.120,-0.196
4095,0.121,-0.196
4096,0.122,-0.194
4097,0.123,-0.194
4098,0.123,-0.194
4099,0.124,-0.194
4100,0.125,-0.190
4101,0.127,-0.190
4102,0.129,-0.190
4103,0.131,-0.190
4104,0.133,-0.186
4105,0.135,-0.186
4106,0.138,-0.186
4107,0.140,-0.186
4108,0.142,-0.181
4109,0.145,-0.181
4110,0.148,-0.181
4111,0.151,-0.181
4112,0.153,-0.175
4113,0.156,-0.175
4114,0.157,-0.175
4115,0.159,-0.175
4116,0.160,-0.170
4117,0.160,-0.170
4118,0.161,-0.170
4119,0.161,-0.170
4120,0.162,-0.161
4121,0.162,-0.161
4122,0.163,-0.161
4123,0.164,-0.161
4124,0.165,-0.152
4125,0.165,-0.152
4126,0.166,-0.152
4127,0.166,-0.152
4128,0.166,-0.140
4129,0.165,-0.140
4130,0.165,-0.140
4131,0.165,-0.140
4132,0.165,-0.128
4133,0.165,-0.128
4134,0.164,-0.128
4135,0.162,-0.128
4136,0.161,-0.117
4137,0.160,-0.117
4138,0.160,-0.117
4139,0.160,-0.117
4140,0.160,-0.103
4141,0.160,-0.103
4142,0.158,-0.103
4143,0.157,-0.103
4144,0.156,-0.090
4145,0.154,-0.090
4146,0.152,-0.090
4147,0.150,-0.090
4148,0.147,-0.076
4149,0.143,-0.076
4150,0.139,-0.076
4151,0.135,-0.076
4152,0.131,-0.065
4153,0.127,-0.065
4154,0.123,-0.065
4155,0.119,-0.065
4156,0.116,-0.052
4157,0.113,-0.052
4158,0.109,-0.052
4159,0.106,-0.052
4160,0.103,-0.043
4161,0.100,-0.043
4162,0.097,-0.043
4163,0.094,-0.043
4164,0.092,-0.033
4165,0.089,-0.033
4166,0.087,-0.033
4167,0.084,-0.033
4168,0.082,-0.025
4169,0.079,-0.025
4170,0.076,-0.025
4171,0.074,-0.025
4172,0.072,-0.019
4173,0.070,-0.019
4174,0.068,-0.019
4175,0.067,-0.019
4176,0.065,-0.015
4177,0.063,-0.015
4178,0.061,-0.015
4179,0.059,-0.015
4180,0.056,-0.011
4181,0.054,-0.011
4182,0.052,-0.011
4183,0.050,-0.011
4184,0.047,-0.008
4185,0.044,-0.008
4186,0.042,-0.008
4187,0.040,-0.008
4188,0.038,-0.007
4189,0.037,-0.007
4190,0.035,-0.007
4191,0.034,-0.007
4192,0.033,-0.007
4193,0.031,-0.007
4194,0.030,-0.007
4195,0.028,-0.007
4196,0.025,-0.010
4197,0.023,-0.010
4198,0.020,-0.010
4199,0.018,-0.010
4200,0.017,-0.012
4201,0.015,-0.012
4202,0.014,-0.012
4203,0.013,-0.012
4204,0.013,-0.015
4205,0.012,-0.015
4206,0.012,-0.015
4207,0.012,-0.015
4208,0.011,-0.022
4209,0.010,-0.022
4210,0.009,-0.022
4211,0.007,-0.022
4212,0.006,-0.029
4213,0.004,-0.029
4214,0.003,-0.029
4215,0.001,-0.029
4216,0.001,-0.035
4217,0.000,-0.035
4218,-0.000,-0.035
4219,-0.001,-0.035
4220,0.000,-0.041
4221,0.001,-0.041
4222,0.002,-0.041
4223,0.003,-0.041
4224,0.004,-0.049
4225,0.006,-0.049
4226,0.008,-0.049
4227,0.011,-0.049
4228,0.013,-0.056
4229,0.015,-0.056
4230,0.017,-0.056
4231,0.018,-0.056
4232,0.019,-0.060
4233,0.020,-0.060
4234,0.020,-0.060
4235,0.020,-0.060
4236,0.019,-0.067
4237,0.019,-0.067
4238,0.019,-0.067
4239,0.018,-0.067
4240,0.018,-0.073
4241,0.018,-0.073
4242,0.019,-0.073
4243,0.019,-0.073
4244,0.020,-0.077
4245,0.021,-0.077
4246,0.023,-0.077
4247,0.024,-0.077
4248,0.026,-0.083
4249,0.027,-0.083
4250,0.028,-0.083
4251,0.029,-0.083
4252,0.030,-0.087
4253,0.030,-0.087
4254,0.031,-0.087
4255,0.032,-0.087
4256,0.034,-0.091
4257,0.035,-0.091
4258,0.037,-0.091
4259,0.038,-0.091
4260,0.040,-0.096
4261,0.041,-0.096
4262,0.041,-0.096
4263,0.041,-0.096
4264,0.038,-0.100
4265,0.036,-0.100
4266,0.030,-0.100
4267,0.023,-0.100
4268,0.015,-0.105
4269,0.007,-0.105
4270,0.000,-0.105
4271,-0.007,-0.105
4272,-0.013,-0.108
4273,-0.018,-0.108
4274,-0.021,-0.108
4275,-0.023,-0.108
4276,-0.025,-0.114
4277,-0.026,-0.114
4278,-0.028,-0.114
4279,-0.029,-0.114
4280,-0.032,-0.118
4281,-0.034,-0.118
4282,-0.037,-0.118
4283,-0.040,-0.118
4284,-0.043,-0.123
4285,-0.046,-0.123
4286,-0.048,-0.123
4287,-0.050,-0.123
4288,-0.052,-0.128
4289,-0.053,-0.128
4290,-0.054,-0.128
4291,-0.054,-0.128
4292,-0.054,-0.134
4293,-0.053,-0.134
4294,-0.053,-0.134
4295,-0.053,-0.134
4296,-0.052,-0.138
4297,-0.050,-0.138
4298,-0.049,-0.138
4299,-0.048,-0.138
4300,-0.048,-0.142
4301,-0.048,-0.142
4302,-0.046,-0.142
4303,-0.045,-0.142
4304,-0.044,-0.147
4305,-0.043,-0.147
4306,-0.043,-0.147
4307,-0.043,-0.147
4308,-0.044,-0.152
4309,-0.045,-0.152
4310,-0.046,-0.152
4311,-0.046,-0.152
4312,-0.046,-0.155
4313,-0.045,-0.155
4314,-0.044,-0.155
4315,-0.043,-0.155
4316,-0.041,-0.159
4317,-0.040,-0.159
4318,-0.038,-0.159
4319,-0.037,-0.159
4320,-0.035,-0.162
4321,-0.033,-0.162
4322,-0.032,-0.162
4323,-0.031,-0.162
4324,-0.032,-0.165
4325,-0.033,-0.165
4326,-0.034,-0.165
4327,-0.036,-0.165
4328,-0.037,-0.169
4329,-0.038,-0.169
4330,-0.039,-0.169
4331,-0.040,-0.169
4332,-0.038,-0.172
4333,-0.037,-0.172
4334,-0.036,-0.172
4335,-0.034,-0.172
4336,-0.033,-0.177
4337,-0.032,-0.177
4338,-0.032,-0.177
4339,-0.032,-0.177
4340,-0.032,-0.180
4341,-0.032,-0.180
4342,-0.033,-0.180
4343,-0.033,-0.180
4344,-0.034,-0.184
4345,-0.034,-0.184
4346,-0.035,-0.184
4347,-0.035,-0.184
4348,-0.035,-0.188
4349,-0.034,-0.188
4350,-0.033,-0.188
4351,-0.031,-0.188
4352,-0.030,-0.192
4353,-0.029,-0.192
4354,-0.026,-0.192
4355,-0.024,-0.192
4356,-0.022,-0.196
4357,-0.020,-0.196
4358,-0.018,-0.196
4359,-0.016,-0.196
4360,-0.013,-0.200
4361,-0.010,-0.200
4362,-0.005,-0.200
4363,-0.001,-0.200
4364,0.007,-0.203
4365,0.014,-0.203
4366,0.022,-0.203
4367,0.029,-0.203
4368,0.036,-0.206
4369,0.042,-0.206
4370,0.047,-0.206
4371,0.052,-0.206
4372,0.054,-0.208
4373,0.056,-0.208
4374,0.053,-0.208
4375,0.050,-0.208
4376,0.040,-0.212
4377,0.030,-0.212
4378,0.011,-0.212
4379,-0.009,-0.212
4380,-0.039,-0.214
4381,-0.069,-0.214
4382,-0.104,-0.214
4383,-0.140,-0.214
4384,-0.175,-0.187
4385,-0.209,-0.187
4386,-0.237,-0.187
4387,-0.264,-0.187
4388,-0.280,-0.190
4389,-0.296,-0.190
4390,-0.299,-0.190
4391,-0.302,-0.190
4392,-0.294,-0.191
4393,-0.286,-0.191
4394,-0.273,-0.191
4395,-0.259,-0.191
4396,-0.246,-0.193
4397,-0.233,-0.193
4398,-0.224,-0.193
4399,-0.215,-0.193
4400,-0.215,-0.194
4401,-0.215,-0.194
4402,-0.225,-0.194
4403,-0.236,-0.194
4404,-0.254,-0.196
4405,-0.271,-0.196
4406,-0.292,-0.196
4407,-0.313,-0.196
4408,-0.333,-0.196
4409,-0.353,-0.196
4410,-0.367,-0.196
4411,-0.381,-0.196
4412,-0.387,-0.197
4413,-0.393,-0.197
4414,-0.390,-0.197
4415,-0.388,-0.197
4416,-0.380,-0.196
4417,-0.372,-0.196
4418,-0.361,-0.196
4419,-0.350,-0.196
4420,-0.337,-0.196
4421,-0.323,-0.196
4422,-0.309,-0.196
4423,-0.294,-0.196
4424,-0.280,-0.196
4425,-0.266,-0.196
4426,-0.254,-0.196
4427,-0.241,-0.196
4428,-0.228,-0.195
4429,-0.216,-0.195
4430,-0.202,-0.195
4431,-0.189,-0.195
4432,-0.173,-0.193
4433,-0.158,-0.193
4434,-0.139,-0.193
4435,-0.120,-0.193
4436,-0.098,-0.192
4437,-0.077,-0.192
4438,-0.056,-0.192
4439,-0.034,-0.192
4440,-0.016,-0.191
4441,0.003,-0.191
4442,0.018,-0.191
4443,0.034,-0.191
4444,0.045,-0.187
4445,0.056,-0.187
4446,0.063,-0.187
4447,0.070,-0.187
4448,0.074,-0.185
4449,0.079,-0.185
4450,0.082,-0.185
4451,0.084,-0.185
4452,0.085,-0.183
4453,0.086,-0.183
4454,0.086,-0.183
4455,0.086,-0.183
4456,0.087,-0.180
4457,0.089,-0.180
4458,0.090,-0.180
4459,0.091,-0.180
4460,0.092,-0.178
4461,0.093,-0.178
4462,0.093,-0.178
4463,0.094,-0.178
4464,0.093,-0.175
4465,0.093,-0.175
4466,0.092,-0.175
4467,0.091,-0.175
4468,0.090,-0.173
4469,0.089,-0.173
4470,0.089,-0.173
4471,0.089,-0.173
4472,0.090,-0.171
4473,0.091,-0.171
4474,0.092,-0.171
4475,0.093,-0.171
4476,0.093,-0.167
4477,0.093,-0.167
4478,0.092,-0.167
4479,0.091,-0.167
4480,0.090,-0.166
4481,0.089,-0.166
4482,0.089,-0.166
4483,0.089,-0.166
4484,0.090,-0.162
4485,0.091,-0.162
4486,0.094,-0.162
4487,0.096,-0.162
4488,0.098,-0.160
4489,0.100,-0.160
4490,0.101,-0.160
4491,0.102,-0.160
4492,0.102,-0.156
4493,0.102,-0.156
4494,0.102,-0.156
4495,0.102,-0.156
4496,0.102,-0.154
4497,0.102,-0.154
4498,0.102,-0.154
4499,0.102,-0.154
4500,0.102,-0.149
4501,0.102,-0.149
4502,0.102,-0.149
4503,0.102,-0.149
4504,0.103,-0.146
4505,0.104,-0.146
4506,0.105,-0.146
4507,0.106,-0.146
4508,0.108,-0.142
4509,0.109,-0.142
4510,0.110,-0.142
4511,0.111,-0.142
4512,0.112,-0.138
4513,0.113,-0.138
4514,0.114,-0.138
4515,0.116,-0.138
4516,0.117,-0.133
4517,0.118,-0.133
4518,0.119,-0.133
4519,0.121,-0.133
4520,0.122,-0.125
4521,0.124,-0.125
4522,0.124,-0.125
4523,0.124,-0.125
4524,0.124,-0.117
4525,0.124,-0.117
4526,0.125,-0.117
4527,0.126,-0.117
4528,0.128,-0.107
4529,0.130,-0.107
4530,0.133,-0.107
4531,0.135,-0.107
4532,0.136,-0.096
4533,0.138,-0.096
4534,0.138,-0.096
4535,0.138,-0.096
4536,0.137,-0.082
4537,0.137,-0.082
4538,0.136,-0.082
4539,0.135,-0.082
4540,0.135,-0.067
4541,0.134,-0.067
4542,0.134,-0.067
4543,0.133,-0.067
4544,0.134,-0.051
4545,0.135,-0.051
4546,0.135,-0.051
4547,0.136,-0.051
4548,0.137,-0.035
4549,0.138,-0.035
4550,0.138,-0.035
4551,0.138,-0.035
4552,0.138,-0.018
4553,0.138,-0.018
4554,0.137,-0.018
4555,0.137,-0.018
4556,0.136,-0.003
4557,0.135,-0.003
4558,0.133,-0.003
4559,0.131,-0.003
4560,0.128,0.011
4561,0.125,0.011
4562,0.122,0.011
4563,0.119,0.011
4564,0.116,0.026
4565,0.113,0.026
4566,0.111,0.026
4567,0.109,0.026
4568,0.107,0.037
4569,0.105,0.037
4570,0.103,0.037
4571,0.100,0.037
4572,0.097,0.048
4573,0.094,0.048
4574,0.090,0.048
4575,0.086,0.048
4576,0.083,0.058
4577,0.080,0.058
4578,0.078,0.058
4579,0.077,0.058
4580,0.076,0.066
4581,0.076,0.066
4582,0.076,0.066
4583,0.075,0.066
4584,0.075,0.072
4585,0.075,0.072
4586,0.074,0.072
4587,0.072,0.072
4588,0.069,0.077
4589,0.066,0.077
4590,0.063,0.077
4591,0.061,0.077
4592,0.059,0.079
4593,0.058,0.079
4594,0.056,0.079
4595,0.055,0.079
4596,0.053,0.081
4597,0.051,0.081
4598,0.050,0.081
4599,0.049,0.081
4600,0.049,0.080
4601,0.048,0.080
4602,0.048,0.080
4603,0.048,0.080
4604,0.048,0.078
4605,0.048,0.078
4606,0.047,0.078
4607,0.047,0.078
4608,0.045,0.074
4609,0.044,0.074
4610,0.042,0.074
4611,0.040,0.074
4612,0.038,0.070
4613,0.037,0.070
4614,0.035,0.070
4615,0.034,0.070
4616,0.033,0.062
4617,0.032,0.062
4618,0.031,0.062
4619,0.031,0.062
4620,0.030,0.056
4621,0.030,0.056
4622,0.029,0.056
4623,0.029,0.056
4624,0.027,0.047
4625,0.026,0.047
4626,0.025,0.047
4627,0.023,0.047
4628,0.022,0.041
4629,0.020,0.041
4630,0.020,0.041
4631,0.020,0.041
4632,0.020,0.032
4633,0.021,0.032
4634,0.023,0.032
4635,0.024,0.032
4636,0.026,0.024
4637,0.027,0.024
4638,0.028,0.024
4639,0.029,0.024
4640,0.030,0.016
4641,0.030,0.016
4642,0.031,0.016
4643,0.031,0.016
4644,0.032,0.009
4645,0.033,0.009
4646,0.034,0.009
4647,0.035,0.009
4648,0.037,0.001
4649,0.038,0.001
4650,0.041,0.001
4651,0.043,0.001
4652,0.045,-0.005
4653,0.047,-0.005
4654,0.048,-0.005
4655,0.050,-0.005
4656,0.051,-0.012
4657,0.052,-0.012
4658,0.052,-0.012
4659,0.053,-0.012
4660,0.052,-0.015
4661,0.051,-0.015
4662,0.051,-0.015
4663,0.050,-0.015
4664,0.051,-0.022
4665,0.052,-0.022
4666,0.054,-0.022
4667,0.056,-0.022
4668,0.058,-0.029
4669,0.060,-0.029
4670,0.062,-0.029
4671,0.064,-0.029
4672,0.064,-0.034
4673,0.064,-0.034
4674,0.062,-0.034
4675,0.061,-0.034
4676,0.057,-0.039
4677,0.053,-0.039
4678,0.046,-0.039
4679,0.040,-0.039
4680,0.032,-0.045
4681,0.024,-0.045
4682,0.017,-0.045
4683,0.010,-0.045
4684,0.005,-0.050
4685,0.001,-0.050
4686,-0.002,-0.050
4687,-0.004,-0.050
4688,-0.007,-0.057
4689,-0.010,-0.057
4690,-0.012,-0.057
4691,-0.015,-0.057
4692,-0.018,-0.061
4693,-0.022,-0.061
4694,-0.026,-0.061
4695,-0.031,-0.061
4696,-0.034,-0.067
4697,-0.038,-0.067
4698,-0.040,-0.067
4699,-0.041,-0.067
4700,-0.041,-0.073
4701,-0.041,-0.073
4702,-0.041,-0.073
4703,-0.040,-0.073
4704,-0.041,-0.079
4705,-0.041,-0.079
4706,-0.042,-0.079
4707,-0.043,-0.079
4708,-0.043,-0.085
4709,-0.042,-0.085
4710,-0.041,-0.085
4711,-0.040,-0.085
4712,-0.037,-0.089
4713,-0.034,-0.089
4714,-0.032,-0.089
4715,-0.029,-0.089
4716,-0.028,-0.093
4717,-0.027,-0.093
4718,-0.027,-0.093
4719,-0.026,-0.093
4720,-0.027,-0.099
4721,-0.028,-0.099
4722,-0.028,-0.099
4723,-0.029,-0.099
4724,-0.028,-0.104
4725,-0.028,-0.104
4726,-0.027,-0.104
4727,-0.027,-0.104
4728,-0.027,-0.110
4729,-0.027,-0.110
4730,-0.027,-0.110
4731,-0.027,-0.110
4732,-0.027,-0.114
4733,-0.027,-0.114
4734,-0.027,-0.114
4735,-0.027,-0.114
4736,-0.027,-0.119
4737,-0.028,-0.119
4738,-0.029,-0.119
4739,-0.029,-0.119
4740,-0.030,-0.124
4741,-0.030,-0.124
4742,-0.030,-0.124
4743,-0.029,-0.124
4744,-0.029,-0.128
4745,-0.029,-0.128
4746,-0.027,-0.128
4747,-0.026,-0.128
4748,-0.025,-0.133
4749,-0.024,-0.133
4750,-0.023,-0.133
4751,-0.021,-0.133
4752,-0.020,-0.138
4753,-0.019,-0.138
4754,-0.019,-0.138
4755,-0.018,-0.138
4756,-0.019,-0.141
4757,-0.020,-0.141
4758,-0.020,-0.141
4759,-0.021,-0.141
4760,-0.022,-0.146
4761,-0.023,-0.146
4762,-0.023,-0.146
4763,-0.024,-0.146
4764,-0.024,-0.150
4765,-0.024,-0.150
4766,-0.023,-0.150
4767,-0.021,-0.150
4768,-0.019,-0.156
4769,-0.016,-0.156
4770,-0.011,-0.156
4771,-0.007,-0.156
4772,-0.001,-0.160
4773,0.005,-0.160
4774,0.012,-0.160
4775,0.019,-0.160
4776,0.026,-0.163
4777,0.033,-0.163
4778,0.040,-0.163
4779,0.048,-0.163
4780,0.055,-0.167
4781,0.062,-0.167
4782,0.068,-0.167
4783,0.075,-0.167
4784,0.078,-0.170
4785,0.082,-0.170
4786,0.080,-0.170
4787,0.078,-0.170
4788,0.067,-0.172
4789,0.056,-0.172
4790,0.034,-0.172
4791,0.012,-0.172
4792,-0.018,-0.175
4793,-0.048,-0.175
4794,-0.082,-0.175
4795,-0.116,-0.175
4796,-0.146,-0.178
4797,-0.176,-0.178
4798,-0.198,-0.178
4799,-0.219,-0.178
4800,-0.228,-0.181
4801,-0.238,-0.181
4802,-0.237,-0.181
4803,-0.236,-0.181
4804,-0.228,-0.183
4805,-0.220,-0.183
4806,-0.208,-0.183
4807,-0.197,-0.183
4808,-0.188,-0.184
4809,-0.179,-0.184
4810,-0.177,-0.184
4811,-0.176,-0.184
4812,-0.184,-0.186
4813,-0.192,-0.186
4814,-0.207,-0.186
4815,-0.222,-0.186
4816,-0.241,-0.188
4817,-0.260,-0.188
4818,-0.280,-0.188
4819,-0.299,-0.188
4820,-0.316,-0.188
4821,-0.332,-0.188
4822,-0.342,-0.188
4823,-0.352,-0.188
4824,-0.356,-0.189
4825,-0.359,-0.189
4826,-0.357,-0.189
4827,-0.355,-0.189
4828,-0.349,-0.189
4829,-0.342,-0.189
4830,-0.334,-0.189
4831,-0.325,-0.189
4832,-0.314,-0.189
4833,-0.302,-0.189
4834,-0.289,-0.189
4835,-0.277,-0.189
4836,-0.263,-0.187
4837,-0.250,-0.187
4838,-0.238,-0.187
4839,-0.226,-0.187
4840,-0.214,-0.187
4841,-0.203,-0.187
4842,-0.190,-0.187
4843,-0.178,-0.187
4844,-0.162,-0.184
4845,-0.146,-0.184
4846,-0.127,-0.184
4847,-0.108,-0.184
4848,-0.087,-0.182
4849,-0.066,-0.182
4850,-0.046,-0.182
4851,-0.026,-0.182
4852,-0.009,-0.179
4853,0.009,-0.179
4854,0.023,-0.179
4855,0.037,-0.179
4856,0.046,-0.177
4857,0.056,-0.177
4858,0.062,-0.177
4859,0.068,-0.177
4860,0.072,-0.174
4861,0.077,-0.174
4862,0.079,-0.174
4863,0.080,-0.174
4864,0.081,-0.172
4865,0.081,-0.172
4866,0.081,-0.172
4867,0.081,-0.172
4868,0.081,-0.170
4869,0.080,-0.170
4870,0.080,-0.170
4871,0.080,-0.170
4872,0.082,-0.167
4873,0.083,-0.167
4874,0.085,-0.167
4875,0.086,-0.167
4876,0.088,-0.164
4877,0.089,-0.164
4878,0.091,-0.164
4879,0.093,-0.164
4880,0.094,-0.161
4881,0.094,-0.161
4882,0.095,-0.161
4883,0.096,-0.161
4884,0.096,-0.158
4885,0.096,-0.158
4886,0.095,-0.158
4887,0.095,-0.158
4888,0.094,-0.156
4889,0.094,-0.156
4890,0.093,-0.156
4891,0.092,-0.156
4892,0.092,-0.153
4893,0.092,-0.153
4894,0.093,-0.153
4895,0.093,-0.153
4896,0.094,-0.131
4897,0.094,-0.131
4898,0.095,-0.131
4899,0.096,-0.131
4900,0.096,-0.128
4901,0.097,-0.128
4902,0.098,-0.128
4903,0.099,-0.128
4904,0.101,-0.125
4905,0.102,-0.125
4906,0.104,-0.125
4907,0.105,-0.125
4908,0.106,-0.123
4909,0.107,-0.123
4910,0.108,-0.123
4911,0.108,-0.123
4912,0.109,-0.119
4913,0.109,-0.119
4914,0.110,-0.119
4915,0.111,-0.119
4916,0.113,-0.116
4917,0.114,-0.116
4918,0.115,-0.116
4919,0.116,-0.116
4920,0.117,-0.112
4921,0.118,-0.112
4922,0.119,-0.112
4923,0.121,-0.112
4924,0.122,-0.107
4925,0.124,-0.107
4926,0.125,-0.107
4927,0.127,-0.107
4928,0.129,-0.101
4929,0.132,-0.101
4930,0.134,-0.101
4931,0.137,-0.101
4932,0.139,-0.093
4933,0.141,-0.093
4934,0.142,-0.093
4935,0.143,-0.093
4936,0.145,-0.086
4937,0.146,-0.086
4938,0.148,-0.086
4939,0.150,-0.086
4940,0.152,-0.074
4941,0.154,-0.074
4942,0.156,-0.074
4943,0.157,-0.074
4944,0.158,-0.062
4945,0.159,-0.062
4946,0.160,-0.062
4947,0.160,-0.062
4948,0.160,-0.051
4949,0.160,-0.051
4950,0.159,-0.051
4951,0.158,-0.051
4952,0.158,-0.035
4953,0.157,-0.035
4954,0.157,-0.035
4955,0.157,-0.035
4956,0.157,-0.019
4957,0.156,-0.019
4958,0.156,-0.019
4959,0.155,-0.019
4960,0.154,-0.004
4961,0.154,-0.004
4962,0.153,-0.004
4963,0.152,-0.004
4964,0.150,0.011
4965,0.148,0.011
4966,0.144,0.011
4967,0.141,0.011
4968,0.136,0.027
4969,0.132,0.027
4970,0.130,0.027
4971,0.127,0.027
4972,0.124,0.041
4973,0.122,0.041
4974,0.120,0.041
4975,0.119,0.041
4976,0.116,0.054
4977,0.114,0.054
4978,0.111,0.054
4979,0.108,0.054
4980,0.104,0.066
4981,0.101,0.066
4982,0.098,0.066
4983,0.094,0.066
4984,0.092,0.077
4985,0.090,0.077
4986,0.088,0.077
4987,0.086,0.077
4988,0.084,0.087
4989,0.082,0.087
4990,0.079,0.087
4991,0.076,0.087
4992,0.074,0.094
4993,0.072,0.094
4994,0.070,0.094
4995,0.069,0.094
4996,0.067,0.102
4997,0.065,0.102
4998,0.063,0.102
4999,0.061,0.102
5000,0.060,0.106
5001,0.058,0.106
5002,0.057,0.106
5003,0.056,0.106
5004,0.054,0.110
5005,0.053,0.110
5006,0.052,0.110
5007,0.050,0.110
5008,0.050,0.112
5009,0.050,0.112
5010,0.049,0.112
5011,0.048,0.112
5012,0.046,0.112
5013,0.045,0.112
5014,0.043,0.112
5015,0.042,0.112
5016,0.040,0.111
5017,0.039,0.111
5018,0.037,0.111
5019,0.034,0.111
5020,0.033,0.106
5021,0.031,0.106
5022,0.030,0.106
5023,0.029,0.106
5024,0.029,0.102
5025,0.028,0.102
5026,0.027,0.102
5027,0.026,0.102
5028,0.025,0.097
5029,0.023,0.097
5030,0.022,0.097
5031,0.021,0.097
5032,0.021,0.089
5033,0.020,0.089
5034,0.019,0.089
5035,0.018,0.089
5036,0.017,0.082
5037,0.016,0.082
5038,0.016,0.082
5039,0.015,0.082
5040,0.016,0.073
5041,0.017,0.073
5042,0.018,0.073
5043,0.020,0.073
5044,0.022,0.066
5045,0.023,0.066
5046,0.025,0.066
5047,0.026,0.066
5048,0.027,0.059
5049,0.029,0.059
5050,0.030,0.059
5051,0.031,0.059
5052,0.033,0.051
5053,0.034,0.051
5054,0.036,0.051
5055,0.038,0.051
5056,0.039,0.044
5057,0.040,0.044
5058,0.041,0.044
5059,0.041,0.044
5060,0.042,0.038
5061,0.043,0.038
5062,0.044,0.038
5063,0.045,0.038
5064,0.046,0.031
5065,0.046,0.031
5066,0.047,0.031
5067,0.048,0.031
5068,0.048,0.025
5069,0.048,0.025
5070,0.048,0.025
5071,0.048,0.025
5072,0.048,0.021
5073,0.048,0.021
5074,0.048,0.021
5075,0.048,0.021
5076,0.048,0.015
5077,0.048,0.015
5078,0.049,0.015
5079,0.050,0.015
5080,0.052,0.007
5081,0.053,0.007
5082,0.051,0.007
5083,0.050,0.007
5084,0.046,0.003
5085,0.042,0.003
5086,0.036,0.003
5087,0.030,0.003
5088,0.023,-0.002
5089,0.016,-0.002
5090,0.010,-0.002
5091,0.004,-0.002
5092,0.001,-0.007
5093,-0.003,-0.007
5094,-0.005,-0.007
5095,-0.008,-0.007
5096,-0.010,-0.011
5097,-0.011,-0.011
5098,-0.013,-0.011
5099,-0.015,-0.011
5100,-0.018,-0.017
5101,-0.021,-0.017
5102,-0.024,-0.017
5103,-0.027,-0.017
5104,-0.030,-0.022
5105,-0.032,-0.022
5106,-0.034,-0.022
5107,-0.037,-0.022
5108,-0.038,-0.026
5109,-0.039,-0.026
5110,-0.039,-0.026
5111,-0.040,-0.026
5112,-0.039,-0.032
5113,-0.038,-0.032
5114,-0.037,-0.032
5115,-0.037,-0.032
5116,-0.035,-0.037
5117,-0.034,-0.037
5118,-0.033,-0.037
5119,-0.031,-0.037
5120,-0.031,-0.041
5121,-0.030,-0.041
5122,-0.030,-0.041
5123,-0.029,-0.041
5124,-0.029,-0.048
5125,-0.029,-0.048
5126,-0.029,-0.048
5127,-0.029,-0.048
5128,-0.029,-0.051
5129,-0.029,-0.051
5130,-0.029,-0.051
5131,-0.029,-0.051
5132,-0.027,-0.056
5133,-0.026,-0.056
5134,-0.026,-0.056
5135,-0.025,-0.056
5136,-0.025,-0.061
5137,-0.024,-0.061
5138,-0.024,-0.061
5139,-0.024,-0.061
5140,-0.024,-0.065
5141,-0.023,-0.065
5142,-0.023,-0.065
5143,-0.022,-0.065
5144,-0.022,-0.069
5145,-0.021,-0.069
5146,-0.022,-0.069
5147,-0.022,-0.069
5148,-0.022,-0.073
5149,-0.022,-0.073
5150,-0.022,-0.073
5151,-0.021,-0.073
5152,-0.020,-0.056
5153,-0.020,-0.056
5154,-0.019,-0.056
5155,-0.018,-0.056
5156,-0.017,-0.060
5157,-0.017,-0.060
5158,-0.016,-0.060
5159,-0.016,-0.060
5160,-0.016,-0.063
5161,-0.016,-0.063
5162,-0.016,-0.063
5163,-0.016,-0.063
5164,-0.016,-0.067
5165,-0.017,-0.067
5166,-0.018,-0.067
5167,-0.018,-0.067
5168,-0.019,-0.070
5169,-0.020,-0.070
5170,-0.021,-0.070
5171,-0.021,-0.070
5172,-0.021,-0.074
5173,-0.021,-0.074
5174,-0.020,-0.074
5175,-0.019,-0.074
5176,-0.016,-0.077
5177,-0.014,-0.077
5178,-0.010,-0.077
5179,-0.007,-0.077
5180,-0.002,-0.082
5181,0.002,-0.082
5182,0.008,-0.082
5183,0.013,-0.082
5184,0.019,-0.083
5185,0.026,-0.083
5186,0.031,-0.083
5187,0.036,-0.083
5188,0.038,-0.086
5189,0.041,-0.086
5190,0.041,-0.086
5191,0.042,-0.086
5192,0.039,-0.090
5193,0.037,-0.090
5194,0.027,-0.090
5195,0.018,-0.090
5196,-0.001,-0.094
5197,-0.020,-0.094
5198,-0.048,-0.094
5199,-0.075,-0.094
5200,-0.111,-0.097
5201,-0.146,-0.097
5202,-0.183,-0.097
5203,-0.219,-0.097
5204,-0.250,-0.101
5205,-0.280,-0.101
5206,-0.302,-0.101
5207,-0.323,-0.101
5208,-0.331,-0.102
5209,-0.340,-0.102
5210,-0.336,-0.102
5211,-0.333,-0.102
5212,-0.321,-0.105
5213,-0.309,-0.105
5214,-0.294,-0.105
5215,-0.279,-0.105
5216,-0.267,-0.108
5217,-0.255,-0.108
5218,-0.251,-0.108
5219,-0.247,-0.108
5220,-0.252,-0.111
5221,-0.258,-0.111
5222,-0.274,-0.111
5223,-0.291,-0.111
5224,-0.312,-0.113
5225,-0.334,-0.113
5226,-0.356,-0.113
5227,-0.378,-0.113
5228,-0.395,-0.113
5229,-0.413,-0.113
5230,-0.423,-0.113
5231,-0.433,-0.113
5232,-0.434,-0.115
5233,-0.435,-0.115
5234,-0.427,-0.115
5235,-0.419,-0.115
5236,-0.404,-0.116
5237,-0.389,-0.116
5238,-0.369,-0.116
5239,-0.350,-0.116
5240,-0.327,-0.117
5241,-0.304,-0.117
5242,-0.281,-0.117
5243,-0.257,-0.117
5244,-0.235,-0.118
5245,-0.212,-0.118
5246,-0.194,-0.118
5247,-0.175,-0.118
5248,-0.160,-0.117
5249,-0.144,-0.117
5250,-0.131,-0.117
5251,-0.119,-0.117
5252,-0.104,-0.117
5253,-0.090,-0.117
5254,-0.074,-0.117
5255,-0.057,-0.117
5256,-0.039,-0.116
5257,-0.021,-0.116
5258,-0.003,-0.116
5259,0.015,-0.116
5260,0.033,-0.115
5261,0.050,-0.115
5262,0.063,-0.115
5263,0.077,-0.115
5264,0.087,-0.114
5265,0.097,-0.114
5266,0.103,-0.114
5267,0.108,-0.114
5268,0.111,-0.113
5269,0.113,-0.113
5270,0.114,-0.113
5271,0.115,-0.113
5272,0.115,-0.111
5273,0.115,-0.111
5274,0.115,-0.111
5275,0.115,-0.111
5276,0.115,-0.108
5277,0.114,-0.108
5278,0.114,-0.108
5279,0.113,-0.108
5280,0.114,-0.107
5281,0.114,-0.107
5282,0.115,-0.107
5283,0.116,-0.107
5284,0.116,-0.104
5285,0.117,-0.104
5286,0.117,-0.104
5287,0.118,-0.104
5288,0.118,-0.102
5289,0.118,-0.102
5290,0.117,-0.102
5291,0.117,-0.102
5292,0.117,-0.101
5293,0.117,-0.101
5294,0.117,-0.101
5295,0.118,-0.101
5296,0.118,-0.097
5297,0.118,-0.097
5298,0.117,-0.097
5299,0.117,-0.097
5300,0.117,-0.094
5301,0.116,-0.094
5302,0.116,-0.094
5303,0.115,-0.094
5304,0.114,-0.091
5305,0.113,-0.091
5306,0.112,-0.091
5307,0.112,-0.091
5308,0.112,-0.090
5309,0.112,-0.090
5310,0.112,-0.090
5311,0.113,-0.090
5312,0.113,-0.086
5313,0.114,-0.086
5314,0.115,-0.086
5315,0.115,-0.086
5316,0.115,-0.083
5317,0.115,-0.083
5318,0.115,-0.083
5319,0.115,-0.083
5320,0.115,-0.080
5321,0.115,-0.080
5322,0.115,-0.080
5323,0.116,-0.080
5324,0.117,-0.076
5325,0.118,-0.076
5326,0.119,-0.076
5327,0.121,-0.076
5328,0.123,-0.071
5329,0.124,-0.071
5330,0.126,-0.071
5331,0.128,-0.071
5332,0.130,-0.067
5333,0.132,-0.067
5334,0.135,-0.067
5335,0.137,-0.067
5336,0.139,-0.060
5337,0.141,-0.060
5338,0.144,-0.060
5339,0.147,-0.060
5340,0.149,-0.054
5341,0.151,-0.054
5342,0.153,-0.054
5343,0.155,-0.054
5344,0.157,-0.045
5345,0.160,-0.045
5346,0.161,-0.045
5347,0.162,-0.045
5348,0.163,-0.035
5349,0.164,-0.035
5350,0.165,-0.035
5351,0.165,-0.035
5352,0.166,-0.023
5353,0.167,-0.023
5354,0.167,-0.023
5355,0.167,-0.023
5356,0.167,-0.011
5357,0.167,-0.011
5358,0.167,-0.011
5359,0.167,-0.011
5360,0.167,0.005
5361,0.167,0.005
5362,0.167,0.005
5363,0.167,0.005
5364,0.167,0.018
5365,0.167,0.018
5366,0.167,0.018
5367,0.167,0.018
5368,0.166,0.033
5369,0.166,0.033
5370,0.165,0.033
5371,0.165,0.033
5372,0.164,0.046
5373,0.163,0.046
5374,0.162,0.046
5375,0.161,0.046
5376,0.159,0.061
5377,0.157,0.061
5378,0.154,0.061
5379,0.151,0.061
5380,0.146,0.072
5381,0.142,0.072
5382,0.138,0.072
5383,0.133,0.072
5384,0.130,0.085
5385,0.126,0.085
5386,0.123,0.085
5387,0.119,0.085
5388,0.116,0.094
5389,0.113,0.094
5390,0.111,0.094
5391,0.109,0.094
5392,0.107,0.104
5393,0.105,0.104
5394,0.103,0.104
5395,0.100,0.104
5396,0.098,0.112
5397,0.095,0.112
5398,0.092,0.112
5399,0.089,0.112
5400,0.087,0.117
5401,0.085,0.117
5402,0.083,0.117
5403,0.082,0.117
5404,0.081,0.124
5405,0.080,0.124
5406,0.078,0.124
5407,0.077,0.124
5408,0.075,0.129
5409,0.074,0.129
5410,0.072,0.129
5411,0.071,0.129
5412,0.070,0.131
5413,0.069,0.131
5414,0.067,0.131
5415,0.065,0.131
5416,0.063,0.133
5417,0.061,0.133
5418,0.060,0.133
5419,0.058,0.133
5420,0.057,0.133
5421,0.056,0.133
5422,0.056,0.133
5423,0.055,0.133
5424,0.054,0.130
5425,0.053,0.130
5426,0.051,0.130
5427,0.050,0.130
5428,0.049,0.125
5429,0.048,0.125
5430,0.048,0.125
5431,0.047,0.125
5432,0.046,0.120
5433,0.045,0.120
5434,0.044,0.120
5435,0.042,0.120
5436,0.041,0.113
5437,0.040,0.113
5438,0.038,0.113
5439,0.037,0.113
5440,0.035,0.104
5441,0.034,0.104
5442,0.034,0.104
5443,0.034,0.104
5444,0.034,0.097
5445,0.034,0.097
5446,0.035,0.097
5447,0.035,0.097
5448,0.036,0.087
5449,0.037,0.087
5450,0.040,0.087
5451,0.042,0.087
5452,0.044,0.079
5453,0.045,0.079
5454,0.047,0.079
5455,0.048,0.079
5456,0.049,0.071
5457,0.050,0.071
5458,0.051,0.071
5459,0.051,0.071
5460,0.051,0.063
5461,0.050,0.063
5462,0.050,0.063
5463,0.050,0.063
5464,0.051,0.056
5465,0.051,0.056
5466,0.052,0.056
5467,0.053,0.056
5468,0.055,0.049
5469,0.056,0.049
5470,0.058,0.049
5471,0.059,0.049
5472,0.060,0.043
5473,0.061,0.043
5474,0.061,0.043
5475,0.061,0.043
5476,0.060,0.037
5477,0.059,0.037
5478,0.059,0.037
5479,0.059,0.037
5480,0.059,0.030
5481,0.060,0.030
5482,0.062,0.030
5483,0.064,0.030
5484,0.064,0.025
5485,0.065,0.025
5486,0.065,0.025
5487,0.066,0.025
5488,0.064,0.019
5489,0.062,0.019
5490,0.057,0.019
5491,0.052,0.019
5492,0.044,0.015
5493,0.036,0.015
5494,0.028,0.015
5495,0.020,0.015
5496,0.014,0.010
5497,0.008,0.010
5498,0.005,0.010
5499,0.001,0.010
5500,0.000,0.005
5501,-0.001,0.005
5502,-0.003,0.005
5503,-0.004,0.005
5504,-0.007,-0.001
5505,-0.009,-0.001
5506,-0.012,-0.001
5507,-0.015,-0.001
5508,-0.019,-0.006
5509,-0.023,-0.006
5510,-0.025,-0.006
5511,-0.028,-0.006
5512,-0.030,-0.011
5513,-0.031,-0.011
5514,-0.033,-0.011
5515,-0.034,-0.011
5516,-0.035,-0.017
5517,-0.036,-0.017
5518,-0.035,-0.017
5519,-0.034,-0.017
5520,-0.032,-0.021
5521,-0.030,-0.021
5522,-0.029,-0.021
5523,-0.029,-0.021
5524,-0.028,-0.027
5525,-0.027,-0.027
5526,-0.027,-0.027
5527,-0.027,-0.027
5528,-0.027,-0.031
5529,-0.026,-0.031
5530,-0.026,-0.031
5531,-0.025,-0.031
5532,-0.024,-0.036
5533,-0.023,-0.036
5534,-0.022,-0.036
5535,-0.021,-0.036
5536,-0.020,-0.041
5537,-0.019,-0.041
5538,-0.019,-0.041
5539,-0.019,-0.041
5540,-0.020,-0.044
5541,-0.021,-0.044
5542,-0.022,-0.044
5543,-0.022,-0.044
5544,-0.022,-0.051
5545,-0.021,-0.051
5546,-0.020,-0.051
5547,-0.020,-0.051
5548,-0.019,-0.054
5549,-0.018,-0.054
5550,-0.017,-0.054
5551,-0.017,-0.054
5552,-0.016,-0.058
5553,-0.015,-0.058
5554,-0.015,-0.058
5555,-0.014,-0.058
5556,-0.014,-0.062
5557,-0.013,-0.062
5558,-0.014,-0.062
5559,-0.015,-0.062
5560,-0.015,-0.067
5561,-0.015,-0.067
5562,-0.015,-0.067
5563,-0.015,-0.067
5564,-0.015,-0.070
5565,-0.015,-0.070
5566,-0.014,-0.070
5567,-0.014,-0.070
5568,-0.014,-0.072
5569,-0.013,-0.072
5570,-0.014,-0.072
5571,-0.014,-0.072
5572,-0.014,-0.076
5573,-0.014,-0.076
5574,-0.014,-0.076
5575,-0.015,-0.076
5576,-0.015,-0.080
5577,-0.015,-0.080
5578,-0.015,-0.080
5579,-0.014,-0.080
5580,-0.013,-0.084
5581,-0.012,-0.084
5582,-0.010,-0.084
5583,-0.008,-0.084
5584,-0.004,-0.087
5585,-0.001,-0.087
5586,0.003,-0.087
5587,0.007,-0.087
5588,0.013,-0.090
5589,0.018,-0.090
5590,0.023,-0.090
5591,0.029,-0.090
5592,0.032,-0.092
5593,0.036,-0.092
5594,0.038,-0.092
5595,0.041,-0.092
5596,0.041,-0.095
5597,0.041,-0.095
5598,0.037,-0.095
5599,0.034,-0.095
5600,0.022,-0.098
5601,0.011,-0.098
5602,-0.010,-0.098
5603,-0.031,-0.098
5604,-0.062,-0.101
5605,-0.093,-0.101
5606,-0.131,-0.101
5607,-0.168,-0.101
5608,-0.205,-0.103
5609,-0.242,-0.103
5610,-0.272,-0.103
5611,-0.302,-0.103
5612,-0.322,-0.107
5613,-0.342,-0.107
5614,-0.349,-0.107
5615,-0.356,-0.107
5616,-0.351,-0.110
5617,-0.346,-0.110
5618,-0.334,-0.110
5619,-0.322,-0.110
5620,-0.308,-0.113
5621,-0.295,-0.113
5622,-0.284,-0.113
5623,-0.273,-0.113
5624,-0.270,-0.114
5625,-0.266,-0.114
5626,-0.272,-0.114
5627,-0.278,-0.114
5628,-0.293,-0.117
5629,-0.307,-0.117
5630,-0.328,-0.117
5631,-0.348,-0.117
5632,-0.369,-0.119
5633,-0.390,-0.119
5634,-0.407,-0.119
5635,-0.423,-0.119
5636,-0.431,-0.120
5637,-0.440,-0.120
5638,-0.439,-0.120
5639,-0.438,-0.120
5640,-0.429,-0.121
5641,-0.420,-0.121
5642,-0.404,-0.121
5643,-0.389,-0.121
5644,-0.367,-0.120
5645,-0.345,-0.120
5646,-0.320,-0.120
5647,-0.295,-0.120
5648,-0.270,-0.121
5649,-0.244,-0.121
5650,-0.223,-0.121
5651,-0.202,-0.121
5652,-0.185,-0.120
5653,-0.168,-0.120
5654,-0.154,-0.120
5655,-0.141,-0.120
5656,-0.128,-0.120
5657,-0.116,-0.120
5658,-0.101,-0.120
5659,-0.086,-0.120
5660,-0.068,-0.119
5661,-0.050,-0.119
5662,-0.030,-0.119
5663,-0.010,-0.119
5664,0.010,-0.103
5665,0.029,-0.103
5666,0.045,-0.103
5667,0.061,-0.103
5668,0.074,-0.102
5669,0.086,-0.102
5670,0.095,-0.102
5671,0.105,-0.102
5672,0.111,-0.101
5673,0.117,-0.101
5674,0.120,-0.101
5675,0.124,-0.101
5676,0.125,-0.100
5677,0.127,-0.100
5678,0.126,-0.100
5679,0.126,-0.100
5680,0.126,-0.097
5681,0.125,-0.097
5682,0.125,-0.097
5683,0.125,-0.097
5684,0.124,-0.097
5685,0.124,-0.097
5686,0.123,-0.097
5687,0.122,-0.097
5688,0.121,-0.094
5689,0.119,-0.094
5690,0.119,-0.094
5691,0.118,-0.094
5692,0.117,-0.092
5693,0.117,-0.092
5694,0.117,-0.092
5695,0.117,-0.092
5696,0.117,-0.091
5697,0.118,-0.091
5698,0.118,-0.091
5699,0.118,-0.091
5700,0.117,-0.087
5701,0.117,-0.087
5702,0.117,-0.087
5703,0.117,-0.087
5704,0.117,-0.085
5705,0.118,-0.085
5706,0.118,-0.085
5707,0.118,-0.085
5708,0.118,-0.084
5709,0.118,-0.084
5710,0.119,-0.084
5711,0.119,-0.084
5712,0.120,-0.083
5713,0.121,-0.083
5714,0.122,-0.083
5715,0.123,-0.083
5716,0.123,-0.080
5717,0.123,-0.080
5718,0.123,-0.080
5719,0.124,-0.080
5720,0.125,-0.079
5721,0.126,-0.079
5722,0.128,-0.079
5723,0.130,-0.079
5724,0.131,-0.074
5725,0.133,-0.074
5726,0.134,-0.074
5727,0.135,-0.074
5728,0.137,-0.071
5729,0.139,-0.071
5730,0.141,-0.071
5731,0.142,-0.071
5732,0.143,-0.070
5733,0.145,-0.070
5734,0.146,-0.070
5735,0.147,-0.070
5736,0.148,-0.065
5737,0.149,-0.065
5738,0.151,-0.065
5739,0.153,-0.065
5740,0.156,-0.060
5741,0.159,-0.060
5742,0.161,-0.060
5743,0.163,-0.060
5744,0.165,-0.054
5745,0.167,-0.054
5746,0.169,-0.054
5747,0.171,-0.054
5748,0.173,-0.046
5749,0.174,-0.046
5750,0.175,-0.046
5751,0.175,-0.046
5752,0.175,-0.036
5753,0.176,-0.036
5754,0.176,-0.036
5755,0.177,-0.036
5756,0.179,-0.026
5757,0.180,-0.026
5758,0.181,-0.026
5759,0.181,-0.026
5760,0.182,-0.013
5761,0.183,-0.013
5762,0.183,-0.013
5763,0.184,-0.013
5764,0.183,0.000
5765,0.182,0.000
5766,0.181,0.000
5767,0.181,0.000
5768,0.180,0.013
5769,0.179,0.013
5770,0.179,0.013
5771,0.179,0.013
5772,0.177,0.026
5773,0.176,0.026
5774,0.176,0.026
5775,0.176,0.026
5776,0.174,0.042
5777,0.173,0.042
5778,0.170,0.042
5779,0.168,0.042
5780,0.165,0.054
5781,0.162,0.054
5782,0.159,0.054
5783,0.156,0.054
5784,0.152,0.068
5785,0.148,0.068
5786,0.144,0.068
5787,0.140,0.068
5788,0.136,0.081
5789,0.132,0.081
5790,0.128,0.081
5791,0.124,0.081
5792,0.121,0.091
5793,0.119,0.091
5794,0.116,0.091
5795,0.113,0.091
5796,0.109,0.101
5797,0.106,0.101
5798,0.103,0.101
5799,0.100,0.101
5800,0.097,0.111
5801,0.094,0.111
5802,0.092,0.111
5803,0.090,0.111
5804,0.089,0.119
5805,0.087,0.119
5806,0.086,0.119
5807,0.084,0.119
5808,0.082,0.125
5809,0.080,0.125
5810,0.078,0.125
5811,0.077,0.125
5812,0.075,0.131
5813,0.073,0.131
5814,0.071,0.131
5815,0.069,0.131
5816,0.067,0.134
5817,0.066,0.134
5818,0.065,0.134
5819,0.064,0.134
5820,0.064,0.136
5821,0.063,0.136
5822,0.062,0.136
5823,0.061,0.136
5824,0.060,0.136
5825,0.058,0.136
5826,0.057,0.136
5827,0.056,0.136
5828,0.054,0.134
5829,0.053,0.134
5830,0.051,0.134
5831,0.049,0.134
5832,0.047,0.129
5833,0.045,0.129
5834,0.044,0.129
5835,0.042,0.129
5836,0.041,0.125
5837,0.040,0.125
5838,0.038,0.125
5839,0.037,0.125
5840,0.037,0.118
5841,0.037,0.118
5842,0.037,0.118
5843,0.037,0.118
5844,0.035,0.112
5845,0.034,0.112
5846,0.033,0.112
5847,0.031,0.112
5848,0.030,0.103
5849,0.029,0.103
5850,0.029,0.103
5851,0.029,0.103
5852,0.031,0.094
5853,0.033,0.094
5854,0.035,0.094
5855,0.038,0.094
5856,0.040,0.086
5857,0.041,0.086
5858,0.042,0.086
5859,0.043,0.086
5860,0.044,0.077
5861,0.045,0.077
5862,0.045,0.077
5863,0.045,0.077
5864,0.046,0.069
5865,0.046,0.069
5866,0.046,0.069
5867,0.047,0.069
5868,0.047,0.062
5869,0.047,0.062
5870,0.048,0.062
5871,0.048,0.062
5872,0.050,0.056
5873,0.051,0.056
5874,0.053,0.056
5875,0.054,0.056
5876,0.055,0.049
5877,0.056,0.049
5878,0.056,0.049
5879,0.056,0.049
5880,0.056,0.043
5881,0.056,0.043
5882,0.056,0.043
5883,0.056,0.043
5884,0.056,0.038
5885,0.056,0.038
5886,0.058,0.038
5887,0.059,0.038
5888,0.060,0.031
5889,0.061,0.031
5890,0.061,0.031
5891,0.061,0.031
5892,0.060,0.026
5893,0.059,0.026
5894,0.056,0.026
5895,0.052,0.026
5896,0.045,0.021
5897,0.039,0.021
5898,0.031,0.021
5899,0.024,0.021
5900,0.017,0.015
5901,0.010,0.015
5902,0.005,0.015
5903,0.001,0.015
5904,-0.001,0.011
5905,-0.004,0.011
5906,-0.005,0.011
5907,-0.007,0.011
5908,-0.008,0.005
5909,-0.010,0.005
5910,-0.012,0.005
5911,-0.014,0.005
5912,-0.016,0.001
5913,-0.018,0.001
5914,-0.020,0.001
5915,-0.023,0.001
5916,-0.025,-0.004
5917,-0.027,-0.004
5918,-0.029,-0.004
5919,-0.030,-0.004
5920,-0.030,-0.009
5921,-0.030,-0.009
5922,-0.030,-0.009
5923,-0.029,-0.009
5924,-0.029,-0.013
5925,-0.029,-0.013
5926,-0.028,-0.013
5927,-0.027,-0.013
5928,-0.027,-0.021
5929,-0.027,-0.021
5930,-0.027,-0.021
5931,-0.027,-0.021
5932,-0.027,-0.024
5933,-0.026,-0.024
5934,-0.025,-0.024
5935,-0.024,-0.024
5936,-0.023,-0.029
5937,-0.022,-0.029
5938,-0.022,-0.029
5939,-0.021,-0.029
5940,-0.022,-0.035
5941,-0.022,-0.035
5942,-0.022,-0.035
5943,-0.022,-0.035
5944,-0.022,-0.040
5945,-0.022,-0.040
5946,-0.022,-0.040
5947,-0.022,-0.040
5948,-0.022,-0.044
5949,-0.021,-0.044
5950,-0.020,-0.044
5951,-0.020,-0.044
5952,-0.019,-0.050
5953,-0.018,-0.050
5954,-0.018,-0.050
5955,-0.018,-0.050
5956,-0.018,-0.053
5957,-0.018,-0.053
5958,-0.017,-0.053
5959,-0.017,-0.053
5960,-0.016,-0.057
5961,-0.016,-0.057
5962,-0.016,-0.057
5963,-0.017,-0.057
5964,-0.018,-0.060
5965,-0.018,-0.060
5966,-0.019,-0.060
5967,-0.020,-0.060
5968,-0.019,-0.065
5969,-0.018,-0.065
5970,-0.018,-0.065
5971,-0.018,-0.065
5972,-0.018,-0.069
5973,-0.018,-0.069
5974,-0.017,-0.069
5975,-0.017,-0.069
5976,-0.016,-0.071
5977,-0.016,-0.071
5978,-0.016,-0.071
5979,-0.016,-0.071
5980,-0.016,-0.075
5981,-0.016,-0.075
5982,-0.016,-0.075
5983,-0.016,-0.075
5984,-0.016,-0.079
5985,-0.015,-0.079
5986,-0.014,-0.079
5987,-0.013,-0.079
5988,-0.011,-0.083
5989,-0.008,-0.083
5990,-0.004,-0.083
5991,0.001,-0.083
5992,0.005,-0.084
5993,0.010,-0.084
5994,0.015,-0.084
5995,0.020,-0.084
5996,0.026,-0.088
5997,0.031,-0.088
5998,0.034,-0.088
5999,0.038,-0.088
6000,0.039,-0.092
6001,0.040,-0.092
6002,0.037,-0.092
6003,0.034,-0.092
6004,0.026,-0.094
6005,0.018,-0.094
6006,0.001,-0.094
6007,-0.015,-0.094
6008,-0.042,-0.098
6009,-0.068,-0.098
6010,-0.103,-0.098
6011,-0.138,-0.098
6012,-0.177,-0.101
6013,-0.215,-0.101
6014,-0.250,-0.101
6015,-0.285,-0.101
6016,-0.312,-0.102
6017,-0.339,-0.102
6018,-0.353,-0.102
6019,-0.367,-0.102
6020,-0.369,-0.105
6021,-0.371,-0.105
6022,-0.362,-0.105
6023,-0.353,-0.105
6024,-0.340,-0.107
6025,-0.326,-0.107
6026,-0.314,-0.107
6027,-0.302,-0.107
6028,-0.294,-0.110
6029,-0.286,-0.110
6030,-0.286,-0.110
6031,-0.286,-0.110
6032,-0.296,-0.111
6033,-0.306,-0.111
6034,-0.323,-0.111
6035,-0.340,-0.111
6036,-0.359,-0.111
6037,-0.378,-0.111
6038,-0.395,-0.111
6039,-0.413,-0.111
6040,-0.425,-0.112
6041,-0.438,-0.112
6042,-0.441,-0.112
6043,-0.445,-0.112
6044,-0.439,-0.111
6045,-0.433,-0.111
6046,-0.419,-0.111
6047,-0.405,-0.111
6048,-0.387,-0.112
6049,-0.368,-0.112
6050,-0.347,-0.112
6051,-0.325,-0.112
6052,-0.302,-0.112
6053,-0.280,-0.112
6054,-0.257,-0.112
6055,-0.235,-0.112
6056,-0.216,-0.112
6057,-0.196,-0.112
6058,-0.180,-0.112
6059,-0.164,-0.112
6060,-0.150,-0.110
6061,-0.135,-0.110
6062,-0.121,-0.110
6063,-0.106,-0.110
6064,-0.088,-0.110
6065,-0.070,-0.110
6066,-0.050,-0.110
6067,-0.031,-0.110
6068,-0.010,-0.110
6069,0.010,-0.110
6070,0.029,-0.110
6071,0.047,-0.110
6072,0.061,-0.108
6073,0.075,-0.108
6074,0.086,-0.108
6075,0.097,-0.108
6076,0.104,-0.106
6077,0.111,-0.106
6078,0.115,-0.106
6079,0.119,-0.106
6080,0.120,-0.106
6081,0.121,-0.106
6082,0.121,-0.106
6083,0.121,-0.106
6084,0.120,-0.103
6085,0.119,-0.103
6086,0.119,-0.103
6087,0.118,-0.103
6088,0.117,-0.101
6089,0.116,-0.101
6090,0.116,-0.101
6091,0.116,-0.101
6092,0.116,-0.099
6093,0.117,-0.099
6094,0.117,-0.099
6095,0.118,-0.099
6096,0.118,-0.096
6097,0.119,-0.096
6098,0.119,-0.096
6099,0.119,-0.096
6100,0.120,-0.094
6101,0.120,-0.094
6102,0.120,-0.094
6103,0.120,-0.094
6104,0.120,-0.091
6105,0.120,-0.091
6106,0.120,-0.091
6107,0.120,-0.091
6108,0.120,-0.089
6109,0.121,-0.089
6110,0.122,-0.089
6111,0.123,-0.089
6112,0.123,-0.086
6113,0.123,-0.086
6114,0.123,-0.086
6115,0.123,-0.086
6116,0.123,-0.085
6117,0.123,-0.085
6118,0.123,-0.085
6119,0.124,-0.085
6120,0.125,-0.083
6121,0.126,-0.083
6122,0.127,-0.083
6123,0.129,-0.083
6124,0.130,-0.083
6125,0.131,-0.083
6126,0.132,-0.083
6127,0.132,-0.083
6128,0.133,-0.079
6129,0.133,-0.079
6130,0.134,-0.079
6131,0.135,-0.079
6132,0.136,-0.076
6133,0.138,-0.076
6134,0.140,-0.076
6135,0.142,-0.076
6136,0.144,-0.073
6137,0.146,-0.073
6138,0.148,-0.073
6139,0.150,-0.073
6140,0.152,-0.070
6141,0.154,-0.070
6142,0.156,-0.070
6143,0.158,-0.070
6144,0.160,-0.065
6145,0.161,-0.065
6146,0.162,-0.065
6147,0.164,-0.065
6148,0.165,-0.059
6149,0.166,-0.059
6150,0.168,-0.059
6151,0.169,-0.059
6152,0.171,-0.051
6153,0.173,-0.051
6154,0.174,-0.051
6155,0.176,-0.051
6156,0.177,-0.043
6157,0.179,-0.043
6158,0.180,-0.043
6159,0.181,-0.043
6160,0.182,-0.032
6161,0.183,-0.032
6162,0.184,-0.032
6163,0.184,-0.032
6164,0.184,-0.019
6165,0.184,-0.019
6166,0.184,-0.019
6167,0.184,-0.019
6168,0.184,-0.007
6169,0.184,-0.007
6170,0.183,-0.007
6171,0.182,-0.007
6172,0.181,0.008
6173,0.181,0.008
6174,0.180,0.008
6175,0.179,0.008
6176,0.179,0.011
6177,0.179,0.011
6178,0.177,0.011
6179,0.176,0.011
6180,0.175,0.026
6181,0.173,0.026
6182,0.172,0.026
6183,0.171,0.026
6184,0.169,0.039
6185,0.167,0.039
6186,0.164,0.039
6187,0.162,0.039
6188,0.159,0.052
6189,0.157,0.052
6190,0.154,0.052
6191,0.151,0.052
6192,0.147,0.065
6193,0.144,0.065
6194,0.140,0.065
6195,0.136,0.065
6196,0.132,0.077
6197,0.128,0.077
6198,0.124,0.077
6199,0.121,0.077
6200,0.117,0.086
6201,0.113,0.086
6202,0.109,0.086
6203,0.105,0.086
6204,0.102,0.096
6205,0.100,0.096
6206,0.097,0.096
6207,0.095,0.096
6208,0.093,0.105
6209,0.090,0.105
6210,0.087,0.105
6211,0.085,0.105
6212,0.083,0.112
6213,0.082,0.112
6214,0.081,0.112
6215,0.080,0.112
6216,0.078,0.117
6217,0.076,0.117
6218,0.074,0.117
6219,0.072,0.117
6220,0.072,0.121
6221,0.071,0.121
6222,0.070,0.121
6223,0.069,0.121
6224,0.068,0.123
6225,0.067,0.123
6226,0.066,0.123
6227,0.066,0.123
6228,0.065,0.124
6229,0.064,0.124
6230,0.062,0.124
6231,0.060,0.124
6232,0.058,0.122
6233,0.056,0.122
6234,0.055,0.122
6235,0.054,0.122
6236,0.053,0.120
6237,0.051,0.120
6238,0.050,0.120
6239,0.049,0.120
6240,0.048,0.116
6241,0.048,0.116
6242,0.046,0.116
6243,0.045,0.116
6244,0.043,0.108
6245,0.042,0.108
6246,0.041,0.108
6247,0.040,0.108
6248,0.038,0.103
6249,0.037,0.103
6250,0.035,0.103
6251,0.034,0.103
6252,0.033,0.094
6253,0.033,0.094
6254,0.034,0.094
6255,0.034,0.094
6256,0.036,0.086
6257,0.038,0.086
6258,0.041,0.086
6259,0.043,0.086
6260,0.045,0.077
6261,0.047,0.077
6262,0.049,0.077
6263,0.050,0.077
6264,0.052,0.069
6265,0.054,0.069
6266,0.055,0.069
6267,0.056,0.069
6268,0.056,0.062
6269,0.056,0.062
6270,0.056,0.062
6271,0.056,0.062
6272,0.055,0.054
6273,0.053,0.054
6274,0.053,0.054
6275,0.053,0.054
6276,0.054,0.048
6277,0.054,0.048
6278,0.055,0.048
6279,0.056,0.048
6280,0.058,0.041
6281,0.059,0.041
6282,0.060,0.041
6283,0.061,0.041
6284,0.061,0.035
6285,0.061,0.035
6286,0.061,0.035
6287,0.061,0.035
6288,0.062,0.029
6289,0.062,0.029
6290,0.063,0.029
6291,0.064,0.029
6292,0.064,0.024
6293,0.065,0.024
6294,0.066,0.024
6295,0.067,0.024
6296,0.066,0.017
6297,0.065,0.017
6298,0.062,0.017
6299,0.059,0.017
6300,0.054,0.011
6301,0.048,0.011
6302,0.041,0.011
6303,0.034,0.011
6304,0.026,0.006
6305,0.018,0.006
6306,0.012,0.006
6307,0.007,0.006
6308,0.003,0.001
6309,0.000,0.001
6310,-0.002,0.001
6311,-0.004,0.001
6312,-0.005,-0.003
6313,-0.006,-0.003
6314,-0.008,-0.003
6315,-0.010,-0.003
6316,-0.012,-0.009
6317,-0.015,-0.009
6318,-0.018,-0.009
6319,-0.020,-0.009
6320,-0.023,-0.015
6321,-0.025,-0.015
6322,-0.026,-0.015
6323,-0.028,-0.015
6324,-0.029,-0.019
6325,-0.029,-0.019
6326,-0.030,-0.019
6327,-0.030,-0.019
6328,-0.030,-0.025
6329,-0.029,-0.025
6330,-0.029,-0.025
6331,-0.029,-0.025
6332,-0.028,-0.030
6333,-0.027,-0.030
6334,-0.027,-0.030
6335,-0.026,-0.030
6336,-0.026,-0.035
6337,-0.025,-0.035
6338,-0.025,-0.035
6339,-0.024,-0.035
6340,-0.024,-0.041
6341,-0.024,-0.041
6342,-0.024,-0.041
6343,-0.023,-0.041
6344,-0.023,-0.044
6345,-0.022,-0.044
6346,-0.021,-0.044
6347,-0.020,-0.044
6348,-0.020,-0.049
6349,-0.020,-0.049
6350,-0.019,-0.049
6351,-0.018,-0.049
6352,-0.019,-0.053
6353,-0.019,-0.053
6354,-0.019,-0.053
6355,-0.019,-0.053
6356,-0.019,-0.058
6357,-0.019,-0.058
6358,-0.019,-0.058
6359,-0.019,-0.058
6360,-0.019,-0.062
6361,-0.019,-0.062
6362,-0.019,-0.062
6363,-0.019,-0.062
6364,-0.019,-0.066
6365,-0.019,-0.066
6366,-0.019,-0.066
6367,-0.019,-0.066
6368,-0.019,-0.070
6369,-0.019,-0.070
6370,-0.019,-0.070
6371,-0.019,-0.070
6372,-0.019,-0.072
6373,-0.019,-0.072
6374,-0.019,-0.072
6375,-0.019,-0.072
6376,-0.019,-0.077
6377,-0.019,-0.077
6378,-0.019,-0.077
6379,-0.019,-0.077
6380,-0.019,-0.081
6381,-0.018,-0.081
6382,-0.018,-0.081
6383,-0.017,-0.081
6384,-0.016,-0.085
6385,-0.015,-0.085
6386,-0.015,-0.085
6387,-0.014,-0.085
6388,-0.013,-0.089
6389,-0.012,-0.089
6390,-0.012,-0.089
6391,-0.012,-0.089
6392,-0.010,-0.093
6393,-0.009,-0.093
6394,-0.005,-0.093
6395,-0.001,-0.093
6396,0.003,-0.097
6397,0.008,-0.097
6398,0.014,-0.097
6399,0.019,-0.097
6400,0.025,-0.101
6401,0.030,-0.101
6402,0.033,-0.101
6403,0.036,-0.101
6404,0.036,-0.103
6405,0.036,-0.103
6406,0.033,-0.103
6407,0.029,-0.103
6408,0.022,-0.107
6409,0.014,-0.107
6410,0.000,-0.107
6411,-0.013,-0.107
6412,-0.036,-0.111
6413,-0.059,-0.111
6414,-0.092,-0.111
6415,-0.124,-0.111
6416,-0.162,-0.113
6417,-0.200,-0.113
6418,-0.237,-0.113
6419,-0.274,-0.113
6420,-0.304,-0.117
6421,-0.333,-0.117
6422,-0.350,-0.117
6423,-0.367,-0.117
6424,-0.371,-0.120
6425,-0.375,-0.120
6426,-0.368,-0.120
6427,-0.361,-0.120
6428,-0.348,-0.120
6429,-0.334,-0.120
6430,-0.321,-0.120
6431,-0.307,-0.120
6432,-0.297,-0.126
6433,-0.287,-0.126
6434,-0.285,-0.126
6435,-0.284,-0.126
6436,-0.291,-0.128
6437,-0.299,-0.128
6438,-0.314,-0.128
6439,-0.330,-0.128
6440,-0.350,-0.129
6441,-0.370,-0.129
6442,-0.390,-0.129
6443,-0.409,-0.129
6444,-0.422,-0.131
6445,-0.435,-0.131
6446,-0.439,-0.131
6447,-0.443,-0.131
6448,-0.438,-0.131
6449,-0.433,-0.131
6450,-0.421,-0.131
6451,-0.409,-0.131
6452,-0.392,-0.132
6453,-0.374,-0.132
6454,-0.353,-0.132
6455,-0.332,-0.132
6456,-0.309,-0.131
6457,-0.285,-0.131
6458,-0.262,-0.131
6459,-0.239,-0.131
6460,-0.219,-0.131
6461,-0.198,-0.131
6462,-0.181,-0.131
6463,-0.165,-0.131
6464,-0.151,-0.130
6465,-0.138,-0.130
6466,-0.126,-0.130
6467,-0.113,-0.130
6468,-0.098,-0.129
6469,-0.083,-0.129
6470,-0.065,-0.129
6471,-0.048,-0.129
6472,-0.028,-0.127
6473,-0.009,-0.127
6474,0.010,-0.127
6475,0.029,-0.127
6476,0.044,-0.125
6477,0.060,-0.125
6478,0.073,-0.125
6479,0.086,-0.125
6480,0.095,-0.123
6481,0.104,-0.123
6482,0.109,-0.123
6483,0.115,-0.123
6484,0.117,-0.121
6485,0.120,-0.121
6486,0.120,-0.121
6487,0.121,-0.121
6488,0.120,-0.117
6489,0.120,-0.117
6490,0.119,-0.117
6491,0.118,-0.117
6492,0.117,-0.115
6493,0.117,-0.115
6494,0.117,-0.115
6495,0.117,-0.115
6496,0.117,-0.113
6497,0.118,-0.113
6498,0.118,-0.113
6499,0.118,-0.113
6500,0.117,-0.111
6501,0.117,-0.111
6502,0.117,-0.111
6503,0.117,-0.111
6504,0.117,-0.107
6505,0.118,-0.107
6506,0.118,-0.107
6507,0.118,-0.107
6508,0.117,-0.104
6509,0.117,-0.104
6510,0.117,-0.104
6511,0.117,-0.104
6512,0.118,-0.102
6513,0.119,-0.102
6514,0.119,-0.102
6515,0.119,-0.102
6516,0.119,-0.099
6517,0.118,-0.099
6518,0.117,-0.099
6519,0.117,-0.099
6520,0.117,-0.096
6521,0.118,-0.096
6522,0.119,-0.096
6523,0.120,-0.096
6524,0.120,-0.093
6525,0.121,-0.093
6526,0.122,-0.093
6527,0.123,-0.093
6528,0.123,-0.091
6529,0.124,-0.091
6530,0.124,-0.091
6531,0.125,-0.091
6532,0.126,-0.088
6533,0.127,-0.088
6534,0.128,-0.088
6535,0.130,-0.088
6536,0.131,-0.085
6537,0.133,-0.085
6538,0.134,-0.085
6539,0.135,-0.085
6540,0.137,-0.082
6541,0.138,-0.082
6542,0.139,-0.082
6543,0.141,-0.082
6544,0.142,-0.079
6545,0.144,-0.079
6546,0.146,-0.079
6547,0.149,-0.079
6548,0.151,-0.075
6549,0.153,-0.075
6550,0.156,-0.075
6551,0.158,-0.075
6552,0.160,-0.070
6553,0.162,-0.070
6554,0.164,-0.070
6555,0.166,-0.070
6556,0.168,-0.063
6557,0.169,-0.063
6558,0.171,-0.063
6559,0.172,-0.063
6560,0.173,-0.054
6561,0.174,-0.054
6562,0.175,-0.054
6563,0.176,-0.054
6564,0.177,-0.045
6565,0.177,-0.045
6566,0.177,-0.045
6567,0.176,-0.045
6568,0.177,-0.035
6569,0.177,-0.035
6570,0.178,-0.035
6571,0.179,-0.035
6572,0.179,-0.022
6573,0.179,-0.022
6574,0.179,-0.022
6575,0.179,-0.022
6576,0.177,-0.009
6577,0.176,-0.009
6578,0.175,-0.009
6579,0.173,-0.009
6580,0.172,0.003
6581,0.170,0.003
6582,0.168,0.003
6583,0.165,0.003
6584,0.164,0.018
6585,0.162,0.018
6586,0.161,0.018
6587,0.160,0.018
6588,0.158,0.030
6589,0.157,0.030
6590,0.156,0.030
6591,0.154,0.030
6592,0.151,0.042
6593,0.148,0.042
6594,0.144,0.042
6595,0.140,0.042
6596,0.136,0.054
6597,0.132,0.054
6598,0.128,0.054
6599,0.124,0.054
6600,0.120,0.064
6601,0.116,0.064
6602,0.113,0.064
6603,0.111,0.064
6604,0.108,0.074
6605,0.105,0.074
6606,0.103,0.074
6607,0.100,0.074
6608,0.097,0.083
6609,0.094,0.083
6610,0.091,0.083
6611,0.087,0.083
6612,0.084,0.091
6613,0.080,0.091
6614,0.078,0.091
6615,0.075,0.091
6616,0.073,0.097
6617,0.071,0.097
6618,0.070,0.097
6619,0.069,0.097
6620,0.067,0.102
6621,0.066,0.102
6622,0.065,0.102
6623,0.064,0.102
6624,0.064,0.107
6625,0.063,0.107
6626,0.062,0.107
6627,0.061,0.107
6628,0.060,0.110
6629,0.058,0.110
6630,0.056,0.110
6631,0.055,0.110
6632,0.053,0.110
6633,0.051,0.110
6634,0.050,0.110
6635,0.049,0.110
6636,0.049,0.110
6637,0.048,0.110
6638,0.048,0.110
6639,0.047,0.110
6640,0.046,0.105
6641,0.045,0.105
6642,0.044,0.105
6643,0.042,0.105
6644,0.041,0.103
6645,0.040,0.103
6646,0.038,0.103
6647,0.037,0.103
6648,0.035,0.096
6649,0.034,0.096
6650,0.034,0.096
6651,0.033,0.096
6652,0.031,0.090
6653,0.030,0.090
6654,0.029,0.090
6655,0.028,0.090
6656,0.027,0.084
6657,0.027,0.084
6658,0.028,0.084
6659,0.029,0.084
6660,0.030,0.075
6661,0.031,0.075
6662,0.033,0.075
6663,0.034,0.075
6664,0.036,0.068
6665,0.038,0.068
6666,0.040,0.068
6667,0.041,0.068
6668,0.042,0.060
6669,0.044,0.060
6670,0.046,0.060
