,ECG,PPG
0,-0.105,-0.480
1,-0.100,-0.480
2,-0.095,-0.480
3,-0.089,-0.480
4,-0.082,-0.456
5,-0.075,-0.456
6,-0.069,-0.456
7,-0.063,-0.456
8,-0.058,-0.424
9,-0.053,-0.424
10,-0.048,-0.424
11,-0.043,-0.424
12,-0.039,-0.385
13,-0.035,-0.385
14,-0.032,-0.385
15,-0.029,-0.385
16,-0.027,-0.338
17,-0.025,-0.338
18,-0.024,-0.338
19,-0.022,-0.338
20,-0.022,-0.279
21,-0.022,-0.279
22,-0.021,-0.279
23,-0.021,-0.279
24,-0.020,-0.218
25,-0.019,-0.218
26,-0.018,-0.218
27,-0.018,-0.218
28,-0.019,-0.151
29,-0.020,-0.151
30,-0.021,-0.151
31,-0.023,-0.151
32,-0.024,-0.082
33,-0.025,-0.082
34,-0.026,-0.082
35,-0.028,-0.082
36,-0.029,-0.011
37,-0.029,-0.011
38,-0.029,-0.011
39,-0.029,-0.011
40,-0.028,0.058
41,-0.027,0.058
42,-0.026,0.058
43,-0.025,0.058
44,-0.026,0.123
45,-0.027,0.123
46,-0.028,0.123
47,-0.029,0.123
48,-0.030,0.186
49,-0.031,0.186
50,-0.032,0.186
51,-0.033,0.186
52,-0.034,0.244
53,-0.035,0.244
54,-0.036,0.244
55,-0.037,0.244
56,-0.038,0.299
57,-0.040,0.299
58,-0.041,0.299
59,-0.041,0.299
60,-0.041,0.348
61,-0.041,0.348
62,-0.042,0.348
63,-0.043,0.348
64,-0.044,0.390
65,-0.045,0.390
66,-0.046,0.390
67,-0.048,0.390
68,-0.048,0.426
69,-0.048,0.426
70,-0.048,0.426
71,-0.048,0.426
72,-0.049,0.454
73,-0.049,0.454
74,-0.050,0.454
75,-0.051,0.454
76,-0.052,0.477
77,-0.053,0.477
78,-0.054,0.477
79,-0.055,0.477
80,-0.055,0.491
81,-0.055,0.491
82,-0.054,0.491
83,-0.054,0.491
84,-0.052,0.498
85,-0.051,0.498
86,-0.049,0.498
87,-0.046,0.498
88,-0.043,0.499
89,-0.040,0.499
90,-0.038,0.499
91,-0.036,0.499
92,-0.034,0.491
93,-0.032,0.491
94,-0.030,0.491
95,-0.028,0.491
96,-0.025,0.480
97,-0.022,0.480
98,-0.019,0.480
99,-0.016,0.480
100,-0.013,0.461
101,-0.010,0.461
102,-0.006,0.461
103,-0.002,0.461
104,0.001,0.435
105,0.004,0.435
106,0.006,0.435
107,0.008,0.435
108,0.010,0.409
109,0.012,0.409
110,0.013,0.409
111,0.014,0.409
112,0.015,0.380
113,0.015,0.380
114,0.015,0.380
115,0.014,0.380
116,0.013,0.348
117,0.013,0.348
118,0.011,0.348
119,0.009,0.348
120,0.004,0.314
121,0.000,0.314
122,-0.007,0.314
123,-0.014,0.314
124,-0.021,0.279
125,-0.028,0.279
126,-0.033,0.279
127,-0.038,0.279
128,-0.041,0.246
129,-0.043,0.246
130,-0.045,0.246
131,-0.047,0.246
132,-0.049,0.211
133,-0.051,0.211
134,-0.053,0.211
135,-0.055,0.211
136,-0.058,0.176
137,-0.060,0.176
138,-0.061,0.176
139,-0.063,0.176
140,-0.063,0.142
141,-0.063,0.142
142,-0.062,0.142
143,-0.062,0.142
144,-0.060,0.108
145,-0.059,0.108
146,-0.057,0.108
147,-0.055,0.108
148,-0.055,0.076
149,-0.055,0.076
150,-0.056,0.076
151,-0.056,0.076
152,-0.058,0.043
153,-0.059,0.043
154,-0.059,0.043
155,-0.059,0.043
156,-0.059,0.012
157,-0.060,0.012
158,-0.061,0.012
159,-0.062,0.012
160,-0.063,-0.021
161,-0.064,-0.021
162,-0.065,-0.021
163,-0.065,-0.021
164,-0.065,-0.052
165,-0.064,-0.052
166,-0.064,-0.052
167,-0.064,-0.052
168,-0.064,-0.080
169,-0.064,-0.080
170,-0.064,-0.080
171,-0.064,-0.080
172,-0.064,-0.108
173,-0.063,-0.108
174,-0.063,-0.108
175,-0.063,-0.108
176,-0.065,-0.136
177,-0.066,-0.136
178,-0.067,-0.136
179,-0.067,-0.136
180,-0.066,-0.163
181,-0.065,-0.163
182,-0.063,-0.163
183,-0.061,-0.163
184,-0.055,-0.187
185,-0.049,-0.187
186,-0.034,-0.187
187,-0.019,-0.187
188,0.009,-0.210
189,0.038,-0.210
190,0.082,-0.210
191,0.125,-0.210
192,0.180,-0.231
193,0.236,-0.231
194,0.296,-0.231
195,0.356,-0.231
196,0.413,-0.251
197,0.470,-0.251
198,0.516,-0.251
199,0.562,-0.251
200,0.590,-0.268
201,0.617,-0.268
202,0.623,-0.268
203,0.629,-0.268
204,0.612,-0.284
205,0.595,-0.284
206,0.558,-0.284
207,0.521,-0.284
208,0.471,-0.299
209,0.421,-0.299
210,0.367,-0.299
211,0.313,-0.299
212,0.265,-0.313
213,0.217,-0.313
214,0.181,-0.313
215,0.145,-0.313
216,0.120,-0.326
217,0.096,-0.326
218,0.080,-0.326
219,0.063,-0.326
220,0.052,-0.339
221,0.042,-0.339
222,0.034,-0.339
223,0.026,-0.339
224,0.018,-0.350
225,0.009,-0.350
226,-0.002,-0.350
227,-0.012,-0.350
228,-0.025,-0.360
229,-0.037,-0.360
230,-0.051,-0.360
231,-0.064,-0.360
232,-0.076,-0.372
233,-0.089,-0.372
234,-0.098,-0.372
235,-0.107,-0.372
236,-0.114,-0.384
237,-0.120,-0.384
238,-0.124,-0.384
239,-0.129,-0.384
240,-0.132,-0.393
241,-0.134,-0.393
242,-0.137,-0.393
243,-0.139,-0.393
244,-0.141,-0.405
245,-0.144,-0.405
246,-0.145,-0.405
247,-0.147,-0.405
248,-0.147,-0.414
249,-0.147,-0.414
250,-0.147,-0.414
251,-0.148,-0.414
252,-0.149,-0.426
253,-0.150,-0.426
254,-0.150,-0.426
255,-0.150,-0.426
256,-0.150,-0.434
257,-0.150,-0.434
258,-0.150,-0.434
259,-0.150,-0.434
260,-0.150,-0.444
261,-0.151,-0.444
262,-0.152,-0.444
263,-0.153,-0.444
264,-0.154,-0.453
265,-0.156,-0.453
266,-0.157,-0.453
267,-0.158,-0.453
268,-0.160,-0.461
269,-0.161,-0.461
270,-0.162,-0.461
271,-0.162,-0.461
272,-0.162,-0.468
273,-0.162,-0.468
274,-0.163,-0.468
275,-0.164,-0.468
276,-0.165,-0.474
277,-0.166,-0.474
278,-0.168,-0.474
279,-0.169,-0.474
280,-0.171,-0.481
281,-0.173,-0.481
282,-0.175,-0.481
283,-0.177,-0.481
284,-0.178,-0.486
285,-0.180,-0.486
286,-0.182,-0.486
287,-0.184,-0.486
288,-0.185,-0.492
289,-0.187,-0.492
290,-0.188,-0.492
291,-0.188,-0.492
292,-0.189,-0.494
293,-0.190,-0.494
294,-0.191,-0.494
295,-0.191,-0.494
296,-0.191,-0.499
297,-0.191,-0.499
298,-0.191,-0.499
299,-0.190,-0.499
300,-0.189,-0.498
301,-0.187,-0.498
302,-0.184,-0.498
303,-0.182,-0.498
304,-0.180,-0.495
305,-0.179,-0.495
306,-0.177,-0.495
307,-0.175,-0.495
308,-0.172,-0.488
309,-0.169,-0.488
310,-0.165,-0.488
311,-0.160,-0.488
312,-0.154,-0.477
313,-0.148,-0.477
314,-0.141,-0.477
315,-0.135,-0.477
316,-0.128,-0.460
317,-0.121,-0.460
318,-0.115,-0.460
319,-0.108,-0.460
320,-0.102,-0.431
321,-0.097,-0.431
322,-0.092,-0.431
323,-0.088,-0.431
324,-0.084,-0.399
325,-0.080,-0.399
326,-0.076,-0.399
327,-0.072,-0.399
328,-0.070,-0.356
329,-0.067,-0.356
330,-0.065,-0.356
331,-0.062,-0.356
332,-0.060,-0.306
333,-0.058,-0.306
334,-0.057,-0.306
335,-0.055,-0.306
336,-0.054,-0.247
337,-0.054,-0.247
338,-0.053,-0.247
339,-0.052,-0.247
340,-0.051,-0.185
341,-0.050,-0.185
342,-0.050,-0.185
343,-0.049,-0.185
344,-0.050,-0.118
345,-0.050,-0.118
346,-0.050,-0.118
347,-0.050,-0.118
348,-0.051,-0.050
349,-0.051,-0.050
350,-0.052,-0.050
351,-0.053,-0.050
352,-0.054,0.018
353,-0.056,0.018
354,-0.058,0.018
355,-0.060,0.018
356,-0.061,0.085
357,-0.062,0.085
358,-0.063,0.085
359,-0.064,0.085
360,-0.065,0.151
361,-0.066,0.151
362,-0.066,0.151
363,-0.066,0.151
364,-0.067,0.211
365,-0.067,0.211
366,-0.068,0.211
367,-0.069,0.211
368,-0.070,0.269
369,-0.070,0.269
370,-0.070,0.269
371,-0.071,0.269
372,-0.072,0.321
373,-0.073,0.321
374,-0.073,0.321
375,-0.074,0.321
376,-0.073,0.365
377,-0.072,0.365
378,-0.071,0.365
379,-0.070,0.365
380,-0.070,0.405
381,-0.070,0.405
382,-0.071,0.405
383,-0.073,0.405
384,-0.074,0.439
385,-0.075,0.439
386,-0.075,0.439
387,-0.076,0.439
388,-0.077,0.463
389,-0.078,0.463
390,-0.077,0.463
391,-0.076,0.463
392,-0.075,0.482
393,-0.074,0.482
394,-0.073,0.482
395,-0.073,0.482
396,-0.072,0.494
397,-0.072,0.494
398,-0.071,0.494
399,-0.070,0.494
400,-0.069,0.498
401,-0.068,0.498
402,-0.067,0.498
403,-0.066,0.498
404,-0.064,0.493
405,-0.062,0.493
406,-0.059,0.493
407,-0.057,0.493
408,-0.054,0.485
409,-0.051,0.485
410,-0.048,0.485
411,-0.045,0.485
412,-0.043,0.468
413,-0.040,0.468
414,-0.037,0.468
415,-0.035,0.468
416,-0.032,0.447
417,-0.029,0.447
418,-0.026,0.447
419,-0.024,0.447
420,-0.021,0.420
421,-0.017,0.420
422,-0.013,0.420
423,-0.009,0.420
424,-0.005,0.394
425,-0.002,0.394
426,0.000,0.394
427,0.002,0.394
428,0.001,0.361
429,0.000,0.361
430,-0.003,0.361
431,-0.006,0.361
432,-0.010,0.328
433,-0.014,0.328
434,-0.021,0.328
435,-0.027,0.328
436,-0.035,0.294
437,-0.042,0.294
438,-0.050,0.294
439,-0.057,0.294
440,-0.063,0.261
441,-0.069,0.261
442,-0.074,0.261
443,-0.079,0.261
444,-0.082,0.225
445,-0.085,0.225
446,-0.087,0.225
447,-0.090,0.225
448,-0.091,0.192
449,-0.092,0.192
450,-0.091,0.192
451,-0.091,0.192
452,-0.089,0.157
453,-0.088,0.157
454,-0.088,0.157
455,-0.088,0.157
456,-0.088,0.124
457,-0.088,0.124
458,-0.088,0.124
459,-0.089,0.124
460,-0.090,0.090
461,-0.091,0.090
462,-0.091,0.090
463,-0.092,0.090
464,-0.092,0.059
465,-0.092,0.059
466,-0.092,0.059
467,-0.092,0.059
468,-0.092,0.026
469,-0.092,0.026
470,-0.092,0.026
471,-0.092,0.026
472,-0.092,-0.005
473,-0.092,-0.005
474,-0.091,-0.005
475,-0.091,-0.005
476,-0.089,-0.034
477,-0.088,-0.034
478,-0.088,-0.034
479,-0.088,-0.034
480,-0.087,-0.064
481,-0.087,-0.064
482,-0.086,-0.064
483,-0.086,-0.064
484,-0.086,-0.092
485,-0.087,-0.092
486,-0.087,-0.092
487,-0.088,-0.092
488,-0.088,-0.120
489,-0.089,-0.120
490,-0.088,-0.120
491,-0.088,-0.120
492,-0.088,-0.147
493,-0.088,-0.147
494,-0.087,-0.147
495,-0.087,-0.147
496,-0.085,-0.170
497,-0.082,-0.170
498,-0.075,-0.170
499,-0.068,-0.170
500,-0.052,-0.195
501,-0.036,-0.195
502,-0.006,-0.195
503,0.024,-0.195
504,0.069,-0.215
505,0.114,-0.215
506,0.170,-0.215
507,0.226,-0.215
508,0.287,-0.234
509,0.349,-0.234
510,0.407,-0.234
511,0.465,-0.234
512,0.510,-0.253
513,0.555,-0.253
514,0.581,-0.253
515,0.607,-0.253
516,0.611,-0.270
517,0.614,-0.270
518,0.593,-0.270
519,0.572,-0.270
520,0.532,-0.285
521,0.493,-0.285
522,0.444,-0.285
523,0.394,-0.285
524,0.342,-0.298
525,0.290,-0.298
526,0.244,-0.298
527,0.198,-0.298
528,0.164,-0.313
529,0.129,-0.313
530,0.105,-0.313
531,0.081,-0.313
532,0.064,-0.325
533,0.047,-0.325
534,0.036,-0.325
535,0.025,-0.325
536,0.017,-0.338
537,0.009,-0.338
538,0.000,-0.338
539,-0.009,-0.338
540,-0.021,-0.348
541,-0.032,-0.348
542,-0.045,-0.348
543,-0.058,-0.348
544,-0.072,-0.358
545,-0.087,-0.358
546,-0.102,-0.358
547,-0.116,-0.358
548,-0.128,-0.370
549,-0.140,-0.370
550,-0.148,-0.370
551,-0.156,-0.370
552,-0.160,-0.381
553,-0.164,-0.381
554,-0.167,-0.381
555,-0.169,-0.381
556,-0.171,-0.393
557,-0.173,-0.393
558,-0.175,-0.393
559,-0.177,-0.393
560,-0.178,-0.403
561,-0.180,-0.403
562,-0.181,-0.403
563,-0.183,-0.403
564,-0.183,-0.414
565,-0.183,-0.414
566,-0.183,-0.414
567,-0.183,-0.414
568,-0.182,-0.424
569,-0.182,-0.424
570,-0.181,-0.424
571,-0.180,-0.424
572,-0.179,-0.434
573,-0.179,-0.434
574,-0.179,-0.434
575,-0.180,-0.434
576,-0.181,-0.444
577,-0.183,-0.444
578,-0.183,-0.444
579,-0.183,-0.444
580,-0.183,-0.452
581,-0.183,-0.452
582,-0.183,-0.452
583,-0.184,-0.452
584,-0.185,-0.460
585,-0.187,-0.460
586,-0.188,-0.460
587,-0.188,-0.460
588,-0.190,-0.467
589,-0.191,-0.467
590,-0.193,-0.467
591,-0.195,-0.467
592,-0.197,-0.474
593,-0.199,-0.474
594,-0.201,-0.474
595,-0.202,-0.474
596,-0.204,-0.478
597,-0.207,-0.478
598,-0.210,-0.478
599,-0.213,-0.478
600,-0.215,-0.483
601,-0.218,-0.483
602,-0.219,-0.483
603,-0.220,-0.483
604,-0.221,-0.488
605,-0.221,-0.488
606,-0.222,-0.488
607,-0.223,-0.488
608,-0.224,-0.490
609,-0.224,-0.490
610,-0.224,-0.490
611,-0.223,-0.490
612,-0.221,-0.492
613,-0.219,-0.492
614,-0.217,-0.492
615,-0.215,-0.492
616,-0.213,-0.490
617,-0.212,-0.490
618,-0.209,-0.490
619,-0.207,-0.490
620,-0.203,-0.486
621,-0.200,-0.486
622,-0.196,-0.486
623,-0.192,-0.486
624,-0.187,-0.481
625,-0.182,-0.481
626,-0.176,-0.481
627,-0.171,-0.481
628,-0.166,-0.465
629,-0.161,-0.465
630,-0.156,-0.465
631,-0.151,-0.465
632,-0.145,-0.441
633,-0.140,-0.441
634,-0.135,-0.441
635,-0.129,-0.441
636,-0.122,-0.409
637,-0.116,-0.409
638,-0.112,-0.409
639,-0.107,-0.409
640,-0.104,-0.370
641,-0.102,-0.370
642,-0.100,-0.370
643,-0.098,-0.370
644,-0.097,-0.322
645,-0.095,-0.322
646,-0.093,-0.322
647,-0.092,-0.322
648,-0.091,-0.264
649,-0.091,-0.264
650,-0.088,-0.264
651,-0.086,-0.264
652,-0.084,-0.202
653,-0.082,-0.202
654,-0.081,-0.202
655,-0.080,-0.202
656,-0.081,-0.135
657,-0.082,-0.135
658,-0.083,-0.135
659,-0.084,-0.135
660,-0.085,-0.066
661,-0.086,-0.066
662,-0.086,-0.066
663,-0.087,-0.066
664,-0.087,0.005
665,-0.088,0.005
666,-0.088,0.005
667,-0.089,0.005
668,-0.088,0.075
669,-0.088,0.075
670,-0.088,0.075
671,-0.089,0.075
672,-0.090,0.143
673,-0.091,0.143
674,-0.092,0.143
675,-0.093,0.143
676,-0.094,0.208
677,-0.095,0.208
678,-0.096,0.208
679,-0.096,0.208
680,-0.097,0.268
681,-0.097,0.268
682,-0.098,0.268
683,-0.098,0.268
684,-0.099,0.325
685,-0.100,0.325
686,-0.102,0.325
687,-0.103,0.325
688,-0.105,0.373
689,-0.107,0.373
690,-0.108,0.373
691,-0.110,0.373
692,-0.111,0.418
693,-0.111,0.418
694,-0.110,0.418
695,-0.109,0.418
696,-0.107,0.453
697,-0.106,0.453
698,-0.105,0.453
699,-0.104,0.453
700,-0.104,0.482
701,-0.105,0.482
702,-0.105,0.482
703,-0.106,0.482
704,-0.106,0.506
705,-0.106,0.506
706,-0.106,0.506
707,-0.107,0.506
708,-0.107,0.521
709,-0.108,0.521
710,-0.108,0.521
711,-0.108,0.521
712,-0.106,0.527
713,-0.105,0.527
714,-0.103,0.527
715,-0.102,0.527
716,-0.100,0.527
717,-0.098,0.527
718,-0.096,0.527
719,-0.094,0.527
720,-0.091,0.520
721,-0.089,0.520
722,-0.087,0.520
723,-0.085,0.520
724,-0.083,0.506
725,-0.081,0.506
726,-0.078,0.506
727,-0.075,0.506
728,-0.072,0.486
729,-0.069,0.486
730,-0.067,0.486
731,-0.064,0.486
732,-0.061,0.463
733,-0.058,0.463
734,-0.053,0.463
735,-0.049,0.463
736,-0.044,0.433
737,-0.039,0.433
738,-0.035,0.433
739,-0.032,0.433
740,-0.030,0.402
741,-0.029,0.402
742,-0.028,0.402
743,-0.027,0.402
744,-0.029,0.368
745,-0.031,0.368
746,-0.037,0.368
747,-0.044,0.368
748,-0.053,0.334
749,-0.062,0.334
750,-0.070,0.334
751,-0.078,0.334
752,-0.086,0.297
753,-0.094,0.297
754,-0.100,0.297
755,-0.105,0.297
756,-0.108,0.264
757,-0.111,0.264
758,-0.113,0.264
759,-0.115,0.264
760,-0.116,0.228
761,-0.117,0.228
762,-0.117,0.228
763,-0.118,0.228
764,-0.118,0.193
765,-0.118,0.193
766,-0.119,0.193
767,-0.120,0.193
768,-0.121,0.159
769,-0.123,0.159
770,-0.123,0.159
771,-0.124,0.159
772,-0.124,0.123
773,-0.125,0.123
774,-0.124,0.123
775,-0.124,0.123
776,-0.123,0.090
777,-0.122,0.090
778,-0.120,0.090
779,-0.119,0.090
780,-0.118,0.056
781,-0.118,0.056
782,-0.117,0.056
783,-0.117,0.056
784,-0.117,0.022
785,-0.117,0.022
786,-0.117,0.022
787,-0.118,0.022
788,-0.118,-0.008
789,-0.119,-0.008
790,-0.119,-0.008
791,-0.119,-0.008
792,-0.119,-0.041
793,-0.120,-0.041
794,-0.121,-0.041
795,-0.122,-0.041
796,-0.121,-0.070
797,-0.121,-0.070
798,-0.121,-0.070
799,-0.121,-0.070
800,-0.121,-0.099
801,-0.121,-0.099
802,-0.120,-0.099
803,-0.120,-0.099
804,-0.119,-0.127
805,-0.118,-0.127
806,-0.117,-0.127
807,-0.117,-0.127
808,-0.116,-0.154
809,-0.115,-0.154
810,-0.111,-0.154
811,-0.106,-0.154
812,-0.095,-0.178
813,-0.083,-0.178
814,-0.060,-0.178
815,-0.038,-0.178
816,-0.002,-0.202
817,0.034,-0.202
818,0.084,-0.202
819,0.134,-0.202
820,0.194,-0.222
821,0.253,-0.222
822,0.314,-0.222
823,0.375,-0.222
824,0.427,-0.243
825,0.480,-0.243
826,0.519,-0.243
827,0.558,-0.243
828,0.578,-0.261
829,0.598,-0.261
830,0.594,-0.261
831,0.589,-0.261
832,0.561,-0.277
833,0.533,-0.277
834,0.488,-0.277
835,0.444,-0.277
836,0.392,-0.292
837,0.339,-0.292
838,0.287,-0.292
839,0.236,-0.292
840,0.192,-0.306
841,0.148,-0.306
842,0.117,-0.306
843,0.086,-0.306
844,0.066,-0.320
845,0.046,-0.320
846,0.034,-0.320
847,0.021,-0.320
848,0.013,-0.333
849,0.005,-0.333
850,-0.004,-0.333
851,-0.012,-0.333
852,-0.024,-0.346
853,-0.035,-0.346
854,-0.048,-0.346
855,-0.061,-0.346
856,-0.076,-0.358
857,-0.091,-0.358
858,-0.105,-0.358
859,-0.119,-0.358
860,-0.132,-0.370
861,-0.145,-0.370
862,-0.155,-0.370
863,-0.165,-0.370
864,-0.172,-0.381
865,-0.178,-0.381
866,-0.182,-0.381
867,-0.186,-0.381
868,-0.189,-0.392
869,-0.191,-0.392
870,-0.193,-0.392
871,-0.195,-0.392
872,-0.197,-0.402
873,-0.199,-0.402
874,-0.200,-0.402
875,-0.201,-0.402
876,-0.202,-0.414
877,-0.202,-0.414
878,-0.201,-0.414
879,-0.200,-0.414
880,-0.199,-0.425
881,-0.198,-0.425
882,-0.197,-0.425
883,-0.196,-0.425
884,-0.196,-0.434
885,-0.195,-0.434
886,-0.195,-0.434
887,-0.195,-0.434
888,-0.196,-0.444
889,-0.197,-0.444
890,-0.198,-0.444
891,-0.199,-0.444
892,-0.201,-0.453
893,-0.202,-0.453
894,-0.204,-0.453
895,-0.206,-0.453
896,-0.207,-0.462
897,-0.209,-0.462
898,-0.209,-0.462
899,-0.210,-0.462
900,-0.211,-0.471
901,-0.212,-0.471
902,-0.213,-0.471
903,-0.215,-0.471
904,-0.216,-0.477
905,-0.218,-0.477
906,-0.220,-0.477
907,-0.222,-0.477
908,-0.223,-0.483
909,-0.224,-0.483
910,-0.226,-0.483
911,-0.228,-0.483
912,-0.230,-0.489
913,-0.231,-0.489
914,-0.233,-0.489
915,-0.234,-0.489
916,-0.234,-0.495
917,-0.235,-0.495
918,-0.235,-0.495
919,-0.235,-0.495
920,-0.236,-0.497
921,-0.237,-0.497
922,-0.238,-0.497
923,-0.240,-0.497
924,-0.240,-0.499
925,-0.240,-0.499
926,-0.239,-0.499
927,-0.239,-0.499
928,-0.237,-0.499
929,-0.236,-0.499
930,-0.234,-0.499
931,-0.233,-0.499
932,-0.230,-0.495
933,-0.226,-0.495
934,-0.222,-0.495
935,-0.218,-0.495
936,-0.214,-0.486
937,-0.210,-0.486
938,-0.204,-0.486
939,-0.199,-0.486
940,-0.194,-0.472
941,-0.188,-0.472
942,-0.182,-0.472
943,-0.176,-0.472
944,-0.169,-0.451
945,-0.162,-0.451
946,-0.155,-0.451
947,-0.149,-0.451
948,-0.144,-0.423
949,-0.139,-0.423
950,-0.135,-0.423
951,-0.131,-0.423
952,-0.127,-0.383
953,-0.122,-0.383
954,-0.117,-0.383
955,-0.113,-0.383
956,-0.109,-0.337
957,-0.105,-0.337
958,-0.103,-0.337
959,-0.101,-0.337
960,-0.100,-0.282
961,-0.098,-0.282
962,-0.097,-0.282
963,-0.096,-0.282
964,-0.096,-0.222
965,-0.095,-0.222
966,-0.095,-0.222
967,-0.095,-0.222
968,-0.096,-0.154
969,-0.096,-0.154
970,-0.096,-0.154
971,-0.096,-0.154
972,-0.095,-0.084
973,-0.094,-0.084
974,-0.093,-0.084
975,-0.093,-0.084
976,-0.094,-0.015
977,-0.095,-0.015
978,-0.096,-0.015
979,-0.097,-0.015
980,-0.099,0.057
981,-0.100,0.057
982,-0.101,0.057
983,-0.102,0.057
984,-0.103,0.125
985,-0.104,0.125
986,-0.105,0.125
987,-0.106,0.125
988,-0.105,0.191
989,-0.105,0.191
990,-0.104,0.191
991,-0.103,0.191
992,-0.103,0.252
993,-0.103,0.252
994,-0.104,0.252
995,-0.106,0.252
996,-0.107,0.307
997,-0.108,0.307
998,-0.109,0.307
999,-0.110,0.307
1000,-0.110,0.358
1001,-0.110,0.358
1002,-0.111,0.358
1003,-0.111,0.358
1004,-0.112,0.404
1005,-0.113,0.404
1006,-0.114,0.404
1007,-0.115,0.404
1008,-0.116,0.444
1009,-0.117,0.444
1010,-0.117,0.444
1011,-0.118,0.444
1012,-0.117,0.475
1013,-0.116,0.475
1014,-0.115,0.475
1015,-0.113,0.475
1016,-0.112,0.501
1017,-0.110,0.501
1018,-0.110,0.501
1019,-0.109,0.501
1020,-0.110,0.519
1021,-0.110,0.519
1022,-0.110,0.519
1023,-0.110,0.519
1024,-0.110,0.530
1025,-0.109,0.530
1026,-0.107,0.530
1027,-0.106,0.530
1028,-0.104,0.531
1029,-0.102,0.531
1030,-0.100,0.531
1031,-0.098,0.531
1032,-0.096,0.527
1033,-0.094,0.527
1034,-0.090,0.527
1035,-0.087,0.527
1036,-0.083,0.516
1037,-0.079,0.516
1038,-0.076,0.516
1039,-0.073,0.516
1040,-0.071,0.500
1041,-0.069,0.500
1042,-0.067,0.500
1043,-0.065,0.500
1044,-0.063,0.478
1045,-0.061,0.478
1046,-0.057,0.478
1047,-0.053,0.478
1048,-0.048,0.450
1049,-0.042,0.450
1050,-0.037,0.450
1051,-0.033,0.450
1052,-0.031,0.420
1053,-0.029,0.420
1054,-0.029,0.420
1055,-0.030,0.420
1056,-0.033,0.387
1057,-0.035,0.387
1058,-0.040,0.387
1059,-0.044,0.387
1060,-0.051,0.355
1061,-0.058,0.355
1062,-0.066,0.355
1063,-0.073,0.355
1064,-0.080,0.317
1065,-0.087,0.317
1066,-0.092,0.317
1067,-0.098,0.317
1068,-0.102,0.282
1069,-0.107,0.282
1070,-0.110,0.282
1071,-0.112,0.282
1072,-0.113,0.247
1073,-0.114,0.247
1074,-0.114,0.247
1075,-0.113,0.247
1076,-0.112,0.210
1077,-0.111,0.210
1078,-0.110,0.210
1079,-0.109,0.210
1080,-0.110,0.175
1081,-0.110,0.175
1082,-0.110,0.175
1083,-0.110,0.175
1084,-0.110,0.140
1085,-0.110,0.140
1086,-0.110,0.140
1087,-0.109,0.140
1088,-0.108,0.104
1089,-0.107,0.104
1090,-0.106,0.104
1091,-0.105,0.104
1092,-0.104,0.071
1093,-0.103,0.071
1094,-0.102,0.071
1095,-0.102,0.071
1096,-0.102,0.037
1097,-0.103,0.037
1098,-0.103,0.037
1099,-0.103,0.037
1100,-0.103,0.004
1101,-0.103,0.004
1102,-0.102,0.004
1103,-0.102,0.004
1104,-0.101,-0.026
1105,-0.100,-0.026
1106,-0.099,-0.026
1107,-0.098,-0.026
1108,-0.097,-0.059
1109,-0.096,-0.059
1110,-0.096,-0.059
1111,-0.095,-0.059
1112,-0.096,-0.088
1113,-0.096,-0.088
1114,-0.098,-0.088
1115,-0.100,-0.088
1116,-0.101,-0.116
1117,-0.102,-0.116
1118,-0.102,-0.116
1119,-0.103,-0.116
1120,-0.102,-0.144
1121,-0.102,-0.144
1122,-0.100,-0.144
1123,-0.097,-0.144
1124,-0.090,-0.170
1125,-0.083,-0.170
1126,-0.067,-0.170
1127,-0.051,-0.170
1128,-0.024,-0.195
1129,0.004,-0.195
1130,0.046,-0.195
1131,0.088,-0.195
1132,0.143,-0.217
1133,0.198,-0.217
1134,0.260,-0.217
1135,0.322,-0.217
1136,0.382,-0.247
1137,0.441,-0.247
1138,0.490,-0.247
1139,0.539,-0.247
1140,0.570,-0.266
1141,0.601,-0.266
1142,0.611,-0.266
1143,0.620,-0.266
1144,0.606,-0.283
1145,0.592,-0.283
1146,0.557,-0.283
1147,0.523,-0.283
1148,0.473,-0.298
1149,0.424,-0.298
1150,0.369,-0.298
1151,0.314,-0.298
1152,0.264,-0.315
1153,0.214,-0.315
1154,0.174,-0.315
1155,0.135,-0.315
1156,0.107,-0.328
1157,0.080,-0.328
1158,0.062,-0.328
1159,0.045,-0.328
1160,0.035,-0.343
1161,0.024,-0.343
1162,0.017,-0.343
1163,0.010,-0.343
1164,0.003,-0.355
1165,-0.005,-0.355
1166,-0.016,-0.355
1167,-0.027,-0.355
1168,-0.041,-0.367
1169,-0.054,-0.367
1170,-0.069,-0.367
1171,-0.084,-0.367
1172,-0.098,-0.379
1173,-0.112,-0.379
1174,-0.123,-0.379
1175,-0.135,-0.379
1176,-0.142,-0.392
1177,-0.149,-0.392
1178,-0.152,-0.392
1179,-0.156,-0.392
1180,-0.158,-0.403
1181,-0.159,-0.403
1182,-0.160,-0.403
1183,-0.161,-0.403
1184,-0.163,-0.414
1185,-0.164,-0.414
1186,-0.166,-0.414
1187,-0.168,-0.414
1188,-0.171,-0.425
1189,-0.173,-0.425
1190,-0.174,-0.425
1191,-0.176,-0.425
1192,-0.176,-0.436
1193,-0.176,-0.436
1194,-0.176,-0.436
1195,-0.176,-0.436
1196,-0.176,-0.446
1197,-0.176,-0.446
1198,-0.176,-0.446
1199,-0.177,-0.446
1200,-0.178,-0.457
1201,-0.179,-0.457
1202,-0.180,-0.457
1203,-0.181,-0.457
1204,-0.182,-0.467
1205,-0.183,-0.467
1206,-0.183,-0.467
1207,-0.183,-0.467
1208,-0.183,-0.475
1209,-0.184,-0.475
1210,-0.185,-0.475
1211,-0.187,-0.475
1212,-0.188,-0.483
1213,-0.188,-0.483
1214,-0.190,-0.483
1215,-0.191,-0.483
1216,-0.193,-0.490
1217,-0.194,-0.490
1218,-0.195,-0.490
1219,-0.196,-0.490
1220,-0.197,-0.497
1221,-0.197,-0.497
1222,-0.198,-0.497
1223,-0.199,-0.497
1224,-0.200,-0.502
1225,-0.201,-0.502
1226,-0.202,-0.502
1227,-0.203,-0.502
1228,-0.203,-0.508
1229,-0.204,-0.508
1230,-0.205,-0.508
1231,-0.207,-0.508
1232,-0.208,-0.512
1233,-0.209,-0.512
1234,-0.210,-0.512
1235,-0.212,-0.512
1236,-0.212,-0.515
1237,-0.213,-0.515
1238,-0.212,-0.515
1239,-0.211,-0.515
1240,-0.209,-0.515
1241,-0.208,-0.515
1242,-0.206,-0.515
1243,-0.204,-0.515
1244,-0.201,-0.512
1245,-0.197,-0.512
1246,-0.195,-0.512
1247,-0.192,-0.512
1248,-0.189,-0.505
1249,-0.185,-0.505
1250,-0.180,-0.505
1251,-0.175,-0.505
1252,-0.170,-0.492
1253,-0.164,-0.492
1254,-0.159,-0.492
1255,-0.153,-0.492
1256,-0.146,-0.472
1257,-0.140,-0.472
1258,-0.134,-0.472
1259,-0.128,-0.472
1260,-0.121,-0.446
1261,-0.114,-0.446
1262,-0.107,-0.446
1263,-0.100,-0.446
1264,-0.095,-0.408
1265,-0.089,-0.408
1266,-0.084,-0.408
1267,-0.079,-0.408
1268,-0.075,-0.363
1269,-0.072,-0.363
1270,-0.070,-0.363
1271,-0.069,-0.363
1272,-0.068,-0.309
1273,-0.066,-0.309
1274,-0.066,-0.309
1275,-0.065,-0.309
1276,-0.064,-0.249
1277,-0.063,-0.249
1278,-0.062,-0.249
1279,-0.061,-0.249
1280,-0.060,-0.183
1281,-0.059,-0.183
1282,-0.057,-0.183
1283,-0.055,-0.183
1284,-0.055,-0.114
1285,-0.055,-0.114
1286,-0.055,-0.114
1287,-0.055,-0.114
1288,-0.056,-0.043
1289,-0.056,-0.043
1290,-0.058,-0.043
1291,-0.060,-0.043
1292,-0.061,0.029
1293,-0.062,0.029
1294,-0.062,0.029
1295,-0.063,0.029
1296,-0.063,0.099
1297,-0.063,0.099
1298,-0.063,0.099
1299,-0.063,0.099
1300,-0.063,0.166
1301,-0.063,0.166
1302,-0.063,0.166
1303,-0.063,0.166
1304,-0.063,0.228
1305,-0.063,0.228
1306,-0.064,0.228
1307,-0.064,0.228
1308,-0.065,0.287
1309,-0.066,0.287
1310,-0.067,0.287
1311,-0.067,0.287
1312,-0.068,0.340
1313,-0.069,0.340
1314,-0.070,0.340
1315,-0.070,0.340
1316,-0.070,0.387
1317,-0.071,0.387
1318,-0.072,0.387
1319,-0.073,0.387
1320,-0.073,0.427
1321,-0.074,0.427
1322,-0.073,0.427
1323,-0.073,0.427
1324,-0.073,0.460
1325,-0.073,0.460
1326,-0.072,0.460
1327,-0.072,0.460
1328,-0.071,0.487
1329,-0.070,0.487
1330,-0.070,0.487
1331,-0.069,0.487
1332,-0.070,0.508
1333,-0.070,0.508
1334,-0.070,0.508
1335,-0.069,0.508
1336,-0.067,0.519
1337,-0.065,0.519
1338,-0.062,0.519
1339,-0.059,0.519
1340,-0.057,0.524
1341,-0.054,0.524
1342,-0.053,0.524
1343,-0.052,0.524
1344,-0.051,0.520
1345,-0.050,0.520
1346,-0.049,0.520
1347,-0.047,0.520
1348,-0.045,0.510
1349,-0.043,0.510
1350,-0.041,0.510
1351,-0.039,0.510
1352,-0.036,0.494
1353,-0.033,0.494
1354,-0.030,0.494
1355,-0.027,0.494
1356,-0.022,0.474
1357,-0.018,0.474
1358,-0.013,0.474
1359,-0.008,0.474
1360,-0.004,0.449
1361,0.001,0.449
1362,0.005,0.449
1363,0.009,0.449
1364,0.011,0.418
1365,0.014,0.418
1366,0.015,0.418
1367,0.015,0.418
1368,0.013,0.387
1369,0.012,0.387
1370,0.009,0.387
1371,0.005,0.387
1372,-0.001,0.351
1373,-0.007,0.351
1374,-0.015,0.351
1375,-0.022,0.351
1376,-0.030,0.317
1377,-0.038,0.317
1378,-0.045,0.317
1379,-0.052,0.317
1380,-0.057,0.281
1381,-0.061,0.281
1382,-0.062,0.281
1383,-0.064,0.281
1384,-0.065,0.245
1385,-0.066,0.245
1386,-0.066,0.245
1387,-0.066,0.245
1388,-0.066,0.208
1389,-0.066,0.208
1390,-0.066,0.208
1391,-0.066,0.208
1392,-0.066,0.173
1393,-0.066,0.173
1394,-0.066,0.173
1395,-0.065,0.173
1396,-0.064,0.138
1397,-0.062,0.138
1398,-0.060,0.138
1399,-0.058,0.138
1400,-0.057,0.102
1401,-0.055,0.102
1402,-0.055,0.102
1403,-0.055,0.102
1404,-0.055,0.070
1405,-0.055,0.070
1406,-0.055,0.070
1407,-0.055,0.070
1408,-0.056,0.035
1409,-0.056,0.035
1410,-0.058,0.035
1411,-0.059,0.035
1412,-0.059,0.002
1413,-0.059,0.002
1414,-0.059,0.002
1415,-0.059,0.002
1416,-0.059,-0.031
1417,-0.058,-0.031
1418,-0.057,-0.031
1419,-0.056,-0.031
1420,-0.056,-0.062
1421,-0.055,-0.062
1422,-0.056,-0.062
1423,-0.056,-0.062
1424,-0.058,-0.092
1425,-0.059,-0.092
1426,-0.059,-0.092
1427,-0.059,-0.092
1428,-0.059,-0.122
1429,-0.059,-0.122
1430,-0.059,-0.122
1431,-0.059,-0.122
1432,-0.058,-0.150
1433,-0.057,-0.150
1434,-0.053,-0.150
1435,-0.050,-0.150
1436,-0.042,-0.175
1437,-0.034,-0.175
1438,-0.019,-0.175
1439,-0.004,-0.175
1440,0.025,-0.202
1441,0.054,-0.202
1442,0.098,-0.202
1443,0.142,-0.202
1444,0.198,-0.225
1445,0.253,-0.225
1446,0.315,-0.225
1447,0.376,-0.225
1448,0.434,-0.246
1449,0.493,-0.246
1450,0.540,-0.246
1451,0.588,-0.246
1452,0.617,-0.266
1453,0.646,-0.266
1454,0.653,-0.266
1455,0.660,-0.266
1456,0.644,-0.284
1457,0.628,-0.284
1458,0.592,-0.284
1459,0.556,-0.284
1460,0.506,-0.302
1461,0.457,-0.302
1462,0.405,-0.302
1463,0.352,-0.302
1464,0.304,-0.318
1465,0.256,-0.318
1466,0.220,-0.318
1467,0.183,-0.318
1468,0.157,-0.332
1469,0.130,-0.332
1470,0.111,-0.332
1471,0.092,-0.332
1472,0.079,-0.344
1473,0.066,-0.344
1474,0.056,-0.344
1475,0.046,-0.344
1476,0.035,-0.357
1477,0.025,-0.357
1478,0.015,-0.357
1479,0.004,-0.357
1480,-0.007,-0.370
1481,-0.019,-0.370
1482,-0.031,-0.370
1483,-0.043,-0.370
1484,-0.056,-0.383
1485,-0.068,-0.383
1486,-0.080,-0.383
1487,-0.091,-0.383
1488,-0.099,-0.396
1489,-0.106,-0.396
1490,-0.111,-0.396
1491,-0.116,-0.396
1492,-0.119,-0.407
1493,-0.122,-0.407
1494,-0.124,-0.407
1495,-0.126,-0.407
1496,-0.128,-0.417
1497,-0.129,-0.417
1498,-0.131,-0.417
1499,-0.132,-0.417
1500,-0.132,-0.430
1501,-0.132,-0.430
1502,-0.133,-0.430
1503,-0.133,-0.430
1504,-0.134,-0.440
1505,-0.135,-0.440
1506,-0.136,-0.440
1507,-0.136,-0.440
1508,-0.136,-0.450
1509,-0.136,-0.450
1510,-0.136,-0.450
1511,-0.135,-0.450
1512,-0.135,-0.460
1513,-0.135,-0.460
1514,-0.136,-0.460
1515,-0.137,-0.460
1516,-0.139,-0.469
1517,-0.140,-0.469
1518,-0.141,-0.469
1519,-0.143,-0.469
1520,-0.143,-0.478
1521,-0.144,-0.478
1522,-0.145,-0.478
1523,-0.147,-0.478
1524,-0.148,-0.486
1525,-0.150,-0.486
1526,-0.150,-0.486
1527,-0.151,-0.486
1528,-0.150,-0.495
1529,-0.150,-0.495
1530,-0.150,-0.495
1531,-0.151,-0.495
1532,-0.152,-0.503
1533,-0.153,-0.503
1534,-0.155,-0.503
1535,-0.157,-0.503
1536,-0.159,-0.509
1537,-0.161,-0.509
1538,-0.164,-0.509
1539,-0.166,-0.509
1540,-0.168,-0.514
1541,-0.169,-0.514
1542,-0.171,-0.514
1543,-0.172,-0.514
1544,-0.172,-0.520
1545,-0.173,-0.520
1546,-0.172,-0.520
1547,-0.171,-0.520
1548,-0.170,-0.522
1549,-0.169,-0.522
1550,-0.169,-0.522
1551,-0.168,-0.522
1552,-0.167,-0.523
1553,-0.166,-0.523
1554,-0.164,-0.523
1555,-0.162,-0.523
1556,-0.161,-0.520
1557,-0.159,-0.520
1558,-0.156,-0.520
1559,-0.153,-0.520
1560,-0.148,-0.512
1561,-0.144,-0.512
1562,-0.139,-0.512
1563,-0.133,-0.512
1564,-0.127,-0.499
1565,-0.121,-0.499
1566,-0.115,-0.499
1567,-0.108,-0.499
1568,-0.102,-0.479
1569,-0.096,-0.479
1570,-0.090,-0.479
1571,-0.084,-0.479
1572,-0.078,-0.450
1573,-0.072,-0.450
1574,-0.068,-0.450
1575,-0.063,-0.450
1576,-0.059,-0.413
1577,-0.054,-0.413
1578,-0.050,-0.413
1579,-0.046,-0.413
1580,-0.043,-0.367
1581,-0.039,-0.367
1582,-0.036,-0.367
1583,-0.033,-0.367
1584,-0.031,-0.312
1585,-0.029,-0.312
1586,-0.027,-0.312
1587,-0.025,-0.312
1588,-0.023,-0.253
1589,-0.021,-0.253
1590,-0.020,-0.253
1591,-0.019,-0.253
1592,-0.019,-0.186
1593,-0.019,-0.186
1594,-0.021,-0.186
1595,-0.022,-0.186
1596,-0.022,-0.117
1597,-0.023,-0.117
1598,-0.022,-0.117
1599,-0.022,-0.117
1600,-0.022,-0.046
1601,-0.022,-0.046
1602,-0.022,-0.046
1603,-0.023,-0.046
1604,-0.024,0.025
1605,-0.025,0.025
1606,-0.026,0.025
1607,-0.028,0.025
1608,-0.029,0.095
1609,-0.030,0.095
1610,-0.032,0.095
1611,-0.034,0.095
1612,-0.035,0.159
1613,-0.037,0.159
1614,-0.036,0.159
1615,-0.036,0.159
1616,-0.035,0.221
1617,-0.034,0.221
1618,-0.034,0.221
1619,-0.033,0.221
1620,-0.034,0.278
1621,-0.034,0.278
1622,-0.035,0.278
1623,-0.037,0.278
1624,-0.039,0.331
1625,-0.041,0.331
1626,-0.043,0.331
1627,-0.044,0.331
1628,-0.044,0.378
1629,-0.045,0.378
1630,-0.044,0.378
1631,-0.044,0.378
1632,-0.044,0.417
1633,-0.044,0.417
1634,-0.044,0.417
1635,-0.045,0.417
1636,-0.046,0.451
1637,-0.047,0.451
1638,-0.048,0.451
1639,-0.048,0.451
1640,-0.049,0.476
1641,-0.049,0.476
1642,-0.050,0.476
1643,-0.050,0.476
1644,-0.050,0.498
1645,-0.049,0.498
1646,-0.048,0.498
1647,-0.047,0.498
1648,-0.045,0.503
1649,-0.043,0.503
1650,-0.042,0.503
1651,-0.040,0.503
1652,-0.038,0.509
1653,-0.037,0.509
1654,-0.036,0.509
1655,-0.035,0.509
1656,-0.034,0.505
1657,-0.033,0.505
1658,-0.031,0.505
1659,-0.029,0.505
1660,-0.026,0.493
1661,-0.024,0.493
1662,-0.021,0.493
1663,-0.018,0.493
1664,-0.015,0.478
1665,-0.012,0.478
1666,-0.009,0.478
1667,-0.006,0.478
1668,-0.003,0.456
1669,0.001,0.456
1670,0.005,0.456
1671,0.009,0.456
1672,0.012,0.429
1673,0.015,0.429
1674,0.017,0.429
1675,0.018,0.429
1676,0.018,0.399
1677,0.019,0.399
1678,0.018,0.399
1679,0.018,0.399
1680,0.018,0.368
1681,0.017,0.368
1682,0.015,0.368
1683,0.013,0.368
1684,0.009,0.333
1685,0.004,0.333
1686,-0.003,0.333
1687,-0.009,0.333
1688,-0.015,0.297
1689,-0.021,0.297
1690,-0.027,0.297
1691,-0.033,0.297
1692,-0.039,0.261
1693,-0.045,0.261
1694,-0.049,0.261
1695,-0.053,0.261
1696,-0.055,0.225
1697,-0.057,0.225
1698,-0.058,0.225
1699,-0.059,0.225
1700,-0.059,0.190
1701,-0.059,0.190
1702,-0.059,0.190
1703,-0.058,0.190
1704,-0.057,0.154
1705,-0.056,0.154
1706,-0.056,0.154
1707,-0.055,0.154
1708,-0.055,0.119
1709,-0.055,0.119
1710,-0.055,0.119
1711,-0.055,0.119
1712,-0.055,0.084
1713,-0.055,0.084
1714,-0.055,0.084
1715,-0.055,0.084
1716,-0.055,0.050
1717,-0.055,0.050
1718,-0.054,0.050
1719,-0.054,0.050
1720,-0.052,0.017
1721,-0.051,0.017
1722,-0.050,0.017
1723,-0.048,0.017
1724,-0.048,-0.017
1725,-0.048,-0.017
1726,-0.048,-0.017
1727,-0.048,-0.017
1728,-0.048,-0.048
1729,-0.048,-0.048
1730,-0.048,-0.048
1731,-0.048,-0.048
1732,-0.048,-0.081
1733,-0.048,-0.081
1734,-0.048,-0.081
1735,-0.048,-0.081
1736,-0.048,-0.109
1737,-0.048,-0.109
1738,-0.049,-0.109
1739,-0.049,-0.109
1740,-0.050,-0.138
1741,-0.050,-0.138
1742,-0.050,-0.138
1743,-0.050,-0.138
1744,-0.050,-0.165
1745,-0.049,-0.165
1746,-0.046,-0.165
1747,-0.043,-0.165
1748,-0.035,-0.192
1749,-0.027,-0.192
1750,-0.011,-0.192
1751,0.005,-0.192
1752,0.034,-0.215
1753,0.063,-0.215
1754,0.107,-0.215
1755,0.151,-0.215
1756,0.207,-0.239
1757,0.263,-0.239
1758,0.326,-0.239
1759,0.388,-0.239
1760,0.447,-0.262
1761,0.505,-0.262
1762,0.551,-0.262
1763,0.598,-0.262
1764,0.626,-0.281
1765,0.654,-0.281
1766,0.660,-0.281
1767,0.666,-0.281
1768,0.649,-0.298
1769,0.632,-0.298
1770,0.595,-0.298
1771,0.558,-0.298
1772,0.508,-0.315
1773,0.458,-0.315
1774,0.405,-0.315
1775,0.351,-0.315
1776,0.303,-0.330
1777,0.256,-0.330
1778,0.220,-0.330
1779,0.183,-0.330
1780,0.157,-0.344
1781,0.131,-0.344
1782,0.113,-0.344
1783,0.095,-0.344
1784,0.083,-0.357
1785,0.070,-0.357
1786,0.060,-0.357
1787,0.050,-0.357
1788,0.041,-0.371
1789,0.032,-0.371
1790,0.022,-0.371
1791,0.013,-0.371
1792,0.002,-0.384
1793,-0.009,-0.384
1794,-0.022,-0.384
1795,-0.035,-0.384
1796,-0.048,-0.397
1797,-0.061,-0.397
1798,-0.073,-0.397
1799,-0.085,-0.397
1800,-0.093,-0.406
1801,-0.102,-0.406
1802,-0.107,-0.406
1803,-0.112,-0.406
1804,-0.116,-0.418
1805,-0.119,-0.418
1806,-0.121,-0.418
1807,-0.123,-0.418
1808,-0.126,-0.428
1809,-0.128,-0.428
1810,-0.129,-0.428
1811,-0.130,-0.428
1812,-0.131,-0.441
1813,-0.132,-0.441
1814,-0.134,-0.441
1815,-0.135,-0.441
1816,-0.136,-0.450
1817,-0.137,-0.450
1818,-0.138,-0.450
1819,-0.139,-0.450
1820,-0.139,-0.462
1821,-0.139,-0.462
1822,-0.139,-0.462
1823,-0.138,-0.462
1824,-0.138,-0.471
1825,-0.137,-0.471
1826,-0.138,-0.471
1827,-0.139,-0.471
1828,-0.141,-0.480
1829,-0.142,-0.480
1830,-0.143,-0.480
1831,-0.145,-0.480
1832,-0.145,-0.490
1833,-0.145,-0.490
1834,-0.145,-0.490
1835,-0.145,-0.490
1836,-0.145,-0.498
1837,-0.145,-0.498
1838,-0.145,-0.498
1839,-0.145,-0.498
1840,-0.146,-0.505
1841,-0.147,-0.505
1842,-0.149,-0.505
1843,-0.151,-0.505
1844,-0.153,-0.512
1845,-0.156,-0.512
1846,-0.159,-0.512
1847,-0.162,-0.512
1848,-0.164,-0.518
1849,-0.166,-0.518
1850,-0.168,-0.518
1851,-0.169,-0.518
1852,-0.171,-0.523
1853,-0.172,-0.523
1854,-0.173,-0.523
1855,-0.174,-0.523
1856,-0.174,-0.528
1857,-0.175,-0.528
1858,-0.176,-0.528
1859,-0.177,-0.528
1860,-0.177,-0.531
1861,-0.178,-0.531
1862,-0.177,-0.531
1863,-0.177,-0.531
1864,-0.176,-0.531
1865,-0.175,-0.531
1866,-0.173,-0.531
1867,-0.171,-0.531
1868,-0.170,-0.528
1869,-0.168,-0.528
1870,-0.165,-0.528
1871,-0.162,-0.528
1872,-0.157,-0.519
1873,-0.152,-0.519
1874,-0.146,-0.519
1875,-0.140,-0.519
1876,-0.133,-0.506
1877,-0.125,-0.506
1878,-0.117,-0.506
1879,-0.110,-0.506
1880,-0.102,-0.485
1881,-0.095,-0.485
1882,-0.087,-0.485
1883,-0.079,-0.485
1884,-0.073,-0.457
1885,-0.068,-0.457
1886,-0.064,-0.457
1887,-0.060,-0.457
1888,-0.055,-0.418
1889,-0.050,-0.418
1890,-0.045,-0.418
1891,-0.041,-0.418
1892,-0.037,-0.370
1893,-0.033,-0.370
1894,-0.030,-0.370
1895,-0.027,-0.370
1896,-0.025,-0.317
1897,-0.023,-0.317
1898,-0.022,-0.317
1899,-0.021,-0.317
1900,-0.020,-0.255
1901,-0.019,-0.255
1902,-0.018,-0.255
1903,-0.018,-0.255
1904,-0.018,-0.184
1905,-0.019,-0.184
1906,-0.019,-0.184
1907,-0.019,-0.184
1908,-0.018,-0.116
1909,-0.018,-0.116
1910,-0.017,-0.116
1911,-0.016,-0.116
1912,-0.015,-0.044
1913,-0.015,-0.044
1914,-0.015,-0.044
1915,-0.015,-0.044
1916,-0.017,0.025
1917,-0.018,0.025
1918,-0.018,0.025
1919,-0.019,0.025
1920,-0.019,0.093
1921,-0.020,0.093
1922,-0.021,0.093
1923,-0.022,0.093
1924,-0.022,0.159
1925,-0.023,0.159
1926,-0.025,0.159
1927,-0.026,0.159
1928,-0.028,0.220
1929,-0.030,0.220
1930,-0.030,0.220
1931,-0.030,0.220
1932,-0.030,0.279
1933,-0.030,0.279
1934,-0.030,0.279
1935,-0.031,0.279
1936,-0.032,0.329
1937,-0.033,0.329
1938,-0.034,0.329
1939,-0.035,0.329
1940,-0.036,0.375
1941,-0.037,0.375
1942,-0.039,0.375
1943,-0.041,0.375
1944,-0.043,0.413
1945,-0.044,0.413
1946,-0.045,0.413
1947,-0.046,0.413
1948,-0.046,0.447
1949,-0.046,0.447
1950,-0.045,0.447
1951,-0.044,0.447
1952,-0.043,0.473
1953,-0.041,0.473
1954,-0.041,0.473
1955,-0.040,0.473
1956,-0.040,0.491
1957,-0.040,0.491
1958,-0.040,0.491
1959,-0.040,0.491
1960,-0.040,0.502
1961,-0.039,0.502
1962,-0.037,0.502
1963,-0.036,0.502
1964,-0.034,0.506
1965,-0.032,0.506
1966,-0.029,0.506
1967,-0.026,0.506
1968,-0.024,0.504
1969,-0.021,0.504
1970,-0.020,0.504
1971,-0.019,0.504
1972,-0.018,0.492
1973,-0.017,0.492
1974,-0.016,0.492
1975,-0.015,0.492
1976,-0.012,0.475
1977,-0.009,0.475
1978,-0.006,0.475
1979,-0.003,0.475
1980,0.001,0.456
1981,0.004,0.456
1982,0.006,0.456
1983,0.008,0.456
1984,0.010,0.430
1985,0.012,0.430
1986,0.013,0.430
1987,0.014,0.430
1988,0.015,0.401
1989,0.015,0.401
1990,0.015,0.401
1991,0.014,0.401
1992,0.013,0.369
1993,0.013,0.369
1994,0.011,0.369
1995,0.010,0.369
1996,0.006,0.335
1997,0.003,0.335
1998,-0.004,0.335
1999,-0.010,0.335
2000,-0.017,0.301
2001,-0.024,0.301
2002,-0.030,0.301
2003,-0.036,0.301
2004,-0.041,0.266
2005,-0.045,0.266
2006,-0.047,0.266
2007,-0.049,0.266
2008,-0.050,0.232
2009,-0.051,0.232
2010,-0.051,0.232
2011,-0.051,0.232
2012,-0.050,0.197
2013,-0.049,0.197
2014,-0.049,0.197
2015,-0.048,0.197
2016,-0.048,0.162
2017,-0.048,0.162
2018,-0.048,0.162
2019,-0.048,0.162
2020,-0.048,0.128
2021,-0.048,0.128
2022,-0.048,0.128
2023,-0.048,0.128
2024,-0.048,0.093
2025,-0.047,0.093
2026,-0.045,0.093
2027,-0.044,0.093
2028,-0.044,0.061
2029,-0.044,0.061
2030,-0.044,0.061
2031,-0.045,0.061
2032,-0.045,0.028
2033,-0.046,0.028
2034,-0.045,0.028
2035,-0.045,0.028
2036,-0.044,-0.004
2037,-0.044,-0.004
2038,-0.043,-0.004
2039,-0.043,-0.004
2040,-0.043,-0.034
2041,-0.042,-0.034
2042,-0.042,-0.034
2043,-0.042,-0.034
2044,-0.042,-0.066
2045,-0.041,-0.066
2046,-0.041,-0.066
2047,-0.040,-0.066
2048,-0.040,-0.095
2049,-0.040,-0.095
2050,-0.040,-0.095
2051,-0.039,-0.095
2052,-0.038,-0.122
2053,-0.037,-0.122
2054,-0.037,-0.122
2055,-0.037,-0.122
2056,-0.036,-0.150
2057,-0.036,-0.150
2058,-0.034,-0.150
2059,-0.031,-0.150
2060,-0.024,-0.176
2061,-0.016,-0.176
2062,-0.001,-0.176
2063,0.015,-0.176
2064,0.045,-0.198
2065,0.075,-0.198
2066,0.120,-0.198
2067,0.166,-0.198
2068,0.223,-0.221
2069,0.280,-0.221
2070,0.341,-0.221
2071,0.402,-0.221
2072,0.458,-0.242
2073,0.514,-0.242
2074,0.556,-0.242
2075,0.598,-0.242
2076,0.620,-0.262
2077,0.641,-0.262
2078,0.639,-0.262
2079,0.637,-0.262
2080,0.613,-0.279
2081,0.589,-0.279
2082,0.547,-0.279
2083,0.505,-0.279
2084,0.452,-0.295
2085,0.398,-0.295
2086,0.344,-0.295
2087,0.289,-0.295
2088,0.243,-0.309
2089,0.198,-0.309
2090,0.164,-0.309
2091,0.129,-0.309
2092,0.105,-0.324
2093,0.082,-0.324
2094,0.067,-0.324
2095,0.052,-0.324
2096,0.043,-0.338
2097,0.034,-0.338
2098,0.026,-0.338
2099,0.019,-0.338
2100,0.010,-0.348
2101,0.001,-0.348
2102,-0.009,-0.348
2103,-0.018,-0.348
2104,-0.029,-0.360
2105,-0.040,-0.360
2106,-0.051,-0.360
2107,-0.062,-0.360
2108,-0.071,-0.371
2109,-0.081,-0.371
2110,-0.087,-0.371
2111,-0.094,-0.371
2112,-0.097,-0.382
2113,-0.100,-0.382
2114,-0.102,-0.382
2115,-0.104,-0.382
2116,-0.105,-0.392
2117,-0.107,-0.392
2118,-0.108,-0.392
2119,-0.110,-0.392
2120,-0.112,-0.404
2121,-0.114,-0.404
2122,-0.115,-0.404
2123,-0.115,-0.404
2124,-0.116,-0.412
2125,-0.117,-0.412
2126,-0.117,-0.412
2127,-0.118,-0.412
2128,-0.117,-0.423
2129,-0.117,-0.423
2130,-0.117,-0.423
2131,-0.117,-0.423
2132,-0.117,-0.430
2133,-0.118,-0.430
2134,-0.119,-0.430
2135,-0.120,-0.430
2136,-0.121,-0.441
2137,-0.122,-0.441
2138,-0.121,-0.441
2139,-0.121,-0.441
2140,-0.121,-0.450
2141,-0.121,-0.450
2142,-0.121,-0.450
2143,-0.122,-0.450
2144,-0.123,-0.459
2145,-0.125,-0.459
2146,-0.127,-0.459
2147,-0.129,-0.459
2148,-0.131,-0.467
2149,-0.133,-0.467
2150,-0.135,-0.467
2151,-0.136,-0.467
2152,-0.138,-0.473
2153,-0.140,-0.473
2154,-0.142,-0.473
2155,-0.144,-0.473
2156,-0.145,-0.480
2157,-0.146,-0.480
2158,-0.146,-0.480
2159,-0.147,-0.480
2160,-0.147,-0.481
2161,-0.147,-0.481
2162,-0.147,-0.481
2163,-0.148,-0.481
2164,-0.149,-0.487
2165,-0.150,-0.487
2166,-0.150,-0.487
2167,-0.150,-0.487
2168,-0.150,-0.490
2169,-0.150,-0.490
2170,-0.150,-0.490
2171,-0.150,-0.490
2172,-0.150,-0.493
2173,-0.150,-0.493
2174,-0.150,-0.493
2175,-0.150,-0.493
2176,-0.149,-0.493
2177,-0.149,-0.493
2178,-0.147,-0.493
2179,-0.146,-0.493
2180,-0.144,-0.489
2181,-0.142,-0.489
2182,-0.139,-0.489
2183,-0.136,-0.489
2184,-0.132,-0.480
2185,-0.127,-0.480
2186,-0.121,-0.480
2187,-0.115,-0.480
2188,-0.110,-0.465
2189,-0.104,-0.465
2190,-0.098,-0.465
2191,-0.092,-0.465
2192,-0.086,-0.441
2193,-0.079,-0.441
2194,-0.073,-0.441
2195,-0.067,-0.441
2196,-0.062,-0.410
2197,-0.057,-0.410
2198,-0.053,-0.410
2199,-0.049,-0.410
2200,-0.044,-0.369
2201,-0.039,-0.369
2202,-0.035,-0.369
2203,-0.032,-0.369
2204,-0.030,-0.320
2205,-0.029,-0.320
2206,-0.027,-0.320
2207,-0.025,-0.320
2208,-0.024,-0.265
2209,-0.022,-0.265
2210,-0.021,-0.265
2211,-0.021,-0.265
2212,-0.020,-0.203
2213,-0.019,-0.203
2214,-0.018,-0.203
2215,-0.018,-0.203
2216,-0.019,-0.137
2217,-0.020,-0.137
2218,-0.021,-0.137
2219,-0.022,-0.137
2220,-0.022,-0.069
2221,-0.023,-0.069
2222,-0.024,-0.069
2223,-0.025,-0.069
2224,-0.026,0.000
2225,-0.027,0.000
2226,-0.027,0.000
2227,-0.027,0.000
2228,-0.028,0.069
2229,-0.029,0.069
2230,-0.029,0.069
2231,-0.030,0.069
2232,-0.030,0.135
2233,-0.031,0.135
2234,-0.033,0.135
2235,-0.034,0.135
2236,-0.035,0.196
2237,-0.037,0.196
2238,-0.037,0.196
2239,-0.037,0.196
2240,-0.037,0.255
2241,-0.037,0.255
2242,-0.037,0.255
2243,-0.037,0.255
2244,-0.037,0.308
2245,-0.037,0.308
2246,-0.037,0.308
2247,-0.038,0.308
2248,-0.039,0.355
2249,-0.040,0.355
2250,-0.041,0.355
2251,-0.042,0.355
2252,-0.042,0.399
2253,-0.042,0.399
2254,-0.042,0.399
2255,-0.041,0.399
2256,-0.041,0.435
2257,-0.040,0.435
2258,-0.040,0.435
2259,-0.040,0.435
2260,-0.040,0.466
2261,-0.040,0.466
2262,-0.040,0.466
2263,-0.040,0.466
2264,-0.040,0.488
2265,-0.040,0.488
2266,-0.040,0.488
2267,-0.040,0.488
2268,-0.040,0.506
2269,-0.040,0.506
2270,-0.040,0.506
2271,-0.040,0.506
2272,-0.040,0.515
2273,-0.040,0.515
2274,-0.040,0.515
2275,-0.040,0.515
2276,-0.040,0.518
2277,-0.040,0.518
2278,-0.040,0.518
2279,-0.039,0.518
2280,-0.037,0.513
2281,-0.036,0.513
2282,-0.035,0.513
2283,-0.033,0.513
2284,-0.031,0.502
2285,-0.029,0.502
2286,-0.027,0.502
2287,-0.025,0.502
2288,-0.022,0.483
2289,-0.020,0.483
2290,-0.017,0.483
2291,-0.014,0.483
2292,-0.010,0.462
2293,-0.006,0.462
2294,-0.003,0.462
2295,0.001,0.462
2296,0.004,0.434
2297,0.008,0.434
2298,0.009,0.434
2299,0.011,0.434
2300,0.011,0.403
2301,0.012,0.403
2302,0.013,0.403
2303,0.014,0.403
2304,0.014,0.370
2305,0.014,0.370
2306,0.011,0.370
2307,0.009,0.370
2308,0.005,0.334
2309,0.001,0.334
2310,-0.005,0.334
2311,-0.011,0.334
2312,-0.018,0.298
2313,-0.024,0.298
2314,-0.029,0.298
2315,-0.035,0.298
2316,-0.037,0.262
2317,-0.040,0.262
2318,-0.041,0.262
2319,-0.042,0.262
2320,-0.041,0.225
2321,-0.040,0.225
2322,-0.041,0.225
2323,-0.041,0.225
2324,-0.043,0.189
2325,-0.044,0.189
2326,-0.046,0.189
2327,-0.048,0.189
2328,-0.048,0.153
2329,-0.048,0.153
2330,-0.048,0.153
2331,-0.048,0.153
2332,-0.048,0.118
2333,-0.048,0.118
2334,-0.048,0.118
2335,-0.048,0.118
2336,-0.049,0.084
2337,-0.049,0.084
2338,-0.050,0.084
2339,-0.051,0.084
2340,-0.051,0.049
2341,-0.052,0.049
2342,-0.052,0.049
2343,-0.052,0.049
2344,-0.051,0.015
2345,-0.051,0.015
2346,-0.051,0.015
2347,-0.050,0.015
2348,-0.049,-0.017
2349,-0.048,-0.017
2350,-0.047,-0.017
2351,-0.046,-0.017
2352,-0.045,-0.049
2353,-0.045,-0.049
2354,-0.045,-0.049
2355,-0.046,-0.049
2356,-0.046,-0.080
2357,-0.046,-0.080
2358,-0.045,-0.080
2359,-0.045,-0.080
2360,-0.044,-0.108
2361,-0.043,-0.108
2362,-0.042,-0.108
2363,-0.041,-0.108
2364,-0.041,-0.137
2365,-0.040,-0.137
2366,-0.040,-0.137
2367,-0.040,-0.137
2368,-0.040,-0.165
2369,-0.039,-0.165
2370,-0.037,-0.165
2371,-0.035,-0.165
2372,-0.030,-0.191
2373,-0.026,-0.191
2374,-0.015,-0.191
2375,-0.003,-0.191
2376,0.020,-0.213
2377,0.043,-0.213
2378,0.079,-0.213
2379,0.115,-0.213
2380,0.164,-0.236
2381,0.212,-0.236
2382,0.268,-0.236
2383,0.324,-0.236
2384,0.379,-0.257
2385,0.434,-0.257
2386,0.479,-0.257
2387,0.524,-0.257
2388,0.553,-0.277
2389,0.582,-0.277
2390,0.592,-0.277
2391,0.601,-0.277
2392,0.588,-0.295
2393,0.574,-0.295
2394,0.540,-0.295
2395,0.506,-0.295
2396,0.460,-0.312
2397,0.414,-0.312
2398,0.362,-0.312
2399,0.311,-0.312
2400,0.263,-0.328
2401,0.215,-0.328
2402,0.177,-0.328
2403,0.139,-0.328
2404,0.112,-0.342
2405,0.084,-0.342
2406,0.066,-0.342
2407,0.047,-0.342
2408,0.035,-0.355
2409,0.024,-0.355
2410,0.015,-0.355
2411,0.006,-0.355
2412,-0.003,-0.368
2413,-0.012,-0.368
2414,-0.023,-0.368
2415,-0.034,-0.368
2416,-0.044,-0.382
2417,-0.055,-0.382
2418,-0.064,-0.382
2419,-0.073,-0.382
2420,-0.081,-0.393
2421,-0.089,-0.393
2422,-0.094,-0.393
2423,-0.099,-0.393
2424,-0.102,-0.405
2425,-0.105,-0.405
2426,-0.107,-0.405
2427,-0.110,-0.405
2428,-0.111,-0.415
2429,-0.111,-0.415
2430,-0.111,-0.415
2431,-0.111,-0.415
2432,-0.112,-0.425
2433,-0.113,-0.425
2434,-0.114,-0.425
2435,-0.115,-0.425
2436,-0.116,-0.434
2437,-0.117,-0.434
2438,-0.117,-0.434
2439,-0.118,-0.434
2440,-0.118,-0.447
2441,-0.118,-0.447
2442,-0.119,-0.447
2443,-0.120,-0.447
2444,-0.121,-0.456
2445,-0.122,-0.456
2446,-0.121,-0.456
2447,-0.121,-0.456
2448,-0.121,-0.466
2449,-0.121,-0.466
2450,-0.121,-0.466
2451,-0.121,-0.466
2452,-0.121,-0.475
2453,-0.121,-0.475
2454,-0.121,-0.475
2455,-0.122,-0.475
2456,-0.123,-0.485
2457,-0.125,-0.485
2458,-0.127,-0.485
2459,-0.129,-0.485
2460,-0.131,-0.494
2461,-0.132,-0.494
2462,-0.133,-0.494
2463,-0.133,-0.494
2464,-0.134,-0.501
2465,-0.135,-0.501
2466,-0.136,-0.501
2467,-0.137,-0.501
2468,-0.139,-0.508
2469,-0.140,-0.508
2470,-0.142,-0.508
2471,-0.144,-0.508
2472,-0.145,-0.515
2473,-0.147,-0.515
2474,-0.149,-0.515
2475,-0.151,-0.515
2476,-0.152,-0.522
2477,-0.154,-0.522
2478,-0.154,-0.522
2479,-0.155,-0.522
2480,-0.155,-0.528
2481,-0.155,-0.528
2482,-0.156,-0.528
2483,-0.157,-0.528
2484,-0.158,-0.530
2485,-0.158,-0.530
2486,-0.158,-0.530
2487,-0.158,-0.530
2488,-0.158,-0.532
2489,-0.158,-0.532
2490,-0.157,-0.532
2491,-0.156,-0.532
2492,-0.153,-0.530
2493,-0.150,-0.530
2494,-0.145,-0.530
2495,-0.141,-0.530
2496,-0.138,-0.524
2497,-0.134,-0.524
2498,-0.130,-0.524
2499,-0.125,-0.524
2500,-0.118,-0.510
2501,-0.112,-0.510
2502,-0.105,-0.510
2503,-0.099,-0.510
2504,-0.092,-0.492
2505,-0.086,-0.492
2506,-0.080,-0.492
2507,-0.073,-0.492
2508,-0.068,-0.464
2509,-0.062,-0.464
2510,-0.057,-0.464
2511,-0.052,-0.464
2512,-0.048,-0.427
2513,-0.044,-0.427
2514,-0.041,-0.427
2515,-0.038,-0.427
2516,-0.035,-0.382
2517,-0.033,-0.382
2518,-0.032,-0.382
2519,-0.030,-0.382
2520,-0.029,-0.329
2521,-0.028,-0.329
2522,-0.028,-0.329
2523,-0.027,-0.329
2524,-0.026,-0.268
2525,-0.025,-0.268
2526,-0.025,-0.268
2527,-0.026,-0.268
2528,-0.026,-0.202
2529,-0.027,-0.202
2530,-0.028,-0.202
2531,-0.029,-0.202
2532,-0.029,-0.134
2533,-0.030,-0.134
2534,-0.030,-0.134
2535,-0.030,-0.134
2536,-0.030,-0.065
2537,-0.030,-0.065
2538,-0.030,-0.065
2539,-0.030,-0.065
2540,-0.030,0.004
2541,-0.030,0.004
2542,-0.030,0.004
2543,-0.031,0.004
2544,-0.032,0.072
2545,-0.033,0.072
2546,-0.034,0.072
2547,-0.035,0.072
2548,-0.035,0.138
2549,-0.036,0.138
2550,-0.036,0.138
2551,-0.037,0.138
2552,-0.037,0.197
2553,-0.037,0.197
2554,-0.037,0.197
2555,-0.038,0.197
2556,-0.040,0.255
2557,-0.041,0.255
2558,-0.043,0.255
2559,-0.044,0.255
2560,-0.044,0.303
2561,-0.045,0.303
2562,-0.044,0.303
2563,-0.043,0.303
2564,-0.042,0.350
2565,-0.041,0.350
2566,-0.041,0.350
2567,-0.040,0.350
2568,-0.041,0.391
2569,-0.041,0.391
2570,-0.042,0.391
2571,-0.042,0.391
2572,-0.042,0.424
2573,-0.042,0.424
2574,-0.043,0.424
2575,-0.043,0.424
2576,-0.043,0.450
2577,-0.044,0.450
2578,-0.044,0.450
2579,-0.044,0.450
2580,-0.043,0.469
2581,-0.041,0.469
2582,-0.041,0.469
2583,-0.041,0.469
2584,-0.042,0.482
2585,-0.043,0.482
2586,-0.043,0.482
2587,-0.044,0.482
2588,-0.044,0.487
2589,-0.045,0.487
2590,-0.044,0.487
2591,-0.043,0.487
2592,-0.041,0.485
2593,-0.039,0.485
2594,-0.036,0.485
2595,-0.033,0.485
2596,-0.031,0.476
2597,-0.029,0.476
2598,-0.027,0.476
2599,-0.025,0.476
2600,-0.023,0.461
2601,-0.021,0.461
2602,-0.019,0.461
2603,-0.017,0.461
2604,-0.013,0.442
2605,-0.010,0.442
2606,-0.006,0.442
2607,-0.002,0.442
2608,0.002,0.415
2609,0.005,0.415
2610,0.008,0.415
2611,0.011,0.415
2612,0.013,0.387
2613,0.014,0.387
2614,0.015,0.387
2615,0.015,0.387
2616,0.015,0.355
2617,0.014,0.355
2618,0.014,0.355
2619,0.014,0.355
2620,0.013,0.321
2621,0.013,0.321
2622,0.011,0.321
2623,0.009,0.321
2624,0.005,0.286
2625,0.001,0.286
2626,-0.005,0.286
2627,-0.011,0.286
2628,-0.017,0.251
2629,-0.023,0.251
2630,-0.028,0.251
2631,-0.033,0.251
2632,-0.037,0.215
2633,-0.041,0.215
2634,-0.043,0.215
2635,-0.046,0.215
2636,-0.047,0.179
2637,-0.048,0.179
2638,-0.048,0.179
2639,-0.048,0.179
2640,-0.048,0.144
2641,-0.048,0.144
2642,-0.048,0.144
2643,-0.048,0.144
2644,-0.048,0.110
2645,-0.048,0.110
2646,-0.048,0.110
2647,-0.048,0.110
2648,-0.048,0.073
2649,-0.048,0.073
2650,-0.048,0.073
2651,-0.048,0.073
2652,-0.048,0.040
2653,-0.047,0.040
2654,-0.045,0.040
2655,-0.044,0.040
2656,-0.043,0.008
2657,-0.043,0.008
2658,-0.043,0.008
2659,-0.042,0.008
2660,-0.043,-0.026
2661,-0.043,-0.026
2662,-0.043,-0.026
2663,-0.044,-0.026
2664,-0.044,-0.056
2665,-0.045,-0.056
2666,-0.044,-0.056
2667,-0.043,-0.056
2668,-0.042,-0.086
2669,-0.041,-0.086
2670,-0.041,-0.086
2671,-0.040,-0.086
2672,-0.040,-0.118
2673,-0.040,-0.118
2674,-0.040,-0.118
2675,-0.040,-0.118
2676,-0.040,-0.146
2677,-0.040,-0.146
2678,-0.040,-0.146
2679,-0.040,-0.146
2680,-0.040,-0.172
2681,-0.040,-0.172
2682,-0.040,-0.172
2683,-0.039,-0.172
2684,-0.037,-0.198
2685,-0.036,-0.198
2686,-0.033,-0.198
2687,-0.030,-0.198
2688,-0.021,-0.223
2689,-0.011,-0.223
2690,0.009,-0.223
2691,0.028,-0.223
2692,0.061,-0.245
2693,0.095,-0.245
2694,0.142,-0.245
2695,0.190,-0.245
2696,0.246,-0.268
2697,0.303,-0.268
2698,0.360,-0.268
2699,0.418,-0.268
2700,0.469,-0.286
2701,0.519,-0.286
2702,0.554,-0.286
2703,0.590,-0.286
2704,0.607,-0.304
2705,0.623,-0.304
2706,0.616,-0.304
2707,0.609,-0.304
2708,0.581,-0.323
2709,0.552,-0.323
2710,0.506,-0.323
2711,0.461,-0.323
2712,0.408,-0.338
2713,0.356,-0.338
2714,0.305,-0.338
2715,0.254,-0.338
2716,0.212,-0.351
2717,0.171,-0.351
2718,0.141,-0.351
2719,0.112,-0.351
2720,0.092,-0.365
2721,0.072,-0.365
2722,0.059,-0.365
2723,0.046,-0.365
2724,0.037,-0.376
2725,0.029,-0.376
2726,0.021,-0.376
2727,0.013,-0.376
2728,0.004,-0.388
2729,-0.005,-0.388
2730,-0.017,-0.388
2731,-0.028,-0.388
2732,-0.040,-0.400
2733,-0.052,-0.400
2734,-0.063,-0.400
2735,-0.074,-0.400
2736,-0.083,-0.409
2737,-0.091,-0.409
2738,-0.096,-0.409
2739,-0.101,-0.409
2740,-0.104,-0.418
2741,-0.107,-0.418
2742,-0.107,-0.418
2743,-0.108,-0.418
2744,-0.110,-0.429
2745,-0.111,-0.429
2746,-0.113,-0.429
2747,-0.114,-0.429
2748,-0.116,-0.438
2749,-0.118,-0.438
2750,-0.119,-0.438
2751,-0.121,-0.438
2752,-0.122,-0.447
2753,-0.123,-0.447
2754,-0.123,-0.447
2755,-0.124,-0.447
2756,-0.125,-0.456
2757,-0.126,-0.456
2758,-0.127,-0.456
2759,-0.128,-0.456
2760,-0.129,-0.466
2761,-0.129,-0.466
2762,-0.129,-0.466
2763,-0.128,-0.466
2764,-0.128,-0.475
2765,-0.128,-0.475
2766,-0.129,-0.475
2767,-0.129,-0.475
2768,-0.130,-0.483
2769,-0.131,-0.483
2770,-0.132,-0.483
2771,-0.133,-0.483
2772,-0.134,-0.493
2773,-0.135,-0.493
2774,-0.136,-0.493
2775,-0.137,-0.493
2776,-0.139,-0.501
2777,-0.140,-0.501
2778,-0.141,-0.501
2779,-0.143,-0.501
2780,-0.143,-0.506
2781,-0.144,-0.506
2782,-0.145,-0.506
2783,-0.147,-0.506
2784,-0.149,-0.513
2785,-0.151,-0.513
2786,-0.152,-0.513
2787,-0.154,-0.513
2788,-0.154,-0.520
2789,-0.154,-0.520
2790,-0.153,-0.520
2791,-0.152,-0.520
2792,-0.152,-0.523
2793,-0.153,-0.523
2794,-0.154,-0.523
2795,-0.155,-0.523
2796,-0.156,-0.528
2797,-0.157,-0.528
2798,-0.158,-0.528
2799,-0.158,-0.528
2800,-0.158,-0.530
2801,-0.157,-0.530
2802,-0.156,-0.530
2803,-0.155,-0.530
2804,-0.153,-0.529
2805,-0.152,-0.529
2806,-0.151,-0.529
2807,-0.151,-0.529
2808,-0.149,-0.525
2809,-0.148,-0.525
2810,-0.145,-0.525
2811,-0.142,-0.525
2812,-0.137,-0.516
2813,-0.132,-0.516
2814,-0.126,-0.516
2815,-0.120,-0.516
2816,-0.114,-0.504
2817,-0.107,-0.504
2818,-0.102,-0.504
2819,-0.096,-0.504
2820,-0.090,-0.483
2821,-0.085,-0.483
2822,-0.079,-0.483
2823,-0.072,-0.483
2824,-0.068,-0.454
2825,-0.063,-0.454
2826,-0.058,-0.454
2827,-0.053,-0.454
2828,-0.048,-0.416
2829,-0.043,-0.416
2830,-0.040,-0.416
2831,-0.036,-0.416
2832,-0.034,-0.370
2833,-0.032,-0.370
2834,-0.031,-0.370
2835,-0.030,-0.370
2836,-0.029,-0.318
2837,-0.029,-0.318
2838,-0.029,-0.318
2839,-0.030,-0.318
2840,-0.029,-0.257
2841,-0.029,-0.257
2842,-0.028,-0.257
2843,-0.027,-0.257
2844,-0.025,-0.192
2845,-0.024,-0.192
2846,-0.024,-0.192
2847,-0.024,-0.192
2848,-0.024,-0.121
2849,-0.024,-0.121
2850,-0.024,-0.121
2851,-0.024,-0.121
2852,-0.025,-0.054
2853,-0.025,-0.054
2854,-0.026,-0.054
2855,-0.027,-0.054
2856,-0.028,0.018
2857,-0.028,0.018
2858,-0.028,0.018
2859,-0.027,0.018
2860,-0.026,0.084
2861,-0.025,0.084
2862,-0.025,0.084
2863,-0.026,0.084
2864,-0.026,0.147
2865,-0.027,0.147
2866,-0.028,0.147
2867,-0.029,0.147
2868,-0.029,0.206
2869,-0.030,0.206
2870,-0.030,0.206
2871,-0.030,0.206
2872,-0.030,0.263
2873,-0.031,0.263
2874,-0.032,0.263
2875,-0.033,0.263
2876,-0.034,0.311
2877,-0.035,0.311
2878,-0.035,0.311
2879,-0.036,0.311
2880,-0.037,0.355
2881,-0.038,0.355
2882,-0.040,0.355
2883,-0.041,0.355
2884,-0.043,0.394
2885,-0.045,0.394
2886,-0.046,0.394
2887,-0.048,0.394
2888,-0.048,0.422
2889,-0.048,0.422
2890,-0.048,0.422
2891,-0.048,0.422
2892,-0.048,0.446
2893,-0.048,0.446
2894,-0.048,0.446
2895,-0.048,0.446
2896,-0.048,0.464
2897,-0.048,0.464
2898,-0.048,0.464
2899,-0.047,0.464
2900,-0.045,0.473
2901,-0.043,0.473
2902,-0.042,0.473
2903,-0.040,0.473
2904,-0.038,0.475
2905,-0.036,0.475
2906,-0.034,0.475
2907,-0.032,0.475
2908,-0.030,0.470
2909,-0.029,0.470
2910,-0.028,0.470
2911,-0.026,0.470
2912,-0.025,0.459
2913,-0.024,0.459
2914,-0.023,0.459
2915,-0.022,0.459
2916,-0.019,0.443
2917,-0.017,0.443
2918,-0.013,0.443
2919,-0.009,0.443
2920,-0.004,0.419
2921,0.000,0.419
2922,0.003,0.419
2923,0.006,0.419
2924,0.009,0.394
2925,0.011,0.394
2926,0.013,0.394
2927,0.014,0.394
2928,0.015,0.369
2929,0.015,0.369
2930,0.015,0.369
2931,0.014,0.369
2932,0.014,0.338
2933,0.014,0.338
2934,0.013,0.338
2935,0.012,0.338
2936,0.009,0.303
2937,0.006,0.303
2938,0.001,0.303
2939,-0.004,0.303
2940,-0.011,0.270
2941,-0.018,0.270
2942,-0.025,0.270
2943,-0.032,0.270
2944,-0.037,0.237
2945,-0.042,0.237
2946,-0.044,0.237
2947,-0.046,0.237
2948,-0.047,0.203
2949,-0.048,0.203
2950,-0.048,0.203
2951,-0.048,0.203
2952,-0.049,0.170
2953,-0.049,0.170
2954,-0.050,0.170
2955,-0.051,0.170
2956,-0.051,0.137
2957,-0.052,0.137
2958,-0.052,0.137
2959,-0.052,0.137
2960,-0.051,0.103
2961,-0.051,0.103
2962,-0.051,0.103
2963,-0.051,0.103
2964,-0.051,0.069
2965,-0.052,0.069
2966,-0.052,0.069
2967,-0.052,0.069
2968,-0.051,0.036
2969,-0.051,0.036
2970,-0.051,0.036
2971,-0.051,0.036
2972,-0.051,0.006
2973,-0.052,0.006
2974,-0.051,0.006
2975,-0.051,0.006
2976,-0.050,-0.025
2977,-0.049,-0.025
2978,-0.050,-0.025
2979,-0.051,-0.025
2980,-0.052,-0.057
2981,-0.053,-0.057
2982,-0.054,-0.057
2983,-0.055,-0.057
2984,-0.055,-0.085
2985,-0.055,-0.085
2986,-0.055,-0.085
2987,-0.055,-0.085
2988,-0.054,-0.114
2989,-0.054,-0.114
2990,-0.053,-0.114
2991,-0.052,-0.114
2992,-0.051,-0.141
2993,-0.051,-0.141
2994,-0.051,-0.141
2995,-0.051,-0.141
2996,-0.052,-0.166
2997,-0.053,-0.166
2998,-0.053,-0.166
2999,-0.053,-0.166
3000,-0.050,-0.191
3001,-0.046,-0.191
3002,-0.037,-0.191
3003,-0.028,-0.191
3004,-0.009,-0.215
3005,0.011,-0.215
3006,0.044,-0.215
3007,0.077,-0.215
3008,0.123,-0.234
3009,0.170,-0.234
3010,0.227,-0.234
3011,0.284,-0.234
3012,0.344,-0.255
3013,0.404,-0.255
3014,0.457,-0.255
3015,0.510,-0.255
3016,0.549,-0.274
3017,0.588,-0.274
3018,0.608,-0.274
3019,0.627,-0.274
3020,0.623,-0.292
3021,0.619,-0.292
3022,0.593,-0.292
3023,0.566,-0.292
3024,0.523,-0.306
3025,0.480,-0.306
3026,0.428,-0.306
3027,0.377,-0.306
3028,0.327,-0.320
3029,0.277,-0.320
3030,0.234,-0.320
3031,0.192,-0.320
3032,0.161,-0.333
3033,0.129,-0.333
3034,0.107,-0.333
3035,0.086,-0.333
3036,0.071,-0.345
3037,0.057,-0.345
3038,0.048,-0.345
3039,0.038,-0.345
3040,0.029,-0.357
3041,0.021,-0.357
3042,0.011,-0.357
3043,0.002,-0.357
3044,-0.009,-0.368
3045,-0.021,-0.368
3046,-0.034,-0.368
3047,-0.046,-0.368
3048,-0.059,-0.377
3049,-0.072,-0.377
3050,-0.084,-0.377
3051,-0.095,-0.377
3052,-0.102,-0.389
3053,-0.109,-0.389
3054,-0.113,-0.389
3055,-0.117,-0.389
3056,-0.119,-0.399
3057,-0.122,-0.399
3058,-0.124,-0.399
3059,-0.126,-0.399
3060,-0.127,-0.406
3061,-0.128,-0.406
3062,-0.129,-0.406
3063,-0.130,-0.406
3064,-0.131,-0.416
3065,-0.131,-0.416
3066,-0.132,-0.416
3067,-0.133,-0.416
3068,-0.134,-0.426
3069,-0.134,-0.426
3070,-0.134,-0.426
3071,-0.134,-0.426
3072,-0.134,-0.434
3073,-0.134,-0.434
3074,-0.134,-0.434
3075,-0.134,-0.434
3076,-0.135,-0.445
3077,-0.135,-0.445
3078,-0.136,-0.445
3079,-0.136,-0.445
3080,-0.137,-0.453
3081,-0.137,-0.453
3082,-0.138,-0.453
3083,-0.138,-0.453
3084,-0.139,-0.462
3085,-0.140,-0.462
3086,-0.141,-0.462
3087,-0.143,-0.462
3088,-0.143,-0.469
3089,-0.143,-0.469
3090,-0.143,-0.469
3091,-0.143,-0.469
3092,-0.143,-0.476
3093,-0.143,-0.476
3094,-0.143,-0.476
3095,-0.144,-0.476
3096,-0.145,-0.483
3097,-0.147,-0.483
3098,-0.149,-0.483
3099,-0.151,-0.483
3100,-0.153,-0.489
3101,-0.156,-0.489
3102,-0.159,-0.489
3103,-0.161,-0.489
3104,-0.162,-0.496
3105,-0.163,-0.496
3106,-0.164,-0.496
3107,-0.164,-0.496
3108,-0.165,-0.498
3109,-0.166,-0.498
3110,-0.167,-0.498
3111,-0.168,-0.498
3112,-0.169,-0.502
3113,-0.170,-0.502
3114,-0.171,-0.502
3115,-0.171,-0.502
3116,-0.172,-0.503
3117,-0.172,-0.503
3118,-0.172,-0.503
3119,-0.172,-0.503
3120,-0.170,-0.502
3121,-0.167,-0.502
3122,-0.164,-0.502
3123,-0.160,-0.502
3124,-0.156,-0.498
3125,-0.152,-0.498
3126,-0.147,-0.498
3127,-0.142,-0.498
3128,-0.137,-0.488
3129,-0.131,-0.488
3130,-0.125,-0.488
3131,-0.119,-0.488
3132,-0.113,-0.472
3133,-0.106,-0.472
3134,-0.100,-0.472
3135,-0.093,-0.472
3136,-0.086,-0.449
3137,-0.079,-0.449
3138,-0.073,-0.449
3139,-0.067,-0.449
3140,-0.062,-0.417
3141,-0.057,-0.417
3142,-0.053,-0.417
3143,-0.050,-0.417
3144,-0.046,-0.377
3145,-0.043,-0.377
3146,-0.041,-0.377
3147,-0.039,-0.377
3148,-0.037,-0.331
3149,-0.036,-0.331
3150,-0.035,-0.331
3151,-0.034,-0.331
3152,-0.034,-0.275
3153,-0.033,-0.275
3154,-0.034,-0.275
3155,-0.034,-0.275
3156,-0.035,-0.213
3157,-0.036,-0.213
3158,-0.037,-0.213
3159,-0.038,-0.213
3160,-0.039,-0.147
3161,-0.040,-0.147
3162,-0.041,-0.147
3163,-0.041,-0.147
3164,-0.041,-0.080
3165,-0.040,-0.080
3166,-0.040,-0.080
3167,-0.039,-0.080
3168,-0.038,-0.009
3169,-0.038,-0.009
3170,-0.039,-0.009
3171,-0.040,-0.009
3172,-0.041,0.059
3173,-0.042,0.059
3174,-0.043,0.059
3175,-0.044,0.059
3176,-0.046,0.125
3177,-0.048,0.125
3178,-0.048,0.125
3179,-0.048,0.125
3180,-0.048,0.187
3181,-0.048,0.187
3182,-0.048,0.187
3183,-0.048,0.187
3184,-0.049,0.253
3185,-0.049,0.253
3186,-0.050,0.253
3187,-0.051,0.253
3188,-0.051,0.307
3189,-0.052,0.307
3190,-0.052,0.307
3191,-0.052,0.307
3192,-0.051,0.355
3193,-0.051,0.355
3194,-0.051,0.355
3195,-0.051,0.355
3196,-0.051,0.398
3197,-0.052,0.398
3198,-0.052,0.398
3199,-0.053,0.398
3200,-0.053,0.433
3201,-0.054,0.433
3202,-0.054,0.433
3203,-0.055,0.433
3204,-0.055,0.462
3205,-0.055,0.462
3206,-0.055,0.462
3207,-0.055,0.462
3208,-0.055,0.482
3209,-0.055,0.482
3210,-0.055,0.482
3211,-0.055,0.482
3212,-0.055,0.497
3213,-0.055,0.497
3214,-0.055,0.497
3215,-0.055,0.497
3216,-0.054,0.502
3217,-0.054,0.502
3218,-0.053,0.502
3219,-0.052,0.502
3220,-0.051,0.501
3221,-0.050,0.501
3222,-0.048,0.501
3223,-0.046,0.501
3224,-0.043,0.493
3225,-0.039,0.493
3226,-0.036,0.493
3227,-0.033,0.493
3228,-0.030,0.480
3229,-0.028,0.480
3230,-0.025,0.480
3231,-0.022,0.480
3232,-0.019,0.461
3233,-0.016,0.461
3234,-0.013,0.461
3235,-0.010,0.461
3236,-0.005,0.435
3237,-0.001,0.435
3238,0.003,0.435
3239,0.007,0.435
3240,0.009,0.408
3241,0.012,0.408
3242,0.013,0.408
3243,0.014,0.408
3244,0.015,0.379
3245,0.015,0.379
3246,0.013,0.379
3247,0.012,0.379
3248,0.009,0.344
3249,0.006,0.344
3250,0.001,0.344
3251,-0.004,0.344
3252,-0.011,0.313
3253,-0.018,0.313
3254,-0.025,0.313
3255,-0.032,0.313
3256,-0.038,0.280
3257,-0.044,0.280
3258,-0.049,0.280
3259,-0.054,0.280
3260,-0.058,0.244
3261,-0.062,0.244
3262,-0.064,0.244
3263,-0.065,0.244
3264,-0.065,0.211
3265,-0.065,0.211
3266,-0.064,0.211
3267,-0.063,0.211
3268,-0.062,0.177
3269,-0.062,0.177
3270,-0.062,0.177
3271,-0.063,0.177
3272,-0.063,0.144
3273,-0.063,0.144
3274,-0.063,0.144
3275,-0.063,0.144
3276,-0.063,0.110
3277,-0.063,0.110
3278,-0.062,0.110
3279,-0.062,0.110
3280,-0.061,0.077
3281,-0.060,0.077
3282,-0.059,0.077
3283,-0.058,0.077
3284,-0.056,0.044
3285,-0.054,0.044
3286,-0.053,0.044
3287,-0.052,0.044
3288,-0.052,0.012
3289,-0.052,0.012
3290,-0.053,0.012
3291,-0.055,0.012
3292,-0.056,-0.020
3293,-0.057,-0.020
3294,-0.057,-0.020
3295,-0.057,-0.020
3296,-0.056,-0.048
3297,-0.055,-0.048
3298,-0.055,-0.048
3299,-0.055,-0.048
3300,-0.055,-0.077
3301,-0.055,-0.077
3302,-0.055,-0.077
3303,-0.055,-0.077
3304,-0.056,-0.105
3305,-0.056,-0.105
3306,-0.058,-0.105
3307,-0.059,-0.105
3308,-0.059,-0.133
3309,-0.059,-0.133
3310,-0.059,-0.133
3311,-0.058,-0.133
3312,-0.057,-0.157
3313,-0.055,-0.157
3314,-0.051,-0.157
3315,-0.047,-0.157
3316,-0.036,-0.181
3317,-0.025,-0.181
3318,-0.003,-0.181
3319,0.019,-0.181
3320,0.055,-0.204
3321,0.091,-0.204
3322,0.141,-0.204
3323,0.192,-0.204
3324,0.253,-0.225
3325,0.314,-0.225
3326,0.376,-0.225
3327,0.438,-0.225
3328,0.490,-0.243
3329,0.542,-0.243
3330,0.578,-0.243
3331,0.613,-0.243
3332,0.627,-0.261
3333,0.641,-0.261
3334,0.632,-0.261
3335,0.623,-0.261
3336,0.592,-0.276
3337,0.561,-0.276
3338,0.515,-0.276
3339,0.469,-0.276
3340,0.416,-0.292
3341,0.363,-0.292
3342,0.314,-0.292
3343,0.264,-0.292
3344,0.223,-0.306
3345,0.182,-0.306
3346,0.152,-0.306
3347,0.123,-0.306
3348,0.103,-0.319
3349,0.083,-0.319
3350,0.070,-0.319
3351,0.056,-0.319
3352,0.046,-0.329
3353,0.036,-0.329
3354,0.028,-0.329
3355,0.020,-0.329
3356,0.011,-0.342
3357,0.002,-0.342
3358,-0.009,-0.342
3359,-0.020,-0.342
3360,-0.034,-0.353
3361,-0.048,-0.353
3362,-0.062,-0.353
3363,-0.077,-0.353
3364,-0.089,-0.364
3365,-0.101,-0.364
3366,-0.111,-0.364
3367,-0.120,-0.364
3368,-0.125,-0.375
3369,-0.130,-0.375
3370,-0.132,-0.375
3371,-0.133,-0.375
3372,-0.134,-0.386
3373,-0.135,-0.386
3374,-0.136,-0.386
3375,-0.137,-0.386
3376,-0.138,-0.398
3377,-0.139,-0.398
3378,-0.140,-0.398
3379,-0.140,-0.398
3380,-0.141,-0.408
3381,-0.143,-0.408
3382,-0.143,-0.408
3383,-0.143,-0.408
3384,-0.143,-0.416
3385,-0.143,-0.416
3386,-0.142,-0.416
3387,-0.142,-0.416
3388,-0.141,-0.427
3389,-0.141,-0.427
3390,-0.141,-0.427
3391,-0.142,-0.427
3392,-0.143,-0.436
3393,-0.144,-0.436
3394,-0.145,-0.436
3395,-0.146,-0.436
3396,-0.146,-0.445
3397,-0.147,-0.445
3398,-0.147,-0.445
3399,-0.148,-0.445
3400,-0.149,-0.453
3401,-0.150,-0.453
3402,-0.151,-0.453
3403,-0.152,-0.453
3404,-0.154,-0.461
3405,-0.157,-0.461
3406,-0.158,-0.461
3407,-0.159,-0.461
3408,-0.160,-0.469
3409,-0.161,-0.469
3410,-0.163,-0.469
3411,-0.164,-0.469
3412,-0.166,-0.475
3413,-0.167,-0.475
3414,-0.169,-0.475
3415,-0.170,-0.475
3416,-0.172,-0.481
3417,-0.173,-0.481
3418,-0.175,-0.481
3419,-0.177,-0.481
3420,-0.178,-0.484
3421,-0.179,-0.484
3422,-0.180,-0.484
3423,-0.181,-0.484
3424,-0.182,-0.488
3425,-0.183,-0.488
3426,-0.183,-0.488
3427,-0.183,-0.488
3428,-0.182,-0.491
3429,-0.182,-0.491
3430,-0.181,-0.491
3431,-0.180,-0.491
3432,-0.179,-0.490
3433,-0.178,-0.490
3434,-0.176,-0.490
3435,-0.175,-0.490
3436,-0.172,-0.487
3437,-0.170,-0.487
3438,-0.167,-0.487
3439,-0.163,-0.487
3440,-0.158,-0.483
3441,-0.153,-0.483
3442,-0.148,-0.483
3443,-0.144,-0.483
3444,-0.139,-0.469
3445,-0.133,-0.469
3446,-0.127,-0.469
3447,-0.121,-0.469
3448,-0.115,-0.449
3449,-0.108,-0.449
3450,-0.102,-0.449
3451,-0.096,-0.449
3452,-0.090,-0.421
3453,-0.085,-0.421
3454,-0.080,-0.421
3455,-0.075,-0.421
3456,-0.071,-0.385
3457,-0.068,-0.385
3458,-0.065,-0.385
3459,-0.061,-0.385
3460,-0.058,-0.340
3461,-0.054,-0.340
3462,-0.052,-0.340
3463,-0.051,-0.340
3464,-0.051,-0.287
3465,-0.051,-0.287
3466,-0.051,-0.287
3467,-0.051,-0.287
3468,-0.050,-0.226
3469,-0.049,-0.226
3470,-0.048,-0.226
3471,-0.046,-0.226
3472,-0.043,-0.162
3473,-0.041,-0.162
3474,-0.040,-0.162
3475,-0.039,-0.162
3476,-0.038,-0.093
3477,-0.038,-0.093
3478,-0.039,-0.093
3479,-0.040,-0.093
3480,-0.041,-0.024
3481,-0.042,-0.024
3482,-0.043,-0.024
3483,-0.044,-0.024
3484,-0.046,0.046
3485,-0.048,0.046
3486,-0.048,0.046
3487,-0.048,0.046
3488,-0.048,0.114
3489,-0.048,0.114
3490,-0.049,0.114
3491,-0.049,0.114
3492,-0.051,0.180
3493,-0.052,0.180
3494,-0.053,0.180
3495,-0.055,0.180
3496,-0.055,0.240
3497,-0.055,0.240
3498,-0.055,0.240
3499,-0.055,0.240
3500,-0.056,0.298
3501,-0.056,0.298
3502,-0.058,0.298
3503,-0.059,0.298
3504,-0.059,0.348
3505,-0.060,0.348
3506,-0.061,0.348
3507,-0.063,0.348
3508,-0.065,0.395
3509,-0.066,0.395
3510,-0.067,0.395
3511,-0.067,0.395
3512,-0.067,0.433
3513,-0.066,0.433
3514,-0.066,0.433
3515,-0.066,0.433
3516,-0.066,0.465
3517,-0.066,0.465
3518,-0.066,0.465
3519,-0.066,0.465
3520,-0.066,0.489
3521,-0.066,0.489
3522,-0.066,0.489
3523,-0.066,0.489
3524,-0.066,0.507
3525,-0.065,0.507
3526,-0.064,0.507
3527,-0.063,0.507
3528,-0.062,0.515
3529,-0.061,0.515
3530,-0.060,0.515
3531,-0.059,0.515
3532,-0.056,0.518
3533,-0.053,0.518
3534,-0.051,0.518
3535,-0.048,0.518
3536,-0.045,0.510
3537,-0.043,0.510
3538,-0.041,0.510
3539,-0.039,0.510
3540,-0.037,0.499
3541,-0.035,0.499
3542,-0.033,0.499
3543,-0.030,0.499
3544,-0.027,0.481
3545,-0.024,0.481
3546,-0.021,0.481
3547,-0.018,0.481
3548,-0.015,0.458
3549,-0.011,0.458
3550,-0.007,0.458
3551,-0.003,0.458
3552,0.001,0.430
3553,0.004,0.430
3554,0.006,0.430
3555,0.008,0.430
3556,0.010,0.402
3557,0.012,0.402
3558,0.013,0.402
3559,0.013,0.402
3560,0.012,0.368
3561,0.011,0.368
3562,0.007,0.368
3563,0.003,0.368
3564,-0.003,0.335
3565,-0.009,0.335
3566,-0.016,0.335
3567,-0.023,0.335
3568,-0.031,0.301
3569,-0.039,0.301
3570,-0.046,0.301
3571,-0.053,0.301
3572,-0.058,0.266
3573,-0.062,0.266
3574,-0.064,0.266
3575,-0.066,0.266
3576,-0.067,0.233
3577,-0.068,0.233
3578,-0.069,0.233
3579,-0.069,0.233
3580,-0.070,0.197
3581,-0.071,0.197
3582,-0.072,0.197
3583,-0.073,0.197
3584,-0.073,0.164
3585,-0.073,0.164
3586,-0.071,0.164
3587,-0.070,0.164
3588,-0.069,0.130
3589,-0.068,0.130
3590,-0.068,0.130
3591,-0.067,0.130
3592,-0.067,0.095
3593,-0.066,0.095
3594,-0.066,0.095
3595,-0.066,0.095
3596,-0.066,0.063
3597,-0.066,0.063
3598,-0.066,0.063
3599,-0.066,0.063
3600,-0.067,0.029
3601,-0.067,0.029
3602,-0.068,0.029
3603,-0.069,0.029
3604,-0.070,-0.001
3605,-0.070,-0.001
3606,-0.070,-0.001
3607,-0.070,-0.001
3608,-0.070,-0.033
3609,-0.070,-0.033
3610,-0.070,-0.033
3611,-0.070,-0.033
3612,-0.070,-0.064
3613,-0.070,-0.064
3614,-0.070,-0.064
3615,-0.070,-0.064
3616,-0.070,-0.092
3617,-0.070,-0.092
3618,-0.070,-0.092
3619,-0.071,-0.092
3620,-0.071,-0.121
3621,-0.072,-0.121
3622,-0.072,-0.121
3623,-0.072,-0.121
3624,-0.071,-0.146
3625,-0.071,-0.146
3626,-0.070,-0.146
3627,-0.068,-0.146
3628,-0.063,-0.172
3629,-0.058,-0.172
3630,-0.043,-0.172
3631,-0.029,-0.172
3632,-0.001,-0.195
3633,0.027,-0.195
3634,0.070,-0.195
3635,0.114,-0.195
3636,0.170,-0.216
3637,0.226,-0.216
3638,0.287,-0.216
3639,0.349,-0.216
3640,0.408,-0.236
3641,0.467,-0.236
3642,0.515,-0.236
3643,0.563,-0.236
3644,0.595,-0.255
3645,0.626,-0.255
3646,0.635,-0.255
3647,0.645,-0.255
3648,0.630,-0.272
3649,0.615,-0.272
3650,0.579,-0.272
3651,0.543,-0.272
3652,0.493,-0.287
3653,0.444,-0.287
3654,0.390,-0.287
3655,0.336,-0.287
3656,0.286,-0.300
3657,0.237,-0.300
3658,0.199,-0.300
3659,0.160,-0.300
3660,0.133,-0.315
3661,0.105,-0.315
3662,0.087,-0.315
3663,0.070,-0.315
3664,0.058,-0.327
3665,0.045,-0.327
3666,0.036,-0.327
3667,0.028,-0.327
3668,0.019,-0.340
3669,0.010,-0.340
3670,0.000,-0.340
3671,-0.010,-0.340
3672,-0.022,-0.350
3673,-0.034,-0.350
3674,-0.046,-0.350
3675,-0.058,-0.350
3676,-0.070,-0.362
3677,-0.082,-0.362
3678,-0.092,-0.362
3679,-0.103,-0.362
3680,-0.112,-0.373
3681,-0.120,-0.373
3682,-0.126,-0.373
3683,-0.131,-0.373
3684,-0.134,-0.385
3685,-0.136,-0.385
3686,-0.139,-0.385
3687,-0.141,-0.385
3688,-0.142,-0.396
3689,-0.144,-0.396
3690,-0.145,-0.396
3691,-0.146,-0.396
3692,-0.147,-0.407
3693,-0.148,-0.407
3694,-0.149,-0.407
3695,-0.150,-0.407
3696,-0.150,-0.414
3697,-0.150,-0.414
3698,-0.150,-0.414
3699,-0.150,-0.414
3700,-0.149,-0.424
3701,-0.149,-0.424
3702,-0.148,-0.424
3703,-0.147,-0.424
3704,-0.146,-0.436
3705,-0.146,-0.436
3706,-0.147,-0.436
3707,-0.148,-0.436
3708,-0.149,-0.445
3709,-0.150,-0.445
3710,-0.150,-0.445
3711,-0.151,-0.445
3712,-0.152,-0.453
3713,-0.153,-0.453
3714,-0.154,-0.453
3715,-0.155,-0.453
3716,-0.154,-0.461
3717,-0.154,-0.461
3718,-0.154,-0.461
3719,-0.154,-0.461
3720,-0.154,-0.469
3721,-0.154,-0.469
3722,-0.155,-0.469
3723,-0.156,-0.469
3724,-0.159,-0.475
3725,-0.161,-0.475
3726,-0.164,-0.475
3727,-0.167,-0.475
3728,-0.170,-0.481
3729,-0.172,-0.481
3730,-0.174,-0.481
3731,-0.177,-0.481
3732,-0.178,-0.487
3733,-0.180,-0.487
3734,-0.182,-0.487
3735,-0.184,-0.487
3736,-0.185,-0.489
3737,-0.186,-0.489
3738,-0.185,-0.489
3739,-0.185,-0.489
3740,-0.185,-0.494
3741,-0.185,-0.494
3742,-0.184,-0.494
3743,-0.184,-0.494
3744,-0.183,-0.494
3745,-0.182,-0.494
3746,-0.180,-0.494
3747,-0.179,-0.494
3748,-0.176,-0.493
3749,-0.174,-0.493
3750,-0.171,-0.493
3751,-0.167,-0.493
3752,-0.163,-0.486
3753,-0.159,-0.486
3754,-0.154,-0.486
3755,-0.149,-0.486
3756,-0.144,-0.474
3757,-0.139,-0.474
3758,-0.133,-0.474
3759,-0.127,-0.474
3760,-0.120,-0.457
3761,-0.114,-0.457
3762,-0.107,-0.457
3763,-0.101,-0.457
3764,-0.095,-0.429
3765,-0.088,-0.429
3766,-0.082,-0.429
3767,-0.075,-0.429
3768,-0.070,-0.396
3769,-0.064,-0.396
3770,-0.060,-0.396
3771,-0.057,-0.396
3772,-0.054,-0.351
3773,-0.051,-0.351
3774,-0.048,-0.351
3775,-0.044,-0.351
3776,-0.041,-0.299
3777,-0.037,-0.299
3778,-0.035,-0.299
3779,-0.032,-0.299
3780,-0.031,-0.240
3781,-0.030,-0.240
3782,-0.029,-0.240
3783,-0.029,-0.240
3784,-0.029,-0.175
3785,-0.030,-0.175
3786,-0.030,-0.175
3787,-0.030,-0.175
3788,-0.029,-0.107
3789,-0.029,-0.107
3790,-0.028,-0.107
3791,-0.027,-0.107
3792,-0.026,-0.036
3793,-0.025,-0.036
3794,-0.025,-0.036
3795,-0.026,-0.036
3796,-0.026,0.035
3797,-0.027,0.035
3798,-0.028,0.035
3799,-0.029,0.035
3800,-0.030,0.105
3801,-0.031,0.105
3802,-0.032,0.105
3803,-0.032,0.105
3804,-0.032,0.172
3805,-0.032,0.172
3806,-0.032,0.172
3807,-0.032,0.172
3808,-0.033,0.234
3809,-0.033,0.234
3810,-0.034,0.234
3811,-0.034,0.234
3812,-0.035,0.293
3813,-0.037,0.293
3814,-0.039,0.293
3815,-0.041,0.293
3816,-0.043,0.346
3817,-0.044,0.346
3818,-0.044,0.346
3819,-0.045,0.346
3820,-0.044,0.393
3821,-0.043,0.393
3822,-0.042,0.393
3823,-0.041,0.393
3824,-0.041,0.433
3825,-0.040,0.433
3826,-0.040,0.433
3827,-0.040,0.433
3828,-0.040,0.469
3829,-0.040,0.469
3830,-0.040,0.469
3831,-0.040,0.469
3832,-0.040,0.495
3833,-0.040,0.495
3834,-0.040,0.495
3835,-0.039,0.495
3836,-0.037,0.514
3837,-0.036,0.514
3838,-0.035,0.514
3839,-0.033,0.514
3840,-0.030,0.528
3841,-0.028,0.528
3842,-0.025,0.528
3843,-0.023,0.528
3844,-0.021,0.531
3845,-0.020,0.531
3846,-0.019,0.531
3847,-0.018,0.531
3848,-0.015,0.529
3849,-0.013,0.529
3850,-0.010,0.529
3851,-0.007,0.529
3852,-0.005,0.519
3853,-0.003,0.519
3854,-0.002,0.519
3855,0.000,0.519
3856,0.002,0.502
3857,0.004,0.502
3858,0.006,0.502
3859,0.008,0.502
3860,0.010,0.482
3861,0.012,0.482
3862,0.013,0.482
3863,0.015,0.482
3864,0.017,0.457
3865,0.019,0.457
3866,0.021,0.457
3867,0.024,0.457
3868,0.026,0.427
3869,0.029,0.427
3870,0.031,0.427
3871,0.033,0.427
3872,0.033,0.397
3873,0.032,0.397
3874,0.029,0.397
3875,0.027,0.397
3876,0.025,0.362
3877,0.022,0.362
3878,0.019,0.362
3879,0.016,0.362
3880,0.012,0.329
3881,0.008,0.329
3882,0.004,0.329
3883,-0.001,0.329
3884,-0.005,0.293
3885,-0.010,0.293
3886,-0.015,0.293
3887,-0.019,0.293
3888,-0.021,0.259
3889,-0.024,0.259
3890,-0.025,0.259
3891,-0.026,0.259
3892,-0.025,0.224
3893,-0.025,0.224
3894,-0.024,0.224
3895,-0.023,0.224
3896,-0.022,0.188
3897,-0.021,0.188
3898,-0.020,0.188
3899,-0.019,0.188
3900,-0.018,0.155
3901,-0.018,0.155
3902,-0.018,0.155
3903,-0.019,0.155
3904,-0.019,0.120
3905,-0.019,0.120
3906,-0.019,0.120
3907,-0.019,0.120
3908,-0.019,0.086
3909,-0.019,0.086
3910,-0.019,0.086
3911,-0.019,0.086
3912,-0.019,0.052
3913,-0.019,0.052
3914,-0.018,0.052
3915,-0.018,0.052
3916,-0.017,0.020
3917,-0.016,0.020
3918,-0.016,0.020
3919,-0.016,0.020
3920,-0.017,-0.012
3921,-0.018,-0.012
3922,-0.018,-0.012
3923,-0.019,-0.012
3924,-0.019,-0.043
3925,-0.019,-0.043
3926,-0.019,-0.043
3927,-0.019,-0.043
3928,-0.018,-0.074
3929,-0.018,-0.074
3930,-0.017,-0.074
3931,-0.016,-0.074
3932,-0.015,-0.102
3933,-0.015,-0.102
3934,-0.014,-0.102
3935,-0.013,-0.102
3936,-0.013,-0.131
3937,-0.012,-0.131
3938,-0.011,-0.131
3939,-0.009,-0.131
3940,-0.005,-0.156
3941,-0.002,-0.156
3942,0.006,-0.156
3943,0.014,-0.156
3944,0.031,-0.181
3945,0.048,-0.181
3946,0.079,-0.181
3947,0.109,-0.181
3948,0.155,-0.205
3949,0.202,-0.205
3950,0.261,-0.205
3951,0.319,-0.205
3952,0.382,-0.233
3953,0.445,-0.233
3954,0.502,-0.233
3955,0.560,-0.233
3956,0.604,-0.252
3957,0.647,-0.252
3958,0.672,-0.252
3959,0.698,-0.252
3960,0.701,-0.271
3961,0.704,-0.271
3962,0.683,-0.271
3963,0.663,-0.271
3964,0.623,-0.288
3965,0.583,-0.288
3966,0.531,-0.288
3967,0.479,-0.288
3968,0.425,-0.303
3969,0.371,-0.303
3970,0.325,-0.303
3971,0.278,-0.303
3972,0.243,-0.317
3973,0.208,-0.317
3974,0.183,-0.317
3975,0.158,-0.317
3976,0.141,-0.331
3977,0.124,-0.331
3978,0.113,-0.331
3979,0.101,-0.331
3980,0.091,-0.342
3981,0.082,-0.342
3982,0.072,-0.342
3983,0.062,-0.342
3984,0.052,-0.355
3985,0.042,-0.355
3986,0.032,-0.355
3987,0.022,-0.355
3988,0.011,-0.367
3989,0.000,-0.367
3990,-0.011,-0.367
3991,-0.022,-0.367
3992,-0.031,-0.378
3993,-0.040,-0.378
3994,-0.048,-0.378
3995,-0.055,-0.378
3996,-0.059,-0.389
3997,-0.063,-0.389
3998,-0.066,-0.389
3999,-0.068,-0.389
4000,-0.070,-0.400
4001,-0.071,-0.400
4002,-0.072,-0.400
4003,-0.074,-0.400
4004,-0.076,-0.411
4005,-0.078,-0.411
4006,-0.080,-0.411
4007,-0.081,-0.411
4008,-0.081,-0.421
4009,-0.080,-0.421
4010,-0.079,-0.421
4011,-0.078,-0.421
4012,-0.077,-0.430
4013,-0.076,-0.430
4014,-0.077,-0.430
4015,-0.078,-0.430
4016,-0.080,-0.442
4017,-0.081,-0.442
4018,-0.083,-0.442
4019,-0.084,-0.442
4020,-0.085,-0.451
4021,-0.086,-0.451
4022,-0.086,-0.451
4023,-0.087,-0.451
4024,-0.087,-0.460
4025,-0.088,-0.460
4026,-0.088,-0.460
4027,-0.089,-0.460
4028,-0.088,-0.469
4029,-0.088,-0.469
4030,-0.088,-0.469
4031,-0.088,-0.469
4032,-0.088,-0.476
4033,-0.089,-0.476
4034,-0.090,-0.476
4035,-0.091,-0.476
4036,-0.092,-0.484
4037,-0.093,-0.484
4038,-0.095,-0.484
4039,-0.096,-0.484
4040,-0.098,-0.491
4041,-0.099,-0.491
4042,-0.099,-0.491
4043,-0.099,-0.491
4044,-0.100,-0.498
4045,-0.100,-0.498
4046,-0.102,-0.498
4047,-0.103,-0.498
4048,-0.104,-0.502
4049,-0.106,-0.502
4050,-0.106,-0.502
4051,-0.107,-0.502
4052,-0.106,-0.506
4053,-0.106,-0.506
4054,-0.105,-0.506
4055,-0.105,-0.506
4056,-0.104,-0.510
4057,-0.103,-0.510
4058,-0.102,-0.510
4059,-0.101,-0.510
4060,-0.100,-0.508
4061,-0.099,-0.508
4062,-0.097,-0.508
4063,-0.094,-0.508
4064,-0.090,-0.504
4065,-0.086,-0.504
4066,-0.081,-0.504
4067,-0.075,-0.504
4068,-0.069,-0.493
4069,-0.063,-0.493
4070,-0.056,-0.493
4071,-0.049,-0.493
4072,-0.042,-0.476
4073,-0.035,-0.476
4074,-0.029,-0.476
4075,-0.023,-0.476
4076,-0.018,-0.454
4077,-0.012,-0.454
4078,-0.007,-0.454
4079,-0.002,-0.454
4080,0.003,-0.420
4081,0.008,-0.420
4082,0.010,-0.420
4083,0.012,-0.420
4084,0.013,-0.380
4085,0.015,-0.380
4086,0.017,-0.380
4087,0.018,-0.380
4088,0.019,-0.330
4089,0.020,-0.330
4090,0.021,-0.330
4091,0.021,-0.330
4092,0.022,-0.271
4093,0.023,-0.271
4094,0.024,-0.271
4095,0.025,-0.271
4096,0.025,-0.208
4097,0.026,-0.208
4098,0.025,-0.208
4099,0.025,-0.208
4100,0.025,-0.140
4101,0.024,-0.140
4102,0.023,-0.140
4103,0.022,-0.140
4104,0.022,-0.069
4105,0.022,-0.069
4106,0.022,-0.069
4107,0.022,-0.069
4108,0.022,0.003
4109,0.022,0.003
4110,0.022,0.003
4111,0.022,0.003
4112,0.022,0.073
4113,0.023,0.073
4114,0.024,0.073
4115,0.024,0.073
4116,0.024,0.141
4117,0.024,0.141
4118,0.024,0.141
4119,0.024,0.141
4120,0.024,0.204
4121,0.023,0.204
4122,0.022,0.204
4123,0.021,0.204
4124,0.020,0.266
4125,0.019,0.266
4126,0.018,0.266
4127,0.017,0.266
4128,0.018,0.320
4129,0.019,0.320
4130,0.020,0.320
4131,0.021,0.320
4132,0.021,0.369
4133,0.022,0.369
4134,0.022,0.369
4135,0.022,0.369
4136,0.021,0.414
4137,0.021,0.414
4138,0.020,0.414
4139,0.019,0.414
4140,0.018,0.450
4141,0.017,0.450
4142,0.018,0.450
4143,0.018,0.450
4144,0.018,0.480
4145,0.019,0.480
4146,0.020,0.480
4147,0.021,0.480
4148,0.021,0.502
4149,0.021,0.502
4150,0.020,0.502
4151,0.019,0.502
4152,0.018,0.518
4153,0.017,0.518
4154,0.018,0.518
4155,0.019,0.518
4156,0.021,0.525
4157,0.022,0.525
4158,0.024,0.525
4159,0.026,0.525
4160,0.028,0.525
4161,0.030,0.525
4162,0.032,0.525
4163,0.034,0.525
4164,0.037,0.519
4165,0.040,0.519
4166,0.043,0.519
4167,0.045,0.519
4168,0.048,0.504
4169,0.050,0.504
4170,0.053,0.504
4171,0.056,0.504
4172,0.059,0.484
4173,0.063,0.484
4174,0.067,0.484
4175,0.071,0.484
4176,0.075,0.461
4177,0.079,0.461
4178,0.084,0.461
4179,0.089,0.461
4180,0.093,0.431
4181,0.097,0.431
4182,0.100,0.431
4183,0.103,0.431
4184,0.104,0.401
4185,0.106,0.401
4186,0.105,0.401
4187,0.104,0.401
4188,0.100,0.368
4189,0.096,0.368
4190,0.090,0.368
4191,0.084,0.368
4192,0.075,0.333
4193,0.067,0.333
4194,0.059,0.333
4195,0.051,0.333
4196,0.044,0.296
4197,0.037,0.296
4198,0.032,0.296
4199,0.027,0.296
4200,0.024,0.261
4201,0.020,0.261
4202,0.018,0.261
4203,0.017,0.261
4204,0.016,0.225
4205,0.015,0.225
4206,0.015,0.225
4207,0.014,0.225
4208,0.014,0.191
4209,0.014,0.191
4210,0.014,0.191
4211,0.014,0.191
4212,0.014,0.155
4213,0.014,0.155
4214,0.014,0.155
4215,0.014,0.155
4216,0.014,0.121
4217,0.014,0.121
4218,0.014,0.121
4219,0.014,0.121
4220,0.015,0.085
4221,0.015,0.085
4222,0.017,0.085
4223,0.018,0.085
4224,0.021,0.051
4225,0.023,0.051
4226,0.024,0.051
4227,0.025,0.051
4228,0.026,0.019
4229,0.027,0.019
4230,0.027,0.019
4231,0.027,0.019
4232,0.026,-0.011
4233,0.026,-0.011
4234,0.025,-0.011
4235,0.025,-0.011
4236,0.025,-0.044
4237,0.025,-0.044
4238,0.025,-0.044
4239,0.025,-0.044
4240,0.025,-0.075
4241,0.025,-0.075
4242,0.025,-0.075
4243,0.025,-0.075
4244,0.025,-0.104
4245,0.025,-0.104
4246,0.025,-0.104
4247,0.025,-0.104
4248,0.025,-0.133
4249,0.025,-0.133
4250,0.025,-0.133
4251,0.025,-0.133
4252,0.026,-0.159
4253,0.027,-0.159
4254,0.032,-0.159
4255,0.036,-0.159
4256,0.049,-0.184
4257,0.061,-0.184
4258,0.086,-0.184
4259,0.110,-0.184
4260,0.149,-0.208
4261,0.189,-0.208
4262,0.242,-0.208
4263,0.295,-0.208
4264,0.356,-0.231
4265,0.417,-0.231
4266,0.478,-0.231
4267,0.540,-0.231
4268,0.592,-0.252
4269,0.644,-0.252
4270,0.681,-0.252
4271,0.719,-0.252
4272,0.737,-0.270
4273,0.754,-0.270
4274,0.749,-0.270
4275,0.744,-0.270
4276,0.717,-0.288
4277,0.689,-0.288
4278,0.645,-0.288
4279,0.601,-0.288
4280,0.547,-0.304
4281,0.494,-0.304
4282,0.443,-0.304
4283,0.392,-0.304
4284,0.351,-0.318
4285,0.310,-0.318
4286,0.281,-0.318
4287,0.251,-0.318
4288,0.231,-0.332
4289,0.210,-0.332
4290,0.195,-0.332
4291,0.180,-0.332
4292,0.167,-0.344
4293,0.154,-0.344
4294,0.141,-0.344
4295,0.129,-0.344
4296,0.117,-0.357
4297,0.105,-0.357
4298,0.093,-0.357
4299,0.081,-0.357
4300,0.069,-0.368
4301,0.057,-0.368
4302,0.046,-0.368
4303,0.035,-0.368
4304,0.026,-0.380
4305,0.018,-0.380
4306,0.011,-0.380
4307,0.004,-0.380
4308,-0.001,-0.392
4309,-0.006,-0.392
4310,-0.009,-0.392
4311,-0.013,-0.392
4312,-0.016,-0.404
4313,-0.019,-0.404
4314,-0.021,-0.404
4315,-0.023,-0.404
4316,-0.025,-0.413
4317,-0.026,-0.413
4318,-0.026,-0.413
4319,-0.027,-0.413
4320,-0.026,-0.425
4321,-0.026,-0.425
4322,-0.026,-0.425
4323,-0.026,-0.425
4324,-0.026,-0.435
4325,-0.026,-0.435
4326,-0.026,-0.435
4327,-0.026,-0.435
4328,-0.026,-0.445
4329,-0.027,-0.445
4330,-0.029,-0.445
4331,-0.030,-0.445
4332,-0.032,-0.457
4333,-0.033,-0.457
4334,-0.035,-0.457
4335,-0.036,-0.457
4336,-0.037,-0.465
4337,-0.039,-0.465
4338,-0.041,-0.465
4339,-0.042,-0.465
4340,-0.043,-0.473
4341,-0.044,-0.473
4342,-0.045,-0.473
4343,-0.046,-0.473
4344,-0.046,-0.481
4345,-0.047,-0.481
4346,-0.048,-0.481
4347,-0.048,-0.481
4348,-0.049,-0.488
4349,-0.049,-0.488
4350,-0.051,-0.488
4351,-0.052,-0.488
4352,-0.054,-0.497
4353,-0.057,-0.497
4354,-0.059,-0.497
4355,-0.062,-0.497
4356,-0.063,-0.502
4357,-0.064,-0.502
4358,-0.065,-0.502
4359,-0.066,-0.502
4360,-0.067,-0.508
4361,-0.067,-0.508
4362,-0.068,-0.508
4363,-0.069,-0.508
4364,-0.070,-0.512
4365,-0.071,-0.512
4366,-0.072,-0.512
4367,-0.073,-0.512
4368,-0.073,-0.515
4369,-0.074,-0.515
4370,-0.073,-0.515
4371,-0.073,-0.515
4372,-0.072,-0.514
4373,-0.072,-0.514
4374,-0.070,-0.514
4375,-0.068,-0.514
4376,-0.065,-0.509
4377,-0.061,-0.509
4378,-0.057,-0.509
4379,-0.053,-0.509
4380,-0.049,-0.500
4381,-0.045,-0.500
4382,-0.040,-0.500
4383,-0.035,-0.500
4384,-0.029,-0.486
4385,-0.023,-0.486
4386,-0.018,-0.486
4387,-0.012,-0.486
4388,-0.007,-0.465
4389,-0.002,-0.465
4390,0.004,-0.465
4391,0.009,-0.465
4392,0.013,-0.433
4393,0.016,-0.433
4394,0.018,-0.433
4395,0.019,-0.433
4396,0.021,-0.396
4397,0.023,-0.396
4398,0.025,-0.396
4399,0.027,-0.396
4400,0.030,-0.347
4401,0.034,-0.347
4402,0.037,-0.347
4403,0.041,-0.347
4404,0.043,-0.291
4405,0.045,-0.291
4406,0.046,-0.291
4407,0.048,-0.291
4408,0.049,-0.228
4409,0.049,-0.228
4410,0.050,-0.228
4411,0.050,-0.228
4412,0.050,-0.163
4413,0.049,-0.163
4414,0.049,-0.163
4415,0.049,-0.163
4416,0.049,-0.090
4417,0.049,-0.090
4418,0.049,-0.090
4419,0.048,-0.090
4420,0.048,-0.020
4421,0.047,-0.020
4422,0.047,-0.020
4423,0.047,-0.020
4424,0.046,0.051
4425,0.046,0.051
4426,0.045,0.051
4427,0.044,0.051
4428,0.043,0.121
4429,0.043,0.121
4430,0.043,0.121
4431,0.044,0.121
4432,0.043,0.184
4433,0.043,0.184
4434,0.042,0.184
4435,0.041,0.184
4436,0.040,0.246
4437,0.039,0.246
4438,0.037,0.246
4439,0.035,0.246
4440,0.034,0.302
4441,0.033,0.302
4442,0.033,0.302
4443,0.032,0.302
4444,0.032,0.355
4445,0.032,0.355
4446,0.033,0.355
4447,0.033,0.355
4448,0.033,0.400
4449,0.033,0.400
4450,0.032,0.400
4451,0.031,0.400
4452,0.029,0.439
4453,0.028,0.439
4454,0.027,0.439
4455,0.026,0.439
4456,0.025,0.471
4457,0.025,0.471
4458,0.025,0.471
4459,0.025,0.471
4460,0.025,0.495
4461,0.025,0.495
4462,0.025,0.495
4463,0.025,0.495
4464,0.025,0.505
4465,0.025,0.505
4466,0.025,0.505
4467,0.026,0.505
4468,0.028,0.516
4469,0.029,0.516
4470,0.031,0.516
4471,0.033,0.516
4472,0.035,0.518
4473,0.037,0.518
4474,0.039,0.518
4475,0.041,0.518
4476,0.043,0.511
4477,0.044,0.511
4478,0.045,0.511
4479,0.047,0.511
4480,0.049,0.502
4481,0.050,0.502
4482,0.052,0.502
4483,0.054,0.502
4484,0.055,0.484
4485,0.056,0.484
4486,0.058,0.484
4487,0.060,0.484
4488,0.064,0.462
4489,0.068,0.462
4490,0.073,0.462
4491,0.079,0.462
4492,0.084,0.432
4493,0.089,0.432
4494,0.093,0.432
4495,0.097,0.432
4496,0.100,0.402
4497,0.103,0.402
4498,0.104,0.402
4499,0.105,0.402
4500,0.103,0.370
4501,0.101,0.370
4502,0.096,0.370
4503,0.091,0.370
4504,0.084,0.335
4505,0.077,0.335
4506,0.070,0.335
4507,0.062,0.335
4508,0.054,0.300
4509,0.047,0.300
4510,0.041,0.300
4511,0.035,0.300
4512,0.031,0.264
4513,0.027,0.264
4514,0.024,0.264
4515,0.021,0.264
4516,0.019,0.230
4517,0.018,0.230
4518,0.018,0.230
4519,0.017,0.230
4520,0.018,0.194
4521,0.018,0.194
4522,0.018,0.194
4523,0.018,0.194
4524,0.018,0.158
4525,0.018,0.158
4526,0.018,0.158
4527,0.018,0.158
4528,0.018,0.123
4529,0.018,0.123
4530,0.018,0.123
4531,0.017,0.123
4532,0.016,0.089
4533,0.015,0.089
4534,0.015,0.089
4535,0.015,0.089
4536,0.016,0.053
4537,0.017,0.053
4538,0.018,0.053
4539,0.020,0.053
4540,0.020,0.021
4541,0.020,0.021
4542,0.019,0.021
4543,0.019,0.021
4544,0.018,-0.013
4545,0.018,-0.013
4546,0.018,-0.013
4547,0.018,-0.013
4548,0.018,-0.045
4549,0.018,-0.045
4550,0.018,-0.045
4551,0.018,-0.045
4552,0.018,-0.075
4553,0.018,-0.075
4554,0.018,-0.075
4555,0.018,-0.075
4556,0.018,-0.106
4557,0.018,-0.106
4558,0.018,-0.106
4559,0.018,-0.106
4560,0.018,-0.134
4561,0.017,-0.134
4562,0.016,-0.134
4563,0.015,-0.134
4564,0.015,-0.162
4565,0.015,-0.162
4566,0.018,-0.162
4567,0.020,-0.162
4568,0.028,-0.188
4569,0.035,-0.188
4570,0.051,-0.188
4571,0.066,-0.188
4572,0.094,-0.211
4573,0.122,-0.211
4574,0.165,-0.211
4575,0.208,-0.211
4576,0.263,-0.235
4577,0.317,-0.235
4578,0.378,-0.235
4579,0.439,-0.235
4580,0.497,-0.257
4581,0.556,-0.257
4582,0.605,-0.257
4583,0.654,-0.257
4584,0.686,-0.276
4585,0.719,-0.276
4586,0.730,-0.276
4587,0.741,-0.276
4588,0.730,-0.294
4589,0.719,-0.294
4590,0.687,-0.294
4591,0.655,-0.294
4592,0.608,-0.311
4593,0.561,-0.311
4594,0.509,-0.311
4595,0.457,-0.311
4596,0.407,-0.327
4597,0.358,-0.327
4598,0.319,-0.327
4599,0.279,-0.327
4600,0.251,-0.340
4601,0.222,-0.340
4602,0.202,-0.340
4603,0.182,-0.340
4604,0.168,-0.354
4605,0.154,-0.354
4606,0.143,-0.354
4607,0.133,-0.354
4608,0.122,-0.366
4609,0.112,-0.366
4610,0.101,-0.366
4611,0.089,-0.366
4612,0.077,-0.378
4613,0.065,-0.378
4614,0.053,-0.378
4615,0.041,-0.378
4616,0.029,-0.391
4617,0.018,-0.391
4618,0.009,-0.391
4619,-0.001,-0.391
4620,-0.007,-0.402
4621,-0.014,-0.402
4622,-0.019,-0.402
4623,-0.024,-0.402
4624,-0.028,-0.412
4625,-0.031,-0.412
4626,-0.032,-0.412
4627,-0.033,-0.412
4628,-0.034,-0.423
4629,-0.035,-0.423
4630,-0.036,-0.423
4631,-0.037,-0.423
4632,-0.038,-0.434
4633,-0.040,-0.434
4634,-0.041,-0.434
4635,-0.041,-0.434
4636,-0.041,-0.446
4637,-0.040,-0.446
4638,-0.041,-0.446
4639,-0.041,-0.446
4640,-0.042,-0.456
4641,-0.043,-0.456
4642,-0.044,-0.456
4643,-0.045,-0.456
4644,-0.047,-0.465
4645,-0.049,-0.465
4646,-0.050,-0.465
4647,-0.051,-0.465
4648,-0.051,-0.474
4649,-0.052,-0.474
4650,-0.052,-0.474
4651,-0.052,-0.474
4652,-0.052,-0.484
4653,-0.052,-0.484
4654,-0.053,-0.484
4655,-0.054,-0.484
4656,-0.056,-0.492
4657,-0.057,-0.492
4658,-0.060,-0.492
4659,-0.064,-0.492
4660,-0.067,-0.500
4661,-0.070,-0.500
4662,-0.072,-0.500
4663,-0.074,-0.500
4664,-0.076,-0.508
4665,-0.078,-0.508
4666,-0.080,-0.508
4667,-0.081,-0.508
4668,-0.081,-0.514
4669,-0.081,-0.514
4670,-0.081,-0.514
4671,-0.081,-0.514
4672,-0.081,-0.520
4673,-0.081,-0.520
4674,-0.082,-0.520
4675,-0.082,-0.520
4676,-0.084,-0.523
4677,-0.085,-0.523
4678,-0.087,-0.523
4679,-0.089,-0.523
4680,-0.090,-0.527
4681,-0.092,-0.527
4682,-0.092,-0.527
4683,-0.092,-0.527
4684,-0.092,-0.528
4685,-0.092,-0.528
4686,-0.091,-0.528
4687,-0.090,-0.528
4688,-0.086,-0.526
4689,-0.083,-0.526
4690,-0.079,-0.526
4691,-0.075,-0.526
4692,-0.071,-0.519
4693,-0.068,-0.519
4694,-0.064,-0.519
4695,-0.060,-0.519
4696,-0.054,-0.507
4697,-0.048,-0.507
4698,-0.042,-0.507
4699,-0.036,-0.507
4700,-0.031,-0.486
4701,-0.026,-0.486
4702,-0.021,-0.486
4703,-0.016,-0.486
4704,-0.011,-0.458
4705,-0.005,-0.458
4706,-0.001,-0.458
4707,0.004,-0.458
4708,0.007,-0.421
4709,0.010,-0.421
4710,0.013,-0.421
4711,0.015,-0.421
4712,0.017,-0.377
4713,0.018,-0.377
4714,0.019,-0.377
4715,0.020,-0.377
4716,0.021,-0.323
4717,0.022,-0.323
4718,0.024,-0.323
4719,0.025,-0.323
4720,0.025,-0.261
4721,0.026,-0.261
4722,0.025,-0.261
4723,0.025,-0.261
4724,0.025,-0.196
4725,0.025,-0.196
4726,0.025,-0.196
4727,0.025,-0.196
4728,0.025,-0.127
4729,0.025,-0.127
4730,0.025,-0.127
4731,0.024,-0.127
4732,0.023,-0.056
4733,0.022,-0.056
4734,0.021,-0.056
4735,0.021,-0.056
4736,0.020,0.015
4737,0.019,0.015
4738,0.018,0.015
4739,0.017,0.015
4740,0.018,0.085
4741,0.018,0.085
4742,0.018,0.085
4743,0.018,0.085
4744,0.018,0.150
4745,0.018,0.150
4746,0.018,0.150
4747,0.017,0.150
4748,0.016,0.211
4749,0.015,0.211
4750,0.015,0.211
4751,0.014,0.211
4752,0.014,0.269
4753,0.014,0.269
4754,0.014,0.269
4755,0.014,0.269
4756,0.014,0.321
4757,0.014,0.321
4758,0.014,0.321
4759,0.014,0.321
4760,0.014,0.368
4761,0.014,0.368
4762,0.014,0.368
4763,0.014,0.368
4764,0.014,0.407
4765,0.014,0.407
4766,0.014,0.407
4767,0.014,0.407
4768,0.014,0.443
4769,0.014,0.443
4770,0.014,0.443
4771,0.014,0.443
4772,0.014,0.469
4773,0.014,0.469
4774,0.014,0.469
4775,0.014,0.469
4776,0.014,0.489
4777,0.014,0.489
4778,0.014,0.489
4779,0.014,0.489
4780,0.014,0.501
4781,0.014,0.501
4782,0.014,0.501
4783,0.014,0.501
4784,0.014,0.506
4785,0.014,0.506
4786,0.015,0.506
4787,0.015,0.506
4788,0.016,0.503
4789,0.017,0.503
4790,0.018,0.503
4791,0.020,0.503
4792,0.021,0.493
4793,0.021,0.493
4794,0.022,0.493
4795,0.023,0.493
4796,0.025,0.477
4797,0.027,0.477
4798,0.030,0.477
4799,0.033,0.477
4800,0.036,0.458
4801,0.039,0.458
4802,0.042,0.458
4803,0.045,0.458
4804,0.049,0.430
4805,0.053,0.430
4806,0.057,0.430
4807,0.060,0.430
4808,0.064,0.402
4809,0.067,0.402
4810,0.070,0.402
4811,0.074,0.402
4812,0.075,0.369
4813,0.076,0.369
4814,0.074,0.369
4815,0.072,0.369
4816,0.067,0.335
4817,0.062,0.335
4818,0.056,0.335
4819,0.050,0.335
4820,0.043,0.300
4821,0.036,0.300
4822,0.030,0.300
4823,0.024,0.300
4824,0.021,0.264
4825,0.017,0.264
4826,0.015,0.264
4827,0.014,0.264
4828,0.014,0.230
4829,0.014,0.230
4830,0.014,0.230
4831,0.014,0.230
4832,0.014,0.193
4833,0.014,0.193
4834,0.013,0.193
4835,0.013,0.193
4836,0.012,0.157
4837,0.011,0.157
4838,0.011,0.157
4839,0.010,0.157
4840,0.010,0.122
4841,0.010,0.122
4842,0.009,0.122
4843,0.009,0.122
4844,0.009,0.088
4845,0.010,0.088
4846,0.011,0.088
4847,0.011,0.088
4848,0.011,0.055
4849,0.011,0.055
4850,0.011,0.055
4851,0.011,0.055
4852,0.011,0.021
4853,0.011,0.021
4854,0.011,0.021
4855,0.012,0.021
4856,0.013,-0.011
4857,0.014,-0.011
4858,0.015,-0.011
4859,0.015,-0.011
4860,0.015,-0.043
4861,0.014,-0.043
4862,0.014,-0.043
4863,0.014,-0.043
4864,0.013,-0.074
4865,0.013,-0.074
4866,0.012,-0.074
4867,0.011,-0.074
4868,0.010,-0.103
4869,0.009,-0.103
4870,0.009,-0.103
4871,0.009,-0.103
4872,0.009,-0.132
4873,0.010,-0.132
4874,0.011,-0.132
4875,0.012,-0.132
4876,0.013,-0.160
4877,0.014,-0.160
4878,0.015,-0.160
4879,0.015,-0.160
4880,0.015,-0.185
4881,0.016,-0.185
4882,0.021,-0.185
4883,0.026,-0.185
4884,0.040,-0.211
4885,0.054,-0.211
4886,0.081,-0.211
4887,0.108,-0.211
4888,0.151,-0.234
4889,0.194,-0.234
4890,0.250,-0.234
4891,0.306,-0.234
4892,0.367,-0.254
4893,0.428,-0.254
4894,0.485,-0.254
4895,0.543,-0.254
4896,0.589,-0.276
4897,0.635,-0.276
4898,0.663,-0.276
4899,0.692,-0.276
4900,0.699,-0.293
4901,0.706,-0.293
4902,0.690,-0.293
4903,0.673,-0.293
4904,0.636,-0.310
4905,0.599,-0.310
4906,0.549,-0.310
4907,0.500,-0.310
4908,0.446,-0.325
4909,0.391,-0.325
4910,0.342,-0.325
4911,0.293,-0.325
4912,0.256,-0.339
4913,0.219,-0.339
4914,0.194,-0.339
4915,0.168,-0.339
4916,0.152,-0.353
4917,0.136,-0.353
4918,0.124,-0.353
4919,0.113,-0.353
4920,0.102,-0.365
4921,0.092,-0.365
4922,0.081,-0.365
4923,0.069,-0.365
4924,0.058,-0.377
4925,0.046,-0.377
4926,0.034,-0.377
4927,0.022,-0.377
4928,0.011,-0.387
4929,0.001,-0.387
4930,-0.008,-0.387
4931,-0.017,-0.387
4932,-0.024,-0.400
4933,-0.031,-0.400
4934,-0.036,-0.400
4935,-0.041,-0.400
4936,-0.045,-0.410
4937,-0.049,-0.410
4938,-0.051,-0.410
4939,-0.053,-0.410
4940,-0.054,-0.420
4941,-0.056,-0.420
4942,-0.059,-0.420
4943,-0.061,-0.420
4944,-0.063,-0.431
4945,-0.065,-0.431
4946,-0.067,-0.431
4947,-0.068,-0.431
4948,-0.069,-0.442
4949,-0.069,-0.442
4950,-0.070,-0.442
4951,-0.070,-0.442
4952,-0.070,-0.450
4953,-0.070,-0.450
4954,-0.070,-0.450
4955,-0.070,-0.450
4956,-0.070,-0.460
4957,-0.071,-0.460
4958,-0.072,-0.460
4959,-0.073,-0.460
4960,-0.074,-0.470
4961,-0.075,-0.470
4962,-0.076,-0.470
4963,-0.077,-0.470
4964,-0.079,-0.479
4965,-0.081,-0.479
4966,-0.082,-0.479
4967,-0.082,-0.479
4968,-0.083,-0.488
4969,-0.084,-0.488
4970,-0.086,-0.488
4971,-0.087,-0.488
4972,-0.089,-0.496
4973,-0.091,-0.496
4974,-0.093,-0.496
4975,-0.096,-0.496
4976,-0.097,-0.497
4977,-0.097,-0.497
4978,-0.098,-0.497
4979,-0.098,-0.497
4980,-0.099,-0.505
4981,-0.100,-0.505
4982,-0.102,-0.505
4983,-0.104,-0.505
4984,-0.107,-0.510
4985,-0.110,-0.510
4986,-0.113,-0.510
4987,-0.115,-0.510
4988,-0.117,-0.515
4989,-0.118,-0.515
4990,-0.119,-0.515
4991,-0.121,-0.515
4992,-0.121,-0.520
4993,-0.121,-0.520
4994,-0.119,-0.520
4995,-0.118,-0.520
4996,-0.117,-0.522
4997,-0.115,-0.522
4998,-0.113,-0.522
4999,-0.111,-0.522
5000,-0.109,-0.519
5001,-0.107,-0.519
5002,-0.104,-0.519
5003,-0.102,-0.519
5004,-0.098,-0.514
5005,-0.094,-0.514
5006,-0.089,-0.514
5007,-0.085,-0.514
5008,-0.080,-0.503
5009,-0.075,-0.503
5010,-0.070,-0.503
5011,-0.064,-0.503
5012,-0.059,-0.486
5013,-0.054,-0.486
5014,-0.049,-0.486
5015,-0.043,-0.486
5016,-0.038,-0.460
5017,-0.033,-0.460
5018,-0.028,-0.460
5019,-0.023,-0.460
5020,-0.018,-0.424
5021,-0.012,-0.424
5022,-0.007,-0.424
5023,-0.003,-0.424
5024,0.002,-0.384
5025,0.006,-0.384
5026,0.008,-0.384
5027,0.010,-0.384
5028,0.011,-0.333
5029,0.012,-0.333
5030,0.013,-0.333
5031,0.014,-0.333
5032,0.015,-0.273
5033,0.015,-0.273
5034,0.015,-0.273
5035,0.014,-0.273
5036,0.014,-0.207
5037,0.014,-0.207
5038,0.014,-0.207
5039,0.014,-0.207
5040,0.014,-0.139
5041,0.014,-0.139
5042,0.013,-0.139
5043,0.013,-0.139
5044,0.012,-0.069
5045,0.011,-0.069
5046,0.011,-0.069
5047,0.010,-0.069
5048,0.011,0.003
5049,0.011,0.003
5050,0.011,0.003
5051,0.011,0.003
5052,0.011,0.072
5053,0.011,0.072
5054,0.011,0.072
5055,0.011,0.072
5056,0.011,0.140
5057,0.011,0.140
5058,0.011,0.140
5059,0.010,0.140
5060,0.009,0.203
5061,0.008,0.203
5062,0.007,0.203
5063,0.006,0.203
5064,0.006,0.262
5065,0.007,0.262
5066,0.006,0.262
5067,0.006,0.262
5068,0.005,0.315
5069,0.004,0.315
5070,0.004,0.315
5071,0.003,0.315
5072,0.003,0.363
5073,0.003,0.363
5074,0.003,0.363
5075,0.002,0.363
5076,0.001,0.406
5077,0.000,0.406
5078,-0.001,0.406
5079,-0.002,0.406
5080,-0.003,0.442
5081,-0.003,0.442
5082,-0.004,0.442
5083,-0.005,0.442
5084,-0.006,0.471
5085,-0.008,0.471
5086,-0.010,0.471
5087,-0.012,0.471
5088,-0.013,0.494
5089,-0.015,0.494
5090,-0.015,0.494
5091,-0.014,0.494
5092,-0.013,0.510
5093,-0.012,0.510
5094,-0.011,0.510
5095,-0.010,0.510
5096,-0.009,0.518
5097,-0.007,0.518
5098,-0.005,0.518
5099,-0.003,0.518
5100,-0.002,0.517
5101,-0.001,0.517
5102,0.000,0.517
5103,0.001,0.517
5104,0.003,0.512
5105,0.004,0.512
5106,0.005,0.512
5107,0.007,0.512
5108,0.009,0.498
5109,0.012,0.498
5110,0.013,0.498
5111,0.014,0.498
5112,0.015,0.480
5113,0.015,0.480
5114,0.015,0.480
5115,0.014,0.480
5116,0.015,0.456
5117,0.015,0.456
5118,0.017,0.456
5119,0.018,0.456
5120,0.021,0.427
5121,0.024,0.427
5122,0.026,0.427
5123,0.029,0.427
5124,0.031,0.397
5125,0.033,0.397
5126,0.033,0.397
5127,0.033,0.397
5128,0.032,0.363
5129,0.030,0.363
5130,0.027,0.363
5131,0.024,0.363
5132,0.019,0.327
5133,0.015,0.327
5134,0.010,0.327
5135,0.005,0.327
5136,0.000,0.291
5137,-0.005,0.291
5138,-0.009,0.291
5139,-0.014,0.291
5140,-0.016,0.256
5141,-0.018,0.256
5142,-0.018,0.256
5143,-0.019,0.256
5144,-0.019,0.220
5145,-0.019,0.220
5146,-0.019,0.220
5147,-0.019,0.220
5148,-0.019,0.185
5149,-0.019,0.185
5150,-0.019,0.185
5151,-0.020,0.185
5152,-0.021,0.147
5153,-0.022,0.147
5154,-0.022,0.147
5155,-0.022,0.147
5156,-0.021,0.115
5157,-0.021,0.115
5158,-0.020,0.115
5159,-0.019,0.115
5160,-0.018,0.079
5161,-0.018,0.079
5162,-0.019,0.079
5163,-0.020,0.079
5164,-0.021,0.045
5165,-0.021,0.045
5166,-0.020,0.045
5167,-0.019,0.045
5168,-0.018,0.012
5169,-0.018,0.012
5170,-0.018,0.012
5171,-0.019,0.012
5172,-0.019,-0.021
5173,-0.019,-0.021
5174,-0.019,-0.021
5175,-0.019,-0.021
5176,-0.019,-0.052
5177,-0.019,-0.052
5178,-0.019,-0.052
5179,-0.019,-0.052
5180,-0.019,-0.083
5181,-0.019,-0.083
5182,-0.019,-0.083
5183,-0.019,-0.083
5184,-0.019,-0.112
5185,-0.019,-0.112
5186,-0.019,-0.112
5187,-0.019,-0.112
5188,-0.018,-0.139
5189,-0.018,-0.139
5190,-0.017,-0.139
5191,-0.016,-0.139
5192,-0.015,-0.168
5193,-0.013,-0.168
5194,-0.009,-0.168
5195,-0.004,-0.168
5196,0.005,-0.191
5197,0.014,-0.191
5198,0.033,-0.191
5199,0.052,-0.191
5200,0.085,-0.216
5201,0.117,-0.216
5202,0.163,-0.216
5203,0.208,-0.216
5204,0.262,-0.238
5205,0.316,-0.238
5206,0.371,-0.238
5207,0.427,-0.238
5208,0.475,-0.258
5209,0.523,-0.258
5210,0.557,-0.258
5211,0.592,-0.258
5212,0.607,-0.277
5213,0.622,-0.277
5214,0.614,-0.277
5215,0.606,-0.277
5216,0.577,-0.295
5217,0.547,-0.295
5218,0.502,-0.295
5219,0.457,-0.295
5220,0.405,-0.311
5221,0.352,-0.311
5222,0.301,-0.311
5223,0.250,-0.311
5224,0.209,-0.326
5225,0.169,-0.326
5226,0.140,-0.326
5227,0.111,-0.326
5228,0.091,-0.338
5229,0.072,-0.338
5230,0.059,-0.338
5231,0.045,-0.338
5232,0.035,-0.348
5233,0.026,-0.348
5234,0.017,-0.348
5235,0.008,-0.348
5236,-0.002,-0.359
5237,-0.011,-0.359
5238,-0.021,-0.359
5239,-0.030,-0.359
5240,-0.038,-0.371
5241,-0.047,-0.371
5242,-0.053,-0.371
5243,-0.059,-0.371
5244,-0.064,-0.381
5245,-0.068,-0.381
5246,-0.071,-0.381
5247,-0.075,-0.381
5248,-0.076,-0.390
5249,-0.078,-0.390
5250,-0.080,-0.390
5251,-0.082,-0.390
5252,-0.083,-0.402
5253,-0.084,-0.402
5254,-0.085,-0.402
5255,-0.086,-0.402
5256,-0.087,-0.411
5257,-0.088,-0.411
5258,-0.090,-0.411
5259,-0.093,-0.411
5260,-0.094,-0.419
5261,-0.095,-0.419
5262,-0.096,-0.419
5263,-0.096,-0.419
5264,-0.096,-0.429
5265,-0.096,-0.429
5266,-0.096,-0.429
5267,-0.095,-0.429
5268,-0.095,-0.439
5269,-0.095,-0.439
5270,-0.096,-0.439
5271,-0.097,-0.439
5272,-0.098,-0.448
5273,-0.099,-0.448
5274,-0.100,-0.448
5275,-0.100,-0.448
5276,-0.101,-0.456
5277,-0.102,-0.456
5278,-0.103,-0.456
5279,-0.104,-0.456
5280,-0.105,-0.463
5281,-0.106,-0.463
5282,-0.106,-0.463
5283,-0.106,-0.463
5284,-0.107,-0.471
5285,-0.108,-0.471
5286,-0.111,-0.471
5287,-0.114,-0.471
5288,-0.116,-0.477
5289,-0.118,-0.477
5290,-0.119,-0.477
5291,-0.121,-0.477
5292,-0.122,-0.484
5293,-0.123,-0.484
5294,-0.123,-0.484
5295,-0.124,-0.484
5296,-0.125,-0.490
5297,-0.126,-0.490
5298,-0.128,-0.490
5299,-0.129,-0.490
5300,-0.131,-0.495
5301,-0.132,-0.495
5302,-0.132,-0.495
5303,-0.132,-0.495
5304,-0.132,-0.498
5305,-0.132,-0.498
5306,-0.132,-0.498
5307,-0.132,-0.498
5308,-0.132,-0.499
5309,-0.132,-0.499
5310,-0.132,-0.499
5311,-0.131,-0.499
5312,-0.130,-0.498
5313,-0.128,-0.498
5314,-0.126,-0.498
5315,-0.123,-0.498
5316,-0.119,-0.493
5317,-0.116,-0.493
5318,-0.112,-0.493
5319,-0.108,-0.493
5320,-0.103,-0.483
5321,-0.098,-0.483
5322,-0.092,-0.483
5323,-0.087,-0.483
5324,-0.081,-0.468
5325,-0.074,-0.468
5326,-0.068,-0.468
5327,-0.061,-0.468
5328,-0.055,-0.445
5329,-0.049,-0.445
5330,-0.044,-0.445
5331,-0.039,-0.445
5332,-0.035,-0.412
5333,-0.030,-0.412
5334,-0.026,-0.412
5335,-0.022,-0.412
5336,-0.019,-0.372
5337,-0.016,-0.372
5338,-0.013,-0.372
5339,-0.011,-0.372
5340,-0.009,-0.325
5341,-0.006,-0.325
5342,-0.004,-0.325
5343,-0.003,-0.325
5344,-0.002,-0.268
5345,-0.001,-0.268
5346,-0.001,-0.268
5347,0.000,-0.268
5348,0.000,-0.207
5349,0.000,-0.207
5350,-0.001,-0.207
5351,-0.001,-0.207
5352,-0.002,-0.141
5353,-0.003,-0.141
5354,-0.004,-0.141
5355,-0.005,-0.141
5356,-0.005,-0.071
5357,-0.006,-0.071
5358,-0.006,-0.071
5359,-0.006,-0.071
5360,-0.006,-0.002
5361,-0.007,-0.002
5362,-0.008,-0.002
5363,-0.009,-0.002
5364,-0.010,0.065
5365,-0.011,0.065
5366,-0.011,0.065
5367,-0.012,0.065
5368,-0.013,0.131
5369,-0.015,0.131
5370,-0.015,0.131
5371,-0.015,0.131
5372,-0.015,0.193
5373,-0.015,0.193
5374,-0.015,0.193
5375,-0.015,0.193
5376,-0.015,0.251
5377,-0.015,0.251
5378,-0.015,0.251
5379,-0.016,0.251
5380,-0.018,0.303
5381,-0.019,0.303
5382,-0.021,0.303
5383,-0.022,0.303
5384,-0.023,0.350
5385,-0.024,0.350
5386,-0.025,0.350
5387,-0.026,0.350
5388,-0.026,0.394
5389,-0.027,0.394
5390,-0.028,0.394
5391,-0.029,0.394
5392,-0.029,0.429
5393,-0.030,0.429
5394,-0.030,0.429
5395,-0.030,0.429
5396,-0.029,0.459
5397,-0.029,0.459
5398,-0.028,0.459
5399,-0.027,0.459
5400,-0.026,0.482
5401,-0.025,0.482
5402,-0.025,0.482
5403,-0.026,0.482
5404,-0.026,0.498
5405,-0.026,0.498
5406,-0.026,0.498
5407,-0.027,0.498
5408,-0.028,0.509
5409,-0.029,0.509
5410,-0.029,0.509
5411,-0.030,0.509
5412,-0.029,0.510
5413,-0.029,0.510
5414,-0.028,0.510
5415,-0.026,0.510
5416,-0.024,0.504
5417,-0.021,0.504
5418,-0.019,0.504
5419,-0.018,0.504
5420,-0.015,0.494
5421,-0.013,0.494
5422,-0.009,0.494
5423,-0.006,0.494
5424,-0.003,0.475
5425,0.000,0.475
5426,0.002,0.475
5427,0.004,0.475
5428,0.006,0.453
5429,0.008,0.453
5430,0.010,0.453
5431,0.012,0.453
5432,0.013,0.427
5433,0.015,0.427
5434,0.017,0.427
5435,0.019,0.427
5436,0.021,0.395
5437,0.023,0.395
5438,0.024,0.395
5439,0.025,0.395
5440,0.025,0.363
5441,0.026,0.363
5442,0.025,0.363
5443,0.024,0.363
5444,0.022,0.328
5445,0.021,0.328
5446,0.018,0.328
5447,0.016,0.328
5448,0.011,0.293
5449,0.006,0.293
5450,0.002,0.293
5451,-0.003,0.293
5452,-0.007,0.257
5453,-0.012,0.257
5454,-0.016,0.257
5455,-0.020,0.257
5456,-0.021,0.221
5457,-0.023,0.221
5458,-0.022,0.221
5459,-0.022,0.221
5460,-0.022,0.186
5461,-0.022,0.186
5462,-0.022,0.186
5463,-0.023,0.186
5464,-0.024,0.152
5465,-0.024,0.152
5466,-0.025,0.152
5467,-0.025,0.152
5468,-0.025,0.117
5469,-0.025,0.117
5470,-0.025,0.117
5471,-0.026,0.117
5472,-0.026,0.084
5473,-0.026,0.084
5474,-0.026,0.084
5475,-0.026,0.084
5476,-0.026,0.051
5477,-0.026,0.051
5478,-0.026,0.051
5479,-0.027,0.051
5480,-0.028,0.017
5481,-0.029,0.017
5482,-0.029,0.017
5483,-0.030,0.017
5484,-0.030,-0.014
5485,-0.030,-0.014
5486,-0.029,-0.014
5487,-0.029,-0.014
5488,-0.028,-0.045
5489,-0.027,-0.045
5490,-0.026,-0.045
5491,-0.025,-0.045
5492,-0.025,-0.077
5493,-0.026,-0.077
5494,-0.026,-0.077
5495,-0.026,-0.077
5496,-0.026,-0.107
5497,-0.026,-0.107
5498,-0.026,-0.107
5499,-0.026,-0.107
5500,-0.026,-0.135
5501,-0.026,-0.135
5502,-0.026,-0.135
5503,-0.026,-0.135
5504,-0.026,-0.161
5505,-0.026,-0.161
5506,-0.026,-0.161
5507,-0.026,-0.161
5508,-0.025,-0.188
5509,-0.024,-0.188
5510,-0.020,-0.188
5511,-0.016,-0.188
5512,-0.004,-0.211
5513,0.007,-0.211
5514,0.030,-0.211
5515,0.053,-0.211
5516,0.089,-0.235
5517,0.126,-0.235
5518,0.175,-0.235
5519,0.224,-0.235
5520,0.281,-0.258
5521,0.339,-0.258
5522,0.396,-0.258
5523,0.452,-0.258
5524,0.498,-0.278
5525,0.544,-0.278
5526,0.575,-0.278
5527,0.605,-0.278
5528,0.617,-0.296
5529,0.628,-0.296
5530,0.616,-0.296
5531,0.604,-0.296
5532,0.571,-0.312
5533,0.537,-0.312
5534,0.489,-0.312
5535,0.441,-0.312
5536,0.388,-0.329
5537,0.335,-0.329
5538,0.286,-0.329
5539,0.238,-0.329
5540,0.201,-0.344
5541,0.163,-0.344
5542,0.137,-0.344
5543,0.110,-0.344
5544,0.091,-0.358
5545,0.073,-0.358
5546,0.060,-0.358
5547,0.048,-0.358
5548,0.038,-0.370
5549,0.028,-0.370
5550,0.019,-0.370
5551,0.010,-0.370
5552,0.001,-0.381
5553,-0.009,-0.381
5554,-0.020,-0.381
5555,-0.031,-0.381
5556,-0.042,-0.394
5557,-0.052,-0.394
5558,-0.060,-0.394
5559,-0.069,-0.394
5560,-0.073,-0.403
5561,-0.078,-0.403
5562,-0.080,-0.403
5563,-0.082,-0.403
5564,-0.083,-0.413
5565,-0.084,-0.413
5566,-0.086,-0.413
5567,-0.087,-0.413
5568,-0.089,-0.423
5569,-0.091,-0.423
5570,-0.095,-0.423
5571,-0.098,-0.423
5572,-0.101,-0.433
5573,-0.103,-0.433
5574,-0.105,-0.433
5575,-0.107,-0.433
5576,-0.108,-0.442
5577,-0.109,-0.442
5578,-0.108,-0.442
5579,-0.108,-0.442
5580,-0.107,-0.453
5581,-0.106,-0.453
5582,-0.106,-0.453
5583,-0.106,-0.453
5584,-0.106,-0.461
5585,-0.106,-0.461
5586,-0.106,-0.461
5587,-0.106,-0.461
5588,-0.106,-0.471
5589,-0.107,-0.471
5590,-0.108,-0.471
5591,-0.109,-0.471
5592,-0.111,-0.479
5593,-0.112,-0.479
5594,-0.113,-0.479
5595,-0.114,-0.479
5596,-0.116,-0.486
5597,-0.118,-0.486
5598,-0.120,-0.486
5599,-0.122,-0.486
5600,-0.124,-0.495
5601,-0.126,-0.495
5602,-0.128,-0.495
5603,-0.129,-0.495
5604,-0.131,-0.502
5605,-0.132,-0.502
5606,-0.133,-0.502
5607,-0.134,-0.502
5608,-0.136,-0.508
5609,-0.138,-0.508
5610,-0.139,-0.508
5611,-0.140,-0.508
5612,-0.141,-0.515
5613,-0.141,-0.515
5614,-0.141,-0.515
5615,-0.142,-0.515
5616,-0.143,-0.519
5617,-0.144,-0.519
5618,-0.145,-0.519
5619,-0.146,-0.519
5620,-0.147,-0.523
5621,-0.148,-0.523
5622,-0.149,-0.523
5623,-0.150,-0.523
5624,-0.149,-0.525
5625,-0.149,-0.525
5626,-0.147,-0.525
5627,-0.146,-0.525
5628,-0.144,-0.523
5629,-0.142,-0.523
5630,-0.140,-0.523
5631,-0.137,-0.523
5632,-0.133,-0.518
5633,-0.129,-0.518
5634,-0.123,-0.518
5635,-0.117,-0.518
5636,-0.112,-0.509
5637,-0.107,-0.509
5638,-0.103,-0.509
5639,-0.100,-0.509
5640,-0.095,-0.491
5641,-0.090,-0.491
5642,-0.084,-0.491
5643,-0.077,-0.491
5644,-0.070,-0.467
5645,-0.064,-0.467
5646,-0.058,-0.467
5647,-0.051,-0.467
5648,-0.045,-0.435
5649,-0.039,-0.435
5650,-0.035,-0.435
5651,-0.030,-0.435
5652,-0.025,-0.393
5653,-0.021,-0.393
5654,-0.018,-0.393
5655,-0.014,-0.393
5656,-0.012,-0.342
5657,-0.010,-0.342
5658,-0.009,-0.342
5659,-0.007,-0.342
5660,-0.005,-0.285
5661,-0.004,-0.285
5662,-0.004,-0.285
5663,-0.003,-0.285
5664,-0.002,-0.220
5665,-0.001,-0.220
5666,-0.001,-0.220
5667,0.000,-0.220
5668,-0.001,-0.152
5669,-0.001,-0.152
5670,-0.002,-0.152
5671,-0.003,-0.152
5672,-0.004,-0.082
5673,-0.005,-0.082
5674,-0.006,-0.082
5675,-0.007,-0.082
5676,-0.007,-0.011
5677,-0.008,-0.011
5678,-0.008,-0.011
5679,-0.008,-0.011
5680,-0.007,0.059
5681,-0.007,0.059
5682,-0.007,0.059
5683,-0.007,0.059
5684,-0.007,0.126
5685,-0.008,0.126
5686,-0.009,0.126
5687,-0.009,0.126
5688,-0.009,0.190
5689,-0.009,0.190
5690,-0.009,0.190
5691,-0.009,0.190
5692,-0.009,0.247
5693,-0.010,0.247
5694,-0.011,0.247
5695,-0.012,0.247
5696,-0.014,0.302
5697,-0.016,0.302
5698,-0.017,0.302
5699,-0.018,0.302
5700,-0.018,0.350
5701,-0.019,0.350
5702,-0.019,0.350
5703,-0.019,0.350
5704,-0.019,0.394
5705,-0.019,0.394
5706,-0.018,0.394
5707,-0.018,0.394
5708,-0.018,0.430
5709,-0.017,0.430
5710,-0.018,0.430
5711,-0.019,0.430
5712,-0.021,0.461
5713,-0.022,0.461
5714,-0.023,0.461
5715,-0.024,0.461
5716,-0.025,0.484
5717,-0.026,0.484
5718,-0.025,0.484
5719,-0.025,0.484
5720,-0.024,0.501
5721,-0.023,0.501
5722,-0.022,0.501
5723,-0.022,0.501
5724,-0.021,0.509
5725,-0.021,0.509
5726,-0.019,0.509
5727,-0.018,0.509
5728,-0.016,0.511
5729,-0.014,0.511
5730,-0.011,0.511
5731,-0.009,0.511
5732,-0.006,0.504
5733,-0.004,0.504
5734,-0.002,0.504
5735,0.001,0.504
5736,0.003,0.493
5737,0.005,0.493
5738,0.006,0.493
5739,0.008,0.493
5740,0.009,0.474
5741,0.011,0.474
5742,0.013,0.474
5743,0.014,0.474
5744,0.015,0.451
5745,0.016,0.451
5746,0.017,0.451
5747,0.018,0.451
5748,0.021,0.422
5749,0.024,0.422
5750,0.027,0.422
5751,0.030,0.422
5752,0.034,0.392
5753,0.038,0.392
5754,0.041,0.392
5755,0.043,0.392
5756,0.043,0.356
5757,0.043,0.356
5758,0.042,0.356
5759,0.040,0.356
5760,0.036,0.323
5761,0.033,0.323
5762,0.029,0.323
5763,0.024,0.323
5764,0.018,0.287
5765,0.012,0.287
5766,0.007,0.287
5767,0.002,0.287
5768,-0.002,0.252
5769,-0.006,0.252
5770,-0.009,0.252
5771,-0.013,0.252
5772,-0.015,0.214
5773,-0.018,0.214
5774,-0.018,0.214
5775,-0.019,0.214
5776,-0.019,0.179
5777,-0.020,0.179
5778,-0.021,0.179
5779,-0.021,0.179
5780,-0.021,0.141
5781,-0.020,0.141
5782,-0.020,0.141
5783,-0.020,0.141
5784,-0.020,0.108
5785,-0.020,0.108
5786,-0.020,0.108
5787,-0.020,0.108
5788,-0.019,0.073
5789,-0.019,0.073
5790,-0.018,0.073
5791,-0.018,0.073
5792,-0.018,0.039
5793,-0.019,0.039
5794,-0.019,0.039
5795,-0.019,0.039
5796,-0.019,0.006
5797,-0.019,0.006
5798,-0.018,0.006
5799,-0.018,0.006
5800,-0.017,-0.025
5801,-0.015,-0.025
5802,-0.013,-0.025
5803,-0.011,-0.025
5804,-0.011,-0.059
5805,-0.011,-0.059
5806,-0.011,-0.059
5807,-0.010,-0.059
5808,-0.010,-0.089
5809,-0.010,-0.089
5810,-0.011,-0.089
5811,-0.013,-0.089
5812,-0.015,-0.118
5813,-0.017,-0.118
5814,-0.018,-0.118
5815,-0.018,-0.118
5816,-0.018,-0.147
5817,-0.019,-0.147
5818,-0.019,-0.147
5819,-0.019,-0.147
5820,-0.018,-0.172
5821,-0.018,-0.172
5822,-0.017,-0.172
5823,-0.016,-0.172
5824,-0.014,-0.200
5825,-0.012,-0.200
5826,-0.005,-0.200
5827,0.002,-0.200
5828,0.018,-0.222
5829,0.034,-0.222
5830,0.064,-0.222
5831,0.093,-0.222
5832,0.138,-0.245
5833,0.183,-0.245
5834,0.239,-0.245
5835,0.296,-0.245
5836,0.357,-0.267
5837,0.419,-0.267
5838,0.474,-0.267
5839,0.530,-0.267
5840,0.571,-0.287
5841,0.612,-0.287
5842,0.634,-0.287
5843,0.656,-0.287
5844,0.655,-0.304
5845,0.655,-0.304
5846,0.632,-0.304
5847,0.609,-0.304
5848,0.570,-0.320
5849,0.530,-0.320
5850,0.480,-0.320
5851,0.431,-0.320
5852,0.381,-0.335
5853,0.331,-0.335
5854,0.287,-0.335
5855,0.243,-0.335
5856,0.209,-0.349
5857,0.176,-0.349
5858,0.152,-0.349
5859,0.129,-0.349
5860,0.113,-0.362
5861,0.097,-0.362
5862,0.085,-0.362
5863,0.073,-0.362
5864,0.064,-0.374
5865,0.054,-0.374
5866,0.044,-0.374
5867,0.035,-0.374
5868,0.025,-0.386
5869,0.016,-0.386
5870,0.005,-0.386
5871,-0.005,-0.386
5872,-0.016,-0.395
5873,-0.027,-0.395
5874,-0.037,-0.395
5875,-0.048,-0.395
5876,-0.057,-0.406
5877,-0.065,-0.406
5878,-0.070,-0.406
5879,-0.076,-0.406
5880,-0.079,-0.415
5881,-0.081,-0.415
5882,-0.082,-0.415
5883,-0.082,-0.415
5884,-0.084,-0.424
5885,-0.085,-0.424
5886,-0.086,-0.424
5887,-0.088,-0.424
5888,-0.088,-0.433
5889,-0.089,-0.433
5890,-0.089,-0.433
5891,-0.089,-0.433
5892,-0.090,-0.445
5893,-0.091,-0.445
5894,-0.091,-0.445
5895,-0.092,-0.445
5896,-0.092,-0.453
5897,-0.092,-0.453
5898,-0.092,-0.453
5899,-0.093,-0.453
5900,-0.094,-0.461
5901,-0.095,-0.461
5902,-0.096,-0.461
5903,-0.096,-0.461
5904,-0.096,-0.471
5905,-0.096,-0.471
5906,-0.096,-0.471
5907,-0.096,-0.471
5908,-0.097,-0.479
5909,-0.098,-0.479
5910,-0.099,-0.479
5911,-0.100,-0.479
5912,-0.101,-0.486
5913,-0.102,-0.486
5914,-0.103,-0.486
5915,-0.104,-0.486
5916,-0.105,-0.493
5917,-0.107,-0.493
5918,-0.108,-0.493
5919,-0.110,-0.493
5920,-0.113,-0.502
5921,-0.115,-0.502
5922,-0.117,-0.502
5923,-0.118,-0.502
5924,-0.120,-0.508
5925,-0.122,-0.508
5926,-0.124,-0.508
5927,-0.126,-0.508
5928,-0.127,-0.512
5929,-0.128,-0.512
5930,-0.129,-0.512
5931,-0.130,-0.512
5932,-0.131,-0.517
5933,-0.131,-0.517
5934,-0.132,-0.517
5935,-0.133,-0.517
5936,-0.134,-0.520
5937,-0.134,-0.520
5938,-0.134,-0.520
5939,-0.133,-0.520
5940,-0.133,-0.523
5941,-0.132,-0.523
5942,-0.132,-0.523
5943,-0.131,-0.523
5944,-0.129,-0.520
5945,-0.127,-0.520
5946,-0.124,-0.520
5947,-0.121,-0.520
5948,-0.117,-0.517
5949,-0.114,-0.517
5950,-0.109,-0.517
5951,-0.104,-0.517
5952,-0.098,-0.506
5953,-0.092,-0.506
5954,-0.086,-0.506
5955,-0.079,-0.506
5956,-0.073,-0.490
5957,-0.067,-0.490
5958,-0.062,-0.490
5959,-0.057,-0.490
5960,-0.052,-0.468
5961,-0.048,-0.468
5962,-0.043,-0.468
5963,-0.037,-0.468
5964,-0.033,-0.436
5965,-0.029,-0.436
5966,-0.025,-0.436
5967,-0.021,-0.436
5968,-0.017,-0.398
5969,-0.013,-0.398
5970,-0.009,-0.398
5971,-0.006,-0.398
5972,-0.003,-0.346
5973,0.001,-0.346
5974,0.004,-0.346
5975,0.008,-0.346
5976,0.009,-0.291
5977,0.011,-0.291
5978,0.011,-0.291
5979,0.011,-0.291
5980,0.011,-0.229
5981,0.011,-0.229
5982,0.011,-0.229
5983,0.010,-0.229
5984,0.009,-0.162
5985,0.009,-0.162
5986,0.009,-0.162
5987,0.010,-0.162
5988,0.011,-0.091
5989,0.011,-0.091
5990,0.011,-0.091
5991,0.011,-0.091
5992,0.011,-0.022
5993,0.011,-0.022
5994,0.011,-0.022
5995,0.011,-0.022
5996,0.011,0.047
5997,0.011,0.047
5998,0.011,0.047
5999,0.010,0.047
6000,0.009,0.115
6001,0.007,0.115
6002,0.005,0.115
6003,0.003,0.115
6004,0.003,0.178
6005,0.002,0.178
6006,0.001,0.178
6007,0.000,0.178
6008,-0.001,0.237
6009,-0.002,0.237
6010,-0.003,0.237
6011,-0.003,0.237
6012,-0.004,0.291
6013,-0.005,0.291
6014,-0.006,0.291
6015,-0.008,0.291
6016,-0.009,0.340
6017,-0.011,0.340
6018,-0.011,0.340
6019,-0.011,0.340
6020,-0.011,0.381
6021,-0.011,0.381
6022,-0.011,0.381
6023,-0.011,0.381
6024,-0.011,0.417
6025,-0.011,0.417
6026,-0.011,0.417
6027,-0.011,0.417
6028,-0.011,0.447
6029,-0.011,0.447
6030,-0.011,0.447
6031,-0.010,0.447
6032,-0.009,0.469
6033,-0.009,0.469
6034,-0.009,0.469
6035,-0.010,0.469
6036,-0.011,0.483
6037,-0.011,0.483
6038,-0.011,0.483
6039,-0.010,0.483
6040,-0.009,0.491
6041,-0.008,0.491
6042,-0.006,0.491
6043,-0.005,0.491
6044,-0.003,0.490
6045,0.000,0.490
6046,0.002,0.490
6047,0.003,0.490
6048,0.004,0.482
6049,0.005,0.482
6050,0.006,0.482
6051,0.008,0.482
6052,0.009,0.468
6053,0.011,0.468
6054,0.013,0.468
6055,0.014,0.468
6056,0.015,0.448
6057,0.015,0.448
6058,0.015,0.448
6059,0.015,0.448
6060,0.017,0.423
6061,0.018,0.423
6062,0.021,0.423
6063,0.024,0.423
6064,0.027,0.395
6065,0.030,0.395
6066,0.035,0.395
6067,0.039,0.395
6068,0.043,0.366
6069,0.047,0.366
6070,0.050,0.366
6071,0.052,0.366
6072,0.051,0.333
6073,0.051,0.333
6074,0.048,0.333
6075,0.045,0.333
6076,0.040,0.296
6077,0.035,0.296
6078,0.029,0.296
6079,0.023,0.296
6080,0.018,0.264
6081,0.013,0.264
6082,0.009,0.264
6083,0.005,0.264
6084,0.002,0.229
6085,-0.001,0.229
6086,-0.003,0.229
6087,-0.005,0.229
6088,-0.006,0.194
6089,-0.007,0.194
6090,-0.007,0.194
6091,-0.008,0.194
6092,-0.009,0.160
6093,-0.009,0.160
6094,-0.009,0.160
6095,-0.009,0.160
6096,-0.009,0.126
6097,-0.009,0.126
6098,-0.009,0.126
6099,-0.010,0.126
6100,-0.011,0.091
6101,-0.011,0.091
6102,-0.011,0.091
6103,-0.012,0.091
6104,-0.013,0.059
6105,-0.014,0.059
6106,-0.013,0.059
6107,-0.012,0.059
6108,-0.011,0.026
6109,-0.011,0.026
6110,-0.011,0.026
6111,-0.011,0.026
6112,-0.011,-0.007
6113,-0.011,-0.007
6114,-0.011,-0.007
6115,-0.011,-0.007
6116,-0.011,-0.037
6117,-0.011,-0.037
6118,-0.011,-0.037
6119,-0.012,-0.037
6120,-0.013,-0.069
6121,-0.015,-0.069
6122,-0.015,-0.069
6123,-0.015,-0.069
6124,-0.015,-0.099
6125,-0.015,-0.099
6126,-0.015,-0.099
6127,-0.015,-0.099
6128,-0.015,-0.127
6129,-0.014,-0.127
6130,-0.013,-0.127
6131,-0.012,-0.127
6132,-0.011,-0.152
6133,-0.010,-0.152
6134,-0.009,-0.152
6135,-0.008,-0.152
6136,-0.008,-0.179
6137,-0.008,-0.179
6138,-0.009,-0.179
6139,-0.009,-0.179
6140,-0.006,-0.203
6141,-0.004,-0.203
6142,0.005,-0.203
6143,0.014,-0.203
6144,0.034,-0.226
6145,0.054,-0.226
6146,0.090,-0.226
6147,0.126,-0.226
6148,0.177,-0.247
6149,0.228,-0.247
6150,0.288,-0.247
6151,0.348,-0.247
6152,0.408,-0.267
6153,0.469,-0.267
6154,0.520,-0.267
6155,0.572,-0.267
6156,0.608,-0.284
6157,0.644,-0.284
6158,0.661,-0.284
6159,0.679,-0.284
6160,0.674,-0.301
6161,0.669,-0.301
6162,0.641,-0.301
6163,0.614,-0.301
6164,0.569,-0.315
6165,0.524,-0.315
6166,0.472,-0.315
6167,0.420,-0.315
6168,0.370,-0.331
6169,0.320,-0.331
6170,0.279,-0.331
6171,0.238,-0.331
6172,0.209,-0.342
6173,0.180,-0.342
6174,0.160,-0.342
6175,0.139,-0.342
6176,0.124,-0.352
6177,0.109,-0.352
6178,0.098,-0.352
6179,0.086,-0.352
6180,0.075,-0.364
6181,0.064,-0.364
6182,0.053,-0.364
6183,0.042,-0.364
6184,0.032,-0.376
6185,0.022,-0.376
6186,0.011,-0.376
6187,0.001,-0.376
6188,-0.009,-0.386
6189,-0.019,-0.386
6190,-0.029,-0.386
6191,-0.038,-0.386
6192,-0.046,-0.395
6193,-0.055,-0.395
6194,-0.061,-0.395
6195,-0.068,-0.395
6196,-0.072,-0.406
6197,-0.076,-0.406
6198,-0.079,-0.406
6199,-0.081,-0.406
6200,-0.083,-0.416
6201,-0.085,-0.416
6202,-0.087,-0.416
6203,-0.089,-0.416
6204,-0.090,-0.424
6205,-0.092,-0.424
6206,-0.092,-0.424
6207,-0.092,-0.424
6208,-0.092,-0.434
6209,-0.092,-0.434
6210,-0.092,-0.434
6211,-0.092,-0.434
6212,-0.092,-0.443
6213,-0.092,-0.443
6214,-0.092,-0.443
6215,-0.093,-0.443
6216,-0.094,-0.452
6217,-0.095,-0.452
6218,-0.096,-0.452
6219,-0.097,-0.452
6220,-0.099,-0.461
6221,-0.100,-0.461
6222,-0.101,-0.461
6223,-0.102,-0.461
6224,-0.103,-0.469
6225,-0.104,-0.469
6226,-0.105,-0.469
6227,-0.106,-0.469
6228,-0.106,-0.478
6229,-0.106,-0.478
6230,-0.106,-0.478
6231,-0.106,-0.478
6232,-0.106,-0.484
6233,-0.107,-0.484
6234,-0.108,-0.484
6235,-0.110,-0.484
6236,-0.113,-0.491
6237,-0.116,-0.491
6238,-0.119,-0.491
6239,-0.123,-0.491
6240,-0.126,-0.496
6241,-0.129,-0.496
6242,-0.131,-0.496
6243,-0.133,-0.496
6244,-0.134,-0.501
6245,-0.135,-0.501
6246,-0.136,-0.501
6247,-0.136,-0.501
6248,-0.137,-0.506
6249,-0.137,-0.506
6250,-0.138,-0.506
6251,-0.138,-0.506
6252,-0.139,-0.509
6253,-0.139,-0.509
6254,-0.139,-0.509
6255,-0.139,-0.509
6256,-0.139,-0.509
6257,-0.139,-0.509
6258,-0.138,-0.509
6259,-0.137,-0.509
6260,-0.134,-0.508
6261,-0.131,-0.508
6262,-0.127,-0.508
6263,-0.123,-0.508
6264,-0.119,-0.502
6265,-0.115,-0.502
6266,-0.110,-0.502
6267,-0.104,-0.502
6268,-0.099,-0.490
6269,-0.093,-0.490
6270,-0.087,-0.490
6271,-0.081,-0.490
6272,-0.074,-0.472
6273,-0.068,-0.472
6274,-0.062,-0.472
6275,-0.056,-0.472
6276,-0.051,-0.448
6277,-0.045,-0.448
6278,-0.040,-0.448
6279,-0.035,-0.448
6280,-0.031,-0.415
6281,-0.027,-0.415
6282,-0.024,-0.415
6283,-0.021,-0.415
6284,-0.018,-0.372
6285,-0.014,-0.372
6286,-0.010,-0.372
6287,-0.006,-0.372
6288,-0.003,-0.322
6289,0.000,-0.322
6290,0.002,-0.322
6291,0.004,-0.322
6292,0.006,-0.266
6293,0.008,-0.266
6294,0.009,-0.266
6295,0.010,-0.266
6296,0.009,-0.200
6297,0.009,-0.200
6298,0.009,-0.200
6299,0.009,-0.200
6300,0.009,-0.133
6301,0.008,-0.133
6302,0.006,-0.133
6303,0.005,-0.133
6304,0.004,-0.062
6305,0.004,-0.062
6306,0.004,-0.062
6307,0.003,-0.062
6308,0.003,0.009
6309,0.002,0.009
6310,0.001,0.009
6311,-0.001,0.009
6312,-0.003,0.077
6313,-0.005,0.077
6314,-0.006,0.077
6315,-0.008,0.077
6316,-0.010,0.146
6317,-0.012,0.146
6318,-0.013,0.146
6319,-0.015,0.146
6320,-0.015,0.208
6321,-0.015,0.208
6322,-0.015,0.208
6323,-0.016,0.208
6324,-0.017,0.267
6325,-0.018,0.267
6326,-0.019,0.267
6327,-0.020,0.267
6328,-0.021,0.321
6329,-0.022,0.321
6330,-0.022,0.321
6331,-0.022,0.321
6332,-0.022,0.369
6333,-0.022,0.369
6334,-0.022,0.369
6335,-0.022,0.369
6336,-0.021,0.410
6337,-0.021,0.410
6338,-0.021,0.410
6339,-0.020,0.410
6340,-0.021,0.447
6341,-0.021,0.447
6342,-0.021,0.447
6343,-0.022,0.447
6344,-0.022,0.474
6345,-0.022,0.474
6346,-0.022,0.474
6347,-0.022,0.474
6348,-0.022,0.495
6349,-0.022,0.495
6350,-0.022,0.495
6351,-0.023,0.495
6352,-0.024,0.508
6353,-0.025,0.508
6354,-0.026,0.508
6355,-0.027,0.508
6356,-0.026,0.514
6357,-0.026,0.514
6358,-0.025,0.514
6359,-0.024,0.514
6360,-0.021,0.513
6361,-0.019,0.513
6362,-0.016,0.513
6363,-0.013,0.513
6364,-0.011,0.503
6365,-0.010,0.503
6366,-0.008,0.503
6367,-0.006,0.503
6368,-0.003,0.488
6369,0.000,0.488
6370,0.002,0.488
6371,0.004,0.488
6372,0.006,0.468
6373,0.008,0.468
6374,0.010,0.468
6375,0.012,0.468
6376,0.013,0.442
6377,0.015,0.442
6378,0.018,0.442
6379,0.020,0.442
6380,0.023,0.413
6381,0.026,0.413
6382,0.028,0.413
6383,0.030,0.413
6384,0.031,0.382
6385,0.032,0.382
6386,0.032,0.382
6387,0.032,0.382
6388,0.030,0.347
6389,0.028,0.347
6390,0.025,0.347
6391,0.021,0.347
6392,0.017,0.313
6393,0.013,0.313
6394,0.009,0.313
6395,0.004,0.313
6396,-0.001,0.277
6397,-0.005,0.277
6398,-0.009,0.277
6399,-0.014,0.277
6400,-0.018,0.241
6401,-0.022,0.241
6402,-0.025,0.241
6403,-0.028,0.241
6404,-0.029,0.206
6405,-0.030,0.206
6406,-0.030,0.206
6407,-0.031,0.206
6408,-0.032,0.172
6409,-0.032,0.172
6410,-0.032,0.172
6411,-0.031,0.172
6412,-0.030,0.137
6413,-0.029,0.137
6414,-0.029,0.137
6415,-0.030,0.137
6416,-0.030,0.101
6417,-0.030,0.101
6418,-0.030,0.101
6419,-0.030,0.101
6420,-0.030,0.067
6421,-0.030,0.067
6422,-0.029,0.067
6423,-0.029,0.067
6424,-0.028,0.034
6425,-0.027,0.034
6426,-0.026,0.034
6427,-0.025,0.034
6428,-0.025,0.003
6429,-0.026,0.003
6430,-0.026,0.003
6431,-0.027,0.003
6432,-0.028,-0.030
6433,-0.029,-0.030
6434,-0.029,-0.030
6435,-0.030,-0.030
6436,-0.029,-0.060
6437,-0.029,-0.060
6438,-0.028,-0.060
6439,-0.027,-0.060
6440,-0.026,-0.089
6441,-0.025,-0.089
6442,-0.025,-0.089
6443,-0.026,-0.089
6444,-0.026,-0.118
6445,-0.026,-0.118
6446,-0.026,-0.118
6447,-0.027,-0.118
6448,-0.028,-0.144
6449,-0.029,-0.144
6450,-0.029,-0.144
6451,-0.029,-0.144
6452,-0.028,-0.172
6453,-0.026,-0.172
6454,-0.023,-0.172
6455,-0.020,-0.172
6456,-0.014,-0.194
6457,-0.008,-0.194
6458,0.008,-0.194
6459,0.024,-0.194
6460,0.054,-0.217
6461,0.085,-0.217
6462,0.131,-0.217
6463,0.176,-0.217
6464,0.233,-0.238
6465,0.290,-0.238
6466,0.353,-0.238
6467,0.416,-0.238
6468,0.473,-0.259
6469,0.530,-0.259
6470,0.574,-0.259
6471,0.618,-0.259
6472,0.643,-0.276
6473,0.668,-0.276
6474,0.672,-0.276
6475,0.676,-0.276
6476,0.657,-0.294
6477,0.638,-0.294
6478,0.599,-0.294
6479,0.559,-0.294
6480,0.508,-0.309
6481,0.457,-0.309
6482,0.404,-0.309
6483,0.350,-0.309
6484,0.302,-0.323
6485,0.254,-0.323
6486,0.218,-0.323
6487,0.183,-0.323
6488,0.159,-0.335
6489,0.135,-0.335
6490,0.119,-0.335
6491,0.104,-0.335
6492,0.092,-0.348
6493,0.081,-0.348
6494,0.072,-0.348
6495,0.063,-0.348
6496,0.054,-0.359
6497,0.045,-0.359
6498,0.035,-0.359
6499,0.026,-0.359
6500,0.015,-0.370
6501,0.004,-0.370
6502,-0.007,-0.370
6503,-0.019,-0.370
6504,-0.030,-0.381
6505,-0.042,-0.381
6506,-0.052,-0.381
6507,-0.062,-0.381
6508,-0.070,-0.392
6509,-0.077,-0.392
6510,-0.082,-0.392
6511,-0.086,-0.392
6512,-0.088,-0.404
6513,-0.090,-0.404
6514,-0.091,-0.404
6515,-0.092,-0.404
6516,-0.092,-0.415
6517,-0.093,-0.415
6518,-0.095,-0.415
6519,-0.096,-0.415
6520,-0.098,-0.425
6521,-0.100,-0.425
6522,-0.101,-0.425
6523,-0.102,-0.425
6524,-0.102,-0.434
6525,-0.103,-0.434
6526,-0.102,-0.434
6527,-0.102,-0.434
6528,-0.102,-0.444
6529,-0.101,-0.444
6530,-0.101,-0.444
6531,-0.101,-0.444
6532,-0.101,-0.455
6533,-0.100,-0.455
6534,-0.100,-0.455
6535,-0.099,-0.455
6536,-0.099,-0.463
6537,-0.099,-0.463
6538,-0.100,-0.463
6539,-0.100,-0.463
6540,-0.101,-0.471
6541,-0.102,-0.471
6542,-0.103,-0.471
6543,-0.104,-0.471
6544,-0.105,-0.478
6545,-0.107,-0.478
6546,-0.108,-0.478
6547,-0.110,-0.478
6548,-0.112,-0.485
6549,-0.114,-0.485
6550,-0.115,-0.485
6551,-0.115,-0.485
6552,-0.116,-0.493
6553,-0.117,-0.493
6554,-0.117,-0.493
6555,-0.118,-0.493
6556,-0.118,-0.498
6557,-0.118,-0.498
6558,-0.119,-0.498
6559,-0.121,-0.498
6560,-0.123,-0.504
6561,-0.126,-0.504
6562,-0.127,-0.504
6563,-0.128,-0.504
6564,-0.129,-0.507
6565,-0.129,-0.507
6566,-0.129,-0.507
6567,-0.128,-0.507
6568,-0.128,-0.509
6569,-0.128,-0.509
6570,-0.128,-0.509
6571,-0.127,-0.509
6572,-0.126,-0.509
6573,-0.124,-0.509
6574,-0.122,-0.509
6575,-0.121,-0.509
6576,-0.118,-0.507
6577,-0.115,-0.507
6578,-0.112,-0.507
6579,-0.108,-0.507
6580,-0.104,-0.501
6581,-0.100,-0.501
6582,-0.095,-0.501
6583,-0.089,-0.501
6584,-0.082,-0.488
6585,-0.075,-0.488
6586,-0.069,-0.488
6587,-0.062,-0.488
6588,-0.056,-0.469
6589,-0.050,-0.469
6590,-0.044,-0.469
6591,-0.038,-0.469
6592,-0.033,-0.440
6593,-0.027,-0.440
6594,-0.021,-0.440
6595,-0.016,-0.440
6596,-0.011,-0.405
6597,-0.006,-0.405
6598,-0.002,-0.405
6599,0.002,-0.405
6600,0.005,-0.358
6601,0.008,-0.358
6602,0.010,-0.358
6603,0.012,-0.358
6604,0.013,-0.305
