,ECG,PPG
0,0.236,0.145
1,0.225,0.145
2,0.211,0.145
3,0.198,0.145
4,0.183,0.136
5,0.169,0.136
6,0.154,0.136
7,0.139,0.136
8,0.125,0.136
9,0.111,0.136
10,0.099,0.136
11,0.086,0.136
12,0.075,0.131
13,0.065,0.131
14,0.056,0.131
15,0.046,0.131
16,0.037,0.122
17,0.029,0.122
18,0.021,0.122
19,0.014,0.122
20,0.007,0.122
21,0.001,0.122
22,-0.004,0.122
23,-0.010,0.122
24,-0.015,0.113
25,-0.019,0.113
26,-0.021,0.113
27,-0.023,0.113
28,-0.024,0.108
29,-0.024,0.108
30,-0.025,0.108
31,-0.026,0.108
32,-0.025,0.095
33,-0.025,0.095
34,-0.024,0.095
35,-0.023,0.095
36,-0.022,0.086
37,-0.021,0.086
38,-0.020,0.086
39,-0.019,0.086
40,-0.018,0.086
41,-0.017,0.086
42,-0.017,0.086
43,-0.016,0.086
44,-0.015,0.072
45,-0.015,0.072
46,-0.015,0.072
47,-0.015,0.072
48,-0.017,0.070
49,-0.019,0.070
50,-0.021,0.070
51,-0.022,0.070
52,-0.022,0.070
53,-0.022,0.070
54,-0.020,0.070
55,-0.018,0.070
56,-0.017,0.061
57,-0.016,0.061
58,-0.015,0.061
59,-0.013,0.061
60,0.004,0.057
61,0.020,0.057
62,0.067,0.057
63,0.114,0.057
64,0.191,0.043
65,0.268,0.043
66,0.345,0.043
67,0.423,0.043
68,0.461,0.040
69,0.499,0.040
70,0.471,0.040
71,0.443,0.040
72,0.355,0.030
73,0.268,0.030
74,0.156,0.030
75,0.044,0.030
76,-0.057,0.021
77,-0.157,0.021
78,-0.230,0.021
79,-0.302,0.021
80,-0.344,0.008
81,-0.387,0.008
82,-0.400,0.008
83,-0.413,0.008
84,-0.399,-0.001
85,-0.385,-0.001
86,-0.348,-0.001
87,-0.312,-0.001
88,-0.265,-0.009
89,-0.217,-0.009
90,-0.172,-0.009
91,-0.126,-0.009
92,-0.092,-0.018
93,-0.058,-0.018
94,-0.037,-0.018
95,-0.017,-0.018
96,-0.006,-0.028
97,0.004,-0.028
98,0.008,-0.028
99,0.012,-0.028
100,0.012,-0.036
101,0.012,-0.036
102,0.011,-0.036
103,0.010,-0.036
104,0.009,-0.045
105,0.008,-0.045
106,0.006,-0.045
107,0.005,-0.045
108,0.004,-0.050
109,0.004,-0.050
110,0.003,-0.050
111,0.002,-0.050
112,0.001,-0.059
113,0.000,-0.059
114,0.000,-0.059
115,0.000,-0.059
116,0.002,-0.067
117,0.003,-0.067
118,0.004,-0.067
119,0.004,-0.067
120,0.004,-0.071
121,0.003,-0.071
122,0.003,-0.071
123,0.003,-0.071
124,0.003,-0.081
125,0.002,-0.081
126,0.001,-0.081
127,0.000,-0.081
128,-0.001,-0.094
129,-0.001,-0.094
130,0.000,-0.094
131,0.001,-0.094
132,0.002,-0.094
133,0.003,-0.094
134,0.004,-0.094
135,0.004,-0.094
136,0.004,-0.107
137,0.005,-0.107
138,0.005,-0.107
139,0.006,-0.107
140,0.005,-0.116
141,0.005,-0.116
142,0.004,-0.116
143,0.004,-0.116
144,0.003,-0.120
145,0.002,-0.120
146,0.001,-0.120
147,0.000,-0.120
148,-0.001,-0.130
149,-0.002,-0.130
150,-0.004,-0.130
151,-0.005,-0.130
152,-0.009,-0.138
153,-0.012,-0.138
154,-0.016,-0.138
155,-0.020,-0.138
156,-0.024,-0.142
157,-0.027,-0.142
158,-0.029,-0.142
159,-0.031,-0.142
160,-0.032,-0.147
161,-0.033,-0.147
162,-0.035,-0.147
163,-0.036,-0.147
164,-0.037,-0.151
165,-0.039,-0.151
166,-0.041,-0.151
167,-0.042,-0.151
168,-0.043,-0.151
169,-0.044,-0.151
170,-0.045,-0.151
171,-0.046,-0.151
172,-0.046,-0.147
173,-0.047,-0.147
174,-0.047,-0.147
175,-0.047,-0.147
176,-0.045,-0.147
177,-0.044,-0.147
178,-0.042,-0.147
179,-0.039,-0.147
180,-0.035,-0.142
181,-0.032,-0.142
182,-0.028,-0.142
183,-0.023,-0.142
184,-0.015,-0.130
185,-0.008,-0.130
186,-0.001,-0.130
187,0.007,-0.130
188,0.016,-0.112
189,0.025,-0.112
190,0.033,-0.112
191,0.040,-0.112
192,0.046,-0.094
193,0.053,-0.094
194,0.059,-0.094
195,0.064,-0.094
196,0.067,-0.076
197,0.070,-0.076
198,0.072,-0.076
199,0.074,-0.076
200,0.075,-0.059
201,0.076,-0.059
202,0.076,-0.059
203,0.077,-0.059
204,0.076,-0.032
205,0.076,-0.032
206,0.074,-0.032
207,0.072,-0.032
208,0.070,-0.014
209,0.068,-0.014
210,0.067,-0.014
211,0.065,-0.014
212,0.064,0.004
213,0.062,0.004
214,0.061,0.004
215,0.060,0.004
216,0.059,0.021
217,0.058,0.021
218,0.056,0.021
219,0.054,0.021
220,0.052,0.040
221,0.050,0.040
222,0.048,0.040
223,0.046,0.040
224,0.045,0.057
225,0.044,0.057
226,0.043,0.057
227,0.042,0.057
228,0.042,0.066
229,0.041,0.066
230,0.041,0.066
231,0.040,0.066
232,0.040,0.079
233,0.039,0.079
234,0.040,0.079
235,0.040,0.079
236,0.041,0.088
237,0.041,0.088
238,0.042,0.088
239,0.043,0.088
240,0.044,0.102
241,0.045,0.102
242,0.046,0.102
243,0.047,0.102
244,0.048,0.111
245,0.048,0.111
246,0.050,0.111
247,0.051,0.111
248,0.054,0.119
249,0.057,0.119
250,0.060,0.119
251,0.064,0.119
252,0.070,0.128
253,0.077,0.128
254,0.088,0.128
255,0.099,0.128
256,0.111,0.137
257,0.123,0.137
258,0.136,0.137
259,0.149,0.137
260,0.163,0.141
261,0.177,0.141
262,0.190,0.141
263,0.203,0.141
264,0.215,0.146
265,0.228,0.146
266,0.241,0.146
267,0.254,0.146
268,0.265,0.150
269,0.276,0.150
270,0.281,0.150
271,0.287,0.150
272,0.287,0.150
273,0.288,0.150
274,0.283,0.150
275,0.278,0.150
276,0.269,0.154
277,0.260,0.154
278,0.249,0.154
279,0.238,0.154
280,0.226,0.150
281,0.213,0.150
282,0.199,0.150
283,0.184,0.150
284,0.169,0.150
285,0.153,0.150
286,0.138,0.150
287,0.123,0.150
288,0.110,0.146
289,0.096,0.146
290,0.086,0.146
291,0.075,0.146
292,0.067,0.141
293,0.058,0.141
294,0.050,0.141
295,0.041,0.141
296,0.033,0.133
297,0.024,0.133
298,0.016,0.133
299,0.008,0.133
300,0.002,0.128
301,-0.004,0.128
302,-0.010,0.128
303,-0.016,0.128
304,-0.020,0.123
305,-0.024,0.123
306,-0.025,0.123
307,-0.026,0.123
308,-0.026,0.115
309,-0.026,0.115
310,-0.026,0.115
311,-0.026,0.115
312,-0.026,0.111
313,-0.027,0.111
314,-0.028,0.111
315,-0.029,0.111
316,-0.029,0.102
317,-0.030,0.102
318,-0.029,0.102
319,-0.029,0.102
320,-0.028,0.092
321,-0.026,0.092
322,-0.024,0.092
323,-0.021,0.092
324,-0.021,0.088
325,-0.020,0.088
326,-0.021,0.088
327,-0.021,0.088
328,-0.022,0.080
329,-0.023,0.080
330,-0.024,0.080
331,-0.024,0.080
332,-0.024,0.075
333,-0.023,0.075
334,-0.021,0.075
335,-0.020,0.075
336,-0.019,0.066
337,-0.019,0.066
338,-0.011,0.066
339,-0.002,0.066
340,0.030,0.061
341,0.063,0.061
342,0.129,0.061
343,0.194,0.061
344,0.274,0.048
345,0.354,0.048
346,0.411,0.048
347,0.469,0.048
348,0.470,0.044
349,0.471,0.044
350,0.406,0.044
351,0.340,0.044
352,0.233,0.040
353,0.126,0.040
354,0.017,0.040
355,-0.092,0.040
356,-0.177,0.021
357,-0.263,0.021
358,-0.317,0.021
359,-0.370,0.021
360,-0.395,0.017
361,-0.419,0.017
362,-0.415,0.017
363,-0.411,0.017
364,-0.383,0.009
365,-0.354,0.009
366,-0.308,0.009
367,-0.263,0.009
368,-0.214,-0.005
369,-0.166,-0.005
370,-0.128,-0.005
371,-0.089,-0.005
372,-0.064,-0.014
373,-0.038,-0.014
374,-0.025,-0.014
375,-0.011,-0.014
376,-0.005,-0.027
377,0.000,-0.027
378,0.002,-0.027
379,0.003,-0.027
380,0.004,-0.027
381,0.004,-0.027
382,0.003,-0.027
383,0.002,-0.027
384,0.001,-0.041
385,0.000,-0.041
386,-0.001,-0.041
387,-0.001,-0.041
388,-0.001,-0.054
389,-0.001,-0.054
390,-0.003,-0.054
391,-0.004,-0.054
392,-0.005,-0.062
393,-0.007,-0.062
394,-0.008,-0.062
395,-0.009,-0.062
396,-0.010,-0.071
397,-0.011,-0.071
398,-0.011,-0.071
399,-0.010,-0.071
400,-0.009,-0.076
401,-0.008,-0.076
402,-0.007,-0.076
403,-0.006,-0.076
404,-0.005,-0.089
405,-0.004,-0.089
406,-0.004,-0.089
407,-0.004,-0.089
408,-0.004,-0.098
409,-0.004,-0.098
410,-0.004,-0.098
411,-0.003,-0.098
412,-0.002,-0.107
413,-0.001,-0.107
414,-0.001,-0.107
415,0.000,-0.107
416,0.000,-0.112
417,0.000,-0.112
418,0.000,-0.112
419,0.000,-0.112
420,0.001,-0.120
421,0.001,-0.120
422,0.002,-0.120
423,0.002,-0.120
424,0.001,-0.125
425,0.000,-0.125
426,-0.002,-0.125
427,-0.003,-0.125
428,-0.004,-0.134
429,-0.006,-0.134
430,-0.008,-0.134
431,-0.010,-0.134
432,-0.013,-0.142
433,-0.015,-0.142
434,-0.018,-0.142
435,-0.020,-0.142
436,-0.022,-0.142
437,-0.024,-0.142
438,-0.026,-0.142
439,-0.028,-0.142
440,-0.031,-0.147
441,-0.034,-0.147
442,-0.038,-0.147
443,-0.043,-0.147
444,-0.048,-0.147
445,-0.053,-0.147
446,-0.057,-0.147
447,-0.060,-0.147
448,-0.062,-0.151
449,-0.064,-0.151
450,-0.065,-0.151
451,-0.065,-0.151
452,-0.064,-0.147
453,-0.062,-0.147
454,-0.060,-0.147
455,-0.058,-0.147
456,-0.055,-0.138
457,-0.052,-0.138
458,-0.048,-0.138
459,-0.044,-0.138
460,-0.039,-0.130
461,-0.034,-0.130
462,-0.028,-0.130
463,-0.022,-0.130
464,-0.015,-0.116
465,-0.007,-0.116
466,0.002,-0.116
467,0.010,-0.116
468,0.017,-0.102
469,0.024,-0.102
470,0.030,-0.102
471,0.036,-0.102
472,0.042,-0.081
473,0.048,-0.081
474,0.052,-0.081
475,0.057,-0.081
476,0.060,-0.062
477,0.063,-0.062
478,0.064,-0.062
479,0.065,-0.062
480,0.066,-0.045
481,0.067,-0.045
482,0.067,-0.045
483,0.067,-0.045
484,0.066,-0.023
485,0.065,-0.023
486,0.063,-0.023
487,0.061,-0.023
488,0.059,-0.005
489,0.058,-0.005
490,0.058,-0.005
491,0.057,-0.005
492,0.056,0.009
493,0.054,0.009
494,0.052,0.009
495,0.050,0.009
496,0.048,0.026
497,0.046,0.026
498,0.044,0.026
499,0.043,0.026
500,0.041,0.040
501,0.039,0.040
502,0.037,0.040
503,0.036,0.040
504,0.035,0.052
505,0.035,0.052
506,0.034,0.052
507,0.033,0.052
508,0.033,0.070
509,0.032,0.070
510,0.032,0.070
511,0.032,0.070
512,0.033,0.080
513,0.033,0.080
514,0.033,0.080
515,0.033,0.080
516,0.033,0.092
517,0.032,0.092
518,0.033,0.092
519,0.033,0.092
520,0.035,0.102
521,0.037,0.102
522,0.038,0.102
523,0.040,0.102
524,0.041,0.111
525,0.041,0.111
526,0.043,0.111
527,0.044,0.111
528,0.046,0.111
529,0.049,0.111
530,0.053,0.111
531,0.057,0.111
532,0.064,0.119
533,0.070,0.119
534,0.082,0.119
535,0.093,0.119
536,0.108,0.133
537,0.123,0.133
538,0.138,0.133
539,0.153,0.133
540,0.168,0.137
541,0.182,0.137
542,0.195,0.137
543,0.208,0.137
544,0.218,0.141
545,0.229,0.141
546,0.238,0.141
547,0.247,0.141
548,0.253,0.141
549,0.259,0.141
550,0.262,0.141
551,0.265,0.141
552,0.264,0.141
553,0.263,0.141
554,0.257,0.141
555,0.251,0.141
556,0.241,0.150
557,0.232,0.150
558,0.219,0.150
559,0.206,0.150
560,0.191,0.155
561,0.175,0.155
562,0.158,0.155
563,0.140,0.155
564,0.124,0.155
565,0.108,0.155
566,0.094,0.155
567,0.080,0.155
568,0.068,0.150
569,0.056,0.150
570,0.045,0.150
571,0.035,0.150
572,0.025,0.145
573,0.015,0.145
574,0.007,0.145
575,-0.001,0.145
576,-0.007,0.136
577,-0.013,0.136
578,-0.018,0.136
579,-0.022,0.136
580,-0.026,0.127
581,-0.031,0.127
582,-0.035,0.127
583,-0.039,0.127
584,-0.042,0.127
585,-0.045,0.127
586,-0.047,0.127
587,-0.049,0.127
588,-0.050,0.113
589,-0.050,0.113
590,-0.050,0.113
591,-0.049,0.113
592,-0.048,0.108
593,-0.047,0.108
594,-0.045,0.108
595,-0.043,0.108
596,-0.042,0.093
597,-0.040,0.093
598,-0.038,0.093
599,-0.036,0.093
600,-0.034,0.089
601,-0.032,0.089
602,-0.031,0.089
603,-0.030,0.089
604,-0.030,0.085
605,-0.030,0.085
606,-0.032,0.085
607,-0.034,0.085
608,-0.035,0.070
609,-0.036,0.070
610,-0.035,0.070
611,-0.034,0.070
612,-0.034,0.066
613,-0.033,0.066
614,-0.034,0.066
615,-0.034,0.066
616,-0.031,0.056
617,-0.028,0.056
618,-0.007,0.056
619,0.014,0.056
620,0.068,0.051
621,0.121,0.051
622,0.199,0.051
623,0.277,0.051
624,0.348,0.042
625,0.419,0.042
626,0.444,0.042
627,0.469,0.042
628,0.429,0.037
629,0.389,0.037
630,0.295,0.037
631,0.201,0.037
632,0.088,0.023
633,-0.024,0.023
634,-0.120,0.023
635,-0.216,0.023
636,-0.281,0.013
637,-0.346,0.013
638,-0.381,0.013
639,-0.416,0.013
640,-0.422,0.009
641,-0.429,0.009
642,-0.409,0.009
643,-0.389,0.009
644,-0.349,-0.001
645,-0.309,-0.001
646,-0.261,-0.001
647,-0.212,-0.001
648,-0.168,-0.015
649,-0.124,-0.015
650,-0.093,-0.015
651,-0.062,-0.015
652,-0.044,-0.025
653,-0.027,-0.025
654,-0.019,-0.025
655,-0.011,-0.025
656,-0.009,-0.034
657,-0.007,-0.034
658,-0.007,-0.034
659,-0.007,-0.034
660,-0.008,-0.043
661,-0.009,-0.043
662,-0.010,-0.043
663,-0.011,-0.043
664,-0.011,-0.048
665,-0.011,-0.048
666,-0.011,-0.048
667,-0.012,-0.048
668,-0.013,-0.058
669,-0.015,-0.058
670,-0.015,-0.058
671,-0.014,-0.058
672,-0.013,-0.062
673,-0.012,-0.062
674,-0.011,-0.062
675,-0.011,-0.062
676,-0.011,-0.071
677,-0.012,-0.071
678,-0.013,-0.071
679,-0.015,-0.071
680,-0.015,-0.081
681,-0.016,-0.081
682,-0.017,-0.081
683,-0.018,-0.081
684,-0.018,-0.090
685,-0.019,-0.090
686,-0.019,-0.090
687,-0.019,-0.090
688,-0.019,-0.090
689,-0.019,-0.090
690,-0.019,-0.090
691,-0.019,-0.090
692,-0.019,-0.100
693,-0.019,-0.100
694,-0.019,-0.100
695,-0.019,-0.100
696,-0.019,-0.109
697,-0.019,-0.109
698,-0.019,-0.109
699,-0.019,-0.109
700,-0.019,-0.118
701,-0.019,-0.118
702,-0.019,-0.118
703,-0.019,-0.118
704,-0.019,-0.118
705,-0.019,-0.118
706,-0.019,-0.118
707,-0.019,-0.118
708,-0.019,-0.123
709,-0.020,-0.123
710,-0.021,-0.123
711,-0.023,-0.123
712,-0.025,-0.128
713,-0.027,-0.128
714,-0.030,-0.128
715,-0.034,-0.128
716,-0.036,-0.133
717,-0.039,-0.133
718,-0.042,-0.133
719,-0.044,-0.133
720,-0.046,-0.138
721,-0.049,-0.138
722,-0.051,-0.138
723,-0.052,-0.138
724,-0.053,-0.138
725,-0.055,-0.138
726,-0.056,-0.138
727,-0.056,-0.138
728,-0.058,-0.142
729,-0.060,-0.142
730,-0.061,-0.142
731,-0.063,-0.142
732,-0.064,-0.138
733,-0.065,-0.138
734,-0.064,-0.138
735,-0.062,-0.138
736,-0.058,-0.133
737,-0.053,-0.133
738,-0.047,-0.133
739,-0.041,-0.133
740,-0.034,-0.123
741,-0.027,-0.123
742,-0.019,-0.123
743,-0.011,-0.123
744,-0.004,-0.104
745,0.003,-0.104
746,0.010,-0.104
747,0.017,-0.104
748,0.024,-0.090
749,0.031,-0.090
750,0.036,-0.090
751,0.042,-0.090
752,0.046,-0.071
753,0.050,-0.071
754,0.052,-0.071
755,0.055,-0.071
756,0.057,-0.058
757,0.059,-0.058
758,0.060,-0.058
759,0.062,-0.058
760,0.062,-0.029
761,0.062,-0.029
762,0.061,-0.029
763,0.061,-0.029
764,0.059,-0.015
765,0.058,-0.015
766,0.056,-0.015
767,0.053,-0.015
768,0.050,0.004
769,0.047,0.004
770,0.044,0.004
771,0.042,0.004
772,0.041,0.023
773,0.039,0.023
774,0.037,0.023
775,0.035,0.023
776,0.034,0.037
777,0.032,0.037
778,0.030,0.037
779,0.029,0.037
780,0.029,0.051
781,0.028,0.051
782,0.027,0.051
783,0.026,0.051
784,0.025,0.066
785,0.025,0.066
786,0.025,0.066
787,0.026,0.066
788,0.026,0.075
789,0.027,0.075
790,0.027,0.075
791,0.027,0.075
792,0.028,0.089
793,0.028,0.089
794,0.029,0.089
795,0.029,0.089
796,0.029,0.099
797,0.030,0.099
798,0.031,0.099
799,0.032,0.099
800,0.034,0.108
801,0.035,0.108
802,0.037,0.108
803,0.040,0.108
804,0.043,0.122
805,0.046,0.122
806,0.050,0.122
807,0.053,0.122
808,0.057,0.132
809,0.061,0.132
810,0.067,0.132
811,0.073,0.132
812,0.083,0.141
813,0.093,0.141
814,0.106,0.141
815,0.119,0.141
816,0.134,0.145
817,0.148,0.145
818,0.163,0.145
819,0.178,0.145
820,0.192,0.145
821,0.206,0.145
822,0.217,0.145
823,0.229,0.145
824,0.238,0.149
825,0.248,0.149
826,0.255,0.149
827,0.261,0.149
828,0.265,0.159
829,0.268,0.159
830,0.267,0.159
831,0.265,0.159
832,0.261,0.159
833,0.256,0.159
834,0.246,0.159
835,0.236,0.159
836,0.223,0.159
837,0.209,0.159
838,0.193,0.159
839,0.177,0.159
840,0.161,0.159
841,0.145,0.159
842,0.130,0.159
843,0.114,0.159
844,0.100,0.154
845,0.085,0.154
846,0.073,0.154
847,0.061,0.154
848,0.051,0.149
849,0.042,0.149
850,0.034,0.149
851,0.026,0.149
852,0.018,0.140
853,0.010,0.140
854,0.002,0.140
855,-0.006,0.140
856,-0.013,0.136
857,-0.019,0.136
858,-0.025,0.136
859,-0.030,0.136
860,-0.033,0.121
861,-0.036,0.121
862,-0.038,0.121
863,-0.040,0.121
864,-0.042,0.117
865,-0.043,0.117
866,-0.044,0.117
867,-0.046,0.117
868,-0.047,0.102
869,-0.048,0.102
870,-0.046,0.102
871,-0.045,0.102
872,-0.043,0.098
873,-0.042,0.098
874,-0.041,0.098
875,-0.040,0.098
876,-0.038,0.088
877,-0.037,0.088
878,-0.036,0.088
879,-0.035,0.088
880,-0.035,0.084
881,-0.034,0.084
882,-0.034,0.084
883,-0.033,0.084
884,-0.033,0.084
885,-0.033,0.084
886,-0.033,0.084
887,-0.033,0.084
888,-0.033,0.074
889,-0.032,0.074
890,-0.031,0.074
891,-0.030,0.074
892,-0.030,0.065
893,-0.030,0.065
894,-0.029,0.065
895,-0.028,0.065
896,-0.012,0.056
897,0.004,0.056
898,0.051,0.056
899,0.098,0.056
900,0.173,0.056
901,0.249,0.056
902,0.324,0.056
903,0.399,0.056
904,0.432,0.042
905,0.465,0.042
906,0.434,0.042
907,0.403,0.042
908,0.315,0.037
909,0.227,0.037
910,0.116,0.037
911,0.005,0.037
912,-0.095,0.028
913,-0.194,0.028
914,-0.266,0.028
915,-0.337,0.028
916,-0.378,0.018
917,-0.419,0.018
918,-0.430,0.018
919,-0.442,0.018
920,-0.426,0.009
921,-0.410,0.009
922,-0.372,0.009
923,-0.334,0.009
924,-0.286,-0.001
925,-0.238,-0.001
926,-0.193,-0.001
927,-0.148,-0.001
928,-0.114,-0.015
929,-0.080,-0.015
930,-0.058,-0.015
931,-0.036,-0.015
932,-0.025,-0.024
933,-0.013,-0.024
934,-0.008,-0.024
935,-0.003,-0.024
936,-0.002,-0.033
937,-0.001,-0.033
938,-0.002,-0.033
939,-0.003,-0.033
940,-0.004,-0.048
941,-0.006,-0.048
942,-0.007,-0.048
943,-0.009,-0.048
944,-0.010,-0.057
945,-0.011,-0.057
946,-0.011,-0.057
947,-0.012,-0.057
948,-0.013,-0.057
949,-0.015,-0.057
950,-0.015,-0.057
951,-0.015,-0.057
952,-0.015,-0.066
953,-0.015,-0.066
954,-0.015,-0.066
955,-0.014,-0.066
956,-0.013,-0.080
957,-0.012,-0.080
958,-0.012,-0.080
959,-0.012,-0.080
960,-0.013,-0.085
961,-0.014,-0.085
962,-0.015,-0.085
963,-0.016,-0.085
964,-0.017,-0.089
965,-0.018,-0.089
966,-0.018,-0.089
967,-0.019,-0.089
968,-0.019,-0.099
969,-0.019,-0.099
970,-0.018,-0.099
971,-0.018,-0.099
972,-0.017,-0.103
973,-0.016,-0.103
974,-0.015,-0.103
975,-0.015,-0.103
976,-0.015,-0.103
977,-0.015,-0.103
978,-0.016,-0.103
979,-0.017,-0.103
980,-0.017,-0.113
981,-0.016,-0.113
982,-0.015,-0.113
983,-0.015,-0.113
984,-0.015,-0.122
985,-0.015,-0.122
986,-0.018,-0.122
987,-0.020,-0.122
988,-0.024,-0.132
989,-0.027,-0.132
990,-0.029,-0.132
991,-0.032,-0.132
992,-0.035,-0.132
993,-0.038,-0.132
994,-0.042,-0.132
995,-0.045,-0.132
996,-0.049,-0.141
997,-0.052,-0.141
998,-0.054,-0.141
999,-0.057,-0.141
1000,-0.059,-0.150
1001,-0.060,-0.150
1002,-0.061,-0.150
1003,-0.063,-0.150
1004,-0.066,-0.155
1005,-0.068,-0.155
1006,-0.070,-0.155
1007,-0.073,-0.155
1008,-0.073,-0.155
1009,-0.074,-0.155
1010,-0.073,-0.155
1011,-0.072,-0.155
1012,-0.070,-0.150
1013,-0.068,-0.150
1014,-0.064,-0.150
1015,-0.060,-0.150
1016,-0.054,-0.145
1017,-0.049,-0.145
1018,-0.043,-0.145
1019,-0.037,-0.145
1020,-0.030,-0.137
1021,-0.023,-0.137
1022,-0.015,-0.137
1023,-0.008,-0.137
1024,-0.001,-0.122
1025,0.006,-0.122
1026,0.013,-0.122
1027,0.021,-0.122
1028,0.026,-0.103
1029,0.032,-0.103
1030,0.036,-0.103
1031,0.041,-0.103
1032,0.045,-0.085
1033,0.050,-0.085
1034,0.052,-0.085
1035,0.055,-0.085
1036,0.057,-0.070
1037,0.058,-0.070
1038,0.059,-0.070
1039,0.059,-0.070
1040,0.058,-0.043
1041,0.056,-0.043
1042,0.054,-0.043
1043,0.052,-0.043
1044,0.050,-0.024
1045,0.048,-0.024
1046,0.046,-0.024
1047,0.044,-0.024
1048,0.042,-0.010
1049,0.039,-0.010
1050,0.037,-0.010
1051,0.035,-0.010
1052,0.034,0.013
1053,0.033,0.013
1054,0.032,0.013
1055,0.031,0.013
1056,0.030,0.028
1057,0.029,0.028
1058,0.029,0.028
1059,0.028,0.028
1060,0.027,0.046
1061,0.026,0.046
1062,0.025,0.046
1063,0.024,0.046
1064,0.023,0.060
1065,0.022,0.060
1066,0.022,0.060
1067,0.022,0.060
1068,0.021,0.070
1069,0.021,0.070
1070,0.021,0.070
1071,0.020,0.070
1072,0.020,0.079
1073,0.020,0.079
1074,0.021,0.079
1075,0.023,0.079
1076,0.024,0.087
1077,0.025,0.087
1078,0.026,0.087
1079,0.027,0.087
1080,0.028,0.097
1081,0.029,0.097
1082,0.031,0.097
1083,0.033,0.097
1084,0.036,0.102
1085,0.039,0.102
1086,0.044,0.102
1087,0.049,0.102
1088,0.057,0.106
1089,0.064,0.106
1090,0.074,0.106
1091,0.084,0.106
1092,0.096,0.116
1093,0.108,0.116
1094,0.121,0.116
1095,0.134,0.116
1096,0.148,0.120
1097,0.162,0.120
1098,0.175,0.120
1099,0.189,0.120
1100,0.201,0.129
1101,0.213,0.129
1102,0.224,0.129
1103,0.234,0.129
1104,0.243,0.134
1105,0.252,0.134
1106,0.258,0.134
1107,0.263,0.134
1108,0.264,0.134
1109,0.264,0.134
1110,0.260,0.134
1111,0.255,0.134
1112,0.246,0.134
1113,0.238,0.134
1114,0.226,0.134
1115,0.213,0.134
1116,0.199,0.134
1117,0.185,0.134
1118,0.171,0.134
1119,0.156,0.134
1120,0.141,0.134
1121,0.126,0.134
1122,0.112,0.134
1123,0.098,0.134
1124,0.085,0.129
1125,0.072,0.129
1126,0.060,0.129
1127,0.048,0.129
1128,0.037,0.120
1129,0.027,0.120
1130,0.018,0.120
1131,0.010,0.120
1132,0.003,0.120
1133,-0.004,0.120
1134,-0.011,0.120
1135,-0.017,0.120
1136,-0.022,0.111
1137,-0.028,0.111
1138,-0.031,0.111
1139,-0.034,0.111
1140,-0.036,0.102
1141,-0.038,0.102
1142,-0.040,0.102
1143,-0.041,0.102
1144,-0.043,0.102
1145,-0.045,0.102
1146,-0.046,0.102
1147,-0.048,0.102
1148,-0.048,0.092
1149,-0.048,0.092
1150,-0.048,0.092
1151,-0.047,0.092
1152,-0.045,0.083
1153,-0.044,0.083
1154,-0.043,0.083
1155,-0.043,0.083
1156,-0.042,0.073
1157,-0.041,0.073
1158,-0.041,0.073
1159,-0.040,0.073
1160,-0.040,0.073
1161,-0.040,0.073
1162,-0.041,0.073
1163,-0.042,0.073
1164,-0.044,0.065
1165,-0.047,0.065
1166,-0.050,0.065
1167,-0.052,0.065
1168,-0.052,0.065
1169,-0.052,0.065
1170,-0.051,0.065
1171,-0.049,0.065
1172,-0.048,0.051
1173,-0.046,0.051
1174,-0.034,0.051
1175,-0.022,0.051
1176,0.015,0.046
1177,0.053,0.046
1178,0.121,0.046
1179,0.190,0.046
1180,0.268,0.036
1181,0.346,0.036
1182,0.394,0.036
1183,0.442,0.036
1184,0.428,0.032
1185,0.414,0.032
1186,0.339,0.032
1187,0.263,0.032
1188,0.155,0.023
1189,0.047,0.023
1190,-0.057,0.023
1191,-0.161,0.023
1192,-0.239,0.009
1193,-0.318,0.009
1194,-0.365,0.009
1195,-0.412,0.009
1196,-0.430,-0.001
1197,-0.449,-0.001
1198,-0.440,-0.001
1199,-0.431,-0.001
1200,-0.399,-0.005
1201,-0.366,-0.005
1202,-0.319,-0.005
1203,-0.272,-0.005
1204,-0.224,-0.014
1205,-0.175,-0.014
1206,-0.136,-0.014
1207,-0.097,-0.014
1208,-0.073,-0.019
1209,-0.049,-0.019
1210,-0.037,-0.019
1211,-0.025,-0.019
1212,-0.020,-0.028
1213,-0.015,-0.028
1214,-0.013,-0.028
1215,-0.012,-0.028
1216,-0.013,-0.033
1217,-0.014,-0.033
1218,-0.015,-0.033
1219,-0.015,-0.033
1220,-0.015,-0.037
1221,-0.016,-0.037
1222,-0.017,-0.037
1223,-0.018,-0.037
1224,-0.019,-0.051
1225,-0.020,-0.051
1226,-0.021,-0.051
1227,-0.023,-0.051
1228,-0.024,-0.060
1229,-0.025,-0.060
1230,-0.026,-0.060
1231,-0.027,-0.060
1232,-0.026,-0.070
1233,-0.025,-0.070
1234,-0.024,-0.070
1235,-0.023,-0.070
1236,-0.022,-0.074
1237,-0.021,-0.074
1238,-0.020,-0.074
1239,-0.019,-0.074
1240,-0.018,-0.079
1241,-0.018,-0.079
1242,-0.018,-0.079
1243,-0.019,-0.079
1244,-0.019,-0.088
1245,-0.019,-0.088
1246,-0.018,-0.088
1247,-0.018,-0.088
1248,-0.017,-0.102
1249,-0.016,-0.102
1250,-0.015,-0.102
1251,-0.015,-0.102
1252,-0.015,-0.106
1253,-0.014,-0.106
1254,-0.015,-0.106
1255,-0.015,-0.106
1256,-0.015,-0.116
1257,-0.015,-0.116
1258,-0.015,-0.116
1259,-0.015,-0.116
1260,-0.015,-0.125
1261,-0.016,-0.125
1262,-0.018,-0.125
1263,-0.019,-0.125
1264,-0.021,-0.135
1265,-0.023,-0.135
1266,-0.025,-0.135
1267,-0.027,-0.135
1268,-0.029,-0.135
1269,-0.032,-0.135
1270,-0.035,-0.135
1271,-0.037,-0.135
1272,-0.040,-0.139
1273,-0.043,-0.139
1274,-0.048,-0.139
1275,-0.052,-0.139
1276,-0.057,-0.143
1277,-0.061,-0.143
1278,-0.064,-0.143
1279,-0.067,-0.143
1280,-0.069,-0.148
1281,-0.071,-0.148
1282,-0.072,-0.148
1283,-0.073,-0.148
1284,-0.073,-0.148
1285,-0.074,-0.148
1286,-0.073,-0.148
1287,-0.073,-0.148
1288,-0.072,-0.143
1289,-0.071,-0.143
1290,-0.069,-0.143
1291,-0.066,-0.143
1292,-0.064,-0.143
1293,-0.061,-0.143
1294,-0.057,-0.143
1295,-0.053,-0.143
1296,-0.047,-0.139
1297,-0.041,-0.139
1298,-0.035,-0.139
1299,-0.028,-0.139
1300,-0.021,-0.125
1301,-0.014,-0.125
1302,-0.006,-0.125
1303,0.001,-0.125
1304,0.007,-0.112
1305,0.014,-0.112
1306,0.019,-0.112
1307,0.024,-0.112
1308,0.029,-0.093
1309,0.035,-0.093
1310,0.040,-0.093
1311,0.044,-0.093
1312,0.046,-0.070
1313,0.049,-0.070
1314,0.051,-0.070
1315,0.052,-0.070
1316,0.053,-0.056
1317,0.054,-0.056
1318,0.054,-0.056
1319,0.055,-0.056
1320,0.054,-0.028
1321,0.054,-0.028
1322,0.052,-0.028
1323,0.051,-0.028
1324,0.049,-0.014
1325,0.046,-0.014
1326,0.044,-0.014
1327,0.043,-0.014
1328,0.042,-0.001
1329,0.040,-0.001
1330,0.038,-0.001
1331,0.037,-0.001
1332,0.035,0.022
1333,0.033,0.022
1334,0.031,0.022
1335,0.029,0.022
1336,0.028,0.041
1337,0.027,0.041
1338,0.026,0.041
1339,0.026,0.041
1340,0.025,0.050
1341,0.024,0.050
1342,0.024,0.050
1343,0.023,0.050
1344,0.024,0.064
1345,0.024,0.064
1346,0.024,0.064
1347,0.024,0.064
1348,0.025,0.078
1349,0.025,0.078
1350,0.025,0.078
1351,0.026,0.078
1352,0.026,0.091
1353,0.026,0.091
1354,0.027,0.091
1355,0.028,0.091
1356,0.029,0.101
1357,0.030,0.101
1358,0.031,0.101
1359,0.032,0.101
1360,0.033,0.115
1361,0.033,0.115
1362,0.034,0.115
1363,0.035,0.115
1364,0.037,0.119
1365,0.040,0.119
1366,0.045,0.119
1367,0.051,0.119
1368,0.059,0.129
1369,0.066,0.129
1370,0.075,0.129
1371,0.084,0.129
1372,0.094,0.133
1373,0.104,0.133
1374,0.117,0.133
1375,0.129,0.133
1376,0.143,0.138
1377,0.157,0.138
1378,0.171,0.138
1379,0.184,0.138
1380,0.197,0.146
1381,0.209,0.146
1382,0.221,0.146
1383,0.232,0.146
1384,0.240,0.142
1385,0.249,0.142
1386,0.254,0.142
1387,0.258,0.142
1388,0.258,0.142
1389,0.258,0.142
1390,0.254,0.142
1391,0.250,0.142
1392,0.243,0.142
1393,0.237,0.142
1394,0.228,0.142
1395,0.218,0.142
1396,0.206,0.138
1397,0.194,0.138
1398,0.180,0.138
1399,0.166,0.138
1400,0.150,0.133
1401,0.135,0.133
1402,0.119,0.133
1403,0.104,0.133
1404,0.090,0.129
1405,0.077,0.129
1406,0.066,0.129
1407,0.055,0.129
1408,0.045,0.119
1409,0.036,0.119
1410,0.029,0.119
1411,0.021,0.119
1412,0.015,0.115
1413,0.009,0.115
1414,0.003,0.115
1415,-0.004,0.115
1416,-0.010,0.115
1417,-0.016,0.115
1418,-0.021,0.115
1419,-0.025,0.115
1420,-0.028,0.105
1421,-0.030,0.105
1422,-0.032,0.105
1423,-0.033,0.105
1424,-0.034,0.101
1425,-0.034,0.101
1426,-0.034,0.101
1427,-0.033,0.101
1428,-0.033,0.091
1429,-0.033,0.091
1430,-0.033,0.091
1431,-0.033,0.091
1432,-0.033,0.091
1433,-0.033,0.091
1434,-0.033,0.091
1435,-0.033,0.091
1436,-0.033,0.083
1437,-0.033,0.083
1438,-0.033,0.083
1439,-0.033,0.083
1440,-0.033,0.073
1441,-0.033,0.073
1442,-0.034,0.073
1443,-0.034,0.073
1444,-0.035,0.073
1445,-0.036,0.073
1446,-0.036,0.073
1447,-0.036,0.073
1448,-0.035,0.069
1449,-0.034,0.069
1450,-0.034,0.069
1451,-0.033,0.069
1452,-0.033,0.059
1453,-0.032,0.059
1454,-0.024,0.059
1455,-0.016,0.059
1456,0.015,0.055
1457,0.047,0.055
1458,0.110,0.055
1459,0.173,0.055
1460,0.252,0.045
1461,0.331,0.045
1462,0.389,0.045
1463,0.447,0.045
1464,0.449,0.041
1465,0.450,0.041
1466,0.386,0.041
1467,0.321,0.041
1468,0.215,0.036
1469,0.109,0.036
1470,0.001,0.036
1471,-0.107,0.036
1472,-0.191,0.027
1473,-0.274,0.027
1474,-0.328,0.027
1475,-0.381,0.027
1476,-0.406,0.013
1477,-0.431,0.013
1478,-0.429,0.013
1479,-0.428,0.013
1480,-0.401,0.004
1481,-0.374,0.004
1482,-0.330,0.004
1483,-0.285,0.004
1484,-0.236,-0.009
1485,-0.188,-0.009
1486,-0.147,-0.009
1487,-0.107,-0.009
1488,-0.080,-0.018
1489,-0.053,-0.018
1490,-0.040,-0.018
1491,-0.027,-0.018
1492,-0.021,-0.033
1493,-0.016,-0.033
1494,-0.013,-0.033
1495,-0.010,-0.033
1496,-0.009,-0.042
1497,-0.007,-0.042
1498,-0.007,-0.042
1499,-0.007,-0.042
1500,-0.007,-0.046
1501,-0.008,-0.046
1502,-0.009,-0.046
1503,-0.009,-0.046
1504,-0.010,-0.056
1505,-0.011,-0.056
1506,-0.013,-0.056
1507,-0.014,-0.056
1508,-0.015,-0.065
1509,-0.016,-0.065
1510,-0.015,-0.065
1511,-0.015,-0.065
1512,-0.015,-0.074
1513,-0.014,-0.074
1514,-0.015,-0.074
1515,-0.015,-0.074
1516,-0.015,-0.083
1517,-0.015,-0.083
1518,-0.015,-0.083
1519,-0.014,-0.083
1520,-0.013,-0.092
1521,-0.013,-0.092
1522,-0.013,-0.092
1523,-0.013,-0.092
1524,-0.013,-0.102
1525,-0.012,-0.102
1526,-0.011,-0.102
1527,-0.011,-0.102
1528,-0.011,-0.106
1529,-0.010,-0.106
1530,-0.009,-0.106
1531,-0.008,-0.106
1532,-0.007,-0.111
1533,-0.007,-0.111
1534,-0.007,-0.111
1535,-0.007,-0.111
1536,-0.007,-0.120
1537,-0.008,-0.120
1538,-0.009,-0.120
1539,-0.009,-0.120
1540,-0.010,-0.129
1541,-0.011,-0.129
1542,-0.013,-0.129
1543,-0.015,-0.129
1544,-0.018,-0.129
1545,-0.020,-0.129
1546,-0.022,-0.129
1547,-0.024,-0.129
1548,-0.025,-0.138
1549,-0.027,-0.138
1550,-0.029,-0.138
1551,-0.030,-0.138
1552,-0.033,-0.142
1553,-0.036,-0.142
1554,-0.041,-0.142
1555,-0.045,-0.142
1556,-0.049,-0.147
1557,-0.052,-0.147
1558,-0.054,-0.147
1559,-0.057,-0.147
1560,-0.059,-0.152
1561,-0.061,-0.152
1562,-0.064,-0.152
1563,-0.067,-0.152
1564,-0.071,-0.152
1565,-0.075,-0.152
1566,-0.079,-0.152
1567,-0.082,-0.152
1568,-0.084,-0.152
1569,-0.086,-0.152
1570,-0.086,-0.152
1571,-0.085,-0.152
1572,-0.081,-0.147
1573,-0.077,-0.147
1574,-0.071,-0.147
1575,-0.066,-0.147
1576,-0.059,-0.138
1577,-0.053,-0.138
1578,-0.046,-0.138
1579,-0.040,-0.138
1580,-0.034,-0.134
1581,-0.028,-0.134
1582,-0.021,-0.134
1583,-0.015,-0.134
1584,-0.008,-0.116
1585,-0.001,-0.116
1586,0.006,-0.116
1587,0.013,-0.116
1588,0.019,-0.098
1589,0.025,-0.098
1590,0.029,-0.098
1591,0.034,-0.098
1592,0.038,-0.079
1593,0.042,-0.079
1594,0.044,-0.079
1595,0.047,-0.079
1596,0.048,-0.060
1597,0.048,-0.060
1598,0.048,-0.060
1599,0.047,-0.060
1600,0.046,-0.046
1601,0.046,-0.046
1602,0.045,-0.046
1603,0.044,-0.046
1604,0.043,-0.024
1605,0.041,-0.024
1606,0.039,-0.024
1607,0.037,-0.024
1608,0.034,-0.005
1609,0.031,-0.005
1610,0.029,-0.005
1611,0.027,-0.005
1612,0.025,0.004
1613,0.023,0.004
1614,0.021,0.004
1615,0.020,0.004
1616,0.019,0.023
1617,0.018,0.023
1618,0.018,0.023
1619,0.017,0.023
1620,0.016,0.036
1621,0.015,0.036
1622,0.015,0.036
1623,0.014,0.036
1624,0.015,0.046
1625,0.015,0.046
1626,0.016,0.046
1627,0.017,0.046
1628,0.018,0.060
1629,0.019,0.060
1630,0.018,0.060
1631,0.018,0.060
1632,0.018,0.073
1633,0.019,0.073
1634,0.020,0.073
1635,0.021,0.073
1636,0.022,0.083
1637,0.023,0.083
1638,0.024,0.083
1639,0.025,0.083
1640,0.025,0.097
1641,0.026,0.097
1642,0.026,0.097
1643,0.026,0.097
1644,0.028,0.106
1645,0.029,0.106
1646,0.032,0.106
1647,0.035,0.106
1648,0.041,0.116
1649,0.047,0.116
1650,0.057,0.116
1651,0.066,0.116
1652,0.079,0.124
1653,0.091,0.124
1654,0.104,0.124
1655,0.118,0.124
1656,0.132,0.129
1657,0.145,0.129
1658,0.158,0.129
1659,0.170,0.129
1660,0.182,0.134
1661,0.195,0.134
1662,0.207,0.134
1663,0.219,0.134
1664,0.229,0.139
1665,0.238,0.139
1666,0.243,0.139
1667,0.249,0.139
1668,0.250,0.134
1669,0.251,0.134
1670,0.246,0.134
1671,0.242,0.134
1672,0.234,0.139
1673,0.227,0.139
1674,0.216,0.139
1675,0.205,0.139
1676,0.192,0.143
1677,0.178,0.143
1678,0.164,0.143
1679,0.149,0.143
1680,0.134,0.134
1681,0.118,0.134
1682,0.103,0.134
1683,0.089,0.134
1684,0.077,0.134
1685,0.065,0.134
1686,0.055,0.134
1687,0.045,0.134
1688,0.036,0.129
1689,0.027,0.129
1690,0.020,0.129
1691,0.013,0.129
1692,0.006,0.120
1693,0.000,0.120
1694,-0.007,0.120
1695,-0.014,0.120
1696,-0.019,0.111
1697,-0.024,0.111
1698,-0.028,0.111
1699,-0.032,0.111
1700,-0.034,0.106
1701,-0.036,0.106
1702,-0.037,0.106
1703,-0.038,0.106
1704,-0.039,0.092
1705,-0.040,0.092
1706,-0.041,0.092
1707,-0.042,0.092
1708,-0.043,0.087
1709,-0.044,0.087
1710,-0.046,0.087
1711,-0.048,0.087
1712,-0.048,0.079
1713,-0.048,0.079
1714,-0.048,0.079
1715,-0.047,0.079
1716,-0.045,0.073
1717,-0.043,0.073
1718,-0.042,0.073
1719,-0.041,0.073
1720,-0.041,0.065
1721,-0.040,0.065
1722,-0.041,0.065
1723,-0.041,0.065
1724,-0.043,0.060
1725,-0.044,0.060
1726,-0.046,0.060
1727,-0.048,0.060
1728,-0.048,0.051
1729,-0.047,0.051
1730,-0.046,0.051
1731,-0.045,0.051
1732,-0.046,0.046
1733,-0.047,0.046
1734,-0.041,0.046
1735,-0.035,0.046
1736,-0.005,0.036
1737,0.025,0.036
1738,0.089,0.036
1739,0.153,0.036
1740,0.235,0.032
1741,0.318,0.032
1742,0.382,0.032
1743,0.446,0.032
1744,0.455,0.023
1745,0.463,0.023
1746,0.404,0.023
1747,0.344,0.023
1748,0.239,0.018
1749,0.135,0.018
1750,0.025,0.018
1751,-0.085,0.018
1752,-0.173,0.004
1753,-0.262,0.004
1754,-0.320,0.004
1755,-0.378,0.004
1756,-0.407,-0.005
1757,-0.436,-0.005
1758,-0.437,-0.005
1759,-0.438,-0.005
1760,-0.412,-0.009
1761,-0.387,-0.009
1762,-0.344,-0.009
1763,-0.301,-0.009
1764,-0.253,-0.019
1765,-0.205,-0.019
1766,-0.164,-0.019
1767,-0.122,-0.019
1768,-0.093,-0.028
1769,-0.065,-0.028
1770,-0.048,-0.028
1771,-0.031,-0.028
1772,-0.023,-0.037
1773,-0.015,-0.037
1774,-0.013,-0.037
1775,-0.011,-0.037
1776,-0.011,-0.046
1777,-0.011,-0.046
1778,-0.011,-0.046
1779,-0.012,-0.046
1780,-0.014,-0.056
1781,-0.016,-0.056
1782,-0.018,-0.056
1783,-0.019,-0.056
1784,-0.021,-0.060
1785,-0.022,-0.060
1786,-0.022,-0.060
1787,-0.023,-0.060
1788,-0.023,-0.070
1789,-0.023,-0.070
1790,-0.024,-0.070
1791,-0.024,-0.070
1792,-0.024,-0.079
1793,-0.023,-0.079
1794,-0.021,-0.079
1795,-0.018,-0.079
1796,-0.016,-0.088
1797,-0.014,-0.088
1798,-0.013,-0.088
1799,-0.012,-0.088
1800,-0.013,-0.088
1801,-0.014,-0.088
1802,-0.015,-0.088
1803,-0.016,-0.088
1804,-0.017,-0.098
1805,-0.017,-0.098
1806,-0.017,-0.098
1807,-0.017,-0.098
1808,-0.017,-0.106
1809,-0.017,-0.106
1810,-0.017,-0.106
1811,-0.016,-0.106
1812,-0.015,-0.116
1813,-0.014,-0.116
1814,-0.013,-0.116
1815,-0.011,-0.116
1816,-0.011,-0.120
1817,-0.011,-0.120
1818,-0.011,-0.120
1819,-0.012,-0.120
1820,-0.013,-0.125
1821,-0.015,-0.125
1822,-0.015,-0.125
1823,-0.016,-0.125
1824,-0.017,-0.135
1825,-0.018,-0.135
1826,-0.019,-0.135
1827,-0.021,-0.135
1828,-0.023,-0.139
1829,-0.025,-0.139
1830,-0.027,-0.139
1831,-0.029,-0.139
1832,-0.031,-0.143
1833,-0.033,-0.143
1834,-0.036,-0.143
1835,-0.039,-0.143
1836,-0.042,-0.148
1837,-0.045,-0.148
1838,-0.049,-0.148
1839,-0.053,-0.148
1840,-0.057,-0.148
1841,-0.060,-0.148
1842,-0.061,-0.148
1843,-0.063,-0.148
1844,-0.064,-0.144
1845,-0.064,-0.144
1846,-0.065,-0.144
1847,-0.065,-0.144
1848,-0.064,-0.140
1849,-0.063,-0.140
1850,-0.062,-0.140
1851,-0.061,-0.140
1852,-0.060,-0.140
1853,-0.059,-0.140
1854,-0.056,-0.140
1855,-0.052,-0.140
1856,-0.048,-0.131
1857,-0.043,-0.131
1858,-0.037,-0.131
1859,-0.031,-0.131
1860,-0.025,-0.117
1861,-0.019,-0.117
1862,-0.011,-0.117
1863,-0.004,-0.117
1864,0.004,-0.103
1865,0.013,-0.103
1866,0.021,-0.103
1867,0.029,-0.103
1868,0.035,-0.081
1869,0.042,-0.081
1870,0.048,-0.081
1871,0.053,-0.081
1872,0.056,-0.059
1873,0.059,-0.059
1874,0.060,-0.059
1875,0.062,-0.059
1876,0.061,-0.041
1877,0.061,-0.041
1878,0.060,-0.041
1879,0.059,-0.041
1880,0.058,-0.022
1881,0.057,-0.022
1882,0.056,-0.022
1883,0.054,-0.022
1884,0.052,-0.004
1885,0.051,-0.004
1886,0.050,-0.004
1887,0.049,-0.004
1888,0.048,0.018
1889,0.047,0.018
1890,0.045,0.018
1891,0.043,0.018
1892,0.042,0.032
1893,0.040,0.032
1894,0.040,0.032
1895,0.039,0.032
1896,0.039,0.050
1897,0.039,0.050
1898,0.037,0.050
1899,0.036,0.050
1900,0.034,0.068
1901,0.032,0.068
1902,0.030,0.068
1903,0.029,0.068
1904,0.029,0.081
1905,0.028,0.081
1906,0.027,0.081
1907,0.026,0.081
1908,0.026,0.086
1909,0.026,0.086
1910,0.027,0.086
1911,0.028,0.086
1912,0.029,0.099
1913,0.029,0.099
1914,0.029,0.099
1915,0.029,0.099
1916,0.029,0.108
1917,0.029,0.108
1918,0.029,0.108
1919,0.030,0.108
1920,0.032,0.121
1921,0.034,0.121
1922,0.037,0.121
1923,0.040,0.121
1924,0.043,0.131
1925,0.047,0.131
1926,0.052,0.131
1927,0.058,0.131
1928,0.066,0.140
1929,0.073,0.140
1930,0.083,0.140
1931,0.093,0.140
1932,0.106,0.144
1933,0.119,0.144
1934,0.134,0.144
1935,0.148,0.144
1936,0.163,0.153
1937,0.178,0.153
1938,0.193,0.153
1939,0.207,0.153
1940,0.220,0.158
1941,0.233,0.158
1942,0.243,0.158
1943,0.254,0.158
1944,0.261,0.162
1945,0.267,0.162
1946,0.270,0.162
1947,0.273,0.162
1948,0.272,0.162
1949,0.271,0.162
1950,0.267,0.162
1951,0.262,0.162
1952,0.254,0.162
1953,0.245,0.162
1954,0.233,0.162
1955,0.221,0.162
1956,0.207,0.167
1957,0.194,0.167
1958,0.179,0.167
1959,0.164,0.167
1960,0.148,0.158
1961,0.133,0.158
1962,0.120,0.158
1963,0.107,0.158
1964,0.095,0.158
1965,0.083,0.158
1966,0.074,0.158
1967,0.065,0.158
1968,0.058,0.153
1969,0.050,0.153
1970,0.042,0.153
1971,0.033,0.153
1972,0.025,0.144
1973,0.018,0.144
1974,0.011,0.144
1975,0.004,0.144
1976,-0.001,0.140
1977,-0.006,0.140
1978,-0.009,0.140
1979,-0.013,0.140
1980,-0.015,0.131
1981,-0.018,0.131
1982,-0.018,0.131
1983,-0.019,0.131
1984,-0.019,0.126
1985,-0.019,0.126
1986,-0.019,0.126
1987,-0.019,0.126
1988,-0.019,0.113
1989,-0.020,0.113
1990,-0.021,0.113
1991,-0.021,0.113
1992,-0.020,0.113
1993,-0.019,0.113
1994,-0.018,0.113
1995,-0.018,0.113
1996,-0.018,0.099
1997,-0.019,0.099
1998,-0.019,0.099
1999,-0.020,0.099
2000,-0.021,0.090
2001,-0.023,0.090
2002,-0.025,0.090
2003,-0.026,0.090
2004,-0.028,0.090
2005,-0.029,0.090
2006,-0.028,0.090
2007,-0.026,0.090
2008,-0.024,0.081
2009,-0.021,0.081
2010,-0.020,0.081
2011,-0.019,0.081
2012,-0.016,0.072
2013,-0.013,0.072
2014,0.003,0.072
2015,0.019,0.072
2016,0.064,0.068
2017,0.109,0.068
2018,0.184,0.068
2019,0.259,0.068
2020,0.337,0.059
2021,0.415,0.059
2022,0.455,0.059
2023,0.495,0.059
2024,0.470,0.054
2025,0.446,0.054
2026,0.361,0.054
2027,0.276,0.054
2028,0.164,0.045
2029,0.051,0.045
2030,-0.052,0.045
2031,-0.155,0.045
2032,-0.231,0.027
2033,-0.306,0.027
2034,-0.350,0.027
2035,-0.394,0.027
2036,-0.408,0.018
2037,-0.422,0.018
2038,-0.408,0.018
2039,-0.395,0.018
2040,-0.359,0.009
2041,-0.324,0.009
2042,-0.277,0.009
2043,-0.230,0.009
2044,-0.184,0.000
2045,-0.138,0.000
2046,-0.103,0.000
2047,-0.068,0.000
2048,-0.046,-0.009
2049,-0.025,-0.009
2050,-0.014,-0.009
2051,-0.003,-0.009
2052,0.002,-0.018
2053,0.006,-0.018
2054,0.006,-0.018
2055,0.007,-0.018
2056,0.007,-0.027
2057,0.007,-0.027
2058,0.006,-0.027
2059,0.006,-0.027
2060,0.005,-0.036
2061,0.004,-0.036
2062,0.003,-0.036
2063,0.002,-0.036
2064,0.001,-0.041
2065,0.000,-0.041
2066,-0.001,-0.041
2067,-0.001,-0.041
2068,-0.001,-0.050
2069,0.000,-0.050
2070,0.000,-0.050
2071,0.000,-0.050
2072,-0.001,-0.054
2073,-0.001,-0.054
2074,-0.002,-0.054
2075,-0.003,-0.054
2076,-0.004,-0.063
2077,-0.004,-0.063
2078,-0.004,-0.063
2079,-0.004,-0.063
2080,-0.004,-0.068
2081,-0.004,-0.068
2082,-0.004,-0.068
2083,-0.003,-0.068
2084,-0.002,-0.076
2085,0.000,-0.076
2086,0.002,-0.076
2087,0.003,-0.076
2088,0.004,-0.086
2089,0.004,-0.086
2090,0.003,-0.086
2091,0.002,-0.086
2092,0.001,-0.090
2093,0.000,-0.090
2094,-0.001,-0.090
2095,-0.002,-0.090
2096,-0.003,-0.093
2097,-0.003,-0.093
2098,-0.004,-0.093
2099,-0.004,-0.093
2100,-0.004,-0.102
2101,-0.004,-0.102
2102,-0.004,-0.102
2103,-0.004,-0.102
2104,-0.004,-0.111
2105,-0.005,-0.111
2106,-0.006,-0.111
2107,-0.008,-0.111
2108,-0.010,-0.111
2109,-0.012,-0.111
2110,-0.014,-0.111
2111,-0.016,-0.111
2112,-0.018,-0.115
2113,-0.020,-0.115
2114,-0.023,-0.115
2115,-0.026,-0.115
2116,-0.029,-0.119
2117,-0.031,-0.119
2118,-0.033,-0.119
2119,-0.034,-0.119
2120,-0.036,-0.119
2121,-0.039,-0.119
2122,-0.042,-0.119
2123,-0.044,-0.119
2124,-0.046,-0.124
2125,-0.049,-0.124
2126,-0.050,-0.124
2127,-0.051,-0.124
2128,-0.051,-0.119
2129,-0.050,-0.119
2130,-0.046,-0.119
2131,-0.043,-0.119
2132,-0.037,-0.111
2133,-0.031,-0.111
2134,-0.025,-0.111
2135,-0.020,-0.111
2136,-0.015,-0.098
2137,-0.009,-0.098
2138,-0.004,-0.098
2139,0.002,-0.098
2140,0.008,-0.088
2141,0.014,-0.088
2142,0.021,-0.088
2143,0.027,-0.088
2144,0.033,-0.071
2145,0.039,-0.071
2146,0.044,-0.071
2147,0.050,-0.071
2148,0.055,-0.053
2149,0.060,-0.053
2150,0.064,-0.053
2151,0.067,-0.053
2152,0.070,-0.036
2153,0.074,-0.036
2154,0.076,-0.036
2155,0.078,-0.036
2156,0.079,-0.018
2157,0.079,-0.018
2158,0.077,-0.018
2159,0.076,-0.018
2160,0.074,0.009
2161,0.072,0.009
2162,0.070,0.009
2163,0.068,0.009
2164,0.067,0.026
2165,0.065,0.026
2166,0.064,0.026
2167,0.062,0.026
2168,0.061,0.039
2169,0.060,0.039
2170,0.059,0.039
2171,0.059,0.039
2172,0.058,0.057
2173,0.057,0.057
2174,0.056,0.057
2175,0.054,0.057
2176,0.051,0.074
2177,0.049,0.074
2178,0.046,0.074
2179,0.043,0.074
2180,0.041,0.083
2181,0.038,0.083
2182,0.037,0.083
2183,0.036,0.083
2184,0.036,0.097
2185,0.037,0.097
2186,0.038,0.097
2187,0.040,0.097
2188,0.040,0.105
2189,0.040,0.105
2190,0.041,0.105
2191,0.041,0.105
2192,0.043,0.114
2193,0.044,0.114
2194,0.045,0.114
2195,0.047,0.114
2196,0.048,0.123
2197,0.049,0.123
2198,0.050,0.123
2199,0.051,0.123
2200,0.051,0.136
2201,0.052,0.136
2202,0.054,0.136
2203,0.056,0.136
2204,0.059,0.145
2205,0.063,0.145
2206,0.069,0.145
2207,0.074,0.145
2208,0.083,0.145
2209,0.091,0.145
2210,0.102,0.145
2211,0.112,0.145
2212,0.124,0.153
2213,0.137,0.153
2214,0.152,0.153
2215,0.168,0.153
2216,0.183,0.158
2217,0.199,0.158
2218,0.213,0.158
2219,0.228,0.158
2220,0.239,0.163
2221,0.251,0.163
2222,0.261,0.163
2223,0.270,0.163
2224,0.277,0.167
2225,0.284,0.167
2226,0.288,0.167
2227,0.293,0.167
2228,0.294,0.172
2229,0.295,0.172
2230,0.289,0.172
2231,0.284,0.172
2232,0.273,0.172
2233,0.261,0.172
2234,0.246,0.172
2235,0.231,0.172
2236,0.214,0.163
2237,0.197,0.163
2238,0.180,0.163
2239,0.163,0.163
2240,0.146,0.163
2241,0.129,0.163
2242,0.115,0.163
2243,0.100,0.163
2244,0.089,0.163
2245,0.078,0.163
2246,0.070,0.163
2247,0.061,0.163
2248,0.052,0.158
2249,0.044,0.158
2250,0.036,0.158
2251,0.028,0.158
2252,0.020,0.149
2253,0.012,0.149
2254,0.004,0.149
2255,-0.004,0.149
2256,-0.011,0.141
2257,-0.017,0.141
2258,-0.022,0.141
2259,-0.028,0.141
2260,-0.030,0.141
2261,-0.033,0.141
2262,-0.034,0.141
2263,-0.034,0.141
2264,-0.034,0.127
2265,-0.033,0.127
2266,-0.033,0.127
2267,-0.032,0.127
2268,-0.031,0.118
2269,-0.030,0.118
2270,-0.029,0.118
2271,-0.029,0.118
2272,-0.029,0.114
2273,-0.029,0.114
2274,-0.028,0.114
2275,-0.027,0.114
2276,-0.025,0.105
2277,-0.023,0.105
2278,-0.021,0.105
2279,-0.020,0.105
2280,-0.018,0.097
2281,-0.017,0.097
2282,-0.017,0.097
2283,-0.016,0.097
2284,-0.017,0.092
2285,-0.017,0.092
2286,-0.016,0.092
2287,-0.015,0.092
2288,-0.013,0.087
2289,-0.011,0.087
2290,-0.011,0.087
2291,-0.011,0.087
2292,-0.008,0.083
2293,-0.005,0.083
2294,0.012,0.083
2295,0.029,0.083
2296,0.075,0.074
2297,0.121,0.074
2298,0.196,0.074
2299,0.270,0.074
2300,0.344,0.070
2301,0.419,0.070
2302,0.455,0.070
2303,0.490,0.070
2304,0.460,0.057
2305,0.429,0.057
2306,0.341,0.057
2307,0.253,0.057
2308,0.141,0.052
2309,0.029,0.052
2310,-0.072,0.052
2311,-0.173,0.052
2312,-0.246,0.043
2313,-0.319,0.043
2314,-0.360,0.043
2315,-0.402,0.043
2316,-0.414,0.026
2317,-0.427,0.026
2318,-0.411,0.026
2319,-0.395,0.026
2320,-0.356,0.021
2321,-0.318,0.021
2322,-0.269,0.021
2323,-0.219,0.021
2324,-0.171,0.009
2325,-0.123,0.009
2326,-0.087,0.009
2327,-0.052,0.009
2328,-0.030,-0.005
2329,-0.009,-0.005
2330,0.001,-0.005
2331,0.011,-0.005
2332,0.013,-0.018
2333,0.015,-0.018
2334,0.013,-0.018
2335,0.012,-0.018
2336,0.011,-0.027
2337,0.010,-0.027
2338,0.011,-0.027
2339,0.011,-0.027
2340,0.011,-0.040
2341,0.011,-0.040
2342,0.011,-0.040
2343,0.011,-0.040
2344,0.011,-0.049
2345,0.011,-0.049
2346,0.011,-0.049
2347,0.010,-0.049
2348,0.009,-0.053
2349,0.007,-0.053
2350,0.005,-0.053
2351,0.003,-0.053
2352,0.003,-0.075
2353,0.003,-0.075
2354,0.004,-0.075
2355,0.004,-0.075
2356,0.005,-0.080
2357,0.006,-0.080
2358,0.007,-0.080
2359,0.009,-0.080
2360,0.009,-0.085
2361,0.010,-0.085
2362,0.011,-0.085
2363,0.011,-0.085
2364,0.011,-0.093
2365,0.011,-0.093
2366,0.011,-0.093
2367,0.011,-0.093
2368,0.011,-0.098
2369,0.011,-0.098
2370,0.011,-0.098
2371,0.010,-0.098
2372,0.009,-0.107
2373,0.008,-0.107
2374,0.007,-0.107
2375,0.006,-0.107
2376,0.006,-0.116
2377,0.007,-0.116
2378,0.007,-0.116
2379,0.007,-0.116
2380,0.006,-0.125
2381,0.006,-0.125
2382,0.004,-0.125
2383,0.003,-0.125
2384,0.001,-0.125
2385,-0.001,-0.125
2386,-0.003,-0.125
2387,-0.005,-0.125
2388,-0.006,-0.130
2389,-0.007,-0.130
2390,-0.009,-0.130
2391,-0.010,-0.130
2392,-0.013,-0.139
2393,-0.015,-0.139
2394,-0.018,-0.139
2395,-0.022,-0.139
2396,-0.026,-0.143
2397,-0.030,-0.143
2398,-0.033,-0.143
2399,-0.036,-0.143
2400,-0.038,-0.143
2401,-0.040,-0.143
2402,-0.041,-0.143
2403,-0.041,-0.143
2404,-0.041,-0.143
2405,-0.040,-0.143
2406,-0.040,-0.143
2407,-0.040,-0.143
2408,-0.040,-0.143
2409,-0.039,-0.143
2410,-0.037,-0.143
2411,-0.036,-0.143
2412,-0.034,-0.134
2413,-0.032,-0.134
2414,-0.028,-0.134
2415,-0.024,-0.134
2416,-0.018,-0.120
2417,-0.013,-0.120
2418,-0.006,-0.120
2419,0.000,-0.120
2420,0.007,-0.107
2421,0.015,-0.107
2422,0.023,-0.107
2423,0.031,-0.107
2424,0.037,-0.089
2425,0.044,-0.089
2426,0.050,-0.089
2427,0.056,-0.089
2428,0.060,-0.075
2429,0.064,-0.075
2430,0.067,-0.075
2431,0.070,-0.075
2432,0.072,-0.049
2433,0.074,-0.049
2434,0.075,-0.049
2435,0.077,-0.049
2436,0.079,-0.035
2437,0.080,-0.035
2438,0.080,-0.035
2439,0.079,-0.035
2440,0.078,-0.018
2441,0.077,-0.018
2442,0.076,-0.018
2443,0.075,-0.018
2444,0.073,0.000
2445,0.072,0.000
2446,0.070,0.000
2447,0.067,0.000
2448,0.065,0.018
2449,0.062,0.018
2450,0.059,0.018
2451,0.057,0.018
2452,0.056,0.032
2453,0.054,0.032
2454,0.052,0.032
2455,0.051,0.032
2456,0.050,0.045
2457,0.049,0.045
2458,0.049,0.045
2459,0.048,0.045
2460,0.048,0.059
2461,0.047,0.059
2462,0.047,0.059
2463,0.047,0.059
2464,0.047,0.071
2465,0.047,0.071
2466,0.048,0.071
2467,0.048,0.071
2468,0.049,0.081
2469,0.050,0.081
2470,0.051,0.081
2471,0.052,0.081
2472,0.051,0.094
2473,0.051,0.094
2474,0.051,0.094
2475,0.052,0.094
2476,0.053,0.103
2477,0.054,0.103
2478,0.055,0.103
2479,0.056,0.103
2480,0.058,0.107
2481,0.059,0.107
2482,0.061,0.107
2483,0.064,0.107
2484,0.068,0.121
2485,0.072,0.121
2486,0.079,0.121
2487,0.085,0.121
2488,0.093,0.130
2489,0.101,0.130
2490,0.110,0.130
2491,0.119,0.130
2492,0.128,0.139
2493,0.136,0.139
2494,0.146,0.139
2495,0.156,0.139
2496,0.168,0.147
2497,0.180,0.147
2498,0.194,0.147
2499,0.208,0.147
2500,0.221,0.152
2501,0.234,0.152
2502,0.244,0.152
2503,0.254,0.152
2504,0.261,0.157
2505,0.267,0.157
2506,0.270,0.157
2507,0.272,0.157
2508,0.270,0.157
2509,0.268,0.157
2510,0.262,0.157
2511,0.256,0.157
2512,0.246,0.157
2513,0.237,0.157
2514,0.225,0.157
2515,0.212,0.157
2516,0.197,0.157
2517,0.182,0.157
2518,0.168,0.157
2519,0.153,0.157
2520,0.140,0.157
2521,0.127,0.157
2522,0.115,0.157
2523,0.102,0.157
2524,0.091,0.152
2525,0.080,0.152
2526,0.070,0.152
2527,0.061,0.152
2528,0.052,0.147
2529,0.043,0.147
2530,0.035,0.147
2531,0.026,0.147
2532,0.018,0.143
2533,0.011,0.143
2534,0.004,0.143
2535,-0.003,0.143
2536,-0.009,0.135
2537,-0.014,0.135
2538,-0.019,0.135
2539,-0.024,0.135
2540,-0.027,0.126
2541,-0.030,0.126
2542,-0.030,0.126
2543,-0.031,0.126
2544,-0.032,0.117
2545,-0.033,0.117
2546,-0.034,0.117
2547,-0.034,0.117
2548,-0.034,0.112
2549,-0.033,0.112
2550,-0.033,0.112
2551,-0.033,0.112
2552,-0.033,0.103
2553,-0.033,0.103
2554,-0.033,0.103
2555,-0.033,0.103
2556,-0.033,0.094
2557,-0.032,0.094
2558,-0.030,0.094
2559,-0.029,0.094
2560,-0.028,0.085
2561,-0.027,0.085
2562,-0.028,0.085
2563,-0.028,0.085
2564,-0.029,0.081
2565,-0.030,0.081
2566,-0.029,0.081
2567,-0.029,0.081
2568,-0.028,0.068
2569,-0.027,0.068
2570,-0.026,0.068
2571,-0.025,0.068
2572,-0.022,0.063
2573,-0.020,0.063
2574,-0.002,0.063
2575,0.016,0.063
2576,0.065,0.050
2577,0.114,0.050
2578,0.191,0.050
2579,0.268,0.050
2580,0.344,0.041
2581,0.419,0.041
2582,0.455,0.041
2583,0.491,0.041
2584,0.462,0.032
2585,0.432,0.032
2586,0.344,0.032
2587,0.257,0.032
2588,0.145,0.027
2589,0.034,0.027
2590,-0.068,0.027
2591,-0.170,0.027
2592,-0.243,0.009
2593,-0.316,0.009
2594,-0.359,0.009
2595,-0.402,0.009
2596,-0.415,0.000
2597,-0.428,0.000
2598,-0.413,0.000
2599,-0.399,0.000
2600,-0.363,-0.004
2601,-0.327,-0.004
2602,-0.281,-0.004
2603,-0.235,-0.004
2604,-0.190,-0.013
2605,-0.145,-0.013
2606,-0.111,-0.013
2607,-0.076,-0.013
2608,-0.054,-0.023
2609,-0.032,-0.023
2610,-0.021,-0.023
2611,-0.010,-0.023
2612,-0.006,-0.032
2613,-0.002,-0.032
2614,-0.001,-0.032
2615,0.001,-0.032
2616,0.002,-0.045
2617,0.002,-0.045
2618,0.001,-0.045
2619,0.000,-0.045
2620,-0.002,-0.054
2621,-0.003,-0.054
2622,-0.004,-0.054
2623,-0.006,-0.054
2624,-0.007,-0.064
2625,-0.009,-0.064
2626,-0.010,-0.064
2627,-0.011,-0.064
2628,-0.011,-0.072
2629,-0.010,-0.072
2630,-0.009,-0.072
2631,-0.009,-0.072
2632,-0.009,-0.082
2633,-0.009,-0.082
2634,-0.009,-0.082
2635,-0.009,-0.082
2636,-0.009,-0.086
2637,-0.009,-0.086
2638,-0.009,-0.086
2639,-0.009,-0.086
2640,-0.009,-0.096
2641,-0.010,-0.096
2642,-0.011,-0.096
2643,-0.011,-0.096
2644,-0.011,-0.104
2645,-0.011,-0.104
2646,-0.011,-0.104
2647,-0.012,-0.104
2648,-0.013,-0.114
2649,-0.015,-0.114
2650,-0.015,-0.114
2651,-0.015,-0.114
2652,-0.015,-0.122
2653,-0.015,-0.122
2654,-0.015,-0.122
2655,-0.015,-0.122
2656,-0.015,-0.122
2657,-0.015,-0.122
2658,-0.015,-0.122
2659,-0.015,-0.122
2660,-0.015,-0.127
2661,-0.015,-0.127
2662,-0.015,-0.127
2663,-0.016,-0.127
2664,-0.018,-0.132
2665,-0.019,-0.132
2666,-0.021,-0.132
2667,-0.024,-0.132
2668,-0.027,-0.141
2669,-0.030,-0.141
2670,-0.033,-0.141
2671,-0.035,-0.141
2672,-0.038,-0.145
2673,-0.041,-0.145
2674,-0.044,-0.145
2675,-0.047,-0.145
2676,-0.049,-0.145
2677,-0.051,-0.145
2678,-0.052,-0.145
2679,-0.053,-0.145
2680,-0.055,-0.154
2681,-0.057,-0.154
2682,-0.060,-0.154
2683,-0.063,-0.154
2684,-0.065,-0.149
2685,-0.066,-0.149
2686,-0.066,-0.149
2687,-0.066,-0.149
2688,-0.063,-0.145
2689,-0.060,-0.145
2690,-0.055,-0.145
2691,-0.050,-0.145
2692,-0.044,-0.136
2693,-0.039,-0.136
2694,-0.035,-0.136
2695,-0.030,-0.136
2696,-0.025,-0.136
2697,-0.020,-0.136
2698,-0.014,-0.136
2699,-0.008,-0.136
2700,-0.001,-0.118
2701,0.006,-0.118
2702,0.014,-0.118
2703,0.022,-0.118
2704,0.029,-0.104
2705,0.036,-0.104
2706,0.043,-0.104
2707,0.049,-0.104
2708,0.054,-0.091
2709,0.060,-0.091
2710,0.062,-0.091
2711,0.065,-0.091
2712,0.066,-0.072
2713,0.067,-0.072
2714,0.066,-0.072
2715,0.064,-0.072
2716,0.063,-0.054
2717,0.062,-0.054
2718,0.061,-0.054
2719,0.061,-0.054
2720,0.059,-0.032
2721,0.058,-0.032
2722,0.056,-0.032
2723,0.054,-0.032
2724,0.052,-0.014
2725,0.050,-0.014
2726,0.049,-0.014
2727,0.047,-0.014
2728,0.046,0.004
2729,0.046,0.004
2730,0.044,0.004
2731,0.043,0.004
2732,0.041,0.018
2733,0.038,0.018
2734,0.035,0.018
2735,0.032,0.018
2736,0.030,0.041
2737,0.028,0.041
2738,0.026,0.041
2739,0.025,0.041
2740,0.024,0.050
2741,0.022,0.050
2742,0.021,0.050
2743,0.021,0.050
2744,0.022,0.068
2745,0.023,0.068
2746,0.024,0.068
2747,0.024,0.068
2748,0.024,0.082
2749,0.024,0.082
2750,0.024,0.082
2751,0.024,0.082
2752,0.024,0.086
2753,0.024,0.086
2754,0.025,0.086
2755,0.026,0.086
2756,0.028,0.100
2757,0.030,0.100
2758,0.031,0.100
2759,0.032,0.100
2760,0.033,0.108
2761,0.033,0.108
2762,0.034,0.108
2763,0.035,0.108
2764,0.037,0.117
2765,0.039,0.117
2766,0.043,0.117
2767,0.047,0.117
2768,0.053,0.122
2769,0.059,0.122
2770,0.069,0.122
2771,0.078,0.122
2772,0.090,0.131
2773,0.103,0.131
2774,0.117,0.131
2775,0.131,0.131
2776,0.145,0.141
2777,0.160,0.141
2778,0.174,0.141
2779,0.188,0.141
2780,0.201,0.145
2781,0.214,0.145
2782,0.225,0.145
2783,0.235,0.145
2784,0.242,0.145
2785,0.250,0.145
2786,0.254,0.145
2787,0.258,0.145
2788,0.259,0.149
2789,0.259,0.149
2790,0.256,0.149
2791,0.253,0.149
2792,0.247,0.145
2793,0.241,0.145
2794,0.231,0.145
2795,0.221,0.145
2796,0.207,0.149
2797,0.194,0.149
2798,0.177,0.149
2799,0.161,0.149
2800,0.143,0.141
2801,0.126,0.141
2802,0.110,0.141
2803,0.094,0.141
2804,0.082,0.136
2805,0.070,0.136
2806,0.060,0.136
2807,0.050,0.136
2808,0.042,0.131
2809,0.033,0.131
2810,0.025,0.131
2811,0.017,0.131
2812,0.009,0.122
2813,0.000,0.122
2814,-0.007,0.122
2815,-0.014,0.122
2816,-0.019,0.122
2817,-0.025,0.122
2818,-0.029,0.122
2819,-0.034,0.122
2820,-0.036,0.113
2821,-0.038,0.113
2822,-0.039,0.113
2823,-0.040,0.113
2824,-0.041,0.104
2825,-0.042,0.104
2826,-0.043,0.104
2827,-0.044,0.104
2828,-0.046,0.095
2829,-0.049,0.095
2830,-0.050,0.095
2831,-0.051,0.095
2832,-0.051,0.095
2833,-0.052,0.095
2834,-0.051,0.095
2835,-0.051,0.095
2836,-0.049,0.086
2837,-0.047,0.086
2838,-0.045,0.086
2839,-0.043,0.086
2840,-0.042,0.077
2841,-0.041,0.077
2842,-0.041,0.077
2843,-0.041,0.077
2844,-0.043,0.068
2845,-0.044,0.068
2846,-0.046,0.068
2847,-0.048,0.068
2848,-0.048,0.063
2849,-0.047,0.063
2850,-0.046,0.063
2851,-0.045,0.063
2852,-0.045,0.054
2853,-0.045,0.054
2854,-0.036,0.054
2855,-0.027,0.054
2856,0.007,0.045
2857,0.041,0.045
2858,0.107,0.045
2859,0.174,0.045
2860,0.256,0.032
2861,0.338,0.032
2862,0.397,0.032
2863,0.455,0.032
2864,0.454,0.022
2865,0.452,0.022
2866,0.385,0.022
2867,0.318,0.022
2868,0.211,0.018
2869,0.105,0.018
2870,-0.003,0.018
2871,-0.111,0.018
2872,-0.197,0.009
2873,-0.282,0.009
2874,-0.337,0.009
2875,-0.392,0.009
2876,-0.417,0.000
2877,-0.443,0.000
2878,-0.441,0.000
2879,-0.438,0.000
2880,-0.412,-0.009
2881,-0.386,-0.009
2882,-0.343,-0.009
2883,-0.300,-0.009
2884,-0.254,-0.028
2885,-0.207,-0.028
2886,-0.168,-0.028
2887,-0.128,-0.028
2888,-0.102,-0.032
2889,-0.075,-0.032
2890,-0.060,-0.032
2891,-0.045,-0.032
2892,-0.038,-0.041
2893,-0.031,-0.041
2894,-0.029,-0.041
2895,-0.026,-0.041
2896,-0.027,-0.045
2897,-0.028,-0.045
2898,-0.029,-0.045
2899,-0.031,-0.045
2900,-0.033,-0.050
2901,-0.034,-0.050
2902,-0.036,-0.050
2903,-0.038,-0.050
2904,-0.040,-0.059
2905,-0.041,-0.059
2906,-0.043,-0.059
2907,-0.044,-0.059
2908,-0.044,-0.064
2909,-0.045,-0.064
2910,-0.044,-0.064
2911,-0.044,-0.064
2912,-0.044,-0.068
2913,-0.045,-0.068
2914,-0.046,-0.068
2915,-0.047,-0.068
2916,-0.048,-0.077
2917,-0.048,-0.077
2918,-0.048,-0.077
2919,-0.048,-0.077
2920,-0.048,-0.086
2921,-0.048,-0.086
2922,-0.048,-0.086
2923,-0.048,-0.086
2924,-0.049,-0.091
2925,-0.049,-0.091
2926,-0.050,-0.091
2927,-0.050,-0.091
2928,-0.049,-0.100
2929,-0.048,-0.100
2930,-0.045,-0.100
2931,-0.043,-0.100
2932,-0.040,-0.104
2933,-0.037,-0.104
2934,-0.036,-0.104
2935,-0.035,-0.104
2936,-0.035,-0.114
2937,-0.034,-0.114
2938,-0.034,-0.114
2939,-0.034,-0.114
2940,-0.035,-0.122
2941,-0.036,-0.122
2942,-0.037,-0.122
2943,-0.038,-0.122
2944,-0.040,-0.132
2945,-0.042,-0.132
2946,-0.045,-0.132
2947,-0.049,-0.132
2948,-0.053,-0.136
2949,-0.057,-0.136
2950,-0.060,-0.136
2951,-0.064,-0.136
2952,-0.068,-0.141
2953,-0.071,-0.141
2954,-0.074,-0.141
2955,-0.078,-0.141
2956,-0.082,-0.141
2957,-0.086,-0.141
2958,-0.090,-0.141
2959,-0.094,-0.141
2960,-0.097,-0.141
2961,-0.099,-0.141
2962,-0.100,-0.141
2963,-0.101,-0.141
2964,-0.102,-0.145
2965,-0.102,-0.145
2966,-0.102,-0.145
2967,-0.103,-0.145
2968,-0.103,-0.136
2969,-0.103,-0.136
2970,-0.102,-0.136
2971,-0.102,-0.136
2972,-0.100,-0.132
2973,-0.098,-0.132
2974,-0.093,-0.132
2975,-0.089,-0.132
2976,-0.083,-0.122
2977,-0.076,-0.122
2978,-0.069,-0.122
2979,-0.061,-0.122
2980,-0.053,-0.114
2981,-0.045,-0.114
2982,-0.038,-0.114
2983,-0.031,-0.114
2984,-0.025,-0.100
2985,-0.018,-0.100
2986,-0.012,-0.100
2987,-0.006,-0.100
2988,-0.001,-0.082
2989,0.005,-0.082
2990,0.009,-0.082
2991,0.013,-0.082
2992,0.016,-0.064
2993,0.019,-0.064
2994,0.021,-0.064
2995,0.023,-0.064
2996,0.024,-0.045
2997,0.025,-0.045
2998,0.025,-0.045
2999,0.026,-0.045
3000,0.025,-0.028
3001,0.024,-0.028
3002,0.022,-0.028
3003,0.021,-0.028
3004,0.019,-0.009
3005,0.017,-0.009
3006,0.013,-0.009
3007,0.010,-0.009
3008,0.007,0.013
3009,0.004,0.013
3010,0.002,0.013
3011,0.000,0.013
3012,-0.001,0.027
3013,-0.002,0.027
3014,-0.003,0.027
3015,-0.004,0.027
3016,-0.006,0.045
3017,-0.008,0.045
3018,-0.009,0.045
3019,-0.011,0.045
3020,-0.011,0.054
3021,-0.011,0.054
3022,-0.011,0.054
3023,-0.011,0.054
3024,-0.011,0.072
3025,-0.011,0.072
3026,-0.011,0.072
3027,-0.012,0.072
3028,-0.013,0.086
3029,-0.015,0.086
3030,-0.015,0.086
3031,-0.015,0.086
3032,-0.015,0.090
3033,-0.015,0.090
3034,-0.015,0.090
3035,-0.015,0.090
3036,-0.015,0.100
3037,-0.015,0.100
3038,-0.015,0.100
3039,-0.014,0.100
3040,-0.013,0.113
3041,-0.011,0.113
3042,-0.009,0.113
3043,-0.006,0.113
3044,-0.003,0.122
3045,0.001,0.122
3046,0.005,0.122
3047,0.010,0.122
3048,0.016,0.131
3049,0.022,0.131
3050,0.031,0.131
3051,0.040,0.131
3052,0.052,0.136
3053,0.064,0.136
3054,0.077,0.136
3055,0.091,0.136
3056,0.105,0.136
3057,0.119,0.136
3058,0.132,0.136
3059,0.144,0.136
3060,0.154,0.145
3061,0.165,0.145
3062,0.173,0.145
3063,0.181,0.145
3064,0.184,0.149
3065,0.187,0.149
3066,0.186,0.149
3067,0.185,0.149
3068,0.181,0.154
3069,0.177,0.154
3070,0.170,0.154
3071,0.163,0.154
3072,0.152,0.154
3073,0.142,0.154
3074,0.130,0.154
3075,0.118,0.154
3076,0.105,0.159
3077,0.093,0.159
3078,0.081,0.159
3079,0.068,0.159
3080,0.058,0.154
3081,0.047,0.154
3082,0.039,0.154
3083,0.031,0.154
3084,0.023,0.159
3085,0.015,0.159
3086,0.007,0.159
3087,-0.001,0.159
3088,-0.009,0.145
3089,-0.018,0.145
3090,-0.026,0.145
3091,-0.034,0.145
3092,-0.043,0.141
3093,-0.051,0.141
3094,-0.058,0.141
3095,-0.065,0.141
3096,-0.070,0.136
3097,-0.076,0.136
3098,-0.080,0.136
3099,-0.083,0.136
3100,-0.086,0.131
3101,-0.088,0.131
3102,-0.090,0.131
3103,-0.093,0.131
3104,-0.094,0.122
3105,-0.095,0.122
3106,-0.096,0.122
3107,-0.097,0.122
3108,-0.098,0.108
3109,-0.098,0.108
3110,-0.097,0.108
3111,-0.096,0.108
3112,-0.096,0.104
3113,-0.095,0.104
3114,-0.095,0.104
3115,-0.094,0.104
3116,-0.093,0.090
3117,-0.093,0.090
3118,-0.093,0.090
3119,-0.093,0.090
3120,-0.094,0.079
3121,-0.095,0.079
3122,-0.096,0.079
3123,-0.097,0.079
3124,-0.098,0.074
3125,-0.099,0.074
3126,-0.100,0.074
3127,-0.101,0.074
3128,-0.104,0.060
3129,-0.108,0.060
3130,-0.113,0.060
3131,-0.117,0.060
3132,-0.113,0.056
3133,-0.108,0.056
3134,-0.074,0.056
3135,-0.041,0.056
3136,0.032,0.046
3137,0.105,0.046
3138,0.199,0.046
3139,0.293,0.046
3140,0.364,0.037
3141,0.436,0.037
3142,0.445,0.037
3143,0.453,0.037
3144,0.388,0.028
3145,0.322,0.028
3146,0.210,0.028
3147,0.099,0.028
3148,-0.015,0.018
3149,-0.130,0.018
3150,-0.217,0.018
3151,-0.305,0.018
3152,-0.358,0.014
3153,-0.412,0.014
3154,-0.434,0.014
3155,-0.456,0.014
3156,-0.452,-0.004
3157,-0.447,-0.004
3158,-0.421,-0.004
3159,-0.396,-0.004
3160,-0.357,-0.009
3161,-0.318,-0.009
3162,-0.276,-0.009
3163,-0.234,-0.009
3164,-0.200,-0.014
3165,-0.165,-0.014
3166,-0.140,-0.014
3167,-0.115,-0.014
3168,-0.098,-0.023
3169,-0.081,-0.023
3170,-0.071,-0.023
3171,-0.061,-0.023
3172,-0.057,-0.037
3173,-0.052,-0.037
3174,-0.052,-0.037
3175,-0.052,-0.037
3176,-0.053,-0.042
3177,-0.055,-0.042
3178,-0.057,-0.042
3179,-0.059,-0.042
3180,-0.061,-0.051
3181,-0.064,-0.051
3182,-0.065,-0.051
3183,-0.066,-0.051
3184,-0.067,-0.056
3185,-0.067,-0.056
3186,-0.068,-0.056
3187,-0.069,-0.056
3188,-0.070,-0.065
3189,-0.070,-0.065
3190,-0.070,-0.065
3191,-0.070,-0.065
3192,-0.070,-0.079
3193,-0.070,-0.079
3194,-0.070,-0.079
3195,-0.071,-0.079
3196,-0.072,-0.083
3197,-0.073,-0.083
3198,-0.074,-0.083
3199,-0.075,-0.083
3200,-0.075,-0.088
3201,-0.075,-0.088
3202,-0.075,-0.088
3203,-0.075,-0.088
3204,-0.075,-0.097
3205,-0.076,-0.097
3206,-0.077,-0.097
3207,-0.078,-0.097
3208,-0.077,-0.102
3209,-0.077,-0.102
3210,-0.077,-0.102
3211,-0.077,-0.102
3212,-0.077,-0.106
3213,-0.077,-0.106
3214,-0.077,-0.106
3215,-0.077,-0.106
3216,-0.078,-0.111
3217,-0.079,-0.111
3218,-0.082,-0.111
3219,-0.084,-0.111
3220,-0.087,-0.120
3221,-0.090,-0.120
3222,-0.091,-0.120
3223,-0.093,-0.120
3224,-0.095,-0.125
3225,-0.097,-0.125
3226,-0.100,-0.125
3227,-0.103,-0.125
3228,-0.105,-0.134
3229,-0.108,-0.134
3230,-0.111,-0.134
3231,-0.114,-0.134
3232,-0.117,-0.139
3233,-0.119,-0.139
3234,-0.122,-0.139
3235,-0.125,-0.139
3236,-0.128,-0.143
3237,-0.131,-0.143
3238,-0.134,-0.143
3239,-0.136,-0.143
3240,-0.139,-0.143
3241,-0.142,-0.143
3242,-0.144,-0.143
3243,-0.146,-0.143
3244,-0.147,-0.148
3245,-0.148,-0.148
3246,-0.148,-0.148
3247,-0.149,-0.148
3248,-0.148,-0.143
3249,-0.147,-0.143
3250,-0.145,-0.143
3251,-0.144,-0.143
3252,-0.141,-0.139
3253,-0.139,-0.139
3254,-0.134,-0.139
3255,-0.128,-0.139
3256,-0.121,-0.125
3257,-0.115,-0.125
3258,-0.107,-0.125
3259,-0.099,-0.125
3260,-0.091,-0.116
3261,-0.083,-0.116
3262,-0.073,-0.116
3263,-0.063,-0.116
3264,-0.053,-0.102
3265,-0.043,-0.102
3266,-0.035,-0.102
3267,-0.028,-0.102
3268,-0.024,-0.083
3269,-0.020,-0.083
3270,-0.017,-0.083
3271,-0.014,-0.083
3272,-0.013,-0.070
3273,-0.011,-0.070
3274,-0.011,-0.070
3275,-0.011,-0.070
3276,-0.011,-0.051
3277,-0.011,-0.051
3278,-0.011,-0.051
3279,-0.011,-0.051
3280,-0.011,-0.028
3281,-0.011,-0.028
3282,-0.011,-0.028
3283,-0.012,-0.028
3284,-0.013,-0.009
3285,-0.015,-0.009
3286,-0.015,-0.009
3287,-0.015,-0.009
3288,-0.015,0.004
3289,-0.016,0.004
3290,-0.017,0.004
3291,-0.018,0.004
3292,-0.019,0.023
3293,-0.020,0.023
3294,-0.021,0.023
3295,-0.023,0.023
3296,-0.025,0.042
3297,-0.026,0.042
3298,-0.028,0.042
3299,-0.030,0.042
3300,-0.030,0.051
3301,-0.030,0.051
3302,-0.029,0.051
3303,-0.029,0.051
3304,-0.028,0.065
3305,-0.027,0.065
3306,-0.025,0.065
3307,-0.024,0.065
3308,-0.024,0.074
3309,-0.023,0.074
3310,-0.022,0.074
3311,-0.022,0.074
3312,-0.022,0.092
3313,-0.022,0.092
3314,-0.022,0.092
3315,-0.022,0.092
3316,-0.021,0.097
3317,-0.021,0.097
3318,-0.020,0.097
3319,-0.019,0.097
3320,-0.018,0.111
3321,-0.016,0.111
3322,-0.014,0.111
3323,-0.012,0.111
3324,-0.007,0.120
3325,-0.003,0.120
3326,0.004,0.120
3327,0.010,0.120
3328,0.019,0.125
3329,0.029,0.125
3330,0.042,0.125
3331,0.055,0.125
3332,0.069,0.130
3333,0.083,0.130
3334,0.097,0.130
3335,0.111,0.130
3336,0.124,0.134
3337,0.137,0.134
3338,0.147,0.134
3339,0.157,0.134
3340,0.164,0.130
3341,0.170,0.130
3342,0.173,0.130
3343,0.176,0.130
3344,0.175,0.134
3345,0.175,0.134
3346,0.172,0.134
3347,0.169,0.134
3348,0.164,0.130
3349,0.159,0.130
3350,0.152,0.130
3351,0.145,0.130
3352,0.136,0.130
3353,0.127,0.130
3354,0.116,0.130
3355,0.105,0.130
3356,0.094,0.125
3357,0.083,0.125
3358,0.072,0.125
3359,0.061,0.125
3360,0.052,0.120
3361,0.043,0.120
3362,0.035,0.120
3363,0.027,0.120
3364,0.021,0.111
3365,0.014,0.111
3366,0.007,0.111
3367,0.001,0.111
3368,-0.005,0.102
3369,-0.011,0.102
3370,-0.018,0.102
3371,-0.024,0.102
3372,-0.029,0.097
3373,-0.035,0.097
3374,-0.039,0.097
3375,-0.043,0.097
3376,-0.047,0.080
3377,-0.051,0.080
3378,-0.052,0.080
3379,-0.054,0.080
3380,-0.054,0.070
3381,-0.055,0.070
3382,-0.056,0.070
3383,-0.056,0.070
3384,-0.058,0.057
3385,-0.059,0.057
3386,-0.059,0.057
3387,-0.059,0.057
3388,-0.059,0.052
3389,-0.058,0.052
3390,-0.057,0.052
3391,-0.055,0.052
3392,-0.053,0.043
3393,-0.051,0.043
3394,-0.049,0.043
3395,-0.047,0.043
3396,-0.045,0.028
3397,-0.044,0.028
3398,-0.045,0.028
3399,-0.046,0.028
3400,-0.049,0.024
3401,-0.051,0.024
3402,-0.054,0.024
3403,-0.057,0.024
3404,-0.060,0.014
3405,-0.063,0.014
3406,-0.066,0.014
3407,-0.069,0.014
3408,-0.073,0.004
3409,-0.078,0.004
3410,-0.077,0.004
3411,-0.076,0.004
3412,-0.052,0.004
3413,-0.028,0.004
3414,0.036,0.004
3415,0.100,0.004
3416,0.192,-0.009
3417,0.284,-0.009
3418,0.364,-0.009
3419,0.445,-0.009
3420,0.469,-0.009
3421,0.492,-0.009
3422,0.441,-0.009
3423,0.389,-0.009
3424,0.282,-0.024
3425,0.176,-0.024
3426,0.058,-0.024
3427,-0.061,-0.024
3428,-0.156,-0.033
3429,-0.251,-0.033
3430,-0.311,-0.033
3431,-0.372,-0.033
3432,-0.401,-0.043
3433,-0.430,-0.043
3434,-0.430,-0.043
3435,-0.431,-0.043
3436,-0.408,-0.052
3437,-0.385,-0.052
3438,-0.345,-0.052
3439,-0.306,-0.052
3440,-0.262,-0.066
3441,-0.217,-0.066
3442,-0.178,-0.066
3443,-0.140,-0.066
3444,-0.112,-0.071
3445,-0.084,-0.071
3446,-0.067,-0.071
3447,-0.049,-0.071
3448,-0.040,-0.085
3449,-0.030,-0.085
3450,-0.027,-0.085
3451,-0.024,-0.085
3452,-0.025,-0.099
3453,-0.025,-0.099
3454,-0.026,-0.099
3455,-0.027,-0.099
3456,-0.028,-0.108
3457,-0.029,-0.108
3458,-0.029,-0.108
3459,-0.030,-0.108
3460,-0.030,-0.118
3461,-0.031,-0.118
3462,-0.032,-0.118
3463,-0.033,-0.118
3464,-0.034,-0.128
3465,-0.034,-0.128
3466,-0.034,-0.128
3467,-0.033,-0.128
3468,-0.034,-0.137
3469,-0.034,-0.137
3470,-0.035,-0.137
3471,-0.036,-0.137
3472,-0.037,-0.146
3473,-0.038,-0.146
3474,-0.039,-0.146
3475,-0.040,-0.146
3476,-0.041,-0.146
3477,-0.041,-0.146
3478,-0.041,-0.146
3479,-0.040,-0.146
3480,-0.040,-0.156
3481,-0.039,-0.156
3482,-0.038,-0.156
3483,-0.037,-0.156
3484,-0.037,-0.165
3485,-0.037,-0.165
3486,-0.037,-0.165
3487,-0.037,-0.165
3488,-0.037,-0.174
3489,-0.037,-0.174
3490,-0.037,-0.174
3491,-0.037,-0.174
3492,-0.037,-0.174
3493,-0.037,-0.174
3494,-0.037,-0.174
3495,-0.037,-0.174
3496,-0.037,-0.184
3497,-0.038,-0.184
3498,-0.040,-0.184
3499,-0.041,-0.184
3500,-0.043,-0.189
3501,-0.045,-0.189
3502,-0.048,-0.189
3503,-0.050,-0.189
3504,-0.053,-0.199
3505,-0.056,-0.199
3506,-0.059,-0.199
3507,-0.063,-0.199
3508,-0.066,-0.203
3509,-0.068,-0.203
3510,-0.071,-0.203
3511,-0.075,-0.203
3512,-0.079,-0.207
3513,-0.082,-0.207
3514,-0.086,-0.207
3515,-0.090,-0.207
3516,-0.093,-0.203
3517,-0.096,-0.203
3518,-0.098,-0.203
3519,-0.100,-0.203
3520,-0.102,-0.203
3521,-0.103,-0.203
3522,-0.104,-0.203
3523,-0.106,-0.203
3524,-0.106,-0.207
3525,-0.107,-0.207
3526,-0.106,-0.207
3527,-0.105,-0.207
3528,-0.103,-0.199
3529,-0.102,-0.199
3530,-0.099,-0.199
3531,-0.096,-0.199
3532,-0.091,-0.189
3533,-0.086,-0.189
3534,-0.077,-0.189
3535,-0.069,-0.189
3536,-0.060,-0.179
3537,-0.051,-0.179
3538,-0.042,-0.179
3539,-0.033,-0.179
3540,-0.024,-0.165
3541,-0.015,-0.165
3542,-0.005,-0.165
3543,0.004,-0.165
3544,0.011,-0.151
3545,0.019,-0.151
3546,0.024,-0.151
3547,0.028,-0.151
3548,0.030,-0.128
3549,0.033,-0.128
3550,0.035,-0.128
3551,0.038,-0.128
3552,0.039,-0.104
3553,0.040,-0.104
3554,0.040,-0.104
3555,0.040,-0.104
3556,0.040,-0.085
3557,0.039,-0.085
3558,0.037,-0.085
3559,0.036,-0.085
3560,0.035,-0.066
3561,0.033,-0.066
3562,0.032,-0.066
3563,0.031,-0.066
3564,0.029,-0.043
3565,0.028,-0.043
3566,0.026,-0.043
3567,0.025,-0.043
3568,0.023,-0.029
3569,0.021,-0.029
3570,0.019,-0.029
3571,0.018,-0.029
3572,0.018,-0.005
3573,0.017,-0.005
3574,0.018,-0.005
3575,0.018,-0.005
3576,0.018,0.004
3577,0.017,0.004
3578,0.016,0.004
3579,0.015,0.004
3580,0.014,0.019
3581,0.013,0.019
3582,0.012,0.019
3583,0.011,0.019
3584,0.011,0.033
3585,0.010,0.033
3586,0.010,0.033
3587,0.010,0.033
3588,0.009,0.043
3589,0.009,0.043
3590,0.009,0.043
3591,0.010,0.043
3592,0.011,0.052
3593,0.011,0.052
3594,0.011,0.052
3595,0.012,0.052
3596,0.013,0.057
3597,0.014,0.057
3598,0.015,0.057
3599,0.016,0.057
3600,0.017,0.066
3601,0.017,0.066
3602,0.018,0.066
3603,0.020,0.066
3604,0.021,0.075
3605,0.022,0.075
3606,0.025,0.075
3607,0.027,0.075
3608,0.031,0.085
3609,0.035,0.085
3610,0.041,0.085
3611,0.047,0.085
3612,0.054,0.095
3613,0.062,0.095
3614,0.071,0.095
3615,0.081,0.095
3616,0.092,0.095
3617,0.104,0.095
3618,0.117,0.095
3619,0.129,0.095
3620,0.143,0.099
3621,0.157,0.099
3622,0.171,0.099
3623,0.184,0.099
3624,0.197,0.099
3625,0.209,0.099
3626,0.219,0.099
3627,0.229,0.099
3628,0.234,0.108
3629,0.238,0.108
3630,0.237,0.108
3631,0.237,0.108
3632,0.232,0.108
3633,0.227,0.108
3634,0.219,0.108
3635,0.211,0.108
3636,0.200,0.108
3637,0.188,0.108
3638,0.175,0.108
3639,0.162,0.108
3640,0.149,0.104
3641,0.137,0.104
3642,0.124,0.104
3643,0.111,0.104
3644,0.099,0.100
3645,0.087,0.100
3646,0.077,0.100
3647,0.068,0.100
3648,0.059,0.090
3649,0.051,0.090
3650,0.043,0.090
3651,0.036,0.090
3652,0.029,0.085
3653,0.022,0.085
3654,0.015,0.085
3655,0.009,0.085
3656,0.003,0.071
3657,-0.003,0.071
3658,-0.008,0.071
3659,-0.013,0.071
3660,-0.017,0.067
3661,-0.020,0.067
3662,-0.021,0.067
3663,-0.023,0.067
3664,-0.022,0.057
3665,-0.022,0.057
3666,-0.022,0.057
3667,-0.022,0.057
3668,-0.021,0.048
3669,-0.021,0.048
3670,-0.021,0.048
3671,-0.020,0.048
3672,-0.021,0.043
3673,-0.021,0.043
3674,-0.022,0.043
3675,-0.023,0.043
3676,-0.024,0.033
3677,-0.024,0.033
3678,-0.024,0.033
3679,-0.024,0.033
3680,-0.023,0.029
3681,-0.022,0.029
3682,-0.022,0.029
3683,-0.022,0.029
3684,-0.022,0.019
3685,-0.023,0.019
3686,-0.025,0.019
3687,-0.026,0.019
3688,-0.028,0.009
3689,-0.030,0.009
3690,-0.030,0.009
3691,-0.031,0.009
3692,-0.033,0.009
3693,-0.035,0.009
3694,-0.036,0.009
3695,-0.038,0.009
3696,-0.026,0.000
3697,-0.015,0.000
3698,0.027,0.000
3699,0.069,0.000
3700,0.144,-0.004
3701,0.220,-0.004
3702,0.305,-0.004
3703,0.390,-0.004
3704,0.443,-0.018
3705,0.495,-0.018
3706,0.481,-0.018
3707,0.467,-0.018
3708,0.388,-0.024
3709,0.309,-0.024
3710,0.197,-0.024
3711,0.085,-0.024
3712,-0.021,-0.028
3713,-0.128,-0.028
3714,-0.208,-0.028
3715,-0.288,-0.028
3716,-0.337,-0.043
3717,-0.385,-0.043
3718,-0.404,-0.043
3719,-0.423,-0.043
3720,-0.413,-0.051
3721,-0.404,-0.051
3722,-0.371,-0.051
3723,-0.339,-0.051
3724,-0.292,-0.061
3725,-0.246,-0.061
3726,-0.201,-0.061
3727,-0.155,-0.061
3728,-0.118,-0.075
3729,-0.082,-0.075
3730,-0.058,-0.075
3731,-0.033,-0.075
3732,-0.021,-0.075
3733,-0.009,-0.075
3734,-0.004,-0.075
3735,0.001,-0.075
3736,0.003,-0.089
3737,0.005,-0.089
3738,0.006,-0.089
3739,0.007,-0.089
3740,0.006,-0.099
3741,0.006,-0.099
3742,0.005,-0.099
3743,0.004,-0.099
3744,0.003,-0.108
3745,0.002,-0.108
3746,0.001,-0.108
3747,0.000,-0.108
3748,-0.001,-0.118
3749,-0.002,-0.118
3750,-0.003,-0.118
3751,-0.004,-0.118
3752,-0.005,-0.127
3753,-0.007,-0.127
3754,-0.007,-0.127
3755,-0.008,-0.127
3756,-0.008,-0.132
3757,-0.008,-0.132
3758,-0.007,-0.132
3759,-0.006,-0.132
3760,-0.004,-0.146
3761,-0.003,-0.146
3762,-0.002,-0.146
3763,0.000,-0.146
3764,0.002,-0.155
3765,0.003,-0.155
3766,0.004,-0.155
3767,0.004,-0.155
3768,0.004,-0.160
3769,0.004,-0.160
3770,0.005,-0.160
3771,0.006,-0.160
3772,0.007,-0.170
3773,0.008,-0.170
3774,0.007,-0.170
3775,0.007,-0.170
3776,0.006,-0.179
3777,0.006,-0.179
3778,0.005,-0.179
3779,0.004,-0.179
3780,0.003,-0.179
3781,0.002,-0.179
3782,0.001,-0.179
3783,0.000,-0.179
3784,-0.001,-0.184
3785,-0.002,-0.184
3786,-0.003,-0.184
3787,-0.004,-0.184
3788,-0.006,-0.194
3789,-0.008,-0.194
3790,-0.010,-0.194
3791,-0.012,-0.194
3792,-0.014,-0.198
3793,-0.016,-0.198
3794,-0.018,-0.198
3795,-0.019,-0.198
3796,-0.021,-0.198
3797,-0.024,-0.198
3798,-0.027,-0.198
3799,-0.030,-0.198
3800,-0.032,-0.203
3801,-0.034,-0.203
3802,-0.036,-0.203
3803,-0.038,-0.203
3804,-0.040,-0.198
3805,-0.042,-0.198
3806,-0.045,-0.198
3807,-0.048,-0.198
3808,-0.050,-0.194
3809,-0.052,-0.194
3810,-0.051,-0.194
3811,-0.051,-0.194
3812,-0.049,-0.194
3813,-0.047,-0.194
3814,-0.044,-0.194
3815,-0.041,-0.194
3816,-0.037,-0.179
3817,-0.033,-0.179
3818,-0.028,-0.179
3819,-0.023,-0.179
3820,-0.017,-0.174
3821,-0.010,-0.174
3822,-0.003,-0.174
3823,0.005,-0.174
3824,0.013,-0.155
3825,0.022,-0.155
3826,0.029,-0.155
3827,0.036,-0.155
3828,0.042,-0.137
3829,0.048,-0.137
3830,0.053,-0.137
3831,0.058,-0.137
3832,0.062,-0.122
3833,0.066,-0.122
3834,0.069,-0.122
3835,0.071,-0.122
3836,0.072,-0.099
3837,0.073,-0.099
3838,0.073,-0.099
3839,0.074,-0.099
3840,0.074,-0.075
3841,0.074,-0.075
3842,0.072,-0.075
3843,0.071,-0.075
3844,0.069,-0.061
3845,0.067,-0.061
3846,0.067,-0.061
3847,0.066,-0.061
3848,0.065,-0.043
3849,0.063,-0.043
3850,0.061,-0.043
3851,0.059,-0.043
3852,0.058,-0.024
3853,0.056,-0.024
3854,0.054,-0.024
3855,0.052,-0.024
3856,0.051,-0.009
3857,0.049,-0.009
3858,0.049,-0.009
3859,0.048,-0.009
3860,0.048,0.005
3861,0.047,0.005
3862,0.047,0.005
3863,0.047,0.005
3864,0.046,0.019
3865,0.046,0.019
3866,0.045,0.019
3867,0.044,0.019
3868,0.043,0.029
3869,0.042,0.029
3870,0.042,0.029
3871,0.041,0.029
3872,0.041,0.043
3873,0.041,0.043
3874,0.043,0.043
3875,0.044,0.043
3876,0.045,0.052
3877,0.047,0.052
3878,0.048,0.052
3879,0.048,0.052
3880,0.048,0.061
3881,0.047,0.061
3882,0.048,0.061
3883,0.048,0.061
3884,0.049,0.067
3885,0.050,0.067
3886,0.051,0.067
3887,0.053,0.067
3888,0.054,0.087
3889,0.055,0.087
3890,0.058,0.087
3891,0.060,0.087
3892,0.065,0.102
3893,0.069,0.102
3894,0.076,0.102
3895,0.084,0.102
3896,0.094,0.107
3897,0.104,0.107
3898,0.117,0.107
3899,0.129,0.107
3900,0.142,0.112
3901,0.156,0.112
3902,0.169,0.112
3903,0.182,0.112
3904,0.196,0.117
3905,0.209,0.117
3906,0.221,0.117
3907,0.233,0.117
3908,0.243,0.121
3909,0.254,0.121
3910,0.262,0.121
3911,0.269,0.121
3912,0.273,0.121
3913,0.276,0.121
3914,0.276,0.121
3915,0.275,0.121
3916,0.270,0.121
3917,0.265,0.121
3918,0.256,0.121
3919,0.246,0.121
3920,0.234,0.117
3921,0.221,0.117
3922,0.207,0.117
3923,0.193,0.117
3924,0.178,0.117
3925,0.163,0.117
3926,0.149,0.117
3927,0.135,0.117
3928,0.123,0.112
3929,0.112,0.112
3930,0.101,0.112
3931,0.090,0.112
3932,0.080,0.112
3933,0.070,0.112
3934,0.062,0.112
3935,0.054,0.112
3936,0.048,0.102
3937,0.041,0.102
3938,0.035,0.102
3939,0.030,0.102
3940,0.025,0.092
3941,0.020,0.092
3942,0.016,0.092
3943,0.012,0.092
3944,0.009,0.087
3945,0.006,0.087
3946,0.004,0.087
3947,0.001,0.087
3948,-0.002,0.073
3949,-0.004,0.073
3950,-0.006,0.073
3951,-0.009,0.073
3952,-0.009,0.068
3953,-0.010,0.068
3954,-0.009,0.068
3955,-0.008,0.068
3956,-0.007,0.063
3957,-0.006,0.063
3958,-0.004,0.063
3959,-0.003,0.063
3960,-0.002,0.053
3961,-0.001,0.053
3962,-0.001,0.053
3963,-0.001,0.053
3964,-0.003,0.049
3965,-0.004,0.049
3966,-0.006,0.049
3967,-0.008,0.049
3968,-0.009,0.034
3969,-0.011,0.034
3970,-0.011,0.034
3971,-0.011,0.034
3972,-0.011,0.034
3973,-0.010,0.034
3974,-0.009,0.034
3975,-0.008,0.034
3976,-0.008,0.019
3977,-0.008,0.019
3978,-0.007,0.019
3979,-0.006,0.019
3980,0.009,0.015
3981,0.024,0.015
3982,0.070,0.015
3983,0.117,0.015
3984,0.195,0.004
3985,0.273,0.004
3986,0.352,0.004
3987,0.432,0.004
3988,0.473,0.000
3989,0.515,0.000
3990,0.491,0.000
3991,0.467,0.000
3992,0.383,-0.010
3993,0.298,-0.010
3994,0.187,-0.010
3995,0.076,-0.010
3996,-0.025,-0.025
3997,-0.126,-0.025
3998,-0.199,-0.025
3999,-0.272,-0.025
4000,-0.316,-0.035
4001,-0.360,-0.035
4002,-0.376,-0.035
4003,-0.391,-0.035
4004,-0.380,-0.044
4005,-0.369,-0.044
4006,-0.337,-0.044
4007,-0.304,-0.044
4008,-0.258,-0.049
4009,-0.212,-0.049
4010,-0.166,-0.049
4011,-0.120,-0.049
4012,-0.085,-0.054
4013,-0.049,-0.054
4014,-0.026,-0.054
4015,-0.003,-0.054
4016,0.008,-0.059
4017,0.019,-0.059
4018,0.022,-0.059
4019,0.026,-0.059
4020,0.026,-0.073
4021,0.026,-0.073
4022,0.025,-0.073
4023,0.024,-0.073
4024,0.023,-0.083
4025,0.022,-0.083
4026,0.021,-0.083
4027,0.021,-0.083
4028,0.020,-0.088
4029,0.019,-0.088
4030,0.018,-0.088
4031,0.016,-0.088
4032,0.015,-0.093
4033,0.015,-0.093
4034,0.014,-0.093
4035,0.013,-0.093
4036,0.013,-0.102
4037,0.012,-0.102
4038,0.012,-0.102
4039,0.012,-0.102
4040,0.013,-0.107
4041,0.013,-0.107
4042,0.013,-0.107
4043,0.014,-0.107
4044,0.014,-0.113
4045,0.014,-0.113
4046,0.014,-0.113
4047,0.014,-0.113
4048,0.015,-0.122
4049,0.015,-0.122
4050,0.016,-0.122
4051,0.017,-0.122
4052,0.018,-0.132
4053,0.020,-0.132
4054,0.021,-0.132
4055,0.021,-0.132
4056,0.021,-0.137
4057,0.022,-0.137
4058,0.022,-0.137
4059,0.022,-0.137
4060,0.022,-0.146
4061,0.022,-0.146
4062,0.022,-0.146
4063,0.022,-0.146
4064,0.022,-0.156
4065,0.022,-0.156
4066,0.022,-0.156
4067,0.022,-0.156
4068,0.021,-0.156
4069,0.021,-0.156
4070,0.019,-0.156
4071,0.017,-0.156
4072,0.013,-0.166
4073,0.009,-0.166
4074,0.005,-0.166
4075,0.002,-0.166
4076,0.000,-0.171
4077,-0.002,-0.171
4078,-0.004,-0.171
4079,-0.005,-0.171
4080,-0.007,-0.175
4081,-0.009,-0.175
4082,-0.012,-0.175
4083,-0.015,-0.175
4084,-0.018,-0.180
4085,-0.021,-0.180
4086,-0.025,-0.180
4087,-0.028,-0.180
4088,-0.030,-0.180
4089,-0.033,-0.180
4090,-0.034,-0.180
4091,-0.035,-0.180
4092,-0.035,-0.180
4093,-0.035,-0.180
4094,-0.034,-0.180
4095,-0.033,-0.180
4096,-0.030,-0.171
4097,-0.027,-0.171
4098,-0.022,-0.171
4099,-0.018,-0.171
4100,-0.013,-0.166
4101,-0.008,-0.166
4102,-0.003,-0.166
4103,0.002,-0.166
4104,0.008,-0.156
4105,0.014,-0.156
4106,0.021,-0.156
4107,0.028,-0.156
4108,0.035,-0.137
4109,0.042,-0.137
4110,0.049,-0.137
4111,0.055,-0.137
4112,0.061,-0.122
4113,0.067,-0.122
4114,0.072,-0.122
4115,0.078,-0.122
4116,0.082,-0.107
4117,0.086,-0.107
4118,0.089,-0.107
4119,0.092,-0.107
4120,0.093,-0.083
4121,0.095,-0.083
4122,0.095,-0.083
4123,0.095,-0.083
4124,0.095,-0.064
4125,0.094,-0.064
4126,0.092,-0.064
4127,0.091,-0.064
4128,0.089,-0.039
4129,0.087,-0.039
4130,0.086,-0.039
4131,0.084,-0.039
4132,0.083,-0.025
4133,0.082,-0.025
4134,0.082,-0.025
4135,0.081,-0.025
4136,0.080,0.000
4137,0.079,0.000
4138,0.077,0.000
4139,0.076,0.000
4140,0.074,0.019
4141,0.072,0.019
4142,0.070,0.019
4143,0.068,0.019
4144,0.067,0.047
4145,0.065,0.047
4146,0.064,0.047
4147,0.062,0.047
4148,0.061,0.057
4149,0.061,0.057
4150,0.061,0.057
4151,0.061,0.057
4152,0.060,0.067
4153,0.059,0.067
4154,0.059,0.067
4155,0.058,0.067
4156,0.058,0.076
4157,0.058,0.076
4158,0.059,0.076
4159,0.059,0.076
4160,0.060,0.086
4161,0.061,0.086
4162,0.062,0.086
4163,0.063,0.086
4164,0.064,0.100
4165,0.065,0.100
4166,0.067,0.100
4167,0.068,0.100
4168,0.070,0.104
4169,0.071,0.104
4170,0.073,0.104
4171,0.076,0.104
4172,0.079,0.114
4173,0.081,0.114
4174,0.086,0.114
4175,0.091,0.114
4176,0.099,0.123
4177,0.106,0.123
4178,0.117,0.123
4179,0.127,0.123
4180,0.138,0.134
4181,0.149,0.134
4182,0.161,0.134
4183,0.172,0.134
4184,0.184,0.138
4185,0.197,0.138
4186,0.210,0.138
4187,0.224,0.138
4188,0.237,0.143
4189,0.250,0.143
4190,0.261,0.143
4191,0.272,0.143
4192,0.280,0.143
4193,0.287,0.143
4194,0.292,0.143
4195,0.297,0.143
4196,0.298,0.147
4197,0.299,0.147
4198,0.294,0.147
4199,0.290,0.147
4200,0.281,0.143
4201,0.273,0.143
4202,0.262,0.143
4203,0.250,0.143
4204,0.236,0.143
4205,0.223,0.143
4206,0.208,0.143
4207,0.194,0.143
4208,0.180,0.138
4209,0.166,0.138
4210,0.153,0.138
4211,0.141,0.138
4212,0.130,0.134
4213,0.119,0.134
4214,0.108,0.134
4215,0.098,0.134
4216,0.088,0.129
4217,0.079,0.129
4218,0.070,0.129
4219,0.061,0.129
4220,0.053,0.114
4221,0.045,0.114
4222,0.038,0.114
4223,0.032,0.114
4224,0.026,0.110
4225,0.020,0.110
4226,0.016,0.110
4227,0.012,0.110
4228,0.009,0.104
4229,0.006,0.104
4230,0.004,0.104
4231,0.003,0.104
4232,0.003,0.095
4233,0.002,0.095
4234,0.001,0.095
4235,0.000,0.095
4236,-0.001,0.086
4237,-0.001,0.086
4238,-0.001,0.086
4239,0.000,0.086
4240,0.000,0.081
4241,0.000,0.081
4242,0.001,0.081
4243,0.001,0.081
4244,0.003,0.071
4245,0.004,0.071
4246,0.005,0.071
4247,0.007,0.071
4248,0.009,0.061
4249,0.011,0.061
4250,0.011,0.061
4251,0.010,0.061
4252,0.009,0.061
4253,0.007,0.061
4254,0.005,0.061
4255,0.003,0.061
4256,0.004,0.052
4257,0.004,0.052
4258,0.004,0.052
4259,0.005,0.052
4260,0.006,0.047
4261,0.007,0.047
4262,0.015,0.047
4263,0.024,0.047
4264,0.059,0.043
4265,0.094,0.043
4266,0.164,0.043
4267,0.233,0.043
4268,0.318,0.033
4269,0.402,0.033
4270,0.461,0.033
4271,0.520,0.033
4272,0.519,0.028
4273,0.519,0.028
4274,0.453,0.028
4275,0.386,0.028
4276,0.279,0.024
4277,0.171,0.024
4278,0.060,0.024
4279,-0.050,0.024
4280,-0.136,0.014
4281,-0.222,0.014
4282,-0.277,0.014
4283,-0.331,0.014
4284,-0.356,0.009
4285,-0.382,0.009
4286,-0.380,0.009
4287,-0.377,0.009
4288,-0.348,-0.001
4289,-0.319,-0.001
4290,-0.274,-0.001
4291,-0.229,-0.001
4292,-0.181,-0.015
4293,-0.134,-0.015
4294,-0.095,-0.015
4295,-0.055,-0.015
4296,-0.029,-0.025
4297,-0.003,-0.025
4298,0.011,-0.025
4299,0.024,-0.025
4300,0.029,-0.034
4301,0.035,-0.034
4302,0.037,-0.034
4303,0.040,-0.034
4304,0.041,-0.043
4305,0.041,-0.043
4306,0.040,-0.043
4307,0.039,-0.043
4308,0.037,-0.053
4309,0.035,-0.053
4310,0.034,-0.053
4311,0.033,-0.053
4312,0.033,-0.058
4313,0.032,-0.058
4314,0.032,-0.058
4315,0.032,-0.058
4316,0.032,-0.068
4317,0.032,-0.068
4318,0.031,-0.068
4319,0.030,-0.068
4320,0.029,-0.077
4321,0.029,-0.077
4322,0.029,-0.077
4323,0.030,-0.077
4324,0.031,-0.086
4325,0.032,-0.086
4326,0.032,-0.086
4327,0.032,-0.086
4328,0.031,-0.101
4329,0.030,-0.101
4330,0.029,-0.101
4331,0.029,-0.101
4332,0.029,-0.101
4333,0.029,-0.101
4334,0.029,-0.101
4335,0.030,-0.101
4336,0.031,-0.116
4337,0.032,-0.116
4338,0.033,-0.116
4339,0.033,-0.116
4340,0.033,-0.120
4341,0.033,-0.120
4342,0.033,-0.120
4343,0.032,-0.120
4344,0.033,-0.130
4345,0.033,-0.130
4346,0.035,-0.130
4347,0.036,-0.130
4348,0.035,-0.139
4349,0.035,-0.139
4350,0.034,-0.139
4351,0.032,-0.139
4352,0.030,-0.139
4353,0.028,-0.139
4354,0.026,-0.139
4355,0.024,-0.139
4356,0.021,-0.144
4357,0.018,-0.144
4358,0.015,-0.144
4359,0.013,-0.144
4360,0.011,-0.149
4361,0.009,-0.149
4362,0.005,-0.149
4363,0.002,-0.149
4364,-0.002,-0.149
4365,-0.005,-0.149
4366,-0.007,-0.149
4367,-0.009,-0.149
4368,-0.010,-0.149
4369,-0.011,-0.149
4370,-0.011,-0.149
4371,-0.012,-0.149
4372,-0.014,-0.153
4373,-0.016,-0.153
4374,-0.017,-0.153
4375,-0.018,-0.153
4376,-0.018,-0.144
4377,-0.019,-0.144
4378,-0.018,-0.144
4379,-0.018,-0.144
4380,-0.017,-0.144
4381,-0.015,-0.144
4382,-0.012,-0.144
4383,-0.009,-0.144
4384,-0.005,-0.135
4385,-0.001,-0.135
4386,0.006,-0.135
4387,0.013,-0.135
4388,0.021,-0.120
4389,0.029,-0.120
4390,0.036,-0.120
4391,0.043,-0.120
4392,0.051,-0.101
4393,0.058,-0.101
4394,0.065,-0.101
4395,0.072,-0.101
4396,0.077,-0.082
4397,0.083,-0.082
4398,0.088,-0.082
4399,0.093,-0.082
4400,0.097,-0.067
4401,0.100,-0.067
4402,0.102,-0.067
4403,0.104,-0.067
4404,0.106,-0.043
4405,0.109,-0.043
4406,0.110,-0.043
4407,0.111,-0.043
4408,0.110,-0.019
4409,0.108,-0.019
4410,0.106,-0.019
4411,0.105,-0.019
4412,0.103,-0.005
4413,0.101,-0.005
4414,0.097,-0.005
4415,0.093,-0.005
4416,0.089,0.014
4417,0.086,0.014
4418,0.083,0.014
4419,0.079,0.014
4420,0.077,0.033
4421,0.076,0.033
4422,0.076,0.033
4423,0.076,0.033
4424,0.076,0.048
4425,0.077,0.048
4426,0.076,0.048
4427,0.076,0.048
4428,0.074,0.061
4429,0.073,0.061
4430,0.073,0.061
4431,0.073,0.061
4432,0.073,0.076
4433,0.073,0.076
4434,0.073,0.076
4435,0.074,0.076
4436,0.075,0.086
4437,0.076,0.086
4438,0.077,0.086
4439,0.078,0.086
4440,0.079,0.095
4441,0.080,0.095
4442,0.080,0.095
4443,0.080,0.095
4444,0.080,0.104
4445,0.080,0.104
4446,0.080,0.104
4447,0.079,0.104
4448,0.079,0.109
4449,0.078,0.109
4450,0.079,0.109
4451,0.079,0.109
4452,0.080,0.118
4453,0.081,0.118
4454,0.084,0.118
4455,0.087,0.118
4456,0.091,0.123
4457,0.096,0.123
4458,0.103,0.123
4459,0.111,0.123
4460,0.121,0.133
4461,0.131,0.133
4462,0.142,0.133
4463,0.154,0.133
4464,0.168,0.138
4465,0.181,0.138
4466,0.197,0.138
4467,0.212,0.138
4468,0.227,0.142
4469,0.241,0.142
4470,0.255,0.142
4471,0.268,0.142
4472,0.279,0.147
4473,0.289,0.147
4474,0.297,0.147
4475,0.305,0.147
4476,0.308,0.157
4477,0.311,0.157
4478,0.309,0.157
4479,0.307,0.157
4480,0.301,0.157
4481,0.295,0.157
4482,0.286,0.157
4483,0.277,0.157
4484,0.266,0.157
4485,0.254,0.157
4486,0.241,0.157
4487,0.228,0.157
4488,0.214,0.157
4489,0.200,0.157
4490,0.185,0.157
4491,0.170,0.157
4492,0.155,0.157
4493,0.140,0.157
4494,0.127,0.157
4495,0.114,0.157
4496,0.102,0.152
4497,0.090,0.152
4498,0.080,0.152
4499,0.069,0.152
4500,0.061,0.142
4501,0.054,0.142
4502,0.047,0.142
4503,0.040,0.142
4504,0.034,0.142
4505,0.027,0.142
4506,0.021,0.142
4507,0.015,0.142
4508,0.011,0.128
4509,0.006,0.128
4510,0.004,0.128
4511,0.001,0.128
4512,-0.001,0.128
4513,-0.003,0.128
4514,-0.004,0.128
4515,-0.006,0.128
4516,-0.006,0.114
4517,-0.007,0.114
4518,-0.007,0.114
4519,-0.008,0.114
4520,-0.007,0.109
4521,-0.007,0.109
4522,-0.005,0.109
4523,-0.004,0.109
4524,-0.004,0.100
4525,-0.003,0.100
4526,-0.002,0.100
4527,0.000,0.100
4528,0.002,0.100
4529,0.003,0.100
4530,0.004,0.100
4531,0.004,0.100
4532,0.003,0.090
4533,0.002,0.090
4534,0.001,0.090
4535,-0.001,0.090
4536,-0.002,0.081
4537,-0.003,0.081
4538,-0.002,0.081
4539,-0.001,0.081
4540,-0.001,0.076
4541,0.000,0.076
4542,0.001,0.076
4543,0.001,0.076
4544,0.007,0.067
4545,0.014,0.067
4546,0.042,0.067
4547,0.069,0.067
4548,0.131,0.061
4549,0.193,0.061
4550,0.276,0.061
4551,0.358,0.061
4552,0.423,0.057
4553,0.489,0.057
4554,0.499,0.057
4555,0.510,0.057
4556,0.453,0.038
4557,0.396,0.038
4558,0.293,0.038
4559,0.190,0.038
4560,0.080,0.029
4561,-0.031,0.029
4562,-0.120,0.029
4563,-0.210,0.029
4564,-0.270,0.019
4565,-0.329,0.019
4566,-0.359,0.019
4567,-0.389,0.019
4568,-0.391,0.009
4569,-0.392,0.009
4570,-0.367,0.009
4571,-0.342,0.009
4572,-0.298,0.004
4573,-0.255,0.004
4574,-0.207,0.004
4575,-0.159,0.004
4576,-0.118,-0.005
4577,-0.077,-0.005
4578,-0.048,-0.005
4579,-0.019,-0.005
4580,-0.002,-0.015
4581,0.016,-0.015
4582,0.022,-0.015
4583,0.029,-0.015
4584,0.031,-0.024
4585,0.033,-0.024
4586,0.033,-0.024
4587,0.033,-0.024
4588,0.033,-0.034
4589,0.032,-0.034
4590,0.032,-0.034
4591,0.031,-0.034
4592,0.030,-0.038
4593,0.030,-0.038
4594,0.029,-0.038
4595,0.029,-0.038
4596,0.029,-0.048
4597,0.029,-0.048
4598,0.029,-0.048
4599,0.028,-0.048
4600,0.027,-0.057
4601,0.026,-0.057
4602,0.025,-0.057
4603,0.024,-0.057
4604,0.023,-0.057
4605,0.022,-0.057
4606,0.022,-0.057
4607,0.022,-0.057
4608,0.022,-0.067
4609,0.022,-0.067
4610,0.022,-0.067
4611,0.022,-0.067
4612,0.022,-0.076
4613,0.022,-0.076
4614,0.022,-0.076
4615,0.023,-0.076
4616,0.024,-0.081
4617,0.025,-0.081
4618,0.026,-0.081
4619,0.027,-0.081
4620,0.028,-0.095
4621,0.028,-0.095
4622,0.029,-0.095
4623,0.029,-0.095
4624,0.029,-0.104
4625,0.029,-0.104
4626,0.029,-0.104
4627,0.029,-0.104
4628,0.029,-0.110
4629,0.028,-0.110
4630,0.027,-0.110
4631,0.026,-0.110
4632,0.025,-0.119
4633,0.024,-0.119
4634,0.022,-0.119
4635,0.021,-0.119
4636,0.019,-0.123
4637,0.018,-0.123
4638,0.015,-0.123
4639,0.013,-0.123
4640,0.011,-0.133
4641,0.009,-0.133
4642,0.006,-0.133
4643,0.003,-0.133
4644,0.001,-0.129
4645,-0.002,-0.129
4646,-0.004,-0.129
4647,-0.005,-0.129
4648,-0.007,-0.129
4649,-0.009,-0.129
4650,-0.012,-0.129
4651,-0.015,-0.129
4652,-0.018,-0.133
4653,-0.021,-0.133
4654,-0.024,-0.133
4655,-0.026,-0.133
4656,-0.026,-0.117
4657,-0.027,-0.117
4658,-0.026,-0.117
4659,-0.025,-0.117
4660,-0.024,-0.113
4661,-0.022,-0.113
4662,-0.019,-0.113
4663,-0.017,-0.113
4664,-0.013,-0.108
4665,-0.010,-0.108
4666,-0.005,-0.108
4667,-0.001,-0.108
4668,0.004,-0.095
4669,0.009,-0.095
4670,0.015,-0.095
4671,0.021,-0.095
4672,0.027,-0.081
4673,0.033,-0.081
4674,0.041,-0.081
4675,0.048,-0.081
4676,0.055,-0.063
4677,0.062,-0.063
4678,0.069,-0.063
4679,0.075,-0.063
4680,0.081,-0.045
4681,0.086,-0.045
4682,0.089,-0.045
4683,0.093,-0.045
4684,0.096,-0.036
4685,0.099,-0.036
4686,0.101,-0.036
4687,0.102,-0.036
4688,0.102,-0.018
4689,0.102,-0.018
4690,0.100,-0.018
4691,0.097,-0.018
4692,0.094,0.000
4693,0.091,0.000
4694,0.088,0.000
4695,0.086,0.000
4696,0.085,0.018
4697,0.083,0.018
4698,0.081,0.018
4699,0.079,0.018
4700,0.077,0.032
4701,0.075,0.032
4702,0.072,0.032
4703,0.069,0.032
4704,0.067,0.050
4705,0.064,0.050
4706,0.062,0.050
4707,0.061,0.050
4708,0.060,0.063
4709,0.059,0.063
4710,0.059,0.063
4711,0.058,0.063
4712,0.058,0.076
4713,0.057,0.076
4714,0.056,0.076
4715,0.055,0.076
4716,0.054,0.086
4717,0.054,0.086
4718,0.054,0.086
4719,0.054,0.086
4720,0.053,0.099
4721,0.052,0.099
4722,0.051,0.099
4723,0.051,0.099
4724,0.052,0.108
4725,0.054,0.108
4726,0.054,0.108
4727,0.055,0.108
4728,0.056,0.113
4729,0.056,0.113
4730,0.058,0.113
4731,0.059,0.113
4732,0.060,0.121
4733,0.062,0.121
4734,0.062,0.121
4735,0.063,0.121
4736,0.066,0.126
4737,0.068,0.126
4738,0.073,0.126
4739,0.079,0.126
4740,0.087,0.140
4741,0.095,0.140
4742,0.104,0.140
4743,0.114,0.140
4744,0.126,0.144
4745,0.137,0.144
4746,0.149,0.144
4747,0.162,0.144
4748,0.175,0.148
4749,0.189,0.148
4750,0.203,0.148
4751,0.217,0.148
4752,0.230,0.148
4753,0.242,0.148
4754,0.252,0.148
4755,0.262,0.148
4756,0.270,0.153
4757,0.278,0.153
4758,0.283,0.153
4759,0.288,0.153
4760,0.289,0.158
4761,0.290,0.158
4762,0.287,0.158
4763,0.284,0.158
4764,0.277,0.158
4765,0.269,0.158
4766,0.258,0.158
4767,0.247,0.158
4768,0.234,0.162
4769,0.220,0.162
4770,0.206,0.162
4771,0.192,0.162
4772,0.178,0.158
4773,0.164,0.158
4774,0.150,0.158
4775,0.137,0.158
4776,0.124,0.158
4777,0.112,0.158
4778,0.101,0.158
4779,0.089,0.158
4780,0.079,0.153
4781,0.069,0.153
4782,0.060,0.153
4783,0.051,0.153
4784,0.043,0.144
4785,0.036,0.144
4786,0.029,0.144
4787,0.023,0.144
4788,0.018,0.135
4789,0.012,0.135
4790,0.007,0.135
4791,0.003,0.135
4792,0.000,0.135
4793,-0.003,0.135
4794,-0.005,0.135
4795,-0.007,0.135
4796,-0.007,0.126
4797,-0.008,0.126
4798,-0.009,0.126
4799,-0.009,0.126
4800,-0.009,0.121
4801,-0.010,0.121
4802,-0.011,0.121
4803,-0.011,0.121
4804,-0.011,0.113
4805,-0.011,0.113
4806,-0.011,0.113
4807,-0.011,0.113
4808,-0.011,0.103
4809,-0.011,0.103
4810,-0.011,0.103
4811,-0.012,0.103
4812,-0.013,0.103
4813,-0.015,0.103
4814,-0.015,0.103
4815,-0.016,0.103
4816,-0.017,0.095
4817,-0.018,0.095
4818,-0.018,0.095
4819,-0.018,0.095
4820,-0.017,0.086
4821,-0.015,0.086
4822,-0.013,0.086
4823,-0.010,0.086
4824,-0.009,0.081
4825,-0.008,0.081
4826,-0.002,0.081
4827,0.004,0.081
4828,0.030,0.076
4829,0.057,0.076
4830,0.117,0.076
4831,0.178,0.076
4832,0.259,0.063
4833,0.340,0.063
4834,0.406,0.063
4835,0.471,0.063
4836,0.483,0.059
4837,0.496,0.059
4838,0.441,0.059
4839,0.386,0.059
4840,0.285,0.050
4841,0.184,0.050
4842,0.074,0.050
4843,-0.036,0.050
4844,-0.126,0.041
4845,-0.216,0.041
4846,-0.277,0.041
4847,-0.337,0.041
4848,-0.368,0.036
4849,-0.399,0.036
4850,-0.402,0.036
4851,-0.404,0.036
4852,-0.380,0.022
4853,-0.356,0.022
4854,-0.311,0.022
4855,-0.267,0.022
4856,-0.218,0.013
4857,-0.169,0.013
4858,-0.128,0.013
4859,-0.087,0.013
4860,-0.059,0.000
4861,-0.030,0.000
4862,-0.014,0.000
4863,0.002,0.000
4864,0.009,-0.009
4865,0.016,-0.009
4866,0.018,-0.009
4867,0.019,-0.009
4868,0.019,-0.022
4869,0.019,-0.022
4870,0.018,-0.022
4871,0.017,-0.022
4872,0.016,-0.027
4873,0.015,-0.027
4874,0.014,-0.027
4875,0.013,-0.027
4876,0.012,-0.036
4877,0.011,-0.036
4878,0.010,-0.036
4879,0.009,-0.036
4880,0.009,-0.045
4881,0.008,-0.045
4882,0.007,-0.045
4883,0.006,-0.045
4884,0.006,-0.054
4885,0.007,-0.054
4886,0.007,-0.054
4887,0.007,-0.054
4888,0.007,-0.059
4889,0.007,-0.059
4890,0.007,-0.059
4891,0.007,-0.059
4892,0.007,-0.063
4893,0.007,-0.063
4894,0.007,-0.063
4895,0.007,-0.063
4896,0.007,-0.072
4897,0.008,-0.072
4898,0.009,-0.072
4899,0.010,-0.072
4900,0.011,-0.081
4901,0.012,-0.081
4902,0.013,-0.081
4903,0.014,-0.081
4904,0.015,-0.081
4905,0.015,-0.081
4906,0.015,-0.081
4907,0.014,-0.081
4908,0.013,-0.090
4909,0.013,-0.090
4910,0.012,-0.090
4911,0.011,-0.090
4912,0.011,-0.102
4913,0.010,-0.102
4914,0.010,-0.102
4915,0.010,-0.102
4916,0.009,-0.112
4917,0.008,-0.112
4918,0.006,-0.112
4919,0.005,-0.112
4920,0.004,-0.116
4921,0.003,-0.116
4922,0.001,-0.116
4923,-0.002,-0.116
4924,-0.005,-0.116
4925,-0.008,-0.116
4926,-0.011,-0.116
4927,-0.014,-0.116
4928,-0.017,-0.116
4929,-0.019,-0.116
4930,-0.021,-0.116
4931,-0.022,-0.116
4932,-0.023,-0.116
4933,-0.024,-0.116
4934,-0.025,-0.116
4935,-0.026,-0.116
4936,-0.026,-0.112
4937,-0.027,-0.112
4938,-0.028,-0.112
4939,-0.029,-0.112
4940,-0.029,-0.112
4941,-0.030,-0.112
4942,-0.030,-0.112
4943,-0.030,-0.112
4944,-0.029,-0.107
4945,-0.028,-0.107
4946,-0.025,-0.107
4947,-0.022,-0.107
4948,-0.017,-0.093
4949,-0.012,-0.093
4950,-0.006,-0.093
4951,-0.001,-0.093
4952,0.006,-0.081
4953,0.013,-0.081
4954,0.019,-0.081
4955,0.026,-0.081
4956,0.033,-0.071
4957,0.040,-0.071
4958,0.048,-0.071
4959,0.056,-0.071
4960,0.062,-0.058
4961,0.069,-0.058
4962,0.074,-0.058
4963,0.079,-0.058
4964,0.082,-0.041
4965,0.085,-0.041
4966,0.086,-0.041
4967,0.087,-0.041
4968,0.086,-0.022
4969,0.085,-0.022
4970,0.084,-0.022
4971,0.083,-0.022
4972,0.081,-0.009
4973,0.079,-0.009
4974,0.077,-0.009
4975,0.076,-0.009
4976,0.073,0.009
4977,0.071,0.009
4978,0.069,0.009
4979,0.066,0.009
4980,0.065,0.026
4981,0.063,0.026
4982,0.061,0.026
4983,0.059,0.026
4984,0.058,0.035
4985,0.057,0.035
4986,0.056,0.035
4987,0.054,0.035
4988,0.052,0.049
4989,0.051,0.049
4990,0.050,0.049
4991,0.049,0.049
4992,0.049,0.061
4993,0.048,0.061
4994,0.047,0.061
4995,0.046,0.061
4996,0.045,0.075
4997,0.044,0.075
4998,0.043,0.075
4999,0.043,0.075
5000,0.044,0.084
5001,0.045,0.084
5002,0.046,0.084
5003,0.047,0.084
5004,0.047,0.097
5005,0.047,0.097
5006,0.047,0.097
5007,0.047,0.097
5008,0.048,0.106
5009,0.048,0.106
5010,0.050,0.106
5011,0.051,0.106
5012,0.053,0.115
5013,0.056,0.115
5014,0.058,0.115
5015,0.059,0.115
5016,0.060,0.124
5017,0.062,0.124
5018,0.063,0.124
5019,0.064,0.124
5020,0.068,0.128
5021,0.071,0.128
5022,0.077,0.128
5023,0.083,0.128
5024,0.092,0.137
5025,0.101,0.137
5026,0.113,0.137
5027,0.125,0.137
5028,0.139,0.137
5029,0.153,0.137
5030,0.168,0.137
5031,0.182,0.137
5032,0.196,0.146
5033,0.210,0.146
5034,0.222,0.146
5035,0.234,0.146
5036,0.243,0.146
5037,0.253,0.146
5038,0.261,0.146
5039,0.268,0.146
5040,0.272,0.150
5041,0.276,0.150
5042,0.276,0.150
5043,0.276,0.150
5044,0.273,0.146
5045,0.269,0.146
5046,0.263,0.146
5047,0.256,0.146
5048,0.246,0.141
5049,0.236,0.141
5050,0.225,0.141
5051,0.213,0.141
5052,0.199,0.137
5053,0.184,0.137
5054,0.169,0.137
5055,0.153,0.137
5056,0.138,0.133
5057,0.122,0.133
5058,0.107,0.133
5059,0.093,0.133
5060,0.082,0.133
5061,0.070,0.133
5062,0.061,0.133
5063,0.052,0.133
5064,0.045,0.124
5065,0.038,0.124
5066,0.030,0.124
5067,0.023,0.124
5068,0.015,0.119
5069,0.008,0.119
5070,0.003,0.119
5071,-0.003,0.119
5072,-0.007,0.111
5073,-0.011,0.111
5074,-0.014,0.111
5075,-0.017,0.111
5076,-0.018,0.106
5077,-0.018,0.106
5078,-0.018,0.106
5079,-0.017,0.106
5080,-0.018,0.097
5081,-0.018,0.097
5082,-0.018,0.097
5083,-0.019,0.097
5084,-0.019,0.088
5085,-0.019,0.088
5086,-0.019,0.088
5087,-0.019,0.088
5088,-0.019,0.088
5089,-0.020,0.088
5090,-0.021,0.088
5091,-0.021,0.088
5092,-0.021,0.080
5093,-0.020,0.080
5094,-0.020,0.080
5095,-0.020,0.080
5096,-0.020,0.075
5097,-0.020,0.075
5098,-0.020,0.075
5099,-0.020,0.075
5100,-0.019,0.070
5101,-0.019,0.070
5102,-0.018,0.070
5103,-0.018,0.070
5104,-0.018,0.075
5105,-0.019,0.075
5106,-0.019,0.075
5107,-0.020,0.075
5108,-0.015,0.070
5109,-0.011,0.070
5110,0.015,0.070
5111,0.042,0.070
5112,0.103,0.061
5113,0.164,0.061
5114,0.247,0.061
5115,0.330,0.061
5116,0.399,0.057
5117,0.467,0.057
5118,0.480,0.057
5119,0.494,0.057
5120,0.440,0.053
5121,0.386,0.053
5122,0.284,0.053
5123,0.183,0.053
5124,0.072,0.049
5125,-0.039,0.049
5126,-0.130,0.049
5127,-0.221,0.049
5128,-0.283,0.035
5129,-0.345,0.035
5130,-0.378,0.035
5131,-0.410,0.035
5132,-0.413,0.026
5133,-0.417,0.026
5134,-0.394,0.026
5135,-0.371,0.026
5136,-0.330,0.018
5137,-0.288,0.018
5138,-0.240,0.018
5139,-0.193,0.018
5140,-0.150,0.009
5141,-0.107,0.009
5142,-0.076,0.009
5143,-0.045,0.009
5144,-0.026,-0.001
5145,-0.008,-0.001
5146,0.001,-0.001
5147,0.010,-0.001
5148,0.013,-0.005
5149,0.016,-0.005
5150,0.015,-0.005
5151,0.014,-0.005
5152,0.013,-0.009
5153,0.011,-0.009
5154,0.011,-0.009
5155,0.010,-0.009
5156,0.010,-0.027
5157,0.010,-0.027
5158,0.009,-0.027
5159,0.008,-0.027
5160,0.007,-0.032
5161,0.006,-0.032
5162,0.006,-0.032
5163,0.007,-0.032
5164,0.007,-0.041
5165,0.007,-0.041
5166,0.006,-0.041
5167,0.006,-0.041
5168,0.005,-0.049
5169,0.004,-0.049
5170,0.003,-0.049
5171,0.002,-0.049
5172,0.001,-0.057
5173,0.000,-0.057
5174,-0.001,-0.057
5175,-0.001,-0.057
5176,0.000,-0.061
5177,0.001,-0.061
5178,0.003,-0.061
5179,0.004,-0.061
5180,0.005,-0.066
5181,0.006,-0.066
5182,0.007,-0.066
5183,0.009,-0.066
5184,0.010,-0.070
5185,0.011,-0.070
5186,0.013,-0.070
5187,0.014,-0.070
5188,0.015,-0.073
5189,0.015,-0.073
5190,0.014,-0.073
5191,0.013,-0.073
5192,0.012,-0.073
5193,0.011,-0.073
5194,0.010,-0.073
5195,0.009,-0.073
5196,0.008,-0.077
5197,0.007,-0.077
5198,0.005,-0.077
5199,0.003,-0.077
5200,0.003,-0.082
5201,0.002,-0.082
5202,0.001,-0.082
5203,-0.001,-0.082
5204,-0.004,-0.086
5205,-0.006,-0.086
5206,-0.009,-0.086
5207,-0.012,-0.086
5208,-0.015,-0.089
5209,-0.019,-0.089
5210,-0.021,-0.089
5211,-0.023,-0.089
5212,-0.025,-0.094
5213,-0.028,-0.094
5214,-0.031,-0.094
5215,-0.034,-0.094
5216,-0.036,-0.098
5217,-0.038,-0.098
5218,-0.039,-0.098
5219,-0.040,-0.098
5220,-0.041,-0.098
5221,-0.042,-0.098
5222,-0.042,-0.098
5223,-0.042,-0.098
5224,-0.042,-0.102
5225,-0.041,-0.102
5226,-0.040,-0.102
5227,-0.039,-0.102
5228,-0.037,-0.098
5229,-0.035,-0.098
5230,-0.032,-0.098
5231,-0.028,-0.098
5232,-0.022,-0.098
5233,-0.016,-0.098
5234,-0.009,-0.098
5235,-0.001,-0.098
5236,0.007,-0.098
5237,0.015,-0.098
5238,0.024,-0.098
5239,0.032,-0.098
5240,0.039,-0.089
5241,0.046,-0.089
5242,0.051,-0.089
5243,0.057,-0.089
5244,0.060,-0.077
5245,0.063,-0.077
5246,0.065,-0.077
5247,0.066,-0.077
5248,0.068,-0.073
5249,0.070,-0.073
5250,0.071,-0.073
5251,0.072,-0.073
5252,0.071,-0.057
5253,0.071,-0.057
5254,0.071,-0.057
5255,0.071,-0.057
5256,0.070,-0.045
5257,0.070,-0.045
5258,0.069,-0.045
5259,0.067,-0.045
5260,0.065,-0.037
5261,0.063,-0.037
5262,0.061,-0.037
5263,0.059,-0.037
5264,0.058,-0.029
5265,0.056,-0.029
5266,0.054,-0.029
5267,0.053,-0.029
5268,0.052,-0.013
5269,0.052,-0.013
5270,0.051,-0.013
5271,0.050,-0.013
5272,0.051,-0.004
5273,0.051,-0.004
5274,0.051,-0.004
5275,0.051,-0.004
5276,0.051,-0.001
5277,0.050,-0.001
5278,0.049,-0.001
5279,0.048,-0.001
5280,0.048,0.016
5281,0.047,0.016
5282,0.046,0.016
5283,0.046,0.016
5284,0.045,0.024
5285,0.044,0.024
5286,0.043,0.024
5287,0.043,0.024
5288,0.044,0.032
5289,0.045,0.032
5290,0.046,0.032
5291,0.047,0.032
5292,0.048,0.041
5293,0.048,0.041
5294,0.049,0.041
5295,0.050,0.041
5296,0.051,0.049
5297,0.053,0.049
5298,0.053,0.049
5299,0.054,0.049
5300,0.055,0.060
5301,0.056,0.060
5302,0.058,0.060
5303,0.060,0.060
5304,0.065,0.069
5305,0.069,0.069
5306,0.077,0.069
5307,0.085,0.069
5308,0.096,0.073
5309,0.107,0.073
5310,0.119,0.073
5311,0.132,0.073
5312,0.144,0.081
5313,0.156,0.081
5314,0.169,0.081
5315,0.181,0.081
5316,0.194,0.089
5317,0.207,0.089
5318,0.219,0.089
5319,0.231,0.089
5320,0.241,0.097
5321,0.252,0.097
5322,0.258,0.097
5323,0.264,0.097
5324,0.266,0.101
5325,0.267,0.101
5326,0.265,0.101
5327,0.262,0.101
5328,0.257,0.110
5329,0.251,0.110
5330,0.242,0.110
5331,0.234,0.110
5332,0.223,0.114
5333,0.211,0.114
5334,0.197,0.114
5335,0.182,0.114
5336,0.167,0.121
5337,0.151,0.121
5338,0.136,0.121
5339,0.120,0.121
5340,0.106,0.121
5341,0.092,0.121
5342,0.080,0.121
5343,0.068,0.121
5344,0.058,0.126
5345,0.048,0.126
5346,0.040,0.126
5347,0.032,0.126
5348,0.025,0.117
5349,0.018,0.117
5350,0.011,0.117
5351,0.004,0.117
5352,-0.003,0.117
5353,-0.010,0.117
5354,-0.015,0.117
5355,-0.020,0.117
5356,-0.024,0.114
5357,-0.027,0.114
5358,-0.029,0.114
5359,-0.030,0.114
5360,-0.030,0.110
5361,-0.031,0.110
5362,-0.032,0.110
5363,-0.033,0.110
5364,-0.034,0.110
5365,-0.035,0.110
5366,-0.035,0.110
5367,-0.036,0.110
5368,-0.036,0.101
5369,-0.037,0.101
5370,-0.036,0.101
5371,-0.036,0.101
5372,-0.035,0.093
5373,-0.034,0.093
5374,-0.033,0.093
5375,-0.032,0.093
5376,-0.031,0.089
5377,-0.030,0.089
5378,-0.029,0.089
5379,-0.029,0.089
5380,-0.030,0.081
5381,-0.031,0.081
5382,-0.032,0.081
5383,-0.033,0.081
5384,-0.033,0.077
5385,-0.033,0.077
5386,-0.032,0.077
5387,-0.030,0.077
5388,-0.030,0.069
5389,-0.030,0.069
5390,-0.029,0.069
5391,-0.028,0.069
5392,-0.013,0.060
5393,0.002,0.060
5394,0.046,0.060
5395,0.091,0.060
5396,0.165,0.049
5397,0.238,0.049
5398,0.316,0.049
5399,0.393,0.049
5400,0.435,0.041
5401,0.477,0.041
5402,0.454,0.041
5403,0.431,0.041
5404,0.348,0.028
5405,0.265,0.028
5406,0.154,0.028
5407,0.044,0.028
5408,-0.059,0.020
5409,-0.161,0.020
5410,-0.236,0.020
5411,-0.311,0.020
5412,-0.356,0.008
5413,-0.401,0.008
5414,-0.417,0.008
5415,-0.433,0.008
5416,-0.420,-0.001
5417,-0.407,-0.001
5418,-0.370,-0.001
5419,-0.333,-0.001
5420,-0.284,-0.009
5421,-0.235,-0.009
5422,-0.188,-0.009
5423,-0.140,-0.009
5424,-0.105,-0.024
5425,-0.070,-0.024
5426,-0.049,-0.024
5427,-0.027,-0.024
5428,-0.015,-0.028
5429,-0.004,-0.028
5430,0.001,-0.028
5431,0.005,-0.028
5432,0.006,-0.032
5433,0.008,-0.032
5434,0.007,-0.032
5435,0.006,-0.032
5436,0.005,-0.040
5437,0.004,-0.040
5438,0.003,-0.040
5439,0.002,-0.040
5440,0.001,-0.048
5441,-0.001,-0.048
5442,-0.003,-0.048
5443,-0.004,-0.048
5444,-0.004,-0.051
5445,-0.005,-0.051
5446,-0.006,-0.051
5447,-0.007,-0.051
5448,-0.007,-0.059
5449,-0.008,-0.059
5450,-0.007,-0.059
5451,-0.007,-0.059
5452,-0.005,-0.063
5453,-0.004,-0.063
5454,-0.004,-0.063
5455,-0.004,-0.063
5456,-0.004,-0.067
5457,-0.005,-0.067
5458,-0.006,-0.067
5459,-0.008,-0.067
5460,-0.009,-0.075
5461,-0.011,-0.075
5462,-0.011,-0.075
5463,-0.011,-0.075
5464,-0.011,-0.075
5465,-0.011,-0.075
5466,-0.011,-0.075
5467,-0.010,-0.075
5468,-0.009,-0.083
5469,-0.007,-0.083
5470,-0.005,-0.083
5471,-0.004,-0.083
5472,-0.004,-0.087
5473,-0.003,-0.087
5474,-0.002,-0.087
5475,-0.001,-0.087
5476,-0.001,-0.091
5477,0.000,-0.091
5478,0.000,-0.091
5479,0.000,-0.091
5480,-0.001,-0.099
5481,-0.002,-0.099
5482,-0.004,-0.099
5483,-0.007,-0.099
5484,-0.009,-0.102
5485,-0.012,-0.102
5486,-0.014,-0.102
5487,-0.016,-0.102
5488,-0.018,-0.106
5489,-0.020,-0.106
5490,-0.024,-0.106
5491,-0.027,-0.106
5492,-0.031,-0.111
5493,-0.035,-0.111
5494,-0.039,-0.111
5495,-0.043,-0.111
5496,-0.048,-0.115
5497,-0.052,-0.115
5498,-0.054,-0.115
5499,-0.057,-0.115
5500,-0.058,-0.115
5501,-0.059,-0.115
5502,-0.059,-0.115
5503,-0.059,-0.115
5504,-0.059,-0.115
5505,-0.059,-0.115
5506,-0.059,-0.115
5507,-0.059,-0.115
5508,-0.059,-0.111
5509,-0.058,-0.111
5510,-0.056,-0.111
5511,-0.054,-0.111
5512,-0.051,-0.106
5513,-0.047,-0.106
5514,-0.042,-0.106
5515,-0.037,-0.106
5516,-0.030,-0.102
5517,-0.024,-0.102
5518,-0.015,-0.102
5519,-0.007,-0.102
5520,0.002,-0.091
5521,0.010,-0.091
5522,0.018,-0.091
5523,0.025,-0.091
5524,0.032,-0.087
5525,0.039,-0.087
5526,0.044,-0.087
5527,0.050,-0.087
5528,0.054,-0.067
5529,0.059,-0.067
5530,0.060,-0.067
5531,0.062,-0.067
5532,0.062,-0.056
5533,0.062,-0.056
5534,0.062,-0.056
5535,0.062,-0.056
5536,0.062,-0.043
5537,0.062,-0.043
5538,0.061,-0.043
5539,0.061,-0.043
5540,0.059,-0.035
5541,0.058,-0.035
5542,0.056,-0.035
5543,0.054,-0.035
5544,0.052,-0.024
5545,0.050,-0.024
5546,0.048,-0.024
5547,0.046,-0.024
5548,0.044,-0.012
5549,0.043,-0.012
5550,0.042,-0.012
5551,0.040,-0.012
5552,0.040,0.007
5553,0.039,0.007
5554,0.040,0.007
5555,0.040,0.007
5556,0.040,0.019
5557,0.040,0.019
5558,0.040,0.019
5559,0.040,0.019
5560,0.040,0.028
5561,0.040,0.028
5562,0.040,0.028
5563,0.039,0.028
5564,0.037,0.039
5565,0.036,0.039
5566,0.035,0.039
5567,0.033,0.039
5568,0.033,0.051
5569,0.032,0.051
5570,0.033,0.051
5571,0.034,0.051
5572,0.037,0.059
5573,0.040,0.059
5574,0.042,0.059
5575,0.044,0.059
5576,0.044,0.063
5577,0.044,0.063
5578,0.044,0.063
5579,0.044,0.063
5580,0.044,0.070
5581,0.044,0.070
5582,0.044,0.070
5583,0.045,0.070
5584,0.047,0.083
5585,0.049,0.083
5586,0.053,0.083
5587,0.058,0.083
5588,0.065,0.086
5589,0.072,0.086
5590,0.082,0.086
5591,0.091,0.086
5592,0.102,0.095
5593,0.112,0.095
5594,0.123,0.095
5595,0.135,0.095
5596,0.147,0.102
5597,0.160,0.102
5598,0.172,0.102
5599,0.185,0.102
5600,0.198,0.106
5601,0.211,0.106
5602,0.223,0.106
5603,0.235,0.106
5604,0.244,0.106
5605,0.253,0.106
5606,0.257,0.106
5607,0.261,0.106
5608,0.260,0.110
5609,0.258,0.110
5610,0.254,0.110
5611,0.249,0.110
5612,0.241,0.110
5613,0.234,0.110
5614,0.223,0.110
5615,0.212,0.110
5616,0.199,0.110
5617,0.185,0.110
5618,0.171,0.110
5619,0.156,0.110
5620,0.141,0.110
5621,0.125,0.110
5622,0.111,0.110
5623,0.097,0.110
5624,0.086,0.110
5625,0.075,0.110
5626,0.067,0.110
5627,0.058,0.110
5628,0.051,0.106
5629,0.043,0.106
5630,0.035,0.106
5631,0.027,0.106
5632,0.020,0.098
5633,0.013,0.098
5634,0.005,0.098
5635,-0.002,0.098
5636,-0.008,0.095
5637,-0.014,0.095
5638,-0.018,0.095
5639,-0.021,0.095
5640,-0.024,0.090
5641,-0.027,0.090
5642,-0.029,0.090
5643,-0.031,0.090
5644,-0.032,0.083
5645,-0.033,0.083
5646,-0.034,0.083
5647,-0.034,0.083
5648,-0.034,0.079
5649,-0.033,0.079
5650,-0.033,0.079
5651,-0.033,0.079
5652,-0.033,0.067
5653,-0.033,0.067
5654,-0.033,0.067
5655,-0.033,0.067
5656,-0.033,0.063
5657,-0.032,0.063
5658,-0.032,0.063
5659,-0.031,0.063
5660,-0.032,0.055
5661,-0.032,0.055
5662,-0.034,0.055
5663,-0.035,0.055
5664,-0.035,0.051
5665,-0.036,0.051
5666,-0.036,0.051
5667,-0.037,0.051
5668,-0.036,0.043
5669,-0.035,0.043
5670,-0.033,0.043
5671,-0.031,0.043
5672,-0.029,0.039
5673,-0.028,0.039
5674,-0.022,0.039
5675,-0.016,0.039
5676,0.012,0.035
5677,0.040,0.035
5678,0.102,0.035
5679,0.163,0.035
5680,0.244,0.024
5681,0.326,0.024
5682,0.391,0.024
5683,0.455,0.024
5684,0.465,0.019
5685,0.475,0.019
5686,0.418,0.019
5687,0.362,0.019
5688,0.259,0.011
5689,0.156,0.011
5690,0.043,0.011
5691,-0.069,0.011
5692,-0.162,0.007
5693,-0.254,0.007
5694,-0.315,0.007
5695,-0.376,0.007
5696,-0.406,0.004
5697,-0.437,0.004
5698,-0.439,0.004
5699,-0.440,0.004
5700,-0.415,-0.008
5701,-0.390,-0.008
5702,-0.346,-0.008
5703,-0.303,-0.008
5704,-0.255,-0.012
5705,-0.206,-0.012
5706,-0.165,-0.012
5707,-0.124,-0.012
5708,-0.095,-0.016
5709,-0.066,-0.016
5710,-0.049,-0.016
5711,-0.031,-0.016
5712,-0.024,-0.020
5713,-0.016,-0.020
5714,-0.015,-0.020
5715,-0.013,-0.020
5716,-0.012,-0.032
5717,-0.011,-0.032
5718,-0.011,-0.032
5719,-0.011,-0.032
5720,-0.011,-0.035
5721,-0.012,-0.035
5722,-0.014,-0.035
5723,-0.016,-0.035
5724,-0.017,-0.040
5725,-0.018,-0.040
5726,-0.018,-0.040
5727,-0.019,-0.040
5728,-0.019,-0.048
5729,-0.019,-0.048
5730,-0.019,-0.048
5731,-0.019,-0.048
5732,-0.018,-0.051
5733,-0.018,-0.051
5734,-0.017,-0.051
5735,-0.016,-0.051
5736,-0.015,-0.059
5737,-0.015,-0.059
5738,-0.015,-0.059
5739,-0.015,-0.059
5740,-0.017,-0.059
5741,-0.018,-0.059
5742,-0.019,-0.059
5743,-0.020,-0.059
5744,-0.021,-0.067
5745,-0.022,-0.067
5746,-0.021,-0.067
5747,-0.021,-0.067
5748,-0.020,-0.075
5749,-0.019,-0.075
5750,-0.018,-0.075
5751,-0.018,-0.075
5752,-0.018,-0.083
5753,-0.019,-0.083
5754,-0.019,-0.083
5755,-0.019,-0.083
5756,-0.019,-0.087
5757,-0.020,-0.087
5758,-0.021,-0.087
5759,-0.023,-0.087
5760,-0.024,-0.091
5761,-0.025,-0.091
5762,-0.026,-0.091
5763,-0.028,-0.091
5764,-0.029,-0.095
5765,-0.029,-0.095
5766,-0.030,-0.095
5767,-0.031,-0.095
5768,-0.033,-0.099
5769,-0.035,-0.099
5770,-0.038,-0.099
5771,-0.042,-0.099
5772,-0.045,-0.102
5773,-0.049,-0.102
5774,-0.051,-0.102
5775,-0.053,-0.102
5776,-0.055,-0.102
5777,-0.057,-0.102
5778,-0.060,-0.102
5779,-0.063,-0.102
5780,-0.066,-0.102
5781,-0.068,-0.102
5782,-0.070,-0.102
5783,-0.073,-0.102
5784,-0.074,-0.106
5785,-0.075,-0.106
5786,-0.075,-0.106
5787,-0.076,-0.106
5788,-0.077,-0.102
5789,-0.078,-0.102
5790,-0.077,-0.102
5791,-0.076,-0.102
5792,-0.074,-0.099
5793,-0.072,-0.099
5794,-0.069,-0.099
5795,-0.065,-0.099
5796,-0.060,-0.087
5797,-0.055,-0.087
5798,-0.049,-0.087
5799,-0.042,-0.087
5800,-0.035,-0.087
5801,-0.029,-0.087
5802,-0.021,-0.087
5803,-0.013,-0.087
5804,-0.005,-0.071
5805,0.003,-0.071
5806,0.010,-0.071
5807,0.017,-0.071
5808,0.023,-0.059
5809,0.029,-0.059
5810,0.035,-0.059
5811,0.041,-0.059
5812,0.045,-0.048
5813,0.049,-0.048
5814,0.051,-0.048
5815,0.052,-0.048
5816,0.053,-0.035
5817,0.054,-0.035
5818,0.054,-0.035
5819,0.054,-0.035
5820,0.052,-0.020
5821,0.051,-0.020
5822,0.049,-0.020
5823,0.046,-0.020
5824,0.045,-0.004
5825,0.044,-0.004
5826,0.043,-0.004
5827,0.042,-0.004
5828,0.042,0.011
5829,0.041,0.011
5830,0.040,0.011
5831,0.038,0.011
5832,0.035,0.024
5833,0.033,0.024
5834,0.032,0.024
5835,0.031,0.024
5836,0.030,0.035
5837,0.029,0.035
5838,0.029,0.035
5839,0.028,0.035
5840,0.027,0.043
5841,0.026,0.043
5842,0.025,0.043
5843,0.024,0.043
5844,0.023,0.055
5845,0.022,0.055
5846,0.022,0.055
5847,0.022,0.055
5848,0.022,0.063
5849,0.022,0.063
5850,0.021,0.063
5851,0.021,0.063
5852,0.021,0.067
5853,0.020,0.067
5854,0.020,0.067
5855,0.020,0.067
5856,0.021,0.074
5857,0.023,0.074
5858,0.025,0.074
5859,0.026,0.074
5860,0.028,0.083
5861,0.030,0.083
5862,0.032,0.083
5863,0.033,0.083
5864,0.035,0.095
5865,0.038,0.095
5866,0.042,0.095
5867,0.045,0.095
5868,0.050,0.102
5869,0.054,0.102
5870,0.060,0.102
5871,0.066,0.102
5872,0.075,0.106
5873,0.084,0.106
5874,0.096,0.106
5875,0.107,0.106
5876,0.120,0.106
5877,0.133,0.106
5878,0.146,0.106
5879,0.159,0.106
5880,0.172,0.110
5881,0.185,0.110
5882,0.198,0.110
5883,0.211,0.110
5884,0.223,0.118
5885,0.234,0.118
5886,0.242,0.118
5887,0.250,0.118
5888,0.254,0.118
5889,0.258,0.118
5890,0.258,0.118
5891,0.258,0.118
5892,0.254,0.122
5893,0.249,0.122
5894,0.241,0.122
5895,0.233,0.122
5896,0.221,0.118
5897,0.209,0.118
5898,0.195,0.118
5899,0.180,0.118
5900,0.165,0.122
5901,0.150,0.122
5902,0.136,0.122
5903,0.121,0.122
5904,0.106,0.122
5905,0.092,0.122
5906,0.078,0.122
5907,0.064,0.122
5908,0.053,0.114
5909,0.042,0.114
5910,0.034,0.114
5911,0.026,0.114
5912,0.019,0.114
5913,0.012,0.114
5914,0.005,0.114
5915,-0.001,0.114
5916,-0.007,0.110
5917,-0.013,0.110
5918,-0.019,0.110
5919,-0.025,0.110
5920,-0.030,0.106
5921,-0.035,0.106
5922,-0.038,0.106
5923,-0.042,0.106
5924,-0.045,0.106
5925,-0.049,0.106
5926,-0.051,0.106
5927,-0.052,0.106
5928,-0.052,0.098
5929,-0.052,0.098
5930,-0.051,0.098
5931,-0.051,0.098
5932,-0.051,0.090
5933,-0.050,0.090
5934,-0.050,0.090
5935,-0.049,0.090
5936,-0.048,0.083
5937,-0.047,0.083
5938,-0.045,0.083
5939,-0.043,0.083
5940,-0.042,0.075
5941,-0.041,0.075
5942,-0.040,0.075
5943,-0.039,0.075
5944,-0.038,0.068
5945,-0.038,0.068
5946,-0.039,0.068
5947,-0.040,0.068
5948,-0.040,0.068
5949,-0.040,0.068
5950,-0.038,0.068
5951,-0.037,0.068
5952,-0.037,0.060
5953,-0.037,0.060
5954,-0.037,0.060
5955,-0.038,0.060
5956,-0.029,0.052
5957,-0.021,0.052
5958,0.013,0.052
5959,0.046,0.052
5960,0.114,0.052
5961,0.181,0.052
5962,0.264,0.052
5963,0.347,0.052
5964,0.406,0.045
5965,0.466,0.045
5966,0.466,0.045
5967,0.466,0.045
5968,0.398,0.041
5969,0.330,0.041
5970,0.221,0.041
5971,0.112,0.041
5972,0.001,0.030
5973,-0.111,0.030
5974,-0.198,0.030
5975,-0.285,0.030
5976,-0.341,0.026
5977,-0.397,0.026
5978,-0.423,0.026
5979,-0.449,0.026
5980,-0.446,0.022
5981,-0.442,0.022
5982,-0.413,0.022
5983,-0.384,0.022
5984,-0.338,0.015
5985,-0.292,0.015
5986,-0.243,0.015
5987,-0.195,0.015
5988,-0.156,0.004
5989,-0.117,0.004
5990,-0.090,0.004
5991,-0.063,0.004
5992,-0.048,-0.004
5993,-0.033,-0.004
5994,-0.028,-0.004
5995,-0.022,-0.004
5996,-0.020,-0.007
5997,-0.018,-0.007
5998,-0.018,-0.007
5999,-0.019,-0.007
6000,-0.021,-0.011
6001,-0.022,-0.011
6002,-0.023,-0.011
6003,-0.024,-0.011
6004,-0.025,-0.019
6005,-0.026,-0.019
6006,-0.026,-0.019
6007,-0.026,-0.019
6008,-0.026,-0.026
6009,-0.026,-0.026
6010,-0.026,-0.026
6011,-0.027,-0.026
6012,-0.028,-0.030
6013,-0.029,-0.030
6014,-0.029,-0.030
6015,-0.030,-0.030
6016,-0.030,-0.037
6017,-0.030,-0.037
6018,-0.030,-0.037
6019,-0.030,-0.037
6020,-0.030,-0.045
6021,-0.030,-0.045
6022,-0.030,-0.045
6023,-0.031,-0.045
6024,-0.032,-0.052
6025,-0.033,-0.052
6026,-0.034,-0.052
6027,-0.035,-0.052
6028,-0.035,-0.060
6029,-0.035,-0.060
6030,-0.035,-0.060
6031,-0.035,-0.060
6032,-0.035,-0.068
6033,-0.035,-0.068
6034,-0.035,-0.068
6035,-0.034,-0.068
6036,-0.033,-0.075
6037,-0.032,-0.075
6038,-0.031,-0.075
6039,-0.030,-0.075
6040,-0.029,-0.071
6041,-0.029,-0.071
6042,-0.029,-0.071
6043,-0.030,-0.071
6044,-0.030,-0.079
6045,-0.031,-0.079
6046,-0.032,-0.079
6047,-0.033,-0.079
6048,-0.035,-0.086
6049,-0.036,-0.086
6050,-0.038,-0.086
6051,-0.040,-0.086
6052,-0.043,-0.090
6053,-0.045,-0.090
6054,-0.047,-0.090
6055,-0.049,-0.090
6056,-0.051,-0.094
6057,-0.052,-0.094
6058,-0.054,-0.094
6059,-0.056,-0.094
6060,-0.059,-0.094
6061,-0.061,-0.094
6062,-0.064,-0.094
6063,-0.067,-0.094
6064,-0.070,-0.090
6065,-0.074,-0.090
6066,-0.076,-0.090
6067,-0.079,-0.090
6068,-0.080,-0.086
6069,-0.081,-0.086
6070,-0.081,-0.086
6071,-0.080,-0.086
6072,-0.078,-0.086
6073,-0.076,-0.086
6074,-0.072,-0.086
6075,-0.068,-0.086
6076,-0.064,-0.083
6077,-0.060,-0.083
6078,-0.054,-0.083
6079,-0.049,-0.083
6080,-0.043,-0.071
6081,-0.038,-0.071
6082,-0.032,-0.071
6083,-0.025,-0.071
6084,-0.017,-0.064
6085,-0.009,-0.064
6086,-0.001,-0.064
6087,0.007,-0.064
6088,0.014,-0.052
6089,0.021,-0.052
6090,0.026,-0.052
6091,0.031,-0.052
6092,0.035,-0.037
6093,0.039,-0.037
6094,0.043,-0.037
6095,0.047,-0.037
6096,0.050,-0.026
6097,0.053,-0.026
6098,0.054,-0.026
6099,0.055,-0.026
6100,0.055,-0.004
6101,0.055,-0.004
6102,0.054,-0.004
6103,0.054,-0.004
6104,0.052,0.007
6105,0.051,0.007
6106,0.049,0.007
6107,0.046,0.007
6108,0.044,0.022
6109,0.042,0.022
6110,0.039,0.022
6111,0.036,0.022
6112,0.034,0.037
6113,0.031,0.037
6114,0.029,0.037
6115,0.028,0.037
6116,0.027,0.049
6117,0.026,0.049
6118,0.025,0.049
6119,0.024,0.049
6120,0.024,0.060
6121,0.023,0.060
6122,0.024,0.060
6123,0.024,0.060
6124,0.024,0.071
6125,0.023,0.071
6126,0.022,0.071
6127,0.021,0.071
6128,0.019,0.083
6129,0.018,0.083
6130,0.016,0.083
6131,0.014,0.083
6132,0.014,0.090
6133,0.014,0.090
6134,0.015,0.090
6135,0.015,0.090
6136,0.017,0.098
6137,0.018,0.098
6138,0.021,0.098
6139,0.023,0.098
6140,0.025,0.105
6141,0.026,0.105
6142,0.028,0.105
6143,0.030,0.105
6144,0.032,0.105
6145,0.034,0.105
6146,0.037,0.105
6147,0.041,0.105
6148,0.045,0.113
6149,0.049,0.113
6150,0.053,0.113
6151,0.057,0.113
6152,0.064,0.120
6153,0.070,0.120
6154,0.081,0.120
6155,0.091,0.120
6156,0.103,0.123
6157,0.115,0.123
6158,0.129,0.123
6159,0.142,0.123
6160,0.156,0.128
6161,0.170,0.128
6162,0.183,0.128
6163,0.196,0.128
6164,0.208,0.131
6165,0.220,0.131
6166,0.231,0.131
6167,0.242,0.131
6168,0.250,0.135
6169,0.258,0.135
6170,0.262,0.135
6171,0.265,0.135
6172,0.265,0.139
6173,0.265,0.139
6174,0.262,0.139
6175,0.258,0.139
6176,0.250,0.135
6177,0.242,0.135
6178,0.230,0.135
6179,0.218,0.135
6180,0.203,0.135
6181,0.189,0.135
6182,0.173,0.135
6183,0.157,0.135
6184,0.141,0.135
6185,0.126,0.135
6186,0.113,0.135
6187,0.099,0.135
6188,0.087,0.131
6189,0.076,0.131
6190,0.067,0.131
6191,0.057,0.131
6192,0.049,0.124
6193,0.041,0.124
6194,0.034,0.124
6195,0.026,0.124
6196,0.020,0.117
6197,0.014,0.117
6198,0.007,0.117
6199,0.001,0.117
6200,-0.004,0.109
6201,-0.010,0.109
6202,-0.015,0.109
6203,-0.020,0.109
6204,-0.024,0.102
6205,-0.027,0.102
6206,-0.029,0.102
6207,-0.030,0.102
6208,-0.030,0.094
6209,-0.030,0.094
6210,-0.030,0.094
6211,-0.031,0.094
6212,-0.032,0.094
6213,-0.033,0.094
6214,-0.034,0.094
6215,-0.034,0.094
6216,-0.033,0.086
6217,-0.032,0.086
6218,-0.031,0.086
6219,-0.030,0.086
6220,-0.029,0.079
6221,-0.029,0.079
6222,-0.029,0.079
6223,-0.029,0.079
6224,-0.029,0.071
6225,-0.028,0.071
6226,-0.029,0.071
6227,-0.030,0.071
6228,-0.032,0.071
6229,-0.033,0.071
6230,-0.034,0.071
6231,-0.034,0.071
6232,-0.033,0.064
6233,-0.032,0.064
6234,-0.032,0.064
6235,-0.031,0.064
6236,-0.030,0.057
6237,-0.030,0.057
6238,-0.022,0.057
6239,-0.014,0.057
6240,0.018,0.052
6241,0.051,0.052
6242,0.117,0.052
6243,0.182,0.052
6244,0.265,0.042
6245,0.347,0.042
6246,0.408,0.042
6247,0.470,0.042
6248,0.473,0.037
6249,0.476,0.037
6250,0.411,0.037
6251,0.346,0.037
6252,0.239,0.034
6253,0.132,0.034
6254,0.022,0.034
6255,-0.088,0.034
6256,-0.175,0.019
6257,-0.262,0.019
6258,-0.319,0.019
6259,-0.376,0.019
6260,-0.403,0.011
6261,-0.430,0.011
6262,-0.428,0.011
6263,-0.426,0.011
6264,-0.400,0.004
6265,-0.373,0.004
6266,-0.329,0.004
6267,-0.284,0.004
6268,-0.235,-0.004
6269,-0.186,-0.004
6270,-0.145,-0.004
6271,-0.104,-0.004
6272,-0.077,-0.011
6273,-0.050,-0.011
6274,-0.035,-0.011
6275,-0.019,-0.011
6276,-0.013,-0.018
6277,-0.006,-0.018
6278,-0.004,-0.018
6279,-0.003,-0.018
6280,-0.004,-0.022
6281,-0.005,-0.022
6282,-0.006,-0.022
6283,-0.007,-0.022
6284,-0.007,-0.030
6285,-0.008,-0.030
6286,-0.007,-0.030
6287,-0.007,-0.030
6288,-0.006,-0.037
6289,-0.005,-0.037
6290,-0.006,-0.037
6291,-0.007,-0.037
6292,-0.008,-0.045
6293,-0.009,-0.045
6294,-0.010,-0.045
6295,-0.011,-0.045
6296,-0.011,-0.052
6297,-0.011,-0.052
6298,-0.011,-0.052
6299,-0.012,-0.052
6300,-0.013,-0.060
6301,-0.014,-0.060
6302,-0.013,-0.060
6303,-0.013,-0.060
6304,-0.013,-0.068
6305,-0.013,-0.068
6306,-0.013,-0.068
6307,-0.012,-0.068
6308,-0.011,-0.075
6309,-0.011,-0.075
6310,-0.011,-0.075
6311,-0.010,-0.075
6312,-0.009,-0.083
6313,-0.007,-0.083
6314,-0.004,-0.083
6315,-0.002,-0.083
6316,0.000,-0.086
6317,0.002,-0.086
6318,0.003,-0.086
6319,0.004,-0.086
6320,0.003,-0.093
6321,0.001,-0.093
6322,-0.002,-0.093
6323,-0.005,-0.093
6324,-0.009,-0.098
6325,-0.012,-0.098
6326,-0.014,-0.098
6327,-0.016,-0.098
6328,-0.018,-0.101
6329,-0.019,-0.101
6330,-0.021,-0.101
6331,-0.023,-0.101
6332,-0.025,-0.105
6333,-0.026,-0.105
6334,-0.027,-0.105
6335,-0.028,-0.105
6336,-0.029,-0.105
6337,-0.030,-0.105
6338,-0.033,-0.105
6339,-0.035,-0.105
6340,-0.038,-0.105
6341,-0.041,-0.105
6342,-0.044,-0.105
6343,-0.047,-0.105
6344,-0.050,-0.101
6345,-0.053,-0.101
6346,-0.057,-0.101
6347,-0.060,-0.101
6348,-0.062,-0.101
6349,-0.064,-0.101
6350,-0.065,-0.101
6351,-0.066,-0.101
6352,-0.066,-0.101
6353,-0.066,-0.101
6354,-0.066,-0.101
6355,-0.065,-0.101
6356,-0.062,-0.098
6357,-0.060,-0.098
6358,-0.055,-0.098
6359,-0.050,-0.098
6360,-0.044,-0.090
6361,-0.038,-0.090
6362,-0.033,-0.090
6363,-0.027,-0.090
6364,-0.021,-0.075
6365,-0.015,-0.075
6366,-0.008,-0.075
6367,-0.001,-0.075
6368,0.006,-0.068
6369,0.013,-0.068
6370,0.019,-0.068
6371,0.025,-0.068
6372,0.029,-0.052
6373,0.034,-0.052
6374,0.038,-0.052
6375,0.042,-0.052
6376,0.044,-0.045
6377,0.047,-0.045
6378,0.049,-0.045
6379,0.050,-0.045
6380,0.052,-0.026
6381,0.054,-0.026
6382,0.054,-0.026
6383,0.055,-0.026
6384,0.054,-0.015
6385,0.054,-0.015
6386,0.052,-0.015
6387,0.051,-0.015
6388,0.048,0.004
6389,0.045,0.004
6390,0.043,0.004
6391,0.040,0.004
6392,0.038,0.011
6393,0.036,0.011
6394,0.035,0.011
6395,0.035,0.011
6396,0.034,0.022
6397,0.032,0.022
6398,0.030,0.022
6399,0.028,0.022
6400,0.026,0.034
6401,0.025,0.034
6402,0.024,0.034
6403,0.022,0.034
6404,0.021,0.042
6405,0.020,0.042
6406,0.018,0.042
6407,0.017,0.042
6408,0.016,0.052
6409,0.015,0.052
6410,0.015,0.052
6411,0.014,0.052
6412,0.014,0.060
6413,0.014,0.060
6414,0.015,0.060
6415,0.015,0.060
6416,0.016,0.068
6417,0.017,0.068
6418,0.018,0.068
6419,0.019,0.068
6420,0.019,0.071
6421,0.019,0.071
6422,0.020,0.071
6423,0.021,0.071
6424,0.021,0.079
6425,0.022,0.079
6426,0.022,0.079
6427,0.023,0.079
6428,0.025,0.086
6429,0.026,0.086
6430,0.029,0.086
6431,0.032,0.086
6432,0.037,0.094
6433,0.043,0.094
6434,0.053,0.094
6435,0.063,0.094
6436,0.074,0.098
6437,0.086,0.098
6438,0.099,0.098
6439,0.111,0.098
6440,0.124,0.105
6441,0.137,0.105
6442,0.149,0.105
6443,0.162,0.105
6444,0.173,0.109
6445,0.185,0.109
6446,0.197,0.109
6447,0.209,0.109
6448,0.220,0.121
6449,0.230,0.121
6450,0.235,0.121
6451,0.241,0.121
6452,0.242,0.126
6453,0.243,0.126
6454,0.240,0.126
6455,0.237,0.126
6456,0.231,0.126
6457,0.224,0.126
6458,0.213,0.126
6459,0.203,0.126
6460,0.192,0.130
6461,0.180,0.130
6462,0.166,0.130
6463,0.152,0.130
6464,0.138,0.126
6465,0.124,0.126
6466,0.111,0.126
6467,0.098,0.126
6468,0.086,0.126
6469,0.074,0.126
6470,0.062,0.126
6471,0.051,0.126
6472,0.042,0.126
6473,0.032,0.126
6474,0.025,0.126
6475,0.017,0.126
6476,0.009,0.121
6477,0.002,0.121
6478,-0.005,0.121
6479,-0.012,0.121
6480,-0.018,0.117
6481,-0.024,0.117
6482,-0.028,0.117
6483,-0.032,0.117
6484,-0.035,0.109
6485,-0.037,0.109
6486,-0.040,0.109
6487,-0.042,0.109
6488,-0.044,0.101
6489,-0.047,0.101
6490,-0.049,0.101
6491,-0.050,0.101
6492,-0.051,0.092
6493,-0.051,0.092
6494,-0.051,0.092
6495,-0.052,0.092
6496,-0.052,0.092
6497,-0.052,0.092
6498,-0.051,0.092
6499,-0.050,0.092
6500,-0.049,0.080
6501,-0.047,0.080
6502,-0.045,0.080
6503,-0.043,0.080
6504,-0.042,0.075
6505,-0.041,0.075
6506,-0.041,0.075
6507,-0.040,0.075
6508,-0.041,0.067
6509,-0.042,0.067
6510,-0.044,0.067
6511,-0.046,0.067
6512,-0.048,0.059
6513,-0.049,0.059
6514,-0.050,0.059
6515,-0.050,0.059
6516,-0.053,0.054
6517,-0.056,0.054
6518,-0.058,0.054
6519,-0.060,0.054
6520,-0.048,0.046
6521,-0.035,0.046
6522,0.011,0.046
6523,0.057,0.046
6524,0.138,0.042
6525,0.219,0.042
6526,0.305,0.042
6527,0.391,0.042
6528,0.438,0.029
6529,0.484,0.029
6530,0.459,0.029
6531,0.434,0.029
6532,0.344,0.025
6533,0.255,0.025
6534,0.139,0.025
6535,0.022,0.025
6536,-0.084,0.013
6537,-0.189,0.013
6538,-0.264,0.013
6539,-0.339,0.013
6540,-0.382,0.004
6541,-0.424,0.004
6542,-0.438,0.004
6543,-0.451,0.004
6544,-0.439,-0.004
6545,-0.427,-0.004
6546,-0.396,-0.004
6547,-0.365,-0.004
6548,-0.323,-0.008
6549,-0.281,-0.008
6550,-0.239,-0.008
6551,-0.197,-0.008
6552,-0.164,-0.017
6553,-0.131,-0.017
6554,-0.109,-0.017
6555,-0.087,-0.017
6556,-0.074,-0.029
6557,-0.062,-0.029
6558,-0.058,-0.029
6559,-0.053,-0.029
6560,-0.051,-0.034
6561,-0.050,-0.034
6562,-0.050,-0.034
6563,-0.049,-0.034
6564,-0.050,-0.037
6565,-0.051,-0.037
6566,-0.051,-0.037
6567,-0.052,-0.037
6568,-0.052,-0.042
6569,-0.052,-0.042
6570,-0.052,-0.042
6571,-0.052,-0.042
6572,-0.053,-0.050
6573,-0.054,-0.050
6574,-0.055,-0.050
6575,-0.056,-0.050
6576,-0.058,-0.054
6577,-0.060,-0.054
6578,-0.061,-0.054
6579,-0.063,-0.054
6580,-0.066,-0.059
6581,-0.068,-0.059
6582,-0.070,-0.059
6583,-0.073,-0.059
6584,-0.073,-0.067
6585,-0.074,-0.067
6586,-0.073,-0.067
6587,-0.073,-0.067
6588,-0.072,-0.071
6589,-0.072,-0.071
6590,-0.070,-0.071
6591,-0.069,-0.071
6592,-0.068,-0.075
6593,-0.066,-0.075
6594,-0.066,-0.075
6595,-0.066,-0.075
6596,-0.066,-0.080
6597,-0.066,-0.080
6598,-0.067,-0.080
6599,-0.067,-0.080
6600,-0.068,-0.084
6601,-0.069,-0.084
6602,-0.070,-0.084
6603,-0.072,-0.084
6604,-0.074,-0.092
6605,-0.077,-0.092
6606,-0.080,-0.092
6607,-0.082,-0.092
6608,-0.084,-0.096
6609,-0.085,-0.096
6610,-0.086,-0.096
6611,-0.088,-0.096
6612,-0.089,-0.096
6613,-0.091,-0.096
6614,-0.093,-0.096
6615,-0.095,-0.096
6616,-0.098,-0.101
6617,-0.101,-0.101
6618,-0.104,-0.101
6619,-0.108,-0.101
6620,-0.112,-0.101
6621,-0.115,-0.101
6622,-0.119,-0.101
6623,-0.123,-0.101
6624,-0.128,-0.104
6625,-0.133,-0.104
6626,-0.137,-0.104
6627,-0.141,-0.104
6628,-0.142,-0.104
6629,-0.144,-0.104
6630,-0.145,-0.104
6631,-0.147,-0.104
6632,-0.148,-0.104
6633,-0.150,-0.104
6634,-0.150,-0.104
6635,-0.151,-0.104
6636,-0.149,-0.096
6637,-0.148,-0.096
6638,-0.145,-0.096
6639,-0.142,-0.096
6640,-0.138,-0.092
6641,-0.133,-0.092
6642,-0.128,-0.092
6643,-0.122,-0.092
6644,-0.115,-0.092
6645,-0.107,-0.092
6646,-0.099,-0.092
6647,-0.091,-0.092
6648,-0.082,-0.075
6649,-0.073,-0.075
6650,-0.064,-0.075
6651,-0.055,-0.075
6652,-0.046,-0.067
6653,-0.037,-0.067
6654,-0.030,-0.067
6655,-0.024,-0.067
6656,-0.020,-0.054
6657,-0.016,-0.054
6658,-0.013,-0.054
6659,-0.010,-0.054
6660,-0.008,-0.037
6661,-0.006,-0.037
6662,-0.005,-0.037
6663,-0.005,-0.037
6664,-0.006,-0.025
6665,-0.007,-0.025
6666,-0.008,-0.025
6667,-0.009,-0.025
6668,-0.010,-0.013
6669,-0.011,-0.013
6670,-0.011,-0.013
6671,-0.012,-0.013
6672,-0.014,0.000
6673,-0.016,0.000
6674,-0.018,0.000
6675,-0.019,0.000
6676,-0.021,0.013
6677,-0.023,0.013
6678,-0.025,0.013
6679,-0.027,0.013
6680,-0.029,0.029
6681,-0.031,0.029
6682,-0.033,0.029
6683,-0.034,0.029
6684,-0.035,0.042
6685,-0.037,0.042
6686,-0.037,0.042
6687,-0.038,0.042
6688,-0.039,0.054
6689,-0.040,0.054
6690,-0.041,0.054
6691,-0.042,0.054
6692,-0.043,0.059
6693,-0.043,0.059
6694,-0.044,0.059
6695,-0.045,0.059
6696,-0.046,0.071
6697,-0.048,0.071
6698,-0.048,0.071
6699,-0.048,0.071
6700,-0.048,0.080
6701,-0.048,0.080
6702,-0.048,0.080
6703,-0.047,0.080
6704,-0.045,0.085
6705,-0.043,0.085
6706,-0.042,0.085
6707,-0.040,0.085
6708,-0.037,0.093
6709,-0.035,0.093
6710,-0.031,0.093
6711,-0.027,0.093
6712,-0.021,0.106
6713,-0.016,0.106
6714,-0.007,0.106
6715,0.001,0.106
6716,0.013,0.111
6717,0.024,0.111
6718,0.036,0.111
6719,0.049,0.111
6720,0.062,0.119
6721,0.076,0.119
6722,0.089,0.119
6723,0.102,0.119
6724,0.114,0.123
6725,0.125,0.123
6726,0.133,0.123
6727,0.141,0.123
6728,0.144,0.128
6729,0.147,0.128
6730,0.146,0.128
6731,0.145,0.128
6732,0.141,0.132
6733,0.136,0.132
6734,0.128,0.132
6735,0.120,0.132
6736,0.111,0.136
6737,0.101,0.136
6738,0.091,0.136
6739,0.081,0.136
6740,0.070,0.141
6741,0.060,0.141
6742,0.049,0.141
6743,0.038,0.141
6744,0.029,0.136
6745,0.019,0.136
6746,0.011,0.136
6747,0.003,0.136
6748,-0.004,0.136
