,ECG,PPG
0,0.039,0.111
1,0.035,0.111
2,0.030,0.111
3,0.025,0.111
4,0.021,0.111
5,0.017,0.111
6,0.012,0.111
7,0.008,0.111
8,0.005,0.108
9,0.003,0.108
10,0.001,0.108
11,0.000,0.108
12,0.000,0.105
13,0.000,0.105
14,0.001,0.105
15,0.002,0.105
16,0.003,0.102
17,0.003,0.102
18,0.002,0.102
19,0.002,0.102
20,-0.001,0.090
21,-0.003,0.090
22,-0.004,0.090
23,-0.006,0.090
24,-0.005,0.088
25,-0.005,0.088
26,-0.002,0.088
27,0.000,0.088
28,0.002,0.082
29,0.004,0.082
30,0.005,0.082
31,0.006,0.082
32,0.005,0.082
33,0.005,0.082
34,0.004,0.082
35,0.003,0.082
36,0.001,0.076
37,-0.001,0.076
38,-0.003,0.076
39,-0.004,0.076
40,-0.005,0.073
41,-0.007,0.073
42,-0.008,0.073
43,-0.008,0.073
44,-0.009,0.070
45,-0.009,0.070
46,-0.008,0.070
47,-0.006,0.070
48,-0.003,0.065
49,0.001,0.065
50,0.005,0.065
51,0.009,0.065
52,0.013,0.056
53,0.016,0.056
54,0.018,0.056
55,0.021,0.056
56,0.021,0.052
57,0.020,0.052
58,0.019,0.052
59,0.017,0.052
60,0.016,0.044
61,0.015,0.044
62,0.014,0.044
63,0.012,0.044
64,0.011,0.038
65,0.010,0.038
66,0.008,0.038
67,0.006,0.038
68,0.003,0.029
69,-0.001,0.029
70,-0.005,0.029
71,-0.009,0.029
72,-0.013,0.024
73,-0.017,0.024
74,-0.021,0.024
75,-0.024,0.024
76,-0.027,0.018
77,-0.030,0.018
78,-0.032,0.018
79,-0.034,0.018
80,-0.035,0.009
81,-0.037,0.009
82,-0.039,0.009
83,-0.041,0.009
84,-0.043,0.006
85,-0.046,0.006
86,-0.047,0.006
87,-0.048,0.006
88,-0.046,0.003
89,-0.045,0.003
90,-0.042,0.003
91,-0.039,0.003
92,-0.036,-0.003
93,-0.034,-0.003
94,-0.032,-0.003
95,-0.030,-0.003
96,-0.029,-0.005
97,-0.029,-0.005
98,-0.029,-0.005
99,-0.029,-0.005
100,-0.029,-0.003
101,-0.029,-0.003
102,-0.029,-0.003
103,-0.029,-0.003
104,-0.029,-0.003
105,-0.029,-0.003
106,-0.031,-0.003
107,-0.032,-0.003
108,-0.035,-0.005
109,-0.037,-0.005
110,-0.040,-0.005
111,-0.043,-0.005
112,-0.045,-0.003
113,-0.047,-0.003
114,-0.045,-0.003
115,-0.043,-0.003
116,-0.035,-0.003
117,-0.026,-0.003
118,-0.008,-0.003
119,0.009,-0.003
120,0.039,0.000
121,0.069,0.000
122,0.106,0.000
123,0.143,0.000
124,0.178,-0.003
125,0.214,-0.003
126,0.234,-0.003
127,0.254,-0.003
128,0.251,0.000
129,0.247,0.000
130,0.220,0.000
131,0.193,0.000
132,0.151,-0.005
133,0.110,-0.005
134,0.067,-0.005
135,0.025,-0.005
136,-0.007,-0.005
137,-0.039,-0.005
138,-0.059,-0.005
139,-0.079,-0.005
140,-0.092,-0.011
141,-0.104,-0.011
142,-0.117,-0.011
143,-0.129,-0.011
144,-0.146,-0.018
145,-0.162,-0.018
146,-0.182,-0.018
147,-0.202,-0.018
148,-0.223,-0.021
149,-0.243,-0.021
150,-0.262,-0.021
151,-0.281,-0.021
152,-0.296,-0.026
153,-0.312,-0.026
154,-0.322,-0.026
155,-0.332,-0.026
156,-0.334,-0.029
157,-0.337,-0.029
158,-0.329,-0.029
159,-0.322,-0.029
160,-0.304,-0.029
161,-0.286,-0.029
162,-0.260,-0.029
163,-0.233,-0.029
164,-0.204,-0.032
165,-0.175,-0.032
166,-0.146,-0.032
167,-0.117,-0.032
168,-0.093,-0.032
169,-0.069,-0.032
170,-0.049,-0.032
171,-0.030,-0.032
172,-0.016,-0.032
173,-0.002,-0.032
174,0.007,-0.032
175,0.017,-0.032
176,0.022,-0.032
177,0.028,-0.032
178,0.031,-0.032
179,0.033,-0.032
180,0.034,-0.029
181,0.035,-0.029
182,0.035,-0.029
183,0.036,-0.029
184,0.036,-0.026
185,0.036,-0.026
186,0.036,-0.026
187,0.035,-0.026
188,0.034,-0.026
189,0.032,-0.026
190,0.031,-0.026
191,0.031,-0.026
192,0.032,-0.026
193,0.033,-0.026
194,0.036,-0.026
195,0.039,-0.026
196,0.043,-0.021
197,0.048,-0.021
198,0.052,-0.021
199,0.057,-0.021
200,0.060,-0.023
201,0.064,-0.023
202,0.066,-0.023
203,0.068,-0.023
204,0.069,-0.026
205,0.069,-0.026
206,0.069,-0.026
207,0.069,-0.026
208,0.068,-0.029
209,0.068,-0.029
210,0.068,-0.029
211,0.068,-0.029
212,0.068,-0.032
213,0.069,-0.032
214,0.069,-0.032
215,0.070,-0.032
216,0.071,-0.035
217,0.073,-0.035
218,0.074,-0.035
219,0.074,-0.035
220,0.075,-0.038
221,0.076,-0.038
222,0.078,-0.038
223,0.079,-0.038
224,0.081,-0.041
225,0.082,-0.041
226,0.084,-0.041
227,0.087,-0.041
228,0.090,-0.041
229,0.092,-0.041
230,0.096,-0.041
231,0.100,-0.041
232,0.104,-0.038
233,0.108,-0.038
234,0.112,-0.038
235,0.116,-0.038
236,0.122,-0.029
237,0.127,-0.029
238,0.134,-0.029
239,0.140,-0.029
240,0.145,-0.018
241,0.151,-0.018
242,0.155,-0.018
243,0.158,-0.018
244,0.158,-0.005
245,0.157,-0.005
246,0.155,-0.005
247,0.152,-0.005
248,0.148,0.009
249,0.143,0.009
250,0.139,0.009
251,0.135,0.009
252,0.131,0.026
253,0.128,0.026
254,0.125,0.026
255,0.123,0.026
256,0.121,0.044
257,0.120,0.044
258,0.119,0.044
259,0.119,0.044
260,0.119,0.059
261,0.119,0.059
262,0.117,0.059
263,0.116,0.059
264,0.112,0.070
265,0.109,0.070
266,0.103,0.070
267,0.098,0.070
268,0.091,0.085
269,0.085,0.085
270,0.079,0.085
271,0.073,0.085
272,0.068,0.090
273,0.062,0.090
274,0.057,0.090
275,0.052,0.090
276,0.049,0.093
277,0.045,0.093
278,0.043,0.093
279,0.040,0.093
280,0.039,0.100
281,0.037,0.100
282,0.036,0.100
283,0.035,0.100
284,0.034,0.097
285,0.033,0.097
286,0.030,0.097
287,0.028,0.097
288,0.025,0.093
289,0.023,0.093
290,0.021,0.093
291,0.018,0.093
292,0.016,0.097
293,0.014,0.097
294,0.012,0.097
295,0.010,0.097
296,0.009,0.093
297,0.007,0.093
298,0.005,0.093
299,0.004,0.093
300,0.003,0.088
301,0.002,0.088
302,0.002,0.088
303,0.003,0.088
304,0.004,0.088
305,0.006,0.088
306,0.008,0.088
307,0.010,0.088
308,0.012,0.088
309,0.014,0.088
310,0.014,0.088
311,0.014,0.088
312,0.013,0.088
313,0.011,0.088
314,0.010,0.088
315,0.008,0.088
316,0.006,0.085
317,0.005,0.085
318,0.003,0.085
319,0.001,0.085
320,-0.002,0.082
321,-0.004,0.082
322,-0.005,0.082
323,-0.006,0.082
324,-0.005,0.076
325,-0.005,0.076
326,-0.002,0.076
327,0.000,0.076
328,0.003,0.070
329,0.006,0.070
330,0.009,0.070
331,0.012,0.070
332,0.014,0.059
333,0.016,0.059
334,0.018,0.059
335,0.020,0.059
336,0.021,0.047
337,0.023,0.047
338,0.024,0.047
339,0.024,0.047
340,0.024,0.033
341,0.024,0.033
342,0.023,0.033
343,0.021,0.033
344,0.019,0.018
345,0.016,0.018
346,0.013,0.018
347,0.009,0.018
348,0.006,0.006
349,0.002,0.006
350,-0.002,0.006
351,-0.006,0.006
352,-0.009,-0.003
353,-0.013,-0.003
354,-0.017,-0.003
355,-0.020,-0.003
356,-0.023,-0.009
357,-0.025,-0.009
358,-0.026,-0.009
359,-0.027,-0.009
360,-0.026,-0.011
361,-0.025,-0.011
362,-0.024,-0.011
363,-0.022,-0.011
364,-0.022,-0.011
365,-0.021,-0.011
366,-0.022,-0.011
367,-0.023,-0.011
368,-0.025,-0.011
369,-0.028,-0.011
370,-0.029,-0.011
371,-0.031,-0.011
372,-0.032,-0.003
373,-0.033,-0.003
374,-0.034,-0.003
375,-0.034,-0.003
376,-0.035,0.003
377,-0.035,0.003
378,-0.036,0.003
379,-0.036,0.003
380,-0.038,0.006
381,-0.039,0.006
382,-0.041,0.006
383,-0.044,0.006
384,-0.047,0.009
385,-0.050,0.009
386,-0.053,0.009
387,-0.056,0.009
388,-0.057,0.012
389,-0.058,0.012
390,-0.055,0.012
391,-0.052,0.012
392,-0.045,0.015
393,-0.037,0.015
394,-0.023,0.015
395,-0.009,0.015
396,0.014,0.012
397,0.037,0.012
398,0.070,0.012
399,0.103,0.012
400,0.140,0.009
401,0.177,0.009
402,0.208,0.009
403,0.239,0.009
404,0.251,0.003
405,0.263,0.003
406,0.250,0.003
407,0.236,0.003
408,0.200,0.000
409,0.164,0.000
410,0.119,0.000
411,0.074,0.000
412,0.034,-0.003
413,-0.005,-0.003
414,-0.032,-0.003
415,-0.059,-0.003
416,-0.075,-0.009
417,-0.091,-0.009
418,-0.103,-0.009
419,-0.115,-0.009
420,-0.129,-0.018
421,-0.142,-0.018
422,-0.161,-0.018
423,-0.180,-0.018
424,-0.202,-0.023
425,-0.223,-0.023
426,-0.244,-0.023
427,-0.264,-0.023
428,-0.282,-0.029
429,-0.299,-0.029
430,-0.312,-0.029
431,-0.325,-0.029
432,-0.332,-0.032
433,-0.339,-0.032
434,-0.338,-0.032
435,-0.336,-0.032
436,-0.325,-0.035
437,-0.314,-0.035
438,-0.293,-0.035
439,-0.271,-0.035
440,-0.243,-0.038
441,-0.215,-0.038
442,-0.186,-0.038
443,-0.156,-0.038
444,-0.129,-0.035
445,-0.101,-0.035
446,-0.078,-0.035
447,-0.056,-0.035
448,-0.039,-0.035
449,-0.022,-0.035
450,-0.011,-0.035
451,0.001,-0.035
452,0.008,-0.029
453,0.016,-0.029
454,0.020,-0.029
455,0.024,-0.029
456,0.025,-0.026
457,0.027,-0.026
458,0.027,-0.026
459,0.027,-0.026
460,0.027,-0.021
461,0.027,-0.021
462,0.028,-0.021
463,0.029,-0.021
464,0.031,-0.018
465,0.033,-0.018
466,0.036,-0.018
467,0.038,-0.018
468,0.041,-0.015
469,0.044,-0.015
470,0.045,-0.015
471,0.047,-0.015
472,0.047,-0.018
473,0.048,-0.018
474,0.048,-0.018
475,0.048,-0.018
476,0.048,-0.015
477,0.048,-0.015
478,0.049,-0.015
479,0.049,-0.015
480,0.050,-0.021
481,0.051,-0.021
482,0.054,-0.021
483,0.057,-0.021
484,0.060,-0.026
485,0.063,-0.026
486,0.065,-0.026
487,0.068,-0.026
488,0.070,-0.032
489,0.073,-0.032
490,0.075,-0.032
491,0.076,-0.032
492,0.078,-0.041
493,0.080,-0.041
494,0.081,-0.041
495,0.083,-0.041
496,0.084,-0.046
497,0.086,-0.046
498,0.087,-0.046
499,0.087,-0.046
500,0.087,-0.052
501,0.087,-0.052
502,0.087,-0.052
503,0.087,-0.052
504,0.088,-0.056
505,0.088,-0.056
506,0.089,-0.056
507,0.090,-0.056
508,0.094,-0.052
509,0.097,-0.052
510,0.102,-0.052
511,0.107,-0.052
512,0.112,-0.050
513,0.118,-0.050
514,0.124,-0.050
515,0.129,-0.050
516,0.134,-0.046
517,0.138,-0.046
518,0.141,-0.046
519,0.143,-0.046
520,0.144,-0.035
521,0.145,-0.035
522,0.146,-0.035
523,0.147,-0.035
524,0.147,-0.026
525,0.148,-0.026
526,0.148,-0.026
527,0.148,-0.026
528,0.148,-0.009
529,0.148,-0.009
530,0.147,-0.009
531,0.145,-0.009
532,0.143,0.006
533,0.141,0.006
534,0.137,0.006
535,0.134,0.006
536,0.130,0.021
537,0.126,0.021
538,0.121,0.021
539,0.117,0.021
540,0.113,0.041
541,0.109,0.041
542,0.105,0.041
543,0.102,0.041
544,0.099,0.052
545,0.096,0.052
546,0.094,0.052
547,0.092,0.052
548,0.090,0.065
549,0.088,0.065
550,0.085,0.065
551,0.083,0.065
552,0.078,0.073
553,0.074,0.073
554,0.068,0.073
555,0.062,0.073
556,0.057,0.079
557,0.051,0.079
558,0.047,0.079
559,0.043,0.079
560,0.039,0.082
561,0.035,0.082
562,0.032,0.082
563,0.029,0.082
564,0.026,0.082
565,0.023,0.082
566,0.021,0.082
567,0.018,0.082
568,0.016,0.076
569,0.015,0.076
570,0.013,0.076
571,0.012,0.076
572,0.010,0.068
573,0.008,0.068
574,0.006,0.068
575,0.003,0.068
576,0.001,0.061
577,-0.001,0.061
578,-0.001,0.061
579,-0.002,0.061
580,-0.001,0.056
581,0.001,0.056
582,0.002,0.056
583,0.004,0.056
584,0.005,0.047
585,0.006,0.047
586,0.006,0.047
587,0.007,0.047
588,0.006,0.038
589,0.006,0.038
590,0.006,0.038
591,0.005,0.038
592,0.006,0.033
593,0.006,0.033
594,0.006,0.033
595,0.007,0.033
596,0.006,0.024
597,0.005,0.024
598,0.003,0.024
599,0.002,0.024
600,0.001,0.015
601,0.000,0.015
602,0.001,0.015
603,0.003,0.015
604,0.006,0.009
605,0.010,0.009
606,0.015,0.009
607,0.020,0.009
608,0.025,0.003
609,0.030,0.003
610,0.033,0.003
611,0.036,0.003
612,0.037,-0.003
613,0.038,-0.003
614,0.037,-0.003
615,0.036,-0.003
616,0.034,-0.005
617,0.033,-0.005
618,0.031,-0.005
619,0.029,-0.005
620,0.026,-0.009
621,0.023,-0.009
622,0.019,-0.009
623,0.016,-0.009
624,0.012,-0.011
625,0.008,-0.011
626,0.004,-0.011
627,0.000,-0.011
628,-0.003,-0.011
629,-0.007,-0.011
630,-0.009,-0.011
631,-0.011,-0.011
632,-0.013,-0.009
633,-0.015,-0.009
634,-0.017,-0.009
635,-0.019,-0.009
636,-0.021,-0.009
637,-0.023,-0.009
638,-0.025,-0.009
639,-0.027,-0.009
640,-0.027,-0.015
641,-0.027,-0.015
642,-0.027,-0.015
643,-0.027,-0.015
644,-0.027,-0.009
645,-0.026,-0.009
646,-0.025,-0.009
647,-0.025,-0.009
648,-0.025,-0.006
649,-0.025,-0.006
650,-0.025,-0.006
651,-0.026,-0.006
652,-0.028,-0.006
653,-0.029,-0.006
654,-0.031,-0.006
655,-0.034,-0.006
656,-0.036,-0.003
657,-0.039,-0.003
658,-0.042,-0.003
659,-0.045,-0.003
660,-0.047,-0.006
661,-0.049,-0.006
662,-0.050,-0.006
663,-0.051,-0.006
664,-0.051,-0.009
665,-0.051,-0.009
666,-0.050,-0.009
667,-0.048,-0.009
668,-0.043,-0.012
669,-0.039,-0.012
670,-0.030,-0.012
671,-0.020,-0.012
672,-0.004,-0.018
673,0.012,-0.018
674,0.038,-0.018
675,0.064,-0.018
676,0.100,-0.024
677,0.135,-0.024
678,0.173,-0.024
679,0.210,-0.024
680,0.236,-0.029
681,0.263,-0.029
682,0.267,-0.029
683,0.272,-0.029
684,0.250,-0.029
685,0.228,-0.029
686,0.186,-0.029
687,0.145,-0.029
688,0.100,-0.033
689,0.055,-0.033
690,0.019,-0.033
691,-0.017,-0.033
692,-0.039,-0.033
693,-0.062,-0.033
694,-0.075,-0.033
695,-0.087,-0.033
696,-0.099,-0.029
697,-0.111,-0.029
698,-0.127,-0.029
699,-0.143,-0.029
700,-0.164,-0.029
701,-0.184,-0.029
702,-0.207,-0.029
703,-0.230,-0.029
704,-0.250,-0.029
705,-0.271,-0.029
706,-0.288,-0.029
707,-0.305,-0.029
708,-0.317,-0.026
709,-0.328,-0.026
710,-0.333,-0.026
711,-0.338,-0.026
712,-0.334,-0.026
713,-0.330,-0.026
714,-0.317,-0.026
715,-0.304,-0.026
716,-0.282,-0.026
717,-0.259,-0.026
718,-0.232,-0.026
719,-0.204,-0.026
720,-0.175,-0.026
721,-0.146,-0.026
722,-0.119,-0.026
723,-0.092,-0.026
724,-0.070,-0.033
725,-0.048,-0.033
726,-0.031,-0.033
727,-0.015,-0.033
728,-0.003,-0.038
729,0.008,-0.038
730,0.015,-0.038
731,0.022,-0.038
732,0.027,-0.041
733,0.031,-0.041
734,0.035,-0.041
735,0.039,-0.041
736,0.043,-0.044
737,0.047,-0.044
738,0.051,-0.044
739,0.055,-0.044
740,0.058,-0.047
741,0.061,-0.047
742,0.063,-0.047
743,0.065,-0.047
744,0.066,-0.053
745,0.067,-0.053
746,0.067,-0.053
747,0.067,-0.053
748,0.067,-0.056
749,0.068,-0.056
750,0.067,-0.056
751,0.067,-0.056
752,0.067,-0.053
753,0.067,-0.053
754,0.067,-0.053
755,0.067,-0.053
756,0.066,-0.053
757,0.066,-0.053
758,0.067,-0.053
759,0.067,-0.053
760,0.068,-0.056
761,0.069,-0.056
762,0.069,-0.056
763,0.070,-0.056
764,0.071,-0.059
765,0.073,-0.059
766,0.074,-0.059
767,0.074,-0.059
768,0.075,-0.061
769,0.076,-0.061
770,0.078,-0.061
771,0.079,-0.061
772,0.081,-0.065
773,0.082,-0.065
774,0.084,-0.065
775,0.086,-0.065
776,0.088,-0.070
777,0.090,-0.070
778,0.092,-0.070
779,0.094,-0.070
780,0.096,-0.076
781,0.098,-0.076
782,0.101,-0.076
783,0.104,-0.076
784,0.108,-0.076
785,0.111,-0.076
786,0.115,-0.076
787,0.120,-0.076
788,0.123,-0.076
789,0.127,-0.076
790,0.130,-0.076
791,0.133,-0.076
792,0.136,-0.073
793,0.139,-0.073
794,0.142,-0.073
795,0.146,-0.073
796,0.150,-0.065
797,0.154,-0.065
798,0.157,-0.065
799,0.161,-0.065
800,0.163,-0.056
801,0.166,-0.056
802,0.167,-0.056
803,0.167,-0.056
804,0.167,-0.038
805,0.167,-0.038
806,0.167,-0.038
807,0.166,-0.038
808,0.165,-0.021
809,0.164,-0.021
810,0.163,-0.021
811,0.161,-0.021
812,0.158,0.005
813,0.156,0.005
814,0.152,0.005
815,0.148,0.005
816,0.143,0.026
817,0.139,0.026
818,0.134,0.026
819,0.129,0.026
820,0.124,0.046
821,0.120,0.046
822,0.116,0.046
823,0.113,0.046
824,0.109,0.070
825,0.105,0.070
826,0.101,0.070
827,0.097,0.070
828,0.091,0.087
829,0.086,0.087
830,0.080,0.087
831,0.074,0.087
832,0.068,0.096
833,0.062,0.096
834,0.058,0.096
835,0.053,0.096
836,0.049,0.105
837,0.046,0.105
838,0.042,0.105
839,0.038,0.105
840,0.036,0.111
841,0.033,0.111
842,0.030,0.111
843,0.028,0.111
844,0.025,0.111
845,0.023,0.111
846,0.022,0.111
847,0.020,0.111
848,0.020,0.111
849,0.019,0.111
850,0.020,0.111
851,0.020,0.111
852,0.021,0.105
853,0.021,0.105
854,0.021,0.105
855,0.021,0.105
856,0.021,0.102
857,0.021,0.102
858,0.022,0.102
859,0.022,0.102
860,0.023,0.093
861,0.023,0.093
862,0.023,0.093
863,0.023,0.093
864,0.022,0.085
865,0.022,0.085
866,0.021,0.085
867,0.019,0.085
868,0.018,0.073
869,0.017,0.073
870,0.017,0.073
871,0.017,0.073
872,0.018,0.061
873,0.019,0.061
874,0.021,0.061
875,0.022,0.061
876,0.024,0.050
877,0.026,0.050
878,0.027,0.050
879,0.029,0.050
880,0.030,0.043
881,0.031,0.043
882,0.033,0.043
883,0.035,0.043
884,0.037,0.035
885,0.038,0.035
886,0.039,0.035
887,0.039,0.035
888,0.039,0.026
889,0.038,0.026
890,0.038,0.026
891,0.038,0.026
892,0.038,0.021
893,0.038,0.021
894,0.038,0.021
895,0.038,0.021
896,0.037,0.024
897,0.036,0.024
898,0.034,0.024
899,0.031,0.024
900,0.028,0.029
901,0.024,0.029
902,0.021,0.029
903,0.018,0.029
904,0.015,0.035
905,0.012,0.035
906,0.009,0.035
907,0.007,0.035
908,0.004,0.041
909,0.002,0.041
910,-0.001,0.041
911,-0.003,0.041
912,-0.006,0.056
913,-0.009,0.056
914,-0.012,0.056
915,-0.015,0.056
916,-0.016,0.067
917,-0.017,0.067
918,-0.017,0.067
919,-0.018,0.067
920,-0.017,0.082
921,-0.017,0.082
922,-0.016,0.082
923,-0.015,0.082
924,-0.013,0.100
925,-0.011,0.100
926,-0.011,0.100
927,-0.010,0.100
928,-0.010,0.111
929,-0.011,0.111
930,-0.012,0.111
931,-0.013,0.111
932,-0.015,0.129
933,-0.016,0.129
934,-0.018,0.129
935,-0.021,0.129
936,-0.024,0.143
937,-0.027,0.143
938,-0.028,0.143
939,-0.030,0.143
940,-0.031,0.155
941,-0.032,0.155
942,-0.032,0.155
943,-0.032,0.155
944,-0.029,0.167
945,-0.027,0.167
946,-0.022,0.167
947,-0.017,0.167
948,-0.009,0.175
949,-0.001,0.175
950,0.013,0.175
951,0.027,0.175
952,0.050,0.181
953,0.073,0.181
954,0.106,0.181
955,0.139,0.181
956,0.174,0.187
957,0.208,0.187
958,0.234,0.187
959,0.259,0.187
960,0.262,0.190
961,0.265,0.190
962,0.242,0.190
963,0.219,0.190
964,0.177,0.190
965,0.135,0.190
966,0.090,0.190
967,0.046,0.190
968,0.012,0.190
969,-0.022,0.190
970,-0.042,0.190
971,-0.061,0.190
972,-0.070,0.187
973,-0.080,0.187
974,-0.087,0.187
975,-0.095,0.187
976,-0.107,0.181
977,-0.120,0.181
978,-0.140,0.181
979,-0.160,0.181
980,-0.183,0.178
981,-0.206,0.178
982,-0.227,0.178
983,-0.248,0.178
984,-0.265,0.167
985,-0.282,0.167
986,-0.293,0.167
987,-0.305,0.167
988,-0.310,0.158
989,-0.315,0.158
990,-0.315,0.158
991,-0.315,0.158
992,-0.308,0.149
993,-0.300,0.149
994,-0.284,0.149
995,-0.267,0.149
996,-0.243,0.138
997,-0.219,0.138
998,-0.192,0.138
999,-0.165,0.138
1000,-0.139,0.129
1001,-0.112,0.129
1002,-0.089,0.129
1003,-0.065,0.129
1004,-0.045,0.120
1005,-0.026,0.120
1006,-0.011,0.120
1007,0.004,0.120
1008,0.014,0.108
1009,0.024,0.108
1010,0.031,0.108
1011,0.037,0.108
1012,0.040,0.102
1013,0.043,0.102
1014,0.045,0.102
1015,0.047,0.102
1016,0.048,0.093
1017,0.049,0.093
1018,0.051,0.093
1019,0.052,0.093
1020,0.054,0.085
1021,0.056,0.085
1022,0.058,0.085
1023,0.060,0.085
1024,0.061,0.085
1025,0.062,0.085
1026,0.063,0.085
1027,0.063,0.085
1028,0.063,0.082
1029,0.062,0.082
1030,0.062,0.082
1031,0.061,0.082
1032,0.061,0.079
1033,0.061,0.079
1034,0.061,0.079
1035,0.061,0.079
1036,0.062,0.079
1037,0.063,0.079
1038,0.065,0.079
1039,0.067,0.079
1040,0.069,0.076
1041,0.072,0.076
1042,0.074,0.076
1043,0.076,0.076
1044,0.078,0.073
1045,0.081,0.073
1046,0.082,0.073
1047,0.084,0.073
1048,0.085,0.061
1049,0.087,0.061
1050,0.088,0.061
1051,0.090,0.061
1052,0.092,0.059
1053,0.094,0.059
1054,0.096,0.059
1055,0.098,0.059
1056,0.100,0.044
1057,0.102,0.044
1058,0.103,0.044
1059,0.103,0.044
1060,0.104,0.032
1061,0.105,0.032
1062,0.106,0.032
1063,0.107,0.032
1064,0.110,0.021
1065,0.112,0.021
1066,0.117,0.021
1067,0.121,0.021
1068,0.127,0.006
1069,0.133,0.006
1070,0.138,0.006
1071,0.143,0.006
1072,0.148,-0.015
1073,0.153,-0.015
1074,0.156,-0.015
1075,0.160,-0.015
1076,0.162,-0.032
1077,0.164,-0.032
1078,0.165,-0.032
1079,0.165,-0.032
1080,0.165,-0.047
1081,0.165,-0.047
1082,0.165,-0.047
1083,0.165,-0.047
1084,0.164,-0.065
1085,0.163,-0.065
1086,0.161,-0.065
1087,0.158,-0.065
1088,0.155,-0.079
1089,0.152,-0.079
1090,0.148,-0.079
1091,0.144,-0.079
1092,0.140,-0.087
1093,0.135,-0.087
1094,0.131,-0.087
1095,0.128,-0.087
1096,0.125,-0.100
1097,0.123,-0.100
1098,0.120,-0.100
1099,0.116,-0.100
1100,0.112,-0.105
1101,0.108,-0.105
1102,0.104,-0.105
1103,0.100,-0.105
1104,0.096,-0.105
1105,0.091,-0.105
1106,0.086,-0.105
1107,0.081,-0.105
1108,0.077,-0.105
1109,0.072,-0.105
1110,0.068,-0.105
1111,0.063,-0.105
1112,0.059,-0.105
1113,0.054,-0.105
1114,0.050,-0.105
1115,0.045,-0.105
1116,0.042,-0.093
1117,0.039,-0.093
1118,0.038,-0.093
1119,0.037,-0.093
1120,0.037,-0.087
1121,0.036,-0.087
1122,0.037,-0.087
1123,0.037,-0.087
1124,0.037,-0.082
1125,0.037,-0.082
1126,0.036,-0.082
1127,0.035,-0.082
1128,0.033,-0.073
1129,0.031,-0.073
1130,0.028,-0.073
1131,0.025,-0.073
1132,0.021,-0.067
1133,0.018,-0.067
1134,0.015,-0.067
1135,0.013,-0.067
1136,0.012,-0.061
1137,0.011,-0.061
1138,0.011,-0.061
1139,0.011,-0.061
1140,0.013,-0.056
1141,0.014,-0.056
1142,0.016,-0.056
1143,0.018,-0.056
1144,0.020,-0.050
1145,0.022,-0.050
1146,0.024,-0.050
1147,0.025,-0.050
1148,0.027,-0.050
1149,0.029,-0.050
1150,0.029,-0.050
1151,0.030,-0.050
1152,0.029,-0.064
1153,0.028,-0.064
1154,0.025,-0.064
1155,0.022,-0.064
1156,0.019,-0.067
1157,0.017,-0.067
1158,0.016,-0.067
1159,0.015,-0.067
1160,0.016,-0.067
1161,0.018,-0.067
1162,0.019,-0.067
1163,0.021,-0.067
1164,0.023,-0.073
1165,0.025,-0.073
1166,0.026,-0.073
1167,0.027,-0.073
1168,0.028,-0.079
1169,0.029,-0.079
1170,0.028,-0.079
1171,0.028,-0.079
1172,0.027,-0.082
1173,0.026,-0.082
1174,0.024,-0.082
1175,0.021,-0.082
1176,0.018,-0.087
1177,0.016,-0.087
1178,0.013,-0.087
1179,0.010,-0.087
1180,0.008,-0.090
1181,0.006,-0.090
1182,0.004,-0.090
1183,0.002,-0.090
1184,-0.000,-0.100
1185,-0.002,-0.100
1186,-0.004,-0.100
1187,-0.006,-0.100
1188,-0.007,-0.102
1189,-0.008,-0.102
1190,-0.009,-0.102
1191,-0.010,-0.102
1192,-0.010,-0.102
1193,-0.010,-0.102
1194,-0.010,-0.102
1195,-0.010,-0.102
1196,-0.010,-0.108
1197,-0.010,-0.108
1198,-0.010,-0.108
1199,-0.011,-0.108
1200,-0.012,-0.111
1201,-0.014,-0.111
1202,-0.015,-0.111
1203,-0.016,-0.111
1204,-0.017,-0.108
1205,-0.018,-0.108
1206,-0.018,-0.108
1207,-0.019,-0.108
1208,-0.019,-0.114
1209,-0.019,-0.114
1210,-0.018,-0.114
1211,-0.018,-0.114
1212,-0.018,-0.119
1213,-0.018,-0.119
1214,-0.018,-0.119
1215,-0.019,-0.119
1216,-0.020,-0.122
1217,-0.021,-0.122
1218,-0.021,-0.122
1219,-0.021,-0.122
1220,-0.020,-0.126
1221,-0.019,-0.126
1222,-0.016,-0.126
1223,-0.012,-0.126
1224,-0.004,-0.129
1225,0.004,-0.129
1226,0.019,-0.129
1227,0.034,-0.129
1228,0.057,-0.135
1229,0.081,-0.135
1230,0.112,-0.135
1231,0.143,-0.135
1232,0.177,-0.140
1233,0.210,-0.140
1234,0.234,-0.140
1235,0.258,-0.140
1236,0.260,-0.149
1237,0.262,-0.149
1238,0.241,-0.149
1239,0.219,-0.149
1240,0.180,-0.155
1241,0.140,-0.155
1242,0.098,-0.155
1243,0.056,-0.155
1244,0.023,-0.158
1245,-0.010,-0.158
1246,-0.029,-0.158
1247,-0.048,-0.158
1248,-0.057,-0.158
1249,-0.066,-0.158
1250,-0.074,-0.158
1251,-0.081,-0.158
1252,-0.094,-0.164
1253,-0.106,-0.164
1254,-0.124,-0.164
1255,-0.142,-0.164
1256,-0.163,-0.170
1257,-0.184,-0.170
1258,-0.205,-0.170
1259,-0.225,-0.170
1260,-0.241,-0.175
1261,-0.257,-0.175
1262,-0.269,-0.175
1263,-0.280,-0.175
1264,-0.288,-0.181
1265,-0.295,-0.181
1266,-0.298,-0.181
1267,-0.300,-0.181
1268,-0.296,-0.181
1269,-0.293,-0.181
1270,-0.281,-0.181
1271,-0.270,-0.181
1272,-0.251,-0.187
1273,-0.232,-0.187
1274,-0.208,-0.187
1275,-0.183,-0.187
1276,-0.158,-0.190
1277,-0.132,-0.190
1278,-0.108,-0.190
1279,-0.083,-0.190
1280,-0.063,-0.199
1281,-0.043,-0.199
1282,-0.028,-0.199
1283,-0.013,-0.199
1284,-0.004,-0.199
1285,0.005,-0.199
1286,0.011,-0.199
1287,0.016,-0.199
1288,0.020,-0.204
1289,0.024,-0.204
1290,0.027,-0.204
1291,0.031,-0.204
1292,0.034,-0.210
1293,0.037,-0.210
1294,0.041,-0.210
1295,0.044,-0.210
1296,0.047,-0.207
1297,0.049,-0.207
1298,0.050,-0.207
1299,0.051,-0.207
1300,0.051,-0.210
1301,0.052,-0.210
1302,0.052,-0.210
1303,0.052,-0.210
1304,0.053,-0.210
1305,0.054,-0.210
1306,0.055,-0.210
1307,0.055,-0.210
1308,0.057,-0.213
1309,0.058,-0.213
1310,0.061,-0.213
1311,0.063,-0.213
1312,0.065,-0.210
1313,0.067,-0.210
1314,0.068,-0.210
1315,0.069,-0.210
1316,0.070,-0.204
1317,0.071,-0.204
1318,0.071,-0.204
1319,0.072,-0.204
1320,0.074,-0.204
1321,0.075,-0.204
1322,0.077,-0.204
1323,0.078,-0.204
1324,0.080,-0.196
1325,0.082,-0.196
1326,0.083,-0.196
1327,0.084,-0.196
1328,0.084,-0.193
1329,0.084,-0.193
1330,0.083,-0.193
1331,0.083,-0.193
1332,0.083,-0.190
1333,0.083,-0.190
1334,0.084,-0.190
1335,0.084,-0.190
1336,0.085,-0.184
1337,0.086,-0.184
1338,0.089,-0.184
1339,0.091,-0.184
1340,0.095,-0.175
1341,0.099,-0.175
1342,0.103,-0.175
1343,0.108,-0.175
1344,0.113,-0.167
1345,0.118,-0.167
1346,0.122,-0.167
1347,0.126,-0.167
1348,0.128,-0.161
1349,0.130,-0.161
1350,0.131,-0.161
1351,0.131,-0.161
1352,0.132,-0.146
1353,0.133,-0.146
1354,0.134,-0.146
1355,0.135,-0.146
1356,0.136,-0.135
1357,0.138,-0.135
1358,0.139,-0.135
1359,0.140,-0.135
1360,0.141,-0.122
1361,0.141,-0.122
1362,0.141,-0.122
1363,0.141,-0.122
1364,0.139,-0.105
1365,0.138,-0.105
1366,0.134,-0.105
1367,0.131,-0.105
1368,0.126,-0.085
1369,0.121,-0.085
1370,0.116,-0.085
1371,0.110,-0.085
1372,0.105,-0.064
1373,0.101,-0.064
1374,0.098,-0.064
1375,0.096,-0.064
1376,0.094,-0.043
1377,0.092,-0.043
1378,0.090,-0.043
1379,0.088,-0.043
1380,0.084,-0.024
1381,0.081,-0.024
1382,0.076,-0.024
1383,0.072,-0.024
1384,0.066,-0.006
1385,0.060,-0.006
1386,0.055,-0.006
1387,0.049,-0.006
1388,0.045,0.012
1389,0.041,0.012
1390,0.038,0.012
1391,0.035,0.012
1392,0.033,0.029
1393,0.031,0.029
1394,0.030,0.029
1395,0.028,0.029
1396,0.027,0.038
1397,0.025,0.038
1398,0.024,0.038
1399,0.022,0.038
1400,0.019,0.038
1401,0.017,0.038
1402,0.015,0.038
1403,0.013,0.038
1404,0.012,0.038
1405,0.010,0.038
1406,0.010,0.038
1407,0.009,0.038
1408,0.010,0.032
1409,0.010,0.032
1410,0.011,0.032
1411,0.011,0.032
1412,0.013,0.018
1413,0.014,0.018
1414,0.016,0.018
1415,0.018,0.018
1416,0.019,0.003
1417,0.021,0.003
1418,0.022,0.003
1419,0.023,0.003
1420,0.022,-0.018
1421,0.022,-0.018
1422,0.021,-0.018
1423,0.019,-0.018
1424,0.018,-0.035
1425,0.016,-0.035
1426,0.015,-0.035
1427,0.015,-0.035
1428,0.014,-0.056
1429,0.014,-0.056
1430,0.014,-0.056
1431,0.014,-0.056
1432,0.014,-0.076
1433,0.015,-0.076
1434,0.016,-0.076
1435,0.017,-0.076
1436,0.018,-0.093
1437,0.020,-0.093
1438,0.022,-0.093
1439,0.023,-0.093
1440,0.025,-0.105
1441,0.027,-0.105
1442,0.028,-0.105
1443,0.029,-0.105
1444,0.030,-0.119
1445,0.030,-0.119
1446,0.030,-0.119
1447,0.031,-0.119
1448,0.030,-0.126
1449,0.030,-0.126
1450,0.029,-0.126
1451,0.028,-0.126
1452,0.026,-0.135
1453,0.024,-0.135
1454,0.022,-0.135
1455,0.020,-0.135
1456,0.018,-0.137
1457,0.016,-0.137
1458,0.014,-0.137
1459,0.012,-0.137
1460,0.010,-0.137
1461,0.008,-0.137
1462,0.007,-0.137
1463,0.005,-0.137
1464,0.004,-0.140
1465,0.003,-0.140
1466,0.001,-0.140
1467,-0.002,-0.140
1468,-0.004,-0.140
1469,-0.007,-0.140
1470,-0.010,-0.140
1471,-0.014,-0.140
1472,-0.017,-0.135
1473,-0.021,-0.135
1474,-0.025,-0.135
1475,-0.029,-0.135
1476,-0.031,-0.132
1477,-0.034,-0.132
1478,-0.034,-0.132
1479,-0.035,-0.132
1480,-0.033,-0.126
1481,-0.032,-0.126
1482,-0.029,-0.126
1483,-0.026,-0.126
1484,-0.023,-0.129
1485,-0.020,-0.129
1486,-0.019,-0.129
1487,-0.018,-0.129
1488,-0.020,-0.126
1489,-0.022,-0.126
1490,-0.025,-0.126
1491,-0.029,-0.126
1492,-0.033,-0.119
1493,-0.036,-0.119
1494,-0.038,-0.119
1495,-0.041,-0.119
1496,-0.039,-0.122
1497,-0.038,-0.122
1498,-0.035,-0.122
1499,-0.031,-0.122
1500,-0.023,-0.126
1501,-0.016,-0.126
1502,-0.003,-0.126
1503,0.009,-0.126
1504,0.030,-0.129
1505,0.051,-0.129
1506,0.082,-0.129
1507,0.114,-0.129
1508,0.152,-0.132
1509,0.191,-0.132
1510,0.227,-0.132
1511,0.263,-0.132
1512,0.285,-0.137
1513,0.307,-0.137
1514,0.306,-0.137
1515,0.304,-0.137
1516,0.278,-0.140
1517,0.253,-0.140
1518,0.211,-0.140
1519,0.169,-0.140
1520,0.125,-0.146
1521,0.082,-0.146
1522,0.046,-0.146
1523,0.011,-0.146
1524,-0.015,-0.146
1525,-0.040,-0.146
1526,-0.060,-0.146
1527,-0.080,-0.146
1528,-0.100,-0.149
1529,-0.120,-0.149
1530,-0.143,-0.149
1531,-0.166,-0.149
1532,-0.189,-0.146
1533,-0.213,-0.146
1534,-0.234,-0.146
1535,-0.255,-0.146
1536,-0.270,-0.146
1537,-0.286,-0.146
1538,-0.296,-0.146
1539,-0.306,-0.146
1540,-0.310,-0.137
1541,-0.315,-0.137
1542,-0.314,-0.137
1543,-0.312,-0.137
1544,-0.303,-0.132
1545,-0.294,-0.132
1546,-0.276,-0.132
1547,-0.258,-0.132
1548,-0.233,-0.119
1549,-0.208,-0.119
1550,-0.180,-0.119
1551,-0.152,-0.119
1552,-0.126,-0.105
1553,-0.099,-0.105
1554,-0.076,-0.105
1555,-0.054,-0.105
1556,-0.036,-0.097
1557,-0.018,-0.097
1558,-0.006,-0.097
1559,0.007,-0.097
1560,0.015,-0.082
1561,0.023,-0.082
1562,0.028,-0.082
1563,0.032,-0.082
1564,0.035,-0.076
1565,0.037,-0.076
1566,0.040,-0.076
1567,0.042,-0.076
1568,0.044,-0.067
1569,0.047,-0.067
1570,0.049,-0.067
1571,0.050,-0.067
1572,0.053,-0.061
1573,0.056,-0.061
1574,0.059,-0.061
1575,0.061,-0.061
1576,0.063,-0.064
1577,0.064,-0.064
1578,0.065,-0.064
1579,0.065,-0.064
1580,0.065,-0.064
1581,0.064,-0.064
1582,0.065,-0.064
1583,0.065,-0.064
1584,0.066,-0.073
1585,0.067,-0.073
1586,0.069,-0.073
1587,0.071,-0.073
1588,0.073,-0.079
1589,0.075,-0.079
1590,0.076,-0.079
1591,0.077,-0.079
1592,0.077,-0.087
1593,0.077,-0.087
1594,0.076,-0.087
1595,0.075,-0.087
1596,0.076,-0.100
1597,0.076,-0.100
1598,0.077,-0.100
1599,0.078,-0.100
1600,0.080,-0.105
1601,0.082,-0.105
1602,0.083,-0.105
1603,0.084,-0.105
1604,0.085,-0.111
1605,0.085,-0.111
1606,0.086,-0.111
1607,0.086,-0.111
1608,0.088,-0.117
1609,0.090,-0.117
1610,0.093,-0.117
1611,0.096,-0.117
1612,0.099,-0.119
1613,0.102,-0.119
1614,0.106,-0.119
1615,0.109,-0.119
1616,0.113,-0.114
1617,0.116,-0.114
1618,0.121,-0.114
1619,0.125,-0.114
1620,0.129,-0.105
1621,0.134,-0.105
1622,0.138,-0.105
1623,0.142,-0.105
1624,0.145,-0.097
1625,0.148,-0.097
1626,0.150,-0.097
1627,0.152,-0.097
1628,0.155,-0.082
1629,0.157,-0.082
1630,0.160,-0.082
1631,0.162,-0.082
1632,0.164,-0.061
1633,0.166,-0.061
1634,0.167,-0.061
1635,0.167,-0.061
1636,0.167,-0.043
1637,0.166,-0.043
1638,0.163,-0.043
1639,0.160,-0.043
1640,0.156,-0.021
1641,0.152,-0.021
1642,0.147,-0.021
1643,0.142,-0.021
1644,0.136,0.000
1645,0.130,0.000
1646,0.124,0.000
1647,0.118,0.000
1648,0.113,0.024
1649,0.108,0.024
1650,0.102,0.024
1651,0.097,0.024
1652,0.093,0.038
1653,0.089,0.038
1654,0.085,0.038
1655,0.082,0.038
1656,0.079,0.052
1657,0.076,0.052
1658,0.072,0.052
1659,0.069,0.052
1660,0.064,0.059
1661,0.060,0.059
1662,0.056,0.059
1663,0.052,0.059
1664,0.050,0.073
1665,0.047,0.073
1666,0.045,0.073
1667,0.043,0.073
1668,0.040,0.073
1669,0.038,0.073
1670,0.034,0.073
1671,0.031,0.073
1672,0.027,0.067
1673,0.022,0.067
1674,0.018,0.067
1675,0.014,0.067
1676,0.011,0.064
1677,0.008,0.064
1678,0.006,0.064
1679,0.004,0.064
1680,0.004,0.056
1681,0.004,0.056
1682,0.005,0.056
1683,0.006,0.056
1684,0.007,0.046
1685,0.008,0.046
1686,0.009,0.046
1687,0.010,0.046
1688,0.011,0.038
1689,0.011,0.038
1690,0.011,0.038
1691,0.011,0.038
1692,0.010,0.029
1693,0.010,0.029
1694,0.009,0.029
1695,0.009,0.029
1696,0.009,0.021
1697,0.009,0.021
1698,0.009,0.021
1699,0.009,0.021
1700,0.008,0.015
1701,0.008,0.015
1702,0.008,0.015
1703,0.008,0.015
1704,0.008,0.009
1705,0.009,0.009
1706,0.009,0.009
1707,0.010,0.009
1708,0.010,0.003
1709,0.009,0.003
1710,0.010,0.003
1711,0.010,0.003
1712,0.012,-0.006
1713,0.014,-0.006
1714,0.016,-0.006
1715,0.018,-0.006
1716,0.021,-0.012
1717,0.023,-0.012
1718,0.024,-0.012
1719,0.024,-0.012
1720,0.024,-0.012
1721,0.023,-0.012
1722,0.023,-0.012
1723,0.022,-0.012
1724,0.021,-0.018
1725,0.021,-0.018
1726,0.020,-0.018
1727,0.019,-0.018
1728,0.017,-0.021
1729,0.016,-0.021
1730,0.011,-0.021
1731,0.007,-0.021
1732,0.002,-0.018
1733,-0.004,-0.018
1734,-0.009,-0.018
1735,-0.014,-0.018
1736,-0.017,-0.021
1737,-0.020,-0.021
1738,-0.021,-0.021
1739,-0.022,-0.021
1740,-0.022,-0.024
1741,-0.022,-0.024
1742,-0.021,-0.024
1743,-0.020,-0.024
1744,-0.018,-0.026
1745,-0.016,-0.026
1746,-0.015,-0.026
1747,-0.014,-0.026
1748,-0.015,-0.029
1749,-0.016,-0.029
1750,-0.019,-0.029
1751,-0.022,-0.029
1752,-0.025,-0.029
1753,-0.028,-0.029
1754,-0.030,-0.029
1755,-0.033,-0.029
1756,-0.034,-0.033
1757,-0.035,-0.033
1758,-0.035,-0.033
1759,-0.035,-0.033
1760,-0.036,-0.041
1761,-0.036,-0.041
1762,-0.036,-0.041
1763,-0.037,-0.041
1764,-0.038,-0.047
1765,-0.038,-0.047
1766,-0.040,-0.047
1767,-0.041,-0.047
1768,-0.043,-0.050
1769,-0.045,-0.050
1770,-0.048,-0.050
1771,-0.050,-0.050
1772,-0.052,-0.056
1773,-0.053,-0.056
1774,-0.051,-0.056
1775,-0.050,-0.056
1776,-0.045,-0.065
1777,-0.040,-0.065
1778,-0.029,-0.065
1779,-0.019,-0.065
1780,-0.001,-0.073
1781,0.016,-0.073
1782,0.043,-0.073
1783,0.070,-0.073
1784,0.106,-0.073
1785,0.142,-0.073
1786,0.180,-0.073
1787,0.218,-0.073
1788,0.244,-0.079
1789,0.271,-0.079
1790,0.276,-0.079
1791,0.281,-0.079
1792,0.260,-0.082
1793,0.239,-0.082
1794,0.198,-0.082
1795,0.158,-0.082
1796,0.113,-0.085
1797,0.068,-0.085
1798,0.031,-0.085
1799,-0.007,-0.085
1800,-0.033,-0.088
1801,-0.059,-0.088
1802,-0.076,-0.088
1803,-0.094,-0.088
1804,-0.110,-0.088
1805,-0.126,-0.088
1806,-0.147,-0.088
1807,-0.167,-0.088
1808,-0.191,-0.088
1809,-0.215,-0.088
1810,-0.237,-0.088
1811,-0.260,-0.088
1812,-0.277,-0.088
1813,-0.295,-0.088
1814,-0.307,-0.088
1815,-0.319,-0.088
1816,-0.324,-0.085
1817,-0.329,-0.085
1818,-0.329,-0.085
1819,-0.328,-0.085
1820,-0.321,-0.082
1821,-0.314,-0.082
1822,-0.299,-0.082
1823,-0.284,-0.082
1824,-0.261,-0.076
1825,-0.238,-0.076
1826,-0.210,-0.076
1827,-0.182,-0.076
1828,-0.153,-0.070
1829,-0.123,-0.070
1830,-0.097,-0.070
1831,-0.070,-0.070
1832,-0.049,-0.070
1833,-0.029,-0.070
1834,-0.014,-0.070
1835,0.000,-0.070
1836,0.009,-0.065
1837,0.018,-0.065
1838,0.023,-0.065
1839,0.028,-0.065
1840,0.030,-0.065
1841,0.032,-0.065
1842,0.032,-0.065
1843,0.033,-0.065
1844,0.035,-0.065
1845,0.036,-0.065
1846,0.038,-0.065
1847,0.041,-0.065
1848,0.043,-0.061
1849,0.045,-0.061
1850,0.047,-0.061
1851,0.048,-0.061
1852,0.050,-0.065
1853,0.052,-0.065
1854,0.054,-0.065
1855,0.056,-0.065
1856,0.059,-0.070
1857,0.061,-0.070
1858,0.063,-0.070
1859,0.064,-0.070
1860,0.065,-0.076
1861,0.065,-0.076
1862,0.064,-0.076
1863,0.064,-0.076
1864,0.063,-0.082
1865,0.062,-0.082
1866,0.062,-0.082
1867,0.061,-0.082
1868,0.061,-0.085
1869,0.062,-0.085
1870,0.064,-0.085
1871,0.065,-0.085
1872,0.068,-0.088
1873,0.071,-0.088
1874,0.074,-0.088
1875,0.076,-0.088
1876,0.078,-0.091
1877,0.079,-0.091
1878,0.080,-0.091
1879,0.082,-0.091
1880,0.083,-0.091
1881,0.084,-0.091
1882,0.085,-0.091
1883,0.086,-0.091
1884,0.088,-0.093
1885,0.089,-0.093
1886,0.091,-0.093
1887,0.092,-0.093
1888,0.094,-0.088
1889,0.096,-0.088
1890,0.097,-0.088
1891,0.099,-0.088
1892,0.102,-0.085
1893,0.105,-0.085
1894,0.109,-0.085
1895,0.113,-0.085
1896,0.118,-0.076
1897,0.123,-0.076
1898,0.128,-0.076
1899,0.133,-0.076
1900,0.138,-0.065
1901,0.143,-0.065
1902,0.147,-0.065
1903,0.151,-0.065
1904,0.154,-0.050
1905,0.156,-0.050
1906,0.156,-0.050
1907,0.156,-0.050
1908,0.154,-0.029
1909,0.151,-0.029
1910,0.148,-0.029
1911,0.144,-0.029
1912,0.141,-0.009
1913,0.138,-0.009
1914,0.136,-0.009
1915,0.135,-0.009
1916,0.134,0.009
1917,0.134,0.009
1918,0.134,0.009
1919,0.134,0.009
1920,0.133,0.044
1921,0.133,0.044
1922,0.130,0.044
1923,0.128,0.044
1924,0.124,0.065
1925,0.120,0.065
1926,0.115,0.065
1927,0.109,0.065
1928,0.103,0.079
1929,0.097,0.079
1930,0.092,0.079
1931,0.086,0.079
1932,0.082,0.091
1933,0.078,0.091
1934,0.074,0.091
1935,0.070,0.091
1936,0.066,0.100
1937,0.062,0.100
1938,0.058,0.100
1939,0.053,0.100
1940,0.048,0.108
1941,0.044,0.108
1942,0.039,0.108
1943,0.035,0.108
1944,0.032,0.111
1945,0.029,0.111
1946,0.026,0.111
1947,0.024,0.111
1948,0.021,0.114
1949,0.019,0.114
1950,0.016,0.114
1951,0.013,0.114
1952,0.011,0.114
1953,0.009,0.114
1954,0.008,0.114
1955,0.007,0.114
1956,0.007,0.108
1957,0.007,0.108
1958,0.007,0.108
1959,0.007,0.108
1960,0.006,0.105
1961,0.006,0.105
1962,0.005,0.105
1963,0.004,0.105
1964,0.003,0.102
1965,0.002,0.102
1966,0.000,0.102
1967,-0.001,0.102
1968,-0.003,0.091
1969,-0.004,0.091
1970,-0.005,0.091
1971,-0.006,0.091
1972,-0.005,0.082
1973,-0.004,0.082
1974,-0.003,0.082
1975,-0.002,0.082
1976,-0.001,0.073
1977,0.000,0.073
1978,0.001,0.073
1979,0.001,0.073
1980,0.000,0.059
1981,-0.001,0.059
1982,-0.002,0.059
1983,-0.004,0.059
1984,-0.005,0.050
1985,-0.006,0.050
1986,-0.006,0.050
1987,-0.005,0.050
1988,-0.003,0.038
1989,-0.001,0.038
1990,0.003,0.038
1991,0.006,0.038
1992,0.009,0.029
1993,0.012,0.029
1994,0.014,0.029
1995,0.015,0.029
1996,0.016,0.018
1997,0.016,0.018
1998,0.016,0.018
1999,0.017,0.018
2000,0.017,0.012
2001,0.018,0.012
2002,0.019,0.012
2003,0.019,0.012
2004,0.018,0.009
2005,0.017,0.009
2006,0.014,0.009
2007,0.011,0.009
2008,0.008,0.006
2009,0.004,0.006
2010,0.000,0.006
2011,-0.004,0.006
2012,-0.007,0.006
2013,-0.011,0.006
2014,-0.014,0.006
2015,-0.017,0.006
2016,-0.020,0.003
2017,-0.022,0.003
2018,-0.025,0.003
2019,-0.029,0.003
2020,-0.031,0.006
2021,-0.034,0.006
2022,-0.036,0.006
2023,-0.037,0.006
2024,-0.036,0.006
2025,-0.035,0.006
2026,-0.034,0.006
2027,-0.032,0.006
2028,-0.029,0.009
2029,-0.027,0.009
2030,-0.025,0.009
2031,-0.024,0.009
2032,-0.025,0.009
2033,-0.026,0.009
2034,-0.028,0.009
2035,-0.031,0.009
2036,-0.034,0.006
2037,-0.036,0.006
2038,-0.040,0.006
2039,-0.043,0.006
2040,-0.046,0.003
2041,-0.049,0.003
2042,-0.052,0.003
2043,-0.054,0.003
2044,-0.056,0.000
2045,-0.058,0.000
2046,-0.059,0.000
2047,-0.060,0.000
2048,-0.061,-0.003
2049,-0.061,-0.003
2050,-0.062,-0.003
2051,-0.062,-0.003
2052,-0.061,-0.011
2053,-0.059,-0.011
2054,-0.053,-0.011
2055,-0.047,-0.011
2056,-0.034,-0.018
2057,-0.021,-0.018
2058,0.002,-0.018
2059,0.025,-0.018
2060,0.059,-0.023
2061,0.094,-0.023
2062,0.135,-0.023
2063,0.176,-0.023
2064,0.211,-0.026
2065,0.246,-0.026
2066,0.262,-0.026
2067,0.279,-0.026
2068,0.267,-0.032
2069,0.256,-0.032
2070,0.220,-0.032
2071,0.184,-0.032
2072,0.137,-0.038
2073,0.090,-0.038
2074,0.047,-0.038
2075,0.004,-0.038
2076,-0.026,-0.038
2077,-0.057,-0.038
2078,-0.075,-0.038
2079,-0.093,-0.038
2080,-0.107,-0.038
2081,-0.120,-0.038
2082,-0.136,-0.038
2083,-0.153,-0.038
2084,-0.174,-0.038
2085,-0.196,-0.038
2086,-0.220,-0.038
2087,-0.243,-0.038
2088,-0.264,-0.038
2089,-0.285,-0.038
2090,-0.299,-0.038
2091,-0.313,-0.038
2092,-0.321,-0.035
2093,-0.329,-0.035
2094,-0.332,-0.035
2095,-0.334,-0.035
2096,-0.332,-0.029
2097,-0.329,-0.029
2098,-0.320,-0.029
2099,-0.312,-0.029
2100,-0.295,-0.032
2101,-0.277,-0.032
2102,-0.253,-0.032
2103,-0.228,-0.032
2104,-0.199,-0.029
2105,-0.170,-0.029
2106,-0.141,-0.029
2107,-0.112,-0.029
2108,-0.087,-0.029
2109,-0.062,-0.029
2110,-0.043,-0.029
2111,-0.024,-0.029
2112,-0.011,-0.032
2113,0.002,-0.032
2114,0.009,-0.032
2115,0.016,-0.032
2116,0.019,-0.032
2117,0.022,-0.032
2118,0.024,-0.032
2119,0.027,-0.032
2120,0.028,-0.035
2121,0.030,-0.035
2122,0.032,-0.035
2123,0.033,-0.035
2124,0.035,-0.041
2125,0.036,-0.041
2126,0.037,-0.041
2127,0.038,-0.041
2128,0.039,-0.043
2129,0.040,-0.043
2130,0.041,-0.043
2131,0.042,-0.043
2132,0.044,-0.050
2133,0.045,-0.050
2134,0.047,-0.050
2135,0.049,-0.050
2136,0.051,-0.056
2137,0.054,-0.056
2138,0.054,-0.056
2139,0.055,-0.056
2140,0.055,-0.061
2141,0.054,-0.061
2142,0.052,-0.061
2143,0.051,-0.061
2144,0.050,-0.067
2145,0.049,-0.067
2146,0.050,-0.067
2147,0.050,-0.067
2148,0.053,-0.073
2149,0.056,-0.073
2150,0.058,-0.073
2151,0.061,-0.073
2152,0.063,-0.076
2153,0.065,-0.076
2154,0.066,-0.076
2155,0.067,-0.076
2156,0.068,-0.076
2157,0.069,-0.076
2158,0.070,-0.076
2159,0.071,-0.076
2160,0.073,-0.073
2161,0.075,-0.073
2162,0.078,-0.073
2163,0.081,-0.073
2164,0.082,-0.067
2165,0.084,-0.067
2166,0.087,-0.067
2167,0.089,-0.067
2168,0.093,-0.061
2169,0.096,-0.061
2170,0.101,-0.061
2171,0.105,-0.061
2172,0.109,-0.050
2173,0.114,-0.050
2174,0.118,-0.050
2175,0.123,-0.050
2176,0.127,-0.038
2177,0.130,-0.038
2178,0.133,-0.038
2179,0.136,-0.038
2180,0.138,-0.023
2181,0.140,-0.023
2182,0.142,-0.023
2183,0.144,-0.023
2184,0.146,-0.005
2185,0.149,-0.005
2186,0.151,-0.005
2187,0.153,-0.005
2188,0.154,0.009
2189,0.154,0.009
2190,0.153,0.009
2191,0.152,0.009
2192,0.149,0.026
2193,0.146,0.026
2194,0.143,0.026
2195,0.139,0.026
2196,0.135,0.038
2197,0.131,0.038
2198,0.127,0.038
2199,0.123,0.038
2200,0.117,0.052
2201,0.111,0.052
2202,0.104,0.052
2203,0.098,0.052
2204,0.091,0.059
2205,0.085,0.059
2206,0.080,0.059
2207,0.074,0.059
2208,0.071,0.068
2209,0.067,0.068
2210,0.065,0.068
2211,0.063,0.068
2212,0.060,0.070
2213,0.057,0.070
2214,0.053,0.070
2215,0.049,0.070
2216,0.045,0.070
2217,0.042,0.070
2218,0.038,0.070
2219,0.034,0.070
2220,0.031,0.073
2221,0.029,0.073
2222,0.027,0.073
2223,0.025,0.073
2224,0.024,0.076
2225,0.022,0.076
2226,0.021,0.076
2227,0.019,0.076
2228,0.017,0.073
2229,0.015,0.073
2230,0.012,0.073
2231,0.010,0.073
2232,0.009,0.073
2233,0.008,0.073
2234,0.008,0.073
2235,0.007,0.073
2236,0.008,0.070
2237,0.008,0.070
2238,0.010,0.070
2239,0.011,0.070
2240,0.012,0.073
2241,0.014,0.073
2242,0.014,0.073
2243,0.014,0.073
2244,0.011,0.070
2245,0.009,0.070
2246,0.005,0.070
2247,0.002,0.070
2248,-0.001,0.068
2249,-0.005,0.068
2250,-0.006,0.068
2251,-0.008,0.068
2252,-0.009,0.065
2253,-0.009,0.065
2254,-0.009,0.065
2255,-0.008,0.065
2256,-0.006,0.059
2257,-0.005,0.059
2258,-0.004,0.059
2259,-0.004,0.059
2260,-0.003,0.052
2261,-0.003,0.052
2262,-0.003,0.052
2263,-0.004,0.052
2264,-0.005,0.044
2265,-0.005,0.044
2266,-0.004,0.044
2267,-0.002,0.044
2268,0.001,0.033
2269,0.005,0.033
2270,0.009,0.033
2271,0.013,0.033
2272,0.016,0.021
2273,0.020,0.021
2274,0.022,0.021
2275,0.023,0.021
2276,0.024,0.009
2277,0.024,0.009
2278,0.022,0.009
2279,0.020,0.009
2280,0.017,-0.005
2281,0.014,-0.005
2282,0.011,-0.005
2283,0.008,-0.005
2284,0.004,-0.011
2285,0.001,-0.011
2286,-0.003,-0.011
2287,-0.007,-0.011
2288,-0.012,-0.021
2289,-0.017,-0.021
2290,-0.021,-0.021
2291,-0.026,-0.021
2292,-0.029,-0.023
2293,-0.033,-0.023
2294,-0.034,-0.023
2295,-0.034,-0.023
2296,-0.033,-0.026
2297,-0.032,-0.026
2298,-0.030,-0.026
2299,-0.028,-0.026
2300,-0.025,-0.023
2301,-0.022,-0.023
2302,-0.021,-0.023
2303,-0.019,-0.023
2304,-0.019,-0.021
2305,-0.020,-0.021
2306,-0.022,-0.021
2307,-0.024,-0.021
2308,-0.028,-0.015
2309,-0.032,-0.015
2310,-0.036,-0.015
2311,-0.041,-0.015
2312,-0.044,-0.005
2313,-0.048,-0.005
2314,-0.050,-0.005
2315,-0.052,-0.005
2316,-0.051,0.000
2317,-0.050,0.000
2318,-0.048,0.000
2319,-0.046,0.000
2320,-0.045,0.006
2321,-0.044,0.006
2322,-0.045,0.006
2323,-0.046,0.006
2324,-0.049,0.012
2325,-0.052,0.012
2326,-0.057,0.012
2327,-0.061,0.012
2328,-0.063,0.015
2329,-0.066,0.015
2330,-0.064,0.015
2331,-0.063,0.015
2332,-0.055,0.015
2333,-0.048,0.015
2334,-0.032,0.015
2335,-0.016,0.015
2336,0.012,0.012
2337,0.039,0.012
2338,0.077,0.012
2339,0.114,0.012
2340,0.155,0.009
2341,0.195,0.009
2342,0.225,0.009
2343,0.255,0.009
2344,0.262,0.003
2345,0.269,0.003
2346,0.247,0.003
2347,0.226,0.003
2348,0.184,-0.003
2349,0.142,-0.003
2350,0.095,-0.003
2351,0.048,-0.003
2352,0.008,-0.009
2353,-0.032,-0.009
2354,-0.058,-0.009
2355,-0.084,-0.009
2356,-0.099,-0.015
2357,-0.115,-0.015
2358,-0.127,-0.015
2359,-0.139,-0.015
2360,-0.155,-0.023
2361,-0.170,-0.023
2362,-0.189,-0.023
2363,-0.209,-0.023
2364,-0.231,-0.026
2365,-0.253,-0.026
2366,-0.273,-0.026
2367,-0.294,-0.026
2368,-0.310,-0.032
2369,-0.327,-0.032
2370,-0.337,-0.032
2371,-0.347,-0.032
2372,-0.350,-0.032
2373,-0.353,-0.032
2374,-0.347,-0.032
2375,-0.341,-0.032
2376,-0.326,-0.035
2377,-0.311,-0.035
2378,-0.288,-0.035
2379,-0.265,-0.035
2380,-0.238,-0.041
2381,-0.210,-0.041
2382,-0.182,-0.041
2383,-0.154,-0.041
2384,-0.128,-0.041
2385,-0.102,-0.041
2386,-0.080,-0.041
2387,-0.058,-0.041
2388,-0.041,-0.046
2389,-0.024,-0.046
2390,-0.013,-0.046
2391,-0.002,-0.046
2392,0.005,-0.046
2393,0.011,-0.046
2394,0.014,-0.046
2395,0.017,-0.046
2396,0.018,-0.050
2397,0.020,-0.050
2398,0.022,-0.050
2399,0.023,-0.050
2400,0.026,-0.052
2401,0.028,-0.052
2402,0.031,-0.052
2403,0.033,-0.052
2404,0.036,-0.059
2405,0.039,-0.059
2406,0.042,-0.059
2407,0.045,-0.059
2408,0.046,-0.061
2409,0.048,-0.061
2410,0.049,-0.061
2411,0.050,-0.061
2412,0.050,-0.061
2413,0.051,-0.061
2414,0.052,-0.061
2415,0.052,-0.061
2416,0.055,-0.067
2417,0.057,-0.067
2418,0.060,-0.067
2419,0.063,-0.067
2420,0.066,-0.064
2421,0.069,-0.064
2422,0.069,-0.064
2423,0.070,-0.064
2424,0.069,-0.067
2425,0.068,-0.067
2426,0.065,-0.067
2427,0.062,-0.067
2428,0.059,-0.067
2429,0.056,-0.067
2430,0.054,-0.067
2431,0.051,-0.067
2432,0.051,-0.043
2433,0.050,-0.043
2434,0.051,-0.043
2435,0.051,-0.043
2436,0.053,-0.041
2437,0.055,-0.041
2438,0.058,-0.041
2439,0.062,-0.041
2440,0.067,-0.032
2441,0.072,-0.032
2442,0.078,-0.032
2443,0.084,-0.032
2444,0.090,-0.029
2445,0.096,-0.029
2446,0.101,-0.029
2447,0.107,-0.029
2448,0.111,-0.024
2449,0.115,-0.024
2450,0.118,-0.024
2451,0.120,-0.024
2452,0.121,-0.015
2453,0.123,-0.015
2454,0.124,-0.015
2455,0.125,-0.015
2456,0.127,-0.005
2457,0.129,-0.005
2458,0.131,-0.005
2459,0.133,-0.005
2460,0.135,0.009
2461,0.138,0.009
2462,0.140,0.009
2463,0.142,0.009
2464,0.143,0.021
2465,0.144,0.021
2466,0.144,0.021
2467,0.144,0.021
2468,0.143,0.032
2469,0.142,0.032
2470,0.141,0.032
2471,0.139,0.032
2472,0.138,0.041
2473,0.136,0.041
2474,0.135,0.041
2475,0.134,0.041
2476,0.132,0.056
2477,0.130,0.056
2478,0.127,0.056
2479,0.123,0.056
2480,0.118,0.070
2481,0.113,0.070
2482,0.107,0.070
2483,0.101,0.070
2484,0.095,0.079
2485,0.088,0.079
2486,0.082,0.079
2487,0.076,0.079
2488,0.070,0.082
2489,0.065,0.082
2490,0.060,0.082
2491,0.055,0.082
2492,0.050,0.090
2493,0.045,0.090
2494,0.039,0.090
2495,0.034,0.090
2496,0.030,0.093
2497,0.027,0.093
2498,0.024,0.093
2499,0.022,0.093
2500,0.021,0.093
2501,0.019,0.093
2502,0.018,0.093
2503,0.017,0.093
2504,0.015,0.093
2505,0.014,0.093
2506,0.011,0.093
2507,0.009,0.093
2508,0.005,0.097
2509,0.002,0.097
2510,-0.001,0.097
2511,-0.004,0.097
2512,-0.005,0.090
2513,-0.007,0.090
2514,-0.007,0.090
2515,-0.008,0.090
2516,-0.008,0.090
2517,-0.007,0.090
2518,-0.006,0.090
2519,-0.006,0.090
2520,-0.005,0.088
2521,-0.004,0.088
2522,-0.003,0.088
2523,-0.002,0.088
2524,-0.002,0.085
2525,-0.003,0.085
2526,-0.003,0.085
2527,-0.004,0.085
2528,-0.005,0.079
2529,-0.007,0.079
2530,-0.008,0.079
2531,-0.009,0.079
2532,-0.010,0.073
2533,-0.010,0.073
2534,-0.011,0.073
2535,-0.011,0.073
2536,-0.010,0.070
2537,-0.009,0.070
2538,-0.008,0.070
2539,-0.007,0.070
2540,-0.005,0.065
2541,-0.003,0.065
2542,0.000,0.065
2543,0.003,0.065
2544,0.007,0.059
2545,0.010,0.059
2546,0.013,0.059
2547,0.016,0.059
2548,0.018,0.050
2549,0.020,0.050
2550,0.020,0.050
2551,0.020,0.050
2552,0.019,0.041
2553,0.019,0.041
2554,0.017,0.041
2555,0.016,0.041
2556,0.013,0.032
2557,0.010,0.032
2558,0.007,0.032
2559,0.004,0.032
2560,0.000,0.026
2561,-0.004,0.026
2562,-0.008,0.026
2563,-0.011,0.026
2564,-0.015,0.015
2565,-0.018,0.015
2566,-0.020,0.015
2567,-0.022,0.015
2568,-0.023,0.012
2569,-0.023,0.012
2570,-0.024,0.012
2571,-0.024,0.012
2572,-0.026,0.012
2573,-0.028,0.012
2574,-0.032,0.012
2575,-0.036,0.012
2576,-0.039,0.009
2577,-0.043,0.009
2578,-0.046,0.009
2579,-0.049,0.009
2580,-0.050,0.006
2581,-0.051,0.006
2582,-0.050,0.006
2583,-0.049,0.006
2584,-0.047,0.006
2585,-0.045,0.006
2586,-0.043,0.006
2587,-0.041,0.006
2588,-0.040,0.003
2589,-0.039,0.003
2590,-0.040,0.003
2591,-0.041,0.003
2592,-0.042,0.006
2593,-0.044,0.006
2594,-0.045,0.006
2595,-0.047,0.006
2596,-0.049,0.006
2597,-0.050,0.006
2598,-0.051,0.006
2599,-0.052,0.006
2600,-0.053,0.009
2601,-0.054,0.009
2602,-0.054,0.009
2603,-0.055,0.009
2604,-0.056,0.009
2605,-0.056,0.009
2606,-0.056,0.009
2607,-0.056,0.009
2608,-0.054,0.009
2609,-0.051,0.009
2610,-0.044,0.009
2611,-0.037,0.009
2612,-0.021,0.009
2613,-0.004,0.009
2614,0.025,0.009
2615,0.054,0.009
2616,0.093,0.006
2617,0.132,0.006
2618,0.171,0.006
2619,0.209,0.006
2620,0.233,0.006
2621,0.257,0.006
2622,0.256,0.006
2623,0.255,0.006
2624,0.228,0.003
2625,0.200,0.003
2626,0.156,0.003
2627,0.112,0.003
2628,0.067,0.003
2629,0.022,0.003
2630,-0.014,0.003
2631,-0.050,0.003
2632,-0.075,0.000
2633,-0.099,0.000
2634,-0.116,0.000
2635,-0.134,0.000
2636,-0.150,0.000
2637,-0.167,0.000
2638,-0.186,0.000
2639,-0.205,0.000
2640,-0.227,-0.003
2641,-0.248,-0.003
2642,-0.268,-0.003
2643,-0.288,-0.003
2644,-0.305,-0.009
2645,-0.322,-0.009
2646,-0.334,-0.009
2647,-0.347,-0.009
2648,-0.354,-0.005
2649,-0.361,-0.005
2650,-0.361,-0.005
2651,-0.362,-0.005
2652,-0.354,-0.011
2653,-0.346,-0.011
2654,-0.328,-0.011
2655,-0.310,-0.011
2656,-0.284,-0.015
2657,-0.258,-0.015
2658,-0.227,-0.015
2659,-0.196,-0.015
2660,-0.165,-0.021
2661,-0.134,-0.021
2662,-0.106,-0.021
2663,-0.078,-0.021
2664,-0.057,-0.018
2665,-0.036,-0.018
2666,-0.022,-0.018
2667,-0.009,-0.018
2668,-0.002,-0.024
2669,0.005,-0.024
2670,0.009,-0.024
2671,0.012,-0.024
2672,0.014,-0.024
2673,0.016,-0.024
2674,0.018,-0.024
2675,0.021,-0.024
2676,0.023,-0.026
2677,0.025,-0.026
2678,0.027,-0.026
2679,0.029,-0.026
2680,0.029,-0.032
2681,0.029,-0.032
2682,0.029,-0.032
2683,0.029,-0.032
2684,0.029,-0.032
2685,0.029,-0.032
2686,0.031,-0.032
2687,0.032,-0.032
2688,0.035,-0.052
2689,0.038,-0.052
2690,0.041,-0.052
2691,0.044,-0.052
2692,0.045,-0.061
2693,0.046,-0.061
2694,0.045,-0.061
2695,0.045,-0.061
2696,0.044,-0.064
2697,0.043,-0.064
2698,0.043,-0.064
2699,0.044,-0.064
2700,0.046,-0.067
2701,0.048,-0.067
2702,0.049,-0.067
2703,0.051,-0.067
2704,0.051,-0.067
2705,0.052,-0.067
2706,0.051,-0.067
2707,0.050,-0.067
2708,0.050,-0.067
2709,0.050,-0.067
2710,0.052,-0.067
2711,0.054,-0.067
2712,0.057,-0.067
2713,0.060,-0.067
2714,0.064,-0.067
2715,0.068,-0.067
2716,0.072,-0.064
2717,0.075,-0.064
2718,0.078,-0.064
2719,0.081,-0.064
2720,0.084,-0.064
2721,0.086,-0.064
2722,0.090,-0.064
2723,0.093,-0.064
2724,0.097,-0.052
2725,0.101,-0.052
2726,0.105,-0.052
2727,0.110,-0.052
2728,0.115,-0.046
2729,0.119,-0.046
2730,0.123,-0.046
2731,0.127,-0.046
2732,0.131,-0.038
2733,0.134,-0.038
2734,0.137,-0.038
2735,0.139,-0.038
2736,0.141,-0.026
2737,0.142,-0.026
2738,0.142,-0.026
2739,0.142,-0.026
2740,0.141,-0.015
2741,0.140,-0.015
2742,0.138,-0.015
2743,0.136,-0.015
2744,0.133,0.000
2745,0.130,0.000
2746,0.128,0.000
2747,0.125,0.000
2748,0.123,0.015
2749,0.120,0.015
2750,0.116,0.015
2751,0.112,0.015
2752,0.108,0.029
2753,0.104,0.029
2754,0.101,0.029
2755,0.098,0.029
2756,0.095,0.041
2757,0.091,0.041
2758,0.089,0.041
2759,0.086,0.041
2760,0.084,0.056
2761,0.082,0.056
2762,0.078,0.056
2763,0.075,0.056
2764,0.071,0.065
2765,0.067,0.065
2766,0.064,0.065
2767,0.061,0.065
2768,0.057,0.073
2769,0.054,0.073
2770,0.049,0.073
2771,0.045,0.073
2772,0.039,0.082
2773,0.034,0.082
2774,0.028,0.082
2775,0.022,0.082
2776,0.018,0.085
2777,0.013,0.085
2778,0.010,0.085
2779,0.006,0.085
2780,0.003,0.085
2781,0.001,0.085
2782,-0.001,0.085
2783,-0.003,0.085
2784,-0.005,0.088
2785,-0.006,0.088
2786,-0.007,0.088
2787,-0.008,0.088
2788,-0.009,0.082
2789,-0.009,0.082
2790,-0.009,0.082
2791,-0.009,0.082
2792,-0.009,0.079
2793,-0.009,0.079
2794,-0.008,0.079
2795,-0.008,0.079
2796,-0.006,0.076
2797,-0.005,0.076
2798,-0.004,0.076
2799,-0.003,0.076
2800,-0.002,0.068
2801,-0.001,0.068
2802,-0.001,0.068
2803,-0.001,0.068
2804,-0.003,0.061
2805,-0.005,0.061
2806,-0.008,0.061
2807,-0.011,0.061
2808,-0.014,0.052
2809,-0.016,0.052
2810,-0.018,0.052
2811,-0.020,0.052
2812,-0.021,0.041
2813,-0.021,0.041
2814,-0.021,0.041
2815,-0.021,0.041
2816,-0.019,0.029
2817,-0.018,0.029
2818,-0.015,0.029
2819,-0.013,0.029
2820,-0.011,0.018
2821,-0.008,0.018
2822,-0.006,0.018
2823,-0.003,0.018
2824,-0.001,0.009
2825,0.001,0.009
2826,0.002,0.009
2827,0.003,0.009
2828,0.003,0.000
2829,0.004,0.000
2830,0.005,0.000
2831,0.006,0.000
2832,0.007,-0.005
2833,0.008,-0.005
2834,0.009,-0.005
2835,0.009,-0.005
2836,0.009,-0.009
2837,0.009,-0.009
2838,0.007,-0.009
2839,0.005,-0.009
2840,0.001,-0.015
2841,-0.002,-0.015
2842,-0.006,-0.015
2843,-0.009,-0.015
2844,-0.013,-0.015
2845,-0.016,-0.015
2846,-0.019,-0.015
2847,-0.021,-0.015
2848,-0.025,-0.011
2849,-0.028,-0.011
2850,-0.032,-0.011
2851,-0.036,-0.011
2852,-0.041,-0.009
2853,-0.045,-0.009
2854,-0.049,-0.009
2855,-0.054,-0.009
2856,-0.056,-0.009
2857,-0.059,-0.009
2858,-0.061,-0.009
2859,-0.062,-0.009
2860,-0.061,-0.005
2861,-0.060,-0.005
2862,-0.059,-0.005
2863,-0.057,-0.005
2864,-0.056,-0.003
2865,-0.055,-0.003
2866,-0.055,-0.003
2867,-0.055,-0.003
2868,-0.056,0.000
2869,-0.057,0.000
2870,-0.058,0.000
2871,-0.060,0.000
2872,-0.060,0.000
2873,-0.060,0.000
2874,-0.060,0.000
2875,-0.060,0.000
2876,-0.061,0.000
2877,-0.062,0.000
2878,-0.064,0.000
2879,-0.067,0.000
2880,-0.070,0.000
2881,-0.074,0.000
2882,-0.076,0.000
2883,-0.077,0.000
2884,-0.076,-0.003
2885,-0.075,-0.003
2886,-0.068,-0.003
2887,-0.062,-0.003
2888,-0.048,-0.003
2889,-0.035,-0.003
2890,-0.011,-0.003
2891,0.012,-0.003
2892,0.048,-0.003
2893,0.083,-0.003
2894,0.124,-0.003
2895,0.165,-0.003
2896,0.200,0.000
2897,0.235,0.000
2898,0.251,0.000
2899,0.266,0.000
2900,0.254,-0.003
2901,0.242,-0.003
2902,0.204,-0.003
2903,0.167,-0.003
2904,0.117,0.000
2905,0.068,0.000
2906,0.023,0.000
2907,-0.022,0.000
2908,-0.052,-0.003
2909,-0.083,-0.003
2910,-0.100,-0.003
2911,-0.117,-0.003
2912,-0.129,-0.005
2913,-0.141,-0.005
2914,-0.156,-0.005
2915,-0.171,-0.005
2916,-0.192,-0.005
2917,-0.213,-0.005
2918,-0.238,-0.005
2919,-0.262,-0.005
2920,-0.286,-0.015
2921,-0.309,-0.015
2922,-0.326,-0.015
2923,-0.342,-0.015
2924,-0.353,-0.021
2925,-0.363,-0.021
2926,-0.366,-0.021
2927,-0.369,-0.021
2928,-0.365,-0.026
2929,-0.361,-0.026
2930,-0.349,-0.026
2931,-0.337,-0.026
2932,-0.317,-0.035
2933,-0.297,-0.035
2934,-0.270,-0.035
2935,-0.243,-0.035
2936,-0.211,-0.038
2937,-0.180,-0.038
2938,-0.150,-0.038
2939,-0.121,-0.038
2940,-0.096,-0.046
2941,-0.072,-0.046
2942,-0.055,-0.046
2943,-0.037,-0.046
2944,-0.027,-0.061
2945,-0.016,-0.061
2946,-0.010,-0.061
2947,-0.003,-0.061
2948,0.002,-0.065
2949,0.006,-0.065
2950,0.010,-0.065
2951,0.014,-0.065
2952,0.016,-0.068
2953,0.019,-0.068
2954,0.021,-0.068
2955,0.022,-0.068
2956,0.023,-0.068
2957,0.023,-0.068
2958,0.024,-0.068
2959,0.025,-0.068
2960,0.028,-0.065
2961,0.030,-0.065
2962,0.032,-0.065
2963,0.035,-0.065
2964,0.039,-0.065
2965,0.043,-0.065
2966,0.045,-0.065
2967,0.048,-0.065
2968,0.049,-0.056
2969,0.049,-0.056
2970,0.049,-0.056
2971,0.049,-0.056
2972,0.048,-0.052
2973,0.048,-0.052
2974,0.048,-0.052
2975,0.048,-0.052
2976,0.049,-0.047
2977,0.050,-0.047
2978,0.052,-0.047
2979,0.054,-0.047
2980,0.056,-0.044
2981,0.058,-0.044
2982,0.060,-0.044
2983,0.062,-0.044
2984,0.064,-0.044
2985,0.066,-0.044
2986,0.068,-0.044
2987,0.070,-0.044
2988,0.072,-0.038
2989,0.074,-0.038
2990,0.076,-0.038
2991,0.078,-0.038
2992,0.079,-0.035
2993,0.081,-0.035
2994,0.081,-0.035
2995,0.081,-0.035
2996,0.081,-0.035
2997,0.081,-0.035
2998,0.081,-0.035
2999,0.082,-0.035
3000,0.084,-0.032
3001,0.086,-0.032
3002,0.089,-0.032
3003,0.092,-0.032
3004,0.097,-0.026
3005,0.101,-0.026
3006,0.107,-0.026
3007,0.112,-0.026
3008,0.117,-0.024
3009,0.123,-0.024
3010,0.127,-0.024
3011,0.132,-0.024
3012,0.136,-0.015
3013,0.139,-0.015
3014,0.142,-0.015
3015,0.145,-0.015
3016,0.147,-0.003
3017,0.149,-0.003
3018,0.150,-0.003
3019,0.152,-0.003
3020,0.152,0.011
3021,0.152,0.011
3022,0.152,0.011
3023,0.152,0.011
3024,0.150,0.024
3025,0.149,0.024
3026,0.147,0.024
3027,0.145,0.024
3028,0.142,0.038
3029,0.140,0.038
3030,0.137,0.038
3031,0.134,0.038
3032,0.130,0.052
3033,0.126,0.052
3034,0.120,0.052
3035,0.114,0.052
3036,0.107,0.067
3037,0.100,0.067
3038,0.092,0.067
3039,0.085,0.067
3040,0.078,0.079
3041,0.071,0.079
3042,0.065,0.079
3043,0.059,0.079
3044,0.053,0.090
3045,0.048,0.090
3046,0.043,0.090
3047,0.037,0.090
3048,0.033,0.097
3049,0.029,0.097
3050,0.025,0.097
3051,0.021,0.097
3052,0.019,0.099
3053,0.016,0.099
3054,0.015,0.099
3055,0.013,0.099
3056,0.013,0.097
3057,0.012,0.097
3058,0.012,0.097
3059,0.011,0.097
3060,0.011,0.093
3061,0.011,0.093
3062,0.010,0.093
3063,0.009,0.093
3064,0.008,0.090
3065,0.007,0.090
3066,0.007,0.090
3067,0.006,0.090
3068,0.005,0.087
3069,0.004,0.087
3070,0.002,0.087
3071,0.000,0.087
3072,-0.002,0.087
3073,-0.005,0.087
3074,-0.008,0.087
3075,-0.010,0.087
3076,-0.012,0.090
3077,-0.015,0.090
3078,-0.016,0.090
3079,-0.018,0.090
3080,-0.018,0.097
3081,-0.019,0.097
3082,-0.019,0.097
3083,-0.019,0.097
3084,-0.018,0.099
3085,-0.017,0.099
3086,-0.015,0.099
3087,-0.013,0.099
3088,-0.011,0.111
3089,-0.009,0.111
3090,-0.008,0.111
3091,-0.007,0.111
3092,-0.008,0.119
3093,-0.008,0.119
3094,-0.009,0.119
3095,-0.009,0.119
3096,-0.010,0.132
3097,-0.010,0.132
3098,-0.009,0.132
3099,-0.009,0.132
3100,-0.007,0.143
3101,-0.005,0.143
3102,-0.002,0.143
3103,0.001,0.143
3104,0.003,0.149
3105,0.005,0.149
3106,0.006,0.149
3107,0.008,0.149
3108,0.010,0.158
3109,0.011,0.158
3110,0.011,0.158
3111,0.012,0.158
3112,0.011,0.158
3113,0.010,0.158
3114,0.008,0.158
3115,0.006,0.158
3116,0.002,0.155
3117,-0.002,0.155
3118,-0.006,0.155
3119,-0.010,0.155
3120,-0.014,0.155
3121,-0.017,0.155
3122,-0.020,0.155
3123,-0.022,0.155
3124,-0.025,0.155
3125,-0.028,0.155
3126,-0.030,0.155
3127,-0.032,0.155
3128,-0.035,0.146
3129,-0.037,0.146
3130,-0.039,0.146
3131,-0.041,0.146
3132,-0.042,0.143
3133,-0.044,0.143
3134,-0.044,0.143
3135,-0.045,0.143
3136,-0.045,0.137
3137,-0.046,0.137
3138,-0.047,0.137
3139,-0.049,0.137
3140,-0.050,0.135
3141,-0.051,0.135
3142,-0.052,0.135
3143,-0.052,0.135
3144,-0.053,0.126
3145,-0.054,0.126
3146,-0.054,0.126
3147,-0.055,0.126
3148,-0.055,0.119
3149,-0.055,0.119
3150,-0.055,0.119
3151,-0.054,0.119
3152,-0.055,0.117
3153,-0.055,0.117
3154,-0.056,0.117
3155,-0.057,0.117
3156,-0.059,0.105
3157,-0.060,0.105
3158,-0.062,0.105
3159,-0.063,0.105
3160,-0.062,0.099
3161,-0.062,0.099
3162,-0.058,0.099
3163,-0.055,0.099
3164,-0.047,0.087
3165,-0.039,0.087
3166,-0.024,0.087
3167,-0.010,0.087
3168,0.013,0.079
3169,0.035,0.079
3170,0.067,0.079
3171,0.098,0.079
3172,0.132,0.067
3173,0.167,0.067
3174,0.195,0.067
3175,0.223,0.067
3176,0.232,0.052
3177,0.242,0.052
3178,0.227,0.052
3179,0.211,0.052
3180,0.175,0.038
3181,0.139,0.038
3182,0.094,0.038
3183,0.049,0.038
3184,0.009,0.026
3185,-0.031,0.026
3186,-0.058,0.026
3187,-0.086,0.026
3188,-0.100,0.018
3189,-0.115,0.018
3190,-0.123,0.018
3191,-0.131,0.018
3192,-0.141,0.009
3193,-0.151,0.009
3194,-0.165,0.009
3195,-0.180,0.009
3196,-0.200,0.003
3197,-0.220,0.003
3198,-0.242,0.003
3199,-0.264,0.003
3200,-0.284,0.000
3201,-0.304,0.000
3202,-0.319,0.000
3203,-0.335,0.000
3204,-0.344,-0.003
3205,-0.354,-0.003
3206,-0.356,-0.003
3207,-0.359,-0.003
3208,-0.353,-0.006
3209,-0.348,-0.006
3210,-0.335,-0.006
3211,-0.322,-0.006
3212,-0.302,-0.009
3213,-0.282,-0.009
3214,-0.256,-0.009
3215,-0.230,-0.009
3216,-0.202,-0.006
3217,-0.175,-0.006
3218,-0.148,-0.006
3219,-0.122,-0.006
3220,-0.099,-0.012
3221,-0.076,-0.012
3222,-0.059,-0.012
3223,-0.041,-0.012
3224,-0.028,-0.018
3225,-0.016,-0.018
3226,-0.007,-0.018
3227,0.001,-0.018
3228,0.006,-0.021
3229,0.011,-0.021
3230,0.014,-0.021
3231,0.017,-0.021
3232,0.019,-0.032
3233,0.021,-0.032
3234,0.023,-0.032
3235,0.025,-0.032
3236,0.026,-0.035
3237,0.027,-0.035
3238,0.028,-0.035
3239,0.029,-0.035
3240,0.029,-0.047
3241,0.029,-0.047
3242,0.030,-0.047
3243,0.031,-0.047
3244,0.032,-0.059
3245,0.034,-0.059
3246,0.036,-0.059
3247,0.038,-0.059
3248,0.041,-0.068
3249,0.043,-0.068
3250,0.044,-0.068
3251,0.045,-0.068
3252,0.044,-0.079
3253,0.044,-0.079
3254,0.042,-0.079
3255,0.039,-0.079
3256,0.037,-0.090
3257,0.034,-0.090
3258,0.032,-0.090
3259,0.031,-0.090
3260,0.030,-0.097
3261,0.029,-0.097
3262,0.030,-0.097
3263,0.030,-0.097
3264,0.032,-0.105
3265,0.034,-0.105
3266,0.036,-0.105
3267,0.038,-0.105
3268,0.041,-0.111
3269,0.043,-0.111
3270,0.046,-0.111
3271,0.048,-0.111
3272,0.052,-0.114
3273,0.055,-0.114
3274,0.058,-0.114
3275,0.062,-0.114
3276,0.065,-0.120
3277,0.068,-0.120
3278,0.071,-0.120
3279,0.074,-0.120
3280,0.077,-0.123
3281,0.079,-0.123
3282,0.081,-0.123
3283,0.083,-0.123
3284,0.086,-0.123
3285,0.089,-0.123
3286,0.094,-0.123
3287,0.098,-0.123
3288,0.104,-0.123
3289,0.111,-0.123
3290,0.117,-0.123
3291,0.124,-0.123
3292,0.129,-0.126
3293,0.135,-0.126
3294,0.138,-0.126
3295,0.141,-0.126
3296,0.142,-0.120
3297,0.142,-0.120
3298,0.140,-0.120
3299,0.138,-0.120
3300,0.134,-0.117
3301,0.129,-0.117
3302,0.126,-0.117
3303,0.122,-0.117
3304,0.120,-0.114
3305,0.117,-0.114
3306,0.116,-0.114
3307,0.115,-0.114
3308,0.115,-0.108
3309,0.115,-0.108
3310,0.114,-0.108
3311,0.113,-0.108
3312,0.110,-0.100
3313,0.107,-0.100
3314,0.101,-0.100
3315,0.096,-0.100
3316,0.090,-0.088
3317,0.084,-0.088
3318,0.078,-0.088
3319,0.071,-0.088
3320,0.065,-0.076
3321,0.058,-0.076
3322,0.052,-0.076
3323,0.046,-0.076
3324,0.040,-0.065
3325,0.035,-0.065
3326,0.031,-0.065
3327,0.027,-0.065
3328,0.024,-0.052
3329,0.021,-0.052
3330,0.019,-0.052
3331,0.017,-0.052
3332,0.015,-0.041
3333,0.014,-0.041
3334,0.011,-0.041
3335,0.009,-0.041
3336,0.007,-0.035
3337,0.004,-0.035
3338,0.001,-0.035
3339,-0.002,-0.035
3340,-0.004,-0.029
3341,-0.006,-0.029
3342,-0.008,-0.029
3343,-0.010,-0.029
3344,-0.011,-0.029
3345,-0.012,-0.029
3346,-0.013,-0.029
3347,-0.014,-0.029
3348,-0.013,-0.032
3349,-0.013,-0.032
3350,-0.012,-0.032
3351,-0.011,-0.032
3352,-0.010,-0.038
3353,-0.008,-0.038
3354,-0.008,-0.038
3355,-0.008,-0.038
3356,-0.009,-0.044
3357,-0.010,-0.044
3358,-0.012,-0.044
3359,-0.015,-0.044
3360,-0.017,-0.059
3361,-0.020,-0.059
3362,-0.022,-0.059
3363,-0.024,-0.059
3364,-0.027,-0.070
3365,-0.029,-0.070
3366,-0.031,-0.070
3367,-0.034,-0.070
3368,-0.035,-0.085
3369,-0.036,-0.085
3370,-0.037,-0.085
3371,-0.037,-0.085
3372,-0.037,-0.093
3373,-0.036,-0.093
3374,-0.033,-0.093
3375,-0.030,-0.093
3376,-0.025,-0.105
3377,-0.021,-0.105
3378,-0.015,-0.105
3379,-0.010,-0.105
3380,-0.005,-0.123
3381,0.001,-0.123
3382,0.005,-0.123
3383,0.009,-0.123
3384,0.011,-0.129
3385,0.014,-0.129
3386,0.014,-0.129
3387,0.015,-0.129
3388,0.013,-0.138
3389,0.012,-0.138
3390,0.009,-0.138
3391,0.006,-0.138
3392,0.002,-0.143
3393,-0.003,-0.143
3394,-0.008,-0.143
3395,-0.013,-0.143
3396,-0.018,-0.146
3397,-0.023,-0.146
3398,-0.026,-0.146
3399,-0.030,-0.146
3400,-0.032,-0.143
3401,-0.034,-0.143
3402,-0.037,-0.143
3403,-0.039,-0.143
3404,-0.043,-0.146
3405,-0.047,-0.146
3406,-0.049,-0.146
3407,-0.052,-0.146
3408,-0.053,-0.146
3409,-0.054,-0.146
3410,-0.054,-0.146
3411,-0.053,-0.146
3412,-0.052,-0.143
3413,-0.051,-0.143
3414,-0.050,-0.143
3415,-0.050,-0.143
3416,-0.050,-0.143
3417,-0.050,-0.143
3418,-0.051,-0.143
3419,-0.051,-0.143
3420,-0.052,-0.143
3421,-0.054,-0.143
3422,-0.054,-0.143
3423,-0.055,-0.143
3424,-0.055,-0.141
3425,-0.055,-0.141
3426,-0.055,-0.141
3427,-0.054,-0.141
3428,-0.055,-0.143
3429,-0.055,-0.143
3430,-0.056,-0.143
3431,-0.057,-0.143
3432,-0.058,-0.146
3433,-0.059,-0.146
3434,-0.059,-0.146
3435,-0.059,-0.146
3436,-0.058,-0.149
3437,-0.057,-0.149
3438,-0.054,-0.149
3439,-0.050,-0.149
3440,-0.044,-0.149
3441,-0.038,-0.149
3442,-0.027,-0.149
3443,-0.017,-0.149
3444,0.001,-0.155
3445,0.019,-0.155
3446,0.045,-0.155
3447,0.072,-0.155
3448,0.104,-0.161
3449,0.137,-0.161
3450,0.167,-0.161
3451,0.197,-0.161
3452,0.215,-0.167
3453,0.232,-0.167
3454,0.228,-0.167
3455,0.224,-0.167
3456,0.198,-0.178
3457,0.171,-0.178
3458,0.132,-0.178
3459,0.092,-0.178
3460,0.052,-0.178
3461,0.011,-0.178
3462,-0.019,-0.178
3463,-0.049,-0.178
3464,-0.066,-0.181
3465,-0.084,-0.181
3466,-0.093,-0.181
3467,-0.103,-0.181
3468,-0.111,-0.181
3469,-0.120,-0.181
3470,-0.132,-0.181
3471,-0.145,-0.181
3472,-0.163,-0.187
3473,-0.181,-0.187
3474,-0.201,-0.187
3475,-0.222,-0.187
3476,-0.241,-0.184
3477,-0.259,-0.184
3478,-0.274,-0.184
3479,-0.289,-0.184
3480,-0.299,-0.181
3481,-0.309,-0.181
3482,-0.314,-0.181
3483,-0.320,-0.181
3484,-0.320,-0.178
3485,-0.321,-0.178
3486,-0.316,-0.178
3487,-0.311,-0.178
3488,-0.299,-0.175
3489,-0.287,-0.175
3490,-0.269,-0.175
3491,-0.251,-0.175
3492,-0.228,-0.175
3493,-0.206,-0.175
3494,-0.182,-0.175
3495,-0.157,-0.175
3496,-0.134,-0.172
3497,-0.110,-0.172
3498,-0.090,-0.172
3499,-0.070,-0.172
3500,-0.054,-0.170
3501,-0.038,-0.170
3502,-0.028,-0.170
3503,-0.018,-0.170
3504,-0.013,-0.164
3505,-0.008,-0.164
3506,-0.006,-0.164
3507,-0.004,-0.164
3508,-0.003,-0.167
3509,-0.001,-0.167
3510,0.002,-0.167
3511,0.005,-0.167
3512,0.008,-0.167
3513,0.011,-0.167
3514,0.013,-0.167
3515,0.016,-0.167
3516,0.017,-0.167
3517,0.019,-0.167
3518,0.020,-0.167
3519,0.021,-0.167
3520,0.022,-0.167
3521,0.023,-0.167
3522,0.024,-0.167
3523,0.025,-0.167
3524,0.026,-0.170
3525,0.027,-0.170
3526,0.027,-0.170
3527,0.028,-0.170
3528,0.028,-0.170
3529,0.028,-0.170
3530,0.029,-0.170
3531,0.029,-0.170
3532,0.030,-0.170
3533,0.031,-0.170
3534,0.032,-0.170
3535,0.033,-0.170
3536,0.034,-0.170
3537,0.035,-0.170
3538,0.036,-0.170
3539,0.036,-0.170
3540,0.035,-0.170
3541,0.035,-0.170
3542,0.034,-0.170
3543,0.033,-0.170
3544,0.033,-0.167
3545,0.032,-0.167
3546,0.033,-0.167
3547,0.033,-0.167
3548,0.035,-0.167
3549,0.037,-0.167
3550,0.041,-0.167
3551,0.045,-0.167
3552,0.049,-0.161
3553,0.054,-0.161
3554,0.059,-0.161
3555,0.063,-0.161
3556,0.067,-0.161
3557,0.070,-0.161
3558,0.072,-0.161
3559,0.074,-0.161
3560,0.075,-0.158
3561,0.075,-0.158
3562,0.076,-0.158
3563,0.077,-0.158
3564,0.080,-0.152
3565,0.082,-0.152
3566,0.085,-0.152
3567,0.088,-0.152
3568,0.091,-0.146
3569,0.093,-0.146
3570,0.093,-0.146
3571,0.094,-0.146
3572,0.093,-0.140
3573,0.093,-0.140
3574,0.093,-0.140
3575,0.094,-0.140
3576,0.094,-0.134
3577,0.095,-0.134
3578,0.096,-0.134
3579,0.097,-0.134
3580,0.097,-0.119
3581,0.098,-0.119
3582,0.096,-0.119
3583,0.094,-0.119
3584,0.089,-0.111
3585,0.085,-0.111
3586,0.079,-0.111
3587,0.073,-0.111
3588,0.067,-0.099
3589,0.060,-0.099
3590,0.055,-0.099
3591,0.049,-0.099
3592,0.046,-0.087
3593,0.043,-0.087
3594,0.041,-0.087
3595,0.039,-0.087
3596,0.037,-0.079
3597,0.036,-0.079
3598,0.033,-0.079
3599,0.031,-0.079
3600,0.027,-0.064
3601,0.022,-0.064
3602,0.018,-0.064
3603,0.013,-0.064
3604,0.009,-0.056
3605,0.005,-0.056
3606,0.001,-0.056
3607,-0.002,-0.056
3608,-0.005,-0.046
3609,-0.007,-0.046
3610,-0.009,-0.046
3611,-0.011,-0.046
3612,-0.013,-0.038
3613,-0.015,-0.038
3614,-0.016,-0.038
3615,-0.017,-0.038
3616,-0.017,-0.035
3617,-0.017,-0.035
3618,-0.016,-0.035
3619,-0.016,-0.035
3620,-0.015,-0.032
3621,-0.015,-0.032
3622,-0.016,-0.032
3623,-0.016,-0.032
3624,-0.017,-0.032
3625,-0.018,-0.032
3626,-0.020,-0.032
3627,-0.021,-0.032
3628,-0.022,-0.035
3629,-0.023,-0.035
3630,-0.022,-0.035
3631,-0.021,-0.035
3632,-0.021,-0.035
3633,-0.020,-0.035
3634,-0.021,-0.035
3635,-0.022,-0.035
3636,-0.025,-0.041
3637,-0.028,-0.041
3638,-0.031,-0.041
3639,-0.035,-0.041
3640,-0.036,-0.046
3641,-0.038,-0.046
3642,-0.037,-0.046
3643,-0.035,-0.046
3644,-0.031,-0.056
3645,-0.028,-0.056
3646,-0.024,-0.056
3647,-0.020,-0.056
3648,-0.017,-0.067
3649,-0.015,-0.067
3650,-0.014,-0.067
3651,-0.013,-0.067
3652,-0.013,-0.076
3653,-0.013,-0.076
3654,-0.013,-0.076
3655,-0.013,-0.076
3656,-0.012,-0.082
3657,-0.012,-0.082
3658,-0.011,-0.082
3659,-0.011,-0.082
3660,-0.010,-0.090
3661,-0.009,-0.090
3662,-0.008,-0.090
3663,-0.007,-0.090
3664,-0.006,-0.102
3665,-0.006,-0.102
3666,-0.006,-0.102
3667,-0.007,-0.102
3668,-0.010,-0.105
3669,-0.014,-0.105
3670,-0.018,-0.105
3671,-0.023,-0.105
3672,-0.029,-0.108
3673,-0.034,-0.108
3674,-0.038,-0.108
3675,-0.042,-0.108
3676,-0.045,-0.111
3677,-0.048,-0.111
3678,-0.050,-0.111
3679,-0.051,-0.111
3680,-0.054,-0.114
3681,-0.056,-0.114
3682,-0.058,-0.114
3683,-0.061,-0.114
3684,-0.063,-0.117
3685,-0.065,-0.117
3686,-0.066,-0.117
3687,-0.068,-0.117
3688,-0.068,-0.111
3689,-0.068,-0.111
3690,-0.067,-0.111
3691,-0.066,-0.111
3692,-0.064,-0.108
3693,-0.062,-0.108
3694,-0.059,-0.108
3695,-0.056,-0.108
3696,-0.052,-0.105
3697,-0.049,-0.105
3698,-0.046,-0.105
3699,-0.044,-0.105
3700,-0.043,-0.102
3701,-0.043,-0.102
3702,-0.044,-0.102
3703,-0.046,-0.102
3704,-0.050,-0.099
3705,-0.053,-0.099
3706,-0.057,-0.099
3707,-0.060,-0.099
3708,-0.063,-0.099
3709,-0.066,-0.099
3710,-0.068,-0.099
3711,-0.070,-0.099
3712,-0.071,-0.097
3713,-0.072,-0.097
3714,-0.072,-0.097
3715,-0.072,-0.097
3716,-0.068,-0.097
3717,-0.065,-0.097
3718,-0.056,-0.097
3719,-0.048,-0.097
3720,-0.031,-0.099
3721,-0.015,-0.099
3722,0.011,-0.099
3723,0.037,-0.099
3724,0.071,-0.097
3725,0.104,-0.097
3726,0.139,-0.097
3727,0.174,-0.097
3728,0.200,-0.099
3729,0.227,-0.099
3730,0.236,-0.099
3731,0.245,-0.099
3732,0.232,-0.102
3733,0.219,-0.102
3734,0.188,-0.102
3735,0.156,-0.102
3736,0.117,-0.108
3737,0.077,-0.108
3738,0.039,-0.108
3739,0.002,-0.108
3740,-0.028,-0.114
3741,-0.058,-0.114
3742,-0.080,-0.114
3743,-0.102,-0.114
3744,-0.120,-0.114
3745,-0.137,-0.114
3746,-0.156,-0.114
3747,-0.175,-0.114
3748,-0.195,-0.117
3749,-0.216,-0.117
3750,-0.236,-0.117
3751,-0.257,-0.117
3752,-0.274,-0.119
3753,-0.290,-0.119
3754,-0.303,-0.119
3755,-0.316,-0.119
3756,-0.323,-0.119
3757,-0.330,-0.119
3758,-0.329,-0.119
3759,-0.329,-0.119
3760,-0.320,-0.126
3761,-0.312,-0.126
3762,-0.295,-0.126
3763,-0.279,-0.126
3764,-0.256,-0.122
3765,-0.233,-0.122
3766,-0.207,-0.122
3767,-0.181,-0.122
3768,-0.157,-0.126
3769,-0.133,-0.126
3770,-0.113,-0.126
3771,-0.092,-0.126
3772,-0.076,-0.122
3773,-0.060,-0.122
3774,-0.049,-0.122
3775,-0.037,-0.122
3776,-0.030,-0.126
3777,-0.022,-0.126
3778,-0.016,-0.126
3779,-0.011,-0.126
3780,-0.008,-0.126
3781,-0.004,-0.126
3782,-0.002,-0.126
3783,-0.001,-0.126
3784,0.000,-0.129
3785,0.001,-0.129
3786,0.002,-0.129
3787,0.003,-0.129
3788,0.004,-0.132
3789,0.006,-0.132
3790,0.008,-0.132
3791,0.010,-0.132
3792,0.013,-0.132
3793,0.016,-0.132
3794,0.018,-0.132
3795,0.020,-0.132
3796,0.020,-0.137
3797,0.020,-0.137
3798,0.018,-0.137
3799,0.017,-0.137
3800,0.016,-0.143
3801,0.015,-0.143
3802,0.014,-0.143
3803,0.014,-0.143
3804,0.014,-0.143
3805,0.015,-0.143
3806,0.017,-0.143
3807,0.018,-0.143
3808,0.020,-0.149
3809,0.022,-0.149
3810,0.024,-0.149
3811,0.025,-0.149
3812,0.024,-0.152
3813,0.024,-0.152
3814,0.022,-0.152
3815,0.021,-0.152
3816,0.019,-0.161
3817,0.018,-0.161
3818,0.018,-0.161
3819,0.017,-0.161
3820,0.017,-0.161
3821,0.018,-0.161
3822,0.019,-0.161
3823,0.021,-0.161
3824,0.024,-0.167
3825,0.027,-0.167
3826,0.031,-0.167
3827,0.036,-0.167
3828,0.041,-0.164
3829,0.046,-0.164
3830,0.050,-0.164
3831,0.055,-0.164
3832,0.058,-0.158
3833,0.062,-0.158
3834,0.064,-0.158
3835,0.067,-0.158
3836,0.068,-0.154
3837,0.069,-0.154
3838,0.070,-0.154
3839,0.071,-0.154
3840,0.073,-0.140
3841,0.075,-0.140
3842,0.077,-0.140
3843,0.080,-0.140
3844,0.082,-0.126
3845,0.085,-0.126
3846,0.086,-0.126
3847,0.087,-0.126
3848,0.088,-0.102
3849,0.088,-0.102
3850,0.089,-0.102
3851,0.089,-0.102
3852,0.089,-0.082
3853,0.089,-0.082
3854,0.090,-0.082
3855,0.090,-0.082
3856,0.090,-0.052
3857,0.090,-0.052
3858,0.088,-0.052
3859,0.085,-0.052
3860,0.081,-0.021
3861,0.076,-0.021
3862,0.069,-0.021
3863,0.063,-0.021
3864,0.056,0.006
3865,0.050,0.006
3866,0.045,0.006
3867,0.041,0.006
3868,0.038,0.033
3869,0.036,0.033
3870,0.034,0.033
3871,0.033,0.033
3872,0.031,0.050
3873,0.030,0.050
3874,0.028,0.050
3875,0.025,0.050
3876,0.023,0.068
3877,0.020,0.068
3878,0.017,0.068
3879,0.014,0.068
3880,0.012,0.073
3881,0.010,0.073
3882,0.008,0.073
3883,0.006,0.073
3884,0.003,0.076
3885,0.001,0.076
3886,-0.003,0.076
3887,-0.006,0.076
3888,-0.009,0.079
3889,-0.012,0.079
3890,-0.016,0.079
3891,-0.020,0.079
3892,-0.024,0.070
3893,-0.028,0.070
3894,-0.031,0.070
3895,-0.035,0.070
3896,-0.038,0.061
3897,-0.041,0.061
3898,-0.042,0.061
3899,-0.042,0.061
3900,-0.041,0.053
3901,-0.039,0.053
3902,-0.037,0.053
3903,-0.034,0.053
3904,-0.033,0.047
3905,-0.031,0.047
3906,-0.030,0.047
3907,-0.030,0.047
3908,-0.030,0.035
3909,-0.030,0.035
3910,-0.030,0.035
3911,-0.030,0.035
3912,-0.029,0.026
3913,-0.029,0.026
3914,-0.028,0.026
3915,-0.028,0.026
3916,-0.030,0.018
3917,-0.031,0.018
3918,-0.035,0.018
3919,-0.038,0.018
3920,-0.041,0.012
3921,-0.044,0.012
3922,-0.046,0.012
3923,-0.048,0.012
3924,-0.047,0.003
3925,-0.047,0.003
3926,-0.043,0.003
3927,-0.040,0.003
3928,-0.035,-0.003
3929,-0.030,-0.003
3930,-0.025,-0.003
3931,-0.020,-0.003
3932,-0.017,-0.003
3933,-0.014,-0.003
3934,-0.013,-0.003
3935,-0.012,-0.003
3936,-0.013,-0.011
3937,-0.014,-0.011
3938,-0.015,-0.011
3939,-0.016,-0.011
3940,-0.017,-0.018
3941,-0.018,-0.018
3942,-0.018,-0.018
3943,-0.019,-0.018
3944,-0.020,-0.021
3945,-0.020,-0.021
3946,-0.022,-0.021
3947,-0.023,-0.021
3948,-0.025,-0.021
3949,-0.028,-0.021
3950,-0.030,-0.021
3951,-0.032,-0.021
3952,-0.034,-0.023
3953,-0.036,-0.023
3954,-0.039,-0.023
3955,-0.042,-0.023
3956,-0.045,-0.029
3957,-0.049,-0.029
3958,-0.052,-0.029
3959,-0.055,-0.029
3960,-0.058,-0.032
3961,-0.061,-0.032
3962,-0.064,-0.032
3963,-0.066,-0.032
3964,-0.068,-0.035
3965,-0.069,-0.035
3966,-0.070,-0.035
3967,-0.071,-0.035
3968,-0.072,-0.035
3969,-0.072,-0.035
3970,-0.072,-0.035
3971,-0.072,-0.035
3972,-0.071,-0.035
3973,-0.070,-0.035
3974,-0.068,-0.035
3975,-0.067,-0.035
3976,-0.066,-0.032
3977,-0.065,-0.032
3978,-0.065,-0.032
3979,-0.064,-0.032
3980,-0.065,-0.032
3981,-0.066,-0.032
3982,-0.068,-0.032
3983,-0.069,-0.032
3984,-0.071,-0.032
3985,-0.073,-0.032
3986,-0.075,-0.032
3987,-0.076,-0.032
3988,-0.077,-0.035
3989,-0.077,-0.035
3990,-0.075,-0.035
3991,-0.073,-0.035
3992,-0.068,-0.032
3993,-0.063,-0.032
3994,-0.053,-0.032
3995,-0.044,-0.032
3996,-0.028,-0.041
3997,-0.011,-0.041
3998,0.013,-0.041
3999,0.038,-0.041
4000,0.069,-0.043
4001,0.101,-0.043
4002,0.133,-0.043
4003,0.165,-0.043
4004,0.189,-0.050
4005,0.213,-0.050
4006,0.217,-0.050
4007,0.222,-0.050
4008,0.203,-0.056
4009,0.184,-0.056
4010,0.149,-0.056
4011,0.114,-0.056
4012,0.075,-0.061
4013,0.035,-0.061
4014,0.002,-0.061
4015,-0.032,-0.061
4016,-0.056,-0.061
4017,-0.080,-0.061
4018,-0.096,-0.061
4019,-0.113,-0.061
4020,-0.127,-0.067
4021,-0.141,-0.067
4022,-0.157,-0.067
4023,-0.174,-0.067
4024,-0.192,-0.070
4025,-0.211,-0.070
4026,-0.230,-0.070
4027,-0.250,-0.070
4028,-0.267,-0.076
4029,-0.285,-0.076
4030,-0.299,-0.076
4031,-0.312,-0.076
4032,-0.321,-0.076
4033,-0.329,-0.076
4034,-0.330,-0.076
4035,-0.330,-0.076
4036,-0.322,-0.079
4037,-0.313,-0.079
4038,-0.295,-0.079
4039,-0.277,-0.079
4040,-0.253,-0.076
4041,-0.229,-0.076
4042,-0.201,-0.076
4043,-0.174,-0.076
4044,-0.147,-0.076
4045,-0.121,-0.076
4046,-0.099,-0.076
4047,-0.077,-0.076
4048,-0.061,-0.079
4049,-0.045,-0.079
4050,-0.035,-0.079
4051,-0.024,-0.079
4052,-0.019,-0.076
4053,-0.013,-0.076
4054,-0.010,-0.076
4055,-0.007,-0.076
4056,-0.004,-0.082
4057,-0.002,-0.082
4058,0.000,-0.082
4059,0.003,-0.082
4060,0.005,-0.085
4061,0.008,-0.085
4062,0.010,-0.085
4063,0.012,-0.085
4064,0.013,-0.090
4065,0.014,-0.090
4066,0.014,-0.090
4067,0.015,-0.090
4068,0.014,-0.093
4069,0.013,-0.093
4070,0.012,-0.093
4071,0.011,-0.093
4072,0.010,-0.102
4073,0.009,-0.102
4074,0.008,-0.102
4075,0.007,-0.102
4076,0.008,-0.102
4077,0.008,-0.102
4078,0.010,-0.102
4079,0.011,-0.102
4080,0.014,-0.108
4081,0.017,-0.108
4082,0.020,-0.108
4083,0.022,-0.108
4084,0.024,-0.114
4085,0.025,-0.114
4086,0.025,-0.114
4087,0.024,-0.114
4088,0.023,-0.114
4089,0.022,-0.114
4090,0.021,-0.114
4091,0.020,-0.114
4092,0.020,-0.111
4093,0.019,-0.111
4094,0.021,-0.111
4095,0.023,-0.111
4096,0.027,-0.108
4097,0.031,-0.108
4098,0.036,-0.108
4099,0.042,-0.108
4100,0.045,-0.099
4101,0.048,-0.099
4102,0.050,-0.099
4103,0.051,-0.099
4104,0.050,-0.090
4105,0.049,-0.090
4106,0.049,-0.090
4107,0.048,-0.090
4108,0.050,-0.079
4109,0.052,-0.079
4110,0.055,-0.079
4111,0.059,-0.079
4112,0.063,-0.061
4113,0.068,-0.061
4114,0.073,-0.061
4115,0.077,-0.061
4116,0.081,-0.038
4117,0.085,-0.038
4118,0.086,-0.038
4119,0.088,-0.038
4120,0.089,-0.015
4121,0.090,-0.015
4122,0.091,-0.015
4123,0.092,-0.015
4124,0.095,0.012
4125,0.098,0.012
4126,0.100,0.012
4127,0.103,0.012
4128,0.105,0.038
4129,0.107,0.038
4130,0.106,0.038
4131,0.105,0.038
4132,0.102,0.065
4133,0.098,0.065
4134,0.095,0.065
4135,0.091,0.065
4136,0.088,0.088
4137,0.084,0.088
4138,0.081,0.088
4139,0.078,0.088
4140,0.076,0.111
4141,0.073,0.111
4142,0.071,0.111
4143,0.068,0.111
4144,0.065,0.123
4145,0.061,0.123
4146,0.057,0.123
4147,0.052,0.123
4148,0.047,0.135
4149,0.042,0.135
4150,0.035,0.135
4151,0.029,0.135
4152,0.023,0.141
4153,0.017,0.141
4154,0.012,0.141
4155,0.008,0.141
4156,0.005,0.141
4157,0.003,0.141
4158,0.002,0.141
4159,0.001,0.141
4160,0.000,0.129
4161,-0.001,0.129
4162,-0.002,0.129
4163,-0.004,0.129
4164,-0.007,0.123
4165,-0.010,0.123
4166,-0.014,0.123
4167,-0.017,0.123
4168,-0.020,0.108
4169,-0.022,0.108
4170,-0.023,0.108
4171,-0.024,0.108
4172,-0.024,0.093
4173,-0.023,0.093
4174,-0.023,0.093
4175,-0.023,0.093
4176,-0.023,0.082
4177,-0.023,0.082
4178,-0.023,0.082
4179,-0.023,0.082
4180,-0.023,0.073
4181,-0.023,0.073
4182,-0.024,0.073
4183,-0.025,0.073
4184,-0.027,0.068
4185,-0.029,0.068
4186,-0.031,0.068
4187,-0.033,0.068
4188,-0.034,0.056
4189,-0.035,0.056
4190,-0.035,0.056
4191,-0.034,0.056
4192,-0.033,0.053
4193,-0.031,0.053
4194,-0.029,0.053
4195,-0.027,0.053
4196,-0.025,0.047
4197,-0.024,0.047
4198,-0.023,0.047
4199,-0.022,0.047
4200,-0.022,0.038
4201,-0.021,0.038
4202,-0.019,0.038
4203,-0.018,0.038
4204,-0.016,0.035
4205,-0.014,0.035
4206,-0.012,0.035
4207,-0.010,0.035
4208,-0.008,0.029
4209,-0.006,0.029
4210,-0.005,0.029
4211,-0.004,0.029
4212,-0.004,0.021
4213,-0.003,0.021
4214,-0.002,0.021
4215,-0.001,0.021
4216,0.000,0.021
4217,0.001,0.021
4218,0.002,0.021
4219,0.002,0.021
4220,0.001,0.015
4221,0.000,0.015
4222,-0.002,0.015
4223,-0.005,0.015
4224,-0.008,0.015
4225,-0.011,0.015
4226,-0.014,0.015
4227,-0.016,0.015
4228,-0.018,0.012
4229,-0.019,0.012
4230,-0.020,0.012
4231,-0.021,0.012
4232,-0.023,0.012
4233,-0.025,0.012
4234,-0.028,0.012
4235,-0.031,0.012
4236,-0.034,0.006
4237,-0.038,0.006
4238,-0.043,0.006
4239,-0.047,0.006
4240,-0.051,0.009
4241,-0.055,0.009
4242,-0.057,0.009
4243,-0.060,0.009
4244,-0.062,0.006
4245,-0.064,0.006
4246,-0.065,0.006
4247,-0.067,0.006
4248,-0.067,0.009
4249,-0.067,0.009
4250,-0.065,0.009
4251,-0.064,0.009
4252,-0.062,0.009
4253,-0.060,0.009
4254,-0.058,0.009
4255,-0.057,0.009
4256,-0.055,0.006
4257,-0.053,0.006
4258,-0.053,0.006
4259,-0.052,0.006
4260,-0.054,0.006
4261,-0.056,0.006
4262,-0.058,0.006
4263,-0.060,0.006
4264,-0.061,0.003
4265,-0.063,0.003
4266,-0.063,0.003
4267,-0.063,0.003
4268,-0.062,-0.003
4269,-0.060,-0.003
4270,-0.058,-0.003
4271,-0.055,-0.003
4272,-0.050,-0.003
4273,-0.044,-0.003
4274,-0.033,-0.003
4275,-0.022,-0.003
4276,-0.001,-0.009
4277,0.020,-0.009
4278,0.051,-0.009
4279,0.082,-0.009
4280,0.117,-0.011
4281,0.151,-0.011
4282,0.178,-0.011
4283,0.204,-0.011
4284,0.211,-0.018
4285,0.219,-0.018
4286,0.202,-0.018
4287,0.185,-0.018
4288,0.150,-0.021
4289,0.115,-0.021
4290,0.075,-0.021
4291,0.035,-0.021
4292,0.002,-0.023
4293,-0.032,-0.023
4294,-0.053,-0.023
4295,-0.075,-0.023
4296,-0.088,-0.029
4297,-0.101,-0.029
4298,-0.112,-0.029
4299,-0.123,-0.029
4300,-0.138,-0.029
4301,-0.152,-0.029
4302,-0.171,-0.029
4303,-0.190,-0.029
4304,-0.211,-0.035
4305,-0.233,-0.035
4306,-0.254,-0.035
4307,-0.274,-0.035
4308,-0.291,-0.038
4309,-0.308,-0.038
4310,-0.319,-0.038
4311,-0.330,-0.038
4312,-0.333,-0.038
4313,-0.335,-0.038
4314,-0.329,-0.038
4315,-0.323,-0.038
4316,-0.307,-0.041
4317,-0.292,-0.041
4318,-0.271,-0.041
4319,-0.249,-0.041
4320,-0.226,-0.043
4321,-0.202,-0.043
4322,-0.176,-0.043
4323,-0.151,-0.043
4324,-0.128,-0.046
4325,-0.105,-0.046
4326,-0.086,-0.046
4327,-0.067,-0.046
4328,-0.051,-0.046
4329,-0.036,-0.046
4330,-0.026,-0.046
4331,-0.016,-0.046
4332,-0.010,-0.052
4333,-0.005,-0.052
4334,-0.003,-0.052
4335,0.000,-0.052
4336,0.003,-0.056
4337,0.005,-0.056
4338,0.009,-0.056
4339,0.012,-0.056
4340,0.015,-0.059
4341,0.018,-0.059
4342,0.019,-0.059
4343,0.021,-0.059
4344,0.021,-0.059
4345,0.021,-0.059
4346,0.020,-0.059
4347,0.019,-0.059
4348,0.018,-0.067
4349,0.018,-0.067
4350,0.020,-0.067
4351,0.021,-0.067
4352,0.024,-0.070
4353,0.027,-0.070
4354,0.029,-0.070
4355,0.032,-0.070
4356,0.034,-0.070
4357,0.036,-0.070
4358,0.037,-0.070
4359,0.038,-0.070
4360,0.038,-0.076
4361,0.037,-0.076
4362,0.036,-0.076
4363,0.035,-0.076
4364,0.035,-0.076
4365,0.034,-0.076
4366,0.034,-0.076
4367,0.034,-0.076
4368,0.034,-0.082
4369,0.034,-0.082
4370,0.035,-0.082
4371,0.036,-0.082
4372,0.037,-0.082
4373,0.039,-0.082
4374,0.041,-0.082
4375,0.042,-0.082
4376,0.044,-0.082
4377,0.047,-0.082
4378,0.049,-0.082
4379,0.052,-0.082
4380,0.056,-0.087
4381,0.059,-0.087
4382,0.064,-0.087
4383,0.068,-0.087
4384,0.073,-0.087
4385,0.078,-0.087
4386,0.083,-0.087
4387,0.087,-0.087
4388,0.091,-0.087
4389,0.095,-0.087
4390,0.098,-0.087
4391,0.101,-0.087
4392,0.104,-0.087
4393,0.107,-0.087
4394,0.110,-0.087
4395,0.113,-0.087
4396,0.116,-0.079
4397,0.120,-0.079
4398,0.123,-0.079
4399,0.126,-0.079
4400,0.128,-0.073
4401,0.130,-0.073
4402,0.130,-0.073
4403,0.130,-0.073
4404,0.128,-0.061
4405,0.127,-0.061
4406,0.125,-0.061
4407,0.123,-0.061
4408,0.121,-0.046
4409,0.120,-0.046
4410,0.119,-0.046
4411,0.118,-0.046
4412,0.118,-0.032
4413,0.117,-0.032
4414,0.116,-0.032
4415,0.114,-0.032
4416,0.111,-0.011
4417,0.109,-0.011
4418,0.104,-0.011
4419,0.100,-0.011
4420,0.095,0.003
4421,0.089,0.003
4422,0.084,0.003
4423,0.079,0.003
4424,0.075,0.024
4425,0.070,0.024
4426,0.066,0.024
4427,0.062,0.024
4428,0.058,0.038
4429,0.053,0.038
4430,0.048,0.038
4431,0.044,0.038
4432,0.039,0.053
4433,0.034,0.053
4434,0.029,0.053
4435,0.025,0.053
4436,0.021,0.059
4437,0.017,0.059
4438,0.015,0.059
4439,0.012,0.059
4440,0.010,0.059
4441,0.008,0.059
4442,0.007,0.059
4443,0.005,0.059
4444,0.004,0.056
4445,0.003,0.056
4446,0.001,0.056
4447,0.000,0.056
4448,-0.001,0.050
4449,-0.001,0.050
4450,-0.001,0.050
4451,-0.002,0.050
4452,-0.002,0.038
4453,-0.003,0.038
4454,-0.003,0.038
4455,-0.004,0.038
4456,-0.004,0.026
4457,-0.005,0.026
4458,-0.006,0.026
4459,-0.008,0.026
4460,-0.009,0.012
4461,-0.010,0.012
4462,-0.011,0.012
4463,-0.012,0.012
4464,-0.013,-0.003
4465,-0.014,-0.003
4466,-0.014,-0.003
4467,-0.014,-0.003
4468,-0.014,-0.011
4469,-0.014,-0.011
4470,-0.014,-0.011
4471,-0.014,-0.011
4472,-0.013,-0.021
4473,-0.013,-0.021
4474,-0.012,-0.021
4475,-0.012,-0.021
4476,-0.011,-0.032
4477,-0.011,-0.032
4478,-0.010,-0.032
4479,-0.010,-0.032
4480,-0.009,-0.018
4481,-0.008,-0.018
4482,-0.007,-0.018
4483,-0.006,-0.018
4484,-0.003,-0.026
4485,-0.001,-0.026
4486,0.002,-0.026
4487,0.004,-0.026
4488,0.006,-0.026
4489,0.008,-0.026
4490,0.010,-0.026
4491,0.011,-0.026
4492,0.012,-0.032
4493,0.012,-0.032
4494,0.011,-0.032
4495,0.011,-0.032
4496,0.010,-0.029
4497,0.010,-0.029
4498,0.009,-0.029
4499,0.008,-0.029
4500,0.008,-0.032
4501,0.007,-0.032
4502,0.004,-0.032
4503,0.002,-0.032
4504,-0.002,-0.029
4505,-0.005,-0.029
4506,-0.009,-0.029
4507,-0.013,-0.029
4508,-0.017,-0.029
4509,-0.021,-0.029
4510,-0.024,-0.029
4511,-0.028,-0.029
4512,-0.029,-0.032
4513,-0.031,-0.032
4514,-0.031,-0.032
4515,-0.031,-0.032
4516,-0.031,-0.029
4517,-0.030,-0.029
4518,-0.030,-0.029
4519,-0.030,-0.029
4520,-0.031,-0.026
4521,-0.033,-0.026
4522,-0.036,-0.026
4523,-0.038,-0.026
4524,-0.042,-0.026
4525,-0.046,-0.026
4526,-0.049,-0.026
4527,-0.052,-0.026
4528,-0.054,-0.029
4529,-0.055,-0.029
4530,-0.055,-0.029
4531,-0.054,-0.029
4532,-0.053,-0.032
4533,-0.052,-0.032
4534,-0.052,-0.032
4535,-0.051,-0.032
4536,-0.051,-0.032
4537,-0.051,-0.032
4538,-0.050,-0.032
4539,-0.050,-0.032
4540,-0.049,-0.038
4541,-0.049,-0.038
4542,-0.049,-0.038
4543,-0.048,-0.038
4544,-0.049,-0.043
4545,-0.050,-0.043
4546,-0.051,-0.043
4547,-0.052,-0.043
4548,-0.052,-0.050
4549,-0.052,-0.050
4550,-0.049,-0.050
4551,-0.047,-0.050
4552,-0.038,-0.056
4553,-0.030,-0.056
4554,-0.013,-0.056
4555,0.004,-0.056
4556,0.032,-0.058
4557,0.060,-0.058
4558,0.096,-0.058
4559,0.131,-0.058
4560,0.164,-0.058
4561,0.197,-0.058
4562,0.215,-0.058
4563,0.232,-0.058
4564,0.226,-0.061
4565,0.220,-0.061
4566,0.192,-0.061
4567,0.164,-0.061
4568,0.123,-0.061
4569,0.083,-0.061
4570,0.044,-0.061
4571,0.006,-0.061
4572,-0.021,-0.058
4573,-0.048,-0.058
4574,-0.064,-0.058
4575,-0.080,-0.058
4576,-0.090,-0.056
4577,-0.100,-0.056
4578,-0.113,-0.056
4579,-0.126,-0.056
4580,-0.145,-0.050
4581,-0.165,-0.050
4582,-0.188,-0.050
4583,-0.211,-0.050
4584,-0.235,-0.050
4585,-0.258,-0.050
4586,-0.278,-0.050
4587,-0.298,-0.050
4588,-0.312,-0.043
4589,-0.326,-0.043
4590,-0.334,-0.043
4591,-0.342,-0.043
4592,-0.342,-0.035
4593,-0.342,-0.035
4594,-0.335,-0.035
4595,-0.327,-0.035
4596,-0.310,-0.035
4597,-0.294,-0.035
4598,-0.269,-0.035
4599,-0.245,-0.035
4600,-0.217,-0.029
4601,-0.190,-0.029
4602,-0.161,-0.029
4603,-0.133,-0.029
4604,-0.108,-0.026
4605,-0.083,-0.026
4606,-0.062,-0.026
4607,-0.042,-0.026
4608,-0.028,-0.023
4609,-0.014,-0.023
4610,-0.006,-0.023
4611,0.003,-0.023
4612,0.006,-0.023
4613,0.009,-0.023
4614,0.010,-0.023
4615,0.011,-0.023
4616,0.012,-0.026
4617,0.014,-0.026
4618,0.016,-0.026
4619,0.018,-0.026
4620,0.020,-0.032
4621,0.022,-0.032
4622,0.023,-0.032
4623,0.023,-0.032
4624,0.023,-0.038
4625,0.023,-0.038
4626,0.023,-0.038
4627,0.022,-0.038
4628,0.023,-0.046
4629,0.024,-0.046
4630,0.027,-0.046
4631,0.030,-0.046
4632,0.034,-0.052
4633,0.037,-0.052
4634,0.041,-0.052
4635,0.045,-0.052
4636,0.048,-0.061
4637,0.050,-0.061
4638,0.052,-0.061
4639,0.053,-0.061
4640,0.053,-0.070
4641,0.054,-0.070
4642,0.053,-0.070
4643,0.052,-0.070
4644,0.051,-0.070
4645,0.049,-0.070
4646,0.048,-0.070
4647,0.047,-0.070
4648,0.048,-0.076
4649,0.049,-0.076
4650,0.051,-0.076
4651,0.054,-0.076
4652,0.056,-0.073
4653,0.059,-0.073
4654,0.061,-0.073
4655,0.063,-0.073
4656,0.063,-0.070
4657,0.063,-0.070
4658,0.063,-0.070
4659,0.063,-0.070
4660,0.065,-0.061
4661,0.067,-0.061
4662,0.070,-0.061
4663,0.073,-0.061
4664,0.076,-0.050
4665,0.080,-0.050
4666,0.083,-0.050
4667,0.086,-0.050
4668,0.089,-0.038
4669,0.092,-0.038
4670,0.096,-0.038
4671,0.099,-0.038
4672,0.103,-0.023
4673,0.107,-0.023
4674,0.111,-0.023
4675,0.116,-0.023
4676,0.120,-0.015
4677,0.124,-0.015
4678,0.128,-0.015
4679,0.131,-0.015
4680,0.133,-0.005
4681,0.135,-0.005
4682,0.136,-0.005
4683,0.137,-0.005
4684,0.136,0.009
4685,0.135,0.009
4686,0.134,0.009
4687,0.132,0.009
4688,0.130,0.018
4689,0.128,0.018
4690,0.127,0.018
4691,0.125,0.018
4692,0.124,0.024
4693,0.123,0.024
4694,0.122,0.024
4695,0.121,0.024
4696,0.118,0.029
4697,0.116,0.029
4698,0.113,0.029
4699,0.109,0.029
4700,0.105,0.038
4701,0.100,0.038
4702,0.096,0.038
4703,0.091,0.038
4704,0.087,0.044
4705,0.083,0.044
4706,0.078,0.044
4707,0.074,0.044
4708,0.069,0.053
4709,0.064,0.053
4710,0.058,0.053
4711,0.051,0.053
4712,0.044,0.061
4713,0.037,0.061
4714,0.031,0.061
4715,0.024,0.061
4716,0.020,0.065
4717,0.016,0.065
4718,0.014,0.065
4719,0.012,0.065
4720,0.012,0.068
4721,0.012,0.068
4722,0.012,0.068
4723,0.011,0.068
4724,0.010,0.070
4725,0.009,0.070
4726,0.008,0.070
4727,0.006,0.070
4728,0.005,0.070
4729,0.004,0.070
4730,0.003,0.070
4731,0.003,0.070
4732,0.003,0.068
4733,0.003,0.068
4734,0.002,0.068
4735,0.002,0.068
4736,0.000,0.047
4737,-0.001,0.047
4738,-0.002,0.047
4739,-0.004,0.047
4740,-0.004,0.038
4741,-0.004,0.038
4742,-0.003,0.038
4743,-0.002,0.038
4744,-0.002,0.024
4745,-0.002,0.024
4746,-0.003,0.024
4747,-0.004,0.024
4748,-0.005,0.011
4749,-0.007,0.011
4750,-0.009,0.011
4751,-0.011,0.011
4752,-0.012,-0.009
4753,-0.012,-0.009
4754,-0.012,-0.009
4755,-0.011,-0.009
4756,-0.010,-0.026
4757,-0.009,-0.026
4758,-0.008,-0.026
4759,-0.007,-0.026
4760,-0.006,-0.041
4761,-0.004,-0.041
4762,-0.002,-0.041
4763,0.001,-0.041
4764,0.005,-0.050
4765,0.009,-0.050
4766,0.012,-0.050
4767,0.015,-0.050
4768,0.016,-0.061
4769,0.017,-0.061
4770,0.016,-0.061
4771,0.015,-0.061
4772,0.014,-0.067
4773,0.013,-0.067
4774,0.013,-0.067
4775,0.013,-0.067
4776,0.013,-0.064
4777,0.013,-0.064
4778,0.013,-0.064
4779,0.013,-0.064
4780,0.012,-0.061
4781,0.012,-0.061
4782,0.010,-0.061
4783,0.009,-0.061
4784,0.006,-0.056
4785,0.004,-0.056
4786,0.001,-0.056
4787,-0.003,-0.056
4788,-0.007,-0.044
4789,-0.011,-0.044
4790,-0.015,-0.044
4791,-0.019,-0.044
4792,-0.021,-0.035
4793,-0.024,-0.035
4794,-0.025,-0.035
4795,-0.027,-0.035
4796,-0.027,-0.026
4797,-0.028,-0.026
4798,-0.028,-0.026
4799,-0.029,-0.026
4800,-0.031,-0.015
4801,-0.032,-0.015
4802,-0.035,-0.015
4803,-0.037,-0.015
4804,-0.040,-0.009
4805,-0.043,-0.009
4806,-0.044,-0.009
4807,-0.045,-0.009
4808,-0.044,0.000
4809,-0.042,0.000
4810,-0.040,0.000
4811,-0.038,0.000
4812,-0.037,0.009
4813,-0.035,0.009
4814,-0.035,0.009
4815,-0.035,0.009
4816,-0.037,0.015
4817,-0.039,0.015
4818,-0.043,0.015
4819,-0.046,0.015
4820,-0.049,0.018
4821,-0.052,0.018
4822,-0.055,0.018
4823,-0.057,0.018
4824,-0.058,0.024
4825,-0.059,0.024
4826,-0.058,0.024
4827,-0.057,0.024
4828,-0.052,0.024
4829,-0.048,0.024
4830,-0.038,0.024
4831,-0.028,0.024
4832,-0.010,0.024
4833,0.007,0.024
4834,0.034,0.024
4835,0.061,0.024
4836,0.096,0.021
4837,0.131,0.021
4838,0.167,0.021
4839,0.202,0.021
4840,0.226,0.015
4841,0.249,0.015
4842,0.250,0.015
4843,0.252,0.015
4844,0.228,0.006
4845,0.204,0.006
4846,0.164,0.006
4847,0.124,0.006
4848,0.082,-0.006
4849,0.039,-0.006
4850,0.006,-0.006
4851,-0.027,-0.006
4852,-0.048,-0.015
4853,-0.069,-0.015
4854,-0.084,-0.015
4855,-0.098,-0.015
4856,-0.112,-0.026
4857,-0.126,-0.026
4858,-0.145,-0.026
4859,-0.163,-0.026
4860,-0.185,-0.038
4861,-0.207,-0.038
4862,-0.229,-0.038
4863,-0.251,-0.038
4864,-0.269,-0.050
4865,-0.287,-0.050
4866,-0.300,-0.050
4867,-0.313,-0.050
4868,-0.322,-0.056
4869,-0.330,-0.056
4870,-0.334,-0.056
4871,-0.338,-0.056
4872,-0.335,-0.061
4873,-0.333,-0.061
4874,-0.320,-0.061
4875,-0.308,-0.061
4876,-0.286,-0.061
4877,-0.264,-0.061
4878,-0.235,-0.061
4879,-0.206,-0.061
4880,-0.176,-0.061
4881,-0.146,-0.061
4882,-0.119,-0.061
4883,-0.092,-0.061
4884,-0.070,-0.061
4885,-0.049,-0.061
4886,-0.034,-0.061
4887,-0.020,-0.061
4888,-0.011,-0.056
4889,-0.003,-0.056
4890,0.002,-0.056
4891,0.006,-0.056
4892,0.009,-0.044
4893,0.012,-0.044
4894,0.015,-0.044
4895,0.018,-0.044
4896,0.021,-0.044
4897,0.024,-0.044
4898,0.028,-0.044
4899,0.031,-0.044
4900,0.034,-0.035
4901,0.037,-0.035
4902,0.038,-0.035
4903,0.039,-0.035
4904,0.039,-0.029
4905,0.038,-0.029
4906,0.037,-0.029
4907,0.036,-0.029
4908,0.035,-0.029
4909,0.034,-0.029
4910,0.036,-0.029
4911,0.037,-0.029
4912,0.040,-0.032
4913,0.043,-0.032
4914,0.045,-0.032
4915,0.048,-0.032
4916,0.050,-0.038
4917,0.052,-0.038
4918,0.052,-0.038
4919,0.052,-0.038
4920,0.052,-0.044
4921,0.051,-0.044
4922,0.050,-0.044
4923,0.049,-0.044
4924,0.048,-0.052
4925,0.047,-0.052
4926,0.047,-0.052
4927,0.047,-0.052
4928,0.048,-0.067
4929,0.048,-0.067
4930,0.049,-0.067
4931,0.050,-0.067
4932,0.052,-0.079
4933,0.055,-0.079
4934,0.059,-0.079
4935,0.063,-0.079
4936,0.067,-0.085
4937,0.070,-0.085
4938,0.071,-0.085
4939,0.073,-0.085
4940,0.074,-0.090
4941,0.074,-0.090
4942,0.076,-0.090
4943,0.078,-0.090
4944,0.082,-0.097
4945,0.086,-0.097
4946,0.092,-0.097
4947,0.098,-0.097
4948,0.105,-0.093
4949,0.113,-0.093
4950,0.119,-0.093
4951,0.126,-0.093
4952,0.130,-0.079
4953,0.135,-0.079
4954,0.137,-0.079
4955,0.140,-0.079
4956,0.141,-0.064
4957,0.143,-0.064
4958,0.144,-0.064
4959,0.144,-0.064
4960,0.144,-0.044
4961,0.144,-0.044
4962,0.143,-0.044
4963,0.142,-0.044
4964,0.141,-0.024
4965,0.140,-0.024
4966,0.139,-0.024
4967,0.138,-0.024
4968,0.136,0.006
4969,0.135,0.006
4970,0.133,0.006
4971,0.132,0.006
4972,0.131,0.029
4973,0.129,0.029
4974,0.127,0.029
4975,0.124,0.029
4976,0.120,0.052
4977,0.115,0.052
4978,0.110,0.052
4979,0.105,0.052
4980,0.099,0.068
4981,0.094,0.068
4982,0.088,0.068
4983,0.082,0.068
4984,0.078,0.079
4985,0.073,0.079
4986,0.070,0.079
4987,0.066,0.079
4988,0.063,0.082
4989,0.059,0.082
4990,0.056,0.082
4991,0.053,0.082
4992,0.050,0.082
4993,0.046,0.082
4994,0.043,0.082
4995,0.039,0.082
4996,0.035,0.076
4997,0.032,0.076
4998,0.029,0.076
4999,0.027,0.076
5000,0.024,0.068
5001,0.021,0.068
5002,0.019,0.068
5003,0.016,0.068
5004,0.014,0.061
5005,0.011,0.061
5006,0.009,0.061
5007,0.006,0.061
5008,0.003,0.056
5009,-0.001,0.056
5010,-0.005,0.056
5011,-0.009,0.056
5012,-0.012,0.050
5013,-0.016,0.050
5014,-0.018,0.050
5015,-0.019,0.050
5016,-0.019,0.047
5017,-0.018,0.047
5018,-0.016,0.047
5019,-0.013,0.047
5020,-0.010,0.041
5021,-0.007,0.041
5022,-0.005,0.041
5023,-0.004,0.041
5024,-0.004,0.038
5025,-0.004,0.038
5026,-0.004,0.038
5027,-0.004,0.038
5028,-0.004,0.032
5029,-0.004,0.032
5030,-0.003,0.032
5031,-0.002,0.032
5032,-0.001,0.024
5033,0.001,0.024
5034,0.002,0.024
5035,0.004,0.024
5036,0.005,0.018
5037,0.007,0.018
5038,0.009,0.018
5039,0.011,0.018
5040,0.014,0.011
5041,0.016,0.011
5042,0.019,0.011
5043,0.021,0.011
5044,0.023,0.003
5045,0.025,0.003
5046,0.026,0.003
5047,0.026,0.003
5048,0.025,-0.006
5049,0.024,-0.006
5050,0.023,-0.006
5051,0.021,-0.006
5052,0.019,-0.011
5053,0.017,-0.011
5054,0.015,-0.011
5055,0.014,-0.011
5056,0.012,-0.011
5057,0.011,-0.011
5058,0.010,-0.011
5059,0.008,-0.011
5060,0.007,-0.009
5061,0.005,-0.009
5062,0.004,-0.009
5063,0.002,-0.009
5064,-0.000,-0.006
5065,-0.003,-0.006
5066,-0.005,-0.006
5067,-0.008,-0.006
5068,-0.011,0.000
5069,-0.014,0.000
5070,-0.016,0.000
5071,-0.019,0.000
5072,-0.022,0.006
5073,-0.024,0.006
5074,-0.026,0.006
5075,-0.028,0.006
5076,-0.031,0.011
5077,-0.033,0.011
5078,-0.035,0.011
5079,-0.037,0.011
5080,-0.039,0.021
5081,-0.042,0.021
5082,-0.043,0.021
5083,-0.045,0.021
5084,-0.046,0.024
5085,-0.046,0.024
5086,-0.046,0.024
5087,-0.046,0.024
5088,-0.045,0.024
5089,-0.044,0.024
5090,-0.044,0.024
5091,-0.043,0.024
5092,-0.043,0.024
5093,-0.042,0.024
5094,-0.042,0.024
5095,-0.042,0.024
5096,-0.041,0.021
5097,-0.041,0.021
5098,-0.040,0.021
5099,-0.039,0.021
5100,-0.040,0.015
5101,-0.041,0.015
5102,-0.041,0.015
5103,-0.041,0.015
5104,-0.040,0.009
5105,-0.039,0.009
5106,-0.037,0.009
5107,-0.034,0.009
5108,-0.028,0.000
5109,-0.022,0.000
5110,-0.010,0.000
5111,0.002,0.000
5112,0.022,-0.006
5113,0.043,-0.006
5114,0.074,-0.006
5115,0.105,-0.006
5116,0.140,-0.011
5117,0.176,-0.011
5118,0.204,-0.011
5119,0.233,-0.011
5120,0.243,-0.015
5121,0.253,-0.015
5122,0.237,-0.015
5123,0.221,-0.015
5124,0.185,-0.021
5125,0.149,-0.021
5126,0.107,-0.021
5127,0.064,-0.021
5128,0.028,-0.021
5129,-0.008,-0.021
5130,-0.034,-0.021
5131,-0.059,-0.021
5132,-0.076,-0.024
5133,-0.094,-0.024
5134,-0.109,-0.024
5135,-0.125,-0.024
5136,-0.144,-0.024
5137,-0.163,-0.024
5138,-0.184,-0.024
5139,-0.205,-0.024
5140,-0.226,-0.024
5141,-0.247,-0.024
5142,-0.265,-0.024
5143,-0.283,-0.024
5144,-0.297,-0.032
5145,-0.310,-0.032
5146,-0.320,-0.032
5147,-0.329,-0.032
5148,-0.334,-0.035
5149,-0.339,-0.035
5150,-0.337,-0.035
5151,-0.335,-0.035
5152,-0.323,-0.041
5153,-0.312,-0.041
5154,-0.292,-0.041
5155,-0.271,-0.041
5156,-0.243,-0.050
5157,-0.216,-0.050
5158,-0.187,-0.050
5159,-0.157,-0.050
5160,-0.129,-0.050
5161,-0.100,-0.050
5162,-0.076,-0.050
5163,-0.051,-0.050
5164,-0.033,-0.056
5165,-0.015,-0.056
5166,-0.003,-0.056
5167,0.008,-0.056
5168,0.014,-0.050
5169,0.020,-0.050
5170,0.023,-0.050
5171,0.026,-0.050
5172,0.028,-0.050
5173,0.030,-0.050
5174,0.032,-0.050
5175,0.035,-0.050
5176,0.038,-0.044
5177,0.041,-0.044
5178,0.044,-0.044
5179,0.046,-0.044
5180,0.048,-0.029
5181,0.050,-0.029
5182,0.050,-0.029
5183,0.051,-0.029
5184,0.051,-0.024
5185,0.050,-0.024
5186,0.049,-0.024
5187,0.047,-0.024
5188,0.045,-0.009
5189,0.043,-0.009
5190,0.042,-0.009
5191,0.042,-0.009
5192,0.042,0.003
5193,0.042,0.003
5194,0.043,0.003
5195,0.044,0.003
5196,0.044,0.009
5197,0.044,0.009
5198,0.044,0.009
5199,0.044,0.009
5200,0.045,0.011
5201,0.046,0.011
5202,0.047,0.011
5203,0.048,0.011
5204,0.050,0.011
5205,0.052,0.011
5206,0.055,0.011
5207,0.058,0.011
5208,0.061,0.006
5209,0.064,0.006
5210,0.068,0.006
5211,0.071,0.006
5212,0.074,0.000
5213,0.077,0.000
5214,0.080,0.000
5215,0.082,0.000
5216,0.084,-0.009
5217,0.086,-0.009
5218,0.088,-0.009
5219,0.090,-0.009
5220,0.092,-0.021
5221,0.095,-0.021
5222,0.097,-0.021
5223,0.100,-0.021
5224,0.104,-0.032
5225,0.108,-0.032
5226,0.113,-0.032
5227,0.117,-0.032
5228,0.123,-0.038
5229,0.128,-0.038
5230,0.133,-0.038
5231,0.138,-0.038
5232,0.143,-0.041
5233,0.148,-0.041
5234,0.152,-0.041
5235,0.156,-0.041
5236,0.159,-0.038
5237,0.162,-0.038
5238,0.164,-0.038
5239,0.165,-0.038
5240,0.165,-0.029
5241,0.165,-0.029
5242,0.164,-0.029
5243,0.163,-0.029
5244,0.161,-0.015
5245,0.158,-0.015
5246,0.155,-0.015
5247,0.152,-0.015
5248,0.148,0.009
5249,0.144,0.009
5250,0.141,0.009
5251,0.137,0.009
5252,0.134,0.035
5253,0.131,0.035
5254,0.127,0.035
5255,0.123,0.035
5256,0.118,0.059
5257,0.114,0.059
5258,0.109,0.059
5259,0.104,0.059
5260,0.099,0.085
5261,0.095,0.085
5262,0.089,0.085
5263,0.084,0.085
5264,0.078,0.105
5265,0.072,0.105
5266,0.067,0.105
5267,0.061,0.105
5268,0.055,0.123
5269,0.050,0.123
5270,0.045,0.123
5271,0.041,0.123
5272,0.038,0.132
5273,0.035,0.132
5274,0.032,0.132
5275,0.030,0.132
5276,0.027,0.138
5277,0.025,0.138
5278,0.023,0.138
5279,0.020,0.138
5280,0.019,0.132
5281,0.018,0.132
5282,0.016,0.132
5283,0.015,0.132
5284,0.012,0.123
5285,0.010,0.123
5286,0.009,0.123
5287,0.007,0.123
5288,0.006,0.108
5289,0.006,0.108
5290,0.006,0.108
5291,0.006,0.108
5292,0.007,0.091
5293,0.008,0.091
5294,0.008,0.091
5295,0.009,0.091
5296,0.009,0.073
5297,0.008,0.073
5298,0.008,0.073
5299,0.007,0.073
5300,0.006,0.059
5301,0.005,0.059
5302,0.005,0.059
5303,0.004,0.059
5304,0.005,0.050
5305,0.006,0.050
5306,0.008,0.050
5307,0.010,0.050
5308,0.013,0.047
5309,0.016,0.047
5310,0.019,0.047
5311,0.021,0.047
5312,0.022,0.041
5313,0.022,0.041
5314,0.020,0.041
5315,0.018,0.041
5316,0.014,0.038
5317,0.010,0.038
5318,0.007,0.038
5319,0.004,0.038
5320,0.003,0.038
5321,0.002,0.038
5322,0.003,0.038
5323,0.005,0.038
5324,0.008,0.038
5325,0.010,0.038
5326,0.013,0.038
5327,0.015,0.038
5328,0.017,0.035
5329,0.019,0.035
5330,0.020,0.035
5331,0.021,0.035
5332,0.022,0.026
5333,0.024,0.026
5334,0.025,0.026
5335,0.027,0.026
5336,0.028,0.018
5337,0.028,0.018
5338,0.027,0.018
5339,0.025,0.018
5340,0.022,0.009
5341,0.018,0.009
5342,0.012,0.009
5343,0.006,0.009
5344,-0.000,0.000
5345,-0.006,0.000
5346,-0.011,0.000
5347,-0.015,0.000
5348,-0.018,-0.009
5349,-0.020,-0.009
5350,-0.022,-0.009
5351,-0.023,-0.009
5352,-0.025,-0.018
5353,-0.026,-0.018
5354,-0.028,-0.018
5355,-0.030,-0.018
5356,-0.032,-0.023
5357,-0.035,-0.023
5358,-0.037,-0.023
5359,-0.038,-0.023
5360,-0.039,-0.023
5361,-0.040,-0.023
5362,-0.039,-0.023
5363,-0.038,-0.023
5364,-0.036,-0.018
5365,-0.034,-0.018
5366,-0.032,-0.018
5367,-0.030,-0.018
5368,-0.029,-0.018
5369,-0.028,-0.018
5370,-0.028,-0.018
5371,-0.027,-0.018
5372,-0.027,-0.009
5373,-0.027,-0.009
5374,-0.027,-0.009
5375,-0.027,-0.009
5376,-0.027,-0.003
5377,-0.028,-0.003
5378,-0.029,-0.003
5379,-0.030,-0.003
5380,-0.033,0.000
5381,-0.035,0.000
5382,-0.038,0.000
5383,-0.041,0.000
5384,-0.042,0.000
5385,-0.043,0.000
5386,-0.039,0.000
5387,-0.036,0.000
5388,-0.025,-0.003
5389,-0.014,-0.003
5390,0.008,-0.003
5391,0.029,-0.003
5392,0.062,-0.009
5393,0.095,-0.009
5394,0.134,-0.009
5395,0.173,-0.009
5396,0.207,-0.011
5397,0.240,-0.011
5398,0.255,-0.011
5399,0.270,-0.011
5400,0.258,-0.020
5401,0.247,-0.020
5402,0.212,-0.020
5403,0.177,-0.020
5404,0.132,-0.023
5405,0.086,-0.023
5406,0.045,-0.023
5407,0.003,-0.023
5408,-0.026,-0.032
5409,-0.055,-0.032
5410,-0.072,-0.032
5411,-0.089,-0.032
5412,-0.101,-0.041
5413,-0.114,-0.041
5414,-0.129,-0.041
5415,-0.144,-0.041
5416,-0.165,-0.046
5417,-0.186,-0.046
5418,-0.208,-0.046
5419,-0.230,-0.046
5420,-0.251,-0.052
5421,-0.272,-0.052
5422,-0.290,-0.052
5423,-0.307,-0.052
5424,-0.319,-0.064
5425,-0.332,-0.064
5426,-0.338,-0.064
5427,-0.345,-0.064
5428,-0.344,-0.067
5429,-0.343,-0.067
5430,-0.333,-0.067
5431,-0.323,-0.067
5432,-0.302,-0.073
5433,-0.282,-0.073
5434,-0.252,-0.073
5435,-0.223,-0.073
5436,-0.190,-0.079
5437,-0.157,-0.079
5438,-0.126,-0.079
5439,-0.095,-0.079
5440,-0.071,-0.082
5441,-0.047,-0.082
5442,-0.031,-0.082
5443,-0.015,-0.082
5444,-0.004,-0.082
5445,0.006,-0.082
5446,0.012,-0.082
5447,0.018,-0.082
5448,0.022,-0.082
5449,0.026,-0.082
5450,0.029,-0.082
5451,0.031,-0.082
5452,0.033,-0.085
5453,0.034,-0.085
5454,0.036,-0.085
5455,0.037,-0.085
5456,0.038,-0.082
5457,0.039,-0.082
5458,0.042,-0.082
5459,0.045,-0.082
5460,0.049,-0.079
5461,0.052,-0.079
5462,0.056,-0.079
5463,0.060,-0.079
5464,0.062,-0.079
5465,0.063,-0.079
5466,0.064,-0.079
5467,0.064,-0.079
5468,0.064,-0.073
5469,0.063,-0.073
5470,0.064,-0.073
5471,0.064,-0.073
5472,0.065,-0.070
5473,0.067,-0.070
5474,0.068,-0.070
5475,0.069,-0.070
5476,0.070,-0.073
5477,0.071,-0.073
5478,0.071,-0.073
5479,0.072,-0.073
5480,0.072,-0.070
5481,0.073,-0.070
5482,0.073,-0.070
5483,0.074,-0.070
5484,0.074,-0.070
5485,0.074,-0.070
5486,0.074,-0.070
5487,0.074,-0.070
5488,0.074,-0.076
5489,0.074,-0.076
5490,0.074,-0.076
5491,0.074,-0.076
5492,0.074,-0.079
5493,0.074,-0.079
5494,0.074,-0.079
5495,0.074,-0.079
5496,0.075,-0.082
5497,0.076,-0.082
5498,0.079,-0.082
5499,0.082,-0.082
5500,0.087,-0.087
5501,0.091,-0.087
5502,0.097,-0.087
5503,0.102,-0.087
5504,0.109,-0.093
5505,0.116,-0.093
5506,0.123,-0.093
5507,0.130,-0.093
5508,0.137,-0.087
5509,0.143,-0.087
5510,0.149,-0.087
5511,0.154,-0.087
5512,0.158,-0.079
5513,0.162,-0.079
5514,0.165,-0.079
5515,0.168,-0.079
5516,0.170,-0.067
5517,0.171,-0.067
5518,0.172,-0.067
5519,0.172,-0.067
5520,0.170,-0.046
5521,0.169,-0.046
5522,0.166,-0.046
5523,0.163,-0.046
5524,0.159,-0.024
5525,0.155,-0.024
5526,0.151,-0.024
5527,0.147,-0.024
5528,0.144,0.006
5529,0.140,0.006
5530,0.137,0.006
5531,0.135,0.006
5532,0.133,0.044
5533,0.130,0.044
5534,0.128,0.044
5535,0.125,0.044
5536,0.122,0.079
5537,0.118,0.079
5538,0.114,0.079
5539,0.110,0.079
5540,0.105,0.108
5541,0.100,0.108
5542,0.096,0.108
5543,0.091,0.108
5544,0.086,0.138
5545,0.082,0.138
5546,0.078,0.138
5547,0.074,0.138
5548,0.071,0.161
5549,0.068,0.161
5550,0.064,0.161
5551,0.061,0.161
5552,0.056,0.170
5553,0.051,0.170
5554,0.046,0.170
5555,0.041,0.170
5556,0.037,0.172
5557,0.033,0.172
5558,0.030,0.172
5559,0.027,0.172
5560,0.025,0.164
5561,0.024,0.164
5562,0.023,0.164
5563,0.023,0.164
5564,0.022,0.146
5565,0.022,0.146
5566,0.021,0.146
5567,0.020,0.146
5568,0.018,0.129
5569,0.016,0.129
5570,0.014,0.129
5571,0.012,0.129
5572,0.010,0.102
5573,0.008,0.102
5574,0.006,0.102
5575,0.004,0.102
5576,0.003,0.076
5577,0.002,0.076
5578,0.002,0.076
5579,0.003,0.076
5580,0.004,0.052
5581,0.006,0.052
5582,0.008,0.052
5583,0.009,0.052
5584,0.011,0.032
5585,0.012,0.032
5586,0.013,0.032
5587,0.014,0.032
5588,0.015,0.021
5589,0.016,0.021
5590,0.016,0.021
5591,0.017,0.021
5592,0.017,0.011
5593,0.017,0.011
5594,0.016,0.011
5595,0.015,0.011
5596,0.014,0.009
5597,0.014,0.009
5598,0.014,0.009
5599,0.014,0.009
5600,0.016,0.015
5601,0.018,0.015
5602,0.022,0.015
5603,0.025,0.015
5604,0.027,0.018
5605,0.030,0.018
5606,0.031,0.018
5607,0.032,0.018
5608,0.032,0.024
5609,0.032,0.024
5610,0.032,0.024
5611,0.032,0.024
5612,0.032,0.032
5613,0.033,0.032
5614,0.033,0.032
5615,0.033,0.032
5616,0.031,0.032
5617,0.030,0.032
5618,0.027,0.032
5619,0.024,0.032
5620,0.019,0.038
5621,0.014,0.038
5622,0.008,0.038
5623,0.003,0.038
5624,-0.002,0.038
5625,-0.007,0.038
5626,-0.010,0.038
5627,-0.012,0.038
5628,-0.014,0.038
5629,-0.015,0.038
5630,-0.015,0.038
5631,-0.015,0.038
5632,-0.015,0.035
5633,-0.016,0.035
5634,-0.016,0.035
5635,-0.016,0.035
5636,-0.017,0.032
5637,-0.017,0.032
5638,-0.018,0.032
5639,-0.018,0.032
5640,-0.018,0.029
5641,-0.019,0.029
5642,-0.019,0.029
5643,-0.020,0.029
5644,-0.020,0.024
5645,-0.020,0.024
5646,-0.020,0.024
5647,-0.020,0.024
5648,-0.019,0.018
5649,-0.019,0.018
5650,-0.019,0.018
5651,-0.019,0.018
5652,-0.020,0.011
5653,-0.021,0.011
5654,-0.024,0.011
5655,-0.026,0.011
5656,-0.029,0.006
5657,-0.032,0.006
5658,-0.035,0.006
5659,-0.038,0.006
5660,-0.041,0.000
5661,-0.043,0.000
5662,-0.044,0.000
5663,-0.044,0.000
5664,-0.041,-0.009
5665,-0.038,-0.009
5666,-0.029,-0.009
5667,-0.020,-0.009
5668,-0.002,-0.018
5669,0.017,-0.018
5670,0.045,-0.018
5671,0.073,-0.018
5672,0.109,-0.029
5673,0.145,-0.029
5674,0.178,-0.029
5675,0.212,-0.029
5676,0.232,-0.041
5677,0.252,-0.041
5678,0.249,-0.041
5679,0.246,-0.041
5680,0.220,-0.046
5681,0.193,-0.046
5682,0.152,-0.046
5683,0.112,-0.046
5684,0.070,-0.059
5685,0.029,-0.059
5686,-0.003,-0.059
5687,-0.034,-0.059
5688,-0.055,-0.070
5689,-0.076,-0.070
5690,-0.090,-0.070
5691,-0.105,-0.070
5692,-0.120,-0.076
5693,-0.134,-0.076
5694,-0.152,-0.076
5695,-0.169,-0.076
5696,-0.189,-0.085
5697,-0.209,-0.085
5698,-0.229,-0.085
5699,-0.248,-0.085
5700,-0.265,-0.097
5701,-0.281,-0.097
5702,-0.294,-0.097
5703,-0.307,-0.097
5704,-0.316,-0.100
5705,-0.325,-0.100
5706,-0.328,-0.100
5707,-0.332,-0.100
5708,-0.327,-0.111
5709,-0.322,-0.111
5710,-0.306,-0.111
5711,-0.290,-0.111
5712,-0.264,-0.117
5713,-0.237,-0.117
5714,-0.205,-0.117
5715,-0.173,-0.117
5716,-0.140,-0.126
5717,-0.107,-0.126
5718,-0.078,-0.126
5719,-0.049,-0.126
5720,-0.028,-0.132
5721,-0.006,-0.132
5722,0.008,-0.132
5723,0.022,-0.132
5724,0.030,-0.143
5725,0.037,-0.143
5726,0.040,-0.143
5727,0.043,-0.143
5728,0.045,-0.152
5729,0.047,-0.152
5730,0.048,-0.152
5731,0.049,-0.152
5732,0.050,-0.158
5733,0.051,-0.158
5734,0.051,-0.158
5735,0.051,-0.158
5736,0.050,-0.167
5737,0.049,-0.167
5738,0.049,-0.167
5739,0.049,-0.167
5740,0.050,-0.170
5741,0.051,-0.170
5742,0.053,-0.170
5743,0.056,-0.170
5744,0.059,-0.172
5745,0.062,-0.172
5746,0.064,-0.172
5747,0.067,-0.172
5748,0.069,-0.172
5749,0.071,-0.172
5750,0.071,-0.172
5751,0.072,-0.172
5752,0.072,-0.170
5753,0.072,-0.170
5754,0.071,-0.170
5755,0.070,-0.170
5756,0.069,-0.161
5757,0.068,-0.161
5758,0.068,-0.161
5759,0.069,-0.161
5760,0.069,-0.152
5761,0.070,-0.152
5762,0.072,-0.152
5763,0.074,-0.152
5764,0.078,-0.140
5765,0.082,-0.140
5766,0.086,-0.140
5767,0.090,-0.140
5768,0.095,-0.129
5769,0.099,-0.129
5770,0.103,-0.129
5771,0.107,-0.129
5772,0.110,-0.108
5773,0.114,-0.108
5774,0.116,-0.108
5775,0.118,-0.108
5776,0.121,-0.093
5777,0.123,-0.093
5778,0.124,-0.093
5779,0.126,-0.093
5780,0.127,-0.076
5781,0.128,-0.076
5782,0.129,-0.076
5783,0.130,-0.076
5784,0.132,-0.061
5785,0.135,-0.061
5786,0.138,-0.061
5787,0.142,-0.061
5788,0.148,-0.038
5789,0.153,-0.038
5790,0.158,-0.038
5791,0.164,-0.038
5792,0.168,-0.024
5793,0.173,-0.024
5794,0.175,-0.024
5795,0.177,-0.024
5796,0.178,-0.006
5797,0.178,-0.006
5798,0.177,-0.006
5799,0.177,-0.006
5800,0.175,0.011
5801,0.174,0.011
5802,0.173,0.011
5803,0.171,0.011
5804,0.169,0.029
5805,0.167,0.029
5806,0.164,0.029
5807,0.161,0.029
5808,0.158,0.052
5809,0.155,0.052
5810,0.152,0.052
5811,0.149,0.052
5812,0.147,0.068
5813,0.144,0.068
5814,0.141,0.068
5815,0.138,0.068
5816,0.134,0.087
5817,0.131,0.087
5818,0.127,0.087
5819,0.123,0.087
5820,0.117,0.108
5821,0.112,0.108
5822,0.105,0.108
5823,0.099,0.108
5824,0.092,0.126
5825,0.086,0.126
5826,0.079,0.126
5827,0.072,0.126
5828,0.065,0.146
5829,0.059,0.146
5830,0.054,0.146
5831,0.049,0.146
5832,0.045,0.164
5833,0.042,0.164
5834,0.038,0.164
5835,0.035,0.164
5836,0.033,0.181
5837,0.031,0.181
5838,0.028,0.181
5839,0.025,0.181
5840,0.023,0.196
5841,0.020,0.196
5842,0.017,0.196
5843,0.015,0.196
5844,0.014,0.213
5845,0.013,0.213
5846,0.014,0.213
5847,0.015,0.213
5848,0.016,0.222
5849,0.017,0.222
5850,0.017,0.222
5851,0.017,0.222
5852,0.016,0.231
5853,0.016,0.231
5854,0.016,0.231
5855,0.016,0.231
5856,0.017,0.236
5857,0.018,0.236
5858,0.019,0.236
5859,0.021,0.236
5860,0.022,0.236
5861,0.024,0.236
5862,0.025,0.236
5863,0.026,0.236
5864,0.026,0.228
5865,0.025,0.228
5866,0.024,0.228
5867,0.023,0.228
5868,0.022,0.216
5869,0.020,0.216
5870,0.017,0.216
5871,0.015,0.216
5872,0.013,0.202
5873,0.011,0.202
5874,0.011,0.202
5875,0.012,0.202
5876,0.015,0.178
5877,0.017,0.178
5878,0.021,0.178
5879,0.025,0.178
5880,0.030,0.155
5881,0.034,0.155
5882,0.037,0.155
5883,0.041,0.155
5884,0.042,0.126
5885,0.043,0.126
5886,0.042,0.126
5887,0.042,0.126
5888,0.039,0.093
5889,0.037,0.093
5890,0.034,0.093
5891,0.031,0.093
5892,0.028,0.059
5893,0.025,0.059
5894,0.022,0.059
5895,0.019,0.059
5896,0.017,0.026
5897,0.015,0.026
5898,0.012,0.026
5899,0.010,0.026
5900,0.008,0.000
5901,0.007,0.000
5902,0.005,0.000
5903,0.003,0.000
5904,0.001,-0.032
5905,-0.001,-0.032
5906,-0.003,-0.032
5907,-0.005,-0.032
5908,-0.006,-0.061
5909,-0.008,-0.061
5910,-0.009,-0.061
5911,-0.010,-0.061
5912,-0.010,-0.082
5913,-0.010,-0.082
5914,-0.011,-0.082
5915,-0.012,-0.082
5916,-0.014,-0.102
5917,-0.016,-0.102
5918,-0.018,-0.102
5919,-0.020,-0.102
5920,-0.022,-0.117
5921,-0.024,-0.117
5922,-0.026,-0.117
5923,-0.028,-0.117
5924,-0.029,-0.126
5925,-0.030,-0.126
5926,-0.030,-0.126
5927,-0.029,-0.126
5928,-0.028,-0.126
5929,-0.026,-0.126
5930,-0.024,-0.126
5931,-0.022,-0.126
5932,-0.020,-0.122
5933,-0.019,-0.122
5934,-0.018,-0.122
5935,-0.017,-0.122
5936,-0.016,-0.117
5937,-0.015,-0.117
5938,-0.014,-0.117
5939,-0.012,-0.117
5940,-0.009,-0.105
5941,-0.005,-0.105
5942,0.001,-0.105
5943,0.008,-0.105
5944,0.019,-0.090
5945,0.031,-0.090
5946,0.050,-0.090
5947,0.068,-0.090
5948,0.095,-0.079
5949,0.122,-0.079
5950,0.155,-0.079
5951,0.187,-0.079
5952,0.216,-0.076
5953,0.244,-0.076
5954,0.257,-0.076
5955,0.270,-0.076
5956,0.258,-0.070
5957,0.246,-0.070
5958,0.213,-0.070
5959,0.179,-0.070
5960,0.135,-0.076
5961,0.092,-0.076
5962,0.053,-0.076
5963,0.015,-0.076
5964,-0.010,-0.082
5965,-0.035,-0.082
5966,-0.047,-0.082
5967,-0.058,-0.082
5968,-0.065,-0.093
5969,-0.071,-0.093
5970,-0.080,-0.093
5971,-0.089,-0.093
5972,-0.106,-0.105
5973,-0.123,-0.105
5974,-0.145,-0.105
5975,-0.168,-0.105
5976,-0.192,-0.117
5977,-0.216,-0.117
5978,-0.238,-0.117
5979,-0.259,-0.117
5980,-0.275,-0.126
5981,-0.290,-0.126
5982,-0.300,-0.126
5983,-0.310,-0.126
5984,-0.314,-0.132
5985,-0.318,-0.132
5986,-0.315,-0.132
5987,-0.312,-0.132
5988,-0.302,-0.140
5989,-0.292,-0.140
5990,-0.273,-0.140
5991,-0.255,-0.140
5992,-0.230,-0.140
5993,-0.206,-0.140
5994,-0.179,-0.140
5995,-0.152,-0.140
5996,-0.126,-0.138
5997,-0.100,-0.138
5998,-0.078,-0.138
5999,-0.056,-0.138
6000,-0.039,-0.135
6001,-0.022,-0.135
6002,-0.010,-0.135
6003,0.002,-0.135
6004,0.010,-0.135
6005,0.017,-0.135
6006,0.022,-0.135
6007,0.028,-0.135
6008,0.032,-0.132
6009,0.036,-0.132
6010,0.040,-0.132
6011,0.044,-0.132
6012,0.048,-0.129
6013,0.052,-0.129
6014,0.056,-0.129
6015,0.060,-0.129
6016,0.063,-0.161
6017,0.067,-0.161
6018,0.069,-0.161
6019,0.072,-0.161
6020,0.073,-0.152
6021,0.074,-0.152
6022,0.075,-0.152
6023,0.076,-0.152
6024,0.077,-0.143
6025,0.078,-0.143
6026,0.079,-0.143
6027,0.080,-0.143
6028,0.081,-0.129
6029,0.081,-0.129
6030,0.080,-0.129
6031,0.079,-0.129
6032,0.077,-0.108
6033,0.076,-0.108
6034,0.075,-0.108
6035,0.073,-0.108
6036,0.073,-0.087
6037,0.072,-0.087
6038,0.072,-0.087
6039,0.071,-0.087
6040,0.071,-0.064
6041,0.071,-0.064
6042,0.070,-0.064
6043,0.070,-0.064
6044,0.070,-0.041
6045,0.071,-0.041
6046,0.072,-0.041
6047,0.073,-0.041
6048,0.075,-0.024
6049,0.077,-0.024
6050,0.080,-0.024
6051,0.083,-0.024
6052,0.085,-0.005
6053,0.088,-0.005
6054,0.090,-0.005
6055,0.092,-0.005
6056,0.095,0.003
6057,0.097,0.003
6058,0.100,0.003
6059,0.104,0.003
6060,0.109,0.006
6061,0.114,0.006
6062,0.120,0.006
6063,0.125,0.006
6064,0.130,0.003
6065,0.136,0.003
6066,0.140,0.003
6067,0.144,0.003
6068,0.148,-0.005
6069,0.151,-0.005
6070,0.154,-0.005
6071,0.156,-0.005
6072,0.158,-0.021
6073,0.160,-0.021
6074,0.161,-0.021
6075,0.162,-0.021
6076,0.162,-0.038
6077,0.162,-0.038
6078,0.161,-0.038
6079,0.161,-0.038
6080,0.159,-0.052
6081,0.158,-0.052
6082,0.156,-0.052
6083,0.153,-0.052
6084,0.150,-0.070
6085,0.148,-0.070
6086,0.144,-0.070
6087,0.140,-0.070
6088,0.136,-0.082
6089,0.132,-0.082
6090,0.128,-0.082
6091,0.125,-0.082
6092,0.121,-0.093
6093,0.117,-0.093
6094,0.113,-0.093
6095,0.109,-0.093
6096,0.105,-0.102
6097,0.101,-0.102
6098,0.098,-0.102
6099,0.095,-0.102
6100,0.092,-0.108
6101,0.090,-0.108
6102,0.087,-0.108
6103,0.083,-0.108
6104,0.078,-0.111
6105,0.073,-0.111
6106,0.067,-0.111
6107,0.060,-0.111
6108,0.054,-0.114
6109,0.047,-0.114
6110,0.041,-0.114
6111,0.036,-0.114
6112,0.032,-0.117
6113,0.029,-0.117
6114,0.027,-0.117
6115,0.025,-0.117
6116,0.024,-0.119
6117,0.022,-0.119
6118,0.022,-0.119
6119,0.021,-0.119
6120,0.021,-0.119
6121,0.020,-0.119
6122,0.021,-0.119
6123,0.022,-0.119
6124,0.023,-0.129
6125,0.024,-0.129
6126,0.024,-0.129
6127,0.024,-0.129
6128,0.023,-0.129
6129,0.022,-0.129
6130,0.020,-0.129
6131,0.018,-0.129
6132,0.015,-0.137
6133,0.013,-0.137
6134,0.012,-0.137
6135,0.011,-0.137
6136,0.011,-0.143
6137,0.011,-0.143
6138,0.012,-0.143
6139,0.012,-0.143
6140,0.014,-0.154
6141,0.015,-0.154
6142,0.016,-0.154
6143,0.018,-0.154
6144,0.018,-0.161
6145,0.019,-0.161
6146,0.019,-0.161
6147,0.019,-0.161
6148,0.020,-0.167
6149,0.021,-0.167
6150,0.022,-0.167
6151,0.023,-0.167
6152,0.025,-0.175
6153,0.028,-0.175
6154,0.030,-0.175
6155,0.033,-0.175
6156,0.035,-0.178
6157,0.037,-0.178
6158,0.038,-0.178
6159,0.039,-0.178
6160,0.038,-0.184
6161,0.038,-0.184
6162,0.036,-0.184
6163,0.035,-0.184
6164,0.032,-0.187
6165,0.030,-0.187
6166,0.029,-0.187
6167,0.028,-0.187
6168,0.027,-0.190
6169,0.027,-0.190
6170,0.026,-0.190
6171,0.025,-0.190
6172,0.023,-0.190
6173,0.022,-0.190
6174,0.018,-0.190
6175,0.015,-0.190
6176,0.010,-0.193
6177,0.006,-0.193
6178,0.001,-0.193
6179,-0.004,-0.193
6180,-0.007,-0.190
6181,-0.010,-0.190
6182,-0.012,-0.190
6183,-0.014,-0.190
6184,-0.015,-0.187
6185,-0.016,-0.187
6186,-0.017,-0.187
6187,-0.018,-0.187
6188,-0.018,-0.190
6189,-0.019,-0.190
6190,-0.019,-0.190
6191,-0.018,-0.190
6192,-0.017,-0.190
6193,-0.015,-0.190
6194,-0.013,-0.190
6195,-0.010,-0.190
6196,-0.008,-0.187
6197,-0.006,-0.187
6198,-0.005,-0.187
6199,-0.004,-0.187
6200,-0.004,-0.187
6201,-0.005,-0.187
6202,-0.006,-0.187
6203,-0.008,-0.187
6204,-0.010,-0.181
6205,-0.012,-0.181
6206,-0.015,-0.181
6207,-0.017,-0.181
6208,-0.019,-0.178
6209,-0.021,-0.178
6210,-0.024,-0.178
6211,-0.026,-0.178
6212,-0.028,-0.172
6213,-0.029,-0.172
6214,-0.030,-0.172
6215,-0.030,-0.172
6216,-0.029,-0.164
6217,-0.027,-0.164
6218,-0.023,-0.164
6219,-0.018,-0.164
6220,-0.009,-0.161
6221,0.001,-0.161
6222,0.018,-0.161
6223,0.035,-0.161
6224,0.061,-0.154
6225,0.087,-0.154
6226,0.121,-0.154
6227,0.155,-0.154
6228,0.190,-0.143
6229,0.224,-0.143
6230,0.249,-0.143
6231,0.274,-0.143
6232,0.278,-0.140
6233,0.282,-0.140
6234,0.263,-0.140
6235,0.244,-0.140
6236,0.208,-0.132
6237,0.173,-0.132
6238,0.134,-0.132
6239,0.094,-0.132
6240,0.061,-0.129
6241,0.029,-0.129
6242,0.007,-0.129
6243,-0.015,-0.129
6244,-0.030,-0.129
6245,-0.045,-0.129
6246,-0.059,-0.129
6247,-0.073,-0.129
6248,-0.092,-0.129
6249,-0.110,-0.129
6250,-0.132,-0.129
6251,-0.154,-0.129
6252,-0.177,-0.126
6253,-0.200,-0.126
6254,-0.220,-0.126
6255,-0.240,-0.126
6256,-0.255,-0.129
6257,-0.270,-0.129
6258,-0.279,-0.129
6259,-0.289,-0.129
6260,-0.293,-0.129
6261,-0.297,-0.129
6262,-0.294,-0.129
6263,-0.290,-0.129
6264,-0.279,-0.132
6265,-0.267,-0.132
6266,-0.246,-0.132
6267,-0.226,-0.132
6268,-0.200,-0.135
6269,-0.174,-0.135
6270,-0.147,-0.135
6271,-0.120,-0.135
6272,-0.096,-0.140
6273,-0.073,-0.140
6274,-0.054,-0.140
6275,-0.034,-0.140
6276,-0.020,-0.149
6277,-0.006,-0.149
6278,0.004,-0.149
6279,0.014,-0.149
6280,0.021,-0.154
6281,0.029,-0.154
6282,0.033,-0.154
6283,0.038,-0.154
6284,0.041,-0.161
6285,0.043,-0.161
6286,0.044,-0.161
6287,0.046,-0.161
6288,0.047,-0.170
6289,0.048,-0.170
6290,0.049,-0.170
6291,0.051,-0.170
6292,0.053,-0.172
6293,0.056,-0.172
6294,0.058,-0.172
6295,0.060,-0.172
6296,0.062,-0.175
6297,0.064,-0.175
6298,0.066,-0.175
6299,0.067,-0.175
6300,0.068,-0.178
6301,0.069,-0.178
6302,0.069,-0.178
6303,0.070,-0.178
6304,0.069,-0.178
6305,0.068,-0.178
6306,0.067,-0.178
6307,0.066,-0.178
6308,0.066,-0.178
6309,0.065,-0.178
6310,0.067,-0.178
6311,0.068,-0.178
6312,0.070,-0.178
6313,0.071,-0.178
6314,0.072,-0.178
6315,0.074,-0.178
6316,0.074,-0.175
6317,0.074,-0.175
6318,0.073,-0.175
6319,0.072,-0.175
6320,0.072,-0.170
6321,0.072,-0.170
6322,0.074,-0.170
6323,0.076,-0.170
6324,0.079,-0.164
6325,0.083,-0.164
6326,0.087,-0.164
6327,0.091,-0.164
6328,0.094,-0.161
6329,0.097,-0.161
6330,0.099,-0.161
6331,0.100,-0.161
6332,0.102,-0.158
6333,0.103,-0.158
6334,0.104,-0.158
6335,0.105,-0.158
6336,0.107,-0.149
6337,0.109,-0.149
6338,0.112,-0.149
6339,0.115,-0.149
6340,0.119,-0.143
6341,0.123,-0.143
6342,0.126,-0.143
6343,0.129,-0.143
6344,0.131,-0.140
6345,0.133,-0.140
6346,0.135,-0.140
6347,0.136,-0.140
6348,0.137,-0.126
6349,0.138,-0.126
6350,0.138,-0.126
6351,0.139,-0.126
6352,0.138,-0.117
6353,0.138,-0.117
6354,0.137,-0.117
6355,0.137,-0.117
6356,0.136,-0.099
6357,0.135,-0.099
6358,0.134,-0.099
6359,0.134,-0.099
6360,0.133,-0.085
6361,0.132,-0.085
6362,0.130,-0.085
6363,0.128,-0.085
6364,0.125,-0.073
6365,0.122,-0.073
6366,0.119,-0.073
6367,0.116,-0.073
6368,0.113,-0.056
6369,0.109,-0.056
6370,0.105,-0.056
6371,0.102,-0.056
6372,0.097,-0.041
6373,0.093,-0.041
6374,0.088,-0.041
6375,0.082,-0.041
6376,0.076,-0.029
6377,0.071,-0.029
6378,0.065,-0.029
6379,0.060,-0.029
6380,0.056,-0.021
6381,0.051,-0.021
6382,0.048,-0.021
6383,0.044,-0.021
6384,0.040,-0.009
6385,0.036,-0.009
6386,0.033,-0.009
6387,0.030,-0.009
6388,0.027,0.000
6389,0.024,0.000
6390,0.022,0.000
6391,0.020,0.000
6392,0.018,0.003
6393,0.017,0.003
6394,0.016,0.003
6395,0.015,0.003
6396,0.016,0.006
6397,0.017,0.006
6398,0.019,0.006
6399,0.021,0.006
6400,0.023,0.009
6401,0.025,0.009
6402,0.027,0.009
6403,0.028,0.009
6404,0.026,0.009
6405,0.024,0.009
6406,0.022,0.009
6407,0.019,0.009
6408,0.017,0.006
6409,0.015,0.006
6410,0.014,0.006
6411,0.014,0.006
6412,0.014,0.003
6413,0.015,0.003
6414,0.015,0.003
6415,0.016,0.003
6416,0.016,-0.005
6417,0.016,-0.005
6418,0.016,-0.005
6419,0.015,-0.005
6420,0.014,-0.015
6421,0.012,-0.015
6422,0.011,-0.015
6423,0.009,-0.015
6424,0.008,-0.021
6425,0.008,-0.021
6426,0.009,-0.021
6427,0.009,-0.021
6428,0.011,-0.032
6429,0.012,-0.032
6430,0.014,-0.032
6431,0.016,-0.032
6432,0.017,-0.041
6433,0.019,-0.041
6434,0.020,-0.041
6435,0.021,-0.041
6436,0.021,-0.050
6437,0.022,-0.050
6438,0.023,-0.050
6439,0.024,-0.050
6440,0.026,-0.056
6441,0.027,-0.056
6442,0.028,-0.056
6443,0.028,-0.056
6444,0.027,-0.061
6445,0.026,-0.061
6446,0.023,-0.061
6447,0.021,-0.061
6448,0.018,-0.064
6449,0.015,-0.064
6450,0.012,-0.064
6451,0.009,-0.064
6452,0.007,-0.067
6453,0.005,-0.067
6454,0.003,-0.067
6455,0.001,-0.067
6456,-0.002,-0.076
6457,-0.004,-0.076
6458,-0.006,-0.076
6459,-0.008,-0.076
6460,-0.011,-0.079
6461,-0.013,-0.079
6462,-0.014,-0.079
6463,-0.015,-0.079
6464,-0.015,-0.082
6465,-0.015,-0.082
6466,-0.014,-0.082
6467,-0.014,-0.082
6468,-0.012,-0.082
6469,-0.011,-0.082
6470,-0.010,-0.082
6471,-0.010,-0.082
6472,-0.010,-0.090
6473,-0.010,-0.090
6474,-0.011,-0.090
6475,-0.011,-0.090
6476,-0.012,-0.093
6477,-0.012,-0.093
6478,-0.013,-0.093
6479,-0.014,-0.093
6480,-0.015,-0.093
6481,-0.016,-0.093
6482,-0.017,-0.093
6483,-0.019,-0.093
6484,-0.021,-0.093
6485,-0.024,-0.093
6486,-0.027,-0.093
6487,-0.029,-0.093
6488,-0.031,-0.093
6489,-0.033,-0.093
6490,-0.032,-0.093
6491,-0.032,-0.093
6492,-0.030,-0.093
6493,-0.028,-0.093
6494,-0.023,-0.093
6495,-0.018,-0.093
6496,-0.009,-0.093
6497,0.001,-0.093
6498,0.017,-0.093
6499,0.033,-0.093
6500,0.059,-0.093
6501,0.085,-0.093
6502,0.117,-0.093
6503,0.150,-0.093
6504,0.180,-0.097
6505,0.210,-0.097
6506,0.229,-0.097
6507,0.247,-0.097
6508,0.245,-0.093
6509,0.243,-0.093
6510,0.221,-0.093
6511,0.199,-0.093
6512,0.165,-0.097
6513,0.131,-0.097
6514,0.098,-0.097
6515,0.064,-0.097
6516,0.038,-0.099
6517,0.012,-0.099
6518,-0.005,-0.099
6519,-0.023,-0.099
6520,-0.038,-0.105
6521,-0.052,-0.105
6522,-0.069,-0.105
6523,-0.085,-0.105
6524,-0.105,-0.108
6525,-0.125,-0.108
6526,-0.147,-0.108
6527,-0.169,-0.108
6528,-0.191,-0.108
6529,-0.212,-0.108
6530,-0.230,-0.108
6531,-0.249,-0.108
6532,-0.262,-0.108
6533,-0.276,-0.108
6534,-0.283,-0.108
6535,-0.291,-0.108
6536,-0.290,-0.108
6537,-0.289,-0.108
6538,-0.278,-0.108
6539,-0.267,-0.108
6540,-0.246,-0.102
6541,-0.225,-0.102
6542,-0.198,-0.102
6543,-0.171,-0.102
6544,-0.143,-0.102
6545,-0.115,-0.102
6546,-0.091,-0.102
6547,-0.067,-0.102
6548,-0.049,-0.097
6549,-0.031,-0.097
6550,-0.019,-0.097
6551,-0.006,-0.097
6552,0.002,-0.099
6553,0.010,-0.099
6554,0.016,-0.099
6555,0.022,-0.099
6556,0.026,-0.093
6557,0.030,-0.093
6558,0.032,-0.093
6559,0.035,-0.093
6560,0.037,-0.102
6561,0.039,-0.102
6562,0.041,-0.102
6563,0.042,-0.102
6564,0.043,-0.102
6565,0.044,-0.102
6566,0.045,-0.102
6567,0.046,-0.102
6568,0.047,-0.111
6569,0.047,-0.111
6570,0.048,-0.111
6571,0.048,-0.111
6572,0.048,-0.119
6573,0.048,-0.119
6574,0.049,-0.119
6575,0.050,-0.119
6576,0.052,-0.126
6577,0.054,-0.126
6578,0.057,-0.126
6579,0.060,-0.126
6580,0.063,-0.132
6581,0.066,-0.132
6582,0.069,-0.132
6583,0.072,-0.132
6584,0.074,-0.135
6585,0.077,-0.135
6586,0.078,-0.135
6587,0.080,-0.135
6588,0.081,-0.135
6589,0.081,-0.135
6590,0.080,-0.135
6591,0.080,-0.135
6592,0.079,-0.132
6593,0.078,-0.132
6594,0.078,-0.132
6595,0.078,-0.132
6596,0.079,-0.119
6597,0.080,-0.119
6598,0.081,-0.119
6599,0.082,-0.119
6600,0.083,-0.117
6601,0.084,-0.117
6602,0.085,-0.117
6603,0.086,-0.117
6604,0.087,-0.111
6605,0.088,-0.111
6606,0.088,-0.111
6607,0.089,-0.111
6608,0.089,-0.099
6609,0.090,-0.099
6610,0.091,-0.099
6611,0.091,-0.099
6612,0.092,-0.090
6613,0.094,-0.090
6614,0.096,-0.090
6615,0.099,-0.090
6616,0.103,-0.087
6617,0.107,-0.087
6618,0.111,-0.087
6619,0.116,-0.087
6620,0.121,-0.079
6621,0.125,-0.079
6622,0.129,-0.079
6623,0.134,-0.079
6624,0.135,-0.070
6625,0.137,-0.070
6626,0.137,-0.070
6627,0.136,-0.070
6628,0.134,-0.059
6629,0.133,-0.059
6630,0.131,-0.059
6631,0.129,-0.059
6632,0.128,-0.046
6633,0.126,-0.046
6634,0.125,-0.046
6635,0.125,-0.046
6636,0.124,-0.029
6637,0.123,-0.029
6638,0.120,-0.029
6639,0.118,-0.029
6640,0.114,-0.015
6641,0.111,-0.015
6642,0.106,-0.015
6643,0.102,-0.015
6644,0.096,0.003
6645,0.091,0.003
6646,0.086,0.003
6647,0.081,0.003
6648,0.076,0.021
6649,0.071,0.021
6650,0.067,0.021
6651,0.063,0.021
6652,0.061,0.038
6653,0.059,0.038
6654,0.058,0.038
6655,0.057,0.038
6656,0.055,0.044
6657,0.054,0.044
6658,0.052,0.044
6659,0.050,0.044
6660,0.047,0.056
6661,0.045,0.056
6662,0.042,0.056
6663,0.038,0.056
6664,0.036,0.059
6665,0.033,0.059
6666,0.031,0.059
6667,0.029,0.059
6668,0.026,0.056
6669,0.023,0.056
6670,0.021,0.056
6671,0.018,0.056
6672,0.015,0.056
6673,0.012,0.056
6674,0.009,0.056
6675,0.007,0.056
6676,0.005,0.047
6677,0.004,0.047
6678,0.005,0.047
6679,0.005,0.047
6680,0.007,0.038
6681,0.008,0.038
6682,0.009,0.038
6683,0.010,0.038
6684,0.010,0.029
6685,0.009,0.029
6686,0.006,0.029
6687,0.003,0.029
6688,-0.000,0.021
6689,-0.004,0.021
6690,-0.006,0.021
6691,-0.008,0.021
6692,-0.009,0.012
6693,-0.010,0.012
6694,-0.010,0.012
6695,-0.009,0.012
6696,-0.007,0.006
6697,-0.006,0.006
6698,-0.004,0.006
6699,-0.003,0.006
6700,-0.001,-0.003
6701,0.001,-0.003
6702,0.003,-0.003
6703,0.005,-0.003
6704,0.008,-0.009
6705,0.011,-0.009
6706,0.015,-0.009
6707,0.018,-0.009
6708,0.022,-0.018
6709,0.025,-0.018
6710,0.027,-0.018
6711,0.028,-0.018
6712,0.028,-0.021
6713,0.027,-0.021
6714,0.025,-0.021
6715,0.024,-0.021
6716,0.023,-0.024
