,0
0,-0.04513069360393135
1,-0.04455224466385299
2,-0.04678103630385974
3,-0.051711157587173
4,-0.05605101458351137
5,-0.05596301539636442
6,-0.05029806593476807
7,-0.04162843981516605
8,-0.03429479714959419
9,-0.03129513114045772
10,-0.03267385325910902
11,-0.0364635628353589
12,-0.04083191819420047
13,-0.045203843623096415
14,-0.04950234066187032
15,-0.0527647763529755
16,-0.05304049478006251
17,-0.049007118961886226
18,-0.041720767411930315
19,-0.03451038259640089
20,-0.03075863108599483
21,-0.03146550600376359
22,-0.03484205390155149
23,-0.03828693843550421
24,-0.04080156603987843
25,-0.04349362682503986
26,-0.0477323791338762
27,-0.05286862635920084
28,-0.055908189930970804
29,-0.053671899255118685
30,-0.04559689014598066
31,-0.034694104743315815
32,-0.02580778301256298
33,-0.022625927668391645
34,-0.025771495971495275
35,-0.03314590756012649
36,-0.04176077349958564
37,-0.04935285749603385
38,-0.05474975223219107
39,-0.05732269258656025
40,-0.056563769937630015
41,-0.052357969904567
42,-0.04556736710977177
43,-0.03813182127125053
44,-0.03236732938350527
45,-0.029942837209877775
46,-0.031305664883194945
47,-0.0358528022916816
48,-0.04244025347277953
49,-0.04963321998653614
50,-0.05561595503922953
51,-0.05830913649502795
52,-0.05619904140837317
53,-0.04954935606222287
54,-0.04086110477233923
55,-0.033693044163657926
56,-0.030352673943496403
57,-0.030314240032052287
58,-0.03100286181482376
59,-0.03058471018036344
60,-0.03028033019857957
61,-0.03367734465647791
62,-0.043077809812146414
63,-0.055986455607497224
64,-0.06539040680604233
65,-0.06447760343125561
66,-0.05227957152987017
67,-0.03530640701916024
68,-0.02328572674333773
69,-0.022200741477122622
70,-0.030345496753839622
71,-0.04059109644749936
72,-0.046637222470524646
73,-0.04764649601071916
74,-0.04742117326311767
75,-0.04946289071055773
76,-0.0529494915855707
77,-0.05347156169304089
78,-0.04761723270167647
79,-0.03682814471250945
80,-0.026798960611939253
81,-0.02302983593889185
82,-0.026674521632743253
83,-0.034277501150065566
84,-0.041172887461152136
85,-0.045075924105268714
86,-0.04672220042008749
87,-0.047624081943828986
88,-0.04774287475408951
89,-0.045541120508014045
90,-0.04013439283428273
91,-0.03306055758015658
92,-0.027677025540258516
93,-0.026683185889329844
94,-0.030127427293685047
95,-0.03569688145132535
96,-0.04082786084528206
97,-0.044540062065592086
98,-0.04740623775250204
99,-0.05002962708360445
100,-0.05178922222634097
101,-0.05115564925178956
102,-0.047210318937954715
103,-0.04084140855695724
104,-0.03449032056147855
105,-0.030724788333962576
106,-0.030882036900933434
107,-0.03472797531555977
108,-0.04100777440124845
109,-0.048081832614945
110,-0.05414127917394353
111,-0.05727684782045607
112,-0.055970574199445795
113,-0.05003033105862356
114,-0.04121372101837726
115,-0.032715701280391946
116,-0.027559418850296325
117,-0.02696603264487865
118,-0.029950779476370218
119,-0.03442832141091831
120,-0.03883478275061984
121,-0.04286866052765398
122,-0.0468220773195848
123,-0.05032591609947894
124,-0.05189313985774034
125,-0.049867816658360715
126,-0.04399801167834669
127,-0.03617023200073881
128,-0.029531519007945713
129,-0.02664155483763107
130,-0.02811708844747045
131,-0.03271906722675898
132,-0.03853547101761805
133,-0.04408305802723757
134,-0.04850619819915695
135,-0.05110761639347209
136,-0.05108097036943461
137,-0.04793447613374446
138,-0.04219925000762275
139,-0.03560379909697986
140,-0.03038795904052611
141,-0.02826123434170861
142,-0.029794308179106773
143,-0.03452785613858408
144,-0.04140698016277339
145,-0.04903839531182662
146,-0.05575009422381091
147,-0.05984481563377893
148,-0.060235769905539895
149,-0.05706866658809712
150,-0.05171103656542718
151,-0.04599013113797952
152,-0.04129125903832149
153,-0.038263482207359166
154,-0.03721367167734809
155,-0.0385085588536684
156,-0.04231869449472796
157,-0.04787000285032277
158,-0.053124788880689944
159,-0.05559853732352693
160,-0.05393852247437528
161,-0.049005859145517826
162,-0.0434562195534334
163,-0.040038229304337966
164,-0.03989586340501676
165,-0.042100863397361556
166,-0.0445699326139125
167,-0.04546194807935823
168,-0.04399139130725632
169,-0.040301999848174466
170,-0.03484870403349008
171,-0.02796474466188796
172,-0.019932615164399328
173,-0.011394152454169295
174,-0.0037008979917531586
175,0.001147729116489942
176,0.0011270319754334034
177,-0.0047959863181693315
178,-0.015788608051101834
179,-0.029121501465471093
180,-0.041300873345229194
181,-0.04981844246318924
182,-0.05428961840305564
183,-0.056018503471589896
184,-0.056265967757935076
185,-0.05470187792043018
186,-0.049498574178185754
187,-0.03911045283945829
188,-0.024200844982666628
189,-0.00794303765665913
190,0.005654106724260516
191,0.01397725065863001
192,0.016759261435387827
193,0.015226159914014305
194,0.010614382460498633
195,0.0036008171515718146
196,-0.005075872586252938
197,-0.013987629335896735
198,-0.021578701953068415
199,-0.027606506643111428
200,-0.03380331319627866
201,-0.04256353704633466
202,-0.05449317520390752
203,-0.06717706435408449
204,-0.07671004445911338
205,-0.08090086037375603
206,-0.08117161134363197
207,-0.0811742010350344
208,-0.08335693269520787
209,-0.08701081843343123
210,-0.09012174882462518
211,-0.09342711292802419
212,-0.10220373522813704
213,-0.12274276283505114
214,-0.15546025996908452
215,-0.19062897877464743
216,-0.2115693710809271
217,-0.20414869582527817
218,-0.16572740779649986
219,-0.10666982257235708
220,-0.04368232853906148
221,0.008785126877278691
222,0.041539830729179224
223,0.046404977794791455
224,0.01089234201372822
225,-0.07986387134159467
226,-0.23175345377804027
227,-0.428371618012529
228,-0.6275710939762912
229,-0.7741718446070784
230,-0.823352750488137
231,-0.7605760467938243
232,-0.605465178156033
233,-0.3978811199006499
234,-0.1762496459639459
235,0.037785241073938214
236,0.24042782195131435
237,0.4353893344842551
238,0.6221388668683221
239,0.7915230371822741
240,0.930169181498637
241,1.028120393320164
242,1.0828362134883105
243,1.0970944952771613
244,1.0739631128152105
245,1.014020775250053
246,0.9171731632487334
247,0.7867592958467923
248,0.6314847404485623
249,0.46285009817049766
250,0.2900559525380372
251,0.1168879411519214
252,-0.056455648056665406
253,-0.22787913802281023
254,-0.3887928795722861
255,-0.5244550515883657
256,-0.6195283351621563
257,-0.6652217075432143
258,-0.6633849830647935
259,-0.6253008071276897
260,-0.5665112266881455
261,-0.5010899343663848
262,-0.438224007168067
263,-0.381832018732902
264,-0.33210269610262405
265,-0.28738998344009065
266,-0.24558522351368534
267,-0.20493586085920495
268,-0.16460391773067803
269,-0.12506317355795704
270,-0.08814866780775671
271,-0.05654822872955717
272,-0.03279958685370714
273,-0.018210303875184058
274,-0.012260795485381407
275,-0.012822554276152278
276,-0.01702410379408234
277,-0.02218523127527283
278,-0.026278031547935277
279,-0.027870968738750015
280,-0.026021426254214584
281,-0.02057066420002491
282,-0.012707920959090884
283,-0.005094836351059862
284,-0.0009664581629765602
285,-0.0024921161032109814
286,-0.009507035837282114
287,-0.01963023064506743
288,-0.029715398119579142
289,-0.037483095587572346
290,-0.04211292892264394
291,-0.043624335626626494
292,-0.04201867783952368
293,-0.03725393984281199
294,-0.0300876861702778
295,-0.02273528196212822
296,-0.018306446717356203
297,-0.019144393491008715
298,-0.025347299107272597
299,-0.034721114080371776
300,-0.04418880900599297
301,-0.05144918325253267
302,-0.05561931003615925
303,-0.05670371069216275
304,-0.05484438133707287
305,-0.05030533017819162
306,-0.0441099637764511
307,-0.03833945897908055
308,-0.035337994855070186
309,-0.03624718830609776
310,-0.040168103788572496
311,-0.04483252097165474
312,-0.04828345947439389
313,-0.050078529260945484
314,-0.05096790226668357
315,-0.05148125420451463
316,-0.050928517535155544
317,-0.04789559506895321
318,-0.041800242956496564
319,-0.03397402013112276
320,-0.027159020001185852
321,-0.02382850587052248
322,-0.02482766981714382
323,-0.029405527812539925
324,-0.03625732240349296
325,-0.04426369342637469
326,-0.05218374267176921
327,-0.057993421917919716
328,-0.05923040880046396
329,-0.054728080964772885
330,-0.04638681998509174
331,-0.03900558559100409
332,-0.03759945492148442
333,-0.043950767302275234
334,-0.05517593397250467
335,-0.06566916945466843
336,-0.07101365585160166
337,-0.07078545632926647
338,-0.068136901357939
339,-0.06678197368586941
340,-0.06807387248587621
341,-0.07050065546430632
342,-0.07162736285584062
343,-0.0704679735020825
344,-0.06823816257472781
345,-0.06718027390923462
346,-0.06884329322511444
347,-0.07331744594294476
348,-0.0796522954903752
349,-0.08654282355043318
350,-0.09250125511419931
351,-0.09577177002969742
352,-0.09481263274203765
353,-0.08949034359817908
354,-0.08194585600641627
355,-0.07587851292332497
356,-0.07428416327384312
357,-0.07732759820485478
358,-0.08226493577834963
359,-0.08566599881976641
360,-0.08607293989183606
361,-0.08474493548275373
362,-0.08387683505868228
363,-0.0840487738772706
364,-0.08337453144432225
365,-0.07915511479154638
366,-0.07042506626136617
367,-0.058968555273006026
368,-0.047936449395739475
369,-0.03951613508174236
370,-0.03386997887597944
371,-0.03007775556509403
372,-0.027705277556486094
373,-0.027094450216027022
374,-0.028048192628778022
375,-0.028552672408635647
376,-0.025387696364232378
377,-0.016591326069790555
378,-0.00364871922330837
379,0.00883220243148727
380,0.016051818597645366
381,0.01625183333058544
382,0.011597282777822224
383,0.006115376831243796
384,0.002633088438412746
385,0.0013306369285163836
386,0.0008266451824644756
387,0.0003487272567251193
388,0.0007342337381144896
389,0.0033665971868908104
390,0.008234382100923202
391,0.013097491603809356
392,0.014620787034726487
393,0.010497485824042495
394,0.0007933884841413866
395,-0.012394437897164153
396,-0.02634943793183996
397,-0.03890299937935226
398,-0.04866346759951494
399,-0.054713374803701545
400,-0.05657681779735675
401,-0.05465829042805308
402,-0.05056240491070113
403,-0.04666401096668046
404,-0.04505061306636842
405,-0.0466409546648246
406,-0.05111915504531997
407,-0.05750231423212654
408,-0.06461247533755819
409,-0.07106488705781558
410,-0.07517916754564108
411,-0.07546969589849253
412,-0.07167232947693045
413,-0.06536831419120226
414,-0.059300044724690755
415,-0.055635950168156104
416,-0.054615538592418626
417,-0.05485776848034716
418,-0.055084555529898174
419,-0.05555442556905592
420,-0.05767758422829982
421,-0.062078623497197255
422,-0.06705873988785373
423,-0.06922175554720233
424,-0.06601022318764334
425,-0.057965969227790515
426,-0.048613191636453154
427,-0.041960124313439796
428,-0.03974727598365812
429,-0.040720759737222334
430,-0.04229427671784469
431,-0.042860986425545866
432,-0.042678723324431414
433,-0.04283094909586646
434,-0.04359679184576096
435,-0.043912259838697905
436,-0.04233094153421129
437,-0.038410956910978025
438,-0.03319483750556888
439,-0.028475040126247766
440,-0.025672985132436918
441,-0.02531185819514565
442,-0.02727193661851378
443,-0.031238700182277188
444,-0.03675897063602483
445,-0.04295106475436998
446,-0.04839641582541298
447,-0.05156765338355084
448,-0.05156986449474185
449,-0.04862206856947962
450,-0.04391509347452101
451,-0.03899189644107877
452,-0.0351141620055639
453,-0.03297568665335976
454,-0.03278139220380606
455,-0.03445209255621659
456,-0.03770372328704229
457,-0.041927089901759695
458,-0.04601724499619446
459,-0.04843191557541203
460,-0.047689446088093876
461,-0.043210670100075343
462,-0.036019721291108274
463,-0.028681376644916153
464,-0.02422952163066484
465,-0.024582395018212938
466,-0.029467535614840924
467,-0.03665113341311309
468,-0.04334022561050249
469,-0.04772992457104431
470,-0.04959145498930502
471,-0.04963913498071667
472,-0.04843605456143671
473,-0.04589084233356758
474,-0.04173168817930547
475,-0.03638478616568211
476,-0.03132993653864692
477,-0.028534817992170766
478,-0.02941309137471715
479,-0.03410679892336777
480,-0.04150687065328572
481,-0.049776640276490564
482,-0.05688477977273162
483,-0.06094234048861323
484,-0.06053417788665576
485,-0.05524058997451119
486,-0.04614888285097919
487,-0.03583868185473238
488,-0.027522782189730397
489,-0.02365314901948662
490,-0.02480707111057245
491,-0.029567574498437967
492,-0.03544584231691511
493,-0.04019206836395474
494,-0.042654937604224105
495,-0.04278919574076977
496,-0.04108537482042143
497,-0.03805769827395282
498,-0.03421816010737765
499,-0.030401925297690605
500,-0.027905345476335233
501,-0.02803440312381971
502,-0.03125185457137426
503,-0.03662776267909641
504,-0.04220241642959861
505,-0.04613850531588948
506,-0.0477807964903294
507,-0.047714373736393284
508,-0.04677053614605592
509,-0.04494913868030491
510,-0.04139654125821829
511,-0.03560158418749505
512,-0.028694439395040124
513,-0.023433256881932263
514,-0.022575125145391617
515,-0.026886396763343555
516,-0.034523303801070035
517,-0.04234863321025565
518,-0.04800366788381109
519,-0.050928815058665186
520,-0.05165275205220811
521,-0.05041024049366401
522,-0.04672911038143267
523,-0.04045973384785352
524,-0.03304457447636497
525,-0.02742441628185855
526,-0.026308262895327054
527,-0.030228283046703122
528,-0.03710688800156532
529,-0.04367426535501073
530,-0.04743325157043733
531,-0.04760051566732833
532,-0.04467646084149598
533,-0.0395925427441185
534,-0.033422239346808706
535,-0.027599798014901405
536,-0.023838072886459803
537,-0.023378458729321882
538,-0.026234609578356296
539,-0.03134596540924575
540,-0.03759488369195439
541,-0.04454979183329452
542,-0.051970105244874235
543,-0.05854877268141134
544,-0.061517483088066566
545,-0.05814781797191349
546,-0.04822564485979822
547,-0.035235703519093574
548,-0.024810097262481994
549,-0.02136220897587276
550,-0.025495844078738915
551,-0.03412462021494613
552,-0.04290390074070472
553,-0.04880262757532344
554,-0.05097761291775446
555,-0.049958412327860385
556,-0.04654734419590427
557,-0.041556401750685215
558,-0.036176427636946784
559,-0.03200611450201864
560,-0.030318750400844963
561,-0.031222603434610738
562,-0.03365495563420935
563,-0.03631115799627007
564,-0.038606747355522886
565,-0.040729855874913935
566,-0.04280678852590374
567,-0.04413737415745052
568,-0.04339335158989423
569,-0.039706518080793965
570,-0.033687890134514634
571,-0.027439625517095556
572,-0.023461318310871553
573,-0.02322125428291833
574,-0.02637868611406701
575,-0.031145426098250033
576,-0.03550248464769054
577,-0.03843932920127926
578,-0.040357481637121016
579,-0.04232268900485411
580,-0.04471095697405655
581,-0.046407280268570765
582,-0.04546972032507793
583,-0.0410031981990487
584,-0.03472694779182575
585,-0.03058668988351999
586,-0.03220694110043715
587,-0.03996815430032875
588,-0.05019715261955178
589,-0.057455071549668876
590,-0.0582872721142534
591,-0.05340605534332454
592,-0.04653400455332855
593,-0.041053178520461954
594,-0.037529054082546406
595,-0.03426175920905716
596,-0.030077821918037907
597,-0.026408028230224378
598,-0.026418883003021896
599,-0.03191438173614388
600,-0.04103578794507519
601,-0.04915838714372961
602,-0.0523638034720473
603,-0.050366119374655106
604,-0.04624350967726269
605,-0.043344130794961626
606,-0.04237625240760725
607,-0.041397332027785366
608,-0.03850113421946977
609,-0.03435050163203571
610,-0.03192225157567844
611,-0.033675971353899825
612,-0.038983471129169785
613,-0.04444240437436432
614,-0.04685360338407918
615,-0.04598964258269383
616,-0.044456604646119266
617,-0.0447914362335373
618,-0.0466555527515288
619,-0.04691763625514821
620,-0.04263135413556503
621,-0.034105346325980834
622,-0.025124975023663523
623,-0.02002073860095694
624,-0.020177470944424118
625,-0.023058726620929906
626,-0.024526278422845573
627,-0.022347890937393318
628,-0.017895198410156618
629,-0.014781026305859962
630,-0.01585154999028392
631,-0.021164698054381134
632,-0.02845321787831212
633,-0.03529290886078046
634,-0.040834805785022715
635,-0.04559764822311396
636,-0.04973228674895702
637,-0.05160439810579046
638,-0.04825276080738963
639,-0.037565265108370195
640,-0.020395944766217197
641,-0.0007570572945402033
642,0.01622608951617556
643,0.027040670793662198
644,0.031087847209549567
645,0.029730215852594156
646,0.024222339991833285
647,0.014545921931016156
648,0.0001760229873737783
649,-0.018112295125869367
650,-0.03730141127451835
651,-0.05312839817056335
652,-0.06228251005110414
653,-0.06404114443501
654,-0.06025586614260915
655,-0.054127233382856715
656,-0.048975851335137786
657,-0.04760820593626351
658,-0.0518745672445802
659,-0.06198040070946935
660,-0.07607790124748787
661,-0.09120973140216969
662,-0.10563692250670345
663,-0.12071519540401983
664,-0.13999315886266323
665,-0.16531430194767266
666,-0.19285941890626096
667,-0.21305037353970563
668,-0.21545543948553364
669,-0.19542303814168827
670,-0.1573371357586565
671,-0.1122528083948883
672,-0.07273542457418251
673,-0.049951797772015645
674,-0.054905392350192456
675,-0.10013229697652197
676,-0.19618014123042163
677,-0.34181145171226474
678,-0.5145034745969339
679,-0.6709510619970518
680,-0.7615952546258529
681,-0.7523408438743995
682,-0.6396941114266905
683,-0.4491174295745037
684,-0.21825725630040152
685,0.022632508687140358
686,0.2599038611791765
687,0.49143752502040217
688,0.714541351413827
689,0.9180506394714814
690,1.0842770302557065
691,1.1972989301609365
692,1.2496005117824274
693,1.2422835207260783
694,1.1807762640124921
695,1.071419623069257
696,0.9218360759042019
697,0.7429833263537233
698,0.5487587448758319
699,0.3519138377655258
700,0.15956828071808
701,-0.027129549207464895
702,-0.20815332654139618
703,-0.37843862052514265
704,-0.5258545832381614
705,-0.6354315430562552
706,-0.6968120788588488
707,-0.7094681649521408
708,-0.682356166138068
709,-0.6290800653579454
710,-0.5624106058700235
711,-0.4913068063738741
712,-0.42084688799288755
713,-0.3535015844694191
714,-0.2903177130991867
715,-0.2318149479216316
716,-0.1789523669270227
717,-0.1339010821789925
718,-0.09969854716364014
719,-0.07839369290862296
720,-0.06878301287593501
721,-0.06573393992482374
722,-0.06219942958398976
723,-0.05288745477853942
724,-0.03704103931695389
725,-0.01833816612287814
726,-0.0021181370599947
727,0.007900625852799843
728,0.011139000870434755
729,0.009304291259455127
730,0.004432720363692123
731,-0.0023702699954773064
732,-0.010700935551910713
733,-0.019795122887251534
734,-0.027891495755410375
735,-0.03270422546524232
736,-0.03264118998434409
737,-0.02782196091267054
738,-0.020187860465952993
739,-0.012692358408717894
740,-0.008115684817873536
741,-0.008141749956154406
742,-0.013043005881134722
743,-0.021909134439959524
744,-0.03308039260701841
745,-0.044453938871610116
746,-0.05361275477725877
747,-0.0580666995244207
748,-0.055948231425097625
749,-0.04709198053486956
750,-0.033821775452436545
751,-0.020583548624320182
752,-0.012189560485386598
753,-0.011530273746399691
754,-0.01822805680147796
755,-0.029169990051132143
756,-0.04048430435919474
757,-0.04947395326147541
758,-0.055230156192787455
759,-0.05790515878957203
760,-0.05773027771936845
761,-0.054809419032450755
762,-0.049675877969280316
763,-0.04372188600737675
764,-0.03880254638520346
765,-0.036297188970914274
766,-0.03654979671468486
767,-0.03918634466189876
768,-0.043803892866139615
769,-0.050106835729535844
770,-0.05725818996464286
771,-0.06328304472533983
772,-0.06557070510036318
773,-0.06250121440808923
774,-0.05494753475768711
775,-0.046233109447275225
776,-0.04035568747925543
777,-0.03979217073539176
778,-0.04452917570232873
779,-0.05281631563373757
780,-0.06265192332659858
781,-0.07260570239502173
782,-0.08154050258109569
783,-0.08803975000423134
784,-0.09058863011809778
785,-0.08861371240435081
786,-0.0834028072203098
787,-0.0778568445108673
788,-0.07504698442253115
789,-0.07662902834624147
790,-0.08225257116612694
791,-0.09017217235093108
792,-0.09828821165203686
793,-0.10474191935315727
794,-0.10792774106989612
795,-0.10649195673824241
796,-0.09980434171432873
797,-0.0886626393550572
798,-0.07546339257340605
799,-0.06337565429698364
800,-0.05492519532153527
801,-0.050966428202722465
802,-0.05070404661112046
803,-0.05253387959759961
804,-0.05487361972315949
805,-0.05639670983304758
806,-0.055847028682160946
807,-0.05206350041470696
808,-0.04451040776255189
809,-0.03387707495263734
810,-0.02201374328092457
811,-0.011007610246387186
812,-0.002075229800347003
813,0.004763516360059192
814,0.009951116726173924
815,0.013374229099253593
816,0.014200897070438817
817,0.0119221366391653
818,0.007676411320845691
819,0.004421685452775967
820,0.005378388886851485
821,0.011729322618049206
822,0.021413784345330405
823,0.030134250126051233
824,0.033940451432560026
825,0.03146930755930065
826,0.02422690777386914
827,0.01492609938018849
828,0.0054213361247923975
829,-0.004078713536316262
830,-0.01411282988067537
831,-0.024463888062560113
832,-0.0335445062364216
833,-0.03925451899290322
834,-0.04056988947858675
835,-0.03854702333006102
836,-0.035979353450041
837,-0.03600753297049571
838,-0.04063461487297733
839,-0.04993979777020979
840,-0.062171440852029095
841,-0.07443847304907078
842,-0.08365877662266433
843,-0.08754596121336511
844,-0.08542011228416471
845,-0.07851831945934958
846,-0.06953548596813013
847,-0.06150280100320894
848,-0.05657749521380541
849,-0.055434984981801584
850,-0.05752773537633759
851,-0.06182011368429435
852,-0.06730427122010377
853,-0.07293983318440592
854,-0.07733075926223583
855,-0.07879484739544487
856,-0.07611565106891681
857,-0.06950216835994891
858,-0.06087475981681643
859,-0.05302948385071432
860,-0.04818481131079129
861,-0.046996138980801516
862,-0.04872320297891539
863,-0.05218066048659069
864,-0.05642140397295191
865,-0.06051384370821451
866,-0.06289667949858632
867,-0.06143526802958621
868,-0.05466977765985457
869,-0.043365338918713955
870,-0.030793274048593985
871,-0.021082312350660257
872,-0.01676348891186562
873,-0.01753398698400463
874,-0.0212463538125478
875,-0.026061820558054085
876,-0.03162950401851611
877,-0.038219229776682566
878,-0.044929987741559194
879,-0.049163137940267033
880,-0.048303704214113785
881,-0.04218579602010826
882,-0.03387214692265621
883,-0.027731188323575604
884,-0.026378601902087816
885,-0.029180682785794984
886,-0.033529518597102057
887,-0.03746696928485331
888,-0.041068715421436135
889,-0.045404542186901375
890,-0.050374942915423465
891,-0.053787609948011836
892,-0.0527160069031129
893,-0.04592004804482924
894,-0.035160064749541114
895,-0.02436624262652189
896,-0.017518365579353653
897,-0.016890009193681367
898,-0.02253562959793693
899,-0.03268667842466502
900,-0.04436645712922534
901,-0.05407910982848389
902,-0.05885008671488708
903,-0.05749864685606854
904,-0.0513148949649795
905,-0.043360107833467
906,-0.03665976582237855
907,-0.03261893615664729
908,-0.030875246079317298
909,-0.030505597467608902
910,-0.03128525616829214
911,-0.03378264429595485
912,-0.03833905476030945
913,-0.0441036496336046
914,-0.04915708192838235
915,-0.05160433347217005
916,-0.050609274666754814
917,-0.046567934425691966
918,-0.040586939624712534
919,-0.03401602452303124
920,-0.02840191975740183
921,-0.02546200982460635
922,-0.026523227797980067
923,-0.03157519472096421
924,-0.03882110504648159
925,-0.04542532779545244
926,-0.04909171372303494
927,-0.049227906918766495
928,-0.0467438987137518
929,-0.04280016183672425
930,-0.03781908942355587
931,-0.03176148469909577
932,-0.02531003137623245
933,-0.020549355245170438
934,-0.020097730315532292
935,-0.025155864718520764
936,-0.03415134552753976
937,-0.04334316000144496
938,-0.04910428611658123
939,-0.05010337971035428
940,-0.04765373964847749
941,-0.04408271010625605
942,-0.04067495922519119
943,-0.03702718007028051
944,-0.03228153846890023
945,-0.02694436322173421
946,-0.02344347639063158
947,-0.02471393363493637
948,-0.03188361232898133
949,-0.042970646515368256
950,-0.05370270329965675
951,-0.05987586500641913
952,-0.059549479912237115
953,-0.0536728623683263
954,-0.045046647735788814
955,-0.036658454759506354
956,-0.03056056004589349
957,-0.02770572855403244
958,-0.028331491265741138
959,-0.0322462948644327
960,-0.03874077144989263
961,-0.04635217384266399
962,-0.05290680068732752
963,-0.056069054475792336
964,-0.054245024856241816
965,-0.04739159319972211
966,-0.03724122645821843
967,-0.026716599094599475
968,-0.018773486625291994
969,-0.01529486412062152
970,-0.01664780555559256
971,-0.022036922855269984
972,-0.03019086207021693
973,-0.03973395891841992
974,-0.049032058678872746
975,-0.05596463543745121
976,-0.05828390632583902
977,-0.05468851652137702
978,-0.04592161642460179
979,-0.034910286442317716
980,-0.025565267242947037
981,-0.02089044294717792
982,-0.02162197887879347
983,-0.0262397826266371
984,-0.03220100750942481
985,-0.03744820609721401
986,-0.04120893947570647
987,-0.043741860881529974
988,-0.04544783221415058
989,-0.046132663476114444
990,-0.045011796507505746
991,-0.04146993383242842
992,-0.03600074833693112
993,-0.030535432542984787
994,-0.027719328972043072
995,-0.02944517981350496
996,-0.03557458579388781
997,-0.04375321198005148
998,-0.05050345034210317
999,-0.052914411235796946
1000,-0.04993228843744567
1001,-0.04266503926311048
1002,-0.033788752030064984
1003,-0.026486581180269447
1004,-0.023278905198253385
1005,-0.02501091833349906
1006,-0.030408496033395363
1007,-0.03668200290871559
1008,-0.041156969118693404
1009,-0.042973973322615676
1010,-0.04345652957899902
1011,-0.04459026068323078
1012,-0.04675443580734247
1013,-0.04782315103275277
1014,-0.044791434163918134
1015,-0.03677483047124757
1016,-0.02669732437236321
1017,-0.019865718863602846
1018,-0.020321744414318783
1019,-0.027911321271020313
1020,-0.03844976892130635
1021,-0.04669406638022347
1022,-0.0495628307585386
1023,-0.047206512355762315
1024,-0.041726636485216094
1025,-0.03529151795549388
1026,-0.029335933514357884
1027,-0.024923539073823033
1028,-0.023136753707972774
1029,-0.02474065651740326
1030,-0.029593371838638183
1031,-0.03670171010789364
1032,-0.044933838953775715
1033,-0.053409455711091104
1034,-0.06091289585541689
1035,-0.06510404769674363
1036,-0.06307001808889236
1037,-0.053592156202197455
1038,-0.03934113287950384
1039,-0.026482224033705384
1040,-0.021141737459816585
1041,-0.025267876694673466
1042,-0.035482646396048034
1043,-0.04611548880903103
1044,-0.053758361883761416
1045,-0.059138949443999896
1046,-0.0646136387823397
1047,-0.06989736030445745
1048,-0.07055984159882862
1049,-0.06128193081572876
1050,-0.04117109310693407
1051,-0.0161156590284897
1052,0.004412120964536024
1053,0.013686482635183144
1054,0.011882389998078672
1055,0.004687766674997964
1056,-0.002055599425615236
1057,-0.006779995146850397
1058,-0.012022149919224227
1059,-0.0204195684288285
1060,-0.031025615982957902
1061,-0.03944305384014573
1062,-0.041489004164166315
1063,-0.036876483775138635
1064,-0.02958881863184104
1065,-0.024737984096203453
1066,-0.024693466754670025
1067,-0.027580272041737533
1068,-0.028989237226446397
1069,-0.025197574383701384
1070,-0.015447895421392093
1071,-0.0020459559522427867
1072,0.011218555194451226
1073,0.020956080012291413
1074,0.025270811288460072
1075,0.0237620700723357
1076,0.016806897924762546
1077,0.004840904064857253
1078,-0.011691133052323721
1079,-0.03157256236212891
1080,-0.05195432169532646
1081,-0.06859530374581081
1082,-0.07775327651430883
1083,-0.0786850309936448
1084,-0.07461517014834321
1085,-0.0708757852102078
1086,-0.07141715486918243
1087,-0.07675760697912573
1088,-0.08545358503707809
1089,-0.09772681250773567
1090,-0.11721041129428333
1091,-0.14796717505876528
1092,-0.18851314426734167
1093,-0.2283227522059268
1094,-0.25111780415298957
1095,-0.2435947613233902
1096,-0.20325344207079343
1097,-0.13966234642133288
1098,-0.06945091325767365
1099,-0.010673361015523113
1100,0.018687884297071352
1101,-0.00030066570594168736
1102,-0.08452086542320253
1103,-0.23809256936210105
1104,-0.43947590679603343
1105,-0.6385182661317395
1106,-0.7715054487740063
1107,-0.7889129244238867
1108,-0.6788529089192543
1109,-0.47018206447576427
1110,-0.21339639208307892
1111,0.046495257137490795
1112,0.2863424526679016
1113,0.5020604542881743
1114,0.6940964344042118
1115,0.8562018893364056
1116,0.9764624358511655
1117,1.0467401173486928
1118,1.0694367169945993
1119,1.0546626304990654
1120,1.0111754026862276
1121,0.940347963939096
1122,0.8386814199400061
1123,0.7055171024439637
1124,0.5477433777819694
1125,0.3769243003137113
1126,0.2022410621308944
1127,0.026789954449492198
1128,-0.1488014492067402
1129,-0.3189607975572858
1130,-0.46946200655878556
1131,-0.5817263137609037
1132,-0.6423152026672738
1133,-0.6503645685992473
1134,-0.6176206830174298
1135,-0.5617416837497207
1136,-0.49817814294491114
1137,-0.43578059003318736
1138,-0.37741635169958665
1139,-0.32317176404941694
1140,-0.2729520831361155
1141,-0.22713047210732368
1142,-0.18600539913464104
1143,-0.14941311607981742
1144,-0.11700745258760752
1145,-0.0887521184938023
1146,-0.06501907005293187
1147,-0.04622008415855177
1148,-0.03238756394546739
1149,-0.023093707647047643
1150,-0.01769653686957573
1151,-0.015574288064104259
1152,-0.01605275239536269
1153,-0.01807889048154458
1154,-0.020036555663575067
1155,-0.0201107452603358
1156,-0.017193482701620764
1157,-0.011758461919254105
1158,-0.005918211318951946
1159,-0.0023487079007804253
1160,-0.0026732558101138283
1161,-0.006481422017053484
1162,-0.011788907517204057
1163,-0.016598866681462238
1164,-0.020274030500051908
1165,-0.02358388134339651
1166,-0.027481769910672884
1167,-0.03181452984195059
1168,-0.035188170017852516
1169,-0.036092766465540556
1170,-0.034218629658135526
1171,-0.030792755976058538
1172,-0.027757680005774638
1173,-0.02665150993421317
1174,-0.028112281950355294
1175,-0.03208370979042514
1176,-0.03806006722628114
1177,-0.04489643257521127
1178,-0.05054757560738134
1179,-0.0525306679191125
1180,-0.04929898747590917
1181,-0.04162172037037912
1182,-0.03268393775939168
1183,-0.02650673985302606
1184,-0.025698854639175657
1185,-0.03015406522793799
1186,-0.03752149730135264
1187,-0.04485108867049363
1188,-0.05006570157772955
1189,-0.05240179246338876
1190,-0.05203030457399334
1191,-0.04960975138683438
1192,-0.046145377402027156
1193,-0.04286857104648473
1194,-0.040762962580557324
1195,-0.03993863451858961
1196,-0.039540209583113356
1197,-0.03856263928981066
1198,-0.03702711697162639
1199,-0.03639308016007445
1200,-0.038571582629016124
1201,-0.044145474653341496
1202,-0.05126765351793417
1203,-0.05633202334064709
1204,-0.05613553698504554
1205,-0.05002659054698262
1206,-0.040500570677040514
1207,-0.03186561027760227
1208,-0.027976892389206556
1209,-0.030540605525912645
1210,-0.03883704040368341
1211,-0.05058646523027117
1212,-0.06304599293318508
1213,-0.07368214225043883
1214,-0.08047476124199293
1215,-0.08228703688150296
1216,-0.07942960720328537
1217,-0.07395880147768868
1218,-0.0691091436651532
1219,-0.06785608354074099
1220,-0.07142899088759894
1221,-0.07881093160282615
1222,-0.08755913555782766
1223,-0.09524759782404492
1224,-0.10043034337758955
1225,-0.10261799111507805
1226,-0.10173299664233505
1227,-0.09787121094235095
1228,-0.09162241445760479
1229,-0.08437649299180205
1230,-0.07792861291793501
1231,-0.07346990349835256
1232,-0.07086257159654244
1233,-0.06898827331750518
1234,-0.06692817598532483
1235,-0.06482988912024784
1236,-0.06354270024856878
1237,-0.06332043086248691
1238,-0.06289511155689834
1239,-0.059965712409161105
1240,-0.052826830146065235
1241,-0.04175810174078845
1242,-0.028974992148440733
1243,-0.01721686470207931
1244,-0.008197345328967251
1245,-0.002126117897041573
1246,0.0015604830171697512
1247,0.0031952254265570357
1248,0.0026568271510201834
1249,0.00012939976813311212
1250,-0.0029627138375637554
1251,-0.003938276603171327
1252,-0.0001821599162281991
1253,0.008894591402958797
1254,0.02069069294396443
1255,0.030198102980593458
1256,0.032632666895784555
1257,0.026369794488893067
1258,0.014125177222647613
1259,0.0013469781741560155
1260,-0.007195814463124944
1261,-0.010176803756225001
1262,-0.00979740898876651
1263,-0.009315290897356363
1264,-0.010254826172053548
1265,-0.01171471686411959
1266,-0.012186844003361483
1267,-0.011930186375105222
1268,-0.013442131693252386
1269,-0.019445421961754604
1270,-0.030267072045917914
1271,-0.04313432489553188
1272,-0.05410808179192005
1273,-0.06088227202349332
1274,-0.06393058367889531
1275,-0.06516880916705531
1276,-0.06570114932568956
1277,-0.064956108787978
1278,-0.061940306140981616
1279,-0.05711692716070432
1280,-0.052808316877469536
1281,-0.05158417874319368
1282,-0.05418039982567079
1283,-0.0589717398167545
1284,-0.06344913138737016
1285,-0.06617325432408064
1286,-0.06730444480551129
1287,-0.06738188328855708
1288,-0.06588979535153429
1289,-0.06136668764835215
1290,-0.05314519771715706
1291,-0.042958798289859504
1292,-0.03454931032246619
1293,-0.03125587906181588
1294,-0.03358371454277196
1295,-0.03892602862856712
1296,-0.04369546243560993
1297,-0.04591983812612016
1298,-0.04599856112670965
1299,-0.04516166907020756
1300,-0.043434790512431376
1301,-0.039370963526527775
1302,-0.03198444582365408
1303,-0.022974007570923757
1304,-0.016773545611270306
1305,-0.017845357387009222
1306,-0.027230158303721292
1307,-0.04125247240463467
1308,-0.053584256257683205
1309,-0.059109406317305456
1310,-0.05665687233602546
1311,-0.048800722187399184
1312,-0.039404499823054745
1313,-0.03117772382433126
1314,-0.024989770109643178
1315,-0.020827243240186956
1316,-0.018927112236105176
1317,-0.019877667628824817
1318,-0.02381391160275139
1319,-0.02978859954232252
1320,-0.03610499956772447
1321,-0.04131165773319906
1322,-0.04487073072538685
1323,-0.046890410115037084
1324,-0.047308161009820576
1325,-0.04548686070625638
1326,-0.04076937964304386
1327,-0.03354634812990967
1328,-0.025790092009705765
1329,-0.020372741434364877
1330,-0.019500756839681572
1331,-0.023369736630942092
1332,-0.030016207084882444
1333,-0.03644754678311884
1334,-0.04021984354687751
1335,-0.04042083840477537
1336,-0.03759265800532796
1337,-0.032957816673767605
1338,-0.027713945949660215
1339,-0.022883369234149322
1340,-0.01956725108083157
1341,-0.019041986278418806
1342,-0.022291362276804248
1343,-0.029148576244291194
1344,-0.03773282371034835
1345,-0.04485943061061919
1346,-0.04750390124582065
1347,-0.044580339903472606
1348,-0.03784890554980564
1349,-0.03112570005650444
1350,-0.02804636863244113
1351,-0.02975817732063676
1352,-0.034201683646465426
1353,-0.03767142985974958
1354,-0.037654959134376054
1355,-0.034817180075085025
1356,-0.032477250179563544
1357,-0.03384681609356555
1358,-0.03918788274660621
1359,-0.045260745763166035
1360,-0.04763044758840899
1361,-0.04402179158821598
1362,-0.036017057115827616
1363,-0.027802759356424803
1364,-0.023160593881332306
1365,-0.023240603173941082
1366,-0.026698839888601056
1367,-0.03153138227558671
1368,-0.03656756206235289
1369,-0.041326623429405615
1370,-0.044886655152149554
1371,-0.04548784422473624
1372,-0.04168727996717736
1373,-0.034004384828575276
1374,-0.025205707154929192
1375,-0.018614145206965096
1376,-0.01586710963795301
1377,-0.016232021843432316
1378,-0.018093004967502324
1379,-0.021006041174912178
1380,-0.02608137906650493
1381,-0.0341564101831641
1382,-0.04361457744729504
1383,-0.050326514062509486
1384,-0.05027668434679872
1385,-0.042783173776027486
1386,-0.03143264232660362
1387,-0.02177982986234027
1388,-0.017705707658617557
1389,-0.01941294795204532
1390,-0.02440203993529566
1391,-0.030066661547044855
1392,-0.035348858823012
1393,-0.040196932105655094
1394,-0.043916848230072185
1395,-0.04454360338776468
1396,-0.040158245719251716
1397,-0.03095390237563936
1398,-0.019958781347836945
1399,-0.01150682834911734
1400,-0.008614899261884593
1401,-0.011393907341852593
1402,-0.017637249093904427
1403,-0.024799202819134343
1404,-0.031510693633754576
1405,-0.037471971214899966
1406,-0.042237913904117484
1407,-0.04445412746492736
1408,-0.04256894015958825
1409,-0.03649543288815793
1410,-0.028605086120629362
1411,-0.022846926175962273
1412,-0.02237775406009662
1413,-0.027464303525705825
1414,-0.03533193671402474
1415,-0.042100353726276754
1416,-0.04525454389232175
1417,-0.04471876775422565
1418,-0.04187911311867275
1419,-0.03771721814446739
1420,-0.03194062933285567
1421,-0.02395412361047016
1422,-0.014654357621358891
1423,-0.00709217751166572
1424,-0.004976036351255872
1425,-0.010000307825376448
1426,-0.020232991983856377
1427,-0.031072268106717132
1428,-0.03815444250175609
1429,-0.039939825590906745
1430,-0.037995652315645355
1431,-0.034975981673419844
1432,-0.032212984789205014
1433,-0.029025648063300324
1434,-0.024214038232906222
1435,-0.018221695160360422
1436,-0.013842071457039955
1437,-0.014601699501454995
1438,-0.021975990189036537
1439,-0.03368338644643952
1440,-0.044569271712996836
1441,-0.049625474028114326
1442,-0.04704002234048804
1443,-0.039115555472508466
1444,-0.030468130189520704
1445,-0.024911293736056765
1446,-0.023319281132570986
1447,-0.023890091010830547
1448,-0.024315974702452295
1449,-0.023948004433248883
1450,-0.024216121922689432
1451,-0.027110458823765296
1452,-0.033110051069650585
1453,-0.040280968087245475
1454,-0.045208252719351555
1455,-0.04499330639923684
1456,-0.03891629044540399
1457,-0.02884394928502012
1458,-0.018400699410813157
1459,-0.011498872979783654
1460,-0.010841058410781815
1461,-0.016846646678373052
1462,-0.027406024541631817
1463,-0.038745476336665426
1464,-0.04717630022873938
1465,-0.050799555603030844
1466,-0.05004229976589032
1467,-0.04666239887530131
1468,-0.042086834934282405
1469,-0.03652020118417085
1470,-0.029541084983608586
1471,-0.021502865623397843
1472,-0.014302822559683499
1473,-0.010697437607289254
1474,-0.012688216721846557
1475,-0.020260370005419026
1476,-0.03128946442019662
1477,-0.0423830794527094
1478,-0.0499129460602738
1479,-0.050860781233941096
1480,-0.0436341763247109
1481,-0.028907696149631634
1482,-0.009950572890508354
1483,0.008251368600502464
1484,0.020970199168815006
1485,0.025622774955065333
1486,0.022274783774039335
1487,0.012647450350731266
1488,-0.0011421768757212676
1489,-0.01683571631969448
1490,-0.03140861987497992
1491,-0.041012457841041315
1492,-0.04256453226402539
1493,-0.03615761713092526
1494,-0.025979195718895304
1495,-0.018183990915965703
1496,-0.016785518720486947
1497,-0.020704815708737348
1498,-0.024495334740226367
1499,-0.02229796094151726
1500,-0.011908457852800779
1501,0.004116772446521012
1502,0.020746908108987237
1503,0.03383741288807292
1504,0.04181535466446579
1505,0.044909527829900445
1506,0.04340660139031135
1507,0.03687686498596175
1508,0.024893185638554707
1509,0.008173216375999194
1510,-0.011126185872635896
1511,-0.030149277898232064
1512,-0.046318230350841996
1513,-0.057848801381346016
1514,-0.06388548027910237
1515,-0.06468601047777787
1516,-0.061826321430564206
1517,-0.057909715490009686
1518,-0.055610082393866014
1519,-0.05678196853806572
1520,-0.06260306099021597
1521,-0.07462856102328308
1522,-0.09522787351181472
1523,-0.12593448179325284
1524,-0.16427566275182842
1525,-0.20188229633930949
1526,-0.2265688088457346
1527,-0.22806960115183164
1528,-0.20372117978739857
1529,-0.15999401727265022
1530,-0.10919629964244021
1531,-0.06482628741227767
1532,-0.039718277373395124
1533,-0.047275983724649924
1534,-0.10144268750815909
1535,-0.21085345579972464
1536,-0.3682359629002848
1537,-0.5429464683562957
1538,-0.6855854826039252
1539,-0.7462752194775162
1540,-0.6973779050578952
1541,-0.5462315394150794
1542,-0.32913379163745815
1543,-0.09067198083834946
1544,0.13742946798417138
1545,0.3445249649776929
1546,0.5336465754462472
1547,0.7075253873771369
1548,0.860363951971759
1549,0.9806969369575016
1550,1.0603048485014284
1551,1.0995909348727873
1552,1.1044582348104208
1553,1.0784931513842624
1554,1.0187721616174528
1555,0.9198743578850878
1556,0.7825359016653533
1557,0.6186066557738639
1558,0.4470195749984177
1559,0.28350939555377647
1560,0.13249275652328163
1561,-0.012190859258507856
1562,-0.15840690260353119
1563,-0.30601050207845565
1564,-0.4438069115543627
1565,-0.554928091788876
1566,-0.625900477653605
1567,-0.6527846365346897
1568,-0.6411865297381748
1569,-0.6019181985095543
1570,-0.546324646281827
1571,-0.48376942477759405
1572,-0.42096664763811525
1573,-0.3617213979502767
1574,-0.30669834521341743
1575,-0.2541237684967153
1576,-0.201959904985471
1577,-0.15041231423389234
1578,-0.10271145006425891
1579,-0.06330926417285183
1580,-0.03495926877102736
1581,-0.017228559953338322
1582,-0.007597256254302624
1583,-0.003763135461985599
1584,-0.004668542588553814
1585,-0.009271260320767328
1586,-0.014667931193025053
1587,-0.01613468260350892
1588,-0.009850319463595946
1589,0.003796621788777093
1590,0.01946487186887659
1591,0.029859565269700454
1592,0.030388406112297667
1593,0.021859031028724826
1594,0.009234950917995395
1595,-0.0022431730113081465
1596,-0.010279575611816211
1597,-0.015753026576601832
1598,-0.020417067001676757
1599,-0.024556155208858857
1600,-0.02668252154390785
1601,-0.02522438607132344
1602,-0.020400732388290717
1603,-0.014562483756993837
1604,-0.010821717763894633
1605,-0.011213195506880361
1606,-0.015765631870075913
1607,-0.02287886673024481
1608,-0.030377662569837885
1609,-0.03637743198192722
1610,-0.039596779256375295
1611,-0.03933740116173012
1612,-0.035507696062287514
1613,-0.028799780406901856
1614,-0.020800343375311624
1615,-0.013739237161089397
1616,-0.009805836021840684
1617,-0.010306711523003286
1618,-0.015133310000021867
1619,-0.02287305458059517
1620,-0.03147881414672485
1621,-0.039023021195999805
1622,-0.044066819736143806
1623,-0.04561720520868972
1624,-0.04310449668584573
1625,-0.036756669841396555
1626,-0.028136534697252517
1627,-0.020080279322440588
1628,-0.01555243581112901
1629,-0.015955287700445492
1630,-0.020225606576720526
1631,-0.025644403492157714
1632,-0.029828172863232555
1633,-0.03221156646311146
1634,-0.03372731269474415
1635,-0.035112243078595284
1636,-0.03565986642018208
1637,-0.03382823528471476
1638,-0.029199921742186358
1639,-0.02377979041242338
1640,-0.021106631550993453
1641,-0.023742298077118397
1642,-0.0313218696649125
1643,-0.04086397425833835
1644,-0.048941904941849926
1645,-0.0537115941977888
1646,-0.05521723162256165
1647,-0.054259283998800034
1648,-0.05140385502302383
1649,-0.04717324888971643
1650,-0.04285576050378975
1651,-0.04056901499677184
1652,-0.04208433889645587
1653,-0.047439216703304345
1654,-0.05478932722499031
1655,-0.061769857587679874
1656,-0.06711037670828929
1657,-0.07101437836204011
1658,-0.07410460748721304
1659,-0.076170318323778
1660,-0.07606331738100681
1661,-0.07284981915022615
1662,-0.06707286377359672
1663,-0.060932842770649503
1664,-0.057232979362682374
1665,-0.05792295528505118
1666,-0.06315541824239132
1667,-0.07117485447328956
1668,-0.07887667616210121
1669,-0.08284330429427231
1670,-0.08069490695919787
1671,-0.07229768945104127
1672,-0.06003753806185636
1673,-0.0476570186710004
1674,-0.03816964914670798
1675,-0.032264883154367735
1676,-0.02840459018464258
1677,-0.024487607836621732
1678,-0.019672678933282686
1679,-0.01489901540555698
1680,-0.011843308037517254
1681,-0.011340263937868406
1682,-0.012535988724191312
1683,-0.01323401462975585
1684,-0.0109826947760575
1685,-0.004218763748719558
1686,0.006913643740403764
1687,0.020249294609217858
1688,0.03207516335746687
1689,0.03858988928977526
1690,0.037891830624028774
1691,0.03126660418238861
1692,0.022634598235211342
1693,0.016282503274211664
1694,0.014458971832686714
1695,0.016617324862344733
1696,0.020677966312443362
1697,0.024926973214768822
1698,0.028773172906838444
1699,0.03192716514514985
1700,0.033250895020762845
1701,0.03081647311293831
1702,0.023342827553473333
1703,0.011622864188578424
1704,-0.0015452997759929524
1705,-0.01296802151351582
1706,-0.02079471801467287
1707,-0.024981027941763996
1708,-0.026435377876880106
1709,-0.026026168439881377
1710,-0.024471236482201404
1711,-0.02292014768124965
1712,-0.02319011571721337
1713,-0.02703934497241451
1714,-0.03500704375085374
1715,-0.04589915123549627
1716,-0.05737091142858251
1717,-0.06700800700082432
1718,-0.07300818138412199
1719,-0.07426023528390063
1720,-0.07038329097112273
1721,-0.062168785542064744
1722,-0.0520159870555912
1723,-0.04347992384657726
1724,-0.039706028447097697
1725,-0.04173102127623948
1726,-0.04803761180892833
1727,-0.0557555020209121
1728,-0.062420421523638
1729,-0.06677451414231439
1730,-0.06820249979298015
1731,-0.06588375996408072
1732,-0.05898160566575701
1733,-0.047888176073904554
1734,-0.03511159464890197
1735,-0.024474567839671238
1736,-0.01893850916810892
1737,-0.018878617318695643
1738,-0.02234151651811806
1739,-0.026918962379654826
1740,-0.031322887178118305
1741,-0.03521342956637519
1742,-0.03784375141274299
1743,-0.03746533699711603
1744,-0.03260563753161401
1745,-0.02409164022198525
1746,-0.015489824004141398
1747,-0.010951992664541294
1748,-0.012116705347187262
1749,-0.01695281188831304
1750,-0.021775501023721708
1751,-0.024609096171604575
1752,-0.026671168213992645
1753,-0.030528566191184308
1754,-0.03675569732313162
1755,-0.042464478338984105
1756,-0.04330854447076471
1757,-0.03721038233160093
1758,-0.026398735297668348
1759,-0.015946003660823143
1760,-0.01021294563617517
1761,-0.010311107721004052
1762,-0.014404085155348467
1763,-0.019901617989772944
1764,-0.02515052697946788
1765,-0.029314366185350535
1766,-0.031327457714867786
1767,-0.02971059261839379
1768,-0.023813381972366716
1769,-0.015181177046039003
1770,-0.007326409293106731
1771,-0.00369410413001829
1772,-0.005464231406037602
1773,-0.011099077219139828
1774,-0.01793700773388459
1775,-0.02426532004416685
1776,-0.029996072482439386
1777,-0.03555162702227656
1778,-0.04032506617945564
1779,-0.04241568580992684
1780,-0.04001014565709365
1781,-0.033137558465258524
1782,-0.024142738539606988
1783,-0.01639360717987975
1784,-0.012306776203692221
1785,-0.012289417278415014
1786,-0.015261617038354946
1787,-0.01998858657520184
1788,-0.025854138036801172
1789,-0.03243519685728201
1790,-0.03853589611261303
1791,-0.041951176587629355
1792,-0.040560472112804585
1793,-0.03401751415884631
1794,-0.024553508658729996
1795,-0.01599877699386007
1796,-0.011589975148626575
1797,-0.012185942753066786
1798,-0.016206947598804117
1799,-0.021185882890477264
1800,-0.025527159202279975
1801,-0.029042488550520648
1802,-0.032054249267981574
1803,-0.03418312973009945
1804,-0.03415314104079967
1805,-0.030895434057118372
1806,-0.024928214435504144
1807,-0.018655894646121253
1808,-0.015152405593687437
1809,-0.016300093473814694
1810,-0.02167127007186382
1811,-0.02888076408069292
1812,-0.03498326158578485
1813,-0.03785785882403696
1814,-0.03681908352233713
1815,-0.032450460469814334
1816,-0.026121549810643248
1817,-0.019546479039040485
1818,-0.014407733769732034
1819,-0.01195885315763236
1820,-0.012685082472145453
1821,-0.01622162719074384
1822,-0.021577745439273856
1823,-0.02746032550365418
1824,-0.03247546508527404
1825,-0.0352583635752826
1826,-0.03478745654219731
1827,-0.030946532565154065
1828,-0.024946534842075083
1829,-0.01905223835893432
1830,-0.015514617333435232
1831,-0.015358428738636038
1832,-0.017962942079754143
1833,-0.021802451284055096
1834,-0.025722919632544586
1835,-0.02964321593607302
1836,-0.034081310465697304
1837,-0.038977465650115
1838,-0.04294145654121674
1839,-0.04370591536648087
1840,-0.03955596857273449
1841,-0.030708741916215324
1842,-0.019645386761928917
1843,-0.010125085979648094
1844,-0.005430349461062766
1845,-0.006799833607063744
1846,-0.012878616875228475
1847,-0.02050090919065502
1848,-0.026421925239294743
1849,-0.029020904249371482
1850,-0.028898827791244308
1851,-0.02795311427289038
1852,-0.027630773113234374
1853,-0.027780949426841388
1854,-0.02709314602358885
1855,-0.024714690877063808
1856,-0.02149003151505649
1857,-0.0195191499960605
1858,-0.020307560730868604
1859,-0.023233394799397514
1860,-0.02591003907823895
1861,-0.026278295983977087
1862,-0.024539305445147777
1863,-0.023052460354109593
1864,-0.024162852555737746
1865,-0.027886238243180355
1866,-0.03159191873758119
1867,-0.0320608902621351
1868,-0.028191224868906413
1869,-0.022079384860101747
1870,-0.017623633855764608
1871,-0.01781305039499886
1872,-0.02275606575541781
1873,-0.029721355980417533
1874,-0.034909982576826655
1875,-0.0356395187107723
1876,-0.03164736525788581
1877,-0.02495709544187997
1878,-0.01856920263145993
1879,-0.014788658617672814
1880,-0.014169611354015739
1881,-0.015726470956771373
1882,-0.018222391258720806
1883,-0.021448977356381838
1884,-0.02626029025355501
1885,-0.033132264718579246
1886,-0.04050995569676409
1887,-0.044765439382941905
1888,-0.042401988970067736
1889,-0.033023776385542374
1890,-0.02049669043192076
1891,-0.01091845904427757
1892,-0.008676580249078168
1893,-0.013652737450815895
1894,-0.021804856302476038
1895,-0.028537067770244916
1896,-0.03194678312700245
1897,-0.033306247855839924
1898,-0.034716266482664154
1899,-0.03638058135586149
1900,-0.036133551437821085
1901,-0.031640796694902565
1902,-0.02318301132230926
1903,-0.014398076894313492
1904,-0.010179312950631222
1905,-0.013384437392027517
1906,-0.022937986958313294
1907,-0.034642516994098135
1908,-0.043820595401111676
1909,-0.047703005371475767
1910,-0.0460973934427025
1911,-0.04049631001264086
1912,-0.032872063887495945
1913,-0.02514301399360141
1914,-0.019222192579937875
1915,-0.016880285494683823
1916,-0.019018793691851704
1917,-0.024857067174486318
1918,-0.03193438560588067
1919,-0.03721638202767267
1920,-0.03856426318118797
1921,-0.03545257361142825
1922,-0.028537921419610285
1923,-0.0187831580313592
1924,-0.007172703494078569
1925,0.004761298207309602
1926,0.014484577220539384
1927,0.019093867221122024
1928,0.01693594755889303
1929,0.008854402536746134
1930,-0.0022631055334878932
1931,-0.013459863413578434
1932,-0.023472611930716883
1933,-0.032601013449926566
1934,-0.04080783073960864
1935,-0.046025169839691654
1936,-0.04463193219165053
1937,-0.03405910998273967
1938,-0.015366317324010942
1939,0.006513591276065454
1940,0.025179998099139914
1941,0.035938703991513304
1942,0.03748475045007628
1943,0.031413050406946044
1944,0.020658620569681235
1945,0.008275532854392018
1946,-0.0031008406524703604
1947,-0.011671020825887956
1948,-0.017045944616181245
1949,-0.02041093056550043
1950,-0.023685756212168854
1951,-0.028154812780770158
1952,-0.03388087592589327
1953,-0.0405321073318381
1954,-0.04856946617462742
1955,-0.0590808788667019
1956,-0.07204464752913725
1957,-0.08502873736056919
1958,-0.09455173473925174
1959,-0.09968595578816065
1960,-0.1044706333722557
1961,-0.11586616918971282
1962,-0.13790793841435114
1963,-0.166805961558668
1964,-0.1915964756683043
1965,-0.20020434083499308
1966,-0.18597270693505652
1967,-0.14983791594941923
1968,-0.09831829700007814
1969,-0.04184930200017784
1970,0.00349985513785947
1971,0.014135132870641515
1972,-0.03605616783524499
1973,-0.16112396155984043
1974,-0.34647171117672193
1975,-0.5442282618714338
1976,-0.6890662418886098
1977,-0.728064020055182
1978,-0.645959014224937
1979,-0.4688036544253343
1980,-0.24438711506826616
1981,-0.01453808545826401
1982,0.20118464694515892
1983,0.40194023282001146
1984,0.5900548223697047
1985,0.7590445702179656
1986,0.8945160546425506
1987,0.9842234755697532
1988,1.0260506279290469
1989,1.0265562222943636
1990,0.9928377619070103
1991,0.9265881277173927
1992,0.8260105259807642
1993,0.6927941943725169
1994,0.5363454447511163
1995,0.3705655974908517
1996,0.20614553141045158
1997,0.04588679947542068
1998,-0.11230939777309049
1999,-0.2674397487509566
2000,-0.40978171645379835
2001,-0.5230023606504
2002,-0.5926197633055434
2003,-0.6141917699606636
2004,-0.595164099666085
2005,-0.5496751626250601
2006,-0.4908978723080357
2007,-0.42650688490524546
2008,-0.3594545850489612
2009,-0.29181761601797646
2010,-0.22766041230007272
2011,-0.17258115190232431
2012,-0.13085003949728446
2013,-0.1029725937486971
2014,-0.0857930467273205
2015,-0.07487139320100039
2016,-0.06699652670176014
2017,-0.0608440979659976
2018,-0.05566236660169855
2019,-0.04972694802036876
2020,-0.04046313577885048
2021,-0.026422976088845668
2022,-0.009284814997311257
2023,0.006330862519548083
2024,0.01563109836146294
2025,0.016959826285239236
2026,0.012835206692976088
2027,0.007728300162601091
2028,0.004482145060962492
2029,0.0025272988629068812
2030,-0.0006050424134065419
2031,-0.006066229097047473
2032,-0.011960619231832288
2033,-0.014826991331357587
2034,-0.012916772989066724
2035,-0.00809594474772013
2036,-0.004529865844707128
2037,-0.005401457004896072
2038,-0.010711925743805955
2039,-0.01800226984504472
2040,-0.024920532434544698
2041,-0.03090298602998391
2042,-0.03643031230445594
2043,-0.04101596405586089
2044,-0.04245066776844659
2045,-0.03847140693948627
2046,-0.029382860711992562
2047,-0.01896316002759665
2048,-0.012461402704583579
2049,-0.013174738476700872
2050,-0.020376742395395477
2051,-0.03012597134860152
2052,-0.03803442144040313
2053,-0.04171414805428891
2054,-0.04134704190534293
2055,-0.038601353678630226
2056,-0.035199570455910156
2057,-0.032140228696962606
2058,-0.02965604622704594
2059,-0.027519411399413832
2060,-0.025468126560223094
2061,-0.023697779113003584
2062,-0.02314988465307858
2063,-0.025120028872808176
2064,-0.030124597515185602
2065,-0.03683283475699639
2066,-0.04222390123619166
2067,-0.043283931363741104
2068,-0.03910433135020394
2069,-0.031629253685269
2070,-0.02432894130098516
2071,-0.019905147176712535
2072,-0.018994492029461543
2073,-0.02082951492979998
2074,-0.02489981720900951
2075,-0.03172940624041533
2076,-0.04187297748643183
2077,-0.0541441121544155
2078,-0.06501844917685905
2079,-0.07018784108321913
2080,-0.06730370622095411
2081,-0.05783273540088528
2082,-0.046593010182690756
2083,-0.039267676476345895
2084,-0.0395335147519298
2085,-0.047488454054636114
2086,-0.06006326094145567
2087,-0.07292624076632201
2088,-0.08270212235163149
2089,-0.08830026689045188
2090,-0.090696423218606
2091,-0.09144397900379116
2092,-0.09107728961145396
2093,-0.08874246395687538
2094,-0.08347182716585194
2095,-0.07602852061181387
2096,-0.06947707367406983
2097,-0.06751698468034867
2098,-0.07162433245903799
2099,-0.07939957282871957
2100,-0.08578042127045636
2101,-0.08638852708459391
2102,-0.08035198871761416
2103,-0.07033868867874785
2104,-0.059977882213529635
2105,-0.051095186111802395
2106,-0.043142133858005804
2107,-0.03496827848989002
2108,-0.02686695748161536
2109,-0.020751973141968978
2110,-0.018351249750030177
2111,-0.019325542033251458
2112,-0.021225138183839982
2113,-0.02128571473507522
2114,-0.0182633470324703
2115,-0.012638176871277669
2116,-0.005331502042925592
2117,0.0034023041506627797
2118,0.013625510779748731
2119,0.024425968920439124
2120,0.03341730777973405
2121,0.0380079727807524
2122,0.03744204829375199
2123,0.033550110819063735
2124,0.02924825271205854
2125,0.026076161368942762
2126,0.023160507455248384
2127,0.018691256877435863
2128,0.012489101729697041
2129,0.007015757668876258
2130,0.005546498396521161
2131,0.008959749114168056
2132,0.014089885057225915
2133,0.015372773450701923
2134,0.008676313174360732
2135,-0.005674838366991518
2136,-0.02297965087874354
2137,-0.037130045231082605
2138,-0.044162520941684845
2139,-0.044028352945116575
2140,-0.03986789412189616
2141,-0.03580420103318242
2142,-0.03481991043705552
2143,-0.03770304643652028
2144,-0.043216538909231376
2145,-0.04916480072020746
2146,-0.053809933188892566
2147,-0.05689335227998329
2148,-0.05953063446014603
2149,-0.06286345667143445
2150,-0.06641173599310243
2151,-0.06765523996457687
2152,-0.06363539291969124
2153,-0.053619770251026475
2154,-0.04061988919071773
2155,-0.030156675419699554
2156,-0.026876322254384962
2157,-0.03155541640292196
2158,-0.0408657329760336
2159,-0.05000692831066676
2160,-0.05593948695563822
2161,-0.05860463083170757
2162,-0.05947952960665215
2163,-0.05921976978600302
2164,-0.056765610995459216
2165,-0.050659704687103416
2166,-0.041111099923879624
2167,-0.0306741117235648
2168,-0.02282886377959424
2169,-0.019758937721677982
2170,-0.021261530352637496
2171,-0.025501177450844268
2172,-0.030581264103719096
2173,-0.03538948491958048
2174,-0.03923564838181824
2175,-0.041173768583091644
2176,-0.04011098111141943
2177,-0.03573244365363176
2178,-0.029194700010447466
2179,-0.02269288593736906
2180,-0.018214021764790755
2181,-0.016669866192514288
2182,-0.01813110499315201
2183,-0.022570972729733026
2184,-0.029901661552100653
2185,-0.038986001463965914
2186,-0.04682188565056225
2187,-0.04944265551687592
2188,-0.044553547835281204
2189,-0.033883935185712796
2190,-0.022867230794659264
2191,-0.017303395153461222
2192,-0.019416185678744015
2193,-0.02653772174289629
2194,-0.03354643312960043
2195,-0.036946841162503685
2196,-0.037090735313283905
2197,-0.03681230035167844
2198,-0.03803219862887873
2199,-0.03962164206969568
2200,-0.03846057362583492
2201,-0.03256269375057512
2202,-0.02328700573326538
2203,-0.014641080140303686
2204,-0.010406498101563409
2205,-0.011663095203132032
2206,-0.016667755733051383
2207,-0.02277735813359799
2208,-0.028421698692877494
2209,-0.03346038373746475
2210,-0.03801800939020837
2211,-0.04128759621776852
2212,-0.04161356913469377
2213,-0.037801458363694876
2214,-0.030436873503459312
2215,-0.022026117326335696
2216,-0.01580048293309664
2217,-0.01406148195963905
2218,-0.017175233078879838
2219,-0.023729874766603102
2220,-0.031537153174510765
2221,-0.0387048659222366
2222,-0.04414434140637248
2223,-0.047396659464899585
2224,-0.04816043025206532
2225,-0.046059495054979305
2226,-0.04092307638652079
2227,-0.03337634344151265
2228,-0.0252125151864874
2229,-0.019088606955262828
2230,-0.017511661427489278
2231,-0.021568416411539518
2232,-0.030090675059577212
2233,-0.039814328657273586
2234,-0.046648914371907844
2235,-0.04759096076904623
2236,-0.042331334298711096
2237,-0.03354709646946497
2238,-0.02547643093381528
2239,-0.02147768721279255
2240,-0.022145478266617395
2241,-0.025362013491061524
2242,-0.02828315966664508
2243,-0.0296747643810344
2244,-0.030635905068649855
2245,-0.03308800793607347
2246,-0.037410915410874664
2247,-0.04144724682444602
2248,-0.041910400119586466
2249,-0.03704185278389298
2250,-0.02820584418717076
2251,-0.019072524243877037
2252,-0.013190278189649364
2253,-0.012039213114536465
2254,-0.01495424417459611
2255,-0.02044962532508148
2256,-0.027352864179377132
2257,-0.03475846560638356
2258,-0.041315560276405344
2259,-0.045106715425323296
2260,-0.0446281415726828
2261,-0.04003614441320504
2262,-0.03336189663971961
2263,-0.0273131040005165
2264,-0.023626051574029798
2265,-0.022352314826085514
2266,-0.02257741485912665
2267,-0.023764490942490432
2268,-0.02640962145242183
2269,-0.031379472283651
2270,-0.038501043803032056
2271,-0.04566315802550701
2272,-0.04936779396180422
2273,-0.04663059900204941
2274,-0.03711287771843641
2275,-0.0240345590020875
2276,-0.013019288692055589
2277,-0.009277490804325174
2278,-0.014707733450479819
2279,-0.026756109748028466
2280,-0.03986898050901999
2281,-0.04866875998280222
2282,-0.050790381382176425
2283,-0.04759200502047629
2284,-0.04253059158921711
2285,-0.038632981331980565
2286,-0.036915674356669696
2287,-0.03659145220257018
2288,-0.036426889363045625
2289,-0.035922795823606274
2290,-0.03548040200640646
2291,-0.03573073015528795
2292,-0.03679238156000956
2293,-0.03803414320951866
2294,-0.03836594049696815
2295,-0.036750616561276137
2296,-0.032674978024014464
2297,-0.026471939878326158
2298,-0.019405744816786898
2299,-0.013397742101664759
2300,-0.010388506489655691
2301,-0.011586224571146228
2302,-0.016976963676629056
2303,-0.02530079720083986
2304,-0.03439988762223055
2305,-0.041736244293710936
2306,-0.04501163967375353
2307,-0.042911801883308634
2308,-0.035798308709570355
2309,-0.025877988556307074
2310,-0.016465782741434787
2311,-0.010569788377396762
2312,-0.009663924956222536
2313,-0.01346276851852661
2314,-0.02067641740433577
2315,-0.02987474575491713
2316,-0.039633607038873586
2317,-0.048088098772293204
2318,-0.052866104597420444
2319,-0.05209645036467841
2320,-0.04592864464534693
2321,-0.03707791994501182
2322,-0.02946910989850064
2323,-0.025764043981569847
2324,-0.02578055522641538
2325,-0.027203406664971407
2326,-0.027965384862347616
2327,-0.028126463381836712
2328,-0.029531672772989435
2329,-0.03360537991597594
2330,-0.03937935902848568
2331,-0.04362646788844987
2332,-0.04304884145623182
2333,-0.03669158131056152
2334,-0.02669696642651416
2335,-0.017034197167159412
2336,-0.011393276216009433
2337,-0.011701116287150995
2338,-0.01779930293033853
2339,-0.02786518652933662
2340,-0.039021126814999446
2341,-0.04803760166657896
2342,-0.05227442502246994
2343,-0.05067040208380303
2344,-0.044182204284777246
2345,-0.03525173740756683
2346,-0.026611965437566252
2347,-0.020278207091066078
2348,-0.017310407691929736
2349,-0.018129414490515944
2350,-0.022692596111458033
2351,-0.030196364419063582
2352,-0.03875191660336338
2353,-0.045761224093895714
2354,-0.0491088230024872
2355,-0.04837037352850967
2356,-0.04500231049681154
2357,-0.0412563343922791
2358,-0.03866401680646778
2359,-0.0373076622401753
2360,-0.03636655054920339
2361,-0.035286463001188095
2362,-0.03442846380093717
2363,-0.03463603834679855
2364,-0.03622477440968287
2365,-0.038432593363203926
2366,-0.03990049016059049
2367,-0.039759913110160146
2368,-0.0383249129869436
2369,-0.036746193489093956
2370,-0.035930566877093756
2371,-0.03569269179945448
2372,-0.03489608656348261
2373,-0.032459232245059436
2374,-0.028339629056217893
2375,-0.02363326876020533
2376,-0.019706358369377414
2377,-0.017119842564932194
2378,-0.015279506745505253
2379,-0.013103587119365016
2380,-0.010117183710767664
2381,-0.007032654048864381
2382,-0.005347633132890476
2383,-0.006347630231669717
2384,-0.010366427795717122
2385,-0.01683692903512241
2386,-0.024891023792183258
2387,-0.03378316653048202
2388,-0.042668587234080374
2389,-0.050003326946764834
2390,-0.05332777871425945
2391,-0.049962072740437666
2392,-0.03837537978237465
2393,-0.01937294316718571
2394,0.003706464450969203
2395,0.025956915331741853
2396,0.042530038113745866
2397,0.05014688697805504
2398,0.047912292386390054
2399,0.037228290171717596
2400,0.02096178764441227
2401,0.0023047699227803525
2402,-0.016088262012202953
2403,-0.032271562311154564
2404,-0.04462820561024849
2405,-0.051659511607682895
2406,-0.052626053636611936
2407,-0.04882499770461668
2408,-0.04422525276460754
2409,-0.04416745345967185
2410,-0.05234750478507767
2411,-0.06822538775559084
2412,-0.08734767219138113
2413,-0.10494993951175519
2414,-0.12012300178410358
2415,-0.13671020361991995
2416,-0.15951241728682025
2417,-0.18859350330135666
2418,-0.2166610719282559
2419,-0.2322704481534048
2420,-0.22666573711323876
2421,-0.19896901257313107
2422,-0.15620341277508543
2423,-0.1095994514051814
2424,-0.07172464202723411
2425,-0.05682427860925976
2426,-0.08148844971580363
2427,-0.16030557195296125
2428,-0.2952618892618255
2429,-0.46532979297604893
2430,-0.6263165340249761
2431,-0.7255920585216528
2432,-0.7250075581779574
2433,-0.6176529844578746
2434,-0.4274047420935803
2435,-0.19250888806752636
2436,0.05431992478022286
2437,0.2958795855805989
2438,0.5266679401447392
2439,0.7425179528842765
2440,0.934133115695331
2441,1.0887691034601858
2442,1.1958191724665463
2443,1.2495610044888552
2444,1.2472002348528313
2445,1.1864341919131305
2446,1.0672278039591725
2447,0.8970023335455495
2448,0.693246768478909
2449,0.4787510211212559
2450,0.2716085452229937
2451,0.07798125254537469
2452,-0.10581338237449531
2453,-0.28322836600647483
2454,-0.44794301876429765
2455,-0.5831660237528113
2456,-0.6706543129988649
2457,-0.7022712958448238
2458,-0.6851503536816641
2459,-0.6370792428002404
2460,-0.5763569656766397
2461,-0.5137575227417595
2462,-0.45136086619234084
2463,-0.38719253466254894
2464,-0.3208385745951371
2465,-0.2558109777626242
2466,-0.19788102788350387
2467,-0.15162452479840421
2468,-0.11803238226455212
2469,-0.09457647948897267
2470,-0.07720994931114183
2471,-0.06272778125134126
2472,-0.050018139035793524
2473,-0.039620345842022606
2474,-0.03211816739321671
2475,-0.026675730277206117
2476,-0.02096405611018322
2477,-0.01271144173638219
2478,-0.001742102388294592
2479,0.009254047124138472
2480,0.016146508501297945
2481,0.016121364135632678
2482,0.009653648071676364
2483,7.585186283596743e-05
2484,-0.008900378170806064
2485,-0.01559630530636991
2486,-0.02069643011565475
2487,-0.02542452239731996
2488,-0.0295117761880309
2489,-0.031073253916809762
2490,-0.028607587977742984
2491,-0.02315932453774849
2492,-0.018364780318286533
2493,-0.01803119136836421
2494,-0.02326455390143494
2495,-0.03167524502734191
2496,-0.03932480969061474
2497,-0.04361664467335622
2498,-0.04462220153727226
2499,-0.043975870102945125
2500,-0.042773463294740056
2501,-0.04062576578499209
2502,-0.03660424834256526
2503,-0.030858861969913005
2504,-0.025174365189004802
2505,-0.021997998700446296
2506,-0.023002368807769652
2507,-0.028435276629910432
2508,-0.03737810837619028
2509,-0.048074968338104866
2510,-0.05784385844793789
2511,-0.06319157739263166
2512,-0.061057013894846565
2513,-0.050937257982464054
2514,-0.03618769358370582
2515,-0.022853964065983414
2516,-0.016342292249723812
2517,-0.018316816792833313
2518,-0.02626365096448654
2519,-0.03591764471653055
2520,-0.044281487067212924
2521,-0.050664345771557664
2522,-0.05529779529611356
2523,-0.057489720182111806
2524,-0.055552132371672704
2525,-0.04868519827939996
2526,-0.038787333093487565
2527,-0.030083369545401754
2528,-0.026588893192754252
2529,-0.02958053124399765
2530,-0.037248045827772525
2531,-0.04660542366861132
2532,-0.05567806129446428
2533,-0.0639852048953713
2534,-0.07127637702264755
2535,-0.07629655569064868
2536,-0.07720807248658565
2537,-0.0734150008153619
2538,-0.06690723266735998
2539,-0.061548000270174215
2540,-0.06066495251217235
2541,-0.06494197585763417
2542,-0.0723551620980591
2543,-0.08003966462588444
2544,-0.08632008636923061
2545,-0.09120066786448602
2546,-0.09520048824181815
2547,-0.09794134671930749
2548,-0.0979622058987545
2549,-0.0939301608555009
2550,-0.08607254667545322
2551,-0.07649706203902064
2552,-0.06811197744958233
2553,-0.06304954880073109
2554,-0.06178054816123271
2555,-0.06337212273847748
2556,-0.06636914081860468
2557,-0.0694364469460513
2558,-0.07137270207818952
2559,-0.07084574166609948
2560,-0.06649132493866963
2561,-0.05761637101269071
2562,-0.0450442596780639
2563,-0.03129335135529661
2564,-0.019653631497141343
2565,-0.012574731984798282
2566,-0.010413228227454791
2567,-0.0114354098358164
2568,-0.01307777549543107
2569,-0.013523248734180334
2570,-0.012447669748735648
2571,-0.010522704639688863
2572,-0.008305908025862773
2573,-0.005593723932406517
2574,-0.0017826383311264796
2575,0.003202065728398375
2576,0.008366240604297921
2577,0.012052210929708028
2578,0.012964602105928154
2579,0.010978977314792804
2580,0.007170321829521157
2581,0.0031878973062059333
2582,0.0005135477223869131
2583,-1.0329690065564805e-05
2584,0.0016313760689637775
2585,0.004614026837997337
2586,0.0074826581788919894
2587,0.008683952702405774
2588,0.007247331159546348
2589,0.003132989645308933
2590,-0.00308783225030572
2591,-0.010933917338141788
2592,-0.020338829508212572
2593,-0.031149040166744205
2594,-0.042264086964775904
2595,-0.05147686761368621
2596,-0.056566331629469196
2597,-0.05693009868544088
2598,-0.05427595618290862
2599,-0.051546405274381604
2600,-0.05086020924827942
2601,-0.052272677174202455
2602,-0.05446964429457469
2603,-0.056657021216738906
2604,-0.059673981234263186
2605,-0.06504797138624643
2606,-0.07277338437741215
2607,-0.0800562691468859
2608,-0.08260842675014463
2609,-0.0777772667843972
2610,-0.06696633867484961
2611,-0.05519651144885141
2612,-0.04800180700687762
2613,-0.048060333285059875
2614,-0.05407375633039971
2615,-0.06240453835965739
2616,-0.06973297387370447
2617,-0.07449115166804032
2618,-0.07633953051046335
2619,-0.07488801946801144
2620,-0.06937225964057953
2621,-0.05971710312258583
2622,-0.047749607185032315
2623,-0.036986910806922936
2624,-0.030773463191173266
2625,-0.030234876091611462
2626,-0.03383858651815777
2627,-0.03892335998311603
2628,-0.043732017223483216
2629,-0.048051035187328506
2630,-0.051998639123130345
2631,-0.05443755854497445
2632,-0.05298453411731452
2633,-0.04604326234746369
2634,-0.03511234123056803
2635,-0.024962513930559503
2636,-0.020949252585476925
2637,-0.025318676162267243
2638,-0.03548323251459652
2639,-0.045758510365284916
2640,-0.05121288005452691
2641,-0.050599790643336105
2642,-0.04627024624348065
2643,-0.041577560080674425
2644,-0.03821852321778297
2645,-0.03561489298500887
2646,-0.032392966194765255
2647,-0.028262985557789215
2648,-0.024595315962252978
2649,-0.02342125302710301
2650,-0.025931728757349205
2651,-0.031684187071077265
2652,-0.038868001760238566
2653,-0.04515420916482166
2654,-0.04853470677885929
2655,-0.047913942552170366
2656,-0.043451537542171126
2657,-0.03658018028621919
2658,-0.02956068621546134
2659,-0.02465808002556704
2660,-0.02333579314742824
2661,-0.02587340851986413
2662,-0.031467808959134466
2663,-0.03856949466676528
2664,-0.045260635491852594
2665,-0.04972692414688496
2666,-0.050873680272148024
2667,-0.048810626489660246
2668,-0.044739776896699036
2669,-0.040156688841278335
2670,-0.03595934169042851
2671,-0.0322694460147507
2672,-0.029112590655780743
2673,-0.02717262706823211
2674,-0.027674216629921297
2675,-0.03135352383471689
2676,-0.03753068721112357
2677,-0.04429871025076912
2678,-0.04969635767983022
2679,-0.05267472552602695
2680,-0.05293996122581564
2681,-0.05013202180175105
2682,-0.04370223300860375
2683,-0.03409145131055241
2684,-0.024056519566455915
2685,-0.018243062419475473
2686,-0.02050170092094491
2687,-0.030832494996320445
2688,-0.04473502954478098
2689,-0.0559247237833988
2690,-0.06037152062855923
2691,-0.05833542908042095
2692,-0.05288249479936454
2693,-0.04659944213261684
2694,-0.039756550721761215
2695,-0.03152429307199866
2696,-0.02269168433288294
2697,-0.01679571192288353
2698,-0.01813410457681796
2699,-0.028213825578840904
2700,-0.043785509500384956
2701,-0.0582777532883645
2702,-0.06555307270376942
2703,-0.06314976849180906
2704,-0.05292605033431749
2705,-0.03926106348339816
2706,-0.026569045075906843
2707,-0.017735989138044646
2708,-0.013853159816670494
2709,-0.014673677082587034
2710,-0.019174722632666265
2711,-0.026011058750612943
2712,-0.033836272320689614
2713,-0.041402402292554874
2714,-0.04742552181942884
2715,-0.05051827019509997
2716,-0.049596088794094086
2717,-0.04470609762059655
2718,-0.0375731656684873
2719,-0.03111253982105039
2720,-0.027994928868187035
2721,-0.02930946235451276
2722,-0.034385008631102346
2723,-0.04175128734398931
2724,-0.05012444908129066
2725,-0.05839398931725791
2726,-0.0648381059533464
2727,-0.06685747804842421
2728,-0.06214306921069181
2729,-0.050641531932436305
2730,-0.03554733313233695
2731,-0.022114801299753722
2732,-0.014913675498031066
2733,-0.015506365522089859
2734,-0.022123305370609345
2735,-0.03121998329796732
2736,-0.03946755956765203
2737,-0.044864626016879114
2738,-0.04679649516755967
2739,-0.045678881277559875
2740,-0.04263609638052132
2741,-0.03907580145561057
2742,-0.03598626834776104
2743,-0.03336475970257931
2744,-0.03048956412398316
2745,-0.0270948402228234
2746,-0.024422822481876983
2747,-0.024887824483495184
2748,-0.030235990946811113
2749,-0.03964198828124704
2750,-0.04953451407064294
2751,-0.055560066032875124
2752,-0.05521186179533108
2753,-0.04907704542236073
2754,-0.03993720852681405
2755,-0.030816406334575948
2756,-0.023717856142643913
2757,-0.01973844291421137
2758,-0.01972941218932086
2759,-0.02428336958386887
2760,-0.03286832593995133
2761,-0.04316672848031519
2762,-0.05171033678033194
2763,-0.05565657594923287
2764,-0.054328889203155185
2765,-0.04923968772852565
2766,-0.04267737840686789
2767,-0.03622370029316428
2768,-0.030504643808635858
2769,-0.026141701557869927
2770,-0.024592605521371776
2771,-0.027637579642619037
2772,-0.035659437333015145
2773,-0.046268372618210464
2774,-0.05484706070799889
2775,-0.05708164096838961
2776,-0.051760425572690026
2777,-0.041659100983762395
2778,-0.03170275597444178
2779,-0.0257395588672443
2780,-0.02439421206939207
2781,-0.025594482573647485
2782,-0.02715100568844462
2783,-0.029053968558843173
2784,-0.033401310931769436
2785,-0.04193857826367173
2786,-0.05335713385218306
2787,-0.06289962698587535
2788,-0.06502738887667424
2789,-0.05733608112942854
2790,-0.042698380998164594
2791,-0.02783424176189314
2792,-0.01923335025444562
2793,-0.01938820062683048
2794,-0.025992897789609913
2795,-0.034388063877520796
2796,-0.041050785049949634
2797,-0.04535706331655452
2798,-0.048558656976412526
2799,-0.05136026396968454
2800,-0.05254030059592327
2801,-0.049894795111467834
2802,-0.042551556847654326
2803,-0.032453412452295036
2804,-0.02362134445166525
2805,-0.019825581189013362
2806,-0.022593359030486437
2807,-0.03093623095692017
2808,-0.04248636849272537
2809,-0.054639756903890904
2810,-0.06480769841036549
2811,-0.07023656853549638
2812,-0.06846278113328669
2813,-0.05862428194528529
2814,-0.04254324631850284
2815,-0.02430916568426142
2816,-0.008397532009229915
2817,0.002193667139775286
2818,0.0063518680663918825
2819,0.003946716682805239
2820,-0.004839498614742717
2821,-0.01883133976101077
2822,-0.034617428847665624
2823,-0.04676545117798027
2824,-0.050425388641763526
2825,-0.044668904817980915
2826,-0.033532019043396026
2827,-0.023319433495015425
2828,-0.018071662865327173
2829,-0.016965544094729973
2830,-0.01581455532423607
2831,-0.011152820526850467
2832,-0.003154442891456425
2833,0.005000263810173702
2834,0.010184479551367075
2835,0.0115583060229432
2836,0.010009378167524473
2837,0.005988676256057069
2838,-0.0014547128768759763
2839,-0.01321406388180459
2840,-0.02796394470158682
2841,-0.04204121871990631
2842,-0.05200571157258497
2843,-0.05751097903888587
2844,-0.06149264384810765
2845,-0.06724980452918647
2846,-0.07515681482274787
2847,-0.08220480881682857
2848,-0.08481945762158435
2849,-0.08225019855374308
2850,-0.07745778124902065
2851,-0.07506368632060673
2852,-0.07867461711069001
2853,-0.08991039516554444
2854,-0.10899407285355481
2855,-0.13481245729626623
2856,-0.16329926322479796
2857,-0.1858456606980432
2858,-0.19079725424387184
2859,-0.1688738189067932
2860,-0.11933864277311954
2861,-0.052078225533844315
2862,0.016357520510467884
2863,0.06958052906799186
2864,0.09546094520729127
2865,0.0848967393659435
2866,0.02854695659450823
2867,-0.08217371794110256
2868,-0.24702463310287998
2869,-0.4465753047749937
2870,-0.6392474947804431
2871,-0.7723644363072155
2872,-0.8039190213892868
2873,-0.7225410345792196
2874,-0.5523980606681176
2875,-0.339080906455975
2876,-0.12542050179755365
2877,0.06707995256987204
2878,0.2401840874341969
2879,0.4056823955181986
2880,0.568951504860721
2881,0.7218852291444116
2882,0.8486594101390608
2883,0.9370823815611353
2884,0.9849205992748693
2885,0.9967037704284316
2886,0.9758394369647221
2887,0.920685990182894
2888,0.8284042035873216
2889,0.7020807375531286
2890,0.553115262025553
2891,0.3956093420693773
2892,0.23774220451481615
2893,0.07862688627140246
2894,-0.08573171567537567
2895,-0.2524543135881868
2896,-0.4070391193241901
2897,-0.5287110975035467
2898,-0.6018529917490729
2899,-0.6243595058047918
2900,-0.6068317244093742
2901,-0.5645445520385833
2902,-0.509538325715857
2903,-0.44850811823736403
2904,-0.385845260122529
2905,-0.32668025258318467
2906,-0.2760580706567481
2907,-0.23541592814952073
2908,-0.2008533071709121
2909,-0.16600435919704734
2910,-0.1275800874586414
2911,-0.0887112375324994
2912,-0.056968465547567515
2913,-0.03861747911502134
2914,-0.0338727476970858
2915,-0.03685495287815868
2916,-0.03986605726210999
2917,-0.03823701044691842
2918,-0.03209818548619783
2919,-0.024425810501157462
2920,-0.017730252825205243
2921,-0.012314947081948906
2922,-0.007117122856514104
2923,-0.0017583257698265743
2924,0.0023650831401629633
2925,0.0029382929943731996
2926,-0.0013471675316101886
2927,-0.00956689203575662
2928,-0.019087602237546242
2929,-0.027339262269816915
2930,-0.03330467630035491
2931,-0.03752121768419453
2932,-0.04073666579744418
2933,-0.04256745104078448
2934,-0.041531784679549745
2935,-0.03660749418249358
2936,-0.028999086159832554
2937,-0.02238190934858744
2938,-0.021004244139736693
2939,-0.026850544587909697
2940,-0.03805510826011478
2941,-0.049942497221667256
2942,-0.05800755596635876
2943,-0.060545760342939965
2944,-0.05893950139791519
2945,-0.05561774720530656
2946,-0.05169474732961871
2947,-0.04646449573341864
2948,-0.0390966728998525
2949,-0.03072802025341561
2950,-0.02469714085457136
2951,-0.024396196381190033
2952,-0.030514424965140785
2953,-0.04014392905743429
2954,-0.048618800526004376
2955,-0.052553096274640984
2956,-0.051582413964307884
2957,-0.047641317006517435
2958,-0.04287509771411108
2959,-0.038297737179941053
2960,-0.03420279654876822
2961,-0.03137211940922265
2962,-0.03135619482688573
2963,-0.035260830579885966
2964,-0.04227140148856324
2965,-0.04963436734720208
2966,-0.05443100034476864
2967,-0.055630815459947046
2968,-0.05452719626157082
2969,-0.05318106386456088
2970,-0.052424364865281896
2971,-0.051370021739544094
2972,-0.04884377614767291
2973,-0.04522578250708674
2974,-0.042776129679403044
2975,-0.04400184513273879
2976,-0.04952298202668527
2977,-0.05737377331438103
2978,-0.064335806593143
2979,-0.06809468809247718
2980,-0.06843552315685648
2981,-0.0667468997620205
2982,-0.06463614161168968
2983,-0.06301436847187375
2984,-0.0622407355768429
2985,-0.06276922869051371
2986,-0.06537182175609454
2987,-0.07063497018811844
2988,-0.07825402142202588
2989,-0.08682750749484985
2990,-0.09432715961582772
2991,-0.09885228787081829
2992,-0.09923023908368889
2993,-0.09536962678472136
2994,-0.08845966502231237
2995,-0.08090233197947763
2996,-0.07564838589879355
2997,-0.0748918899744167
2998,-0.07877527819656716
2999,-0.08512967657824565
3000,-0.0907063767061246
3001,-0.09314409577826219
3002,-0.09216344246180448
3003,-0.0890360558675872
3004,-0.08488567871646208
3005,-0.07947159728892142
3006,-0.07167216544571695
3007,-0.06123347967990426
3008,-0.05001744699760763
3009,-0.04130982485395642
3010,-0.037524275761997225
3011,-0.03822663412168421
3012,-0.04026761336580087
3013,-0.040013983828095706
3014,-0.03584361839156823
3015,-0.028891078947470658
3016,-0.021625074463995555
3017,-0.015695225450095388
3018,-0.010928694926159555
3019,-0.006115772597125587
3020,-0.0005849902422114673
3021,0.0049518582740778055
3022,0.008906366232316137
3023,0.010019765854335446
3024,0.008190795781100393
3025,0.004459961002555323
3026,0.0004933533769869982
3027,-0.0019302150734539802
3028,-0.001357939557766493
3029,0.0027544886907651025
3030,0.00940551425701697
3031,0.01594317308130324
3032,0.01900336916555371
3033,0.016189986554743817
3034,0.007401398895535066
3035,-0.005183977536496869
3036,-0.018417796428951
3037,-0.029738076722567765
3038,-0.03789675228409667
3039,-0.04269750892946335
3040,-0.044455855518415875
3041,-0.043867334425516144
3042,-0.042210254334727575
3043,-0.04126412990995248
3044,-0.04263339417519447
3045,-0.04693901420186013
3046,-0.05362991913072779
3047,-0.06157407128079037
3048,-0.06976347112350251
3049,-0.0773798472886938
3050,-0.08328032027130775
3051,-0.08577567775839842
3052,-0.0833961537250712
3053,-0.07623643903048277
3054,-0.0665993242616286
3055,-0.058051917678782775
3056,-0.053421579490721974
3057,-0.05331475220438518
3058,-0.05632820997417348
3059,-0.06058250242813195
3060,-0.06504275531452926
3061,-0.06945761521172533
3062,-0.07325876006965293
3063,-0.0748748182838174
3064,-0.07248275841877633
3065,-0.06566864441180931
3066,-0.05637346328796919
3067,-0.0480048526361026
3068,-0.043270822943469456
3069,-0.04253429797228675
3070,-0.044075969397407315
3071,-0.045935668553903894
3072,-0.04757330152003132
3073,-0.0497960489311261
3074,-0.05307423372858207
3075,-0.05597746074901442
3076,-0.05548965067842612
3077,-0.04930066247307591
3078,-0.03825789335049719
3079,-0.026733657957618766
3080,-0.020221163328493684
3081,-0.02177355128860126
3082,-0.029985461513697208
3083,-0.040090238637919114
3084,-0.04729204503865163
3085,-0.04972153503043546
3086,-0.04884927542103218
3087,-0.04738924004747064
3088,-0.0467434927761545
3089,-0.04616318514664282
3090,-0.0440601769773069
3091,-0.03997596692899269
3092,-0.0353296483832911
3093,-0.032408169138308095
3094,-0.03270448274690055
3095,-0.036097435822065045
3096,-0.04131385481046687
3097,-0.0468597346699138
3098,-0.05143601288225802
3099,-0.053769862687071436
3100,-0.052621605640324115
3101,-0.04748408395967178
3102,-0.039472785974092504
3103,-0.03134384733631858
3104,-0.026233154448314273
3105,-0.025969514333116908
3106,-0.030321659824613247
3107,-0.03767985412161161
3108,-0.046304149722723016
3109,-0.05484330096710634
3110,-0.06181339223939285
3111,-0.06506068551971866
3112,-0.062412587803330685
3113,-0.05343213694951701
3114,-0.040730567148140995
3115,-0.029269650800419586
3116,-0.023724938285643708
3117,-0.02578677628444298
3118,-0.03348209403155668
3119,-0.04293235852280956
3120,-0.050951162996157706
3121,-0.05637659641028979
3122,-0.05941377666371284
3123,-0.0601280257340832
3124,-0.05781054781959287
3125,-0.05181671203177924
3126,-0.04288815770089134
3127,-0.033495798073044966
3128,-0.026745083844409545
3129,-0.024757302678031477
3130,-0.027814275755625152
3131,-0.03468163319513838
3132,-0.04342955283863452
3133,-0.05189354616437741
3134,-0.057720433392780914
3135,-0.058703066057591506
3136,-0.0538609765581507
3137,-0.044656804154899775
3138,-0.03503813227391312
3139,-0.02961590633669933
3140,-0.030888481494946773
3141,-0.03754515175625523
3142,-0.04533893379425136
3143,-0.05006584493148015
3144,-0.050430451638472804
3145,-0.048573757178093854
3146,-0.047889685995513145
3147,-0.049954351459483806
3148,-0.053100023544117976
3149,-0.05378950110242889
3150,-0.04963855155954883
3151,-0.04160808817400512
3152,-0.0336030527891597
3153,-0.0298262354683938
3154,-0.031979119720223964
3155,-0.03839484906034819
3156,-0.04554222837671618
3157,-0.05048922743111885
3158,-0.05236580424371985
3159,-0.051949605875583844
3160,-0.05016617695990287
3161,-0.047089508843239494
3162,-0.042339170414063695
3163,-0.03631883374727457
3164,-0.030889690576319684
3165,-0.028591408398312226
3166,-0.030915392146587138
3167,-0.0370988660473128
3168,-0.04453158084209948
3169,-0.050473650681990036
3170,-0.05364396058226113
3171,-0.05440900392940442
3172,-0.05362674705353341
3173,-0.05143875883974812
3174,-0.047283830554373435
3175,-0.041138626918228435
3176,-0.03468228148679567
3177,-0.03100651499981336
3178,-0.0327713848654089
3179,-0.04017222300218057
3180,-0.050380309312736446
3181,-0.05897364775260965
3182,-0.06232403994665217
3183,-0.05929459948278232
3184,-0.05133312227452856
3185,-0.041320662216514634
3186,-0.03221505491157142
3187,-0.026228533215402756
3188,-0.02456316373618295
3189,-0.027378713367660085
3190,-0.033854198593650575
3191,-0.042459960465462666
3192,-0.051459518731904755
3193,-0.05935333494718982
3194,-0.0649486724584265
3195,-0.06714951768079552
3196,-0.06496738540841589
3197,-0.05810120551335842
3198,-0.04775226751674487
3199,-0.0368205338415484
3200,-0.02892180481989903
3201,-0.026636566703440678
3202,-0.030173760714632285
3203,-0.03742880161222974
3204,-0.045350513689648125
3205,-0.051538407561603036
3206,-0.054945742470234996
3207,-0.05546178355949885
3208,-0.053133520260081536
3209,-0.04797112465755789
3210,-0.040542953154438635
3211,-0.032638684978488014
3212,-0.02705986513483894
3213,-0.02632659648457589
3214,-0.03113335786901406
3215,-0.03978307581293843
3216,-0.049144834554745706
3217,-0.05644652527226461
3218,-0.060513728374001374
3219,-0.06158065836810656
3220,-0.06012127980928822
3221,-0.056054082232376026
3222,-0.04924042160801434
3223,-0.04076196049491275
3224,-0.033435916804417015
3225,-0.030561150304331153
3226,-0.03363143008485807
3227,-0.041020389000746324
3228,-0.049026517311215295
3229,-0.05455686143483706
3230,-0.057118085773608517
3231,-0.058349906505295486
3232,-0.05966349662954959
3233,-0.060392596699802514
3234,-0.058347650352570196
3235,-0.0522349923685162
3236,-0.043477174663158494
3237,-0.035512727279048834
3238,-0.031143138658954107
3239,-0.030423476685118293
3240,-0.03102518252087245
3241,-0.030553517608277327
3242,-0.028484160538993684
3243,-0.025982990177246396
3244,-0.024148458973803626
3245,-0.022753621482456014
3246,-0.02083616577758677
3247,-0.01838569815647086
3248,-0.01717764103625667
3249,-0.019712051210879225
3250,-0.0271842039710123
3251,-0.03835635985608858
3252,-0.05022609645949497
3253,-0.05964220057931287
3254,-0.0643459931237288
3255,-0.06287626560983625
3256,-0.054164310523140344
3257,-0.037898898151059124
3258,-0.015632315925079337
3259,0.008588147014895745
3260,0.02918085038252302
3261,0.041322554148814944
3262,0.043010420665386837
3263,0.03540554397847814
3264,0.02138971035335626
3265,0.003712704653936761
3266,-0.01574083805412481
3267,-0.03527961607967414
3268,-0.05249320997021373
3269,-0.06453670316224178
3270,-0.06982868959261723
3271,-0.06975187225782273
3272,-0.06850815285551412
3273,-0.07068437288549012
3274,-0.07826564698385687
3275,-0.08974378931174554
3276,-0.10241589372646129
3277,-0.1159954659395254
3278,-0.133971682094661
3279,-0.1607120776031049
3280,-0.19617810560623616
3281,-0.23286195562813597
3282,-0.2582710472121245
3283,-0.26169184323948946
3284,-0.24017062241348178
3285,-0.19941185124363708
3286,-0.15009921833857115
3287,-0.1042642116003076
3288,-0.07534635686787601
3289,-0.08016528055709139
3290,-0.1368461009920276
3291,-0.2550883484957982
3292,-0.423119696915327
3293,-0.6020073630974508
3294,-0.7356392027032852
3295,-0.7738822529664034
3296,-0.6955526074000851
3297,-0.5163879148887169
3298,-0.2772090967405339
3299,-0.02119421009381468
3300,0.2242458923780814
3301,0.45084060640975354
3302,0.6599572856740537
3303,0.8506591580511969
3304,1.0147270007407132
3305,1.140031387771296
3306,1.2166183714434655
3307,1.2395305935759864
3308,1.20748150000815
3309,1.1210587385983413
3310,0.9837315471251237
3311,0.8047230136205725
3312,0.5997369100327596
3313,0.38704581843830577
3314,0.1810655463849732
3315,-0.011485032553509848
3316,-0.1895752417848105
3317,-0.3518257328329049
3318,-0.4918564571776385
3319,-0.5991839735690914
3320,-0.6649255774077136
3321,-0.6874899522296535
3322,-0.6737204137593527
3323,-0.635026011304821
3324,-0.5820020336324814
3325,-0.521508852428917
3326,-0.45727499967548346
3327,-0.39196036550253266
3328,-0.3281383090378068
3329,-0.2677426085170752
3330,-0.2115675416499247
3331,-0.16018303594932198
3332,-0.11557177550436887
3333,-0.08139409552797307
3334,-0.06081382750238451
3335,-0.05338543620341131
3336,-0.05393023442813157
3337,-0.05493484869272175
3338,-0.05091576775822405
3339,-0.041316481999436175
3340,-0.029677900534794854
3341,-0.020011510789209097
3342,-0.01359057096395968
3343,-0.008747449532981812
3344,-0.0034432611579894327
3345,0.002003344772269259
3346,0.004548530758317966
3347,0.0006997904026232716
3348,-0.010524587456176421
3349,-0.026314248224410884
3350,-0.04133712127144755
3351,-0.05053678949412073
3352,-0.051594930070498556
3353,-0.045731667973979206
3354,-0.0366987683339773
3355,-0.028770089011769178
3356,-0.02486479065575174
3357,-0.025700330956138828
3358,-0.030241234187454107
3359,-0.0369312411010207
3360,-0.04469658307352738
3361,-0.05293501424467777
3362,-0.06064066062863654
3363,-0.06573471804397871
3364,-0.06565746602499448
3365,-0.05914650939816708
3366,-0.047816808110875644
3367,-0.03596964403850874
3368,-0.028370236502642407
3369,-0.027487111069897076
3370,-0.03227728343136512
3371,-0.03940137912552162
3372,-0.04577542367113206
3373,-0.05035611409154023
3374,-0.05387555875734722
3375,-0.057092271245572514
3376,-0.05933983010761112
3377,-0.058733723452553836
3378,-0.053842097862541516
3379,-0.04535473873175984
3380,-0.03631896338174802
3381,-0.03068046231338884
3382,-0.031131115832769923
3383,-0.03768392082662057
3384,-0.04780044050704939
3385,-0.057844594398001416
3386,-0.06486709841015312
3387,-0.0676672639761006
3388,-0.06668181782533042
3389,-0.06307613995872254
3390,-0.057896408549640246
3391,-0.05193318419560815
3392,-0.04621127205512692
3393,-0.04237397262223834
3394,-0.04228238785841794
3395,-0.04691309651281185
3396,-0.05542696450364191
3397,-0.065309144688624
3398,-0.07363626523001382
3399,-0.07856519206984022
3400,-0.07997072520292983
3401,-0.07894493810515069
3402,-0.07683461709015399
3403,-0.0747067327718632
3404,-0.0734673277279087
3405,-0.07409463614489514
3406,-0.07740800865830755
3407,-0.0834638477288471
3408,-0.09123963334689458
3409,-0.09906027133968898
3410,-0.10545776510937149
3411,-0.10970044925331403
3412,-0.11160305299131011
3413,-0.11101343369120405
3414,-0.10768140575884992
3415,-0.10170757162924496
3416,-0.09403501675601256
3417,-0.0863284037098832
3418,-0.08021388422543427
3419,-0.0765078026160462
3420,-0.07501756323764142
3421,-0.07486288251737445
3422,-0.07482559469365177
3423,-0.07349089887811228
3424,-0.06948149194210101
3425,-0.06210793188215864
3426,-0.052110135167623126
3427,-0.041644559864943725
3428,-0.033116529421759466
3429,-0.027622873126442696
3430,-0.024408929970029903
3431,-0.02195013634627447
3432,-0.01964820001338886
3433,-0.018363974209405574
3434,-0.01908066842591791
3435,-0.020981722109110083
3436,-0.02108611822119285
3437,-0.016247589290377604
3438,-0.005964436156029323
3439,0.00658962382974378
3440,0.01645970367734559
3441,0.02024632845883363
3442,0.018098712410211847
3443,0.012844967579256971
3444,0.007324074804741134
3445,0.002421162439193386
3446,-0.002650288316582424
3447,-0.008524003034177816
3448,-0.014341101859633852
3449,-0.01819774619620035
3450,-0.018841485655164636
3451,-0.016968277903577102
3452,-0.015001819178309478
3453,-0.015657027692250365
3454,-0.02048233881508294
3455,-0.029297700093092873
3456,-0.040554226862495366
3457,-0.05207884528727081
3458,-0.06176236802881307
3459,-0.06809005532874593
3460,-0.07051903690173036
3461,-0.06958324595536713
3462,-0.06660159136530974
3463,-0.06311646221696524
3464,-0.060418164276241124
3465,-0.05939699091426372
3466,-0.060595696307588154
3467,-0.06413973731837107
3468,-0.06946498332354728
3469,-0.07517883945440057
3470,-0.07946012809694467
3471,-0.08094169859189762
3472,-0.07945501922130611
3473,-0.07598058978953091
3474,-0.07179182953321873
3475,-0.06754379934908214
3476,-0.06316988785533902
3477,-0.05870270911833151
3478,-0.05516976285088818
3479,-0.054477334700993627
3480,-0.058039384966744864
3481,-0.06516650953158282
3482,-0.07273390456831796
3483,-0.07678051251413215
3484,-0.07506103995917976
3485,-0.06859041793302764
3486,-0.06087303340175852
3487,-0.05537234026855737
3488,-0.053260313420828306
3489,-0.05322289277102454
3490,-0.053254619563991426
3491,-0.05261578618540874
3492,-0.05210135912478445
3493,-0.0525221894464986
3494,-0.05313223340787104
3495,-0.05181815896122301
3496,-0.04706614061973252
3497,-0.03980810171134303
3498,-0.03318974464390641
3499,-0.03025412917096546
3500,-0.03160539408509228
3501,-0.035217617521041356
3502,-0.03851788874356093
3503,-0.04068546212815264
3504,-0.04294715154542732
3505,-0.046679889596133686
3506,-0.05132707405202954
3507,-0.054305867644791
3508,-0.05308112104694498
3509,-0.047428764010853205
3510,-0.03974188419737608
3511,-0.03316157088486668
3512,-0.029376093217861388
3513,-0.028099800731371388
3514,-0.028445460908622437
3515,-0.030510670344639935
3516,-0.0353904453330871
3517,-0.043538728578007634
3518,-0.05317624608978501
3519,-0.0605321571306442
3520,-0.06205183569608015
3521,-0.05688946709596295
3522,-0.04768498670807737
3523,-0.039007434821354055
3524,-0.034653479600893086
3525,-0.035724193111300054
3526,-0.040626565050615564
3527,-0.046662206510355006
3528,-0.051860601005086264
3529,-0.05579555276377696
3530,-0.05903070591233972
3531,-0.061841074600624366
3532,-0.06331392397794731
3533,-0.06161859203431499
3534,-0.05537419768781021
3535,-0.045174826502506225
3536,-0.03405855918303723
3537,-0.026321109889769066
3538,-0.025249038288842576
3539,-0.031235256523066295
3540,-0.041580823943133054
3541,-0.05209977846900407
3542,-0.0593355151701714
3543,-0.06185403563086998
3544,-0.059989048565508046
3545,-0.05474518236663939
3546,-0.04710120574167607
3547,-0.03824531027035204
3548,-0.030094717477008776
3549,-0.025054207413516785
3550,-0.02480066685297981
3551,-0.029082994806780223
3552,-0.03577041070451438
3553,-0.042281595619358445
3554,-0.04714542876041141
3555,-0.05026628545659068
3556,-0.05181146138765055
3557,-0.051169558466866355
3558,-0.0474483127504386
3559,-0.04126444332154182
3560,-0.03582807123899352
3561,-0.035542286060706516
3562,-0.042662579764471215
3563,-0.054834737958252784
3564,-0.06609785596251232
3565,-0.07102701866214951
3566,-0.06867632019558362
3567,-0.06285687075440602
3568,-0.05843945729075232
3569,-0.05699119014772008
3570,-0.0557049856492897
3571,-0.05054970336733073
3572,-0.04066336081520326
3573,-0.029898756372105734
3574,-0.02410721345500462
3575,-0.026616361065066808
3576,-0.03580790589333593
3577,-0.046575174368801854
3578,-0.053985208591272635
3579,-0.05594749330585451
3580,-0.0531978261979421
3581,-0.04756493935009
3582,-0.04063021563052424
3583,-0.03375222636522335
3584,-0.028629644047818113
3585,-0.0271252220378802
3586,-0.03021978428398854
3587,-0.03717728082923562
3588,-0.0458562442809408
3589,-0.05386615741787767
3590,-0.059447857575726085
3591,-0.061483288020447266
3592,-0.05920075642652807
3593,-0.052478356270492514
3594,-0.04270634274646827
3595,-0.03307849120316041
3596,-0.027365659604050067
3597,-0.027706392741329636
3598,-0.03320009777740805
3599,-0.04064512734900919
3600,-0.04688516692530773
3601,-0.050737286722281144
3602,-0.05290342097963011
3603,-0.05423261620854288
3604,-0.05426071804680214
3605,-0.0515664036521245
3606,-0.045567637502202454
3607,-0.03787791282075753
3608,-0.03173434528720337
3609,-0.02987530183437731
3610,-0.032727003937649324
3611,-0.03843660299019279
3612,-0.04454534948614401
3613,-0.04965219562727391
3614,-0.053620305538862975
3615,-0.056429975939556364
3616,-0.057123906436155586
3617,-0.05414827249908953
3618,-0.04694849690030441
3619,-0.03733279552861905
3620,-0.029142369458690996
3621,-0.026162062926847345
3622,-0.029741070089924795
3623,-0.03793024237600065
3624,-0.046786473416881386
3625,-0.052818642010195774
3626,-0.05474311434807202
3627,-0.053414404979263516
3628,-0.05036013360558669
3629,-0.04642284840640583
3630,-0.041693306325434776
3631,-0.03654800870938121
3632,-0.032474237231583554
3633,-0.03155706901360775
3634,-0.034864336881463724
3635,-0.04119844095817839
3636,-0.047545557768389944
3637,-0.05107000511139949
3638,-0.0510317398277936
3639,-0.04897811855148146
3640,-0.04708093450479435
3641,-0.04616365003335053
3642,-0.04520857325596379
3643,-0.0427117864887955
3644,-0.03852347953451106
3645,-0.034409172880954825
3646,-0.03282668199467575
3647,-0.03507221798400712
3648,-0.04042909961386509
3649,-0.04689698354841104
3650,-0.05262046446218137
3651,-0.056689017511378295
3652,-0.05884408719567932
3653,-0.05879643424261799
3654,-0.056131595123826136
3655,-0.05097968348490916
3656,-0.04466972385592844
3657,-0.03948230644544165
3658,-0.03744618032173519
3659,-0.03905670915014572
3660,-0.04294543689695045
3661,-0.04679624251153702
3662,-0.048848925778562174
3663,-0.04892568571765965
3664,-0.048301995321572914
3665,-0.048565628456253424
3666,-0.050284797460730446
3667,-0.05242988705495111
3668,-0.05300067607180743
3669,-0.05048528870987483
3670,-0.04512725798864463
3671,-0.03899315208967691
3672,-0.03462509319492184
3673,-0.03315263697086844
3674,-0.0332978362297324
3675,-0.032186469336754994
3676,-0.027549278287221503
3677,-0.019742829117037435
3678,-0.011996984693777076
3679,-0.008525838451549337
3680,-0.011748381794059685
3681,-0.02062235165385363
3682,-0.0313574582314613
3683,-0.04001772066231937
3684,-0.04504619471715714
3685,-0.047729097301520564
3686,-0.05020299742199065
3687,-0.05265560776567634
3688,-0.052214305664806906
3689,-0.044788148905109404
3690,-0.028643353554120964
3691,-0.006795393762503504
3692,0.013994635141712087
3693,0.027103284314359245
3694,0.02982588201739149
3695,0.024129463817651478
3696,0.014092513347571316
3697,0.0025973801127528503
3698,-0.009768672701258498
3699,-0.0230677654869779
3700,-0.03589396755863203
3701,-0.04541429135170719
3702,-0.049748585698623685
3703,-0.05018118497487668
3704,-0.050649715981918565
3705,-0.054690073935906275
3706,-0.06269251860212385
3707,-0.07207388048793914
3708,-0.07999709535842515
3709,-0.08571806186374376
3710,-0.09027004213799925
3711,-0.0943257388203031
3712,-0.09721670089850601
3713,-0.09871335636223692
3714,-0.1016350744302309
3715,-0.11164587543211535
3716,-0.13300659807525567
3717,-0.16345284551882544
3718,-0.19310810535762352
3719,-0.2091741243558819
3720,-0.20290899439100588
3721,-0.17340218550130404
3722,-0.1261181076362376
3723,-0.06960815818169547
3724,-0.01527833493268596
3725,0.01943596533816628
3726,0.010214698292414184
3727,-0.0663377977745637
3728,-0.2170003924677671
3729,-0.4183631945514295
3730,-0.6176852180961317
3731,-0.7520300891550342
3732,-0.7760489363079142
3733,-0.6813047810003952
3734,-0.4952771818498743
3735,-0.26237452456185484
3736,-0.02114804391239645
3737,0.20766532506618496
3738,0.4179716815763338
3739,0.60745095273177
3740,0.7700643029127785
3741,0.8970114148817057
3742,0.9823834902154254
3743,1.0263168336012685
3744,1.0325131552324534
3745,1.0034397730086368
3746,0.9386844259757015
3747,0.8381302507034452
3748,0.7062633035292951
3749,0.5526654911828404
3750,0.387730385392951
3751,0.2176641851005349
3752,0.04379709730870625
3753,-0.1327887824399937
3754,-0.30536320614416035
3755,-0.45975701636130334
3756,-0.5786140243238174
3757,-0.6487549938954579
3758,-0.6666593503267932
3759,-0.6390577686015835
3760,-0.5793330956167693
3761,-0.5026277455430683
3762,-0.42211543736367435
3763,-0.34716257468297906
3764,-0.28295311055606953
3765,-0.23108781077795873
3766,-0.19087771354754515
3767,-0.16082967754687755
3768,-0.13949481148744836
3769,-0.12518474205528018
3770,-0.11508129053647634
3771,-0.10501488668391383
3772,-0.0907558480350181
3773,-0.07027424171834407
3774,-0.045324201897363164
3775,-0.020958460437472112
3776,-0.0030252351176820597
3777,0.004852075762296508
3778,0.0029818249877178104
3779,-0.004904666592204144
3780,-0.01387116311914391
3781,-0.020261713632150808
3782,-0.023025508189225146
3783,-0.02328848592489835
3784,-0.022710937198955304
3785,-0.021935759265931207
3786,-0.020311973695101564
3787,-0.017055459329779487
3788,-0.012772859654736738
3789,-0.009852638181778204
3790,-0.011121910052325802
3791,-0.017727100906180394
3792,-0.028027039320740986
3793,-0.038520568026700924
3794,-0.04607494023358515
3795,-0.04960006006853185
3796,-0.04991657238254138
3797,-0.04830331556339719
3798,-0.045354341807002034
3799,-0.04120821107415725
3800,-0.03659412529802632
3801,-0.03322649562792428
3802,-0.0328483623988582
3803,-0.03581117669555113
3804,-0.04070337672532558
3805,-0.04546625238432276
3806,-0.04882604670412201
3807,-0.050546298161893155
3808,-0.050401749429770916
3809,-0.04737096890277987
3810,-0.04045991147939177
3811,-0.030693002573870955
3812,-0.022093815171015194
3813,-0.01994340475685084
3814,-0.027105513710270156
3815,-0.041373820791959046
3816,-0.056351409146984
3817,-0.06549525212937271
3818,-0.06623210870848868
3819,-0.06099214251161533
3820,-0.0546431396118152
3821,-0.050710791085559995
3822,-0.04941975486612638
3823,-0.04868238934104448
3824,-0.04665006874950605
3825,-0.04350519373349988
3826,-0.04126287962214915
3827,-0.042131148177606006
3828,-0.04687525820263343
3829,-0.05424086051097721
3830,-0.06156297394143066
3831,-0.06606320268759107
3832,-0.06619806964255387
3833,-0.06248039298821909
3834,-0.057331832188867504
3835,-0.05390163883493595
3836,-0.054419613536948006
3837,-0.059098002772868335
3838,-0.06632711326153934
3839,-0.07396980160178493
3840,-0.08070525147532565
3841,-0.0863896870206029
3842,-0.09130592886325453
3843,-0.09514978415004394
3844,-0.09677634749836413
3845,-0.09499015118143188
3846,-0.08971526562540805
3847,-0.08254735692687265
3848,-0.0761909313382243
3849,-0.07314193486559273
3850,-0.07449880219326721
3851,-0.07962832243008981
3852,-0.08676174940091871
3853,-0.0939542637681001
3854,-0.09967424860650627
3855,-0.10272094319335137
3856,-0.10186122385928871
3857,-0.09591680000058544
3858,-0.08462152727397451
3859,-0.06966226257823324
3860,-0.05476195084485873
3861,-0.04416885019134566
3862,-0.040258605006562045
3863,-0.04197586196871804
3864,-0.045456082400718606
3865,-0.046503301894413915
3866,-0.043065013336603265
3867,-0.035871173940117636
3868,-0.02702204577247505
3869,-0.018032682931361715
3870,-0.009085773476675928
3871,0.00012245044231096094
3872,0.0091093716975377
3873,0.016303829576395465
3874,0.01995558090313937
3875,0.019282405655269348
3876,0.014842628984529791
3877,0.008102110851287023
3878,0.000918551980229617
3879,-0.0046386950000676915
3880,-0.0065449257684937956
3881,-0.003705640593632923
3882,0.0028771178756322817
3883,0.009894999562828799
3884,0.013297937975785261
3885,0.010809951569859923
3886,0.0033423146479567567
3887,-0.006061770896367341
3888,-0.014898753079177506
3889,-0.023021428707749415
3890,-0.031868057724098245
3891,-0.041916918857438576
3892,-0.05105052992866486
3893,-0.055746708684705555
3894,-0.054233963507027146
3895,-0.04866262229789882
3896,-0.044071866386894226
3897,-0.044854648958940854
3898,-0.05173723112902049
3899,-0.061777389269947094
3900,-0.07108338020277015
3901,-0.07759449546430668
3902,-0.08154612591887134
3903,-0.08371706431954368
3904,-0.08368059877290707
3905,-0.08000930670518899
3906,-0.07215935789710888
3907,-0.061938859361473864
3908,-0.05287580534192565
3909,-0.047939603276981164
3910,-0.04771283996524646
3911,-0.050618205015804565
3912,-0.054749036196792854
3913,-0.05935021170694367
3914,-0.06453270736041695
3915,-0.06975882480253344
3916,-0.07297161186531344
3917,-0.07159993658358928
3918,-0.06471391979630996
3919,-0.05431153501943411
3920,-0.044389685656073125
3921,-0.03844599395051223
3922,-0.037457428660475314
3923,-0.03988670044895107
3924,-0.043414155798613914
3925,-0.04666041412021289
3926,-0.04943543613097817
3927,-0.051632445279526894
3928,-0.052201308269478344
3929,-0.049465291436001806
3930,-0.042641318586140835
3931,-0.03317035099282821
3932,-0.024524708149707912
3933,-0.020431950266851247
3934,-0.022767114065114676
3935,-0.030596024507116584
3936,-0.04090053605810008
3937,-0.05027566496597635
3938,-0.05637631708962436
3939,-0.05837620626757286
3940,-0.056597845951250204
3941,-0.05196671842587837
3942,-0.04573555649710672
3943,-0.039397795691392026
3944,-0.034466970314138465
3945,-0.03204241184526676
3946,-0.032458555301432636
3947,-0.03533687186190488
3948,-0.03996091542347868
3949,-0.04553064660223432
3950,-0.05099998745040145
3951,-0.05478239483078527
3952,-0.05498178372871873
3953,-0.05042111029941599
3954,-0.0418335588488257
3955,-0.032069327194213
3956,-0.024759231448778278
3957,-0.022211719163140086
3958,-0.024165881335975442
3959,-0.028435920293033407
3960,-0.03285632596673339
3961,-0.03676982239708198
3962,-0.040768875646271296
3963,-0.04512413295056749
3964,-0.04864442067189645
3965,-0.0492819613911411
3966,-0.04600881834514672
3967,-0.04012078431551469
3968,-0.034580961447755035
3969,-0.03188926714898989
3970,-0.032404549573161155
3971,-0.03460748802194372
3972,-0.03690264435945917
3973,-0.039096141267144384
3974,-0.04209724862481897
3975,-0.04624671648801125
3976,-0.05010847554501187
3977,-0.05114547924731716
3978,-0.04784358390296476
3979,-0.04136736901680338
3980,-0.03515733603252427
3981,-0.03269284685550254
3982,-0.03524178379873501
3983,-0.041355744031157826
3984,-0.04829247176590298
3985,-0.05395479867540678
3986,-0.057726065100727364
3987,-0.05979990129366946
3988,-0.0600148114459406
3989,-0.057519975162821764
3990,-0.05163786334222846
3991,-0.04304728603314362
3992,-0.03406210850714031
3993,-0.027596381984027606
3994,-0.025577565173255896
3995,-0.02801696187504457
3996,-0.03332515764638353
3997,-0.03941275528888355
3998,-0.044614869010682554
3999,-0.04789269133293916
4000,-0.04857801190613209
4001,-0.046297716497228955
4002,-0.0413319456921213
4003,-0.03499884812738129
4004,-0.029459406347306077
4005,-0.02682376381077286
4006,-0.028119906092377772
4007,-0.0328685437616095
4008,-0.03952112641127706
4009,-0.046342698019292194
4010,-0.052076659097749584
4011,-0.0560606095378911
4012,-0.05797285817151378
4013,-0.05760183880707792
4014,-0.0548568913850382
4015,-0.04995755237095313
4016,-0.0436214902196806
4017,-0.03711653439040241
4018,-0.03209728248021207
4019,-0.030168458937671155
4020,-0.032219722527111694
4021,-0.03779789332061262
4022,-0.044939944529729034
4023,-0.05074474384041378
4024,-0.0525308943057914
4025,-0.04903200683786335
4026,-0.04103601503925712
4027,-0.031180481191459903
4028,-0.02300145673807288
4029,-0.01957985366924079
4030,-0.022255209116320722
4031,-0.029954972081990647
4032,-0.03959643319635463
4033,-0.04755119341476481
4034,-0.05143568684517498
4035,-0.0510836476362181
4036,-0.04802382612739882
4037,-0.04394767356314469
4038,-0.039528775593199464
4039,-0.03463271035555308
4040,-0.029598387130206343
4041,-0.026135169970291958
4042,-0.026648055378016892
4043,-0.03233026143857841
4044,-0.041703185908501
4045,-0.05107680153677843
4046,-0.05675979698775878
4047,-0.05729355129626372
4048,-0.053970247841355824
4049,-0.049400110452308334
4050,-0.045486597336628146
4051,-0.042450481504277895
4052,-0.03943246968057156
4053,-0.035854445727629206
4054,-0.03229291192566755
4055,-0.030255435042123482
4056,-0.031178053094416174
4057,-0.03540636622597711
4058,-0.04176170445153878
4059,-0.04788864793839339
4060,-0.05123145741345621
4061,-0.05022484437316509
4062,-0.045111782938414544
4063,-0.03788423908672839
4064,-0.03130762976823907
4065,-0.027600516316075633
4066,-0.027588845357547805
4067,-0.03076856596213064
4068,-0.0360085447378112
4069,-0.042232478090601926
4070,-0.04863341432862234
4071,-0.0544903342568542
4072,-0.0589480408636798
4073,-0.06101648505580519
4074,-0.05981069240831255
4075,-0.054959431998839715
4076,-0.04709269862810397
4077,-0.038166447134748815
4078,-0.03119170777662486
4079,-0.02910084997441368
4080,-0.03315080995027807
4081,-0.04191631470865806
4082,-0.05178657138887628
4083,-0.05881242352822661
4084,-0.06062942654730933
4085,-0.057112932341294144
4086,-0.04955761206704647
4087,-0.03943871855199586
4088,-0.02796218042348224
4089,-0.01655112024454624
4090,-0.0073195279025872785
4091,-0.0026226690302858374
4092,-0.0038535400028959013
4093,-0.010551191311519248
4094,-0.02062541135558773
4095,-0.031426139444878674
4096,-0.04070998303945098
4097,-0.046950121218706835
4098,-0.04929854579552575
4099,-0.04774497105475675
4100,-0.043386651744860755
4101,-0.03813548282470211
4102,-0.033565408476441974
4103,-0.029670750463431803
4104,-0.02479302259410618
4105,-0.01708832136499562
4106,-0.00638330288740813
4107,0.005287680504101552
4108,0.015031650076951014
4109,0.021108106160199966
4110,0.023735156743997954
4111,0.02401006588594342
4112,0.022102766452471386
4113,0.016557764670984396
4114,0.005443444376967625
4115,-0.011646884346713005
4116,-0.032470307677871145
4117,-0.052809980906328234
4118,-0.06844237256862448
4119,-0.07707775838140377
4120,-0.07919421759731109
4121,-0.07748536471409612
4122,-0.07537273597453122
4123,-0.0754639612153606
4124,-0.07891025764683512
4125,-0.08613446334408462
4126,-0.09831991704374185
4127,-0.11804898814768852
4128,-0.1477230152594216
4129,-0.18626731488511256
4130,-0.22675636937000473
4131,-0.25772632090651326
4132,-0.2682758240734574
4133,-0.2536604699366578
4134,-0.2173441469507575
4135,-0.16858732073491617
4136,-0.11882502580466679
4137,-0.08084778040885766
4138,-0.07074509017981273
4139,-0.10759734316169695
4140,-0.2058913886700285
4141,-0.3622441051792838
4142,-0.5458564685146106
4143,-0.7030484987319983
4144,-0.777377147617912
4145,-0.7345297637230196
4146,-0.5760850629755921
4147,-0.3336213951866681
4148,-0.0489500781045818
4149,0.24446425203758498
4150,0.5271337832802822
4151,0.7867130901579007
4152,1.0091027118085758
4153,1.1771634311624124
4154,1.2774047261717096
4155,1.306861361704613
4156,1.2729788121859174
4157,1.1870480139262534
4158,1.0580854765673147
4159,0.892700200417647
4160,0.6994602936582851
4161,0.49136955244279257
4162,0.2824771755074806
4163,0.0816203494051305
4164,-0.10977890319981837
4165,-0.2924963788673121
4166,-0.4611308516645113
4167,-0.6007797755783053
4168,-0.6930067584486281
4169,-0.7270257996426192
4170,-0.7071692737803572
4171,-0.6507615304931879
4172,-0.5784885233765642
4173,-0.5049553895978093
4174,-0.4357740110422143
4175,-0.3712435050808396
4176,-0.3115674478187771
4177,-0.258765550553327
4178,-0.21476277236782984
4179,-0.17889728072487587
4180,-0.14796072698705964
4181,-0.11874961368683758
4182,-0.09050344168628538
4183,-0.06497114064076896
4184,-0.04437269633467338
4185,-0.029446717529201222
4186,-0.019324503378087773
4187,-0.012919911246230207
4188,-0.010075565396394908
4189,-0.011187905055090479
4190,-0.015749799560246927
4191,-0.021412414419337483
4192,-0.024712091377036553
4193,-0.02307582996984172
4194,-0.016566249812756968
4195,-0.008015011658550647
4196,-0.0014443671247500365
4197,0.00010508171809027413
4198,-0.004055667128957434
4199,-0.012369818279675765
4200,-0.02223730219020853
4201,-0.031331969484857974
4202,-0.03823241493698191
4203,-0.04226982908251807
4204,-0.04312686765175405
4205,-0.040792098657367
4206,-0.03596433376098362
4207,-0.030385179457469155
4208,-0.026459744014331495
4209,-0.0261032876457765
4210,-0.029561760972706463
4211,-0.03521010664378009
4212,-0.040655808103737756
4213,-0.044356373797056016
4214,-0.046419100086169736
4215,-0.047900411410123606
4216,-0.049277763167998645
4217,-0.049590641389586305
4218,-0.04718660692907044
4219,-0.04149092392929511
4220,-0.034150312968776075
4221,-0.028354779488965885
4222,-0.026768715568386017
4223,-0.029795178797355763
4224,-0.03561194690944898
4225,-0.04180137850243415
4226,-0.046991983108685756
4227,-0.051076241248767335
4228,-0.05409119371463539
4229,-0.05521715649675687
4230,-0.05319072073534034
4231,-0.04789393326556553
4232,-0.041505543425406244
4233,-0.03779277509665363
4234,-0.03977117165623932
4235,-0.04752624978612491
4236,-0.05798618035735433
4237,-0.06683990576866239
4238,-0.07105977611432991
4239,-0.07014347011325181
4240,-0.06545075736119912
4241,-0.05864270517704566
4242,-0.05077035549845485
4243,-0.042648870132441404
4244,-0.03577174686025094
4245,-0.03248953387556829
4246,-0.03493048564697158
4247,-0.043406998767263325
4248,-0.05564738639272417
4249,-0.06760958539276365
4250,-0.07542063343047137
4251,-0.07717691410651054
4252,-0.07353287371873864
4253,-0.06693002158468887
4254,-0.060186070247549205
4255,-0.05537995365037103
4256,-0.05353014696250484
4257,-0.05492599585751974
4258,-0.05959308558422877
4259,-0.06742379308214047
4260,-0.07785682735888881
4261,-0.08940212916401591
4262,-0.09953322146633069
4263,-0.10533550750839621
4264,-0.1048001324084857
4265,-0.09806194994893314
4266,-0.08766880433522484
4267,-0.07745917917711473
4268,-0.07060038455290232
4269,-0.06806294375916969
4270,-0.06859132294677309
4271,-0.0701117383350153
4272,-0.0713721302694772
4273,-0.07245139028821641
4274,-0.073812676267874
4275,-0.0749212101413286
4276,-0.07387456263454838
4277,-0.06857453295613478
4278,-0.05851989595277779
4279,-0.045651608617226364
4280,-0.033441998268708834
4281,-0.024898222141131493
4282,-0.021014727821973698
4283,-0.020731080327975018
4284,-0.022142751090553345
4285,-0.023781044969513623
4286,-0.024976509146869275
4287,-0.02531178644520795
4288,-0.023971726342034316
4289,-0.0197524460691769
4290,-0.011791432983296487
4291,-0.0004418862627926872
4292,0.01237416823104225
4293,0.023624293268366008
4294,0.030271285515649657
4295,0.030569722275068392
4296,0.02496785600160227
4297,0.01607192440176962
4298,0.00748437898905386
4299,0.0020064121633544003
4300,0.0002884562755601268
4301,0.0008960428141228148
4302,0.0017576925492847114
4303,0.0017863405974279946
4304,0.0012322750196584714
4305,0.0004505202376295912
4306,-0.0016473394594920894
4307,-0.00767299516741944
4308,-0.0198324943407518
4309,-0.03743912195811662
4310,-0.05616736993645444
4311,-0.07008833706440487
4312,-0.07516934779169653
4313,-0.0715941350146271
4314,-0.06321065452768593
4315,-0.05478176503762768
4316,-0.049354878869855706
4317,-0.04759178055259887
4318,-0.04894028917129774
4319,-0.05301334917112856
4320,-0.05977061667762672
4321,-0.06859711412858793
4322,-0.07753883183928192
4323,-0.08372444488973599
4324,-0.08479011023364708
4325,-0.08020601453246534
4326,-0.07156220543271025
4327,-0.06175560955405236
4328,-0.05372268915768539
4329,-0.04940299487864809
4330,-0.04925630668540023
4331,-0.052363762968045645
4332,-0.057028959309300374
4333,-0.061649685503677706
4334,-0.06540251552872434
4335,-0.06826449840509895
4336,-0.0703335933153906
4337,-0.07104829003492594
4338,-0.06912123556199767
4339,-0.06345357813630081
4340,-0.05438943601401027
4341,-0.044229655244458654
4342,-0.0364007578860547
4343,-0.03369438601250263
4344,-0.03671098416525536
4345,-0.043506756792599605
4346,-0.05062612870734639
4347,-0.0548430691572345
4348,-0.05458803494465999
4349,-0.050331166014868686
4350,-0.04387522492074565
4351,-0.037162000045085145
4352,-0.031422460840673155
4353,-0.027140175954027533
4354,-0.02458579014765996
4355,-0.024198158060866774
4356,-0.026310957580820228
4357,-0.030500415010734847
4358,-0.03538251823225327
4359,-0.03933927663166958
4360,-0.04163848575397891
4361,-0.04279684483403958
4362,-0.04365145588300133
4363,-0.04400267868750307
4364,-0.04240359625604434
4365,-0.03771212183413874
4366,-0.031113474766516963
4367,-0.02640511453197696
4368,-0.02762539405938483
4369,-0.03563857140946987
4370,-0.04665218929060776
4371,-0.05431395050779729
4372,-0.05402423962059412
4373,-0.04612019947647045
4374,-0.035475391823864125
4375,-0.02800548737553581
4376,-0.026924515070348497
4377,-0.03140691538212868
4378,-0.03806143832595758
4379,-0.04351616373803339
4380,-0.04613320043480079
4381,-0.046154122084260105
4382,-0.044876650010690834
4383,-0.043709160765189395
4384,-0.04344897927419544
4385,-0.043821356268267886
4386,-0.04350007437854169
4387,-0.040921763044850616
4388,-0.035667794734592154
4389,-0.0294086496445567
4390,-0.02536518370863277
4391,-0.026314453975882855
4392,-0.03250751630585301
4393,-0.041161530529648105
4394,-0.04802757553963143
4395,-0.04990542323701708
4396,-0.046312407665876965
4397,-0.039320087898032034
4398,-0.032016312811497236
4399,-0.02686891890915303
4400,-0.02496099034298404
4401,-0.026181499247582327
4402,-0.029843536382063503
4403,-0.03519352271709881
4404,-0.041583258570087045
4405,-0.04833189596558293
4406,-0.05444328518519076
4407,-0.058464934910092484
4408,-0.05880541823156168
4409,-0.05456380556543497
4410,-0.046414154686431924
4411,-0.036784147029239864
4412,-0.028918082291864582
4413,-0.025278695780179602
4414,-0.02637241603008811
4415,-0.030819864409500703
4416,-0.03649732937160517
4417,-0.04174403048997
4418,-0.045737320880791896
4419,-0.04803958152567835
4420,-0.0481049037034479
4421,-0.045441603965221636
4422,-0.0403129001038741
4423,-0.034193588812895664
4424,-0.02935992071039174
4425,-0.027784833460562486
4426,-0.030135386506666185
4427,-0.03554795387338717
4428,-0.04218487794460775
4429,-0.04804215085412339
4430,-0.05152376552703313
4431,-0.05171879801464013
4432,-0.048574533410469106
4433,-0.04300679645696415
4434,-0.036716907948587736
4435,-0.03153573152511866
4436,-0.028548384271977006
4437,-0.02762258712554986
4438,-0.027789521345163427
4439,-0.02824128982392892
4440,-0.029106939932368393
4441,-0.03126392840423375
4442,-0.035252009533595724
4443,-0.0402104256332631
4444,-0.04387604354139714
4445,-0.04387646704821896
4446,-0.03946133699320046
4447,-0.032357196584899516
4448,-0.026021209261673672
4449,-0.023747525732502828
4450,-0.02690343594784199
4451,-0.03440918154341562
4452,-0.04361658002064216
4453,-0.051789998979435564
4454,-0.05716496519242158
4455,-0.05911368776544556
4456,-0.05771586131067062
4457,-0.053371319525323035
4458,-0.04680595612123828
4459,-0.039277885634395174
4460,-0.032521787344051326
4461,-0.028211082043528485
4462,-0.027219905768778085
4463,-0.029244063132799765
4464,-0.03310436920864203
4465,-0.037485659115540734
4466,-0.041479296111171134
4467,-0.04449501202999781
4468,-0.045765647378079
4469,-0.044173315696763665
4470,-0.0389054801853958
4471,-0.030581598584478367
4472,-0.02176507275961266
4473,-0.016019006926192177
4474,-0.015866359952055018
4475,-0.021152463618886518
4476,-0.029211387715439498
4477,-0.036789822114262606
4478,-0.04212262638029716
4479,-0.04540467758770567
4480,-0.04743316651303878
4481,-0.047993382737034594
4482,-0.04581735155981971
4483,-0.04029256014192975
4484,-0.033130132894065634
4485,-0.02797675981428309
4486,-0.027874598129382124
4487,-0.03272517820842711
4488,-0.0391873987801504
4489,-0.04329256914319774
4490,-0.04349552584565059
4491,-0.041432111714039904
4492,-0.039829222553191615
4493,-0.039713098142091896
4494,-0.03963595215054105
4495,-0.03754851600823346
4496,-0.03330517525506601
4497,-0.029232399390202033
4498,-0.028211502877111952
4499,-0.031213804995523235
4500,-0.03666649924693449
4501,-0.042070329454617736
4502,-0.04604017883529975
4503,-0.04871726037176302
4504,-0.05043247310062172
4505,-0.050440886830481826
4506,-0.04740002323341738
4507,-0.0412089132561909
4508,-0.03411781229170903
4509,-0.02957928956316032
4510,-0.02964508820027368
4511,-0.033377046336533385
4512,-0.03790043499335595
4513,-0.041129177347935
4514,-0.0434641300829373
4515,-0.04673779792620627
4516,-0.051460713656957764
4517,-0.055240938258019595
4518,-0.054224495665110284
4519,-0.046468258083417244
4520,-0.0341589634484358
4521,-0.022500044617335575
4522,-0.01607355895112089
4523,-0.015745141756370703
4524,-0.018644466775078267
4525,-0.020999006431833476
4526,-0.02119905693469546
4527,-0.020524490306151975
4528,-0.021231038210789484
4529,-0.024006189655167143
4530,-0.02715640029155528
4531,-0.02816810093412899
4532,-0.026152896906914753
4533,-0.022969148868466967
4534,-0.021972181036450295
4535,-0.025304919919280872
4536,-0.031819902714373474
4537,-0.037283174665025585
4538,-0.036853110675567735
4539,-0.02818112062566744
4540,-0.013016667035549835
4541,0.003757032356820106
4542,0.016915295522105814
4543,0.02351576750792186
4544,0.023626926701266975
4545,0.019017287423778954
4546,0.011249388867998325
4547,0.0008682599215812457
4548,-0.011888521269004373
4549,-0.025962405416397907
4550,-0.03932933188076655
4551,-0.05004666145310227
4552,-0.05731327242925812
4553,-0.061338889185073395
4554,-0.06225437556563966
4555,-0.0595972088740761
4556,-0.053433978848095066
4557,-0.04617080916376272
4558,-0.04270930599897875
4559,-0.04772656879421852
4560,-0.06185211547746896
4561,-0.0804058694673262
4562,-0.0967134413085104
4563,-0.10776411440549373
4564,-0.11708119851361516
4565,-0.13143763021640903
4566,-0.15352200382730904
4567,-0.17694338119687597
4568,-0.1886495461632371
4569,-0.17753835541859384
4570,-0.14236398204186906
4571,-0.09249244324061748
4572,-0.041569312702045016
4573,-0.0006688045880807884
4574,0.022477063086162305
4575,0.018434334334254218
4576,-0.02734534490878469
4577,-0.12892987349380128
4578,-0.28627462581355156
4579,-0.4739105692563444
4580,-0.643527216770589
4581,-0.7426220514162947
4582,-0.7386051149542046
4583,-0.6324995199074319
4584,-0.4535347976465548
4585,-0.2397957102038026
4586,-0.01933147860515569
4587,0.19632093984140336
4588,0.4053415983951849
4589,0.6045556020075045
4590,0.7840052554694794
4591,0.9299283192636483
4592,1.0312139084469978
4593,1.0828799356573442
4594,1.0847472853248932
4595,1.0386317283288662
4596,0.9479122467614051
4597,0.8195216562700685
4598,0.6649169212458406
4599,0.49730584462561134
4600,0.3265060700585697
4601,0.1558928820186214
4602,-0.015370920463327789
4603,-0.18618439241245177
4604,-0.3483985074955187
4605,-0.48708373419423795
4606,-0.5863132450458114
4607,-0.6365001558678989
4608,-0.6385325029163187
4609,-0.602604195126899
4610,-0.5432349876817634
4611,-0.47384023615653437
4612,-0.40356765440420306
4613,-0.33709380747107925
4614,-0.27631115164385156
4615,-0.22223723775012014
4616,-0.17596645182106224
4617,-0.1384663791060021
4618,-0.10985487709552572
4619,-0.08902970449219391
4620,-0.07406739472083156
4621,-0.06304815083177477
4622,-0.05456500941479475
4623,-0.047525349155570676
4624,-0.040631788087444706
4625,-0.03233898070648135
4626,-0.0216395175059115
4627,-0.009118870168788188
4628,0.0027455038853344215
4629,0.010558986174646512
4630,0.011733080156467714
