,0
0,-0.026175802290280183
1,-0.02660557780245746
2,-0.026553640219605157
3,-0.02570228608051476
4,-0.024285964312638814
5,-0.023326799050655524
6,-0.024085492929778823
7,-0.026807615692901327
8,-0.029874187244100882
9,-0.030504713938964874
10,-0.02682985995589556
11,-0.019663570993449335
12,-0.012295707141068504
13,-0.008324612110811076
14,-0.009352351728977864
15,-0.014442634503145793
16,-0.021489536003867042
17,-0.028865802621977087
18,-0.03573345129857915
19,-0.04110487290299998
20,-0.04322828560893008
21,-0.04049050253540583
22,-0.03319350293668574
23,-0.024299873775674063
24,-0.018007840594328556
25,-0.017098542378378268
26,-0.02126163761815538
27,-0.02774653363063626
28,-0.03357995210223817
29,-0.03733118269425714
30,-0.039131267362869614
31,-0.03945615750218834
32,-0.038197942161279946
33,-0.03490784478269768
34,-0.029696803088156982
35,-0.023656360298751317
36,-0.018329667453978616
37,-0.014824444263957164
38,-0.013437717108211063
39,-0.013982345007533597
40,-0.016244686698344717
41,-0.01999763169996519
42,-0.024639042287410828
43,-0.029010096399325634
44,-0.03174268311497147
45,-0.03189482415037226
46,-0.029355841893655452
47,-0.02479331698704166
48,-0.019362000301787426
49,-0.014476458702313932
50,-0.011649914528021032
51,-0.012171319987563564
52,-0.016555219180171547
53,-0.024066551781952373
54,-0.032741255107057596
55,-0.0400233583988053
56,-0.04371505699279879
57,-0.04278214767089586
58,-0.03773106450157233
59,-0.03050428576263936
60,-0.0239196154466372
61,-0.02070377464489894
62,-0.022353262384217656
63,-0.028343752595325716
64,-0.036255687058914056
65,-0.04293450540625547
66,-0.0460850788719709
67,-0.04530448278328379
68,-0.041901078458230614
69,-0.03772633330605073
70,-0.033964952283740725
71,-0.030796290515397444
72,-0.028077966152354417
73,-0.02632993181889605
74,-0.027022783278351954
75,-0.03173368107920066
76,-0.04070210921495554
77,-0.051934225847233534
78,-0.06173333869402074
79,-0.06651189444922309
80,-0.06472141473899773
81,-0.05754982020810191
82,-0.04790411576740497
83,-0.03848244349974945
84,-0.030403943670654618
85,-0.02333572854134416
86,-0.01676406152237189
87,-0.011106829827323687
88,-0.00757687028295379
89,-0.0068845841352950625
90,-0.007967836920404174
91,-0.008001026703708797
92,-0.003922268628348291
93,0.005505555595958641
94,0.018537228539353204
95,0.031017504671249894
96,0.03836334193130475
97,0.03778616343084329
98,0.029522768670443036
99,0.01649919219248929
100,0.00276815453590168
101,-0.008288172293977249
102,-0.014967521578844373
103,-0.017063950221569524
104,-0.014973420444406752
105,-0.009079030821642204
106,-6.946220763056089e-05
107,0.010146623113603755
108,0.0180622213330421
109,0.019627735498660634
110,0.012407337163589032
111,-0.002683700198971562
112,-0.021538478485401386
113,-0.03897659602696572
114,-0.05128120428304829
115,-0.057315274356638635
116,-0.05771454114167457
117,-0.05337908468887271
118,-0.044930224578177316
119,-0.03353969308865479
120,-0.021884293554815262
121,-0.013683702358187753
122,-0.011723120979299716
123,-0.015985639134114896
124,-0.023680855274536436
125,-0.03126900170204332
126,-0.03669388754105608
127,-0.03989161645812546
128,-0.04142839076178724
129,-0.04102383606709724
130,-0.03775899024046332
131,-0.03187793590102207
132,-0.02622054905650923
133,-0.02544656861785706
134,-0.033282157202802955
135,-0.049997324641028976
136,-0.07225174728927983
137,-0.09540404627020069
138,-0.11633128571601183
139,-0.13459970776096947
140,-0.15146095269235355
141,-0.16797005467000573
142,-0.18396366618032636
143,-0.19859221309230227
144,-0.21170942226304093
145,-0.2248195652780548
146,-0.24070508630691517
147,-0.2618070947436584
148,-0.2882868653563631
149,-0.31701372346477696
150,-0.3422319584688883
151,-0.35744617437193865
152,-0.3568879577871907
153,-0.33495226662904376
154,-0.28368978095166975
155,-0.19068763729322963
156,-0.040376464953168406
157,0.18008201934890833
158,0.4723056840584077
159,0.8193288543927318
160,1.1822530937746778
161,1.5019398056360895
162,1.7063119187934022
163,1.724724563145688
164,1.5099618937753956
165,1.0631246515462451
166,0.4494341042133741
167,-0.2089842904990169
168,-0.7683182821495731
169,-1.1143684102374574
170,-1.2047980103824893
171,-1.079198813869813
172,-0.8319545539213935
173,-0.5650619834524674
174,-0.3483301589145742
175,-0.2058572686703356
176,-0.1281204779330278
177,-0.09382971727759663
178,-0.08498018298214963
179,-0.0895845975908575
180,-0.09796616062689309
181,-0.10105063639001731
182,-0.09319203715262368
183,-0.07543733362007368
184,-0.05445383488225758
185,-0.03721276260055292
186,-0.026088056718946904
187,-0.018544380704281653
188,-0.010972753490038883
189,-0.0024624010398118946
190,0.004996048530565192
191,0.009375200205771561
192,0.011051332783134901
193,0.012209078759685393
194,0.014064121610561486
195,0.015061753842336385
196,0.012101988680362389
197,0.0036757262228634905
198,-0.008126158399157722
199,-0.018633034640551167
200,-0.023681499712354618
201,-0.022096471340739977
202,-0.015799880327045455
203,-0.008075979270733797
204,-0.0018296556635474023
205,0.0010308561640157813
206,-0.0004997449992287066
207,-0.006366866221174946
208,-0.014969159903329417
209,-0.02326491089001667
210,-0.028115703892502984
211,-0.028138339233288807
212,-0.024468484292686873
213,-0.01964001514445236
214,-0.01556908347044831
215,-0.012523520477877859
216,-0.009930952295499316
217,-0.007956170253372594
218,-0.007994670930229483
219,-0.011444672412071193
220,-0.01804903079020221
221,-0.02565330964066309
222,-0.03176812684398121
223,-0.03538754043592174
224,-0.037198323130547245
225,-0.03802106733132764
226,-0.03727392796655076
227,-0.03333161935982479
228,-0.025666773282606522
229,-0.01660981100429581
230,-0.010625904507183438
231,-0.011281338760254021
232,-0.01839679607560488
233,-0.027955130144284173
234,-0.03497649081905456
235,-0.036958338771291246
236,-0.03503168248662604
237,-0.032091363497983035
238,-0.029837997632549733
239,-0.027476176806310953
240,-0.023107108584159028
241,-0.016309026394963587
242,-0.00936681869272481
243,-0.005943266014975542
244,-0.008341762290857644
245,-0.01571339379595498
246,-0.024623628774995538
247,-0.0313213270163102
248,-0.03378213133563389
249,-0.032142316764510834
250,-0.02774588713642666
251,-0.02207380774295721
252,-0.016444385059142506
253,-0.012226231581184542
254,-0.010732489500837154
255,-0.012534068798122758
256,-0.016872950586704728
257,-0.02198965712990589
258,-0.02626070343310456
259,-0.02908629962639491
260,-0.030625553604447055
261,-0.03070332498268319
262,-0.02822013776327877
263,-0.022001040578390786
264,-0.01248916162392609
265,-0.0025790552166345877
266,0.0035615602546046603
267,0.003028021677903143
268,-0.0039031058900711956
269,-0.013982175075304276
270,-0.023023684570305063
271,-0.028072975464678348
272,-0.028247982393379008
273,-0.024239129261268807
274,-0.017517294657885978
275,-0.010028902729693728
276,-0.004122011624135072
277,-0.0019900464320075782
278,-0.0045846016602916284
279,-0.010886454595295693
280,-0.018412719849254845
281,-0.02473186580593672
282,-0.02871658545031023
283,-0.030478149528134234
284,-0.030258257674049847
285,-0.027616880123758188
286,-0.02189139486083333
287,-0.013463335084229717
288,-0.00437904313640213
289,0.0025838467540579505
290,0.005751022121520777
291,0.005658267107774715
292,0.004426708253651641
293,0.004010056540671792
294,0.004905870634904903
295,0.006360469885754569
296,0.007620096658693408
297,0.008878879246930722
298,0.0110464763286856
299,0.014690679867455692
300,0.01922458043787162
301,0.02300730222256038
302,0.024109109189663802
303,0.021059230300585326
304,0.013250072899742695
305,0.001188958336710277
306,-0.013248736280917814
307,-0.026915177577111392
308,-0.03636702028097264
309,-0.03960849497473913
310,-0.03750725907159707
311,-0.033582365094883354
312,-0.031940200003407006
313,-0.03470592347749503
314,-0.0409004654345444
315,-0.04762867639292459
316,-0.05251845849011744
317,-0.055301016408209294
318,-0.057247639553651385
319,-0.059164837144939635
320,-0.05998505393002074
321,-0.05743099770412868
322,-0.05027199156852524
323,-0.04012375574542423
324,-0.031019660012576486
325,-0.026886488743340944
326,-0.028899832681075016
327,-0.034845524692612845
328,-0.04094339670811668
329,-0.044562639138443313
330,-0.0456101882695952
331,-0.0456132712969943
332,-0.045526476927863754
333,-0.04434749680795587
334,-0.039861977751660185
335,-0.030946024920297202
336,-0.01944014076433521
337,-0.009846794078359415
338,-0.006801174546848395
339,-0.012057573345434815
340,-0.02319310622261361
341,-0.03499312918444855
342,-0.04251307947867604
343,-0.043640265577135615
344,-0.03949579066654446
345,-0.032766739193351005
346,-0.02560310345945669
347,-0.018805593877640064
348,-0.012660330736091813
349,-0.008200578627078774
350,-0.007327613331456255
351,-0.011418254182423516
352,-0.01965756349255171
353,-0.028800564400865716
354,-0.03487376472805971
355,-0.0355545299093567
356,-0.031302835934022
357,-0.02443218018826219
358,-0.017150452078397008
359,-0.010408082951121524
360,-0.004406830422901293
361,0.00012656661025886
362,0.0015366370438325444
363,-0.001657202999644289
364,-0.009186550741338
365,-0.018628413241607297
366,-0.026712617201091863
367,-0.031232441154393987
368,-0.0319324055167972
369,-0.029847077795920735
370,-0.026076409438787973
371,-0.02132689920636146
372,-0.016457884695908996
373,-0.013027427190055212
374,-0.012828408180095757
375,-0.01662130832625414
376,-0.02331643215728716
377,-0.030532568655398815
378,-0.036085228674425276
379,-0.039034057326235036
380,-0.03945888082152449
381,-0.03753154644201315
382,-0.03315053852965649
383,-0.026626583693566287
384,-0.019530857870156654
385,-0.014429671302829489
386,-0.013354161612253532
387,-0.016314707762966375
388,-0.02133841950272651
389,-0.02608596420504357
390,-0.029523280267902498
391,-0.03206198614944773
392,-0.034169191637649005
393,-0.03506711897377072
394,-0.03309073944835111
395,-0.027542689967528546
396,-0.02021456121410316
397,-0.014860521482527079
398,-0.014769677414357814
399,-0.02040509671634884
400,-0.029103391778057115
401,-0.03704154729882825
402,-0.041761512000090345
403,-0.043228625331463384
404,-0.04284670996893539
405,-0.04162982734302796
406,-0.039255119337455395
407,-0.03470233377782597
408,-0.02771323846915335
409,-0.019695754769164957
410,-0.01331469666684525
411,-0.01112171306065647
412,-0.014202245076244555
413,-0.021612599503258247
414,-0.030750446166927563
415,-0.03833545114973535
416,-0.04158127759254512
417,-0.03921466344167212
418,-0.032020645560832235
419,-0.022619515412579855
420,-0.014420788981879496
421,-0.010165190375646223
422,-0.010829942712813668
423,-0.015536702173630314
424,-0.02243563593667511
425,-0.029829579319001875
426,-0.03667997580696701
427,-0.04227419352148364
428,-0.0456880715032381
429,-0.045910574906029365
430,-0.04278629749659657
431,-0.03789898109940629
432,-0.03424652031970237
433,-0.034518425063778474
434,-0.039208315966007906
435,-0.04624865613027025
436,-0.05266538685970513
437,-0.056863433028792126
438,-0.059419535719181744
439,-0.06160014396668938
440,-0.06311046828283656
441,-0.0615331810732336
442,-0.05437175120462557
443,-0.04191282235998887
444,-0.02798839009465462
445,-0.01751471475668641
446,-0.012830004737474704
447,-0.01220030062914533
448,-0.01188671662544535
449,-0.009696517276093698
450,-0.00648005948034234
451,-0.004179277561884154
452,-0.00268299801167999
453,0.0008871079826491806
454,0.009307650389693924
455,0.021535099052678353
456,0.03213371152330717
457,0.03500002073110115
458,0.02829997694322486
459,0.01615423891497372
460,0.005529032044118292
461,0.0011677769434208839
462,0.0029683534523220097
463,0.007594556797993483
464,0.012087352570023864
465,0.01579371384584976
466,0.01919799485863552
467,0.021584259963800236
468,0.02041222538523206
469,0.01314939050916876
470,-0.0003995533778076662
471,-0.017629666117893284
472,-0.034824300843430925
473,-0.0491551899057486
474,-0.0592124653645779
475,-0.06419028873338539
476,-0.06330672137718503
477,-0.056457611415162326
478,-0.04533261429721432
479,-0.033412015208539605
480,-0.024373156529448367
481,-0.020185942475755697
482,-0.020569084378901578
483,-0.024079994254239394
484,-0.02950117586291738
485,-0.03613122969092901
486,-0.04306037716995299
487,-0.04876637252639784
488,-0.0519550714847159
489,-0.05296882491509215
490,-0.05415160171337287
491,-0.05843489847111394
492,-0.06723357772834201
493,-0.07957275291391311
494,-0.09327371865524314
495,-0.1070794428229225
496,-0.12173701902565268
497,-0.13908652693232915
498,-0.16006027439583648
499,-0.18339815873255796
500,-0.20612168557389215
501,-0.22528051300936194
502,-0.2396189906535147
503,-0.2501566332287712
504,-0.2595895717392451
505,-0.27097562521962465
506,-0.2861294642460037
507,-0.30401145595982115
508,-0.31954147583449105
509,-0.3234584221804029
510,-0.3035177783913656
511,-0.2464582204639771
512,-0.13962569991005663
513,0.028130122230520853
514,0.2648498255274683
515,0.5705127540190894
516,0.9276288840082185
517,1.2908460567156586
518,1.5839374725444788
519,1.713061802169225
520,1.5982870359597823
521,1.213143475234273
522,0.6119638734264982
523,-0.07446884226903824
524,-0.6801243889922993
525,-1.0658964983530688
526,-1.172456271494978
527,-1.036514056683883
528,-0.7632935871805174
529,-0.47270750725681576
530,-0.24983824653074688
531,-0.12375837556107999
532,-0.07834596483004377
533,-0.0796262645311836
534,-0.09886989375252156
535,-0.1201987047021199
536,-0.13586436352900744
537,-0.13994472585466788
538,-0.1278707435958376
539,-0.10048946302592683
540,-0.06617928619536623
541,-0.03695365208847324
542,-0.021007003124347383
543,-0.017951813154711487
544,-0.020619814784233324
545,-0.021446690030137203
546,-0.017788663190228336
547,-0.012141462790158588
548,-0.00813373065933791
549,-0.00661635748579581
550,-0.005315438605176803
551,-0.0017318274296830004
552,0.00393706246881839
553,0.008633316138688688
554,0.008925244592115411
555,0.0036855429022582377
556,-0.005286539510914482
557,-0.014797143457667208
558,-0.022235298425938355
559,-0.026383640645409375
560,-0.02696094660633313
561,-0.023997714879276263
562,-0.01793487168393104
563,-0.01019773149861463
564,-0.00328134781953947
565,0.00016876019446528264
566,-0.0012711130958682937
567,-0.007071582984725181
568,-0.015231396417688453
569,-0.0235033439186332
570,-0.03035024561171698
571,-0.03502188100161638
572,-0.03703135682188932
573,-0.035813063708320596
574,-0.03104195916712873
575,-0.023343578214902436
576,-0.014655918659805511
577,-0.007736676207379307
578,-0.005005537689406956
579,-0.007456328651332878
580,-0.014315799342128815
581,-0.023554338534549774
582,-0.03276921541701783
583,-0.03984079814409083
584,-0.043149643280652177
585,-0.041630810939688595
586,-0.035048581549715685
587,-0.02448761501653599
588,-0.012569149614973418
589,-0.0028567908021687014
590,0.0015259031051471704
591,-0.0006745609721844322
592,-0.008305235995956305
593,-0.018525428801415826
594,-0.028236435448882335
595,-0.035236954069676786
596,-0.03851672707031255
597,-0.037919955280786025
598,-0.033848183370121986
599,-0.027346840527458543
600,-0.020253428953121568
601,-0.01485026542483571
602,-0.012952715788552614
603,-0.015048673704494595
604,-0.0202044071973453
605,-0.026793600104001596
606,-0.03335729167758555
607,-0.03886512355438346
608,-0.04238195570959304
609,-0.04284772665372918
610,-0.03954451511513449
611,-0.03295029056659844
612,-0.025024224830827724
613,-0.018339958337985074
614,-0.014599296647113609
615,-0.013773252038605886
616,-0.014605899571679666
617,-0.015918728336728277
618,-0.017393734997031795
619,-0.01912175621678059
620,-0.020583336046075113
621,-0.02041540998356854
622,-0.017503447870053895
623,-0.012409292339315724
624,-0.00753473629299785
625,-0.005511381235667029
626,-0.007114695252932697
627,-0.010675657881261565
628,-0.01368124695804619
629,-0.015147582229578186
630,-0.01648275586094557
631,-0.019884957332570338
632,-0.02567417811613502
633,-0.031100529882699658
634,-0.03196249024857264
635,-0.025869170091700026
636,-0.014465589869521542
637,-0.0027641189906268257
638,0.0039023108102575004
639,0.0029781620972332517
640,-0.00428412233573326
641,-0.014167528953211436
642,-0.022803439276337892
643,-0.0277698779298481
644,-0.028323190407343254
645,-0.024781114466632566
646,-0.01791419550889895
647,-0.008737374926460867
648,0.0014634828575059034
649,0.011163285014249087
650,0.01877729573860063
651,0.022933116207368407
652,0.02281980238829459
653,0.018603943065558723
654,0.011714312575962053
655,0.004616069514100606
656,-0.000120891255985714
657,-0.001100348041607409
658,0.0010860658520895241
659,0.004154891398097382
660,0.005423628438071255
661,0.003248129490735951
662,-0.002327780853973263
663,-0.010007437114539258
664,-0.018271581410638133
665,-0.026208812386670145
666,-0.0336712286149984
667,-0.040847167909670905
668,-0.04768815346523786
669,-0.053598548907939525
670,-0.05755806499465457
671,-0.058608928345460845
672,-0.05647213979747882
673,-0.051961514114752826
674,-0.046897089471428934
675,-0.04345141055550934
676,-0.04321560372503807
677,-0.04649355883863994
678,-0.052210938161488835
679,-0.05842919673002469
680,-0.06310350973637052
681,-0.06468728884720049
682,-0.062433166407601576
683,-0.05648857147329758
684,-0.04790810361845643
685,-0.0385505855924253
686,-0.030722468570197618
687,-0.02652227972848238
688,-0.027061514320236596
689,-0.03189815938375522
690,-0.03899398466402075
691,-0.04531072989702424
692,-0.04788681534877326
693,-0.044988456755800446
694,-0.03682588405536516
695,-0.02547181524909637
696,-0.01400647497525163
697,-0.005334502537464324
698,-0.001270092318391727
699,-0.002235264278826521
700,-0.007471896913132038
701,-0.015413627074710312
702,-0.0239891748170148
703,-0.030932969897067623
704,-0.03428774035609558
705,-0.033061015775055026
706,-0.027694921759800567
707,-0.019984246243623625
708,-0.012401402692510416
709,-0.0071697007897573075
710,-0.005539482906568918
711,-0.007531315945647065
712,-0.012140573119319448
713,-0.017843908229488482
714,-0.023192753825976374
715,-0.027243444747681665
716,-0.029616998147928203
717,-0.03021999969457021
718,-0.028984960724508287
719,-0.026032437563430034
720,-0.022200681261954625
721,-0.019286283144348756
722,-0.019324430100022102
723,-0.02309925358523455
724,-0.02910739419426068
725,-0.03421505826522941
726,-0.03587429521607856
727,-0.03412110089953235
728,-0.03140529275353407
729,-0.030131562569230556
730,-0.030092701082521697
731,-0.028419012609675158
732,-0.022486900728088587
733,-0.013277702012067703
734,-0.005851147594647001
735,-0.005973900503859916
736,-0.015497753168296057
737,-0.030461020485919095
738,-0.043654292116344084
739,-0.0495298301214639
740,-0.047408169672449825
741,-0.04067295717902773
742,-0.03328975105399584
743,-0.02707150451746572
744,-0.0218482791416703
745,-0.01759646019223959
746,-0.015793966148549318
747,-0.018408908742471822
748,-0.02560944470270841
749,-0.03469488035573291
750,-0.04154688642377627
751,-0.04342347618056975
752,-0.04067052104569252
753,-0.036019551980848066
754,-0.03234295481653855
755,-0.030892253849266124
756,-0.031249125442339487
757,-0.03251886586344427
758,-0.0343982486946222
759,-0.037281075137989075
760,-0.041669556109790194
761,-0.04764343312312151
762,-0.0547333800040596
763,-0.06198297513656697
764,-0.06797499159169262
765,-0.07100769738896204
766,-0.06973227927437986
767,-0.06408217432119076
768,-0.05575603768802149
769,-0.04761796366346141
770,-0.042226536715792386
771,-0.040505593989657564
772,-0.04148780174763521
773,-0.04313341974463168
774,-0.043368518954469235
775,-0.04053963053529336
776,-0.033327672725242834
777,-0.020849060833448497
778,-0.003416322384950423
779,0.016529384755967626
780,0.03443337107980851
781,0.04522948464015965
782,0.04586874466041653
783,0.037136796952531116
784,0.023407081939402167
785,0.010381037496984285
786,0.0022812145425954037
787,0.000267230075067754
788,0.0028486668092148632
789,0.007614166736441226
790,0.01281692538405875
791,0.017758960486052494
792,0.022041405979049574
793,0.024634101471981047
794,0.023711286817188967
795,0.017441327080299746
796,0.005124384542077464
797,-0.01212347540606647
798,-0.03150958483778716
799,-0.049338663873668726
800,-0.062025489962797054
801,-0.06709689448236575
802,-0.06405548645695314
803,-0.054827831972377776
804,-0.04334220211506444
805,-0.03403686437039951
806,-0.02985378930607817
807,-0.030914051858817487
808,-0.03484273785983047
809,-0.03855910341473663
810,-0.040180226321794486
811,-0.039610109514923816
812,-0.037581757887094516
813,-0.03432932553522807
814,-0.029336345757922135
815,-0.022438893330472845
816,-0.015089569762275646
817,-0.010299468774068937
818,-0.011015251152541322
819,-0.018258493490771955
820,-0.030671685257487785
821,-0.04581828239240041
822,-0.06193467660114425
823,-0.07848347429021328
824,-0.0951821764810674
825,-0.11085171080821055
826,-0.12370977073429015
827,-0.1332285318970713
828,-0.14181150094153505
829,-0.15424739948702143
830,-0.17470698545121405
831,-0.20345041689581275
832,-0.2361264374346884
833,-0.26664440774398457
834,-0.29153373963951945
835,-0.31217605162796036
836,-0.33285948517996156
837,-0.35610941131538976
838,-0.3791419398670015
839,-0.3942918207266957
840,-0.3926160840390325
841,-0.3669021412561191
842,-0.310985114613912
843,-0.21626225007210348
844,-0.06991300565508843
845,0.1411245637182834
846,0.4209707553777522
847,0.7557210560520826
848,1.1102911002917695
849,1.4328800012921536
850,1.6640748614182819
851,1.746937835025963
852,1.6377086563940306
853,1.319133689432861
854,0.8153655145481905
855,0.20043785878450116
856,-0.41096585541367303
857,-0.894931025434495
858,-1.1617161875928916
859,-1.1893114755985739
860,-1.0275878881436942
861,-0.7702070078511964
862,-0.511106454056987
863,-0.31033650788367273
864,-0.18487467145324957
865,-0.12192058611244722
866,-0.09938252108771253
867,-0.09907563903660421
868,-0.10880255897852631
869,-0.11918133347057171
870,-0.12234212461675237
871,-0.11403080998315723
872,-0.09552977336697815
873,-0.07213784231376552
874,-0.04914351021377391
875,-0.028994059100483856
876,-0.011831889625779156
877,0.0020939539683042015
878,0.01123807465711288
879,0.013983252235560819
880,0.010570748874191982
881,0.0034207497419051023
882,-0.004414884120957205
883,-0.0108385903672077
884,-0.014782989363802894
885,-0.01531370488188631
886,-0.01152847316387505
887,-0.0038668477551672045
888,0.004693960620800242
889,0.009531108806640425
890,0.007307053477400584
891,-0.0014837953038892618
892,-0.012798414803728475
893,-0.0220373613364511
894,-0.027066570219878267
895,-0.028698746802755935
896,-0.02869082848576251
897,-0.027674607010110992
898,-0.025120345446167612
899,-0.020960198649113623
900,-0.01666459949848944
901,-0.014338425071971344
902,-0.014805871978240194
903,-0.01691115766632128
904,-0.01892788703930207
905,-0.020536066544752575
906,-0.023067641143383118
907,-0.02759032181660985
908,-0.03290177901777744
909,-0.03584128156026556
910,-0.033973495158964084
911,-0.028084945754713677
912,-0.02188720099379056
913,-0.0190242465604971
914,-0.020196296840272604
915,-0.02311617227823292
916,-0.025170350205127104
917,-0.025973727904383827
918,-0.02722725028993029
919,-0.030151084944915182
920,-0.03331285192079177
921,-0.03329819459334081
922,-0.027782491414005156
923,-0.018091213627308388
924,-0.008737460721208082
925,-0.004253210516887306
926,-0.006093018483908712
927,-0.012179170440602191
928,-0.019140321382818404
929,-0.02496702235655639
930,-0.029768017393864147
931,-0.03434925004133861
932,-0.038367706613354854
933,-0.039998273801446486
934,-0.03743913736859976
935,-0.03081566940900224
936,-0.022701621296412643
937,-0.016718364378420045
938,-0.015294426547696312
939,-0.018298000930025052
940,-0.023478822937186027
941,-0.028208098899725073
942,-0.03107346142416409
943,-0.03216275258856165
944,-0.032070382750742185
945,-0.030764781481063708
946,-0.027517854021205088
947,-0.022034626559974242
948,-0.01565682859773549
949,-0.011245975264041391
950,-0.01145672443528259
951,-0.016674031472601596
952,-0.024428326257003634
953,-0.030967342504274888
954,-0.03377637586568862
955,-0.0329486869786822
956,-0.030328430869671172
957,-0.027382325005993215
958,-0.02388200815802214
959,-0.0186019733457245
960,-0.011214781225325862
961,-0.003387708119798576
962,0.002090036466154766
963,0.003345577721420489
964,0.000693460440045701
965,-0.003960965300862297
966,-0.00879637475310591
967,-0.013055946356579454
968,-0.016476525293408414
969,-0.018105135260052446
970,-0.01617121446504432
971,-0.009525955359106369
972,0.0006834057147439114
973,0.01097897255615551
974,0.01759105744919521
975,0.018968850226653296
976,0.016600937478215623
977,0.01351535283618285
978,0.011947359523530179
979,0.01226686598677101
980,0.013796232327841862
981,0.016189956146616356
982,0.019637472610544566
983,0.023677490433408208
984,0.026191791699920627
985,0.024186245811424464
986,0.016103365544697268
987,0.0035584246611232734
988,-0.00940818468882677
989,-0.019214976373324047
990,-0.025270227472211894
991,-0.029830325905091777
992,-0.03532224171610851
993,-0.04168511048649645
994,-0.04629984706054838
995,-0.04661962493316098
996,-0.0430252220895463
997,-0.039180599488783246
998,-0.039467560136103697
999,-0.04572273585508301
1000,-0.05602465358568019
1001,-0.06631750683971774
1002,-0.07318554745339917
1003,-0.07540911774020642
1004,-0.0734638713788443
1005,-0.06816095642856446
1006,-0.06014131449781687
1007,-0.05059823616083363
1008,-0.041979518891608045
1009,-0.03728937064475775
1010,-0.038129033857400546
1011,-0.04318919002623056
1012,-0.0488261433561953
1013,-0.05155465634370081
1014,-0.05045637702228624
1015,-0.047440627308641375
1016,-0.045157378225430575
1017,-0.044459673939690664
1018,-0.043700506049010594
1019,-0.040456824477111866
1020,-0.03406345073388045
1021,-0.02663331898176767
1022,-0.021641272941349807
1023,-0.021321394582493734
1024,-0.025091218979819887
1025,-0.03018799966136851
1026,-0.03374831055280264
1027,-0.034492496017027724
1028,-0.03282760892948147
1029,-0.029740247417761892
1030,-0.02578359343271915
1031,-0.021035989696816026
1032,-0.015771344523417077
1033,-0.010939660636439997
1034,-0.007918535042349089
1035,-0.007793899499497903
1036,-0.010783500134756988
1037,-0.016108861556007617
1038,-0.022186668615757733
1039,-0.026974813536582903
1040,-0.02854682508437447
1041,-0.025946961632711506
1042,-0.01994303539872229
1043,-0.012976215051016742
1044,-0.008005399184627617
1045,-0.006887301396154471
1046,-0.009494505371400144
1047,-0.014242508883142452
1048,-0.019463091679859983
1049,-0.02433228850358047
1050,-0.028611260422238535
1051,-0.031745035993587994
1052,-0.03254493792604145
1053,-0.030022791305275357
1054,-0.024635126768995028
1055,-0.018621044697272732
1056,-0.014901609870018146
1057,-0.015353813516574659
1058,-0.01982693543035226
1059,-0.02654292181576374
1060,-0.03332690402057402
1061,-0.03862009192568117
1062,-0.04173800090890636
1063,-0.04261728457702452
1064,-0.04152527003339359
1065,-0.038875943144520586
1066,-0.035038798821588404
1067,-0.030204233333937153
1068,-0.024603036526424066
1069,-0.01911298299052515
1070,-0.01565239498590445
1071,-0.016574405461389653
1072,-0.02305333253632158
1073,-0.03361369833539218
1074,-0.04424436398475816
1075,-0.0504117170072159
1076,-0.049643275382321564
1077,-0.04276914803662141
1078,-0.03301128455659316
1079,-0.023875909154225022
1080,-0.01756957822179741
1081,-0.014820032945169266
1082,-0.015549323623680639
1083,-0.019301495765962056
1084,-0.025056033816151724
1085,-0.03104644820956957
1086,-0.035270141456265273
1087,-0.036504497984582426
1088,-0.03491955295525358
1089,-0.03168797785566997
1090,-0.0279993275128386
1091,-0.024445302267818117
1092,-0.021245839278438296
1093,-0.018833578178448048
1094,-0.017996233186405287
1095,-0.019390529836442502
1096,-0.022998361320882045
1097,-0.028096096214317322
1098,-0.03362811663515769
1099,-0.03843604920145723
1100,-0.041183367201391034
1101,-0.040498643998889916
1102,-0.035815628804452465
1103,-0.02843645303912467
1104,-0.02156844067209967
1105,-0.018655279654121913
1106,-0.020993957262847987
1107,-0.026711358198863774
1108,-0.032270051244004824
1109,-0.0353577015425959
1110,-0.036530881720825116
1111,-0.03800848017502354
1112,-0.04076913793183361
1113,-0.04292463641337581
1114,-0.04126756868630732
1115,-0.03478113974045681
1116,-0.026734789720705313
1117,-0.023003224671755487
1118,-0.02765297480518006
1119,-0.03949317882947811
1120,-0.05265294696957766
1121,-0.060827661693097376
1122,-0.06170135289947614
1123,-0.05798041183110721
1124,-0.054444100806358385
1125,-0.053734549713020954
1126,-0.05443510266248326
1127,-0.0528043521937295
1128,-0.046412733885418556
1129,-0.03652583258648579
1130,-0.027364662110276716
1131,-0.02301829119125022
1132,-0.024533163225645496
1133,-0.02930337269490451
1134,-0.03293959436219684
1135,-0.03200373736087962
1136,-0.02566979699009052
1137,-0.015491165314695271
1138,-0.003923828789979772
1139,0.007069233614759985
1140,0.016441137474695906
1141,0.023587996079680207
1142,0.027716378953801434
1143,0.027734200080927363
1144,0.022803795208643538
1145,0.013174479118318785
1146,0.0007363945853690078
1147,-0.011116934487195274
1148,-0.01843716019854575
1149,-0.018255309746336976
1150,-0.010104557725842372
1151,0.003303079046905246
1152,0.01688407540355495
1153,0.025346193632785483
1154,0.025615820403609074
1155,0.01804888107959801
1156,0.005641352302864677
1157,-0.008123348937023683
1158,-0.021127135576165936
1159,-0.03282639953938654
1160,-0.04296327603097429
1161,-0.05029582473841509
1162,-0.052827265524864137
1163,-0.04952801089643949
1164,-0.041958946699834035
1165,-0.03405780340461434
1166,-0.02988769294395298
1167,-0.03100660533906628
1168,-0.03557063764557468
1169,-0.03986797904173221
1170,-0.040966352578359747
1171,-0.03835310189352137
1172,-0.03351039703393136
1173,-0.028219112261996505
1174,-0.023303155628112596
1175,-0.018791908476501078
1176,-0.014970919061597334
1177,-0.013013964883669007
1178,-0.014480993596624341
1179,-0.020181301050468118
1180,-0.029489865389369527
1181,-0.04068946279536844
1182,-0.051950523134683506
1183,-0.06213242011523187
1184,-0.07097748535075524
1185,-0.07889903237590204
1186,-0.08676131538896567
1187,-0.09575739830060857
1188,-0.10721071838422847
1189,-0.12221827107285872
1190,-0.14132702069312972
1191,-0.16445990849207137
1192,-0.19102009902228145
1193,-0.2199039357555691
1194,-0.2493734110859609
1195,-0.2771419074383822
1196,-0.3010392813226857
1197,-0.32005059838602345
1198,-0.33490106317984686
1199,-0.34741050847394317
1200,-0.3586443383301606
1201,-0.3667198321589173
1202,-0.36524787192592606
1203,-0.34287215907931123
1204,-0.2839776128121667
1205,-0.1708478989243029
1206,0.012136357356359161
1207,0.27218386846108367
1208,0.6010791235059596
1209,0.9702712284430097
1210,1.3308452714167445
1211,1.6195977644558353
1212,1.7705403263165864
1213,1.7300290186021048
1214,1.4730676791567945
1215,1.0170051800166289
1216,0.4268764418803084
1217,-0.1936559792950493
1218,-0.7276277966916441
1219,-1.0798513729833548
1220,-1.207485520110009
1221,-1.131184038711007
1222,-0.9208043974863354
1223,-0.6633418988992817
1224,-0.4300855533259611
1225,-0.258508440706559
1226,-0.153623280965038
1227,-0.10170508957152097
1228,-0.08458988953464364
1229,-0.08694923121628806
1230,-0.0968100988706353
1231,-0.10425577143163745
1232,-0.10204351569762969
1233,-0.08770699444207486
1234,-0.06430503665470777
1235,-0.03826718236307525
1236,-0.015718635803975645
1237,2.7992891039224296e-05
1238,0.008521682991621336
1239,0.010770578639423838
1240,0.008213436272933
1241,0.0027404040361372088
1242,-0.003080873267340905
1243,-0.006598787948350135
1244,-0.006351056635561169
1245,-0.0028504763563807767
1246,0.0019604752593314657
1247,0.0061210699287448
1248,0.008621666060612375
1249,0.009163042360102385
1250,0.0072746113658342946
1251,0.0020576605795994815
1252,-0.006881422844191404
1253,-0.018139321939590895
1254,-0.02833833377573798
1255,-0.03369119840600679
1256,-0.03233518786211298
1257,-0.0256095114142027
1258,-0.017196655943382204
1259,-0.010777996482050942
1260,-0.00803795260727927
1261,-0.008446359852226446
1262,-0.010650171599101595
1263,-0.01397046362625311
1264,-0.018613920863014433
1265,-0.02459143676879096
1266,-0.03064005706248237
1267,-0.034423978840254325
1268,-0.033999136743509684
1269,-0.029250606883958426
1270,-0.02201276348825946
1271,-0.014839060300670797
1272,-0.009621597825042572
1273,-0.007226924233335305
1274,-0.008094436519631428
1275,-0.012677572823378346
1276,-0.020885143549599437
1277,-0.031037158320319242
1278,-0.03977239712820825
1279,-0.043665280701402395
1280,-0.04154248726972321
1281,-0.035447038338748696
1282,-0.0291413054853984
1283,-0.02525812184990368
1284,-0.023575968329747024
1285,-0.02196097695229302
1286,-0.01905194389018449
1287,-0.016097575308181466
1288,-0.016122616068431614
1289,-0.0211074421284381
1290,-0.029741757430051696
1291,-0.037812284384180064
1292,-0.04093701614886624
1293,-0.03738483904960111
1294,-0.02884800724888436
1295,-0.018938155393170182
1296,-0.010969918876910569
1297,-0.00674818413311216
1298,-0.006764495254862134
1299,-0.010897470684716824
1300,-0.018589496327407473
1301,-0.02839669711284193
1302,-0.03768432084021513
1303,-0.043208950014159433
1304,-0.042519635175430524
1305,-0.035331261890694944
1306,-0.023927413735859906
1307,-0.012246625777901967
1308,-0.004114822318426924
1309,-0.0015898465709965142
1310,-0.004309901323595765
1311,-0.010130307215417852
1312,-0.01653404071192568
1313,-0.021833598362577603
1314,-0.025432512623781385
1315,-0.02724367520101037
1316,-0.027072453832504596
1317,-0.024684372262192694
1318,-0.02044039714839005
1319,-0.015652078740226415
1320,-0.012019650235561837
1321,-0.010533093544938279
1322,-0.010948550550172777
1323,-0.012475848440248787
1324,-0.014982831574072632
1325,-0.019264840250292074
1326,-0.025758254902016102
1327,-0.03284945806940848
1328,-0.03679058148335003
1329,-0.03400831050546679
1330,-0.024202772915879002
1331,-0.011414787036986384
1332,-0.0016521168306550878
1333,0.0013309502555771294
1334,-0.0013380081131467848
1335,-0.004875365216747989
1336,-0.004895900434413654
1337,-0.0008117098287955827
1338,0.004287939133024226
1339,0.006992897085979643
1340,0.007046087928058765
1341,0.0077980525454094275
1342,0.013228997654416378
1343,0.024120861918281444
1344,0.03664887691336785
1345,0.04458585858234688
1346,0.04336754546575915
1347,0.03290948831177007
1348,0.017244727096268394
1349,0.0015988597464208086
1350,-0.010680910689110383
1351,-0.01917762597639586
1352,-0.02514257427769362
1353,-0.029474844241075278
1354,-0.03185919517130158
1355,-0.03169199529016419
1356,-0.029681973117626007
1357,-0.028346334027425
1358,-0.030625113443414793
1359,-0.03763443225497322
1360,-0.047542204595326536
1361,-0.056717784081050715
1362,-0.06232440634672366
1363,-0.06416472577545813
1364,-0.06418026970887719
1365,-0.06412217644861226
1366,-0.06363793379754441
1367,-0.060686435351735825
1368,-0.05399500509045485
1369,-0.04521608245081413
1370,-0.03851785291057014
1371,-0.03761210844976615
1372,-0.042654871417779336
1373,-0.04976910864488525
1374,-0.05375782028974488
1375,-0.05182129263578894
1376,-0.04523943059611739
1377,-0.0377813978991021
1378,-0.032417744701042056
1379,-0.029234692318901502
1380,-0.026194821750250993
1381,-0.02178820917430701
1382,-0.017017356820884115
1383,-0.014889119943423667
1384,-0.017864953924848555
1385,-0.025490423040141374
1386,-0.03422018090805119
1387,-0.039592641474791496
1388,-0.039050814742816006
1389,-0.03334022404362053
1390,-0.025663412023764813
1391,-0.019470805491028566
1392,-0.016571537718051126
1393,-0.01670729609321854
1394,-0.018488366860729445
1395,-0.020684448912736554
1396,-0.02287413345653095
1397,-0.025172548878189344
1398,-0.02750875424744654
1399,-0.029174768068080167
1400,-0.029053192331410193
1401,-0.026371427834668525
1402,-0.021431234789972994
1403,-0.015754781570549867
1404,-0.01145425052343095
1405,-0.010149028922528398
1406,-0.01209636995274494
1407,-0.016112432194691224
1408,-0.02034279978350513
1409,-0.02333332738112858
1410,-0.024635397435507488
1411,-0.02457349462243791
1412,-0.02351459771515341
1413,-0.021388736174669153
1414,-0.017927931827359293
1415,-0.013359283305894228
1416,-0.008806380546018181
1417,-0.00590379070155014
1418,-0.0058834571068854995
1419,-0.008905991277781175
1420,-0.014168712593920073
1421,-0.020575266224195463
1422,-0.027264529876619845
1423,-0.03355569293164395
1424,-0.03856839208895303
1425,-0.041157442667718654
1426,-0.04045125265006079
1427,-0.036587399120952935
1428,-0.030948508950607183
1429,-0.025623257216354764
1430,-0.022492427523660728
1431,-0.02257077260462343
1432,-0.025853403826698235
1433,-0.03142938981959948
1434,-0.03759842150941968
1435,-0.04211033593050473
1436,-0.04284848194891175
1437,-0.03889779355184425
1438,-0.0313220664926875
1439,-0.022885535223343405
1440,-0.016684910049624947
1441,-0.014599093117972084
1442,-0.01665841794522962
1443,-0.021619297065616022
1444,-0.02798088575999973
1445,-0.03445749856490988
1446,-0.039729554791733845
1447,-0.042230505028077125
1448,-0.04071807775607173
1449,-0.035373453775056844
1450,-0.02827164227503659
1451,-0.02237993154028553
1452,-0.01963188646331415
1453,-0.019720493179433717
1454,-0.020805465361290465
1455,-0.021579034789742935
1456,-0.022727789208715356
1457,-0.026240910772684013
1458,-0.033022653342840394
1459,-0.04102716148300689
1460,-0.04590030720166262
1461,-0.043958019855559693
1462,-0.03516227423631073
1463,-0.023578595654064186
1464,-0.014830881831298593
1465,-0.012531083504328702
1466,-0.01640682953575992
1467,-0.023309588859968117
1468,-0.029905033746824503
1469,-0.03469960107984007
1470,-0.03798652824584832
1471,-0.04027950813054783
1472,-0.04102363123875374
1473,-0.03886598519391726
1474,-0.03316736435158147
1475,-0.02525209813115477
1476,-0.018126656188879597
1477,-0.01474679790519941
1478,-0.01616017839553837
1479,-0.020957957519100477
1480,-0.026406097446149815
1481,-0.03030950246939546
1482,-0.03215717799822036
1483,-0.03277286322930342
1484,-0.0329665436797858
1485,-0.0324867136358068
1486,-0.030246949507997476
1487,-0.025621796835607773
1488,-0.019596296927545345
1489,-0.01461694764960353
1490,-0.013113934152869523
1491,-0.015865583507873225
1492,-0.021561734907957215
1493,-0.02789061733678229
1494,-0.033145101588301445
1495,-0.036945099978685815
1496,-0.039578857438976545
1497,-0.040819078599285435
1498,-0.03957265147174075
1499,-0.03487861740284284
1500,-0.027370615877475593
1501,-0.01971540354297715
1502,-0.015342567379896772
1503,-0.016289310573200936
1504,-0.021828844281054166
1505,-0.028961147340383735
1506,-0.0343464102456849
1507,-0.03616604170932482
1508,-0.034616807605026154
1509,-0.031001759676154837
1510,-0.026516825900818677
1511,-0.021863502388880338
1512,-0.01780800867860826
1513,-0.01576170382944132
1514,-0.017393016393438446
1515,-0.023287279838227305
1516,-0.031802690374113325
1517,-0.039395577186505285
1518,-0.042550480775378804
1519,-0.039991885895537246
1520,-0.03342591808727964
1521,-0.026175042348732858
1522,-0.02082992543921864
1523,-0.017873473661369314
1524,-0.01632022909876709
1525,-0.015545908750796951
1526,-0.016386702692095516
1527,-0.020330118742606623
1528,-0.02753330372702773
1529,-0.0356671982928012
1530,-0.040939058558194096
1531,-0.04064135532941188
1532,-0.03509608832316058
1533,-0.027328770524746013
1534,-0.020805770417278168
1535,-0.017237800187609592
1536,-0.01625320380482504
1537,-0.016922200076925194
1538,-0.01941896097172359
1539,-0.025111413032443596
1540,-0.034984447500101726
1541,-0.04794443069092661
1542,-0.0606880641404318
1543,-0.06939150070233917
1544,-0.07187585232997531
1545,-0.06858421514662795
1546,-0.0618385528405789
1547,-0.05427239404512524
1548,-0.04775760450763189
1549,-0.04333495253439411
1550,-0.041576419179656224
1551,-0.04255335738412354
1552,-0.045315250370174344
1553,-0.04761952725714536
1554,-0.046634456100059715
1555,-0.04042031829282459
1556,-0.029108852187967514
1557,-0.014795691909572558
1558,-0.00022360638996990112
1559,0.012629196137727224
1560,0.0229346921820923
1561,0.030289338577030388
1562,0.03386387240602661
1563,0.03248351397207052
1564,0.025705106288442855
1565,0.0148999999528717
1566,0.003248093809205293
1567,-0.005519048401705215
1568,-0.008738155960962888
1569,-0.005716162306219403
1570,0.0024212500646130486
1571,0.01340602929120037
1572,0.024354733959229498
1573,0.03205059212221047
1574,0.03343424486274646
1575,0.026603755516932268
1576,0.01191595154676656
1577,-0.007687547709578767
1578,-0.027642062284698225
1579,-0.04357464176347272
1580,-0.0528759411408352
1581,-0.055171918463143566
1582,-0.051736814449796664
1583,-0.044600701291845665
1584,-0.03602341322667471
1585,-0.028338211808286023
1586,-0.0236814539743598
1587,-0.023335920273151834
1588,-0.027061122525771877
1589,-0.03309928453684172
1590,-0.03908551637305291
1591,-0.043245259359929046
1592,-0.04491502310847749
1593,-0.04404068166022551
1594,-0.04037006506718496
1595,-0.03346937505366301
1596,-0.02388099518506616
1597,-0.014356711328362304
1598,-0.00955110488381074
1599,-0.013647805149894105
1600,-0.02735939829218889
1601,-0.04677152376817485
1602,-0.06538683540089613
1603,-0.07817393285307235
1604,-0.08463083527872262
1605,-0.08854458266643309
1606,-0.09481359962601399
1607,-0.10605116617762957
1608,-0.12161390113634817
1609,-0.13934026928213328
1610,-0.15790678177880296
1611,-0.17751147115359517
1612,-0.19858205874656082
1613,-0.2202641837361062
1614,-0.24050720776659684
1615,-0.2576905819914877
1616,-0.27196880002887264
1617,-0.2847155270455196
1618,-0.29637228042124564
1619,-0.30461278055775104
1620,-0.3043425618455333
1621,-0.2890779053389385
1622,-0.25173718325233363
1623,-0.18346792636377496
1624,-0.07150188853181155
1625,0.10075608744219511
1626,0.3480737776142025
1627,0.671454378228167
1628,1.0436953990072642
1629,1.4005473242069126
1630,1.6468576822667589
1631,1.6826817918712118
1632,1.4440553325434418
1633,0.9413440907578996
1634,0.2729326749367652
1635,-0.39988290318187064
1636,-0.910971629462753
1637,-1.1539769189548863
1638,-1.1202675532976991
1639,-0.8908020234677421
1640,-0.5889929939071472
1641,-0.32324388316457564
1642,-0.15007308049404489
1643,-0.07156369298317883
1644,-0.05814767134244926
1645,-0.07571315209005688
1646,-0.10071642589939686
1647,-0.12097253780021551
1648,-0.13034760850978944
1649,-0.12578304820340352
1650,-0.10822925864518368
1651,-0.08349659179837005
1652,-0.059651108284819176
1653,-0.04220293968926673
1654,-0.0312727774039394
1655,-0.023188605227714244
1656,-0.01475495594604941
1657,-0.00617685657869435
1658,-0.0003063239769401892
1659,0.0005190801551693113
1660,-0.0031713191903469714
1661,-0.008418331878200857
1662,-0.012232207275206526
1663,-0.013528669229764857
1664,-0.013022642462669851
1665,-0.011633515847221249
1666,-0.009252148625657916
1667,-0.005119483613203886
1668,0.0006610628584705043
1669,0.0061258463284758775
1670,0.008186530113611212
1671,0.0047214071685397424
1672,-0.0036700760530544484
1673,-0.013785755142701252
1674,-0.02181955003371262
1675,-0.025670495884187988
1676,-0.02577388776964932
1677,-0.024017830837073692
1678,-0.021988007531881033
1679,-0.02021321377293421
1680,-0.018873618947969087
1681,-0.018822669455746194
1682,-0.02144124043418971
1683,-0.027182499265473753
1684,-0.03429675230660241
1685,-0.039356384065805314
1686,-0.03952942928436133
1687,-0.03470410200715812
1688,-0.027490069722354002
1689,-0.021037485257293754
1690,-0.016679858794675283
1691,-0.0135444272517885
1692,-0.010316420906215287
1693,-0.007245716637332329
1694,-0.006337269988958191
1695,-0.009565417508814008
1696,-0.01692184102119092
1697,-0.026178150232790354
1698,-0.034451681480314786
1699,-0.039940277041252414
1700,-0.042275323878248
1701,-0.04158855589024906
1702,-0.03773307164113703
1703,-0.030715179782462784
1704,-0.021802390936436784
1705,-0.013802669943997986
1706,-0.009772299435155564
1707,-0.011090380630724385
1708,-0.01660747732031583
1709,-0.02359021819454222
1710,-0.029488429791988027
1711,-0.032935493099155215
1712,-0.03343930806340088
1713,-0.030704050241931062
1714,-0.024770931712766835
1715,-0.016921382498580405
1716,-0.01001980701568964
1717,-0.007250185516151813
1718,-0.009903860310150637
1719,-0.016201319782330286
1720,-0.02249237499152295
1721,-0.025991855994896076
1722,-0.02662736559771077
1723,-0.026315935120843816
1724,-0.026461306346703375
1725,-0.02624539217075877
1726,-0.023516778228341154
1727,-0.017432012480245767
1728,-0.010113908746485854
1729,-0.005428381450093493
1730,-0.005814233147588114
1731,-0.010136003912540204
1732,-0.014679165532294772
1733,-0.016425236861701983
1734,-0.015533192137307715
1735,-0.014709493455446174
1736,-0.01615664256714755
1737,-0.019119126974346538
1738,-0.02043448177053872
1739,-0.017574588808198725
1740,-0.01128539104032297
1741,-0.005357190679443791
1742,-0.0037744341823637666
1743,-0.007832108105871467
1744,-0.01561433418242435
1745,-0.023900968928232416
1746,-0.030472875169032493
1747,-0.03483557372811798
1748,-0.03723397814953121
1749,-0.037463001659959166
1750,-0.03484170971260146
1751,-0.02921309838442488
1752,-0.021681674417197726
1753,-0.01416446188127226
1754,-0.008170266152528052
1755,-0.004025685470346959
1756,-0.001211861395216347
1757,0.000748744422267433
1758,0.001944000720106436
1759,0.0026228809902414333
1760,0.0038500390766753167
1761,0.007185096581399909
1762,0.013288563442855892
1763,0.020640903818873305
1764,0.025797650444586318
1765,0.02539923240081616
1766,0.018527402877741357
1767,0.007466711267637049
1768,-0.003899230721969579
1769,-0.012863517675429044
1770,-0.01958615077953684
1771,-0.026280453816594967
1772,-0.03460081176772189
1773,-0.043551530371830724
1774,-0.04987380347323521
1775,-0.050728360789425234
1776,-0.046388777277880766
1777,-0.040507114878514876
1778,-0.037571536345985715
1779,-0.039673572953228015
1780,-0.045343767843665006
1781,-0.05132344468998625
1782,-0.05543314994832699
1783,-0.05776795352024953
1784,-0.0592519445827107
1785,-0.05937753565612908
1786,-0.05589214157668963
1787,-0.04718690710317116
1788,-0.03510953004377484
1789,-0.025024644044891863
1790,-0.022352166899865463
1791,-0.028332755349881188
1792,-0.03886471543008749
1793,-0.04762695812175034
1794,-0.050759410465038124
1795,-0.04896376370870253
1796,-0.045442688235399556
1797,-0.04210369866176321
1798,-0.037939537526606455
1799,-0.03103661937836543
1800,-0.021827529764462346
1801,-0.013926867969143051
1802,-0.011432882152319652
1803,-0.015275328359269931
1804,-0.022236592123695775
1805,-0.027635709369224114
1806,-0.02908069114690962
1807,-0.027779353693625206
1808,-0.026452774459796442
1809,-0.026217481200183974
1810,-0.02558021565083135
1811,-0.022353110043998335
1812,-0.016383228825531546
1813,-0.010372126433371829
1814,-0.008078141081902225
1815,-0.011611722328275096
1816,-0.020058462737125193
1817,-0.030177897251512657
1818,-0.038215520225860077
1819,-0.04147816878317727
1820,-0.03910287343011687
1821,-0.03215511994816436
1822,-0.0231742677228437
1823,-0.015090880988892583
1824,-0.009807032624254775
1825,-0.007378183395031509
1826,-0.006629723638922691
1827,-0.006826468425724907
1828,-0.008785585645799784
1829,-0.014084557876822675
1830,-0.022859232372532394
1831,-0.03237052186996542
1832,-0.038145301796033
1833,-0.03714107413589489
1834,-0.030259277798240808
1835,-0.021846278243822046
1836,-0.01645668048860358
1837,-0.015652121975821297
1838,-0.017559100197964445
1839,-0.019350088140232907
1840,-0.02017970785413288
1841,-0.021845664285466436
1842,-0.026674542687579073
1843,-0.03468205155496433
1844,-0.04263092296786837
1845,-0.045882243318159585
1846,-0.04160320363719329
1847,-0.030920737393130136
1848,-0.018542374609569853
1849,-0.010193298853067972
1850,-0.009538318785232272
1851,-0.01638119795191864
1852,-0.02706421154013916
1853,-0.03673189977160144
1854,-0.04207842696761324
1855,-0.042890031467360354
1856,-0.0414246882848704
1857,-0.04015969357901199
1858,-0.03969158272271378
1859,-0.038503616906444924
1860,-0.034774881610866296
1861,-0.028597785112678513
1862,-0.022530929092022454
1863,-0.019863861454793245
1864,-0.022059374642898845
1865,-0.027621490775006016
1866,-0.033338084778488195
1867,-0.03668560671515822
1868,-0.03722471539623429
1869,-0.035949122872308774
1870,-0.03360317990482728
1871,-0.02989692135018688
1872,-0.024443375304598516
1873,-0.018297986841538594
1874,-0.014214260191795083
1875,-0.014958215701483701
1876,-0.021026142475654982
1877,-0.029867396605091794
1878,-0.037435177012212065
1879,-0.0407958974701321
1880,-0.039633459431240685
1881,-0.035607868742038376
1882,-0.030525440179749695
1883,-0.025210955703751772
1884,-0.020013161168330167
1885,-0.0160719313260765
1886,-0.01565854682330873
1887,-0.02086733880405659
1888,-0.031697284451521895
1889,-0.045350542163596616
1890,-0.05758886016023687
1891,-0.06515769445995487
1892,-0.06734710141100866
1893,-0.06557923343738645
1894,-0.06168841302472984
1895,-0.0566106400931974
1896,-0.050586164957334014
1897,-0.0443570709583487
1898,-0.039810974415393066
1899,-0.03907433812038137
1900,-0.042660705339019736
1901,-0.04838296165680288
1902,-0.052254471455368545
1903,-0.05091396494052439
1904,-0.04372871318795034
1905,-0.0329206032483159
1906,-0.02168102305323108
1907,-0.011883063280680665
1908,-0.003243985715360351
1909,0.005537057586479028
1910,0.014842882504604627
1911,0.02317540511890418
1912,0.0279751078152622
1913,0.02745099932017863
1914,0.021871381629811573
1915,0.013395412696668977
1916,0.004849836748712402
1917,-0.0014100313376603968
1918,-0.0038658333587122903
1919,-0.0017479657964210478
1920,0.004764724179849801
1921,0.013929068646366293
1922,0.022193647545988522
1923,0.025202109049914656
1924,0.0198873145381165
1925,0.0063086339959998305
1926,-0.012202982204374255
1927,-0.03077405652446042
1928,-0.045297965685826336
1929,-0.053724076528542816
1930,-0.0558340009937177
1931,-0.05237549429342382
1932,-0.04468650867232721
1933,-0.03496093480131701
1934,-0.026273894876675353
1935,-0.021607242675752744
1936,-0.022284343643267326
1937,-0.027125270524237008
1938,-0.03319506020184938
1939,-0.0376128529395942
1940,-0.03896682581345748
1941,-0.03739132003470347
1942,-0.033722961144066185
1943,-0.028891751668209897
1944,-0.024094470287867816
1945,-0.021147216369227728
1946,-0.02211573769332608
1947,-0.028236707172537543
1948,-0.039158785535844176
1949,-0.05336214593630362
1950,-0.06935099229598496
1951,-0.08632025760514955
1952,-0.10362867954198196
1953,-0.11995003233096532
1954,-0.13358379345800286
1955,-0.14414174876044156
1956,-0.153934923102362
1957,-0.1671284667483566
1958,-0.1867996875318226
1959,-0.21244436267597727
1960,-0.24047656887868665
1961,-0.26743982514374887
1962,-0.2927530110669402
1963,-0.31807542110085474
1964,-0.34385851549124025
1965,-0.36677562625850196
1966,-0.38088158980899034
1967,-0.3810611677766602
1968,-0.36417336919261145
1969,-0.3252696157794912
1970,-0.25204669447295847
1971,-0.12435535793907532
1972,0.07745151210755753
1973,0.35922214027858357
1974,0.7036475847768429
1975,1.0708141852124589
1976,1.4065183482614754
1977,1.6512680227995795
1978,1.7464603336850444
1979,1.6421704917542992
1980,1.313279096540558
1981,0.7820686204981037
1982,0.13259837959928047
1983,-0.5011693005856042
1984,-0.9779810634239078
1985,-1.2046796591290105
1986,-1.1732073848015694
1987,-0.9567499067531235
1988,-0.6681619617795472
1989,-0.40715785702444574
1990,-0.2264767862630016
1991,-0.13025734395375188
1992,-0.09520612156238159
1993,-0.09417869505083881
1994,-0.10784990707466174
1995,-0.12421862611154538
1996,-0.13457357542595139
1997,-0.13279397738842846
1998,-0.11762418607818871
1999,-0.09342300089638042
2000,-0.06711594056305348
2001,-0.04376452272995786
2002,-0.024690459577101125
2003,-0.009198476054762032
2004,0.0027143799663559114
2005,0.009727601970876167
2006,0.010902891213707532
2007,0.007326986597581348
2008,0.0016179026095141159
2009,-0.004147317410818636
2010,-0.0096957076532228
2011,-0.015588972241898655
2012,-0.021180320202423275
2013,-0.023968405963965697
2014,-0.021411547332201308
2015,-0.013609492336877155
2016,-0.00413272622310988
2017,0.00211005824560995
2018,0.0022822264243123557
2019,-0.0026262991839284275
2020,-0.00913293519054209
2021,-0.0143123411400711
2022,-0.017738947440627838
2023,-0.02072369817417745
2024,-0.02391095434902684
2025,-0.025839858523412536
2026,-0.02404661966210235
2027,-0.017718217449947705
2028,-0.009291992841731263
2029,-0.003292247550894196
2030,-0.0032510426328109837
2031,-0.009340778012781294
2032,-0.018673105728385306
2033,-0.027773038779934457
2034,-0.03486916258479501
2035,-0.04007791929560463
2036,-0.04376180695529899
2037,-0.04508989836177934
2038,-0.04245064181455052
2039,-0.03533976463107971
2040,-0.025751963855671856
2041,-0.01751391490802147
2042,-0.013951228014264008
2043,-0.0158365495346744
2044,-0.021258527845819816
2045,-0.02728689712591772
2046,-0.03183558175189787
2047,-0.03425628809989003
2048,-0.03460488270222554
2049,-0.03273514713482786
2050,-0.028288118774424345
2051,-0.02153008271397613
2052,-0.014049725175995339
2053,-0.008435697743135944
2054,-0.007005468599342749
2055,-0.010495692256115723
2056,-0.017641191270188587
2057,-0.025867171435234485
2058,-0.032563369198459244
2059,-0.036153868985405735
2060,-0.036465950708832795
2061,-0.034396235568737436
2062,-0.031224120865046133
2063,-0.027997449588021393
2064,-0.025271074003212317
2065,-0.023233282788022485
2066,-0.02202794669860479
2067,-0.021979392102796983
2068,-0.023508696739673856
2069,-0.02675348832651401
2070,-0.031136303972239012
2071,-0.03522363871203324
2072,-0.03710693584634426
2073,-0.035248189204578215
2074,-0.029399577361556465
2075,-0.021029976943861488
2076,-0.012858793592828995
2077,-0.007615775587124564
2078,-0.006719452086773058
2079,-0.009725359019267847
2080,-0.014892340749585373
2081,-0.02036201047833924
2082,-0.02497124686153486
2083,-0.028121605604760774
2084,-0.029106258545777745
2085,-0.026897098983263826
2086,-0.02093196595250419
2087,-0.012276247464243389
2088,-0.003850984837778075
2089,0.0009285912583816168
2090,0.00025590975772063853
2091,-0.0049523283391396345
2092,-0.011909051858834101
2093,-0.017980532102760845
2094,-0.02203031405189493
2095,-0.02402134133073059
2096,-0.02368656870487301
2097,-0.02006671397537799
2098,-0.01268927101851916
2099,-0.0031428074157752103
2100,0.004996471180293456
2101,0.008438895291163276
2102,0.006811105376301267
2103,0.0030384980575581416
2104,0.0008050348399756704
2105,0.0012890271568478783
2106,0.002282279118320337
2107,0.0006398969927414766
2108,-0.004234409564622427
2109,-0.00928365837354727
2110,-0.010290515452130668
2111,-0.0057448618340659365
2112,0.0014785860462014815
2113,0.006160003591029787
2114,0.004616079499668146
2115,-0.00296068739040196
2116,-0.013421234064636672
2117,-0.023524104257118518
2118,-0.03198133751123722
2119,-0.039186892411439016
2120,-0.0455305489503117
2121,-0.050303171679607024
2122,-0.05218610294318835
2123,-0.050561656275377335
2124,-0.046241491411947444
2125,-0.04108317776770008
2126,-0.037125047978303766
2127,-0.036036675638997054
2128,-0.03892209383452812
2129,-0.04595970211147136
2130,-0.055763312209121146
2131,-0.06516838569728176
2132,-0.07024554587978324
2133,-0.0683592789289533
2134,-0.05994012139753363
2135,-0.0485530027090538
2136,-0.03904354516532889
2137,-0.03498502148197015
2138,-0.03707851377943029
2139,-0.04331329860470926
2140,-0.050429327624094564
2141,-0.05557329422385037
2142,-0.05728802280204209
2143,-0.055622455329577894
2144,-0.05160689498197406
2145,-0.04647068900055094
2146,-0.04098288741342078
2147,-0.03526010334467741
2148,-0.029176304739754834
2149,-0.023083072411239247
2150,-0.0182075616316962
2151,-0.016242784411721202
2152,-0.018286524299169
2153,-0.023892957644164343
2154,-0.030991926312085173
2155,-0.03677285531527208
2156,-0.038916604198899696
2157,-0.03641845880762996
2158,-0.029715226144069518
2159,-0.020370195116597004
2160,-0.010666574094708364
2161,-0.003160047480811553
2162,-2.977710158581369e-05
2163,-0.0022698490711745073
2164,-0.00914711103468232
2165,-0.01840299764117979
2166,-0.027210382966393297
2167,-0.033314114216880804
2168,-0.03566614028083151
2169,-0.03433717265427215
2170,-0.030072861209015547
2171,-0.02399041828011786
2172,-0.01752270576253398
2173,-0.012308096972691918
2174,-0.009773990614803225
2175,-0.010589192263656913
2176,-0.014427891682853399
2177,-0.02024155153448202
2178,-0.026738487234413737
2179,-0.0326204984314233
2180,-0.036535978137292605
2181,-0.03719895358536182
2182,-0.03402868589560812
2183,-0.027956242003950693
2184,-0.021493902069856848
2185,-0.017552205153572892
2186,-0.01765400012079922
2187,-0.021005459843019478
2188,-0.025350735727098367
2189,-0.028954435926961536
2190,-0.03190796665715899
2191,-0.03548950143153087
2192,-0.04017447214565835
2193,-0.0443206264720098
2194,-0.04504241583019779
2195,-0.040699155049945784
2196,-0.032739709980008816
2197,-0.025080217333617684
2198,-0.021416708145476658
2199,-0.022777213780595384
2200,-0.027351222362808056
2201,-0.03246964938207312
2202,-0.0366780564995665
2203,-0.040012875760314676
2204,-0.04259285264355671
2205,-0.04338549295629797
2206,-0.04072926307405979
2207,-0.03422271747952441
2208,-0.025998281299505935
2209,-0.019843438573207
2210,-0.01868977181643841
2211,-0.022603140315144904
2212,-0.028984468955856494
2213,-0.034673242869604576
2214,-0.03801284427878449
2215,-0.03919767883584191
2216,-0.03898956673943289
2217,-0.03737425433796171
2218,-0.03356241037515486
2219,-0.027248488662953776
2220,-0.0197657066487395
2221,-0.013895899866641746
2222,-0.012359949607627702
2223,-0.01616425679618174
2224,-0.024026189581832405
2225,-0.03317279214820114
2226,-0.04081757722989754
2227,-0.04532676379564678
2228,-0.04651168878342963
2229,-0.04513243719330276
2230,-0.042118911921998965
2231,-0.03807431067273186
2232,-0.03338013969482262
2233,-0.02877523796253366
2234,-0.025834836783078005
2235,-0.026684355842226726
2236,-0.032798271768804024
2237,-0.043609240605106875
2238,-0.0561281495078346
2239,-0.06622419900795445
2240,-0.07088805155770644
2241,-0.06982791105978584
2242,-0.0651447709732412
2243,-0.059414044817778955
2244,-0.0538761297288073
2245,-0.04826671290534167
2246,-0.042191678728629056
2247,-0.036427311016613124
2248,-0.032639357910589084
2249,-0.03170146909624924
2250,-0.032362763714271964
2251,-0.03181957889080682
2252,-0.027890712910739288
2253,-0.020816824410431586
2254,-0.01294350664413767
2255,-0.006547688315800691
2256,-0.001875981658942455
2257,0.0027264664375322516
2258,0.008740452627030479
2259,0.015470198305740798
2260,0.020056740610025915
2261,0.019557635900199828
2262,0.013299789050900731
2263,0.003601215799263562
2264,-0.005517648150075253
2265,-0.010435766235790643
2266,-0.009385140623566721
2267,-0.0027286601497131004
2268,0.007516871046834483
2269,0.0183637571842855
2270,0.026605957109643433
2271,0.02967061687314053
2272,0.0263149252878329
2273,0.0167495813446144
2274,0.0021840642233631616
2275,-0.015619616179424117
2276,-0.03426206299617213
2277,-0.050420836039166944
2278,-0.0603657181851843
2279,-0.06172535677348848
2280,-0.05544798434766285
2281,-0.04602619390795932
2282,-0.03909797086405604
2283,-0.03786203103431275
2284,-0.04114000978338968
2285,-0.044775540935667615
2286,-0.04520203211355735
2287,-0.04209032352737453
2288,-0.03789872834772705
2289,-0.035057626210591775
2290,-0.03363259941753878
2291,-0.03163134059896311
2292,-0.02743701157237157
2293,-0.021860109259606728
2294,-0.017860860090879258
2295,-0.018347145794947714
2296,-0.024167819993244608
2297,-0.033943434493814456
2298,-0.04546800788849169
2299,-0.05712521745159001
2300,-0.068211130005466
2301,-0.07844702910836356
2302,-0.08769306430742617
2303,-0.09631258765895592
2304,-0.10564299401773446
2305,-0.11778823348580328
2306,-0.1346439023285299
2307,-0.15683954680167
2308,-0.1833361018350588
2309,-0.2118486857141157
2310,-0.2397559381547903
2311,-0.26507380687784204
2312,-0.2871658849577311
2313,-0.30684168961449043
2314,-0.32554385439636807
2315,-0.34379242521360814
2316,-0.3597252380325384
2317,-0.3686557914563503
2318,-0.3636597655731247
2319,-0.33608214651161483
2320,-0.27494096580880245
2321,-0.1659060900970894
2322,0.00758525743685708
2323,0.2586120397567605
2324,0.5867590804181406
2325,0.9678205360780865
2326,1.3490916427635558
2327,1.6547557375900532
2328,1.80217560996997
2329,1.725785302102468
2330,1.4019434939413253
2331,0.8659431892923289
2332,0.2123094834705654
2333,-0.42655936605203
2334,-0.919685239440885
2335,-1.1807058651382878
2336,-1.1956522235911144
2337,-1.0212900682985333
2338,-0.7548019938577092
2339,-0.4911448126840094
2340,-0.2902049598928865
2341,-0.1678393159830346
2342,-0.10905009854046685
2343,-0.08935045437390718
2344,-0.08963441097184666
2345,-0.09897971747541905
2346,-0.110102414231811
2347,-0.11570472382463864
2348,-0.10973009525825476
2349,-0.09108457140606553
2350,-0.06489100013457075
2351,-0.03924813876165569
2352,-0.02007756744198832
2353,-0.00833737577179632
2354,-0.0014392966780113958
2355,0.0031221930049466634
2356,0.005490042278776419
2357,0.0042681278704736715
2358,-0.0009092159027196292
2359,-0.007870617308043101
2360,-0.012966801573512439
2361,-0.013646215386333059
2362,-0.010154812388761057
2363,-0.004935168022409606
2364,-0.0004857750526809063
2365,0.00225655535816452
2366,0.003661944177073957
2367,0.003864368925468746
2368,0.0017748231135532545
2369,-0.004114126964590846
2370,-0.013774186779563258
2371,-0.024502005543106276
2372,-0.03200328390421728
2373,-0.033118522082680776
2374,-0.028022016026684447
2375,-0.020060774365207534
2376,-0.013401220984977959
2377,-0.01048699942744796
2378,-0.011294740566583302
2379,-0.014580052967196225
2380,-0.01949871230044091
2381,-0.025905718129963
2382,-0.033269379980018804
2383,-0.03974771532288522
2384,-0.04284979949871068
2385,-0.04134489624401537
2386,-0.03653659769329824
2387,-0.031408799943838266
2388,-0.028221857643507018
2389,-0.026810223292473116
2390,-0.025289878200979127
2391,-0.022515296895759297
2392,-0.019775396286668426
2393,-0.019850400757465695
2394,-0.0241775339920526
2395,-0.030901085760219594
2396,-0.03589175893313826
2397,-0.03597700865897961
2398,-0.03142229004431057
2399,-0.025384476051812856
2400,-0.020992721593747585
2401,-0.01896895192193176
2402,-0.018002522489621246
2403,-0.017173434398273044
2404,-0.017597157970556537
2405,-0.02135078369852689
2406,-0.028721451124761165
2407,-0.036768739989528634
2408,-0.041015345314237873
2409,-0.03891830199176424
2410,-0.031873570872565885
2411,-0.023864242490184203
2412,-0.018129314816944905
2413,-0.015081415700215619
2414,-0.013279511731426493
2415,-0.012076486833117076
2416,-0.01291571172763921
2417,-0.01780243316812502
2418,-0.026551869687090987
2419,-0.03579315784096272
2420,-0.04098326946589895
2421,-0.039681087102438214
2422,-0.0331291489128242
2423,-0.024918244206285366
2424,-0.018272804461524364
2425,-0.014478212770449209
2426,-0.013394492348303077
2427,-0.014774512317001234
2428,-0.018623114499924723
2429,-0.024379745779741904
2430,-0.030309708751617696
2431,-0.03425655211110385
2432,-0.03516905059195276
2433,-0.03369798746725472
2434,-0.03108462834752363
2435,-0.027560649079943995
2436,-0.022217536244405874
2437,-0.014755102597062805
2438,-0.00725410287758548
2439,-0.003690106209819107
2440,-0.007029898090855115
2441,-0.016368421190941052
2442,-0.026905831173443067
2443,-0.033097455488685
2444,-0.03238405884507299
2445,-0.02640100305614245
2446,-0.018938941883064525
2447,-0.012811662225943411
2448,-0.008427381803903759
2449,-0.004867198674336465
2450,-0.001840174979565859
2451,-0.000381767445929205
2452,-0.0017870653391093086
2453,-0.006097437521778252
2454,-0.01165854724449115
2455,-0.015952856574831652
2456,-0.016726779792699972
2457,-0.012580552253006699
2458,-0.003164484172885033
2459,0.010460327698884744
2460,0.025408595415491037
2461,0.03738985069046715
2462,0.04248182331409611
2463,0.03937872972902015
2464,0.030297082604333912
2465,0.019511124038623012
2466,0.010503027776720596
2467,0.004026614553791633
2468,-0.0013927034786431493
2469,-0.007213919601801634
2470,-0.013125987252565996
2471,-0.017412126163250708
2472,-0.018945637832474972
2473,-0.018780876875468387
2474,-0.01976400005768809
2475,-0.024498408312152303
2476,-0.033461762299694456
2477,-0.044773313616851496
2478,-0.05552550450008521
2479,-0.06334724745434021
2480,-0.06704338155956957
2481,-0.06632741515865229
2482,-0.061504775202233436
2483,-0.053676407631641415
2484,-0.045093548397871025
2485,-0.03882767613244677
2486,-0.037478747022653566
2487,-0.041668541536644385
2488,-0.04949985853527665
2489,-0.05752556490572361
2490,-0.06260932557552124
2491,-0.06339233822218636
2492,-0.060458674234638646
2493,-0.05534469903908533
2494,-0.0493644373430363
2495,-0.043182390918306425
2496,-0.03727414364073633
2497,-0.03258952288753705
2498,-0.030570597662904556
2499,-0.03230276992592605
2500,-0.0374473796000264
2501,-0.04394634383645909
2502,-0.04894830537346563
2503,-0.05038394050010986
2504,-0.04800236188884896
2505,-0.043077950982278804
2506,-0.037129301891010234
2507,-0.03085685439542068
2508,-0.024258742761454996
2509,-0.01769574402872756
2510,-0.012667494194236153
2511,-0.011265437124463842
2512,-0.014569478251254387
2513,-0.021409042778168658
2514,-0.028730860481423523
2515,-0.03340116762295268
2516,-0.03396926337956631
2517,-0.03101241210850539
2518,-0.026059238167351877
2519,-0.020349312671656884
2520,-0.014581558359138545
2521,-0.009541935623332295
2522,-0.006503305315791132
2523,-0.006643477231747092
2524,-0.00999461613773268
2525,-0.015138198846299362
2526,-0.02013875450427373
2527,-0.0238308284394813
2528,-0.026120397704810262
2529,-0.027046345275719794
2530,-0.025830079701256954
2531,-0.021310352364205237
2532,-0.01364781379495859
2533,-0.0055295830564978474
2534,-0.0011917021185261865
2535,-0.003576424041501148
2536,-0.011942352774807114
2537,-0.022148283705233696
2538,-0.02954368645237953
2539,-0.03205729677383441
2540,-0.03094567751070892
2541,-0.028867048150120728
2542,-0.027326305753664192
2543,-0.02584028580557481
2544,-0.02326481140011084
2545,-0.019626271677692216
2546,-0.016552611433743113
2547,-0.016032979328149025
2548,-0.018905772196555717
2549,-0.0244964090772641
2550,-0.03140178537366052
2551,-0.0382582108472345
2552,-0.04368830399267131
2553,-0.04594034990017518
2554,-0.04333770329724017
2555,-0.03571318886719957
2556,-0.02552705559385208
2557,-0.01713980064671429
2558,-0.014264833732195347
2559,-0.01751167686559809
2560,-0.0241457162908167
2561,-0.03032099235075127
2562,-0.03382124994215868
2563,-0.03495953878207124
2564,-0.03513695393331781
2565,-0.03480611414612027
2566,-0.032996101727150416
2567,-0.02878359791767216
2568,-0.023010821004131845
2569,-0.0182993664254713
2570,-0.017199565757901422
2571,-0.020245671429885127
2572,-0.025755120557752555
2573,-0.03140090438014579
2574,-0.035841151482241304
2575,-0.038833567752669745
2576,-0.040066493846810144
2577,-0.038403970372346656
2578,-0.032752081639334116
2579,-0.023821436935261463
2580,-0.014792784663991553
2581,-0.009748379990321323
2582,-0.010931858529721316
2583,-0.017203062151396973
2584,-0.025076524390973756
2585,-0.03138905654292898
2586,-0.03522760414660818
2587,-0.03760445541008531
2588,-0.03956519162100791
2589,-0.0407690817930689
2590,-0.03986458388006908
2591,-0.03607790396074713
2592,-0.030302844872690946
2593,-0.024641908569354345
2594,-0.020953485244553146
2595,-0.019821436346376564
2596,-0.020728968261428265
2597,-0.022925436517645913
2598,-0.025921311219608428
2599,-0.029199694306504414
2600,-0.03174394795466371
2601,-0.032207581970801744
2602,-0.029794084994444366
2603,-0.025049579938161246
2604,-0.019750010793732578
2605,-0.015900935125483507
2606,-0.014679240494371327
2607,-0.016127096859490615
2608,-0.019639923381121714
2609,-0.02459407625525506
2610,-0.030502197156873245
2611,-0.03672738655478936
2612,-0.04229988765210384
2613,-0.04623425636776148
2614,-0.04813349437199595
2615,-0.04846847589543503
2616,-0.048176677983802096
2617,-0.047896965316936616
2618,-0.047564056790084505
2619,-0.04678129433145628
2620,-0.045618330701933274
2621,-0.04497493943051836
2622,-0.04595740672639745
2623,-0.04863483134847831
2624,-0.05126313317068022
2625,-0.05085908477196513
2626,-0.0449444501111473
2627,-0.0332420085672783
2628,-0.018030877051083798
2629,-0.0028852022569156974
2630,0.009228812856714324
2631,0.017120884567789495
2632,0.021188376865468685
2633,0.022410246578636314
2634,0.021558084575275624
2635,0.019148779168750015
2636,0.015799104176771682
2637,0.012342795216210272
2638,0.009541221242301702
2639,0.007798697006022716
2640,0.0072618676876538115
2641,0.008108070773283804
2642,0.01047537263861779
2643,0.013892313929377556
2644,0.016829259061563438
2645,0.01716767487842273
2646,0.01357802538081079
2647,0.006739148455581307
2648,-0.0008142099001632883
2649,-0.00633603194134654
2650,-0.008758624287527777
2651,-0.009286617920695583
2652,-0.010270441348098392
2653,-0.013413188007878699
2654,-0.01880785399343282
2655,-0.02536775430962679
2656,-0.031901683603221195
2657,-0.03768245580309356
2658,-0.042134630402008405
2659,-0.04430189953309681
2660,-0.04296065869696764
2661,-0.03748345533954241
2662,-0.02868835142715062
2663,-0.018841648796050842
2664,-0.010732575630793469
2665,-0.006516945188749543
2666,-0.0070993216810511395
2667,-0.01223444988711855
2668,-0.02095766683607235
2669,-0.031933716053682615
2670,-0.0437041485024824
2671,-0.05504650313000217
2672,-0.06543079254304293
2673,-0.07519643393992449
2674,-0.08513528237833987
2675,-0.09574503209743664
2676,-0.10691078203332878
2677,-0.11849279505243665
2678,-0.13131952660735086
2679,-0.14737408560784593
2680,-0.1684677975997402
2681,-0.19421873600079742
2682,-0.2212557887166704
2683,-0.2448905484172366
2684,-0.2623084604906153
2685,-0.27461245778208654
2686,-0.28569497297802926
2687,-0.29863953963120116
2688,-0.31264710236486115
2689,-0.32294230130275253
2690,-0.323054306477698
2691,-0.3063246246391008
2692,-0.2643044010942807
2693,-0.18343914800567254
2694,-0.04452950847783202
2695,0.1713732110825708
2696,0.4713892583703255
2697,0.8386716868974001
2698,1.225887074221785
2699,1.5583290907458602
2700,1.7477762410381101
2701,1.7159392925783532
2702,1.423360661210742
2703,0.8945994942996313
2704,0.22610836292838316
2705,-0.4344534953165032
2706,-0.9361237485320338
2707,-1.180885050467287
2708,-1.1596448463611664
2709,-0.9474610659925182
2710,-0.6607986418830927
2711,-0.40239054719437034
2712,-0.22487467401715863
2713,-0.1289255477073358
2714,-0.0875546447355155
2715,-0.07390067960080643
2716,-0.07415262667240291
2717,-0.08354939710525464
2718,-0.09671131514628123
2719,-0.1041344830920854
2720,-0.09718335193191305
2721,-0.07487155485470959
2722,-0.04495385905057553
2723,-0.018246248785736045
2724,-0.001417906436253672
2725,0.005899820391857585
2726,0.008378120091333992
2727,0.010038395038738608
2728,0.011411855530981438
2729,0.010425703556866936
2730,0.0053746672959037395
2731,-0.002826043383666349
2732,-0.010743740688843553
2733,-0.014537545287831828
2734,-0.012427793769264735
2735,-0.0058359502736732086
2736,0.0015235323974123016
2737,0.0059540757161017
2738,0.005887981331588543
2739,0.002341216684842125
2740,-0.0024641370273855018
2741,-0.007012672983290738
2742,-0.011271723538276978
2743,-0.015796349727765294
2744,-0.020255579134032226
2745,-0.023009357368717266
2746,-0.022264929582696772
2747,-0.017710010193310165
2748,-0.011015293984562732
2749,-0.004721775540237016
2750,-0.000597183071949997
2751,0.0010429503517073815
2752,0.0006515525049889789
2753,-0.0016057163846356299
2754,-0.006049052875139878
2755,-0.012660749364392616
2756,-0.02022514577174568
2757,-0.026455742177393667
2758,-0.029118487838617896
2759,-0.027237393373411446
2760,-0.021536415353952322
2761,-0.01406618978898478
2762,-0.00751316939960292
2763,-0.004499064738567269
2764,-0.006760404909394191
2765,-0.014201997317705885
2766,-0.02440598602234715
2767,-0.033383231159876
2768,-0.03755989129618206
2769,-0.03576335696281775
2770,-0.029628225353511554
2771,-0.022021006451063113
2772,-0.014847389180248069
2773,-0.008225791060766914
2774,-0.0017291700348064463
2775,0.003666463128822073
2776,0.005118018318922434
2777,-0.00019213454445007492
2778,-0.012239822338103369
2779,-0.026966346293465608
2780,-0.038068416231421445
2781,-0.0406610035064921
2782,-0.03413731117612133
2783,-0.022211470909028988
2784,-0.010348640037583255
2785,-0.0026334017493857354
2786,-0.0001907311897423093
2787,-0.0017769234208955043
2788,-0.0055228180860502725
2789,-0.010293974458479793
2790,-0.015849479883948896
2791,-0.02208267978046667
2792,-0.028210490897304978
2793,-0.032595579419438706
2794,-0.033315560972570206
2795,-0.02912823202697605
2796,-0.020322011628641126
2797,-0.009007891060671392
2798,0.00139914522926901
2799,0.007448142139472799
2800,0.007198893134955559
2801,0.001266041844692889
2802,-0.007325708968958785
2803,-0.014556374388322137
2804,-0.017371902101897714
2805,-0.015053278080862967
2806,-0.009213955610715203
2807,-0.00256625785926019
2808,0.0026173308586059842
2809,0.005372051920517576
2810,0.0059127719906752595
2811,0.004923079466604077
2812,0.0029051341492482403
2813,-6.9723544202704e-05
2814,-0.00424497052239505
2815,-0.00982192031634357
2816,-0.01642296104351585
2817,-0.02257892395630278
2818,-0.025761361566973815
2819,-0.023440399224052708
2820,-0.014882704214862468
2821,-0.0024113632214709294
2822,0.009258023965720535
2823,0.01566975852273582
2824,0.015508110614599953
2825,0.011379888517992102
2826,0.007721683373408986
2827,0.007518800674670987
2828,0.010593475498524591
2829,0.0147468953720573
2830,0.01835103325700977
2831,0.021707469099709248
2832,0.025907478558882955
2833,0.030596765075597967
2834,0.03321825381781894
2835,0.030761371475069525
2836,0.02239643756373778
2837,0.010391776568828786
2838,-0.001582537861150251
2839,-0.011062786311254309
2840,-0.017830012669294664
2841,-0.022688143961478977
2842,-0.0256864073481643
2843,-0.025939269313038974
2844,-0.023270647777459404
2845,-0.019730936235778006
2846,-0.018975772112634938
2847,-0.023662101877031768
2848,-0.03316150690241079
2849,-0.04378108687829431
2850,-0.05140144261719129
2851,-0.05424504315648898
2852,-0.053479003425454016
2853,-0.05143358008378415
2854,-0.04931132687301225
2855,-0.04646658422838454
2856,-0.041667849027531026
2857,-0.034933344578613815
2858,-0.028183304324002647
2859,-0.02417545247363104
2860,-0.024693031519136883
2861,-0.029430001123067984
2862,-0.03626053269509019
2863,-0.04244662163585464
2864,-0.045808608669233086
2865,-0.045229896739603384
2866,-0.04058683260404264
2867,-0.03258720052920263
2868,-0.022786361324275133
2869,-0.013552049597787103
2870,-0.007542948614361138
2871,-0.006638453371525627
2872,-0.010900118124055874
2873,-0.01839631779371173
2874,-0.026194749839727426
2875,-0.031883419134680985
2876,-0.03449202358933441
2877,-0.03421250029791545
2878,-0.031442299415165846
2879,-0.026296577428765983
2880,-0.019153419721261708
2881,-0.011534989342407369
2882,-0.0060303151333705755
2883,-0.004813102663656255
2884,-0.007870387330675943
2885,-0.012694461478049441
2886,-0.016039780397078512
2887,-0.01637280661836059
2888,-0.014812215473736956
2889,-0.013655293795329105
2890,-0.013880277205745705
2891,-0.014066207522354603
2892,-0.011858656906045161
2893,-0.006630869833035983
2894,-0.0007442922720005466
2895,0.0019533676529954786
2896,-0.0008087524759745881
2897,-0.0077722354618689204
2898,-0.015003808617517937
2899,-0.01879329331931203
2900,-0.01815524671167247
2901,-0.015011818346976024
2902,-0.012206479696560763
2903,-0.011211992234242588
2904,-0.011383722837036897
2905,-0.011119420019307817
2906,-0.009720302234952058
2907,-0.008330075305320716
2908,-0.009202638945770886
2909,-0.013898482839654995
2910,-0.02181689176381183
2911,-0.030209553524262987
2912,-0.03572013251889741
2913,-0.036349096304143194
2914,-0.0324206078953178
2915,-0.02593639534661006
2916,-0.019031587892022916
2917,-0.012948320893784225
2918,-0.008311439922934555
2919,-0.006069265655167175
2920,-0.00767647664917614
2921,-0.013879977717619795
2922,-0.023153693828033083
2923,-0.03163311006264084
2924,-0.03523822511858324
2925,-0.03248441019531348
2926,-0.02549167877226484
2927,-0.018153954436055615
2928,-0.013086527049012808
2929,-0.010178602669725808
2930,-0.007979276023560012
2931,-0.006250944484030701
2932,-0.0068106993357175075
2933,-0.011603819839173945
2934,-0.01999864753301444
2935,-0.02834188027449625
2936,-0.032617717787798914
2937,-0.03178220982520141
2938,-0.028429788628831176
2939,-0.026003157165892004
2940,-0.025282739516857458
2941,-0.023756050458251698
2942,-0.018655936210234914
2943,-0.010705600807825795
2944,-0.0046916088126889395
2945,-0.005912817561979016
2946,-0.015521181896431747
2947,-0.02894995170660432
2948,-0.03890747112767196
2949,-0.04041080481456168
2950,-0.03374174027739374
2951,-0.023290843861447405
2952,-0.01384845018062858
2953,-0.0077020336566741635
2954,-0.004578240639103376
2955,-0.003634954061061823
2956,-0.005080734183123107
2957,-0.009826255325955675
2958,-0.01774275603542543
2959,-0.026481953349579375
2960,-0.03225344154313005
2961,-0.032143923504629565
2962,-0.02616354755531619
2963,-0.017369698799596146
2964,-0.009925461734473656
2965,-0.006538979395724273
2966,-0.007156785175799317
2967,-0.009751221964884605
2968,-0.012384410525016109
2969,-0.014772776166198417
2970,-0.01809220243789961
2971,-0.023328005339383937
2972,-0.0297518489211472
2973,-0.03497734981652581
2974,-0.03661603507954489
2975,-0.03411692361979969
2976,-0.029237039246801176
2977,-0.024842079616209566
2978,-0.023163986786090662
2979,-0.02491748630753776
2980,-0.029660462618135205
2981,-0.0365957213947775
2982,-0.04484129192628189
2983,-0.05307973650384591
2984,-0.05936063447053664
2985,-0.06170364524274556
2986,-0.05920889964802288
2987,-0.05270378452624207
2988,-0.044302826615478484
2989,-0.03625096343597805
2990,-0.029993908412321198
2991,-0.02601796724748931
2992,-0.024157268619496436
2993,-0.023748894091772294
2994,-0.023515195822169987
2995,-0.021675084358640358
2996,-0.016691427248172533
2997,-0.00827770243115273
2998,0.002276014091387191
2999,0.012961624253877027
3000,0.022460478335696418
3001,0.03078190100444203
3002,0.03841763560427469
3003,0.044750639945468365
3004,0.04738310089401094
3005,0.043439165480778155
3006,0.03214419565147414
3007,0.016603899629653605
3008,0.0030102651753931703
3009,-0.0026109098934874743
3010,0.001996323577962316
3011,0.0139157875774893
3012,0.026877058251614523
3013,0.03496280609398298
3014,0.03555727622198467
3015,0.029637905190783548
3016,0.01969551550236434
3017,0.007378919972907232
3018,-0.00708826362967618
3019,-0.023474659804373223
3020,-0.039775604973627754
3021,-0.05211493746445574
3022,-0.056740234484688803
3023,-0.05253482681270948
3024,-0.04190752352737416
3025,-0.029320186561779343
3026,-0.018744614616062628
3027,-0.01209793233464253
3028,-0.009556794942417663
3029,-0.010824760872381978
3030,-0.01574725117739937
3031,-0.023708220675097195
3032,-0.03278733646944104
3033,-0.04002785940185964
3034,-0.04299477237575959
3035,-0.04138198656610162
3036,-0.03728205187785454
3037,-0.03398251920841708
3038,-0.0344302419177624
3039,-0.04049601080764143
3040,-0.05305131036871126
3041,-0.07202318238744393
3042,-0.09598779332210894
3043,-0.12191970806031205
3044,-0.14601407551037285
3045,-0.16550292237289072
3046,-0.1801508237253985
3047,-0.19212532590898024
3048,-0.20434715117897798
3049,-0.21878333924407417
3050,-0.23599495023789813
3051,-0.2558033464037439
3052,-0.277852144077772
3053,-0.3012853366090169
3054,-0.32403124659624094
3055,-0.34256866844632283
3056,-0.35200466089640403
3057,-0.34527778100041684
3058,-0.31109499324511936
3059,-0.23251740151963424
3060,-0.08940166784713392
3061,0.1339192368104361
3062,0.43829345980334733
3063,0.8019394655145627
3064,1.1791919118397354
3065,1.5061995245436852
3066,1.7115805478690214
3067,1.7306912098252814
3068,1.523413846564989
3069,1.0932882770927543
3070,0.5002756823843264
3071,-0.14401794307796542
3072,-0.7048086705350993
3073,-1.0689934501229383
3074,-1.186024830225331
3075,-1.0828823157103957
3076,-0.8447250230618016
3077,-0.5728930256446627
3078,-0.34426635858402777
3079,-0.19203574891823585
3080,-0.11177899834434776
3081,-0.08121139840178399
3082,-0.0777598806454726
3083,-0.08558993425395278
3084,-0.09434371491755693
3085,-0.09666498037362138
3086,-0.08862124322500572
3087,-0.0714977181871359
3088,-0.05125263916041863
3089,-0.03458945845074633
3090,-0.024485832923834723
3091,-0.018872086609524323
3092,-0.013309525842805987
3093,-0.00502181217321369
3094,0.005189839465241297
3095,0.01431304796993956
3096,0.019968090850558805
3097,0.02200343671015559
3098,0.02173449711533143
3099,0.020042917432784406
3100,0.016413301222442698
3101,0.00982203736249161
3102,0.0005125137943521633
3103,-0.009143594878959925
3104,-0.015645329895191493
3105,-0.016513029584926568
3106,-0.011907730477296262
3107,-0.004510733090070176
3108,0.0021370476219773242
3109,0.005533229202271858
3110,0.0050946772366857445
3111,0.0017527084829625065
3112,-0.0030433189101926788
3113,-0.008059737498369164
3114,-0.012462666210963317
3115,-0.015740492737287254
3116,-0.01768562458831614
3117,-0.01839844465400744
3118,-0.01810878776297166
3119,-0.01688775103817888
3120,-0.014645599886191251
3121,-0.011628075502484458
3122,-0.008981760878647257
3123,-0.008592108733961433
3124,-0.011912091702775282
3125,-0.018566014077551908
3126,-0.0260383627936685
3127,-0.031020544250589435
3128,-0.03152285595364371
3129,-0.02806424454265513
3130,-0.02297960164388054
3131,-0.01851538756538885
3132,-0.015379845880584688
3133,-0.012863024159651126
3134,-0.010150889492265268
3135,-0.007482893152674466
3136,-0.0061594831357684576
3137,-0.007549862370670556
3138,-0.01200752897497457
3139,-0.01843100390206127
3140,-0.024584193726630062
3141,-0.027930363171944424
3142,-0.026729932845537978
3143,-0.021078819616483748
3144,-0.013281992703254364
3145,-0.006966621223417318
3146,-0.005104556195086054
3147,-0.00819393803977626
3148,-0.014089828673947112
3149,-0.01978113023174622
3150,-0.023679131974611432
3151,-0.02641246355452307
3152,-0.029456693261536965
3153,-0.032986138431183185
3154,-0.03509632664135011
3155,-0.03321242261110402
3156,-0.026387271566652517
3157,-0.01639184808327341
3158,-0.006720475111862051
3159,-0.0005296096360575379
3160,0.0007894436684516262
3161,-0.002317217476882104
3162,-0.008233586025834964
3163,-0.014722230222328488
3164,-0.01931513934095129
3165,-0.02008594626143117
3166,-0.01679607042498478
3167,-0.01142364185735242
3168,-0.007108065528250551
3169,-0.005943709517768351
3170,-0.007457462212355802
3171,-0.009308023294604409
3172,-0.009721601286638123
3173,-0.009359797662911385
3174,-0.01067316422488885
3175,-0.015187581039890478
3176,-0.021309361629922422
3177,-0.02493072866120798
3178,-0.02254257235118795
3179,-0.014163786860229899
3180,-0.003499113674592662
3181,0.004756881329022567
3182,0.008045531395349857
3183,0.006906610696692041
3184,0.0033786107717279253
3185,-0.0012152451043126095
3186,-0.006866629296902399
3187,-0.013530254403032547
3188,-0.019565705547898604
3189,-0.021934640988177618
3190,-0.018318451636570622
3191,-0.009309611131701914
3192,0.0014405452852001813
3193,0.009505451839470694
3194,0.012655430549489954
3195,0.012157064311194132
3196,0.011435204109083216
3197,0.013276462785431067
3198,0.017826407182673927
3199,0.022836763985766173
3200,0.025741274979147633
3201,0.025750403821668273
3202,0.024290789070914212
3203,0.023534981656281206
3204,0.02428915184816867
3205,0.024976129329869395
3206,0.022573977395278763
3207,0.014842768741416813
3208,0.0021494248777447775
3209,-0.012535610966972251
3210,-0.02550996775023822
3211,-0.034652980259698755
3212,-0.04038515520516131
3213,-0.044574687475503305
3214,-0.048416000293889705
3215,-0.05120037590394548
3216,-0.05112438560720198
3217,-0.047437966579314116
3218,-0.041937978358840396
3219,-0.03828598341431162
3220,-0.0395214173403379
3221,-0.04577303235729657
3222,-0.05405256551245166
3223,-0.06024824723092899
3224,-0.061638007737377695
3225,-0.058016892758519754
3226,-0.050959115915650804
3227,-0.04235393016255209
3228,-0.03365259724529121
3229,-0.026140529223000523
3230,-0.021325107021459924
3231,-0.020513766362247304
3232,-0.023783190713197372
3233,-0.029488501984525933
3234,-0.03510311402969811
3235,-0.038823205683452225
3236,-0.04046627007524266
3237,-0.04079895661835739
3238,-0.040028516256462254
3239,-0.037142926805856326
3240,-0.031002254068914662
3241,-0.02223367235840397
3242,-0.013916337122919233
3243,-0.009963640295028938
3244,-0.012283947777461345
3245,-0.019157903255548128
3246,-0.02639194394997591
3247,-0.030379784614121927
3248,-0.030462112396930766
3249,-0.02860199363440338
3250,-0.02686810748424332
3251,-0.025236407802902924
3252,-0.021858524899155865
3253,-0.015516204923889393
3254,-0.007788667170935491
3255,-0.0026247617301473087
3256,-0.0034336928179616102
3257,-0.0102120721579427
3258,-0.01931131734791739
3259,-0.026099203774453926
3260,-0.028178862687685765
3261,-0.026426504304295526
3262,-0.02323132632901957
3263,-0.019900916224479925
3264,-0.01578205440851231
3265,-0.009767014986138143
3266,-0.002438060401304522
3267,0.003473225782204079
3268,0.004881294970304394
3269,0.0007156108961851506
3270,-0.007315037549937225
3271,-0.016088969570815827
3272,-0.023075273200803853
3273,-0.027153432991580725
3274,-0.02797877903845124
3275,-0.025255367206601268
3276,-0.01917815472155323
3277,-0.011627481087861944
3278,-0.0063904605029563195
3279,-0.007355547055485828
3280,-0.01573617182551377
3281,-0.028724040687804007
3282,-0.04099945241586056
3283,-0.04804135679338927
3284,-0.04858431160500724
3285,-0.044423090780785296
3286,-0.038196959994876975
3287,-0.03141527057689298
3288,-0.024346742234440548
3289,-0.01733411963121787
3290,-0.01176507267718183
3291,-0.0095402145911627
3292,-0.011585666891029104
3293,-0.016929471827012224
3294,-0.023220239855078463
3295,-0.02815473315041591
3296,-0.030576295161443806
3297,-0.03055083429976206
3298,-0.02874585246502196
3299,-0.025865766830730705
3300,-0.02251030898986698
3301,-0.01926778399140959
3302,-0.016744845453508045
3303,-0.015490930457834394
3304,-0.01592371762998159
3305,-0.018235675611920743
3306,-0.022174379940806677
3307,-0.026804699626795027
3308,-0.030629136799012052
3309,-0.03228849626506244
3310,-0.031474932377874056
3311,-0.029284561864521823
3312,-0.02758976661571116
3313,-0.027891693208827836
3314,-0.030621415572947765
3315,-0.035400816200868435
3316,-0.04178929399991298
3317,-0.049585809908075616
3318,-0.05833190547208579
3319,-0.06664169978802215
3320,-0.07227570280401238
3321,-0.07314289915566832
3322,-0.06845407496694197
3323,-0.059095362801834465
3324,-0.04706816056921241
3325,-0.03465598339720559
3326,-0.023970715161922444
3327,-0.016837213956358493
3328,-0.01451226330631902
3329,-0.01706869051015583
3330,-0.022949745386437164
3331,-0.029305893394380188
3332,-0.033049867326076524
3333,-0.031887739535520196
3334,-0.024737672723975104
3335,-0.011752893924585445
3336,0.005434552854205728
3337,0.023267774382562074
3338,0.03658636360733104
3339,0.04057560316518337
3340,0.03368097383479515
3341,0.019295306150418256
3342,0.004355882308076307
3343,-0.004624533522133598
3344,-0.005186988358826722
3345,0.0006256832165462763
3346,0.009098699145944102
3347,0.018112379418870388
3348,0.027762711341105393
3349,0.03802333181220136
3350,0.04621441935188672
3351,0.04732048777110083
3352,0.03734306339905699
3353,0.01673195995306011
3354,-0.009318675234797232
3355,-0.034025569576748516
3356,-0.05278624195485099
3357,-0.06443002361454836
3358,-0.06953293559406835
3359,-0.06823894836284165
3360,-0.06014261590656228
3361,-0.046206805476466356
3362,-0.03024887877364479
3363,-0.017822108186255643
3364,-0.013009012904824771
3365,-0.01589131678508646
3366,-0.02293686162765335
3367,-0.029819133553000927
3368,-0.034054154848823244
3369,-0.035380919174045136
3370,-0.03428741968091251
3371,-0.030836687315352933
3372,-0.025222325075796838
3373,-0.019213966879650934
3374,-0.016380671380169194
3375,-0.020137984116178786
3376,-0.031072682379988815
3377,-0.04610247131260474
3378,-0.06055506988448484
3379,-0.07154914514677937
3380,-0.07977446946086623
3381,-0.08820470731421483
3382,-0.09909013307901055
3383,-0.1120831940904363
3384,-0.12513445283579822
3385,-0.1370823507733902
3386,-0.1492873578999604
3387,-0.16470875797974424
3388,-0.18537868695390164
3389,-0.21072971556609438
3390,-0.23823189739759495
3391,-0.265409201928662
3392,-0.2910412466344501
3393,-0.3144934819801026
3394,-0.3343186025568416
3395,-0.34798900911506114
3396,-0.35291619116311557
3397,-0.34670270689869553
3398,-0.32470144950895996
3399,-0.27596721132327967
3400,-0.18175542285904914
3401,-0.020300421437992437
3402,0.22272147851755408
3403,0.5432310745271558
3404,0.913080366550712
3405,1.2817100440896707
3406,1.5831103227208838
3407,1.7458948002846526
3408,1.7073084262395815
3409,1.4328641455751963
3410,0.9380896464344787
3411,0.3007268528789517
3412,-0.35042129663248267
3413,-0.8737933047434261
3414,-1.16649514210421
3415,-1.2025318854812475
3416,-1.0361937010260074
3417,-0.7692741447814093
3418,-0.5025011653502709
3419,-0.2987791965579775
3420,-0.1742896169170841
3421,-0.1135374656164441
3422,-0.09156453401719157
3423,-0.0883603953373359
3424,-0.0917842145323578
3425,-0.09472194901057451
3426,-0.09304617541370015
3427,-0.0857841253425424
3428,-0.07488361538792633
3429,-0.06291341803108874
3430,-0.05045107599492345
3431,-0.03600387282247269
3432,-0.018685344584208386
3433,-0.0007103216915236334
3434,0.013194943002814194
3435,0.019138945804237164
3436,0.016964044111024833
3437,0.01002188072024068
3438,0.0023504240509385653
3439,-0.0038372093715847615
3440,-0.008237402413941542
3441,-0.010806882855204859
3442,-0.010731804874522261
3443,-0.007254958578303927
3444,-0.0012221753891360127
3445,0.0046888917848503615
3446,0.007603912792509159
3447,0.006401549891587162
3448,0.002081627975808602
3449,-0.003626740650935952
3450,-0.009772768472170654
3451,-0.01621991626243068
3452,-0.022408169604726733
3453,-0.026530422425954173
3454,-0.02637675234986809
3455,-0.02124772411484973
3456,-0.013081050738271802
3457,-0.0055949307564233846
3458,-0.002103340898115175
3459,-0.0037995883073678504
3460,-0.009687940894251073
3461,-0.017766091318688407
3462,-0.026166920802292555
3463,-0.033479068870913516
3464,-0.03856598477690007
3465,-0.04060913040401322
3466,-0.039506057935639285
3467,-0.03604744691945051
3468,-0.03142026474467542
3469,-0.026411293170762074
3470,-0.021183569457032127
3471,-0.015967730099741305
3472,-0.011936891429455337
3473,-0.01111606369100619
3474,-0.01500409840302595
3475,-0.022933354019532115
3476,-0.03170864692753826
3477,-0.037145317725240865
3478,-0.036539681846932244
3479,-0.030275931782862385
3480,-0.021432051322557825
3481,-0.013791385287558978
3482,-0.009779191063265254
3483,-0.009683002217239372
3484,-0.012366978363909433
3485,-0.016578679675048932
3486,-0.02170977762667256
3487,-0.02754559659573107
3488,-0.03346746723520545
3489,-0.038012012419363986
3490,-0.03934983160951937
3491,-0.03643585540770952
3492,-0.029952421068933976
3493,-0.022230477161833875
3494,-0.016083697434269455
3495,-0.013349391582246732
3496,-0.0141750933273466
3497,-0.017465181440597964
3498,-0.021919576164489377
3499,-0.02664778483088366
3500,-0.03087774945315236
3501,-0.033310606931959
3502,-0.03215943520864585
3503,-0.026278727003979097
3504,-0.016577676174866284
3505,-0.006327531138072117
3506,0.00028076174034217345
3507,0.00047954923924129053
3508,-0.005544265417237672
3509,-0.015029284405100339
3510,-0.024480075450297255
3511,-0.031447276858432786
3512,-0.03505345935550718
3513,-0.03535354286532562
3514,-0.03256521580098405
3515,-0.0269947586515693
3516,-0.019519344578840293
3517,-0.011851859277703282
3518,-0.006097340977804825
3519,-0.003871947678327237
3520,-0.00563466503097506
3521,-0.010577792514565396
3522,-0.016924654662367845
3523,-0.02237871809480721
3524,-0.024720675910264223
3525,-0.02262031028765575
3526,-0.016368942323504252
3527,-0.007907417877993556
3528,0.00015252313453674319
3529,0.005934425578068442
3530,0.009017707769502132
3531,0.009910339923623548
3532,0.008944464821446669
3533,0.005894223609784253
3534,0.0008389300013569201
3535,-0.004676742419701847
3536,-0.007700331520005623
3537,-0.00555261877329034
3538,0.0022034761817807916
3539,0.013344708189714321
3540,0.024546955471219968
3541,0.03340841182082368
3542,0.0390283739256283
3543,0.04088585447524484
3544,0.03772112458786063
3545,0.028183164968535533
3546,0.01294143753264728
3547,-0.004062892760158122
3548,-0.017191535661119264
3549,-0.022799493875051587
3550,-0.02196472150436772
3551,-0.019672102382450277
3552,-0.020970468558395013
3553,-0.027382916587355782
3554,-0.036548976194877084
3555,-0.04500525942507816
3556,-0.05120799945871213
3557,-0.05605631173642249
3558,-0.06093124682262382
3559,-0.06568947415959683
3560,-0.06873946529540081
3561,-0.06885112104974582
3562,-0.06649482882450372
3563,-0.06321910755338987
3564,-0.05992192591363561
3565,-0.05615346184503952
3566,-0.051356856387300476
3567,-0.04659809440204532
3568,-0.04454338746430561
3569,-0.04721818825216405
3570,-0.05359357993019056
3571,-0.05955932365190619
3572,-0.0606724634013974
3573,-0.0553662236788773
3574,-0.04581923641042585
3575,-0.03590607475711354
3576,-0.028315428931673572
3577,-0.023408881318316505
3578,-0.020391247579662212
3579,-0.019070836111153268
3580,-0.02021466696151234
3581,-0.024306026086388398
3582,-0.030309696905383716
3583,-0.03595186430570407
3584,-0.03928389328137252
3585,-0.03990008251898253
3586,-0.03860467016444992
3587,-0.03602781985839978
3588,-0.03179831661783472
3589,-0.02524004741549414
3590,-0.016899367371502154
3591,-0.009268397479341304
3592,-0.0057601105556083845
3593,-0.008572941756552748
3594,-0.017047203697235915
3595,-0.02770130957043287
3596,-0.035884049101369324
3597,-0.03798601465213855
3598,-0.03301782187141934
3599,-0.0228837692864612
3600,-0.011363248931685464
3601,-0.002359088790353163
3602,0.001721802630850688
3603,0.0006589780103302828
3604,-0.004080114628914373
3605,-0.010529295292570282
3606,-0.017198753403441115
3607,-0.0232626889538999
3608,-0.02816294885371534
3609,-0.031290789797387815
3610,-0.03212255845887897
3611,-0.030550268354651383
3612,-0.026942724933954276
3613,-0.021919509019978724
3614,-0.01629248702632454
3615,-0.011411105429815518
3616,-0.009396640197885782
3617,-0.012449080217607777
3618,-0.021205132190601272
3619,-0.03338616313550262
3620,-0.04426763814205559
3621,-0.04917294215262819
3622,-0.046312279079068014
3623,-0.03772970112967601
3624,-0.02762684073546182
3625,-0.019571373904006102
3626,-0.014918234622822189
3627,-0.013393038794862455
3628,-0.014650761048099252
3629,-0.01890117329840399
3630,-0.026028137975263918
3631,-0.03447946658648298
3632,-0.04152689893453609
3633,-0.04495718666787095
3634,-0.04457233359039853
3635,-0.04194168443471191
3636,-0.03865556541763898
3637,-0.03495048530478004
3638,-0.030225115873005144
3639,-0.024927605836418308
3640,-0.02167487437309772
3641,-0.02401296557340736
3642,-0.03351055560780261
3643,-0.047690044541858545
3644,-0.06084389786910693
3645,-0.06741124227335929
3646,-0.06542510378524363
3647,-0.05746874315873517
3648,-0.048581413813943236
3649,-0.042875125908634855
3650,-0.04140003923044336
3651,-0.04257200803795057
3652,-0.04438569776598807
3653,-0.04634726740054816
3654,-0.0494864959428995
3655,-0.05452788422402526
3656,-0.05994491383053195
3657,-0.06186390994862092
3658,-0.05633043936995864
3659,-0.04236986888129364
3660,-0.02330699200200094
3661,-0.004972443089905389
3662,0.008031884968699152
3663,0.015041897115002627
3664,0.018742797032835275
3665,0.021827861913529492
3666,0.023976942564165167
3667,0.022074599570600546
3668,0.013685063520184991
3669,0.0006771329104352363
3670,-0.010539125236483819
3671,-0.012884523751645467
3672,-0.0036844919828731624
3673,0.01315534942580832
3674,0.029644752707624462
3675,0.038861236581556255
3676,0.03877758603026877
3677,0.03218143602876652
3678,0.023426414383779248
3679,0.015064099655570415
3680,0.006928159024854185
3681,-0.0022418465778223577
3682,-0.012680204662504926
3683,-0.023052945109168832
3684,-0.0317717942658301
3685,-0.038617752343217834
3686,-0.044910635593289124
3687,-0.051941412636656324
3688,-0.05914829465621731
3689,-0.06392136465044998
3690,-0.06352597885382855
3691,-0.0576221247792817
3692,-0.04906456535214917
3693,-0.041979304229986976
3694,-0.038534537488244286
3695,-0.03720413819542145
3696,-0.034238050293974386
3697,-0.027261778639735654
3698,-0.017888788726394364
3699,-0.010921242758336207
3700,-0.010676324234470166
3701,-0.017562425673695252
3702,-0.027828627922695522
3703,-0.03657062748886475
3704,-0.04124106300626461
3705,-0.04270229313345479
3706,-0.04335300469005596
3707,-0.04456256420082703
3708,-0.04598081969766622
3709,-0.04711514770257892
3710,-0.049192357107362965
3711,-0.055121471262685795
3712,-0.06742532912407825
3713,-0.0861425158888149
3714,-0.10876287949682513
3715,-0.13224525969987444
3716,-0.1551334267200863
3717,-0.17775838038711794
3718,-0.20050174472712373
3719,-0.22212755511912347
3720,-0.2402307509099104
3721,-0.2537468971704113
3722,-0.26515036959913363
3723,-0.2797377575583658
3724,-0.301763752279729
3725,-0.3302243878078175
3726,-0.35789835437996814
3727,-0.3746971872972257
3728,-0.3723998895933426
3729,-0.3461750845825769
3730,-0.2910226933222664
3731,-0.1964534771843069
3732,-0.045603994225907565
3733,0.1776979305284924
3734,0.4768519048445109
3735,0.83284655134421
3736,1.2028923674648497
3737,1.5270870116292563
3738,1.7386040194113068
3739,1.7746055461402022
3740,1.5898653876567077
3741,1.1755077846635982
3742,0.577846752606467
3743,-0.09679173750106754
3744,-0.7048051186083055
3745,-1.114040464149151
3746,-1.2564531894582556
3747,-1.1541103777578923
3748,-0.9015148871827472
3749,-0.6149398079672725
3750,-0.38037854073869626
3751,-0.22952717241179632
3752,-0.15054964388696623
3753,-0.11634155332994368
3754,-0.1061934952032135
3755,-0.10947745020375704
3756,-0.1180646499721191
3757,-0.12134882352242596
3758,-0.11025029905869
3759,-0.08460535420335602
3760,-0.054432740605825286
3761,-0.03240708498002216
3762,-0.024172081331762994
3763,-0.025193582216532624
3764,-0.026258286053041483
3765,-0.021709441292210793
3766,-0.012886650191569697
3767,-0.004744823638888078
3768,-0.0001397320210715547
3769,0.0024314535610719373
3770,0.006143131167276807
3771,0.01168795405914146
3772,0.016026519931049716
3773,0.015056063123727004
3774,0.007417602150460244
3775,-0.00404546406315996
3776,-0.01419554842560122
3777,-0.018996295135242165
3778,-0.01771485652554075
3779,-0.01269873923776927
3780,-0.007462849176348964
3781,-0.00468783161626932
3782,-0.005266598514179249
3783,-0.008567079219977666
3784,-0.01339028535374218
3785,-0.01889361781744652
3786,-0.02489297404419214
3787,-0.03137398791310431
3788,-0.0376393129930578
3789,-0.04193767663844372
3790,-0.042188884096704155
3791,-0.03750196580681074
3792,-0.02928860791157855
3793,-0.02083226219532753
3794,-0.015368822681002307
3795,-0.014106691807481558
3796,-0.015825962511518098
3797,-0.01837564205697656
3798,-0.02065797876041977
3799,-0.023217967373796472
3800,-0.02690823610268007
3801,-0.03104792843582123
3802,-0.033114754869005045
3803,-0.03058784795514149
3804,-0.023398011394695068
3805,-0.014665364924856088
3806,-0.008848853503311882
3807,-0.008763145611073274
3808,-0.013910904638033732
3809,-0.021319441857916344
3810,-0.027846839800025624
3811,-0.031881990595086535
3812,-0.03334295848427746
3813,-0.03265952681349275
3814,-0.03013766647580018
3815,-0.026209812120875912
3816,-0.02182358006107767
3817,-0.01811895067846079
3818,-0.015625000585669225
3819,-0.014046861809984941
3820,-0.013147362467037656
3821,-0.01380176665482238
3822,-0.017745277208262047
3823,-0.025749421353389992
3824,-0.03584025914187193
3825,-0.04362109210274752
3826,-0.045005753623763994
3827,-0.03927006568840405
3828,-0.029733804001952413
3829,-0.021370486678149954
3830,-0.01739310835185339
3831,-0.01771129927920269
3832,-0.020276514910780162
3833,-0.023598344336248626
3834,-0.027816657880313334
3835,-0.033447609522827146
3836,-0.03943485155343451
3837,-0.04285601450472866
3838,-0.04088008473790938
3839,-0.03319279407865217
3840,-0.02253907008027383
3841,-0.012823804466903288
3842,-0.006527847234098804
3843,-0.0037299554321367197
3844,-0.003322423627731755
3845,-0.004847827781846189
3846,-0.008924339940530783
3847,-0.015846168298938264
3848,-0.02394196948437255
3849,-0.029633873686153608
3850,-0.029529600269422862
3851,-0.02290090347890228
3852,-0.01245053263040383
3853,-0.002719099805803364
3854,0.002575979979531971
3855,0.0022874146778908673
3856,-0.0023016962812014864
3857,-0.008870613945859241
3858,-0.015333635076721216
3859,-0.020195786220346894
3860,-0.022286263730252387
3861,-0.020657041177427324
3862,-0.014989809609060458
3863,-0.006092491544922337
3864,0.004173873408904384
3865,0.013697115801437669
3866,0.021094497258135843
3867,0.026109669434178383
3868,0.029157056813438657
3869,0.030495255450029984
3870,0.029845767336276998
3871,0.026873196935727164
3872,0.022122490149691282
3873,0.017465694469266872
3874,0.015372167760699638
3875,0.017270095338793777
3876,0.022169963761807573
3877,0.026756369894706134
3878,0.027148500178579005
3879,0.02120834256008327
3880,0.009746638835339263
3881,-0.00423551829719405
3882,-0.017616128091546467
3883,-0.028900691793287976
3884,-0.038401721676019816
3885,-0.0469831588915849
3886,-0.05465427183177402
3887,-0.0602583490531676
3888,-0.062425537343676396
3889,-0.060878681390274914
3890,-0.057000546680055726
3891,-0.053278813025535846
3892,-0.05209252484615817
3893,-0.05461220422350798
3894,-0.06031622984934932
3895,-0.06720612720025856
3896,-0.07256440169434387
3897,-0.07400561592733838
3898,-0.07046642431785677
3899,-0.06270122882219421
3900,-0.05299545272004111
3901,-0.04420581555128941
3902,-0.038616539543857686
3903,-0.03715138155323089
3904,-0.03920567634403764
3905,-0.043044373563628946
3906,-0.046569204631832076
3907,-0.04821174441143644
3908,-0.047598341178554326
3909,-0.0455569980345547
3910,-0.04330511386114107
3911,-0.04130576039395527
3912,-0.03877520427875292
3913,-0.03449114001907172
3914,-0.028403748070985606
3915,-0.022567734263278037
3916,-0.020203806175267527
3917,-0.023287777365135293
3918,-0.03060041882302378
3919,-0.03808614430048719
3920,-0.04149835867422476
3921,-0.03925142088138528
3922,-0.03311180723991164
3923,-0.026235416223517494
3924,-0.02042362347781252
3925,-0.015116191962299933
3926,-0.008935214782257467
3927,-0.002141585792655728
3928,0.002520493627771965
3929,0.0016045085356555197
3930,-0.006091459982131106
3931,-0.017998082233012774
3932,-0.029034612613146445
3933,-0.03463778911959795
3934,-0.033176116700757236
3935,-0.026132155437759052
3936,-0.016451593478075757
3937,-0.006805744518918223
3938,0.0009083021198866737
3939,0.00504767765121277
3940,0.003931953830646353
3941,-0.00342166928509424
3942,-0.016088788917128914
3943,-0.03089647456018567
3944,-0.04366217082803636
3945,-0.05126759899583736
3946,-0.05297868576052199
3947,-0.05005546938743846
3948,-0.044223838115095906
3949,-0.036540354359200534
3950,-0.027644278827639084
3951,-0.018885948998754995
3952,-0.012834896586556628
3953,-0.012206819641299688
3954,-0.01783314011871861
3955,-0.027415236550714227
3956,-0.03635017607668817
3957,-0.04025206460697053
3958,-0.0374098707786555
3959,-0.029515231627570575
3960,-0.02038401272805648
3961,-0.013797935561553808
3962,-0.011890956998600375
3963,-0.014730279915339317
3964,-0.020828868094762774
3965,-0.02803124110651809
3966,-0.034432764246663514
3967,-0.03912620646499895
3968,-0.0424119901616556
3969,-0.04512238965257184
3970,-0.04732799829681074
3971,-0.047528413866571355
3972,-0.0434558319769598
3973,-0.034348747592207435
3974,-0.02289548048395333
3975,-0.01471015142482585
3976,-0.01497143194882686
3977,-0.02446851294307513
3978,-0.038343031889331344
3979,-0.048982243418365545
3980,-0.0511144954093392
3981,-0.04515172388449501
3982,-0.03615780763973839
3983,-0.029468555081771146
3984,-0.026752868827998683
3985,-0.02571985171730064
3986,-0.023314498773307823
3987,-0.019191903363892225
3988,-0.016244142433181955
3989,-0.017840687272358952
3990,-0.024462195366534576
3991,-0.03282021858212417
3992,-0.038168624067388295
3993,-0.03768742872886176
3994,-0.032117665812206944
3995,-0.024636533396856983
3996,-0.018375906363077465
3997,-0.014787772718052027
3998,-0.013810229300012397
3999,-0.014987183377245455
4000,-0.01810371222900672
4001,-0.022834220795926202
4002,-0.028147119506042803
4003,-0.032437520600305206
4004,-0.034460044336708
4005,-0.03417443554945109
4006,-0.032628240757366214
4007,-0.030938390987594887
4008,-0.029323038725730423
4009,-0.02710311645914881
4010,-0.023698932909049016
4011,-0.01973206670161294
4012,-0.01720321996961146
4013,-0.018436373507593102
4014,-0.024457676607946927
4015,-0.03396775498502118
4016,-0.04372255974627637
4017,-0.050196079690664794
4018,-0.051496268782172644
4019,-0.048287445059840936
4020,-0.04314955883118167
4021,-0.03892969652835723
4022,-0.0373448732901752
4023,-0.0387676462177636
4024,-0.04300917567900097
4025,-0.05001076320708791
4026,-0.05954434325377478
4027,-0.07017094378831223
4028,-0.07869467375731647
4029,-0.08112364919985315
4030,-0.0748123803322476
4031,-0.060254935787737884
4032,-0.04111017787436698
4033,-0.022403145101951197
4034,-0.008202402442659063
4035,-0.00023299535083191512
4036,0.002114658843651993
4037,0.0009670127031090004
4038,-0.0009183577532191037
4039,-0.0009324319138146174
4040,0.00252249124723233
4041,0.009238426833437046
4042,0.017137562318290493
4043,0.023392890286289145
4044,0.026194087103229027
4045,0.02582017788759094
4046,0.02407578116283855
4047,0.02255282142538193
4048,0.021274809731737867
4049,0.01893974287091439
4050,0.01448135178647396
4051,0.00845498339426794
4052,0.0029698043339133774
4053,0.00025092205184106724
4054,0.0010692399590021967
4055,0.004217162751551261
4056,0.007200477429895134
4057,0.007447913108703786
4058,0.003296685743098882
4059,-0.005500478650015482
4060,-0.0176950888415901
4061,-0.030918096753671853
4062,-0.04257332916183984
4063,-0.05094898211340593
4064,-0.05582025432560757
4065,-0.057991077302774495
4066,-0.05809489456812039
4067,-0.05575445334980751
4068,-0.04998773476057275
4069,-0.04058604571692358
4070,-0.02917401916783554
4071,-0.01884195334167282
4072,-0.012509456231006435
4073,-0.01132200873626523
4074,-0.014311565068149627
4075,-0.019396916177795823
4076,-0.024715143917621814
4077,-0.02923638606417508
4078,-0.032486722157127106
4079,-0.03402554677015863
4080,-0.03336093046988432
4081,-0.030393526681676636
4082,-0.025950719764188772
4083,-0.021939392945133633
4084,-0.02094918889816169
4085,-0.02540946360632947
4086,-0.03654483199630072
4087,-0.05352645014597642
4088,-0.07336676657478275
4089,-0.09195295366927567
4090,-0.10597317336786247
4091,-0.11470926050121799
4092,-0.12047492534976317
4093,-0.12725643145054585
4094,-0.13839430418831147
4095,-0.15489738534491687
4096,-0.17551577209467825
4097,-0.1983266723758167
4098,-0.22240155569156544
4099,-0.24810269604944368
4100,-0.2757460226633484
4101,-0.30380684969337046
4102,-0.32831454372306457
4103,-0.3440856622437688
4104,-0.34671376367540235
4105,-0.3332646299837675
4106,-0.3004681487296751
4107,-0.2414131610310864
4108,-0.14356523141440308
4109,0.009301515696433428
4110,0.23087611013919693
4111,0.5237987526702976
4112,0.8717217118764093
4113,1.234254129678642
4114,1.546904107250049
4115,1.7290731048189538
4116,1.7031709454902213
4117,1.4236966559020061
4118,0.9065757241347576
4119,0.24190522858614855
4120,-0.42423635911820345
4121,-0.9382691616766399
4122,-1.1975085627734234
4123,-1.1880718739729743
4124,-0.9812490044428184
4125,-0.691620659434049
4126,-0.422785333021542
4127,-0.23122546396724775
4128,-0.12313787303114909
4129,-0.07604207839684436
4130,-0.06405770024600133
4131,-0.07038941836194967
4132,-0.08551411636558034
4133,-0.10085591334699982
4134,-0.10732137978433465
4135,-0.09951382542624718
4136,-0.07957073143459095
4137,-0.05547642413317348
4138,-0.0349451380269526
4139,-0.0204395133061383
4140,-0.009391241891457226
4141,0.0015199099671376888
4142,0.012596800275395758
4143,0.02111633778964479
4144,0.024283672558339083
4145,0.021817110981992602
4146,0.01588673116655491
4147,0.009084499691693136
4148,0.0027884479488727385
4149,-0.0026651111524925017
4150,-0.006737785758870615
4151,-0.008119341799913185
4152,-0.005617128006653489
4153,0.00039445818494174615
4154,0.0074912772920967
4155,0.012273530160911022
4156,0.0121653633716682
4157,0.006600229697643956
4158,-0.0030148181717760047
4159,-0.014098872457009493
4160,-0.02368593268033413
4161,-0.02898431911262292
4162,-0.02807611495025624
4163,-0.020928571398518205
4164,-0.010088064271343065
4165,-5.092909496485663e-05
4166,0.004902689465860031
4167,0.003176759403119972
4168,-0.0032769443534568844
4169,-0.0105642625689298
4170,-0.015735206710751452
4171,-0.018567668579026867
4172,-0.020791220512907195
4173,-0.023628061127361724
4174,-0.02609482005287629
4175,-0.025750446349778
4176,-0.021165820600268836
4177,-0.013671127045979649
4178,-0.006623963677685141
4179,-0.0028725649252490234
4180,-0.00283627687390872
4181,-0.004935431864320585
4182,-0.007692049115975793
4183,-0.011167013391328244
4184,-0.01620335114063747
4185,-0.02237512696846792
4186,-0.027061385138757242
4187,-0.02703614385952069
4188,-0.021358767650267424
4189,-0.012798886013175133
4190,-0.006182776863100193
4191,-0.0048813484409469515
4192,-0.008460257885105153
4193,-0.013524324795918313
4194,-0.016914219403708936
4195,-0.018330951803470094
4196,-0.02007548364442236
4197,-0.024271824006480758
4198,-0.03021292729689101
4199,-0.03431705314909149
4200,-0.03283112870359636
4201,-0.02501185298545064
4202,-0.014115609897440751
4203,-0.005369435472917596
4204,-0.0025242526177766938
4205,-0.005603667227367564
4206,-0.011364849084567686
4207,-0.015828963312898542
4208,-0.016800024507588444
4209,-0.014609029272224232
4210,-0.010944996776846315
4211,-0.007132904630609583
4212,-0.0034042944866266066
4213,0.00042627800178220393
4214,0.0038249406764789117
4215,0.00526137110841458
4216,0.0032173781216008964
4217,-0.0023860975848166398
4218,-0.009687458254396895
4219,-0.015859260259331365
4220,-0.018784260522626904
4221,-0.018046758764571347
4222,-0.01453277091952066
4223,-0.009245805519913611
4224,-0.002616257120729648
4225,0.005036469121710522
4226,0.012511831201738157
4227,0.017473906603678896
4228,0.017531583727425554
4229,0.01189906980587641
4230,0.0021970961188432876
4231,-0.008359646658631224
4232,-0.01673183335862134
4233,-0.021349363436382933
4234,-0.022075952150490522
4235,-0.019293491049915058
4236,-0.013271457756823549
4237,-0.004453810701318847
4238,0.005849649841805716
4239,0.015404305121601292
4240,0.02201961683831536
4241,0.02482575234342172
4242,0.024723933440954565
4243,0.02360014075081785
4244,0.023013577740645528
4245,0.02347183256263139
4246,0.024733756346014546
4247,0.026572627930371302
4248,0.02910011803270969
4249,0.032347961393597
4250,0.03563466624747409
4251,0.037454290496218026
4252,0.03608132520250443
4253,0.030425938236094748
4254,0.020548100584306346
4255,0.007640313171905007
4256,-0.006323038216815919
4257,-0.019073756566199588
4258,-0.028673108818438722
4259,-0.03421728040073428
4260,-0.03624833159774188
4261,-0.03638756821101184
4262,-0.03621292819866731
4263,-0.036188071496895735
4264,-0.03565133758549627
4265,-0.0340306306813783
4266,-0.03219790850485768
4267,-0.03247657866266477
4268,-0.03688611824328999
4269,-0.044928911827079546
4270,-0.052963439634091024
4271,-0.05609857509134223
4272,-0.05143278630003825
4273,-0.040216967576102894
4274,-0.027286098577297274
4275,-0.018220338370616332
4276,-0.01632017573729512
4277,-0.02132739069428915
4278,-0.030266965368208137
4279,-0.03932735338771773
4280,-0.04544941832827956
4281,-0.04705570780157013
4282,-0.044103103209280875
4283,-0.03775341562675137
4284,-0.029726293984221126
4285,-0.021451804872240236
4286,-0.0135112576232863
4287,-0.005920816246771796
4288,0.0008479918924322246
4289,0.005105899959181334
4290,0.004522976820929387
4291,-0.0019881715232398104
4292,-0.01253984062181059
4293,-0.02243107300574492
4294,-0.026575713118628552
4295,-0.022620102612750864
4296,-0.012419898754284536
4297,-0.0007569276218108686
4298,0.007662967620509494
4299,0.010659567749962023
4300,0.008899185318438098
4301,0.004381496877610271
4302,-0.0012740619997326829
4303,-0.007357103955553692
4304,-0.013387161297510804
4305,-0.018301052186409164
4306,-0.020490826204226473
4307,-0.018697061795797883
4308,-0.012941550548971247
4309,-0.004731595270448234
4310,0.0035350220249759177
4311,0.00945853280781753
4312,0.011330616070313583
4313,0.008534158140358707
4314,0.001767365725832808
4315,-0.00695939927736465
4316,-0.014825016713686835
4317,-0.01928740489406633
4318,-0.019295291221332417
4319,-0.01578275768691366
4320,-0.010952506587542491
4321,-0.006785343162245494
4322,-0.003930008383593222
4323,-0.0018811110801727345
4324,-0.00023115130678583282
4325,0.00024376361256514165
4326,-0.002160432582983496
4327,-0.008508994882204923
4328,-0.017680210669156718
4329,-0.02633254156104086
4330,-0.03067797712411361
4331,-0.028803618047688676
4332,-0.021775907536443158
4333,-0.012753335847208457
4334,-0.004934805330720375
4335,2.030350838975927e-05
4336,0.0020727258523132227
4337,0.0017264011200503037
4338,-0.0009757146704343015
4339,-0.006426070876652491
4340,-0.014486141564324533
4341,-0.02352891436051109
4342,-0.030475874055652413
4343,-0.03210547351197834
4344,-0.02699870001741135
4345,-0.01691692406350409
4346,-0.006502817073249149
4347,-0.0010432704975628384
4348,-0.003339597410028308
4349,-0.011705284496910655
4350,-0.020799083467940373
4351,-0.02516370210051468
4352,-0.023106253750695575
4353,-0.017854283631112484
4354,-0.014789007488768196
4355,-0.01680637591457474
4356,-0.021706267508578892
4357,-0.024024956591391762
4358,-0.019888401295096572
4359,-0.010642025387070488
4360,-0.0019433733952082556
4361,0.0009485762924793324
4362,-0.0025415367405767072
4363,-0.008288583612079185
4364,-0.011568964589951979
4365,-0.011291230016057592
4366,-0.010355732388345008
4367,-0.011980798881718463
4368,-0.01579515917580551
4369,-0.0177241855864415
4370,-0.013963280745265766
4371,-0.00526322677155577
4372,0.0027049898800938213
4373,0.0035376666634526184
4374,-0.004747858036131839
4375,-0.01805289777823943
4376,-0.029306974585446822
4377,-0.03347367730585498
4378,-0.030270221099380316
4379,-0.022893770002833973
4380,-0.014698324062812705
4381,-0.007143714663650429
4382,-0.0004542060702427599
4383,0.004529349164448828
4384,0.005842627809761617
4385,0.0020288008944133067
4386,-0.005829475702306153
4387,-0.014055270193995226
4388,-0.018774798127086555
4389,-0.018742760709958863
4390,-0.01601465289027138
4391,-0.013859550092306373
4392,-0.01388661671369162
4393,-0.015034040579960595
4394,-0.015215784015429572
4395,-0.01387410415723193
4396,-0.012909023500163055
4397,-0.015126701009353651
4398,-0.021757155027477982
4399,-0.03138339541752283
4400,-0.04112503466537989
4401,-0.048730837121431725
4402,-0.05354984104933086
4403,-0.05574224411254169
4404,-0.05500402220564225
4405,-0.05049235101583163
4406,-0.04216301631247636
4407,-0.031982617859599397
4408,-0.02336955044004601
4409,-0.018949287237570417
4410,-0.01853642864071925
4411,-0.01926430770470339
4412,-0.017862841967616172
4413,-0.013077605482481706
4414,-0.006099771844943791
4415,0.0012194167136796686
4416,0.008490664980270155
4417,0.017079236020065683
4418,0.028200981039195192
4419,0.04062992006608524
4420,0.05033549913690462
4421,0.052733295950592854
4422,0.045932490567467385
4423,0.03242455082923147
4424,0.01786388030939489
4425,0.007857798123972463
4426,0.005107362589135302
4427,0.008746319617555072
4428,0.01588067187504811
4429,0.023741912158588833
4430,0.030759170540485086
4431,0.036120814536922896
4432,0.03879485228548556
4433,0.03729338906776798
4434,0.030539683070513482
4435,0.018990935692129764
4436,0.0048477762487983645
4437,-0.008977964364963342
4438,-0.020301682177846926
4439,-0.028329741464147268
4440,-0.033170816823914484
4441,-0.034953119136044083
4442,-0.03361740747998531
4443,-0.029615515901257806
4444,-0.024622107261910418
4445,-0.021170436922497725
4446,-0.02114317604009895
4447,-0.024302315238265183
4448,-0.028223683952932926
4449,-0.029838154016742096
4450,-0.027362822001635707
4451,-0.021121038010235633
4452,-0.012859447420735881
4453,-0.004530201874159247
4454,0.002257766406122645
4455,0.005958364672832834
4456,0.004915556277760788
4457,-0.0018963012936265963
4458,-0.013671825134318204
4459,-0.0275083120130436
4460,-0.03986496668532435
4461,-0.0488219273928278
4462,-0.05517317426082672
4463,-0.06130558547818399
4464,-0.06895320304991011
4465,-0.0780943965192806
4466,-0.08810499618533627
4467,-0.09982682082811142
4468,-0.11601882664056339
4469,-0.13917304051242774
4470,-0.1685320503538031
4471,-0.19936612549087904
4472,-0.2256637476563428
4473,-0.2440909966919465
4474,-0.2557424901269603
4475,-0.2643161116828741
4476,-0.2727708612432258
4477,-0.28164840528535007
4478,-0.2898336171477009
4479,-0.29529331592142793
4480,-0.2931062549663287
4481,-0.27155604691545576
4482,-0.2106129543636352
4483,-0.0865914138360607
4484,0.11793286090293942
4485,0.4041884762150861
4486,0.7520502158284601
4487,1.120018535802329
4488,1.447750414600467
4489,1.6610277431130256
4490,1.6839946509164805
4491,1.4631987416738998
4492,0.9985354220642639
4493,0.36388409901557617
4494,-0.30229582543615774
4495,-0.8417831464302477
4496,-1.1384311390774549
4497,-1.1635418172643854
4498,-0.9786395599392473
4499,-0.6957955303656426
4500,-0.42175878759294727
4501,-0.21883858291859754
4502,-0.09930284935274178
4503,-0.04547261968256072
4504,-0.03395187030352097
4505,-0.04746217431649922
4506,-0.07329606073621805
4507,-0.09847041156345546
4508,-0.11033933053865846
4509,-0.10227631969105244
4510,-0.07756046975008675
4511,-0.04656224978827903
4512,-0.01931040185409471
4513,0.00015476481201834313
4514,0.01348208698833452
4515,0.023420214513614458
4516,0.030026699852122234
4517,0.031012585553031213
4518,0.02508647469740053
4519,0.014511173816473454
4520,0.004335170862767622
4521,-0.000899004770645266
4522,-4.620811898100826e-05
4523,0.0043921714730804995
4524,0.008529741847378793
4525,0.009894637736895343
4526,0.008747321045866261
4527,0.00725824382690103
4528,0.007424979463655369
4529,0.00932629629807763
4530,0.01093518112136482
4531,0.009594830851547463
4532,0.004105063871379138
4533,-0.0040845748477231925
4534,-0.011472905678093557
4535,-0.014517542475901757
4536,-0.011679567725863564
4537,-0.0041823889512233835
4538,0.0048184252407663455
4539,0.01187261561916252
4540,0.01460085610659105
4541,0.012246553960389376
4542,0.005565381588404755
4543,-0.0035736011348102407
4544,-0.012716541899996957
4545,-0.01949832196770873
4546,-0.022344078766164944
4547,-0.020893274981264358
4548,-0.0159534392566214
4549,-0.009138812422782864
4550,-0.0024991528662783816
4551,0.0018105252232471676
4552,0.002068981866665696
4553,-0.002181952842471637
4554,-0.00951672158874273
4555,-0.01698778891973758
4556,-0.021641055664996627
4557,-0.022255682855162648
4558,-0.01991102317004241
4559,-0.016838322705508675
4560,-0.014541617628657353
4561,-0.012882523102652263
4562,-0.010905459936374243
4563,-0.008457081926681789
4564,-0.006848568512890974
4565,-0.007784339090352773
4566,-0.01158453140117293
4567,-0.01652175668475714
4568,-0.020034623357756524
4569,-0.020723456497815484
4570,-0.019251679574746477
4571,-0.017352484211865048
4572,-0.015979412261808983
4573,-0.014417482878196167
4574,-0.01117269407878854
4575,-0.005738381172656909
4576,0.00043406482904863276
4577,0.0046276043495188
4578,0.004609298111177898
4579,7.296387358803145e-05
4580,-0.007139789238054969
4581,-0.013961889374465727
4582,-0.017488246399241847
4583,-0.016191902771214153
4584,-0.010592422739024509
4585,-0.0031211872200368994
4586,0.002933734644610611
4587,0.00506764617569542
4588,0.0028767597043200476
4589,-0.0018910907943523398
4590,-0.006661564053106075
4591,-0.009720521204757714
4592,-0.010915220047476486
4593,-0.01092698976267438
4594,-0.010017973151796849
4595,-0.007611394448443896
4596,-0.0031417068284418097
4597,0.0027666988979273884
4598,0.008131902807497026
4599,0.010782620893031909
4600,0.009806743759047658
4601,0.00593326730851455
4602,0.000606844240185289
4603,-0.00516115789707875
