,0
0,-0.035201941011066475
1,-0.039711284305802494
2,-0.04126005820601597
3,-0.040055978433075366
4,-0.03947135122968882
5,-0.042686782044477276
6,-0.04909074351175971
7,-0.054057353110933654
8,-0.05277353943147956
9,-0.04488567584321029
10,-0.03555863899815735
11,-0.03153191375846433
12,-0.03545750573502125
13,-0.04377155850566031
14,-0.05032874335197979
15,-0.052497148271486174
16,-0.053676773195408804
17,-0.05935225244988586
18,-0.07024597234666084
19,-0.07963313974976521
20,-0.07846616231922657
21,-0.06432880038426102
22,-0.04571089917538645
23,-0.036592616135478165
24,-0.04517138815388587
25,-0.06649449931392844
26,-0.08578496822413009
27,-0.08975725970328821
28,-0.07604871320358778
29,-0.052883503888733474
30,-0.030314284158124517
31,-0.011927910767143812
32,0.005418860499638679
33,0.024806651848928316
34,0.04339766628336553
35,0.05403159905270377
36,0.05259121181509528
37,0.043156751849921
38,0.035115937210878675
39,0.034744598297492844
40,0.039634949327293584
41,0.04160340155538797
42,0.035144709993743625
43,0.022926521485100583
44,0.012958038396743685
45,0.010627476614015738
46,0.013917944013876634
47,0.01654141310653249
48,0.015293490718761476
49,0.013503065551482868
50,0.016700220488179134
51,0.025110360086032756
52,0.03133903455279461
53,0.02649658499202287
54,0.009126234037999902
55,-0.012157312404697716
56,-0.025608782095142134
57,-0.026703609824419633
58,-0.022098256985451727
59,-0.0233722769016586
60,-0.03650562274953817
61,-0.057019127474891504
62,-0.07502133916486951
63,-0.08476705474815166
64,-0.08924829609380427
65,-0.09567081328062968
66,-0.10692615798159294
67,-0.11809468574122109
68,-0.12181009290692128
69,-0.11727654066232401
70,-0.11386887769694895
71,-0.1253552886965647
72,-0.15979271462066352
73,-0.21424805426352325
74,-0.27878442488516036
75,-0.3453041442534179
76,-0.4124146348507723
77,-0.4815998167886786
78,-0.548532718207287
79,-0.5982064749643252
80,-0.6093160339383961
81,-0.5652383410708918
82,-0.46342784882849186
83,-0.31659317307003587
84,-0.14560125101728078
85,0.030290700004731167
86,0.1996641177842074
87,0.35905225970004434
88,0.5084902763307211
89,0.6459970539048199
90,0.7643063774353189
91,0.8519952418598569
92,0.8991491571335868
93,0.9045856040359506
94,0.8788952613584387
95,0.8384722861889133
96,0.7919618274025443
97,0.7285600577954146
98,0.6198395459147394
99,0.43862215417209993
100,0.1843043376705031
101,-0.10436223233452027
102,-0.36168705549397695
103,-0.5272258391015117
104,-0.5766651522268573
105,-0.5306364722136352
106,-0.437285239815439
107,-0.3435045379928225
108,-0.27549334884616633
109,-0.23813505522933975
110,-0.22608188844293428
111,-0.23256805774168476
112,-0.24938813173104474
113,-0.26358983490992816
114,-0.26007575363792335
115,-0.23126896390526522
116,-0.18482566910959827
117,-0.1398984943025388
118,-0.11303415404395359
119,-0.10568586506005087
120,-0.10483536494610046
121,-0.09609208313031303
122,-0.07671490862210785
123,-0.05630885631492264
124,-0.045322480701712305
125,-0.04354095171580678
126,-0.04041722590475846
127,-0.026754968404493516
128,-0.00551799979443828
129,0.009671034208895316
130,0.007275886762581571
131,-0.010743779213742932
132,-0.03027273365084634
133,-0.03787534177552749
134,-0.03249223355217142
135,-0.024699762864745706
136,-0.024812909108272215
137,-0.03216582713610246
138,-0.03635080602199951
139,-0.02880733715618987
140,-0.012615428487851939
141,-0.0003195181001923414
142,-0.001952090774649357
143,-0.015481214200983634
144,-0.02942278189997814
145,-0.03489292265155463
146,-0.03465506288628207
147,-0.03969339342490938
148,-0.0565836025243637
149,-0.07854984083194332
150,-0.08977292696995494
151,-0.07942255793507161
152,-0.05206088460459435
153,-0.02434409739356042
154,-0.011131508001893317
155,-0.01416729320736567
156,-0.02357728494499176
157,-0.029618430220591865
158,-0.032269695168736026
159,-0.03906960911892508
160,-0.054023592612796975
161,-0.06978194554587315
162,-0.0721269555211268
163,-0.05324944294159381
164,-0.02094482271888727
165,0.0058235776463836375
166,0.011664485937921881
167,-0.003403303689203171
168,-0.02549246868815499
169,-0.03967600287194401
170,-0.041842550007922766
171,-0.03914596405255816
172,-0.0401380811860472
173,-0.0453133779667565
174,-0.04734831840329416
175,-0.03987495642663443
176,-0.025051311623456696
177,-0.011972201741555364
178,-0.007822539453395878
179,-0.011215831148735658
180,-0.014655984462046884
181,-0.013299460576229685
182,-0.010465779419767979
183,-0.01374899085266943
184,-0.025661787772128596
185,-0.038971225708172116
186,-0.04250895766814955
187,-0.03239779473726877
188,-0.01738366979910013
189,-0.01206417630939762
190,-0.023638405858438842
191,-0.04467782123113819
192,-0.05920007012785079
193,-0.056760670848645396
194,-0.041522685394058095
195,-0.027959074249575465
196,-0.027491149604683046
197,-0.03871702526532725
198,-0.04997485125215278
199,-0.05091991516350194
200,-0.04151856666580411
201,-0.030253237936197407
202,-0.024510408953080605
203,-0.023627407484161513
204,-0.02153762287275706
205,-0.015430926935132504
206,-0.010438296484305155
207,-0.01471420736657578
208,-0.029797858027108597
209,-0.04669885687577484
210,-0.05272764893979382
211,-0.04302767032846898
212,-0.025453188726306777
213,-0.01360355285448089
214,-0.014509760432338174
215,-0.022911563510744935
216,-0.02761811262516957
217,-0.023439001662676113
218,-0.01662914137046549
219,-0.01832235999218951
220,-0.03252592478804118
221,-0.05078995111568343
222,-0.059103681487651494
223,-0.05048480854399283
224,-0.031174173550088342
225,-0.014743935463634925
226,-0.01022218349833223
227,-0.01574144685040622
228,-0.023107127041185505
229,-0.027573470047628258
230,-0.03233742587809938
231,-0.043394542075055983
232,-0.06079519830112662
233,-0.07614654588138131
234,-0.07957527147678722
235,-0.0692982173465024
236,-0.053952441317640806
237,-0.04505167775396432
238,-0.04693105535010248
239,-0.05403083299735473
240,-0.05783097013931498
241,-0.0559794704180058
242,-0.054188602231771986
243,-0.059222958987663485
244,-0.07065083238271201
245,-0.08026694079501712
246,-0.07998316426694493
247,-0.07001646991113712
248,-0.05877147101631707
249,-0.05443387740175771
250,-0.05701014320074567
251,-0.05920161195229223
252,-0.05527497685529996
253,-0.048479607449714426
254,-0.048657695144718474
255,-0.0617168399047207
256,-0.08148466060646248
257,-0.09288177666209418
258,-0.08445675336361241
259,-0.058775680594993586
260,-0.03060818956668468
261,-0.0142302131763154
262,-0.011534395532812065
263,-0.011890984650943275
264,-0.0035045970698907546
265,0.014815707856710122
266,0.032626270451829795
267,0.038151222282421016
268,0.02969082237612012
269,0.01721127290085741
270,0.012967413661758097
271,0.02049721821491271
272,0.03240506936044511
273,0.03837464045331697
274,0.03496588882753256
275,0.027625415129596362
276,0.023674531094466676
277,0.024160507667625564
278,0.023204812839918862
279,0.015357921538280793
280,0.002951415509595978
281,-0.004716072424635233
282,-0.00013173011692301515
283,0.014339619760966807
284,0.02737649801947078
285,0.02820416829241315
286,0.015695592171274284
287,-0.001608071113370572
288,-0.014297283488904449
289,-0.020814412601693186
290,-0.027520660780126324
291,-0.04046770183645365
292,-0.05769745980067644
293,-0.07027724428505855
294,-0.07119810655823329
295,-0.0630147787179419
296,-0.05620562528867258
297,-0.059658472881088546
298,-0.07280647955095937
299,-0.08732998527605214
300,-0.09654846513056284
301,-0.10271769658223297
302,-0.11469058182825431
303,-0.13858312750815632
304,-0.17160473053118558
305,-0.20600201378521682
306,-0.23919629384947663
307,-0.27898239592829777
308,-0.3370061690397196
309,-0.4156619417719104
310,-0.5009224260890517
311,-0.5685764178084396
312,-0.5986512760980945
313,-0.5851640589533131
314,-0.533447711138934
315,-0.44976786108081357
316,-0.3349140197790452
317,-0.1879738831151932
318,-0.014811036700235895
319,0.16940909130058437
320,0.3474065489492076
321,0.5091774275628297
322,0.6531353661378603
323,0.7776954351790637
324,0.8734158388154581
325,0.9263692011382036
326,0.9311956311084815
327,0.899796024754154
328,0.8532383144602174
329,0.8007192700119297
330,0.7248921298176172
331,0.5908424038649597
332,0.3759207532805957
333,0.09723218657740199
334,-0.18748599182745346
335,-0.4091096055676223
336,-0.5252953914544272
337,-0.5395328287634379
338,-0.4896312039057854
339,-0.4187412750616516
340,-0.35297553279351546
341,-0.2993107033394502
342,-0.257665281932661
343,-0.2307395239744663
344,-0.22214017724195007
345,-0.22811159470140505
346,-0.2351379561412823
347,-0.2285508643478466
348,-0.20458498440739578
349,-0.17368849836912645
350,-0.15107004955299652
351,-0.1430115221745318
352,-0.14172436484275872
353,-0.133314984457345
354,-0.11093809941083525
355,-0.08062190019550464
356,-0.05473912717012072
357,-0.04010426384804604
358,-0.03251709107450519
359,-0.022807758684467973
360,-0.0079174107435999
361,0.004447860999055881
362,0.0027251381065237826
363,-0.016372551293345243
364,-0.04234229693710162
365,-0.0579750491824126
366,-0.05322664382504674
367,-0.033476768462509916
368,-0.01467631266656013
369,-0.009782685879457229
370,-0.018704119948092533
371,-0.030460347326105745
372,-0.03478682921106872
373,-0.03179070926699371
374,-0.030576329220053825
375,-0.038668953014427784
376,-0.05305891607547335
377,-0.062076754696339845
378,-0.056603416274044374
379,-0.03968346508566574
380,-0.024751323567634313
381,-0.02356714610834683
382,-0.03518784948011523
383,-0.046791305647699816
384,-0.04603382175195959
385,-0.033354814253767545
386,-0.022234342481955393
387,-0.026635460417999413
388,-0.04722496121290355
389,-0.06954862690961712
390,-0.07632334187490553
391,-0.06267747005478935
392,-0.0402345039433277
393,-0.026325306660194166
394,-0.028530289691882545
395,-0.03896410759495255
396,-0.043254899968812
397,-0.03516395208975108
398,-0.02266027076327811
399,-0.019790671350636252
400,-0.032482890050213514
401,-0.05213970509167402
402,-0.06316709736090192
403,-0.05710386373825084
404,-0.03986912476104562
405,-0.025564778228595507
406,-0.02327086228856405
407,-0.029664687021114758
408,-0.034114971687738076
409,-0.030512251176641112
410,-0.02371099494543168
411,-0.024145763701452445
412,-0.03612296799480849
413,-0.05169042441214602
414,-0.056644039722658204
415,-0.04341013779989283
416,-0.018707136556047145
417,0.001413116297584822
418,0.004831504185086807
419,-0.007021971351352631
420,-0.021660345414765123
421,-0.027411802634385366
422,-0.023558840191234606
423,-0.01966158011245903
424,-0.025241737225498447
425,-0.03983248051115644
426,-0.05275454153063666
427,-0.05273819309012841
428,-0.03838317486687547
429,-0.019802891011831247
430,-0.010028568893822686
431,-0.014120771442186607
432,-0.025831712676791303
433,-0.03448628795223434
434,-0.035281048432899684
435,-0.03323963159216164
436,-0.03727691457400212
437,-0.05030121668137675
438,-0.0650745638020645
439,-0.07006407079304461
440,-0.05994210694224555
441,-0.04084185887887662
442,-0.025340285613729134
443,-0.02183127748568431
444,-0.028193124459738574
445,-0.03538955188024509
446,-0.03699485664330142
447,-0.03501375173720617
448,-0.03631094982239791
449,-0.04360403593363425
450,-0.05069541966036516
451,-0.047540540672841546
452,-0.03070807468309189
453,-0.008773328443474285
454,0.003507769658763972
455,-0.002383033173234456
456,-0.021121798458120865
457,-0.038073622064552545
458,-0.041994088185200076
459,-0.03424768978403264
460,-0.026248963600144483
461,-0.028003167371463373
462,-0.03882920273881626
463,-0.048804739448838605
464,-0.048926526501441366
465,-0.03982836921632833
466,-0.030878883808577638
467,-0.03118855283248929
468,-0.04166611300566385
469,-0.05548910089346023
470,-0.06552994856487504
471,-0.07062043734059498
472,-0.07457306375444506
473,-0.07997204739647831
474,-0.08417346761767414
475,-0.08212433507640966
476,-0.07281650893689812
477,-0.061951323074903746
478,-0.05735069005411583
479,-0.06160871953076371
480,-0.06980730504407416
481,-0.07497815029028851
482,-0.07562100361478605
483,-0.07698827033810458
484,-0.08423418894474244
485,-0.09455225612867907
486,-0.09743065067973028
487,-0.08431522937148722
488,-0.058774507197234344
489,-0.036341695079338626
490,-0.03241802966446618
491,-0.04850520745334976
492,-0.06975222545013163
493,-0.07694956557270682
494,-0.06260922427079893
495,-0.03659337291693636
496,-0.016247143985967605
497,-0.010366811431721946
498,-0.011947875214114372
499,-0.00615983792599571
500,0.014449548615550114
501,0.04211812568329042
502,0.060637951320970156
503,0.059962978510205156
504,0.04473345018671605
505,0.02906383907506109
506,0.023196702061834946
507,0.024988973641536003
508,0.02391711750029843
509,0.012966648925713583
510,-0.003504051513187308
511,-0.013373526411849385
512,-0.007953817993790666
513,0.010124890160188287
514,0.02947203161361539
515,0.03976317301443057
516,0.0391075812891416
517,0.032499265985354096
518,0.024182751915245833
519,0.012595084192184955
520,-0.006705255942829452
521,-0.03343851035545123
522,-0.05887716568170452
523,-0.07094016244985492
524,-0.06416649241429584
525,-0.045277257086166436
526,-0.028648239548923305
527,-0.025292294849869227
528,-0.03505144684960874
529,-0.04875551309883541
530,-0.057867784866017825
531,-0.06234345326141188
532,-0.06945814720451715
533,-0.08519460093916578
534,-0.10694055771766678
535,-0.12493425283139503
536,-0.131413274778998
537,-0.12892335684175732
538,-0.12988983543545307
539,-0.1476968724672011
540,-0.18735630046465135
541,-0.24393015721503405
542,-0.30922217540604635
543,-0.37930497409675373
544,-0.4548692945455921
545,-0.5337370879872043
546,-0.6031102078692596
547,-0.640291419858317
548,-0.6234015914897573
549,-0.5445344285808957
550,-0.4150614727953713
551,-0.2588543859806111
552,-0.09867318580935618
553,0.054188149834041105
554,0.2003386871972556
555,0.34433916729507963
556,0.4858261622583777
557,0.6165574054107845
558,0.7245832694418998
559,0.801271362287581
560,0.8456508693034419
561,0.8634587306453257
562,0.8622112360194647
563,0.845604300191395
564,0.8100389991939343
565,0.7445944922067771
566,0.6347637420793023
567,0.4696189655013785
568,0.2507273886665792
569,-0.001067673358407129
570,-0.2461884828689485
571,-0.4373271805799121
572,-0.5382063894795832
573,-0.540950293527311
574,-0.47115520340531236
575,-0.3756963986646051
576,-0.2992147707342603
577,-0.2634247416904119
578,-0.2619761033287725
579,-0.2726701154984447
580,-0.27643314602114644
581,-0.268520456463479
582,-0.25521376161410747
583,-0.24204196547220946
584,-0.22610375118165085
585,-0.19978767347026943
586,-0.16132286208677818
587,-0.12055059242171683
588,-0.09290092501136107
589,-0.08638419297229613
590,-0.09389499175343564
591,-0.09869995617017148
592,-0.08860249757020913
593,-0.06584386622733697
594,-0.04364572163993784
595,-0.032936626181351514
596,-0.03211053056245686
597,-0.02960992732339878
598,-0.016610345761058645
599,0.002782497784244448
600,0.014060726018873232
601,0.005510558239289062
602,-0.02033179251312601
603,-0.04783381448660641
604,-0.06104389549917765
605,-0.056353695661929055
606,-0.04378746824293034
607,-0.03655563994844259
608,-0.03918630299415222
609,-0.04504047304651986
610,-0.04447927664567588
611,-0.03498953860824733
612,-0.023569326898809372
613,-0.019849541181969035
614,-0.02726303449702409
615,-0.04062176934863794
616,-0.05148935615540949
617,-0.055272641232184144
618,-0.053284004800839814
619,-0.04902316655102847
620,-0.04382560562540455
621,-0.03680312429964726
622,-0.02848683081261767
623,-0.023126575852432635
624,-0.026082001483253705
625,-0.038439043889708854
626,-0.05458424432481778
627,-0.06589651599750398
628,-0.06750549525712217
629,-0.06170376724500801
630,-0.05472884541564256
631,-0.050192686238023664
632,-0.045791348367927406
633,-0.03663207618925718
634,-0.021831298590387356
635,-0.007631227339860165
636,-0.0035345348476253573
637,-0.014657820629249519
638,-0.0371355437689639
639,-0.0605741522985746
640,-0.07516724675845195
641,-0.07727767963965465
642,-0.06940462888203372
643,-0.05599413586308974
644,-0.03996687021451259
645,-0.023072467638184848
646,-0.008486544489516317
647,-0.001481757871636846
648,-0.006198078710255937
649,-0.02118635738872411
650,-0.038578221596076614
651,-0.04888747011573256
652,-0.048044566890365535
653,-0.04054073764640996
654,-0.035473875397087885
655,-0.038522472891789394
656,-0.04678036062203473
657,-0.05117878662187434
658,-0.04461349894911937
659,-0.028725139452029546
660,-0.013279952953767243
661,-0.008516251502814987
662,-0.01699299000767955
663,-0.03187987033005037
664,-0.042913751343195784
665,-0.04457681086103231
666,-0.03941288594794162
667,-0.03413262439286176
668,-0.03277491797467703
669,-0.03356496380347904
670,-0.032167155207112934
671,-0.02765405026562144
672,-0.024825259902793405
673,-0.030098603557821305
674,-0.04463075891254238
675,-0.06141107619752875
676,-0.06971647152542526
677,-0.06351816631895082
678,-0.046532055929257604
679,-0.029345923765273757
680,-0.021039184799672588
681,-0.022570581489746815
682,-0.027510264341700882
683,-0.029019621638216177
684,-0.026458724680666266
685,-0.025613625652148714
686,-0.03257948955313916
687,-0.04716069316170869
688,-0.061952647516476736
689,-0.06794592516321288
690,-0.06158638732878436
691,-0.047130442988792876
692,-0.03262813737488067
693,-0.02357358286190441
694,-0.019913005345067174
695,-0.01845954093551965
696,-0.017577575632980177
697,-0.01923219090826756
698,-0.026577432718168172
699,-0.039889095753957424
700,-0.055208179226745764
701,-0.06715448993864356
702,-0.07307573258131661
703,-0.07439550876331691
704,-0.07399184349767512
705,-0.072593175865866
706,-0.06821888930745419
707,-0.05945687840208491
708,-0.049099468663409016
709,-0.04380115092344401
710,-0.04912859120320165
711,-0.06417771211214221
712,-0.08101171266368326
713,-0.09012741527019841
714,-0.08758552072914871
715,-0.077643227469394
716,-0.06860731092875592
717,-0.06570796938231378
718,-0.06740956672996724
719,-0.06823811917343683
720,-0.0650525810935611
721,-0.060543703502242176
722,-0.06057366736870891
723,-0.06801484288947328
724,-0.07916949140008445
725,-0.08635568081468412
726,-0.08427245152446416
727,-0.07412328701302924
728,-0.061711767488997475
729,-0.05161683620247257
730,-0.043311344260621006
731,-0.033000681934371286
732,-0.019091339213481506
733,-0.005394068905134244
734,0.0016949722625065966
735,-0.00031940116918371963
736,-0.006313262318823707
737,-0.006871218874299029
738,0.003667257240811128
739,0.02160273242599233
740,0.0361623161022116
741,0.03817710406992076
742,0.02774039660622006
743,0.014060296071988339
744,0.007481131619939869
745,0.010578172309096011
746,0.01615587332973162
747,0.014024445288916616
748,0.0007611314013072579
749,-0.016078549780206487
750,-0.023264736600571087
751,-0.012647144426374008
752,0.011442996482705704
753,0.03440766279115744
754,0.04172179841562515
755,0.02929087238248066
756,0.005682289050063525
757,-0.015310565867414933
758,-0.025477067188511466
759,-0.02748626436896562
760,-0.03061890918346163
761,-0.04107917477557484
762,-0.05560776738819823
763,-0.06409664157812284
764,-0.05888017997787755
765,-0.042406402175912676
766,-0.02640747919916691
767,-0.023238911791197192
768,-0.036911741459321856
769,-0.0613085129192034
770,-0.08635088382149866
771,-0.10589318715346355
772,-0.12037992532899447
773,-0.1331798866721188
774,-0.14588606247461156
775,-0.1582913831688852
776,-0.1729269399493044
777,-0.19822854923187155
778,-0.2449919963850557
779,-0.31761404681843436
780,-0.4077871367297051
781,-0.4970883549543968
782,-0.5668670204295494
783,-0.6067978053094041
784,-0.614774485282793
785,-0.5896317567547199
786,-0.5257459560165628
787,-0.41680107607897754
788,-0.2660331617411309
789,-0.09200895266545991
790,0.07843114129870281
791,0.22635304658361635
792,0.35216795185430605
793,0.47101567763229135
794,0.5949975610548702
795,0.7180943452555149
796,0.8182783997619796
797,0.8757405015107733
798,0.8903632775997155
799,0.8809794320529734
800,0.865293045144218
801,0.838105961246761
802,0.7689306646563858
803,0.6240172056180873
804,0.39619967836611486
805,0.11827558435549146
806,-0.15111611734668645
807,-0.35789041631844437
808,-0.4763427588907023
809,-0.5117727660408204
810,-0.48617703211298374
811,-0.42305824511704615
812,-0.3427225452690204
813,-0.2654603215161492
814,-0.2119317497662537
815,-0.1954658325100713
816,-0.21274409377537146
817,-0.243947240103966
818,-0.265386615750133
819,-0.26511133907584716
820,-0.2481808548825888
821,-0.22760861069393393
822,-0.21035464236455453
823,-0.191886098093138
824,-0.16372996970984172
825,-0.12536094595723749
826,-0.0877499137713762
827,-0.06467300599242437
828,-0.060351820067385674
829,-0.0656444802444964
830,-0.06645302687325234
831,-0.05608338561776162
832,-0.03984070001183078
833,-0.028198783744057827
834,-0.026023631810302573
835,-0.028522198134834784
836,-0.027202497369355053
837,-0.019092562339903675
838,-0.009813608302849053
839,-0.007909206167415701
840,-0.01664457317041805
841,-0.031393936920630874
842,-0.044413810392258474
843,-0.05135148147978291
844,-0.05295973947197276
845,-0.05147584139952614
846,-0.0470033699226344
847,-0.03855343994535361
848,-0.028207039999686368
849,-0.02243071102140511
850,-0.02730976507118347
851,-0.041716970248103696
852,-0.05609328267635864
853,-0.05977896956199844
854,-0.05088360593634126
855,-0.038891117711655286
856,-0.03635975117004331
857,-0.046822792676194006
858,-0.06058885188998067
859,-0.06329167759734353
860,-0.04977976369950192
861,-0.03018825226866597
862,-0.02186429360874395
863,-0.034083406353781764
864,-0.059509381329818964
865,-0.080232359918467
866,-0.08273973007198937
867,-0.06820131290344611
868,-0.04941207539481228
869,-0.038472283949589195
870,-0.03734609714714919
871,-0.03940959749219037
872,-0.03866961802380855
873,-0.03620747900294592
874,-0.0373980495263708
875,-0.043853877171977446
876,-0.04976588597892313
877,-0.04740868215416639
878,-0.0363105098572839
879,-0.025899073758553527
880,-0.027589589744747664
881,-0.04327507918744708
882,-0.06171427083988451
883,-0.06730835540988522
884,-0.05374968598032716
885,-0.029855212424120682
886,-0.011938019779585377
887,-0.009718538605087179
888,-0.018820194773638554
889,-0.02647028686322477
890,-0.024406118602920752
891,-0.01639580305850684
892,-0.013447827253489433
893,-0.021937752627292015
894,-0.036587150521832396
895,-0.04513950265387329
896,-0.039989500900320205
897,-0.02540466021666648
898,-0.01359417385984291
899,-0.013818363046512468
900,-0.02510839181607502
901,-0.03900970778956789
902,-0.048676250838613946
903,-0.05481017193008677
904,-0.06283539148281478
905,-0.07489941648055964
906,-0.08539103743152926
907,-0.08481827273986414
908,-0.0683979521868492
909,-0.041171455598363466
910,-0.015019801789852936
911,-0.0005509011969242585
912,-0.0009169256656623788
913,-0.011857616874068758
914,-0.026293066277294025
915,-0.03869794370295482
916,-0.046438532700260285
917,-0.04899704234397834
918,-0.04726644992958824
919,-0.04334586793260877
920,-0.0396382620283833
921,-0.03698629023433679
922,-0.03370927549799674
923,-0.02740214019273579
924,-0.018424235666803644
925,-0.011361412222680764
926,-0.012024528365006336
927,-0.02215290210942377
928,-0.037076364041257075
929,-0.04926404575879835
930,-0.05476426846917949
931,-0.056185580686409414
932,-0.059069438084896134
933,-0.06534976305528854
934,-0.0708989935444129
935,-0.07007952776852631
936,-0.06271210408733974
937,-0.05588979635046743
938,-0.058105108456837196
939,-0.07122680970303243
940,-0.08844855398895991
941,-0.10042941713727893
942,-0.10343180211855948
943,-0.10121257767161629
944,-0.09909169440605957
945,-0.09706533550612581
946,-0.08995634118567697
947,-0.07487902453378129
948,-0.05776411255596306
949,-0.05069893952047726
950,-0.06107402914066425
951,-0.08275463060699138
952,-0.09882755816381393
953,-0.09476300654511371
954,-0.07038333350086462
955,-0.03947594625994145
956,-0.01731029703554092
957,-0.007781856725579102
958,-0.0021399866447841653
959,0.010082956116166749
960,0.029153970593533862
961,0.0441703073684675
962,0.04395588783273306
963,0.02891571382495514
964,0.011960485178798174
965,0.007352269031057297
966,0.01811850614032491
967,0.03397795829976351
968,0.041428145208482973
969,0.03601829044753696
970,0.025188295004735104
971,0.01966334520305203
972,0.022513863370538154
973,0.026738084034421385
974,0.023270938238396426
975,0.010886170939581111
976,-0.002124611754688548
977,-0.006094758557274811
978,0.00031099490631598297
979,0.008496607088047909
980,0.00794499083855938
981,-0.004078379643356367
982,-0.020466488165958696
983,-0.03153766225969239
984,-0.03436704068896369
985,-0.03534344894752124
986,-0.04397486323046667
987,-0.06418716020896956
988,-0.09108772564169254
989,-0.1153826111766364
990,-0.13055634804776897
991,-0.1363285756278687
992,-0.13653888317205168
993,-0.13513387482191552
994,-0.13483641599151758
995,-0.13916557563641963
996,-0.1544236498005947
997,-0.18832575757171713
998,-0.24564834951222603
999,-0.3244149850827063
1000,-0.41554129773883514
1001,-0.5055720410142721
1002,-0.5798797350747789
1003,-0.6246050357124276
1004,-0.6280966959092842
1005,-0.5834103859309363
1006,-0.49148609329811266
1007,-0.36229417169651656
1008,-0.21161605870148226
1009,-0.0544815094224965
1010,0.10047783005717181
1011,0.25172914785982414
1012,0.4003893403787752
1013,0.5445026211681089
1014,0.6766722478581186
1015,0.7866102859695288
1016,0.8661438591822325
1017,0.9125650587905895
1018,0.9278513594564637
1019,0.9144322576027654
1020,0.8704440232547881
1021,0.7877632431918362
1022,0.6549017498692162
1023,0.4646726764548543
1024,0.22374294778173892
1025,-0.041307699973664916
1026,-0.2869849609679769
1027,-0.4666311883169299
1028,-0.5497485332552239
1029,-0.5363454475637907
1030,-0.4569004699749461
1031,-0.35692719434219256
1032,-0.2753211142971094
1033,-0.22974445277028832
1034,-0.21663759316577527
1035,-0.22243598619834842
1036,-0.23528621153073231
1037,-0.24877708155139927
1038,-0.25817096365067915
1039,-0.2566161606685155
1040,-0.23743788829135878
1041,-0.2008200214894299
1042,-0.15727750159642323
1043,-0.12255176990250537
1044,-0.10688877616858045
1045,-0.10771714802953972
1046,-0.11225948848484563
1047,-0.10777785271209271
1048,-0.09049390342014624
1049,-0.06606884533677684
1050,-0.04275562631601561
1051,-0.02468258060422824
1052,-0.011241645998154071
1053,-0.0014553760172782686
1054,0.002784802642494184
1055,-0.0014141426446872577
1056,-0.013408937697752348
1057,-0.0276107130149681
1058,-0.0375531543631222
1059,-0.041406744785770444
1060,-0.042845483777439505
1061,-0.04601327247994692
1062,-0.04996811090078608
1063,-0.04900857852854706
1064,-0.03915882389280877
1065,-0.02412869411149678
1066,-0.013920856364752175
1067,-0.016582584791631355
1068,-0.030957651718635508
1069,-0.04778441821249838
1070,-0.05822588561724881
1071,-0.06129582177219316
1072,-0.06272833047798097
1073,-0.06677407186042279
1074,-0.06998831169443559
1075,-0.06420114015731154
1076,-0.04615269631012471
1077,-0.02372628005457301
1078,-0.01143663790984039
1079,-0.018476864164710498
1080,-0.040476926473208906
1081,-0.06299608041609384
1082,-0.07354497420021752
1083,-0.0708074358054879
1084,-0.06284352354512003
1085,-0.057152131269936415
1086,-0.05324613458011999
1087,-0.04508484633214959
1088,-0.03002437236284914
1089,-0.014105795441110063
1090,-0.007556609851065166
1091,-0.014941285080153976
1092,-0.030291272795075673
1093,-0.042535633067212135
1094,-0.04585447065678471
1095,-0.04439718797664084
1096,-0.04661758926589752
1097,-0.05526862107279555
1098,-0.06362982711529233
1099,-0.06205642173992576
1100,-0.04815766969679676
1101,-0.030043684593462013
1102,-0.01917161346412993
1103,-0.020025679680035165
1104,-0.027066818838905514
1105,-0.0317584898934655
1106,-0.03195833722048026
1107,-0.0335493914893147
1108,-0.04247891339633756
1109,-0.05580474173735775
1110,-0.06194957933980014
1111,-0.051135240891146974
1112,-0.02613857834798207
1113,-0.002252900066830596
1114,0.004624919628311287
1115,-0.008773848551175745
1116,-0.0307882634461882
1117,-0.04557562492867557
1118,-0.04680274646757902
1119,-0.04164587391927012
1120,-0.041952698029743336
1121,-0.05162862055471656
1122,-0.06251546027886362
1123,-0.062456590134539386
1124,-0.0474675113750951
1125,-0.02629133179874847
1126,-0.01322909581372149
1127,-0.016253619043440616
1128,-0.031346627368416084
1129,-0.04746750586136548
1130,-0.05644978846197017
1131,-0.05827550912809089
1132,-0.05774455257602919
1133,-0.05736275890258984
1134,-0.054424721869110716
1135,-0.04506695512133424
1136,-0.03034242968374227
1137,-0.01722048006739427
1138,-0.01291463416408924
1139,-0.01819993495134073
1140,-0.026743208782204396
1141,-0.03141499208618711
1142,-0.0312709490976219
1143,-0.031966858603445794
1144,-0.03897137605127988
1145,-0.05048804944118658
1146,-0.05771581097535131
1147,-0.052918667839150155
1148,-0.03770467274945766
1149,-0.02310763204341517
1150,-0.02068484119623054
1151,-0.03263400156861049
1152,-0.05020676729109151
1153,-0.061954410776219104
1154,-0.06395218250512302
1155,-0.06227015872738416
1156,-0.06553390261269508
1157,-0.07512895937805925
1158,-0.08293560753566567
1159,-0.0790731781297236
1160,-0.06218615805682322
1161,-0.04209259835572156
1162,-0.03188352626570619
1163,-0.0367625761109598
1164,-0.050090986984340696
1165,-0.06016285153502643
1166,-0.06098886974357197
1167,-0.056799778741396995
1168,-0.05642375217158861
1169,-0.0636269212457305
1170,-0.07313311742168138
1171,-0.07600909092194721
1172,-0.0686887363906385
1173,-0.05654913203327967
1174,-0.048747505546324815
1175,-0.04982924499529571
1176,-0.056478171668989705
1177,-0.0620891353558312
1178,-0.06378272814396821
1179,-0.06442165580138214
1180,-0.06799094921526766
1181,-0.0739586438289656
1182,-0.07717211029133811
1183,-0.07356501181897711
1184,-0.06531792572080432
1185,-0.05939760181292848
1186,-0.06045507328471453
1187,-0.06539980401520919
1188,-0.06567068689422134
1189,-0.055380693424587076
1190,-0.037240020126525025
1191,-0.02013802502592208
1192,-0.010641924139641334
1193,-0.006878535256112758
1194,-0.0008859808764428148
1195,0.01302323392547712
1196,0.03230069025701463
1197,0.04836889647365475
1198,0.05441123337702552
1199,0.050766581002647845
1200,0.0428994538112424
1201,0.034835649062681155
1202,0.025450253349099082
1203,0.011516180497714922
1204,-0.006114869717740948
1205,-0.020350295363277704
1206,-0.022700146780765183
1207,-0.010729897400187333
1208,0.009128581560553989
1209,0.026112468075466452
1210,0.03261634653893092
1211,0.027873304515383862
1212,0.015517558048053274
1213,-0.0010723945172239511
1214,-0.020338097442172548
1215,-0.04016301980868944
1216,-0.05571796242519661
1217,-0.06152758223719696
1218,-0.056563254109680855
1219,-0.04684855208805404
1220,-0.041778451042326206
1221,-0.046737065618504686
1222,-0.05895363831001296
1223,-0.07089113207465195
1224,-0.07807105353635783
1225,-0.08357254073050366
1226,-0.09454363181030684
1227,-0.11412603020933465
1228,-0.13714689493472346
1229,-0.15454987006717338
1230,-0.1629053206141126
1231,-0.1699547847905622
1232,-0.19047523630611501
1233,-0.2356954320689954
1234,-0.30538213972613426
1235,-0.38887944276415987
1236,-0.4727706740445273
1237,-0.5470167956503325
1238,-0.604051775487979
1239,-0.6335001238171618
1240,-0.6204370842148126
1241,-0.5518556512573158
1242,-0.42721032645231377
1243,-0.26330942217004527
1244,-0.08741291857573506
1245,0.07755578362398541
1246,0.2243475049453721
1247,0.3601763285760955
1248,0.4941984457086993
1249,0.6244704643702429
1250,0.7356388971836281
1251,0.8095220003181998
1252,0.8397773731535455
1253,0.8381465601986369
1254,0.8263046815162516
1255,0.818725540228888
1256,0.8091610264178428
1257,0.770975906604076
1258,0.6718756403512394
1259,0.4939607725155746
1260,0.24713609358223337
1261,-0.031251096563071866
1262,-0.2894295237892765
1263,-0.4797580291779494
1264,-0.574605065566066
1265,-0.5740028666771062
1266,-0.5032547293393357
1267,-0.40194724918992575
1268,-0.30859643539231696
1269,-0.2471911417220607
1270,-0.22169191391840382
1271,-0.22076008613745435
1272,-0.22894378867937104
1273,-0.23643637685726118
1274,-0.24114596100507102
1275,-0.24347869552246965
1276,-0.24042234904421766
1277,-0.225534489996994
1278,-0.1950816857749944
1279,-0.1538787779618575
1280,-0.11407319856299623
1281,-0.08685224459856278
1282,-0.07431424917137976
1283,-0.06912165485563049
1284,-0.06229263416646915
1285,-0.0516128032442232
1286,-0.04258950136617586
1287,-0.04135655800081516
1288,-0.04702201062880977
1289,-0.05144563885487992
1290,-0.04679175154008258
1291,-0.03320075748385806
1292,-0.01876113326693253
1293,-0.011823206839092056
1294,-0.01349874784829516
1295,-0.01788923288962587
1296,-0.019488799757600934
1297,-0.019702914787070626
1298,-0.025337184463870753
1299,-0.040389227785956536
1300,-0.05978435554630253
1301,-0.0721563960697927
1302,-0.06971443153037808
1303,-0.05576102066263859
1304,-0.04224085802311943
1305,-0.03924684042214531
1306,-0.04632373959182731
1307,-0.05380157441197615
1308,-0.05273175626430901
1309,-0.043706521237979364
1310,-0.03601701040679292
1311,-0.03808697996510567
1312,-0.04864303887739544
1313,-0.057356837683445676
1314,-0.05446474011323705
1315,-0.04013907230182219
1316,-0.02461645579631458
1317,-0.019002713906422792
1318,-0.02557998023633913
1319,-0.036731462532225576
1320,-0.04310017821116224
1321,-0.04268561065306817
1322,-0.04194531544552543
1323,-0.048112847461363545
1324,-0.060731854466583295
1325,-0.07111840044781681
1326,-0.0704361486013052
1327,-0.05835902586852987
1328,-0.04364452505755695
1329,-0.03601681561665357
1330,-0.03743997991974657
1331,-0.04138783700820327
1332,-0.04055253883381526
1333,-0.03486769936179103
1334,-0.03148505306923646
1335,-0.03670171094713222
1336,-0.048249242254166984
1337,-0.05616828933817686
1338,-0.05180745376420297
1339,-0.03613505665922678
1340,-0.019081621380341075
1341,-0.010547333832585323
1342,-0.011958910503509917
1343,-0.016505625280314233
1344,-0.01729973415040232
1345,-0.014813185397816005
1346,-0.016004577630675407
1347,-0.02627508179160415
1348,-0.04272940234506012
1349,-0.0557474766506328
1350,-0.05733723068271017
1351,-0.048004044032878494
1352,-0.0356746309946818
1353,-0.02835351743787458
1354,-0.028118876079362722
1355,-0.03189627592018297
1356,-0.036922614808751635
1357,-0.04410066265051178
1358,-0.05541347675931475
1359,-0.06873134000111328
1360,-0.07673553240165046
1361,-0.07243148484285654
1362,-0.056255128862522014
1363,-0.03719619196679973
1364,-0.025853906590843235
1365,-0.02557834854816983
1366,-0.03029999813452226
1367,-0.031387857932438555
1368,-0.026882076074320062
1369,-0.02378276156629191
1370,-0.030734604309359793
1371,-0.04808765760216051
1372,-0.06536268088540127
1373,-0.06931301946614958
1374,-0.055499264968214126
1375,-0.03259052279574096
1376,-0.01523785990694216
1377,-0.012046572340366527
1378,-0.019635525589681846
1379,-0.02776550607513165
1380,-0.02995562843534455
1381,-0.029132471827604582
1382,-0.033224111347611496
1383,-0.045703706714849496
1384,-0.0608928006082241
1385,-0.06876822117505435
1386,-0.06435923875262904
1387,-0.052303179966345675
1388,-0.04215803280109384
1389,-0.0394143992591911
1390,-0.04131487462360111
1391,-0.041448966292339316
1392,-0.037993581350923976
1393,-0.036731143431352115
1394,-0.04539804144822878
1395,-0.0649377348458092
1396,-0.0866371902277041
1397,-0.09842560066244005
1398,-0.09457042090190833
1399,-0.07972043633860415
1400,-0.0639133206761654
1401,-0.05392270045645657
1402,-0.049350536278609344
1403,-0.04641051874190032
1404,-0.044331775852787345
1405,-0.047055546047538276
1406,-0.058463231106708105
1407,-0.07660910119909495
1408,-0.09359490928659055
1409,-0.10167303614280562
1410,-0.09946049673986646
1411,-0.09199303438920854
1412,-0.08488962172702871
1413,-0.07908107019808452
1414,-0.07170242775928451
1415,-0.06177520464099734
1416,-0.05379844483727532
1417,-0.05445718663728236
1418,-0.06529252462080118
1419,-0.07915342203785035
1420,-0.08493158701376222
1421,-0.07661342793486424
1422,-0.05791511475340208
1423,-0.03793801733822304
1424,-0.022314855554547677
1425,-0.008872061547146363
1426,0.007934441150582379
1427,0.02878790359821575
1428,0.046536769222541005
1429,0.05209526511695356
1430,0.043454180780909665
1431,0.028493780840048638
1432,0.01839263586278194
1433,0.01797526606310393
1434,0.0224888009881042
1435,0.023754231510331323
1436,0.019109911269357682
1437,0.01385694618511695
1438,0.014806734162311812
1439,0.02190015965843513
1440,0.02701159105210007
1441,0.021671386141804964
1442,0.0060418599471476165
1443,-0.010244372390530571
1444,-0.016842585701759276
1445,-0.012749555407313921
1446,-0.007615455083046915
1447,-0.012563217134872625
1448,-0.029103560672895296
1449,-0.04695649446991476
1450,-0.05330359106019189
1451,-0.045013806424033485
1452,-0.03225762518725925
1453,-0.02979385537344488
1454,-0.04375867845741471
1455,-0.06612228257504328
1456,-0.0819614551400489
1457,-0.0828487478198957
1458,-0.07405599211809041
1459,-0.06913675620714055
1460,-0.0772595477725439
1461,-0.09531385552612873
1462,-0.11208386699355757
1463,-0.12021370765987971
1464,-0.12429503269551355
1465,-0.13724727546951643
1466,-0.1685467414345826
1467,-0.2158101889025259
1468,-0.26798763483649946
1469,-0.31698166815518514
1470,-0.3659417816423908
1471,-0.42526440445551683
1472,-0.4990785630097481
1473,-0.5745848149310664
1474,-0.6247956584446102
1475,-0.6235338415945636
1476,-0.5608133166042351
1477,-0.4467078594860734
1478,-0.3020365723006889
1479,-0.14487651482969327
1480,0.016360552889263937
1481,0.18008615065640832
1482,0.34438166943453075
1483,0.5028661297703783
1484,0.645877583122424
1485,0.7638334715408291
1486,0.8493050055608001
1487,0.8978875042412209
1488,0.9098034448414074
1489,0.8916096348067188
1490,0.8540737895588736
1491,0.8039501369877882
1492,0.7343124314258161
1493,0.6233529437462639
1494,0.44773358579996586
1495,0.20451700555142993
1496,-0.07447895030583224
1497,-0.3298325099534343
1498,-0.50212137189887
1499,-0.5627403429972471
1500,-0.527082732391188
1501,-0.44180181565316734
1502,-0.3565225412370998
1503,-0.30008057316851244
1504,-0.2751483018125661
1505,-0.26952213700571725
1506,-0.2709370668000399
1507,-0.2734886794311985
1508,-0.2743306632399988
1509,-0.2685127156146767
1510,-0.24966001076970828
1511,-0.21624600448747638
1512,-0.17614794032652004
1513,-0.14311731952973605
1514,-0.12672366806314525
1515,-0.12437941260884251
1516,-0.12313302297428574
1517,-0.11044968852233619
1518,-0.0848505802696023
1519,-0.05694327330781182
1520,-0.03976642900024304
1521,-0.03708278777503593
1522,-0.04031352891249132
1523,-0.037005367987243895
1524,-0.02299727339491974
1525,-0.00678602816419947
1526,-0.0016996954420522474
1527,-0.01300646779980934
1528,-0.03216831778005618
1529,-0.04398948517099745
1530,-0.04022612090947269
1531,-0.02687995713973499
1532,-0.018203353600145595
1533,-0.023095867098168306
1534,-0.036943132610122664
1535,-0.046741884265243776
1536,-0.0444215074638771
1537,-0.035164143290909666
1538,-0.032312246476463045
1539,-0.04365215184788168
1540,-0.06259434924654947
1541,-0.07331724500198697
1542,-0.06542287962176233
1543,-0.044180579575930995
1544,-0.02635103971474023
1545,-0.025265369457089126
1546,-0.039127691265758116
1547,-0.05348321752881947
1548,-0.05534513358133797
1549,-0.045489431101868684
1550,-0.037328361201763985
1551,-0.043590993434001926
1552,-0.06350010010173235
1553,-0.08250536060324638
1554,-0.08479061830954102
1555,-0.06703679441233948
1556,-0.04111547452695603
1557,-0.023803485567023865
1558,-0.023214118350873898
1559,-0.033845506805025
1560,-0.04356758166169278
1561,-0.04504119270661057
1562,-0.040958584835839994
1563,-0.039274454856145606
1564,-0.044180701607578636
1565,-0.05187671888339744
1566,-0.05469432979237296
1567,-0.04879873283525813
1568,-0.037674082335114524
1569,-0.028389770931939295
1570,-0.02498737999089204
1571,-0.02580956430055007
1572,-0.027012698952996253
1573,-0.027862924576180323
1574,-0.031655023484576966
1575,-0.0410156456109528
1576,-0.05277065844249551
1577,-0.0586097755574647
1578,-0.0520303541608168
1579,-0.03516985338454387
1580,-0.018358214157104147
1581,-0.011870648820695611
1582,-0.017172261489379635
1583,-0.02603508072311989
1584,-0.028710981176443395
1585,-0.023548915773526455
1586,-0.01870511019688259
1587,-0.023972037527518496
1588,-0.04037933784472728
1589,-0.05774100750491025
1590,-0.06301400166995691
1591,-0.05199029922379628
1592,-0.03339599684191751
1593,-0.021398091455530364
1594,-0.02336192546751733
1595,-0.034153939632787206
1596,-0.04207277544262304
1597,-0.04051286594781435
1598,-0.03416097290806856
1599,-0.0338984356388648
1600,-0.04544633779748537
1601,-0.06277430860569533
1602,-0.07274281324097241
1603,-0.06676059839193729
1604,-0.04858534795087524
1605,-0.031029615758708974
1606,-0.024730747282056695
1607,-0.029451895630914084
1608,-0.035789386696477125
1609,-0.03525354547506037
1610,-0.02887337726644634
1611,-0.02605776990509684
1612,-0.03482184260954597
1613,-0.05276881722870923
1614,-0.0676305006205771
1615,-0.06728810810170138
1616,-0.05032107034237475
1617,-0.027513214821054045
1618,-0.012940626356131532
1619,-0.012691761348981038
1620,-0.021254851931837827
1621,-0.028389333657632704
1622,-0.02960042998551066
1623,-0.03014499839885708
1624,-0.038766262961891146
1625,-0.05725627949779562
1626,-0.07621032115046962
1627,-0.08181739227604415
1628,-0.06814397041832747
1629,-0.04372786751045643
1630,-0.02588281039667171
1631,-0.027053956066924144
1632,-0.04495606773769328
1633,-0.06514364479269628
1634,-0.0736716001289929
1635,-0.06853093176518285
1636,-0.059829476919970453
1637,-0.05910155474481573
1638,-0.06805777672443052
1639,-0.07731500704794605
1640,-0.07601804501089159
1641,-0.06290785050203411
1642,-0.04812069880830667
1643,-0.04398753085290028
1644,-0.0536920400394828
1645,-0.06865086053070402
1646,-0.07698755135770981
1647,-0.07473423475031057
1648,-0.06884484900451976
1649,-0.06921978879793357
1650,-0.07779565605186904
1651,-0.08571876735869872
1652,-0.08173742467094502
1653,-0.0638534710575126
1654,-0.04279847511600271
1655,-0.03352776334037931
1656,-0.042372525151686505
1657,-0.06174021494442705
1658,-0.0771905307835883
1659,-0.08008793325842146
1660,-0.07394187868009743
1661,-0.06879529921820848
1662,-0.06956086207909623
1663,-0.06997570076947553
1664,-0.0583518196597324
1665,-0.029809616239492995
1666,0.006830984766847207
1667,0.034601591384388786
1668,0.041885035807939036
1669,0.03178419588171155
1670,0.01885872295070478
1671,0.016208431725009485
1672,0.024631009568324792
1673,0.03350785760333252
1674,0.03213392542024622
1675,0.020575611859805498
1676,0.009743712844781264
1677,0.010613072098097089
1678,0.02285690643078345
1679,0.033929554538325496
1680,0.030014892234550877
1681,0.009088908315627434
1682,-0.016018463435358662
1683,-0.027885934482066225
1684,-0.019344808176167072
1685,0.00021406581832840617
1686,0.012797316763121774
1687,0.00714223990661669
1688,-0.012016533577483519
1689,-0.028810113868113593
1690,-0.030770460809995653
1691,-0.020061816349111538
1692,-0.011458931682524563
1693,-0.018947550059326586
1694,-0.04291685890955785
1695,-0.06934963821630066
1696,-0.0817534977812113
1697,-0.07530721950903199
1698,-0.06078762407334867
1699,-0.054923703362802986
1700,-0.06580170865672955
1701,-0.08621414616779895
1702,-0.10069881665064397
1703,-0.09987450403765143
1704,-0.089329004586849
1705,-0.0852949829056554
1706,-0.1010926419995497
1707,-0.13633975339732635
1708,-0.17823345511625543
1709,-0.21343835389923932
1710,-0.23997572176126816
1711,-0.26892739498110263
1712,-0.3149141446068311
1713,-0.3837146050188623
1714,-0.4669051653516505
1715,-0.5464605725927592
1716,-0.6038604502363418
1717,-0.6259935977393623
1718,-0.605152405696881
1719,-0.5368083922445221
1720,-0.4200695370377019
1721,-0.2610507572299676
1722,-0.0744675071480419
1723,0.12055310600091226
1724,0.308428782635505
1725,0.48188057169119675
1726,0.6386022735911953
1727,0.7729340845197925
1728,0.871694389829317
1729,0.9204820206250153
1730,0.91645914322358
1731,0.8753999219861569
1732,0.8235625735373608
1733,0.7778565351933501
1734,0.7297946158435535
1735,0.6482133285755682
1736,0.5016025188425455
1737,0.28448560047575944
1738,0.027857024716677038
1739,-0.21450872526029358
1740,-0.3937714046209064
1741,-0.48810252483715255
1742,-0.5058805592089191
1743,-0.47242963749479444
1744,-0.4137547703349264
1745,-0.3487938541323871
1746,-0.2908700997781683
1747,-0.25064491760932367
1748,-0.23428182060131386
1749,-0.23860596538711443
1750,-0.2503504140632822
1751,-0.25334094570668253
1752,-0.23918037275223047
1753,-0.21245646671220508
1754,-0.18569682111134367
1755,-0.1683983665997033
1756,-0.15972153220483756
1757,-0.1508452546745434
1758,-0.13404313436590912
1759,-0.10973280313431838
1760,-0.08530366768567446
1761,-0.06762905587218865
1762,-0.056941842754163516
1763,-0.047890924981059534
1764,-0.0362495659962738
1765,-0.024188436390974705
1766,-0.018577604059515362
1767,-0.02380625635679899
1768,-0.03621877427054837
1769,-0.04597277818208929
1770,-0.045086856079937336
1771,-0.03437094330881789
1772,-0.022699856132074425
1773,-0.019119215051997967
1774,-0.024984906849100867
1775,-0.033349677370053225
1776,-0.03603237792211479
1777,-0.03161047508272091
1778,-0.026777516700086323
1779,-0.02984953468495342
1780,-0.04262184208511939
1781,-0.0582205776165261
1782,-0.0668112434979572
1783,-0.06370034023692786
1784,-0.05249450253201431
1785,-0.04106343269410945
1786,-0.03482396721137827
1787,-0.03371655807462271
1788,-0.03481406092666578
1789,-0.03672661750048343
1790,-0.040768300272666355
1791,-0.04803976848267532
1792,-0.05630782529169161
1793,-0.06069686331022961
1794,-0.05780494607152803
1795,-0.04890908302062761
1796,-0.03880509488318729
1797,-0.03152435827866876
1798,-0.0274713449878879
1799,-0.024797918841648142
1800,-0.02303256081018608
1801,-0.024487133385490578
1802,-0.031586706008648116
1803,-0.04309184754820777
1804,-0.05374956542980172
1805,-0.05830565017332563
1806,-0.05592125963571033
1807,-0.050346831924198115
1808,-0.04568593049950023
1809,-0.042417115845578
1810,-0.03810613048952061
1811,-0.031960168056450265
1812,-0.02776381719428852
1813,-0.031098090864805625
1814,-0.04301877234061037
1815,-0.056907461028625365
1816,-0.06274928920513628
1817,-0.055633124707931025
1818,-0.040400414116765676
1819,-0.0274867594500089
1820,-0.023473146648771273
1821,-0.02533128258257867
1822,-0.024098518437983232
1823,-0.014619856957819224
1824,-0.0018798508591988824
1825,0.0025696542392294936
1826,-0.008816322755074737
1827,-0.031754319285764485
1828,-0.052545531475068886
1829,-0.05889142884572252
1830,-0.04960686175178713
1831,-0.03475146199852593
1832,-0.026357323369944965
1833,-0.028237558936891692
1834,-0.033873502031509795
1835,-0.03386106831832191
1836,-0.02576601277515509
1837,-0.017191023696133817
1838,-0.01909135691735197
1839,-0.03525820434266621
1840,-0.057531153647320185
1841,-0.07143733253265486
1842,-0.06777441320320104
1843,-0.050204996860814234
1844,-0.03214060711341038
1845,-0.025466586146234024
1846,-0.030912268247643142
1847,-0.03853394990952492
1848,-0.03777740293079607
1849,-0.027861921425513164
1850,-0.018793216545104796
1851,-0.02184837640250762
1852,-0.03823383281551135
1853,-0.05661407279319899
1854,-0.062224055149745335
1855,-0.04954929206823527
1856,-0.027118983104943907
1857,-0.010148109456457825
1858,-0.007888045052125755
1859,-0.017135017417283314
1860,-0.02718239582863732
1861,-0.030663516830381474
1862,-0.029655319905355026
1863,-0.03172186550266929
1864,-0.04070268273956337
1865,-0.05192759890899841
1866,-0.05661621766916752
1867,-0.05078104463416286
1868,-0.03955971835029539
1869,-0.03272184549763634
1870,-0.03595388030048318
1871,-0.04643161088330083
1872,-0.056515123607202136
1873,-0.06126816526580778
1874,-0.062212478870169
1875,-0.06420667524763683
1876,-0.06949691584105235
1877,-0.07536870004346699
1878,-0.07740727467377695
1879,-0.07429382372924052
1880,-0.0688420137964551
1881,-0.06455096418703625
1882,-0.06198247419745333
1883,-0.05918843182017726
1884,-0.05549246733978612
1885,-0.05384393518237706
1886,-0.0584242431078517
1887,-0.0696761775252828
1888,-0.08230121965873549
1889,-0.08902866216949448
1890,-0.08680041648059458
1891,-0.07910117892048499
1892,-0.07192869018072076
1893,-0.06760126954073609
1894,-0.06308116178137943
1895,-0.05480173893483028
1896,-0.04481022561497689
1897,-0.04103393780651106
1898,-0.050211373698343435
1899,-0.06994027894487057
1900,-0.08814493314130667
1901,-0.09163676124247994
1902,-0.07655793250335469
1903,-0.051200268657400794
1904,-0.028548747803712464
1905,-0.015436075837747183
1906,-0.00818671379005749
1907,0.0017806268328414555
1908,0.018405975619730265
1909,0.036861495774916056
1910,0.04842470470734536
1911,0.049005531226009494
1912,0.04274982327231225
1913,0.03749208581442044
1914,0.037061627580368815
1915,0.038266186609211925
1916,0.03524244729248776
1917,0.026291078932323804
1918,0.016028884109274097
1919,0.010772498556892824
1920,0.012082009426562016
1921,0.015157418454009508
1922,0.013687522459499571
1923,0.00617564654810559
1924,-0.0026155768946544977
1925,-0.006446170619816035
1926,-0.003785475004622366
1927,0.0006019535058207892
1928,-1.658643283803952e-05
1929,-0.008440269951282891
1930,-0.02151477457632222
1931,-0.03338682818293324
1932,-0.04054601522066952
1933,-0.04410301717462797
1934,-0.047915235700713425
1935,-0.05495856220010126
1936,-0.0652350195512291
1937,-0.07639315670405404
1938,-0.08580612578855251
1939,-0.09230531979301956
1940,-0.09680623636912597
1941,-0.1019873376389981
1942,-0.11124208183576165
1943,-0.12710231666267263
1944,-0.1499507591377522
1945,-0.17835307195614764
1946,-0.2114162721658322
1947,-0.251409654717615
1948,-0.3036573022780164
1949,-0.37237147513734764
1950,-0.45476886803425176
1951,-0.5381087831350793
1952,-0.6026527881008037
1953,-0.6291150019451948
1954,-0.6059018364474518
1955,-0.5321352762672411
1956,-0.41600311580813787
1957,-0.2707676582571662
1958,-0.11066892557872804
1959,0.052627420600195464
1960,0.21274931150462884
1961,0.3689972121162377
1962,0.5226679179554048
1963,0.6704614170353588
1964,0.800067405639348
1965,0.8933197869738063
1966,0.9366807491413194
1967,0.9312872111390756
1968,0.8928677368367053
1969,0.8390787417661286
1970,0.7731329095727706
1971,0.6778623258198795
1972,0.5276431077355829
1973,0.31138853710547787
1974,0.04976754968655933
1975,-0.20729762287334222
1976,-0.402849203721285
1977,-0.5007585128833658
1978,-0.5016648433971046
1979,-0.4383411377448479
1980,-0.3556313424569629
1981,-0.2886591637980517
1982,-0.2514724699200843
1983,-0.23953686008076758
1984,-0.2405697591556724
1985,-0.24473797651269835
1986,-0.24820246982157698
1987,-0.25016943697382765
1988,-0.24835019413352963
1989,-0.2379565210235639
1990,-0.2153594487992621
1991,-0.1827590995106702
1992,-0.14879688804956445
1993,-0.12345266937291645
1994,-0.11097009098705876
1995,-0.10691739312219725
1996,-0.10220559130118442
1997,-0.09064664037346135
1998,-0.0733222310675703
1999,-0.056073102704270544
2000,-0.04306341473867012
2001,-0.03308092877256114
2002,-0.022192064831753903
2003,-0.009604014618511517
2004,-9.950646119968594e-05
2005,3.0149352895828593e-05
2006,-0.010381446085185127
2007,-0.025174278857488026
2008,-0.03576567562650857
2009,-0.03846702283158918
2010,-0.03686574378201559
2011,-0.036951519918752014
2012,-0.040239266471511104
2013,-0.0422664880096018
2014,-0.038128453882953245
2015,-0.029074689723984457
2016,-0.022757642395647995
2017,-0.026237818734776194
2018,-0.03864063859169581
2019,-0.0511882885602105
2020,-0.05505792867364638
2021,-0.04947156071634501
2022,-0.041936663392510155
2023,-0.04033015058647688
2024,-0.04476507822147735
2025,-0.0475089606542537
2026,-0.041193610355847524
2027,-0.027179948190441002
2028,-0.01560863902999458
2029,-0.01674491095930474
2030,-0.0317293282873221
2031,-0.05143890214231757
2032,-0.06437477846575818
2033,-0.06602133988692971
2034,-0.06112021864433559
2035,-0.05744783334817356
2036,-0.057774252268755495
2037,-0.05790547883009116
2038,-0.05223549669154525
2039,-0.04072143873872815
2040,-0.030027032837377562
2041,-0.027641600949654316
2042,-0.03484858199194823
2043,-0.04548153772884794
2044,-0.051578267371535765
2045,-0.05025844226294304
2046,-0.045154390559214386
2047,-0.04139034508351881
2048,-0.0396521765710983
2049,-0.035698731644967716
2050,-0.025906664259865313
2051,-0.012937308691498856
2052,-0.005067234865886101
2053,-0.008962019998330004
2054,-0.02262771337866808
2055,-0.035848734700322696
2056,-0.03858657008613265
2057,-0.029933683129614093
2058,-0.019071489441142096
2059,-0.016831790332386402
2060,-0.025407524327286997
2061,-0.03592436997473479
2062,-0.03656049250375238
2063,-0.02401472093996911
2064,-0.007664931151475521
2065,-0.0021898393624228915
2066,-0.014957213598289144
2067,-0.03937345163332951
2068,-0.060084469039420586
2069,-0.06532107645793939
2070,-0.05554496370630125
2071,-0.041334020954464416
2072,-0.033330931659006593
2073,-0.03379023026539647
2074,-0.036880063836471154
2075,-0.03623187421381666
2076,-0.0317523788911991
2077,-0.029272862964308363
2078,-0.03408668721393414
2079,-0.045229643636004124
2080,-0.05606348197426119
2081,-0.060156877770530595
2082,-0.05643010502000325
2083,-0.048836113434899596
2084,-0.04167657090031998
2085,-0.03581285611056972
2086,-0.029465383754071504
2087,-0.022045381092085405
2088,-0.016257176196537
2089,-0.015849781462797703
2090,-0.02140740051409501
2091,-0.028953871187275552
2092,-0.03327123723230398
2093,-0.03271537527168039
2094,-0.030452768793302137
2095,-0.03060418616277432
2096,-0.03321274015351883
2097,-0.0335550313125449
2098,-0.027128591494807584
2099,-0.015659563347048818
2100,-0.0077684048315895485
2101,-0.012601474287013631
2102,-0.031585791949565886
2103,-0.05589501450503112
2104,-0.07256602044662146
2105,-0.07447713834868452
2106,-0.06566441860984981
2107,-0.05730527766101709
2108,-0.05785205051363189
2109,-0.06597431519137531
2110,-0.0724742021162146
2111,-0.06932490177884243
2112,-0.05758539867585282
2113,-0.04691966948695126
2114,-0.04700493571761346
2115,-0.05852925226765794
2116,-0.07203980301383721
2117,-0.07594914070687657
2118,-0.06667951492728186
2119,-0.05179276641690278
2120,-0.04315222435669824
2121,-0.046242755713087676
2122,-0.055438245928550164
2123,-0.059678945583332935
2124,-0.053386951241542205
2125,-0.042392860374411326
2126,-0.039069789085543996
2127,-0.05088624640134261
2128,-0.07289218651381607
2129,-0.0911909261465211
2130,-0.09431906447484094
2131,-0.08217641046108903
2132,-0.06464461805033278
2133,-0.0518996860647346
2134,-0.046113625069442415
2135,-0.04232407190780582
2136,-0.036727750346914625
2137,-0.033068637163776865
2138,-0.03979747152985772
2139,-0.06034127738847677
2140,-0.08641520321291862
2141,-0.10199353030815564
2142,-0.09532927911761194
2143,-0.06830008496189521
2144,-0.03449506110440649
2145,-0.0079156387346234
2146,0.007219867602752986
2147,0.016638558613070654
2148,0.02720809881520126
2149,0.038681640718769644
2150,0.04422023105500451
2151,0.03857610737564392
2152,0.025046219216660275
2153,0.01381913075289547
2154,0.013266495933280865
2155,0.022805835775639008
2156,0.03413585844220807
2157,0.03913784455984731
2158,0.03642189516819248
2159,0.030590626328279073
2160,0.0261131839117408
2161,0.02285357454977485
2162,0.017655739422302703
2163,0.009315401024132359
2164,0.0006779513054578374
2165,-0.004706780203739866
2166,-0.0073180960072712666
2167,-0.011784633381002364
2168,-0.021528905771953544
2169,-0.03370736703692945
2170,-0.04074733293071919
2171,-0.038024824167123425
2172,-0.030101123972801774
2173,-0.028340111859630153
2174,-0.040982015776207775
2175,-0.06476067807396138
2176,-0.086515888949192
2177,-0.09403879427629686
2178,-0.08644109274207715
2179,-0.07455127860792193
2180,-0.0711810551036709
2181,-0.08053541248129038
2182,-0.0964683233880929
2183,-0.11050891199532092
2184,-0.12133682458717374
2185,-0.13656728629116452
2186,-0.16569646134535854
2187,-0.2116519911398715
2188,-0.2691765835991543
2189,-0.33085939740265463
2190,-0.3937354150105557
2191,-0.4589410018295212
2192,-0.5242980634986204
2193,-0.5775015564697028
2194,-0.5980079986529379
2195,-0.5680986430096149
2196,-0.4849249958860423
2197,-0.36362833955709195
2198,-0.2284978759501635
2199,-0.09860229436595397
2200,0.02160265733231851
2201,0.1405386010463841
2202,0.26913095978220614
2203,0.4100821489161005
2204,0.554039263951831
2205,0.6839567756267795
2206,0.7833987744931877
2207,0.8431999125781018
2208,0.863495304951607
2209,0.8514950890846112
2210,0.8169532585547002
2211,0.7670757609849241
2212,0.7022872547331598
2213,0.6147250582578891
2214,0.49153100485995604
2215,0.3232992754334794
2216,0.1144067302002529
2217,-0.11111519573721207
2218,-0.31381328946079157
2219,-0.45344303856147017
2220,-0.5071987002034936
2221,-0.4810259577457948
2222,-0.4065986062944777
2223,-0.3251448673083542
2224,-0.2677239811556821
2225,-0.24367581469710536
2226,-0.24303507643947042
2227,-0.24900135358386666
2228,-0.250347279604242
2229,-0.24545556979465905
2230,-0.23755157318893688
2231,-0.22780216382177884
2232,-0.21340105886715943
2233,-0.19175082051194964
2234,-0.16539644161703415
2235,-0.1416718493971768
2236,-0.12661856007412886
2237,-0.11896399437370514
2238,-0.11044876305739004
2239,-0.09284513334072653
2240,-0.0653938220592619
2241,-0.03574439155046036
2242,-0.013624863297539012
2243,-0.003381969733247219
2244,-0.002323492809123382
2245,-0.005675462316756877
2246,-0.012205425276795991
2247,-0.02416432602475978
2248,-0.041653261848440475
2249,-0.058097775900518143
2250,-0.06306569543652925
2251,-0.051156913495649485
2252,-0.028617353596226323
2253,-0.010284534586607691
2254,-0.00825245701157273
2255,-0.021961638476114983
2256,-0.038891732904309674
2257,-0.04561147753617656
2258,-0.03933764029232653
2259,-0.02956315417575854
2260,-0.028474323579454237
2261,-0.03922190032634654
2262,-0.052929320646565775
2263,-0.05700666903932797
2264,-0.04682821832461907
2265,-0.02995696368659332
2266,-0.019307746665956325
2267,-0.02190938277540036
2268,-0.033636767115832356
2269,-0.0442736093925003
2270,-0.04752024423277136
2271,-0.04628000866561624
2272,-0.048491376805793934
2273,-0.057954888040812544
2274,-0.06929461645232413
2275,-0.0721124333901883
2276,-0.0605632436137966
2277,-0.0393682283815532
2278,-0.020549482420621656
2279,-0.013792465654581344
2280,-0.019215901801056413
2281,-0.028949928090178566
2282,-0.03555523437050863
2283,-0.03890061953313981
2284,-0.044806548375707814
2285,-0.057005521863122764
2286,-0.07081801259529252
2287,-0.07557153117453794
2288,-0.06422626513509626
2289,-0.0411270996802831
2290,-0.019890092208286643
2291,-0.01256772560297531
2292,-0.019792213018508607
2293,-0.03108389117880135
2294,-0.035051835722792246
2295,-0.02979498843613026
2296,-0.0236684901194263
2297,-0.02599215537209587
2298,-0.0370654268946162
2299,-0.04736781141350817
2300,-0.04660316701951041
2301,-0.03354019706176367
2302,-0.017067293277735752
2303,-0.00784091303712602
2304,-0.009125927945429584
2305,-0.015640001153754912
2306,-0.02058925295909096
2307,-0.022814104581395354
2308,-0.026549150915369378
2309,-0.03472227045642054
2310,-0.04376921827031002
2311,-0.0461305682486012
2312,-0.03805412581979336
2313,-0.02435722054105481
2314,-0.01483738546700147
2315,-0.015770541301012336
2316,-0.025027434937256433
2317,-0.0354079174170379
2318,-0.04216341971036784
2319,-0.046608040855005306
2320,-0.05241105973099783
2321,-0.05934546169858826
2322,-0.061993896641852904
2323,-0.05526921206925597
2324,-0.04080560923743053
2325,-0.026906617394355306
2326,-0.021440505921400593
2327,-0.024733650141948164
2328,-0.029846113938379285
2329,-0.030070175077960722
2330,-0.025926761313295087
2331,-0.0243458170639601
2332,-0.030797194489488214
2333,-0.0425381752737907
2334,-0.05016471518111867
2335,-0.04624314573592875
2336,-0.03255820616878609
2337,-0.01881604201198596
2338,-0.014108718801426303
2339,-0.019472367290227242
2340,-0.028470255618281044
2341,-0.034554875515380834
2342,-0.03740788664002907
2343,-0.04200689778623015
2344,-0.05192463259748548
2345,-0.06423956596176753
2346,-0.07152349770450267
2347,-0.06887803286791468
2348,-0.05875426160759446
2349,-0.04864387400169699
2350,-0.044112721354393064
2351,-0.04436302737885746
2352,-0.04471144736944756
2353,-0.043017042517987644
2354,-0.042874507889007575
2355,-0.049767312110138934
2356,-0.06395034114642598
2357,-0.07774832962234439
2358,-0.08095107792954243
2359,-0.0698552349976859
2360,-0.05140345404359464
2361,-0.03811222784245313
2362,-0.038092485018501196
2363,-0.04908357213035451
2364,-0.06157104011915967
2365,-0.06757135640905548
2366,-0.06678313847477756
2367,-0.06498111367419138
2368,-0.0672220476702432
2369,-0.07294283191176833
2370,-0.0773069939410844
2371,-0.076549427629898
2372,-0.07147244462231234
2373,-0.06590710116300816
2374,-0.06249773316589641
2375,-0.06060281733436618
2376,-0.058232734851702495
2377,-0.05533631386455934
2378,-0.05448917993582182
2379,-0.05819008489061781
2380,-0.06575173198112905
2381,-0.07303397154266067
2382,-0.0750593882991697
2383,-0.06872914911482755
2384,-0.0534597845553538
2385,-0.030413501383435612
2386,-0.0023670819874180363
2387,0.02549743976847369
2388,0.04602542977664072
2389,0.053416263422709206
2390,0.04763822645069846
2391,0.035604718730299204
2392,0.02681303144116241
2393,0.026414070085333634
2394,0.03178775329367739
2395,0.03587055498888514
2396,0.034072602534872765
2397,0.028097610466176363
2398,0.023173954298555458
2399,0.021989199448300425
2400,0.02193009229632572
2401,0.01851126701232956
2402,0.011033827087999007
2403,0.0039256481000286255
2404,0.001854741355454277
2405,0.003754812740435101
2406,0.0026776029076289965
2407,-0.007437281839273413
2408,-0.02458962772503657
2409,-0.038922799210994355
2410,-0.04114374632105158
2411,-0.03155196403555191
2412,-0.02078685672931084
2413,-0.021009360657285356
2414,-0.03547113724814233
2415,-0.05614437909383828
2416,-0.07144197270971558
2417,-0.07647608247952396
2418,-0.0761618683066275
2419,-0.07878166322125407
2420,-0.08704145566328379
2421,-0.09583705172947589
2422,-0.0988615388084344
2423,-0.09706410152187728
2424,-0.1000121854177809
2425,-0.11836056908030106
2426,-0.15467607620017157
2427,-0.20169482109428472
2428,-0.24982011860067815
2429,-0.2964994253736386
2430,-0.3481183787654263
2431,-0.4121662890742209
2432,-0.4866863584818304
2433,-0.5565597476928769
2434,-0.5998985577385753
2435,-0.5990957784117443
2436,-0.5480327920202561
2437,-0.4515404851224317
2438,-0.32002771416832343
2439,-0.16464702829870786
2440,0.004604249068414356
2441,0.1792400501761815
2442,0.3527328419224711
2443,0.5202291697910244
2444,0.6759914360791714
2445,0.8099947591424921
2446,0.9081645757751442
2447,0.9587822589124664
2448,0.9608546966684061
2449,0.9256522002213571
2450,0.8668272617689642
2451,0.7856585295245174
2452,0.6655489232749767
2453,0.4846841815585734
2454,0.24007514111262082
2455,-0.0363197177755021
2456,-0.28535678468166314
2457,-0.4501098349113194
2458,-0.5066911403215237
2459,-0.47441293551784336
2460,-0.399381095234806
2461,-0.3257749838089397
2462,-0.2761372728262691
2463,-0.25129310457330895
2464,-0.24320810859693398
2465,-0.24588920693747385
2466,-0.25593128588074904
2467,-0.26698323526918144
2468,-0.2681451418639015
2469,-0.25041283164656863
2470,-0.21512562135610447
2471,-0.1750120549966574
2472,-0.14529734734285188
2473,-0.132245941650329
2474,-0.12936003588054296
2475,-0.12439360097524597
2476,-0.11034825801193782
2477,-0.09034524200985136
2478,-0.07260380048539325
2479,-0.06129689128884086
2480,-0.05258030226526924
2481,-0.03949102396241236
2482,-0.020428588118414345
2483,-0.002391027780566632
2484,0.004617759111499272
2485,-0.00320534361659315
2486,-0.019561149293365037
2487,-0.03333223467312092
2488,-0.038036144508308264
2489,-0.03638232334126289
2490,-0.035711275442460604
2491,-0.03915791208782175
2492,-0.041715039503395196
2493,-0.035518695458611416
2494,-0.01925215701084209
2495,-0.0019452230004763675
2496,0.0034771689122047728
2497,-0.00855047979329893
2498,-0.03079845649896664
2499,-0.049111120737286976
2500,-0.05435241003043103
2501,-0.04934285583488157
2502,-0.04455247995633089
2503,-0.047176964143446604
2504,-0.05441047499295726
2505,-0.05719622321887688
2506,-0.050159422053137476
2507,-0.03746722398327191
2508,-0.02886457761128346
2509,-0.030270572370770507
2510,-0.03863758438519137
2511,-0.04598464970210229
2512,-0.04784920240679438
2513,-0.047035943669528346
2514,-0.04893543783289634
2515,-0.05396157127166289
2516,-0.05585887399220466
2517,-0.04826904214809967
2518,-0.03274776252286865
2519,-0.01928042651298871
2520,-0.017832788050280483
2521,-0.028957765316782007
2522,-0.042976865997399284
2523,-0.04889734527757866
2524,-0.04440948996736878
2525,-0.03713130105657361
2526,-0.03607439772654305
2527,-0.042171802377801174
2528,-0.04754114769099229
2529,-0.04409381770638066
2530,-0.03244557302028081
2531,-0.02178450237373737
2532,-0.02074250151277572
2533,-0.028710636309336447
2534,-0.0366717681937739
2535,-0.03675329600478834
2536,-0.0304876791353892
2537,-0.02688508000527489
2538,-0.03200452198860579
2539,-0.040972518195526844
2540,-0.04153241375078305
2541,-0.02658629202644209
2542,-0.0033833117555065154
2543,0.010707277268243196
2544,0.003102889951360066
2545,-0.02209356800304529
2546,-0.04689700528022443
2547,-0.0550264762945558
2548,-0.046018327074590096
2549,-0.03462745929081141
2550,-0.03603589585203871
2551,-0.05088801494348022
2552,-0.06444130661482783
2553,-0.060761041791968215
2554,-0.03855858560088329
2555,-0.013612303640332765
2556,-0.005286637723215182
2557,-0.019547060564794036
2558,-0.044044507073477915
2559,-0.0594965133122249
2560,-0.056566288840510286
2561,-0.042781602132014554
2562,-0.03376226172118352
2563,-0.03767254221421068
2564,-0.04767160738130154
2565,-0.04911802741615106
2566,-0.03432639671245927
2567,-0.01086498485441886
2568,0.00429356461763874
2569,-0.0006897929534539051
2570,-0.022464326489927383
2571,-0.045618505045161836
2572,-0.055658181041858615
2573,-0.05007226757397434
2574,-0.03822173677217985
2575,-0.031295585297075025
2576,-0.03219834076382347
2577,-0.03440004779792248
2578,-0.029904269352940188
2579,-0.018131243765579643
2580,-0.007222366115994708
2581,-0.006818976796077729
2582,-0.0193778831322257
2583,-0.03813991135527625
2584,-0.053312406969199776
2585,-0.06029843285548232
2586,-0.0622071793747522
2587,-0.0647305940646588
2588,-0.06899736323443774
2589,-0.06991974999987458
2590,-0.06197846028037937
2591,-0.04672922187537136
2592,-0.034084302880880504
2593,-0.03504997436588782
2594,-0.05193847758073779
2595,-0.07512261536292261
2596,-0.08993015079773174
2597,-0.08808796589711218
2598,-0.0737595914848461
2599,-0.05893388902417102
2600,-0.052534095393064285
2601,-0.05324523313315438
2602,-0.05241990920859162
2603,-0.04388501144574615
2604,-0.030993205434440875
2605,-0.02398453610372878
2606,-0.03009928896097503
2607,-0.04599844881797212
2608,-0.06004071661367345
2609,-0.06261255044748484
2610,-0.054872560764860565
2611,-0.04752219001825516
2612,-0.0505464521924574
2613,-0.06350604871735811
2614,-0.07562448039698919
2615,-0.07576511559603001
2616,-0.0630259383037044
2617,-0.048011793643930295
2618,-0.04357576850447467
2619,-0.0536707841101319
2620,-0.07055035819091175
2621,-0.08244904077211229
2622,-0.08395369230854802
2623,-0.07912482604449761
2624,-0.07498555866926856
2625,-0.07266693157573578
2626,-0.06565742761036718
2627,-0.04714343751922569
2628,-0.01888564512064515
2629,0.007860235576313494
2630,0.02110087091109568
2631,0.018480648417093966
2632,0.009272123397981474
2633,0.005969553131271164
2634,0.013530250839549611
2635,0.026422386260877173
2636,0.03572104576224631
2637,0.03852081908912977
2638,0.0399291389402512
2639,0.04583508394727877
2640,0.05440344280622718
2641,0.05582685364624032
2642,0.04152841244888284
2643,0.014076455308801507
2644,-0.012366356499947904
2645,-0.0224938412735659
2646,-0.012164663339749558
2647,0.008457431847569065
2648,0.023525421123395472
2649,0.023825510720717064
2650,0.011964800965603633
2651,-0.0030212251580667574
2652,-0.0151416253594004
2653,-0.02557513377105224
2654,-0.03837925249069079
2655,-0.05347445214661688
2656,-0.06493976847734902
2657,-0.06662284625950403
2658,-0.05915309846548779
2659,-0.05078248748642984
2660,-0.05065974766226814
2661,-0.06083467856234617
2662,-0.07475051261070546
2663,-0.08377623459422913
2664,-0.08559799201882942
2665,-0.0865599050919296
2666,-0.09588769737030017
2667,-0.11740156555695008
2668,-0.1465161655806266
2669,-0.17516436417036121
2670,-0.19987595781970535
2671,-0.22554999879425425
2672,-0.26168843891711874
2673,-0.31468081359742517
2674,-0.3827284593051998
2675,-0.45678901403423844
2676,-0.5251279287145985
2677,-0.5764780131539862
2678,-0.5996872576250064
2679,-0.5827092984418821
2680,-0.515318256572727
2681,-0.3959333352377589
2682,-0.23716348160809864
2683,-0.06334724426286154
2684,0.10097029407447441
2685,0.24426469299874326
2686,0.37228570833795915
2687,0.49869580268124825
2688,0.6288010222675076
2689,0.7500170547160878
2690,0.8382252491005089
2691,0.8759163643798296
2692,0.8670325883100369
2693,0.8348515565964134
2694,0.8029532450462856
2695,0.7740670008812875
2696,0.7245161044725639
2697,0.6199976564116788
2698,0.44142253106865975
2699,0.20177955534893516
2700,-0.05742636233826337
2701,-0.28588045367594306
2702,-0.44565349356431705
2703,-0.5216952774627949
2704,-0.5202182956766128
2705,-0.4617380249955826
2706,-0.37478373942345855
2707,-0.2902529941664813
2708,-0.23348163979194092
2709,-0.2149102829530778
2710,-0.22570069221832906
2711,-0.2440538113502051
2712,-0.24995181198217215
2713,-0.23789288585562557
2714,-0.21763526479865086
2715,-0.20280925538721262
2716,-0.19778014938378508
2717,-0.19437230595357302
2718,-0.18065763457231304
2719,-0.15284367828562334
2720,-0.11891634988516692
2721,-0.09109204232685768
2722,-0.07492981711179854
2723,-0.06569999863974921
2724,-0.05497606906838884
2725,-0.04024023003214572
2726,-0.027628010320350012
2727,-0.02516980979646624
2728,-0.03358542849712814
2729,-0.04415153446352359
2730,-0.046046894139958244
2731,-0.03608588142946905
2732,-0.021349610778386333
2733,-0.012245508461092267
2734,-0.01292107934582314
2735,-0.01838088125669414
2736,-0.020782858979048087
2737,-0.01817982678644674
2738,-0.01666271558849041
2739,-0.02371393024727876
2740,-0.03961425655219207
2741,-0.05580296097669529
2742,-0.06208358759596791
2743,-0.055621048956792915
2744,-0.042891751243775506
2745,-0.03293456913739151
2746,-0.029028373840005665
2747,-0.02726986118371069
2748,-0.023079498643888183
2749,-0.018192620428297335
2750,-0.020113179306756955
2751,-0.03406378651209763
2752,-0.05579726722930227
2753,-0.07335726728290284
2754,-0.07691954892330989
2755,-0.06730098072789825
2756,-0.05457659962321735
2757,-0.04798699831537938
2758,-0.0471797889756009
2759,-0.043656567372366395
2760,-0.03102442025430841
2761,-0.013567780681442888
2762,-0.004042494660146069
2763,-0.012247133392425755
2764,-0.035258542118394416
2765,-0.05888051916000585
2766,-0.06913452571359746
2767,-0.06311077980507038
2768,-0.04946189974048268
2769,-0.039029649028518396
2770,-0.0352946724828795
2771,-0.03362978111159876
2772,-0.028925248695748276
2773,-0.022789416782241247
2774,-0.022504512977612492
2775,-0.03287008063108374
2776,-0.04965473959086173
2777,-0.061881536663028924
2778,-0.061199419250786195
2779,-0.04927974666916915
2780,-0.03592307138428215
2781,-0.029656369295304366
2782,-0.03000927892329541
2783,-0.029021558706566006
2784,-0.02043044303327734
2785,-0.007341382504840994
2786,-0.0005154790698307448
2787,-0.00848267509805826
2788,-0.028747163576888446
2789,-0.0485891671916644
2790,-0.05507173754025585
2791,-0.04531558767634555
2792,-0.02798871653128398
2793,-0.015222843042267295
2794,-0.012810189936508003
2795,-0.017422434648784832
2796,-0.02228675746461487
2797,-0.024693584841584813
2798,-0.02772866295757673
2799,-0.03522869084106778
2800,-0.04608837675212118
2801,-0.05438988955240437
2802,-0.055277773843703006
2803,-0.050136179023514554
2804,-0.04524404841027335
2805,-0.04507657786713122
2806,-0.04736001509195506
2807,-0.04542559133030101
2808,-0.03576285612783191
2809,-0.022913352689359026
2810,-0.016200946900529326
2811,-0.021095888464034013
2812,-0.033735924620368604
2813,-0.044217679505314
2814,-0.045527035707406086
2815,-0.039323901063620804
2816,-0.03307300832062025
2817,-0.03186461579514341
2818,-0.033563080886405014
2819,-0.032204847778779924
2820,-0.025750086200505694
2821,-0.019610890815607497
2822,-0.021778611614883748
2823,-0.034325819141026545
2824,-0.050205501238654526
2825,-0.059131504101742796
2826,-0.05702709962785744
2827,-0.04962225182705561
2828,-0.04644342369064923
2829,-0.05110145396399292
2830,-0.0576702868816486
2831,-0.05698809447745236
2832,-0.04671901916292283
2833,-0.03497804767705845
2834,-0.03342576804891087
2835,-0.04612742748998831
2836,-0.06493136518455285
2837,-0.0761399758122141
2838,-0.07247724033188971
2839,-0.0591920181153643
2840,-0.04862567627040936
2841,-0.04850873161040649
2842,-0.055159615360629244
2843,-0.057967602808876764
2844,-0.050650769721929
2845,-0.038246445718018024
2846,-0.03290522540870125
2847,-0.042379561442767985
2848,-0.062214479260034664
2849,-0.07918613413728286
2850,-0.0827979108840424
2851,-0.07398032632375579
2852,-0.06295333678474707
2853,-0.058752196013214096
2854,-0.06090484477431607
2855,-0.06136447082093394
2856,-0.05441044338784359
2857,-0.04413695121481237
2858,-0.041473489527607
2859,-0.05324183244322456
2860,-0.07407177517544884
2861,-0.08964111234004073
2862,-0.08877633773241556
2863,-0.07316522801786016
2864,-0.05553492445634378
2865,-0.048155424769344014
2866,-0.052628334459447854
2867,-0.06024335538534407
2868,-0.06162275987705397
2869,-0.055571502302924264
2870,-0.04860949869790934
2871,-0.04656155044003822
2872,-0.04750504399626164
2873,-0.04340996474765563
2874,-0.028429487793356266
2875,-0.004985739224795347
2876,0.018520616631787754
2877,0.03556256402798339
2878,0.046453974571857
2879,0.055496198084052054
2880,0.06397541233927387
2881,0.06707167124651336
2882,0.05835227364162697
2883,0.03724840949164389
2884,0.011639272453660686
2885,-0.007287576850847183
2886,-0.012936433338900096
2887,-0.0066721117777532694
2888,0.005469160628661961
2889,0.018173494110689963
2890,0.028736722907534026
2891,0.03491121185928092
2892,0.03311042702323019
2893,0.020456357284282255
2894,-0.0012712855602795433
2895,-0.024973475645356864
2896,-0.04290661987177656
2897,-0.05253021987008842
2898,-0.0573361576586449
2899,-0.06150725593205261
2900,-0.06418425981165052
2901,-0.06010104801020544
2902,-0.046652155997773996
2903,-0.029922054018398436
2904,-0.022240117612608645
2905,-0.03219152639626138
2906,-0.056390420624938514
2907,-0.0816683682800141
2908,-0.09652921010574675
2909,-0.1012989675855061
2910,-0.10710431092133417
2911,-0.12451884647012154
2912,-0.15306334220151077
2913,-0.18227542061317686
2914,-0.20379226677723722
2915,-0.22265091379232416
2916,-0.25597643846799223
2917,-0.318847072287094
2918,-0.40944487355045733
2919,-0.5067706221045802
2920,-0.5829760474881064
2921,-0.6193702406145807
2922,-0.6126559398804448
2923,-0.5680200436602276
2924,-0.4882974104749631
2925,-0.3712375509338859
2926,-0.21742328670674196
2927,-0.039384977520914494
2928,0.13968413136527497
2929,0.2988781637496247
2930,0.4327946315218103
2931,0.5517139356288208
2932,0.6672009429057725
2933,0.7761575298307914
2934,0.8591779587247834
2935,0.8962357926030656
2936,0.8856644126641735
2937,0.84758081421878
2938,0.8061137294154128
2939,0.7647795124313764
2940,0.6976198051492999
2941,0.5667107865975406
2942,0.35416775327953004
2943,0.0834788626119786
2944,-0.18726726879520178
2945,-0.3955973530718947
2946,-0.5061126426037659
2947,-0.5221794659288526
2948,-0.4740927869834344
2949,-0.397352534013955
2950,-0.3180864106206129
2951,-0.2517835441694361
2952,-0.20849874657631517
2953,-0.1945508519035951
2954,-0.2083909175317492
2955,-0.23719379653362277
2956,-0.26123707797048223
2957,-0.26510861952381415
2958,-0.2469382940403356
2959,-0.21753223294390578
2960,-0.19010359775673383
2961,-0.16971271118886266
2962,-0.15144810014784116
2963,-0.1279893179486037
2964,-0.09859517338402785
2965,-0.07081276062013894
2966,-0.053663455383974046
2967,-0.0493117685100359
2968,-0.05138018782664684
2969,-0.051303749005176064
2970,-0.04622334162884527
2971,-0.04060467626035461
2972,-0.040203465811067166
2973,-0.0447545269680658
2974,-0.04713583424707228
2975,-0.04029850456862816
2976,-0.025253085413129255
2977,-0.011833558538267546
2978,-0.010658916368679647
2979,-0.023385943404290205
2980,-0.04051174483787414
2981,-0.04922557726703474
2982,-0.044352797291052695
2983,-0.032349266481470906
2984,-0.02473516649042987
2985,-0.027298555359243054
2986,-0.03532574013733107
2987,-0.0391931621269392
2988,-0.034575769814429586
2989,-0.027089295949156805
2990,-0.0267432060764963
2991,-0.03770276398901199
2992,-0.05357315077419573
2993,-0.06302130355747237
2994,-0.06032040787865587
2995,-0.05046523326106
2996,-0.04382176791891754
2997,-0.045642319922954755
2998,-0.05091479649794147
2999,-0.04975325400828822
3000,-0.03802466900686979
3001,-0.022570058079159405
3002,-0.01557875163435432
3003,-0.02333827565675952
3004,-0.04018612648501588
3005,-0.05348957512450687
3006,-0.05481369235678839
3007,-0.04660659078296141
3008,-0.03838504403987016
3009,-0.036786888780482925
3010,-0.03962314725338182
3011,-0.039612648523321664
3012,-0.03346588054593789
3013,-0.026553705492189217
3014,-0.02799019180476825
3015,-0.04089222440541531
3016,-0.05779040201702586
3017,-0.0663157616914827
3018,-0.06011719949806211
3019,-0.04457857814443686
3020,-0.031726561678297203
3021,-0.029110054429505428
3022,-0.033253641065558476
3023,-0.03387011039662165
3024,-0.024658049209097605
3025,-0.010226436911039803
3026,-0.0024588064503809673
3027,-0.009712499531066466
3028,-0.02895436275828496
3029,-0.048016472461424
3030,-0.055646931074646966
3031,-0.050062302837037546
3032,-0.038651982707819804
3033,-0.030064817255382972
3034,-0.026734674693351872
3035,-0.024690213870123937
3036,-0.01990180930833997
3037,-0.01407437178378642
3038,-0.013748070774371382
3039,-0.023569848919878053
3040,-0.040586983274671536
3041,-0.055524373443728486
3042,-0.060199204954561776
3043,-0.05420316519708666
3044,-0.04461509986131122
3045,-0.039162563640030845
3046,-0.03946809629741346
3047,-0.04077339157787053
3048,-0.03808307199035342
3049,-0.03230002770009574
3050,-0.029902148229188963
3051,-0.03616670006310577
3052,-0.04863752161434346
3053,-0.05778254606070304
3054,-0.05504919452877963
3055,-0.04110833412640033
3056,-0.026268726660673047
3057,-0.022012249447571082
3058,-0.03099368239682213
3059,-0.04465049519248435
3060,-0.050788927767764884
3061,-0.044326367118591434
3062,-0.03142138871020057
3063,-0.023384203227129367
3064,-0.026259281038998817
3065,-0.035819117328506164
3066,-0.04231520997504421
3067,-0.039984830370968685
3068,-0.03204649054963847
3069,-0.026717773446000202
3070,-0.028739574191783503
3071,-0.03509386506546007
3072,-0.0390144548877862
3073,-0.03780311185264111
3074,-0.03611944844677793
3075,-0.04117431717491334
3076,-0.054707818137908454
3077,-0.07009535532675631
3078,-0.07781188744256748
3079,-0.07398953138166801
3080,-0.063617901674453
3081,-0.05534460609929524
3082,-0.05331221835550416
3083,-0.05431998673411126
3084,-0.05289991376616405
3085,-0.04855478464871634
3086,-0.047108666213892536
3087,-0.05434667063501235
3088,-0.06847779232078959
3089,-0.07969182237307701
3090,-0.07814326232546076
3091,-0.06299468102049355
3092,-0.043619079502740354
3093,-0.03149266888809794
3094,-0.030406695730779913
3095,-0.03429131205734075
3096,-0.03446383442335631
3097,-0.02891704527419344
3098,-0.024453984227343788
3099,-0.029733158943651767
3100,-0.046279101349353785
3101,-0.06634061297430624
3102,-0.07954123865697954
3103,-0.08166365671151263
3104,-0.07715739495765161
3105,-0.07350425017605819
3106,-0.07361279498711051
3107,-0.0739301937233394
3108,-0.06974298611759025
3109,-0.06172186939496961
3110,-0.05663563401175804
3111,-0.06125100648592454
3112,-0.07542356849240242
3113,-0.09123478269807077
3114,-0.09903865567409784
3115,-0.09459457420167508
3116,-0.08073614986244693
3117,-0.06277113363685638
3118,-0.04303953994171972
3119,-0.020453210301397202
3120,0.004868439712843483
3121,0.027568034329252165
3122,0.03909149972244942
3123,0.034973070522494876
3124,0.020477432881192796
3125,0.008280001242704883
3126,0.009046116880217326
3127,0.022845786224509612
3128,0.039268927600625156
3129,0.046478979430753325
3130,0.04119610841002711
3131,0.030593878277477178
3132,0.02453554523109673
3133,0.025638115456807387
3134,0.026759114965428155
3135,0.0184849157038863
3136,-0.00046103851093749054
3137,-0.02011110899413721
3138,-0.02709030499094256
3139,-0.01669551294882799
3140,0.001909053454171232
3141,0.012640395074322113
3142,0.005855909843213982
3143,-0.013663425864809106
3144,-0.031301243591275174
3145,-0.03572743565910306
3146,-0.02879516585089684
3147,-0.02332124360564117
3148,-0.03080441001452864
3149,-0.05028942009765737
3150,-0.06861566175372104
3151,-0.07199571519473255
3152,-0.058531355819923546
3153,-0.040306564576977705
3154,-0.03308486069955622
3155,-0.042919170669649453
3156,-0.06183183908917956
3157,-0.07640084267493608
3158,-0.08113483889018444
3159,-0.08401271250483779
3160,-0.09887696790664187
3161,-0.13186529134549826
3162,-0.17499987855600047
3163,-0.21355686133527424
3164,-0.24071939955376798
3165,-0.265633659468644
3166,-0.30659817848375753
3167,-0.37474490628128454
3168,-0.4624433465470364
3169,-0.5463710948056935
3170,-0.6018795899199516
3171,-0.6156905198875413
3172,-0.5870097105821991
3173,-0.5192208008246579
3174,-0.41303242591727424
3175,-0.2687364510339564
3176,-0.09402783087055351
3177,0.09311158143139531
3178,0.2719808316937602
3179,0.4309357224183163
3180,0.5713789760052415
3181,0.6991165894513953
3182,0.811475839307225
3183,0.8939602558884846
3184,0.9311608669963246
3185,0.921547484226649
3186,0.8801772091164568
3187,0.8241617012513927
3188,0.7533343338300853
3189,0.6455725346854629
3190,0.4745785744920518
3191,0.23740331752124988
3192,-0.03145761175726267
3193,-0.2727871745291045
3194,-0.4338889212058859
3195,-0.4954909681909263
3196,-0.4761863778856584
3197,-0.41492054776594833
3198,-0.34765835670747036
3199,-0.29456784634929506
3200,-0.2614728668062667
3201,-0.2472931536829563
3202,-0.24808175217217268
3203,-0.2563287211660924
3204,-0.26112845572302557
3205,-0.253239116427449
3206,-0.231784700839195
3207,-0.20539250582151353
3208,-0.18501694659183984
3209,-0.17420214173666093
3210,-0.16594837029000958
3211,-0.14953901427702596
3212,-0.12107803733010147
3213,-0.08768759442395911
3214,-0.0613318776983026
3215,-0.04827835669365797
3216,-0.044381904432807345
3217,-0.040533982760068366
3218,-0.03253287888803348
3219,-0.025300464620864188
3220,-0.0271066264153906
3221,-0.03960128620887793
3222,-0.05392436817094852
3223,-0.057423797449773856
3224,-0.04505984670715644
3225,-0.024629709482234516
3226,-0.010479337430655938
3227,-0.011209940355110429
3228,-0.02266698596967657
3229,-0.03262750102995906
3230,-0.032648650980506906
3231,-0.025881874203719263
3232,-0.023571580349540818
3233,-0.03368990821089185
3234,-0.05253900597302044
3235,-0.06727395981281434
3236,-0.06700111887556348
3237,-0.05216939451710177
3238,-0.033788477558879135
3239,-0.023645624626236858
3240,-0.024889822829085476
3241,-0.031436513760113464
3242,-0.03580310377802477
3243,-0.03695480106463221
3244,-0.04026816017856351
3245,-0.05006352421219239
3246,-0.0628953882125729
3247,-0.06914000547723509
3248,-0.06195612719995401
3249,-0.0448562328641077
3250,-0.029909344570702774
3251,-0.02754619198575593
3252,-0.037370873400709756
3253,-0.0488454884539839
3254,-0.05140798593049098
3255,-0.04442251292401631
3256,-0.03736346454399026
3257,-0.040011297129414244
3258,-0.05218807014812975
3259,-0.06315182512935369
3260,-0.061491116759731
3261,-0.04613789462194694
3262,-0.027888137952364722
3263,-0.01984213285000827
3264,-0.025768941214336157
3265,-0.037347286048600895
3266,-0.042690289669413184
3267,-0.037796994604209606
3268,-0.029929121327604738
3269,-0.029829671740846005
3270,-0.04047181480734494
3271,-0.05331344500878152
3272,-0.05578795481919487
3273,-0.04301296589706526
3274,-0.022694100755645288
3275,-0.008632442860393927
3276,-0.008894507616652345
3277,-0.019513043589321974
3278,-0.029192497225919135
3279,-0.030175351886056228
3280,-0.02493161246803589
3281,-0.02265506595745577
3282,-0.029371318791780406
3283,-0.04142013757284467
3284,-0.04863513293079958
3285,-0.04413069112683919
3286,-0.031237468836495964
3287,-0.020848707400766504
3288,-0.021623030599641747
3289,-0.03234837104253923
3290,-0.043716162061122006
3291,-0.04769467138079055
3292,-0.04529866403281183
3293,-0.04503399130117905
3294,-0.05339941868303481
3295,-0.06685063112596616
3296,-0.07364472860321053
3297,-0.06458034452067934
3298,-0.04268498265562881
3299,-0.022201650297325043
3300,-0.0169794276917032
3301,-0.028563310293180565
3302,-0.045063229138120275
3303,-0.05210124439230762
3304,-0.045787180427479965
3305,-0.0355899050399997
3306,-0.03440786671604723
3307,-0.04533474571477066
3308,-0.05791770667530345
3309,-0.05776126114171984
3310,-0.04051232250044753
3311,-0.016846834039710514
3312,-0.003460212786484441
3313,-0.008371544640964765
3314,-0.02434725026614737
3315,-0.036560104549400466
3316,-0.03700418844291632
3317,-0.03172793887828861
3318,-0.03390323916439437
3319,-0.04950283843534834
3320,-0.06968207317494676
3321,-0.07771677536426434
3322,-0.0644087974340623
3323,-0.037545436028878665
3324,-0.016299612550634522
3325,-0.015419320733399322
3326,-0.03347970099316033
3327,-0.055525912918842985
3328,-0.06700386253712093
3329,-0.0657326137276498
3330,-0.06123562055048405
3331,-0.06319924171163163
3332,-0.07103634693481312
3333,-0.07483119145176303
3334,-0.06632544078305279
3335,-0.048599734906691575
3336,-0.034460735261158754
3337,-0.0348039841608742
3338,-0.0482577679326459
3339,-0.06233276854724887
3340,-0.06513198756328284
3341,-0.056338043705625285
3342,-0.04683684695360378
3343,-0.04739463806381333
3344,-0.057519353372651176
3345,-0.06552675527139673
3346,-0.059947143389202234
3347,-0.041311600749241936
3348,-0.022846509049216916
3349,-0.019192139771295316
3350,-0.03368659215973574
3351,-0.056007776293998335
3352,-0.07197011551246167
3353,-0.07582733857053
3354,-0.0735443796852952
3355,-0.07469843826295336
3356,-0.08171583450745792
3357,-0.08729700502904784
3358,-0.08235233198552216
3359,-0.06624695594354157
3360,-0.048981965937038976
3361,-0.042998713471420286
3362,-0.05241900138275418
3363,-0.06982864134265021
3364,-0.08323460720124452
3365,-0.0861721774649385
3366,-0.08147134890434052
3367,-0.07590197708483418
3368,-0.07184612004086241
3369,-0.06456705906422344
3370,-0.047584702564053255
3371,-0.02046309512095907
3372,0.008945881360645128
3373,0.03014325674968625
3374,0.03813933932706152
3375,0.03650301145803221
3376,0.03283950153153367
3377,0.03152742142928314
3378,0.030845755595528275
3379,0.026871935692724575
3380,0.019594013855686716
3381,0.014453429724676165
3382,0.017236494957451963
3383,0.027242272335420543
3384,0.035974029422710906
3385,0.033655337815452296
3386,0.018167516321554417
3387,-0.0019919675825399467
3388,-0.014142017222797253
3389,-0.011996166076468516
3390,-0.0009453044168385104
3391,0.00686782516130343
3392,0.0032672826666658027
3393,-0.009268938206548562
3394,-0.02099327367651349
3395,-0.024834558100263027
3396,-0.02318921721861964
3397,-0.02504041371892516
3398,-0.036451490002071193
3399,-0.054032324303956006
3400,-0.06797579804584887
3401,-0.07160900070569914
3402,-0.06775507829780006
3403,-0.06535804069441338
3404,-0.06976340355084264
3405,-0.07674406169551043
3406,-0.0768336338351937
3407,-0.06606000855489036
3408,-0.05225566122709073
3409,-0.049984316450610175
3410,-0.06827192489662066
3411,-0.10279515164765739
3412,-0.14035325693100972
3413,-0.17176273543243753
3414,-0.20104222719435674
3415,-0.24200035816196935
3416,-0.30510052904783674
3417,-0.38654615233497985
3418,-0.469338631859208
3419,-0.5348484670867505
3420,-0.5739495233970143
3421,-0.5878660943160898
3422,-0.5792239185000398
3423,-0.5433181703919931
3424,-0.46922056234721754
3425,-0.3504717537040794
3426,-0.19519204697885117
3427,-0.025062000913975136
3428,0.13749068896426556
3429,0.28332395239851765
3430,0.41920405999703025
3431,0.5559992552338963
3432,0.6925477229858228
3433,0.8100812221321407
3434,0.883547377651583
3435,0.9011331287895629
3436,0.8749217143704591
3437,0.8319726509648608
3438,0.7915865908825479
3439,0.747173253470294
3440,0.6686491031347128
3441,0.5250932157931065
3442,0.31089285367470026
3443,0.05567505511835093
3444,-0.18884860700523143
3445,-0.3746026559367897
3446,-0.4773553370340324
3447,-0.5005160840075162
3448,-0.46545384503186354
3449,-0.3991776975053434
3450,-0.32703551853648427
3451,-0.26972872793856634
3452,-0.2400715516923203
3453,-0.23867066097336903
3454,-0.2531371079921488
3455,-0.26493288596281533
3456,-0.26103000818241434
3457,-0.24164076200210713
3458,-0.21748966397771255
3459,-0.1991700293106604
3460,-0.18825384054260003
3461,-0.1777672787237935
3462,-0.1604151339248492
3463,-0.13581197722361496
3464,-0.10990396479200765
3465,-0.08826935687644047
3466,-0.07101629390220307
3467,-0.054527421515785386
3468,-0.03747067858913578
3469,-0.023912113991826245
3470,-0.019792266284979328
3471,-0.026473254224367238
3472,-0.03835981638458319
3473,-0.04727704076749441
3474,-0.04915377913544135
3475,-0.046296825768938794
3476,-0.043405717042643975
3477,-0.042051566168006836
3478,-0.039579603938425044
3479,-0.03321870936555752
3480,-0.024431966527001987
3481,-0.018457037654808738
3482,-0.019452384476935033
3483,-0.026540204774762287
3484,-0.034980724701330575
3485,-0.0410056012392878
3486,-0.04485687013385838
3487,-0.04874106201735266
3488,-0.05231769623256252
3489,-0.05139561989416688
3490,-0.04214030334985396
3491,-0.026752668185447928
3492,-0.01416973083565256
3493,-0.013831267743580043
3494,-0.02765477995621618
3495,-0.04777537925269766
3496,-0.062575732541929
3497,-0.06577785083099488
3498,-0.060462062678084356
3499,-0.054689638475135485
3500,-0.053279845859507804
3501,-0.05366119912949606
3502,-0.049491504803767
3503,-0.038163683393635205
3504,-0.024686295177191266
3505,-0.018061416830916385
3506,-0.023512336035092923
3507,-0.03782231941975225
3508,-0.052067958797034825
3509,-0.05913453456247567
3510,-0.05908382428614438
3511,-0.0576173183616393
3512,-0.05938072353354148
3513,-0.06263346971738994
3514,-0.06050188569213128
3515,-0.047882942569837245
3516,-0.02767761031813442
3517,-0.010324597089137865
3518,-0.0064163141656743
3519,-0.01840175261020923
3520,-0.03845709830082663
3521,-0.054450207225846
3522,-0.0589794080211318
3523,-0.05386064976440334
3524,-0.046557235317241194
3525,-0.04227585075220236
3526,-0.0392742706392618
3527,-0.03177287828514624
3528,-0.01752898209652616
3529,-0.0024295248070487748
3530,0.003018514663459891
3531,-0.007253541013630298
3532,-0.028517695572456765
3533,-0.04794087251149723
3534,-0.05455820795354273
3535,-0.0478581064675602
3536,-0.037273763535508736
3537,-0.03311573615140588
3538,-0.03740212459855198
3539,-0.04308791387122268
3540,-0.04215959948801176
3541,-0.03453312917540191
3542,-0.0289037980605025
3543,-0.03451280493152689
3544,-0.051710396940548145
3545,-0.0705177665464414
3546,-0.0787606704849571
3547,-0.07217192870723982
3548,-0.05709392854668886
3549,-0.04372084616371658
3550,-0.036915348821485006
3551,-0.033525089712932235
3552,-0.028116158931626174
3553,-0.02040031732438609
3554,-0.016186620810306147
3555,-0.02082345265044105
3556,-0.032316691209345584
3557,-0.04194140458102442
3558,-0.04236694809305923
3559,-0.03511602652737337
3560,-0.029293739658804267
3561,-0.032247754038974535
3562,-0.041414757748637544
3563,-0.04605193605743935
3564,-0.0379064223260058
3565,-0.020583725365480476
3566,-0.007955133892717755
3567,-0.012286824516781635
3568,-0.032934158601328534
3569,-0.05634402459012357
3570,-0.06758568139669835
3571,-0.06277283530729759
3572,-0.05104842889063613
3573,-0.04488736946147684
3574,-0.048480027723504515
3575,-0.05526949123649829
3576,-0.05631845818015489
3577,-0.050504660723982894
3578,-0.04606312792623864
3579,-0.05195176277684892
3580,-0.06786282248490252
3581,-0.08315395955444557
3582,-0.08614564513013973
3583,-0.07490352657033844
3584,-0.05900914896656824
3585,-0.050527347908503314
3586,-0.05288003152663079
3587,-0.0583631247296839
3588,-0.05661332083036805
3589,-0.04565173272019175
3590,-0.03458901796708901
3591,-0.03515214251336378
3592,-0.05007365890729293
3593,-0.06954276797132142
3594,-0.07929037034729389
3595,-0.07281242972379942
3596,-0.05637216448492431
3597,-0.04242747047645755
3598,-0.0381767733530779
3599,-0.0403118536254198
3600,-0.04063876421142924
3601,-0.03636217036825957
3602,-0.03423757919279433
3603,-0.044022339900813744
3604,-0.06756486569729507
3605,-0.09462011946233546
3606,-0.11019894411904077
3607,-0.10697547048258874
3608,-0.09110029004605746
3609,-0.07594409339130041
3610,-0.06989569734367099
3611,-0.06997622740436837
3612,-0.06710843078739565
3613,-0.05722668998213984
3614,-0.04661610555874136
3615,-0.04575642003986706
3616,-0.05769849853523968
3617,-0.07285037510124123
3618,-0.07601511489064726
3619,-0.059465150008258805
3620,-0.02970704360421398
3621,-0.001528685546061192
3622,0.01488345139937403
3623,0.02150954100386427
3624,0.028019046188242795
3625,0.040395649367849326
3626,0.05424537592521295
3627,0.05921959844097055
3628,0.04969839090062251
3629,0.030821286488224627
3630,0.013959788758640061
3631,0.006447624660449729
3632,0.005934897549036589
3633,0.004711970192753172
3634,-0.0009067619934541398
3635,-0.006089984427323533
3636,-0.0026818199037615823
3637,0.01114088580620785
3638,0.026720576051073582
3639,0.031009012881713642
3640,0.01760203192102065
3641,-0.00751788038361844
3642,-0.030874124647958787
3643,-0.04246321516663068
3644,-0.04283130260307341
3645,-0.04033907270480286
3646,-0.0420342512158495
3647,-0.04720903902731792
3648,-0.04955167474270735
3649,-0.04518349255621673
3650,-0.03818873918211586
3651,-0.03781980037397625
3652,-0.04976674207689717
3653,-0.06982393325090139
3654,-0.08631282501034555
3655,-0.08956092138951882
3656,-0.08010554091656766
3657,-0.06827146739938043
3658,-0.06551317373024747
3659,-0.07533204707199939
3660,-0.0918802134678147
3661,-0.10727066313973346
3662,-0.12063012184642091
3663,-0.14037613300104906
3664,-0.17748280743209843
3665,-0.23581489798771024
3666,-0.30827298701266126
3667,-0.3820467575021003
3668,-0.447785140589484
3669,-0.5038884047142024
3670,-0.5518389640167093
3671,-0.5872204487236353
3672,-0.5957038387284047
3673,-0.5593206307121801
3674,-0.46910980465030616
3675,-0.33390450559736334
3676,-0.17736546459694297
3677,-0.024600066798394514
3678,0.11187819993400616
3679,0.2364599961097174
3680,0.36219606522283826
3681,0.4967329645762156
3682,0.6332139777167467
3683,0.7526821948111205
3684,0.8356860530866246
3685,0.874193029574446
3686,0.875163391521441
3687,0.8534846649748082
3688,0.8194991093959999
3689,0.7698824319238465
3690,0.6882096826126854
3691,0.5552742773675374
3692,0.3632896055765045
3693,0.1258808064859646
3694,-0.12194653401814996
3695,-0.3345621609606898
3696,-0.47265513943472215
3697,-0.5187731358330323
3698,-0.4841882984535546
3699,-0.4034970161472772
3700,-0.31908782233988897
3701,-0.26287957134036744
3702,-0.2445691582944563
3703,-0.25231225301246396
3704,-0.264567411164667
3705,-0.2650564285829276
3706,-0.25119103347539457
3707,-0.23140425155841543
3708,-0.215100526391116
3709,-0.2041062633334686
3710,-0.1924442188185412
3711,-0.1736882278305154
3712,-0.148507945317817
3713,-0.12505358444546225
3714,-0.11154815144906036
3715,-0.10787188408234884
3716,-0.10427040362716948
3717,-0.08914851023011146
3718,-0.059595126741986006
3719,-0.02534171532953617
3720,-0.002181186028881282
3721,2.7240134225018676e-05
3722,-0.015205711972470237
3723,-0.034301316447521296
3724,-0.04463520802023478
3725,-0.043743942920748756
3726,-0.039074942709338846
3727,-0.03920278493261572
3728,-0.044976869881870635
3729,-0.0488383028218036
3730,-0.042809763212920696
3731,-0.027487868311914212
3732,-0.013256113370011396
3733,-0.012009881633550358
3734,-0.02656924310313491
3735,-0.0474757034924546
3736,-0.06050040364272466
3737,-0.058519635927839986
3738,-0.04722673226690806
3739,-0.03946697155645422
3740,-0.04321081897619533
3741,-0.054077973709857424
3742,-0.05936023545076187
3743,-0.05006184983663314
3744,-0.030022873493412906
3745,-0.013640033928742393
3746,-0.013975495829364812
3747,-0.03179790904964819
3748,-0.055251169848077764
3749,-0.07014802410201455
3750,-0.07133082560703743
3751,-0.06499209925191199
3752,-0.060667959027490344
3753,-0.06131421569582697
3754,-0.061207374060886006
3755,-0.05328459394345004
3756,-0.038043181149668544
3757,-0.02463137341414276
3758,-0.022707501291097984
3759,-0.03307415449453475
3760,-0.04653579379426545
3761,-0.052352178775592
3762,-0.04807775104749197
3763,-0.04111319578426255
3764,-0.04051613467958819
3765,-0.04736435453815917
3766,-0.053452398638952986
3767,-0.04975502525817273
3768,-0.0362139936789075
3769,-0.022909920736062732
3770,-0.02114007688975674
3771,-0.032934771179650865
3772,-0.049134095881229294
3773,-0.057752991204944364
3774,-0.05438134874481494
3775,-0.044700061225353374
3776,-0.037330428892921874
3777,-0.03484712861774317
3778,-0.03221172888324193
3779,-0.023867301724468618
3780,-0.01160718608532635
3781,-0.004474372876202901
3782,-0.010248686106137434
3783,-0.02702970802118082
3784,-0.04377288749851069
3785,-0.049832844620179374
3786,-0.0444084469702318
3787,-0.03658772313944355
3788,-0.035861544627810785
3789,-0.0424718039706999
3790,-0.04725699424681503
3791,-0.04130719757250641
3792,-0.025917510858640663
3793,-0.012800527213668655
3794,-0.013934922897079097
3795,-0.030602143082032865
3796,-0.052091349559008425
3797,-0.06527579276632867
3798,-0.06583364896833557
3799,-0.0604910155117883
3800,-0.05860998842117916
3801,-0.061898768064334836
3802,-0.06270425991663806
3803,-0.05263596986415117
3804,-0.032788765486452195
3805,-0.014967994037437262
3806,-0.012010277353819054
3807,-0.026090716520491223
3808,-0.046219886296342286
3809,-0.05758223935090259
3810,-0.05414029474653306
3811,-0.04284863548109889
3812,-0.03585142447838152
3813,-0.038430284444439765
3814,-0.04429142154429068
3815,-0.04247381460682441
3816,-0.028901618328578536
3817,-0.011267212770305282
3818,-0.002552304310759788
3819,-0.009483417217868023
3820,-0.026902495520218762
3821,-0.043059951345776414
3822,-0.05027064053986992
3823,-0.05057680764565009
3824,-0.05149671624111974
3825,-0.05692125147221023
3826,-0.06275575894581206
3827,-0.061658181057747355
3828,-0.051725225335848696
3829,-0.03990528852116644
3830,-0.036318608846697895
3831,-0.044954601349397334
3832,-0.05993627261632879
3833,-0.07098013236220704
3834,-0.07256452439855965
3835,-0.0678794782928602
3836,-0.06418129620309738
3837,-0.06485429576833696
3838,-0.06642056969992169
3839,-0.0631880971885263
3840,-0.05420837937357296
3841,-0.04506981940666541
3842,-0.04274745702230692
3843,-0.04901752343769065
3844,-0.05915822146443237
3845,-0.06680774813916981
3846,-0.06945647415466472
3847,-0.06894694743275268
3848,-0.0673340577640206
3849,-0.06366242394563029
3850,-0.055801905086629536
3851,-0.04511531703783021
3852,-0.03778790739626974
3853,-0.03996917788790928
3854,-0.05114144500169355
3855,-0.0631713795848926
3856,-0.06727963507382531
3857,-0.06264313038189237
3858,-0.05767788128720245
3859,-0.061813551895773616
3860,-0.07539861765192529
3861,-0.08807284403043522
3862,-0.08808227411361748
3863,-0.07398787497327673
3864,-0.05716991919972325
3865,-0.05201548665901964
3866,-0.06268503652366464
3867,-0.07901592554169788
3868,-0.08556612707958224
3869,-0.07523071037692886
3870,-0.054569183152395485
3871,-0.03617576427035884
3872,-0.0260321935978138
3873,-0.018420510509423414
3874,-0.003186006270261751
3875,0.022243256714982645
3876,0.04837378823251004
3877,0.06143588411180058
3878,0.055939935868532534
3879,0.039719274891104356
3880,0.026544122022553816
3881,0.02356703039370379
3882,0.025823094216176602
3883,0.02292485225488827
3884,0.011013232790612632
3885,-0.002133635717271109
3886,-0.004134336725904268
3887,0.009549647993569312
3888,0.029937054100794183
3889,0.04136290007161888
3890,0.03456488993515226
3891,0.01385854959835454
3892,-0.007939316362841797
3893,-0.021457579997582847
3894,-0.02800264969982746
3895,-0.0356296086446017
3896,-0.04877938202090041
3897,-0.062354981090309264
3898,-0.06634430363895635
3899,-0.05635399965225875
3900,-0.03941641155158043
3901,-0.029033982810051484
3902,-0.03396966352439262
3903,-0.05134037084561484
3904,-0.07028169614884444
3905,-0.08222870995346454
3906,-0.08781186854544007
3907,-0.09423875257810237
3908,-0.10665194810400129
3909,-0.12263577839859117
3910,-0.13534829840446858
3911,-0.14175681696620665
3912,-0.147384642619523
3913,-0.16278527280122013
3914,-0.19545201657636435
3915,-0.24521049931524724
3916,-0.3070005459746633
3917,-0.3768783139422663
3918,-0.4536593185918341
3919,-0.533569197533873
3920,-0.6034845311072514
3921,-0.6411600526526946
3922,-0.6249234938922975
3923,-0.5461971537280937
3924,-0.4147989185755283
3925,-0.25273108155213453
3926,-0.08170752013377836
3927,0.08580712988105532
3928,0.2464637504884009
3929,0.3995267542900483
3930,0.5412656705230281
3931,0.6648373722197832
3932,0.764127846615469
3933,0.8367796447061355
3934,0.8836786610197598
3935,0.9062240771275232
3936,0.9041298422055792
3937,0.8745571965978567
3938,0.8114901569566184
3939,0.7054152137016384
3940,0.5460304666264879
3941,0.330372784858756
3942,0.0735710014912366
3943,-0.1863521683398683
3944,-0.39764441636044784
3945,-0.5168505301667852
3946,-0.531284120427788
3947,-0.46627196296898554
3948,-0.37085435272812944
3949,-0.29111316225286377
3950,-0.24921832931065718
3951,-0.2409425192354324
3952,-0.24938180155791367
3953,-0.2609400852417757
3954,-0.2709318542569856
3955,-0.2780024222465268
3956,-0.2771297003305337
3957,-0.2604939565962347
3958,-0.22550798825695864
3959,-0.18062143106609652
3960,-0.14121162469685453
3961,-0.11812670672081017
3962,-0.10953393629469316
3963,-0.10405999840331545
3964,-0.09222397941704415
3965,-0.07495975165998524
3966,-0.061046066687130605
3967,-0.05656277547216952
3968,-0.05758331277243833
3969,-0.05387630305715148
3970,-0.039881949705418654
3971,-0.02147278628664941
3972,-0.01110218623509161
3973,-0.015839944083890722
3974,-0.030307888854374937
3975,-0.04180646152174888
3976,-0.04261730875556205
3977,-0.0371040363360268
3978,-0.03642963800004752
3979,-0.04628237705709596
3980,-0.060171668357424414
3981,-0.06527088874824138
3982,-0.055070852502240794
3983,-0.0361673754599839
3984,-0.02237346818679925
3985,-0.022041720878052257
3986,-0.031139798593679876
3987,-0.03860087410438677
3988,-0.03803733055780403
3989,-0.033734018362002044
3990,-0.03506125187548024
3991,-0.04550685913365748
3992,-0.058011104926223564
3993,-0.06165291958025202
3994,-0.052889387075861535
3995,-0.03969286644210038
3996,-0.03407314153151718
3997,-0.04034457811359382
3998,-0.05099346052367233
3999,-0.054465360162800514
4000,-0.047152933890016804
4001,-0.037444931972320766
4002,-0.037443910948750755
4003,-0.05027920994209782
4004,-0.06563063134582804
4005,-0.06838537862388194
4006,-0.05265594635499743
4007,-0.027977888748905423
4008,-0.011650730471386365
4009,-0.014096839032618057
4010,-0.030555803234686027
4011,-0.04640576714117717
4012,-0.050731596571631205
4013,-0.04538205862659754
4014,-0.04143142266153059
4015,-0.047034953997642
4016,-0.05867712330165599
4017,-0.06431422523635891
4018,-0.05537413734238371
4019,-0.03598041002503723
4020,-0.020264397447469454
4021,-0.01990076669702234
4022,-0.03343278230953951
4023,-0.04755438043827827
4024,-0.04940937573018536
4025,-0.03848891963823832
4026,-0.026832692314921726
4027,-0.027132420566751764
4028,-0.039925036356160494
4029,-0.052292982514146914
4030,-0.049837273206048034
4031,-0.030943455021536392
4032,-0.009674145333266923
4033,-0.003941795735550177
4034,-0.019511923896760305
4035,-0.04467411178670294
4036,-0.06071590290453883
4037,-0.05856518358954617
4038,-0.04613156973130405
4039,-0.0396800561769221
4040,-0.04771765437458356
4041,-0.0628770481902591
4042,-0.06940402714180074
4043,-0.058741929977882384
4044,-0.03801679737819766
4045,-0.023349657834814394
4046,-0.02475779592210092
4047,-0.037379783297147785
4048,-0.04720061786608602
4049,-0.04508851972850057
4050,-0.03508138468583205
4051,-0.02907936523295388
4052,-0.03387945545883992
4053,-0.0439296059219667
4054,-0.04703308293998756
4055,-0.037005523624840025
4056,-0.020410908648695443
4057,-0.01069159511218181
4058,-0.015691863672039168
4059,-0.030877412961733436
4060,-0.04442922397304049
4061,-0.0484762314326255
4062,-0.0451824034276503
4063,-0.04240771869832136
4064,-0.04449227817679536
4065,-0.04810842386715486
4066,-0.047008773274328466
4067,-0.03982575359923004
4068,-0.03215741961939675
4069,-0.030777849513596967
4070,-0.03653242419047774
4071,-0.04385389478081444
4072,-0.04746257531391479
4073,-0.048744046371825535
4074,-0.054375258735081214
4075,-0.06812737130672843
4076,-0.08457647536721824
4077,-0.0921800884180712
4078,-0.08371144415477064
4079,-0.06400907512928547
4080,-0.04691491724015003
4081,-0.04363889871766283
4082,-0.05336166422216828
4083,-0.06496646381827603
4084,-0.0680782393591434
4085,-0.06260878116534874
4086,-0.05764071688938402
4087,-0.06109193044806558
4088,-0.07068319226820813
4089,-0.07535087031325804
4090,-0.06586607872936015
4091,-0.044336049312419704
4092,-0.023353420990378862
4093,-0.015592004470812033
4094,-0.02368130183483354
4095,-0.03951226379758847
4096,-0.052740214446054964
4097,-0.059622127202476796
4098,-0.06382020302926722
4099,-0.06947982538672035
4100,-0.0747362768755663
4101,-0.07294362828249548
4102,-0.06047643698266686
4103,-0.04273354114715837
4104,-0.03144574090430458
4105,-0.03512379929282422
4106,-0.05163356974944472
4107,-0.07014488579515393
4108,-0.08069444943824511
4109,-0.08226511981262326
4110,-0.08189315948652812
4111,-0.086211465328184
4112,-0.09412873946595274
4113,-0.09785115233756628
4114,-0.09086013201904705
4115,-0.07452538939325795
4116,-0.05668172714517287
4117,-0.04387525016225324
4118,-0.03543124670628376
4119,-0.025431938478000352
4120,-0.010320130252076036
4121,0.006136729401028507
4122,0.01612027553507987
4123,0.016208551212554736
4124,0.01219251333411243
4125,0.014705917943196395
4126,0.02928440278864485
4127,0.05034835685042318
4128,0.06514387485973255
4129,0.0641744876241279
4130,0.04850505867440019
4131,0.027567823750457764
4132,0.010382652963952532
4133,-0.0009024934470630076
4134,-0.00937179314750839
4135,-0.016572619782927768
4136,-0.018818077484058077
4137,-0.01110817460418739
4138,0.00540755813312506
4139,0.020956406176645008
4140,0.023562097169338596
4141,0.00906605538289754
4142,-0.014860630183406052
4143,-0.03503266274373563
4144,-0.04378759100322188
4145,-0.044443502819001494
4146,-0.046247398787758257
4147,-0.054140321376371064
4148,-0.06365988905463722
4149,-0.06603077699090745
4150,-0.058175815162984125
4151,-0.047320849531462955
4152,-0.04519163014830782
4153,-0.057269626369294765
4154,-0.0777265581055609
4155,-0.09522709818208468
4156,-0.1040431795247962
4157,-0.10953956720731398
4158,-0.12256086893036791
4159,-0.14830898886432878
4160,-0.18099305708941624
4161,-0.21003171414582494
4162,-0.23208674173763977
4163,-0.25697374447296817
4164,-0.30082859058593736
4165,-0.37184836088282724
4166,-0.46101434761611865
4167,-0.5456777980941891
4168,-0.6022769684409308
4169,-0.6170239185679085
4170,-0.5869517868014709
4171,-0.5139561912098916
4172,-0.4006256165463337
4173,-0.2526659728946699
4174,-0.08348278278990046
4175,0.08738511212560458
4176,0.24389765887162956
4177,0.38302490710204584
4178,0.5136068069399302
4179,0.6434702870388659
4180,0.7662252356549187
4181,0.8614321189779917
4182,0.909874835017635
4183,0.9102008265434995
4184,0.8799263489553231
4185,0.8375825790733451
4186,0.7814950937704086
4187,0.6861143466633102
4188,0.5223989833089839
4189,0.2868770999369213
4190,0.014873378155014418
4191,-0.2341522640664528
4192,-0.40824195338638297
4193,-0.48772135991971427
4194,-0.48709816088505625
4195,-0.43794454934437027
4196,-0.369925071173313
4197,-0.30327784479081044
4198,-0.2517062177116357
4199,-0.22534717853395642
4200,-0.22748150246813453
4201,-0.2494245360806603
4202,-0.27253947542931245
4203,-0.2793497040160481
4204,-0.2651657910308812
4205,-0.2394813414260319
4206,-0.21562249597555994
4207,-0.1984639303615048
4208,-0.18172289365008001
4209,-0.15660265186374342
4210,-0.12235085396612617
4211,-0.0879565296489586
4212,-0.06375735747918349
4213,-0.0520673191928822
4214,-0.0464789360309108
4215,-0.04003627519685438
4216,-0.03312171872872562
4217,-0.03240444326779068
4218,-0.04190686141953694
4219,-0.055923476789852475
4220,-0.06203386141019528
4221,-0.05215265870328932
4222,-0.030931718782453075
4223,-0.012786881465204236
4224,-0.009678654696426345
4225,-0.020882133656233027
4226,-0.034312932664727444
4227,-0.038057222027449496
4228,-0.031141673126411577
4229,-0.023514205286398818
4230,-0.025668632029697963
4231,-0.03817212446744535
4232,-0.051154858832007905
4233,-0.053993457617559394
4234,-0.04559284561617975
4235,-0.03529323350349456
4236,-0.03370021285121448
4237,-0.04254799729700068
4238,-0.05353551690767945
4239,-0.05717249643100961
4240,-0.052741348192958844
4241,-0.04924612701407741
4242,-0.056009827108807635
4243,-0.07196866719169447
4244,-0.08454352960918789
4245,-0.08016136504444935
4246,-0.05721310326630793
4247,-0.029260248860575426
4248,-0.01479642006224252
4249,-0.022174342691661863
4250,-0.042985615795010895
4251,-0.059732296294105834
4252,-0.060811041904062446
4253,-0.04942794678204124
4254,-0.038907613507723565
4255,-0.03940859680950698
4256,-0.04863189379617776
4257,-0.0548471531164051
4258,-0.04876482934917018
4259,-0.032683779155949
4260,-0.018406278286872423
4261,-0.016365105794995984
4262,-0.02659687714580261
4263,-0.03991504563215957
4264,-0.04744235046162368
4265,-0.04867946128340171
4266,-0.05022654595512399
4267,-0.05696379002980317
4268,-0.06516540953218708
4269,-0.06502673252951409
4270,-0.05046466564877869
4271,-0.026461633667214955
4272,-0.0063114133609576874
4273,-0.0009141644573882123
4274,-0.010088436262360029
4275,-0.02396182351539517
4276,-0.03273391904394097
4277,-0.035129424260686534
4278,-0.03752064419869565
4279,-0.04523767809215852
4280,-0.05541282849194076
4281,-0.05899405069833229
4282,-0.05007560549557018
4283,-0.0330193864420794
4284,-0.01977960455229816
4285,-0.019553034444682024
4286,-0.030664598036416274
4287,-0.0426022137149281
4288,-0.04621132926245618
4289,-0.04205426591861455
4290,-0.03881733818981149
4291,-0.043577475964854714
4292,-0.053854970949922296
4293,-0.05958286339956729
4294,-0.05317679336971161
4295,-0.0376872190294432
4296,-0.024758326134929773
4297,-0.02412894618152349
4298,-0.03478106759474006
4299,-0.04626813551199125
4300,-0.04879351561322266
4301,-0.042129772513161155
4302,-0.034829023879361265
4303,-0.03492102465146475
4304,-0.041656481466628814
4305,-0.046534999937521825
4306,-0.04232093331025945
4307,-0.030692858769169547
4308,-0.020718437509030102
4309,-0.01983612573565048
4310,-0.026721173915768188
4311,-0.03340207145846957
4312,-0.03431117857644449
4313,-0.03258110979140173
4314,-0.03658544771585938
4315,-0.04993059740362542
4316,-0.06539369077065918
4317,-0.06991258532727473
4318,-0.0566915786666424
4319,-0.03282395256514242
4320,-0.014532566775600858
4321,-0.01389522796882112
4322,-0.029235872549116394
4323,-0.047935054063740816
4324,-0.05854088876953887
4325,-0.06040238240889421
4326,-0.06199985906148048
4327,-0.07052201980587881
4328,-0.08360635544501535
4329,-0.09140050926794409
4330,-0.0864196293370662
4331,-0.07103613214521129
4332,-0.05531580787516817
4333,-0.04788673809250368
4334,-0.04919291308738366
4335,-0.05331864005513437
4336,-0.05540956242613565
4337,-0.05633689354091847
4338,-0.05998494947537487
4339,-0.0669216101384002
4340,-0.07207054062648867
4341,-0.06935522205066241
4342,-0.058401848504850015
4343,-0.045921614126239844
4344,-0.03999958909933785
4345,-0.043083624986313476
4346,-0.05080890562825833
4347,-0.05750356882013001
4348,-0.06213323796753922
4349,-0.06820851643194037
4350,-0.07799411761571594
4351,-0.08778198874886231
4352,-0.09000073666287783
4353,-0.08052272228152674
4354,-0.06365781285722022
4355,-0.04936408548412416
4356,-0.04509770262975854
4357,-0.050166703438752236
4358,-0.05776569778136616
4359,-0.06199240046451563
4360,-0.06241619414214392
4361,-0.06198342037094566
4362,-0.06145940140530846
4363,-0.057139584068835333
4364,-0.04455527514703974
4365,-0.02396556120258993
4366,-0.0012880060728021124
4367,0.01686779265969596
4368,0.02880086475626134
4369,0.03786215339555751
4370,0.04702890553139731
4371,0.054075954445812466
4372,0.05308077530252721
4373,0.04109438226998795
4374,0.022844360750656365
4375,0.00796049730218578
4376,0.0030056156041872546
4377,0.006317003399551686
4378,0.010994264231489708
4379,0.012836912091714728
4380,0.014622027651258846
4381,0.021819893561100062
4382,0.03411072355250591
4383,0.042172969770151114
4384,0.03439036360909542
4385,0.0078675477403706
4386,-0.027060734075013634
4387,-0.054029129249336644
4388,-0.06348173942991625
4389,-0.0593433233159527
4390,-0.053465959248771386
4391,-0.0535745857450249
4392,-0.056617739053167714
4393,-0.05383301883032725
4394,-0.04200464963651691
4395,-0.029131060625884348
4396,-0.028314287184403975
4397,-0.045564910965035094
4398,-0.07350935217435703
4399,-0.0973729267363264
4400,-0.10766013938203557
4401,-0.10753379299788379
4402,-0.10831821548580348
4403,-0.11828992130853655
4404,-0.13621963635000173
4405,-0.1558205462636283
4406,-0.17588889466643992
4407,-0.20505052145419173
4408,-0.2555207957270882
4409,-0.3314532271989985
4410,-0.42293846759013204
4411,-0.5110878739632402
4412,-0.5788316148999118
4413,-0.6171596882798913
4414,-0.6223013034373052
4415,-0.5893753796899139
4416,-0.5115691010804009
4417,-0.387128648679713
4418,-0.2266864644725356
4419,-0.05149961706788033
4420,0.11818612602443102
4421,0.27478912652276444
4422,0.4238941913931388
4423,0.5726460014116409
4424,0.7170314311279447
4425,0.8405793648298976
4426,0.9259966972398641
4427,0.9682597853007101
4428,0.9756952219274893
4429,0.9570778163574162
4430,0.9069174578471213
4431,0.804154283289935
4432,0.6280972240068241
4433,0.37991791886249027
4434,0.09241291977119959
4435,-0.18022480390189557
4436,-0.3856753183490137
4437,-0.49449722392455575
4438,-0.5076891322190438
4439,-0.45053980937863214
4440,-0.36009331459376354
4441,-0.27315718457794813
4442,-0.21714407188429924
4443,-0.2035962765396463
4444,-0.22574358879027545
4445,-0.2628577589517286
4446,-0.2913901277771688
4447,-0.29730668790673426
4448,-0.28156395645661586
4449,-0.25513866877638747
4450,-0.2283308810808598
4451,-0.20359055034808238
4452,-0.17731760280493003
4453,-0.14739069219940587
4454,-0.11796501473703613
4455,-0.09640690110011746
4456,-0.08568943662937134
4457,-0.08055030815323226
4458,-0.07203378711283123
4459,-0.05630688232422956
4460,-0.03878615982464972
4461,-0.028895317738345045
4462,-0.030235380226881617
4463,-0.036077249404224895
4464,-0.03531400915734576
4465,-0.023617988487385524
4466,-0.008808600568087008
4467,-0.004470825129990032
4468,-0.01722746846568585
4469,-0.039704541385297186
4470,-0.05628070770195506
4471,-0.05658617672365063
4472,-0.04412746994628067
4473,-0.03196470933587783
4474,-0.029845770889280768
4475,-0.035441277647105834
4476,-0.03814054033889291
4477,-0.03128852964471172
4478,-0.0202324226440233
4479,-0.01768084726031543
4480,-0.03069640714936909
4481,-0.05237814475803061
4482,-0.06704623850991515
4483,-0.0644697928375263
4484,-0.04946937907458354
4485,-0.03736656979870203
4486,-0.03940853654878465
4487,-0.05213998708869113
4488,-0.06100244474538048
4489,-0.05471372437007427
4490,-0.03656239742423423
4491,-0.0217577798272194
4492,-0.023420062997231168
4493,-0.0405955670382217
4494,-0.05948399050414575
4495,-0.06624460865433614
4496,-0.058882356065499034
4497,-0.047185758359536235
4498,-0.0416835335830729
4499,-0.04314990614153738
4500,-0.04308734392653449
4501,-0.034251529668500175
4502,-0.020082284930035697
4503,-0.012960470473604595
4504,-0.022434580457624413
4505,-0.04484738796813317
4506,-0.06494195799899835
4507,-0.06868378794480853
4508,-0.055588561452844035
4509,-0.03891290976875082
4510,-0.033278223307118604
4511,-0.04113173776334851
4512,-0.05069861132197763
4513,-0.04746730388336405
4514,-0.028631061789407327
4515,-0.007022460563458673
4516,-0.0006141691672458065
4517,-0.016819941566904924
4518,-0.045567086780215815
4519,-0.0672201715808878
4520,-0.06826151304502247
4521,-0.0511219383453938
4522,-0.03028797712150103
4523,-0.01915899423466308
4524,-0.01976503345276348
4525,-0.023847107094853888
4526,-0.0229075629710221
4527,-0.016986596273912434
4528,-0.014050196076414728
4529,-0.0213431782797623
4530,-0.037594421429414306
4531,-0.053624458443454426
4532,-0.06046407967504151
4533,-0.05694084158627541
4534,-0.04959744431036231
4535,-0.045537019365750164
4536,-0.045599111304236856
4537,-0.04457702680644314
4538,-0.03791094335290669
4539,-0.02775885558956835
4540,-0.022001867276054923
4541,-0.026855127013316375
4542,-0.040249602292817085
4543,-0.05260417448838754
4544,-0.054552678222592854
4545,-0.04453468545788351
4546,-0.029366420789660404
4547,-0.017690411562120884
4548,-0.012868139321163857
4549,-0.011963194671293382
4550,-0.011067701143205082
4551,-0.010834558524221456
4552,-0.01608903013115253
4553,-0.02974893019732687
4554,-0.047528753051271785
4555,-0.059601196931058795
4556,-0.058587676017221355
4557,-0.04657470055463679
4558,-0.03408030101835381
4559,-0.03120444005502313
4560,-0.03877547745838517
4561,-0.047776257059305244
4562,-0.04791357758940272
4563,-0.03764404946405342
4564,-0.026333585505681524
4565,-0.026237634626102013
4566,-0.041315013784266136
4567,-0.06295674703562995
4568,-0.07663984838696752
4569,-0.07379321781716262
4570,-0.05858614468003892
4571,-0.04396840695768246
4572,-0.040795162285789374
4573,-0.04965766091403635
4574,-0.062102045915298415
4575,-0.0692476676537678
4576,-0.06944564136234693
4577,-0.06816990151947563
4578,-0.07099755360619073
4579,-0.07698845288588732
4580,-0.07907443168867817
4581,-0.07109028388483121
4582,-0.05454724868030958
4583,-0.038367885894261176
4584,-0.03146710367609494
4585,-0.03498180177334512
4586,-0.0415279319576842
4587,-0.042407464574181604
4588,-0.036145163643379705
4589,-0.03022661210698453
4590,-0.03405891724585197
4591,-0.04943931623091365
4592,-0.06748703393383283
4593,-0.07536139793560623
4594,-0.06713574905477962
4595,-0.04915496726602738
4596,-0.034957238165991805
4597,-0.0341826998521227
4598,-0.04527805341329974
4599,-0.05824035878055941
4600,-0.06440841833843584
4601,-0.06398194284210504
4602,-0.06440491446078853
4603,-0.07161150947622902
4604,-0.08297084633296921
4605,-0.0890670428512948
4606,-0.08282156087767106
4607,-0.0671593560829766
4608,-0.05349865235770203
4609,-0.051920051920524776
4610,-0.06188500924432712
4611,-0.07219563714314187
4612,-0.07054809021545869
4613,-0.054222957113144024
4614,-0.032330109369666044
4615,-0.017621421671325594
4616,-0.015231525561219005
4617,-0.018344039969983045
4618,-0.01448130276673322
4619,0.003279480943418081
4620,0.029965939234884314
4621,0.05249193850724803
4622,0.05996367574986948
4623,0.051637870011205296
4624,0.0362360018559625
4625,0.02400581466971418
4626,0.018811416578168767
4627,0.01678454092928066
4628,0.01186033377200053
4629,0.0025750487148922547
4630,-0.006124465644140377
4631,-0.007463046633388843
4632,0.0005723545004077333
4633,0.012673942092579387
4634,0.019994668278949652
4635,0.016924960344073717
4636,0.00497006556170523
4637,-0.009432013908983286
4638,-0.020833596951710186
4639,-0.02887770502554974
4640,-0.03694280172439941
4641,-0.04700791925388886
4642,-0.056115002948886494
4643,-0.058315353989694535
4644,-0.05057976490548868
4645,-0.0369581104839217
4646,-0.026510641601958047
4647,-0.026319181998692383
4648,-0.03580621767281456
4649,-0.04773371347834281
4650,-0.05511054125996263
4651,-0.057544517285911145
4652,-0.06095038684162486
4653,-0.07089943537874552
4654,-0.08625180982290373
4655,-0.09973679211286407
4656,-0.10548847067526308
4657,-0.10647161966418525
4658,-0.11425680570154934
4659,-0.14056620606085538
4660,-0.18796478498722335
4661,-0.24827733505867183
4662,-0.3102788120741431
4663,-0.3693798467637334
