,0
0,-0.009026138720786277
1,-0.008188846493900444
2,-0.008737075452617434
3,-0.010969735891088885
4,-0.013644246878038469
5,-0.014577135863946666
6,-0.012162822158260096
7,-0.006903543127068727
8,-0.0016861350532950245
9,-0.00018896222924608575
10,-0.004243563820311375
11,-0.0120807748166341
12,-0.019030155316531704
13,-0.020444550295651
14,-0.014778655231007796
15,-0.004485930978692994
16,0.005925384511660596
17,0.013060543656565038
18,0.016474100032685512
19,0.017836174601769353
20,0.01842633386324702
21,0.017377946466997668
22,0.012371334659074107
23,0.0022291688133590747
24,-0.010935188620715762
25,-0.022127052412521685
26,-0.026425729045311624
27,-0.022273629048417717
28,-0.012512957571761737
29,-0.002387526053722465
30,0.003833401049443886
31,0.004970349703595374
32,0.0024290654035472835
33,-0.0019526036351926945
34,-0.007470364442011592
35,-0.014182669902744048
36,-0.021347334119817984
37,-0.0266480758054604
38,-0.02738028944015032
39,-0.022715733983017853
40,-0.014910006700850756
41,-0.008120918335346786
42,-0.005639350485888172
43,-0.007783079577243589
44,-0.0121201223649459
45,-0.015653312406605648
46,-0.017009649260198628
47,-0.01691237488168627
48,-0.01689156546702794
49,-0.0176690217864134
50,-0.01866039508820511
51,-0.01878813292688302
52,-0.017611313490439623
53,-0.0157047275716067
54,-0.01411928836792048
55,-0.013607804031967981
56,-0.01431920336045037
57,-0.016009227178468387
58,-0.01828418003619918
59,-0.02052701851470589
60,-0.021713732184012336
61,-0.02062154540197967
62,-0.016579650356979742
63,-0.010255448161968835
64,-0.003706183030888163
65,0.0005899196358579895
66,0.0011515955057462503
67,-0.0016711167098643611
68,-0.00608794642869216
69,-0.01017649106701939
70,-0.013085100721447137
71,-0.01523185063037806
72,-0.01744946045404188
73,-0.0198797847407296
74,-0.021577263199837556
75,-0.02114714522286908
76,-0.017881977162096087
77,-0.012477299874587396
78,-0.006775450310467074
79,-0.0027532294959671617
80,-0.0015049667385108867
81,-0.002894205091070393
82,-0.005981721854872099
83,-0.00976497987601255
84,-0.013617074233633793
85,-0.01715896911944245
86,-0.019830664381821975
87,-0.020710463828200583
88,-0.01892989949802238
89,-0.014488219660136251
90,-0.00881772931228658
91,-0.00449150509063885
92,-0.0040361508942027505
93,-0.008512124163075105
94,-0.016795957914573917
95,-0.026085450466253046
96,-0.033334586654842555
97,-0.03672087995170151
98,-0.03629563679768634
99,-0.0335838096755577
100,-0.030576287319686545
101,-0.02881155722001911
102,-0.02898824140151065
103,-0.031092319591244942
104,-0.03472864331264974
105,-0.03935394419545149
106,-0.04430008448983602
107,-0.048668030548196926
108,-0.05126898284240872
109,-0.05078660600090909
110,-0.046231004226829915
111,-0.03755531456573234
112,-0.026086893289390622
113,-0.014359173381330036
114,-0.005166397832316413
115,-0.00015108203125694438
116,0.0013215502685467548
117,0.002206930385338716
118,0.006457177195688514
119,0.016873848172602242
120,0.033315190757390686
121,0.052396148823402114
122,0.06901383088313257
123,0.07889701583043503
124,0.08065880570998783
125,0.07608681600037166
126,0.06855884767611692
127,0.06075511169525695
128,0.05329598092479258
129,0.04517360133787916
130,0.03541711283217048
131,0.02447200699955421
132,0.014089067044727724
133,0.00586113304131073
134,-0.00023145599668888647
135,-0.005886525715838726
136,-0.013007904505166621
137,-0.02195164453652081
138,-0.031052558129598888
139,-0.03789208363941777
140,-0.04122655491839224
141,-0.041903467614757384
142,-0.04199151088297231
143,-0.042926561592681156
144,-0.044304545152418856
145,-0.044314597609164966
146,-0.04133753004863894
147,-0.03529129267971139
148,-0.02767927944212558
149,-0.02052535685098894
150,-0.015269547218996673
151,-0.012508823791109945
152,-0.012537385191955673
153,-0.015922903488779318
154,-0.02344168214442277
155,-0.03535516182832146
156,-0.05059908609199357
157,-0.06658527401141048
158,-0.08002460946433354
159,-0.08863044100478296
160,-0.09288019473986413
161,-0.09652950188296411
162,-0.10493438294594071
163,-0.12177304602721997
164,-0.14658855194818982
165,-0.17578878360049854
166,-0.20719773790930612
167,-0.24443683191051266
168,-0.29596229769116456
169,-0.3669957261784598
170,-0.44899828442865475
171,-0.5151623804250545
172,-0.5272494203024181
173,-0.45070149407904997
174,-0.26852150904180383
175,0.013861485939597885
176,0.37204086144963056
177,0.7669021395946736
178,1.144510292244982
179,1.4359514169167242
180,1.5678398377298601
181,1.4884141598441538
182,1.1987366068043166
183,0.767110764271224
184,0.31018561032146075
185,-0.054642807436868945
186,-0.25964380082208005
187,-0.3102166838234528
188,-0.2691829424647805
189,-0.21527419014103183
190,-0.20346470696891905
191,-0.24854715294659943
192,-0.3340757742517225
193,-0.4327359628711507
194,-0.5220590023722681
195,-0.5889069220052559
196,-0.6266630239256108
197,-0.6322247430585988
198,-0.6059186660570095
199,-0.5524746541354352
200,-0.4801574065862963
201,-0.39774348364282747
202,-0.311565109988076
203,-0.22476241801025323
204,-0.13886172215779363
205,-0.0560897254237256
206,0.019316680941977953
207,0.0816142227222228
208,0.12562447733546198
209,0.1493142875244689
210,0.15531953147544336
211,0.1500682635896922
212,0.140545393106164
213,0.13068043580972233
214,0.12011245829292286
215,0.10647308673299075
216,0.08930712896669911
217,0.07205818358975291
218,0.060083549241093125
219,0.0562966755096721
220,0.0583862695867019
221,0.06025860777597631
222,0.056519141770299625
223,0.04609080899843798
224,0.03203771431765908
225,0.01828094046350115
226,0.006585529679139293
227,-0.0035414046047576525
228,-0.012582883796669293
229,-0.019224770932539357
230,-0.021117659495301862
231,-0.017401116794458764
232,-0.010298777659372937
233,-0.004016204802109878
234,-0.0018588954673964472
235,-0.0041781993584432235
236,-0.008851256026171532
237,-0.013548712725928011
238,-0.017507367064025496
239,-0.02128759091680678
240,-0.025120951858092627
241,-0.027789708895614947
242,-0.02731593517486261
243,-0.022860338563206115
244,-0.015999828493671587
245,-0.010083882930091072
246,-0.008085329728845691
247,-0.010666738343860803
248,-0.01596609282087716
249,-0.021147741557882918
250,-0.024370383278435735
251,-0.02562991183346111
252,-0.025997240033616857
253,-0.026121926074852878
254,-0.025389980484470474
255,-0.02245114891232647
256,-0.016603587540990027
257,-0.00879998057517942
258,-0.0013968582018205858
259,0.003151716771142915
260,0.003613086899853971
261,0.0003645318876420874
262,-0.005211447936991413
263,-0.011580817525821137
264,-0.017414751663654575
265,-0.021429413864811116
266,-0.02234058255913437
267,-0.019432255146142392
268,-0.01343089779711144
269,-0.006753363555959909
270,-0.002506492632420563
271,-0.002698331542055861
272,-0.0069787899441961215
273,-0.012960927895437697
274,-0.017909937378009156
275,-0.020431277766235177
276,-0.02082266571821475
277,-0.01998206313262712
278,-0.018061854941175636
279,-0.014216504880622816
280,-0.007669779943970318
281,0.0009911885841336556
282,0.0096363315169154
283,0.015814003513498053
284,0.01833153191524571
285,0.017832826143084048
286,0.0159804040447403
287,0.014135279568600709
288,0.012776399180648278
289,0.012027289285277052
290,0.012488381658565403
291,0.015294645799978312
292,0.021177630192657036
293,0.02940537347133262
294,0.037696393431692024
295,0.04335397382236582
296,0.044799581741229444
297,0.04239861661736655
298,0.038134243879216316
299,0.03456487857335726
300,0.03380762127497669
301,0.03694560360440337
302,0.043824098882617596
303,0.05313480863653573
304,0.06285327438716826
305,0.07104103007344076
306,0.07665621874453854
307,0.07978317810422972
308,0.08104110601425196
309,0.08067395352017091
310,0.07820655734587513
311,0.07306810615136031
312,0.06560714406662005
313,0.0574270317200378
314,0.05053217943885347
315,0.0459141878382505
316,0.0428137256837441
317,0.0393383894125207
318,0.033907011574418514
319,0.026278457646679403
320,0.017365588718951393
321,0.008172453060379021
322,-0.0010631134381498054
323,-0.010736706076974637
324,-0.020950131749289246
325,-0.03071170163495518
326,-0.03805566318546469
327,-0.04109322885006905
328,-0.03928136565026934
329,-0.03404921131292364
330,-0.0283532146513866
331,-0.025374879524712644
332,-0.027045550707560904
333,-0.03317594636877269
334,-0.04164844342348771
335,-0.04953153227317193
336,-0.054425760013557395
337,-0.055245318332153806
338,-0.05211819825712538
339,-0.04579933834457247
340,-0.03730191919298944
341,-0.02804597636600721
342,-0.020086905990617195
343,-0.015711844317045608
344,-0.016270668700848475
345,-0.021039620438763944
346,-0.027219785701365212
347,-0.03138422432954252
348,-0.03142907395416157
349,-0.027544880522490316
350,-0.021503166178577476
351,-0.014999995035321111
352,-0.00857776356929782
353,-0.002018516819154513
354,0.0043453820467476345
355,0.00885688750699388
356,0.009255800378231052
357,0.004438028760441999
358,-0.004228235219100818
359,-0.013220112666740717
360,-0.01869073646554127
361,-0.01852176870316556
362,-0.013227351143587371
363,-0.005291680606110143
364,0.0023662726088334372
365,0.007695724358723408
366,0.009920698223476961
367,0.009162878781805432
368,0.005871271805328225
369,0.0005758140439412252
370,-0.005945160638819096
371,-0.012395163531444549
372,-0.01700387679583206
373,-0.018068882162431528
374,-0.014772963840662616
375,-0.007760866826861555
376,0.0009788105817897796
377,0.008943868755569837
378,0.014162316354683565
379,0.015785776488444155
380,0.013940940947465778
381,0.009169389960266297
382,0.0020894253980207307
383,-0.006413702103824097
384,-0.014823406299867885
385,-0.02112230241356
386,-0.023666650842130422
387,-0.022247094807117555
388,-0.018394249486678903
389,-0.014501222712685665
390,-0.012350393865295031
391,-0.012200235109414747
392,-0.013121771264261686
393,-0.014167422487321838
394,-0.015239835116649938
395,-0.01688515714086258
396,-0.019311162592179434
397,-0.021679815042134877
398,-0.02243374279363161
399,-0.02040354650921907
400,-0.0157156296898979
401,-0.009758743560158233
402,-0.0043654743947746846
403,-0.0009903501546997106
404,-0.0004413504756992615
405,-0.0029948930801498826
406,-0.008348327003819895
407,-0.015256131544806541
408,-0.021375329281190222
409,-0.02396054388448555
410,-0.021327886409547143
411,-0.01410963283492031
412,-0.0052050736837661446
413,0.0017445649270067237
414,0.004336370768325792
415,0.0024417598048554366
416,-0.0023053079543524854
417,-0.007920404798836305
418,-0.013142146312523969
419,-0.017459434378003295
420,-0.02045260608218432
421,-0.021384061087578204
422,-0.01957071402598825
423,-0.015165927799644773
424,-0.00949592414302092
425,-0.004496889055760433
426,-0.0016631383837936555
427,-0.001384814412069567
428,-0.003170688702392048
429,-0.006401009072693788
430,-0.010777311775456329
431,-0.016006819633394048
432,-0.021119315162872705
433,-0.024302340289639856
434,-0.023724944556659286
435,-0.018843751601701618
436,-0.011085128872760197
437,-0.003209586570081045
438,0.00222020420420848
439,0.004057089464750051
440,0.0025720727561053276
441,-0.0015104312196105778
442,-0.007815039862248704
443,-0.016098708442616613
444,-0.025339874853129038
445,-0.03334489385319067
446,-0.03769212616687621
447,-0.0374516064982444
448,-0.03411786618071802
449,-0.03069002386774831
450,-0.02949534115681922
451,-0.030605934563700497
452,-0.032245185214902716
453,-0.03274994479893159
454,-0.03218328263243196
455,-0.032045982881067886
456,-0.033416729577164156
457,-0.03542286082662048
458,-0.03563327651573676
459,-0.03205414980391144
460,-0.024794787193275505
461,-0.01577506138210935
462,-0.006773890388438713
463,0.002251387844663794
464,0.012928577829183148
465,0.026556638767960307
466,0.042349368943197116
467,0.05743950851723832
468,0.06852964696039177
469,0.07365327101292421
470,0.07271640005510296
471,0.06689223091551211
472,0.05793202514722433
473,0.0480492236490478
474,0.03989737775013837
475,0.03577489267181467
476,0.03611874428306666
477,0.03856441582354701
478,0.0388486927775686
479,0.03335530593166582
480,0.02151766325190596
481,0.006208964640999755
482,-0.008160874090463083
483,-0.01831858183632778
484,-0.02363736243846883
485,-0.025724151068814958
486,-0.026843342554294707
487,-0.028491897850574342
488,-0.030880753004119712
489,-0.033250064686496536
490,-0.03458320249020886
491,-0.034337136353981515
492,-0.03286252214377736
493,-0.03120814409322671
494,-0.030322051161136097
495,-0.03026220397258168
496,-0.03025501441294278
497,-0.029742641078719368
498,-0.029429210060364863
499,-0.031060244437836133
500,-0.03585865135929624
501,-0.043116722744668115
502,-0.050572413154982315
503,-0.0564256181929513
504,-0.060959702493614126
505,-0.06597444640443162
506,-0.07263158625800589
507,-0.08025929274277349
508,-0.08770413204894849
509,-0.09572662608530963
510,-0.10728413061834867
511,-0.12473238762384739
512,-0.14699019380261635
513,-0.17076289393631539
514,-0.19584752834032204
515,-0.22904120442680148
516,-0.2805772018901015
517,-0.3532971297532781
518,-0.4324409070859738
519,-0.48504413657433776
520,-0.47059538386327343
521,-0.3557783669733751
522,-0.124700913395622
523,0.21697380606927985
524,0.63874703179065
525,1.0799994148726513
526,1.4499277914608375
527,1.6454401350677328
528,1.590232717894125
529,1.2781138505959264
530,0.790906366256446
531,0.27136376462607525
532,-0.13921649020832727
533,-0.36286074684145353
534,-0.4094600840787841
535,-0.3531098071286659
536,-0.28154914571514433
537,-0.2534225887651486
538,-0.28495186598705735
539,-0.3624226393631661
540,-0.4615074780908822
541,-0.5583526202130317
542,-0.631646608061965
543,-0.6637668708954253
544,-0.6457910650372207
545,-0.5825280575358645
546,-0.490827293914188
547,-0.3903744136716606
548,-0.29387746652498004
549,-0.20436105787349212
550,-0.12042159013183146
551,-0.0430698941254698
552,0.0226056642027513
553,0.0715869907034859
554,0.1036461603349772
555,0.12355236997885255
556,0.13689324021461202
557,0.14600243708176658
558,0.1497408760855019
559,0.14651584916894883
560,0.13689554687923677
561,0.12335566236167167
562,0.10818324410124039
563,0.09231993227721888
564,0.0763179959906653
565,0.061833020071037546
566,0.05143210864492707
567,0.04656583196678979
568,0.045844838564313914
569,0.0456420640700445
570,0.0426479535256514
571,0.035976628418903346
572,0.026936738875367718
573,0.01702796087671616
574,0.006463393222889235
575,-0.005242672436066404
576,-0.01743901199733282
577,-0.027484641386104125
578,-0.032118680703038846
579,-0.02997857588330443
580,-0.022950429915484023
581,-0.015085665201402601
582,-0.010039216541942855
583,-0.009183827611285549
584,-0.011697240237515921
585,-0.016035034535485562
586,-0.021169330822980524
587,-0.02661027685833512
588,-0.03163802212228824
589,-0.03486545210209969
590,-0.03469543782004238
591,-0.030224998717814533
592,-0.021785156894077506
593,-0.010815037597426292
594,0.000579631485211724
595,0.009979821166694134
596,0.014977309917584553
597,0.013802008656404342
598,0.0062451657758128935
599,-0.005709071875895769
600,-0.01822852228377881
601,-0.02702700042072028
602,-0.02910578588449355
603,-0.023916479649780796
604,-0.013473474388006465
605,-0.0015637319981785893
606,0.007536110217223096
607,0.01049307267445711
608,0.0061721336856893905
609,-0.0037902665170560955
610,-0.015593412961474077
611,-0.025013474494680544
612,-0.029390622504751142
613,-0.02861884783847296
614,-0.02453713469622635
615,-0.019327475540717676
616,-0.01423276216110592
617,-0.009460276408400064
618,-0.004986196529216468
619,-0.0012396426362289706
620,0.0010245344778779127
621,0.0014042005134128487
622,0.0002720752573417049
623,-0.0014970473585133085
624,-0.0031349309700765176
625,-0.004234082367065012
626,-0.0044182867043813506
627,-0.002910466869663617
628,0.0013381135591819695
629,0.00882896253428678
630,0.018594909069835484
631,0.027991790342471748
632,0.03358930209385955
633,0.032829146221393914
634,0.02559868140835278
635,0.01479464459648756
636,0.005345670116386568
637,0.0019261082745198697
638,0.0064549031532088776
639,0.016898070535266332
640,0.028354851471259327
641,0.03597195383668861
642,0.03782852754858147
643,0.035774688286842174
644,0.033653519563667224
645,0.034348520971110276
646,0.03798671594320198
647,0.04257280056241183
648,0.046233075704963295
649,0.04897043767865439
650,0.05247044838624446
651,0.05836425826741262
652,0.06666093199707011
653,0.07566879146864207
654,0.08318607654222782
655,0.08765038093695299
656,0.08829554816829789
657,0.08462518837252823
658,0.07625176928610973
659,0.06359445816880235
660,0.048738595075693295
661,0.03527828523825164
662,0.02677976181911531
663,0.024830377690081434
664,0.02813931346778248
665,0.03332811538153599
666,0.03670471777545626
667,0.035717940613606766
668,0.0293797861559673
669,0.01797512691703659
670,0.0027873158372372295
671,-0.01391449233077267
672,-0.02904425051424228
673,-0.03947147790710522
674,-0.04321684507773857
675,-0.04034465504586658
676,-0.032974388296776916
677,-0.024488441838453494
678,-0.018460177760891275
679,-0.017690134024426915
680,-0.023384177228338715
681,-0.034520973841469134
682,-0.04782737118257044
683,-0.0588591851003823
684,-0.06401064488135869
685,-0.06231102256396704
686,-0.055678026241439964
687,-0.0473597308994722
688,-0.03978896462111817
689,-0.033559791238978655
690,-0.028151291069315423
691,-0.023381044182800473
692,-0.019997579279023407
693,-0.018877862548731653
694,-0.019846727245453347
695,-0.021527203133397614
696,-0.022454055177018945
697,-0.022233229607037018
698,-0.021428580576076182
699,-0.020276675631124643
700,-0.01775366116326013
701,-0.012328698923393448
702,-0.003980645373085439
703,0.004515023587292516
704,0.008697869410295147
705,0.005506054578893646
706,-0.004048021230758129
707,-0.014926247862252384
708,-0.021036295858695507
709,-0.018987906400939614
710,-0.009930529145923985
711,0.001639343438036714
712,0.010912731851839767
713,0.015333104911376494
714,0.015146012081401143
715,0.012146787175411154
716,0.008051804713765815
717,0.0037476950267779307
718,-0.00044706244062908267
719,-0.004292967311142166
720,-0.007629510033637356
721,-0.01075122207535694
722,-0.014404643045171034
723,-0.018943159606912105
724,-0.023193893521475138
725,-0.024300309083713736
726,-0.019304743000454684
727,-0.00771706710328173
728,0.0069231356834764755
729,0.018149788618421404
730,0.0200867901695621
731,0.01112308773866601
732,-0.004848633192203577
733,-0.020510947273054803
734,-0.02902886275270371
735,-0.027224745385814573
736,-0.016410094163224066
737,-0.0011398186561829265
738,0.012773496718692157
739,0.02003005230688208
740,0.01735915348964317
741,0.004901898095677957
742,-0.01314923902956763
743,-0.029716927791524135
744,-0.03799987400149588
745,-0.035074043435638164
746,-0.02348639318192402
747,-0.009546517760049139
748,0.0005211451652887039
749,0.003782677433054003
750,0.0010891188646827135
751,-0.004839958253945814
752,-0.011620904947150746
753,-0.017880445502048828
754,-0.022473851117544276
755,-0.02379624647111922
756,-0.020389570147308612
757,-0.012415577652394125
758,-0.0024334584184214467
759,0.005560663280631723
760,0.008288790109600474
761,0.004938453724470248
762,-0.0026894301178773264
763,-0.011488274028841488
764,-0.018700886485900528
765,-0.022927608434756167
766,-0.02425950959834415
767,-0.02386148939854426
768,-0.023330657957705465
769,-0.023972472607781188
770,-0.026183821112085025
771,-0.029302281296997315
772,-0.03215014358968067
773,-0.033983627104220385
774,-0.03513132183920345
775,-0.03678659315165716
776,-0.04010635210016225
777,-0.04530128203149915
778,-0.05128498102638978
779,-0.055911497992275544
780,-0.05652540245926931
781,-0.05073550895663077
782,-0.037534023729947
783,-0.018540482251286343
784,0.0015636385646816105
785,0.01647569418637046
786,0.021535271000531056
787,0.017008126385176316
788,0.00884052598570647
789,0.005690975013251953
790,0.01377827542422809
791,0.032993125884200045
792,0.05704111331238249
793,0.07748431634646082
794,0.0887231620507159
795,0.09047596201831407
796,0.0864479363832855
797,0.08077197337647354
798,0.07514396490642296
799,0.06854278529100606
800,0.05916338768857485
801,0.04660637382178925
802,0.03252158668818298
803,0.01937446129311873
804,0.008502630591409509
805,-0.0009051359253413803
806,-0.011036569027938219
807,-0.023401395331809523
808,-0.03705462362393684
809,-0.04861902083774906
810,-0.05439267149112114
811,-0.05316037836267756
812,-0.04751737069719761
813,-0.042422457522289014
814,-0.041844134024420616
815,-0.04603475309761085
816,-0.05159854312571713
817,-0.05424870640574948
818,-0.05193063602951781
819,-0.04585868053465541
820,-0.039065355162645046
821,-0.03424405011183077
822,-0.03283980061269909
823,-0.03554060508889269
824,-0.04272101849031765
825,-0.05387123585365901
826,-0.06694052438729772
827,-0.07927463294832009
828,-0.0900469249013438
829,-0.10159974584984993
830,-0.11725370556305889
831,-0.13673993314272231
832,-0.15403731407689242
833,-0.16150536994678977
834,-0.158365970530872
835,-0.15602785629644517
836,-0.17361389202460306
837,-0.22474881560863652
838,-0.3044979671971819
839,-0.38576676643699614
840,-0.4269636523540997
841,-0.38480356728172393
842,-0.22558072997925452
843,0.06549458779592843
844,0.4730048897435344
845,0.9390703303730937
846,1.3613999480541121
847,1.6158231610725526
848,1.6043162737639096
849,1.307167531690327
850,0.8055776866611635
851,0.2533748362095629
852,-0.19153753606768548
853,-0.43718262630929294
854,-0.48822539602338144
855,-0.4232718083103203
856,-0.3394088211981434
857,-0.301763447302464
858,-0.3251082288517999
859,-0.38799698161660406
860,-0.45958501177016287
861,-0.5182226916979807
862,-0.5546040608343337
863,-0.5660183600966006
864,-0.5515190743542526
865,-0.5117636906715315
866,-0.4505729498297963
867,-0.3743566980882708
868,-0.28940851155881936
869,-0.2001561885401002
870,-0.11034675493429164
871,-0.025590667650361915
872,0.046099854958862714
873,0.09723074055135043
874,0.12511075814299755
875,0.13381679826768428
876,0.13198759688250178
877,0.128019997338088
878,0.12616689871068681
879,0.1259901996754274
880,0.12480623374210632
881,0.12066305503538038
882,0.1135549730030489
883,0.10449907044848672
884,0.09394343080231324
885,0.08125431265211444
886,0.0657404310991343
887,0.048121229304870984
888,0.03092046492149122
889,0.017266475087676467
890,0.00903203312570754
891,0.0058261399799355105
892,0.005571365294873347
893,0.006025167976657337
894,0.0059010475231898885
895,0.004810073782712738
896,0.002459664282955802
897,-0.0017845263671992075
898,-0.008362575559116783
899,-0.01652062147587799
900,-0.023970148697189924
901,-0.027818838304750678
902,-0.02624153020720925
903,-0.019662616890159905
904,-0.010594015719431731
905,-0.00232403638912642
906,0.0025790812557557365
907,0.003086764967741461
908,-0.00031113713028172916
909,-0.006083888992748554
910,-0.012228258286350154
911,-0.01688290628858754
912,-0.019019950946726587
913,-0.018936059564274202
914,-0.018024314707502265
915,-0.017654998406220593
916,-0.017828686832788022
917,-0.016804322548620805
918,-0.012399697202744133
919,-0.004262112911814832
920,0.004751383876719109
921,0.00965956171091605
922,0.006655552275251515
923,-0.0036573360370552527
924,-0.01579507106720177
925,-0.02255387008091061
926,-0.019816329526120724
927,-0.009462975269594692
928,0.0019416517455138366
929,0.007815987634614005
930,0.006050263630345452
931,-8.286737345856087e-05
932,-0.005100802316495801
933,-0.005792830229417649
934,-0.003329916315796145
935,-0.001513365242808175
936,-0.003010458228444185
937,-0.006989240076021414
938,-0.010078518394374125
939,-0.009510593588155685
940,-0.005474793591851034
941,-0.0006807468621220952
942,0.002173259451970731
943,0.0025042871998125814
944,0.001669846735715813
945,0.0010108724707630287
946,0.00028157124139935883
947,-0.0019262624471244442
948,-0.0062657448425059315
949,-0.011238613389206696
950,-0.013809444177080174
951,-0.011568784830978781
952,-0.004555091776474944
953,0.004751942876944934
954,0.013055641389650567
955,0.017992626673913097
956,0.018776328659481784
957,0.015795788971312313
958,0.010118238664500913
959,0.0034895529673501175
960,-0.0015814658235374698
961,-0.0024623998019372784
962,0.002186541048180061
963,0.01127297544586756
964,0.021639045018532213
965,0.03002170684531272
966,0.03521791361207863
967,0.038694655218897075
968,0.04308735283456244
969,0.049806945954339765
970,0.05774864094310289
971,0.06416300994258288
972,0.06692712526152315
973,0.06631468688175869
974,0.06484497774903064
975,0.06540247702552651
976,0.06915518646293328
977,0.07480157488379256
978,0.07949480963540276
979,0.0805367551045254
980,0.07661361933282275
981,0.06802379741323228
982,0.0562263458703498
983,0.04330388621171849
984,0.031527252328209215
985,0.02277940367797442
986,0.017740120700152868
987,0.015312752974934415
988,0.013034486189117088
989,0.008607962560175904
990,0.0016003255784643687
991,-0.006146733972422562
992,-0.012027208068766629
993,-0.015071323493067938
994,-0.0171791110606592
995,-0.02186610745384287
996,-0.03129482096984909
997,-0.04402681459550159
998,-0.05555546176892077
999,-0.06140818697951328
1000,-0.060370210711214845
1001,-0.055206698533719054
1002,-0.05037016087646383
1003,-0.04870910126439988
1004,-0.049883379621365756
1005,-0.051491875664136974
1006,-0.051493534293844026
1007,-0.04960434138624742
1008,-0.04667284997816561
1009,-0.043116819979685896
1010,-0.03826731349156458
1011,-0.031286089342559185
1012,-0.02255838021596166
1013,-0.013973373435995438
1014,-0.007723375177530283
1015,-0.004811232282488367
1016,-0.004694738973223913
1017,-0.006226565553840492
1018,-0.008691412108049596
1019,-0.011773208403622053
1020,-0.014630854063289922
1021,-0.01540499158467738
1022,-0.012116365331763915
1023,-0.0043820130759028835
1024,0.005692161370037139
1025,0.014491345572272843
1026,0.01907267346469085
1027,0.018753104901439194
1028,0.014906345533171784
1029,0.00945681639654882
1030,0.0036327107470531146
1031,-0.001999710921720581
1032,-0.006667970661416115
1033,-0.008964377711985574
1034,-0.007518453683428574
1035,-0.0021465220052924536
1036,0.0056934425471064625
1037,0.013589210580225835
1038,0.019318309281813932
1039,0.021464760965422523
1040,0.01930876842440758
1041,0.012675307160898548
1042,0.0023515520092317285
1043,-0.009279362943591116
1044,-0.0184349434183141
1045,-0.02149415680881335
1046,-0.017110208974087056
1047,-0.007259500859043769
1048,0.0037240403144613043
1049,0.011478351613532577
1050,0.013616264466334408
1051,0.010179455786714321
1052,0.0027466905016077237
1053,-0.006644561391674684
1054,-0.01593626101495014
1055,-0.023065636645979666
1056,-0.026284928210521846
1057,-0.02495629357139882
1058,-0.02011289733738519
1059,-0.013999346998080675
1060,-0.00873472652519303
1061,-0.005195449692519368
1062,-0.003090629761905714
1063,-0.0020338685107336866
1064,-0.0023997241961270796
1065,-0.004992702627455106
1066,-0.009846317243931278
1067,-0.015468526965330177
1068,-0.01948221808439038
1069,-0.0202162978144768
1070,-0.017813891286436186
1071,-0.013864768203910503
1072,-0.009997396767296107
1073,-0.0068245475011949035
1074,-0.004174136053237597
1075,-0.0021686749403040766
1076,-0.0018592410322199116
1077,-0.004621442977378116
1078,-0.01082406361716742
1079,-0.019051466777970337
1080,-0.026666360673336928
1081,-0.03128701055438318
1082,-0.0320113486094673
1083,-0.029568870976260576
1084,-0.025553638991455054
1085,-0.021531655068496122
1086,-0.0186497629713313
1087,-0.017744291818109312
1088,-0.019511483625287054
1089,-0.02436545290459998
1090,-0.03197965784489215
1091,-0.04084432361413762
1092,-0.04829114381550269
1093,-0.05129690113431343
1094,-0.0479536833873179
1095,-0.03889068017735489
1096,-0.027569063080530053
1097,-0.018786839674550943
1098,-0.015963476627976748
1099,-0.018972683451846183
1100,-0.024256588881233044
1101,-0.027335626443982318
1102,-0.025800637709309564
1103,-0.020306837079498104
1104,-0.012763450106070204
1105,-0.0035057222285448096
1106,0.00966838718442124
1107,0.029339560096413544
1108,0.05494052610743441
1109,0.08119793113089219
1110,0.10039084318087521
1111,0.10693736309368834
1112,0.10068439007431558
1113,0.08634376534128248
1114,0.06981878502107342
1115,0.05465567485622765
1116,0.041329322769225914
1117,0.029211810350563222
1118,0.018694262644933374
1119,0.011207247352734557
1120,0.007314341307158606
1121,0.005110574503824171
1122,0.0008619406190954555
1123,-0.008398954189098293
1124,-0.022499737750076965
1125,-0.03795998845104003
1126,-0.05007810065759586
1127,-0.0555658719342758
1128,-0.053918929286369016
1129,-0.047014767418977595
1130,-0.03772685181859936
1131,-0.028620195174221884
1132,-0.021260155871690646
1133,-0.016145971753143286
1134,-0.01313200081971392
1135,-0.012114711236519127
1136,-0.013504996503246502
1137,-0.017942576628661732
1138,-0.025303607636217865
1139,-0.03395971087608349
1140,-0.04137871362468689
1141,-0.04596523524334929
1142,-0.04853014224951864
1143,-0.051736632579038364
1144,-0.057784981128596924
1145,-0.06664807898580233
1146,-0.07689688018793123
1147,-0.08836106635908074
1148,-0.10342389871226489
1149,-0.12477569671621509
1150,-0.15154343034990234
1151,-0.17857875847488264
1152,-0.20139594311278686
1153,-0.22305645821317038
1154,-0.25538706736754596
1155,-0.3103979788905103
1156,-0.3866555716392751
1157,-0.4614277736543734
1158,-0.49605749999282767
1159,-0.4515304956580891
1160,-0.3033866192105831
1161,-0.04764850367576855
1162,0.30048042209402714
1163,0.706822988038672
1164,1.1138380375896806
1165,1.4398369594543843
1166,1.5950141828123918
1167,1.5169320803904984
1168,1.2085545678538836
1169,0.7513442175457244
1170,0.2771831831155535
1171,-0.08972307404774796
1172,-0.28733693261795024
1173,-0.3341958411520951
1174,-0.3037831213413038
1175,-0.2757099648826935
1176,-0.2960441738604991
1177,-0.36697589763177
1178,-0.4627538783690705
1179,-0.5533746524687334
1180,-0.6191237751610736
1181,-0.6518509603405573
1182,-0.6497949063546592
1183,-0.6140285160688057
1184,-0.5486656475574606
1185,-0.4616874119343747
1186,-0.3633565200495459
1187,-0.26286851436777736
1188,-0.1662437084454993
1189,-0.07710843254041899
1190,0.0010674188883755958
1191,0.06402473434006796
1192,0.10817913387262994
1193,0.13299176100777743
1194,0.14182553257952712
1195,0.14034447010659076
1196,0.13373567385148893
1197,0.12489137539545181
1198,0.1146151990820844
1199,0.10312993006118536
1200,0.09129494785541743
1201,0.08056363680389839
1202,0.07203491773372551
1203,0.06571676327907325
1204,0.06072929766811895
1205,0.05613392574460233
1206,0.05144473700194669
1207,0.04628332406414144
1208,0.03967373722090738
1209,0.030055998252568262
1210,0.01650066913669684
1211,0.0002740752539324234
1212,-0.014846678876854931
1213,-0.024331245597490697
1214,-0.025729370317664233
1215,-0.02038232079671149
1216,-0.01252271413047131
1217,-0.006434739014369608
1218,-0.00401934365789685
1219,-0.004667238392100418
1220,-0.007138327082979417
1221,-0.011284731592736845
1222,-0.01777407330724508
1223,-0.026177226893473824
1224,-0.03366677550143687
1225,-0.03616646491606419
1226,-0.03138716012135466
1227,-0.021118451606402522
1228,-0.0105143112350812
1229,-0.004687584390696499
1230,-0.005328338171128448
1231,-0.010043864068314524
1232,-0.01473155628254929
1233,-0.0167749951234814
1234,-0.016438160804942304
1235,-0.015694064259201966
1236,-0.015969010719720858
1237,-0.01690224237627261
1238,-0.016935602380194995
1239,-0.01483475403717845
1240,-0.010692973570368525
1241,-0.005790778176208452
1242,-0.0017829022088654905
1243,1.4517294255294173e-05
1244,-0.0010411739889839029
1245,-0.004761944213884074
1246,-0.010039245690319262
1247,-0.015061260160679915
1248,-0.018039334941080086
1249,-0.01812379723145057
1250,-0.015806899754530368
1251,-0.01243778115899247
1252,-0.009275579361787276
1253,-0.006930049764272318
1254,-0.005582432893737679
1255,-0.005513633685105491
1256,-0.0071520536481790116
1257,-0.01046044265959007
1258,-0.014340068158358216
1259,-0.016856680520826298
1260,-0.01629650830276943
1261,-0.012186056985117735
1262,-0.005414912200971444
1263,0.0025151165973876467
1264,0.010289979087171372
1265,0.01694301326068792
1266,0.02154711762190941
1267,0.023179996723835795
1268,0.021512591659353125
1269,0.017476132922025406
1270,0.0131340587359228
1271,0.010580351805894526
1272,0.010704159084912844
1273,0.012892932498231563
1274,0.015894462083649266
1275,0.018982170241710578
1276,0.022356773376042156
1277,0.026540547279726254
1278,0.03148655045001786
1279,0.0362806374212066
1280,0.03962688151948777
1281,0.040596929855675125
1282,0.03908206362759106
1283,0.03586310845230916
1284,0.032518750437189256
1285,0.031200223075305046
1286,0.03401725485284696
1287,0.04197871130757156
1288,0.05404673201608523
1289,0.06716643061382507
1290,0.07757492577857197
1291,0.08264303920841547
1292,0.08196860294278445
1293,0.07702479942589008
1294,0.06986795864998051
1295,0.0620881799135456
1296,0.05472301131277511
1297,0.04877605113820847
1298,0.045399697260342785
1299,0.04526894998289002
1300,0.047657785150425055
1301,0.050204736920914185
1302,0.049846005644566135
1303,0.044400509962012384
1304,0.03373293615802124
1305,0.019749290878958308
1306,0.005339148373780377
1307,-0.006960047451175824
1308,-0.01578088075826973
1309,-0.02093334508706804
1310,-0.022888253648593804
1311,-0.022289668652770097
1312,-0.019881948746636367
1313,-0.01678908089538652
1314,-0.01468853378353954
1315,-0.015418193426870008
1316,-0.020033415756143307
1317,-0.027952351162258676
1318,-0.03699872817000091
1319,-0.044560446033661515
1320,-0.04911892953944421
1321,-0.05094408544698569
1322,-0.051349262658921604
1323,-0.051146352487082714
1324,-0.04971134007246694
1325,-0.04557673567948598
1326,-0.038087976734343984
1327,-0.028650428034631754
1328,-0.020399719036422962
1329,-0.01646354814347658
1330,-0.01811750089679183
1331,-0.024105635762954367
1332,-0.03138273495214036
1333,-0.03656389172434838
1334,-0.037206343053438576
1335,-0.032530015226149886
1336,-0.02359940012610172
1337,-0.01298636460221504
1338,-0.0038437317045080825
1339,0.001414077894601283
1340,0.0021463088220833606
1341,-0.0004942510107007368
1342,-0.004598745339143054
1343,-0.00874781524427649
1344,-0.012443283656181574
1345,-0.015518652745557589
1346,-0.017340435518191415
1347,-0.016777119217782542
1348,-0.013047266672620052
1349,-0.006591031218682972
1350,0.0009239692149714813
1351,0.007452951645825236
1352,0.011463253071317889
1353,0.01220471499559389
1354,0.009557176526084423
1355,0.0041074143839541595
1356,-0.0024340985081013405
1357,-0.007239633214591902
1358,-0.007554856712011157
1359,-0.0026629271608682647
1360,0.004983675503607867
1361,0.010840591258636689
1362,0.011171762896620988
1363,0.00564060334842489
1364,-0.002517569238542659
1365,-0.008916544311260391
1366,-0.011066930692386602
1367,-0.009668536758314797
1368,-0.007384228912107625
1369,-0.006430438983532811
1370,-0.00704441131947833
1371,-0.007811788907065631
1372,-0.007175506062845125
1373,-0.004708261381674893
1374,-0.001312362102687656
1375,0.0014375098217874862
1376,0.0020972782259990955
1377,-0.00013768310100158295
1378,-0.0051938142500923806
1379,-0.012025271536218452
1380,-0.018750387947418713
1381,-0.023192350429247607
1382,-0.02374157769034863
1383,-0.02011102933044898
1384,-0.013513864924980079
1385,-0.006137805939290825
1386,-0.00022836596946426658
1387,0.0027175784278474927
1388,0.002290115267913947
1389,-0.0010073162510754346
1390,-0.006211243763101005
1391,-0.012287591594420985
1392,-0.018219483677020115
1393,-0.022847020254790816
1394,-0.02480604338987543
1395,-0.022920588808097386
1396,-0.016999697187707392
1397,-0.008457634802393943
1398,-6.289236631479636e-05
1399,0.005300326291146646
1400,0.0061097164496178025
1401,0.0028407521676668225
1402,-0.002694864972280515
1403,-0.008674878449328965
1404,-0.014096843973736166
1405,-0.01853058505488204
1406,-0.02133734516276646
1407,-0.021435191139512505
1408,-0.01806975050677239
1409,-0.01190025270941773
1410,-0.005234085108230863
1411,-0.000960986827763253
1412,-0.0009431971552582742
1413,-0.005103977933082827
1414,-0.01177526864615492
1415,-0.018763186342350635
1416,-0.024182611801043974
1417,-0.026687752068151074
1418,-0.02550622036105328
1419,-0.02075050350877474
1420,-0.013824194753549426
1421,-0.0072419096271848175
1422,-0.0035638543632028636
1423,-0.004079669055931065
1424,-0.008305982451709406
1425,-0.014701031252213424
1426,-0.02185975239961529
1427,-0.02904000264986808
1428,-0.03565945682794238
1429,-0.04057272275790768
1430,-0.04221133484111414
1431,-0.039710850721445215
1432,-0.033965621289006355
1433,-0.027437218680350664
1434,-0.022683552848764
1435,-0.020822066033898506
1436,-0.021210909240011767
1437,-0.022461372331364797
1438,-0.023684941898893558
1439,-0.024819355865717402
1440,-0.025931581194239495
1441,-0.026407586822458452
1442,-0.024910689269729707
1443,-0.020090620713795915
1444,-0.01129842047974695
1445,0.0012654476716693669
1446,0.016804415403330997
1447,0.03403139283007314
1448,0.0509703537045454
1449,0.06494060523238956
1450,0.07327043655148659
1451,0.0745948027394574
1452,0.0698448386325789
1453,0.062044472142734564
1454,0.054860455345704905
1455,0.05077779047275019
1456,0.050016147588636706
1457,0.05073732539429714
1458,0.05025055460960222
1459,0.04641205726842273
1460,0.038460997768354835
1461,0.02696966305634127
1462,0.013126803411108428
1463,-0.002034696408548564
1464,-0.017837611487152516
1465,-0.03342699241716726
1466,-0.04705751482358722
1467,-0.05612007638670641
1468,-0.058345188958561944
1469,-0.053512445550804075
1470,-0.04422826243999772
1471,-0.0347999216626521
1472,-0.02875775261301975
1473,-0.02685950777562392
1474,-0.027158518022629828
1475,-0.0269939413582308
1476,-0.025097561348734997
1477,-0.022011050708856263
1478,-0.01872189266071042
1479,-0.015190351219719768
1480,-0.010470216222354906
1481,-0.004354239923623172
1482,0.001287666151405329
1483,0.003174155239383636
1484,-0.0010304368988462316
1485,-0.01083060923731501
1486,-0.023346549549608235
1487,-0.035685140529383305
1488,-0.04690083496117491
1489,-0.057704225144291355
1490,-0.0685488198759313
1491,-0.07853419575447287
1492,-0.08663354351364103
1493,-0.09396657965410193
1494,-0.10431367834710356
1495,-0.12179470776490148
1496,-0.1479998630985775
1497,-0.18200134164998405
1498,-0.223696613266304
1499,-0.2765213737204498
1500,-0.3447442605019864
1501,-0.42530362635935537
1502,-0.5005060783745708
1503,-0.5392377882413113
1504,-0.5081596558481634
1505,-0.38577095747473056
1506,-0.16962231331070116
1507,0.12646811354162873
1508,0.4786839544759246
1509,0.853787600958889
1510,1.2029372762367085
1511,1.4591039256012204
1512,1.5507576280164916
1513,1.4326174065916895
1514,1.1169091279305043
1515,0.6815846541341961
1516,0.24386170712205082
1517,-0.08926821992629415
1518,-0.2652733358917916
1519,-0.3000264292343175
1520,-0.25685038796830034
1521,-0.20765295040337434
1522,-0.2004884478361058
1523,-0.24824981364852375
1524,-0.3368235063282795
1525,-0.4408480426545959
1526,-0.5361944898372498
1527,-0.6056438755322205
1528,-0.640039688470982
1529,-0.6378494805129912
1530,-0.6038439252324939
1531,-0.546422351882692
1532,-0.47412128423400157
1533,-0.39310330213268074
1534,-0.30695928417464113
1535,-0.21832095618805197
1536,-0.13052108642698934
1537,-0.047991749227607794
1538,0.02452804854263703
1539,0.0831074204288598
1540,0.1254578428615433
1541,0.1514166855178693
1542,0.16303177102180927
1543,0.1639448352661234
1544,0.15800278434696965
1545,0.14780211447568053
1546,0.13428657015036685
1547,0.11779483301334738
1548,0.09958936848197764
1549,0.082305836445189
1550,0.06873223517344482
1551,0.05999292354520418
1552,0.05486287713759559
1553,0.05084065957604782
1554,0.04587886431332514
1555,0.03912899325531402
1556,0.030277282723360506
1557,0.018693530794699507
1558,0.003844827687944882
1559,-0.01310654718891302
1560,-0.028293336816956345
1561,-0.03642630900689889
1562,-0.03405423854573409
1563,-0.022375152685782402
1564,-0.007105727478152781
1565,0.004833705546445393
1566,0.009422697750172185
1567,0.00736730719817244
1568,0.0024839782138912306
1569,-0.0017397544233292025
1570,-0.004511941044869861
1571,-0.007344903225723735
1572,-0.011706759773835734
1573,-0.017076341544590614
1574,-0.021153869408754165
1575,-0.021905025688688858
1576,-0.019472619919774184
1577,-0.016178106048153257
1578,-0.014598718466300228
1579,-0.015439555000580005
1580,-0.01709180375548256
1581,-0.01724297664795231
1582,-0.015050572158659209
1583,-0.011881234557077187
1584,-0.009941720534735434
1585,-0.010104692147497051
1586,-0.011028097733185764
1587,-0.010480298920888358
1588,-0.007666785719706609
1589,-0.004312534732475299
1590,-0.0033572489624625994
1591,-0.006392728052388471
1592,-0.012231842426546369
1593,-0.01796193524953236
1594,-0.021448240121129593
1595,-0.022850705621330715
1596,-0.02372576239097029
1597,-0.024737705048042062
1598,-0.02443876440273747
1599,-0.020507011130924686
1600,-0.012300594971676076
1601,-0.0021625454484515303
1602,0.005930862536979055
1603,0.009193369346610258
1604,0.007740694107241321
1605,0.0037991011257645733
1606,-0.0004759719742394628
1607,-0.004246063458277418
1608,-0.00725808349644998
1609,-0.008417489748395037
1610,-0.005764500274189415
1611,0.0016613340384599128
1612,0.011900978127768691
1613,0.02040953977737276
1614,0.022923374274910948
1615,0.01858902915835771
1616,0.010612032624149358
1617,0.0038353937299126107
1618,0.0013570283738532137
1619,0.0029679925478201157
1620,0.006335766043904723
1621,0.009405882566406802
1622,0.011774842278007434
1623,0.014203157694467977
1624,0.017306928410984697
1625,0.020930119514888844
1626,0.024595778039452742
1627,0.02820304000260134
1628,0.032093766336952566
1629,0.03657103489262729
1630,0.041641334096765834
1631,0.047371433090147706
1632,0.054346200270485756
1633,0.06344886327918713
1634,0.07493365957807477
1635,0.08766686558756413
1636,0.0993906785998103
1637,0.10786306550453831
1638,0.11182018418453739
1639,0.11091408085530925
1640,0.10491923788336208
1641,0.09336101788879879
1642,0.07632547718495075
1643,0.05587356634578153
1644,0.03653206291243563
1645,0.023802062533222725
1646,0.02123785506692734
1647,0.028034044601078997
1648,0.03897585161204046
1649,0.04702268963712486
1650,0.046912326960838364
1651,0.037455212597574714
1652,0.021196866781503485
1653,0.002083340773158118
1654,-0.01685650841276925
1655,-0.034087066660377516
1656,-0.04838390628515876
1657,-0.05754474924497452
1658,-0.05877071228711412
1659,-0.050868477802935144
1660,-0.036442207904542515
1661,-0.021779699650240826
1662,-0.013820195755599325
1663,-0.016087382698194326
1664,-0.02656912388538011
1665,-0.039148589090336396
1666,-0.04746275398327905
1667,-0.048329934725081326
1668,-0.04256469905279461
1669,-0.0333055361506161
1670,-0.02376617207860579
1671,-0.0161463906190749
1672,-0.011837538568457675
1673,-0.011809310794047179
1674,-0.016314419811079173
1675,-0.024252604707184634
1676,-0.03321174689885294
1677,-0.04058157231745199
1678,-0.04492842438804415
1679,-0.046389213849426486
1680,-0.04571076525619375
1681,-0.04287632678585991
1682,-0.03670255740366424
1683,-0.025911751225930688
1684,-0.010818611067470923
1685,0.005830289666424796
1686,0.019668420283329456
1687,0.026699496392369133
1688,0.02517293909512637
1689,0.016254754261423685
1690,0.0033097782541328113
1691,-0.009556579428633364
1692,-0.018836980668029638
1693,-0.022364535849795173
1694,-0.01951796325867862
1695,-0.011199150763167206
1696,0.00026502162257796417
1697,0.011463598754045984
1698,0.018752917862947357
1699,0.01957576986539296
1700,0.013689552881217867
1701,0.0035005348716187793
1702,-0.006925952557436631
1703,-0.013776668864772718
1704,-0.0152387227418999
1705,-0.012051435590635609
1706,-0.006629383260322572
1707,-0.0014722811578087298
1708,0.0020481118871508654
1709,0.0038678391634425716
1710,0.004544213506786089
1711,0.0044183905751406976
1712,0.0032703525134601093
1713,0.0006022828803013909
1714,-0.003793536628929969
1715,-0.009452348976458344
1716,-0.015290212308902835
1717,-0.020011889855818917
1718,-0.022587792867065498
1719,-0.022540017015256496
1720,-0.019972248345885093
1721,-0.015473051703533445
1722,-0.010046427616627943
1723,-0.005052193451340833
1724,-0.0019565528186878366
1725,-0.001755942995848782
1726,-0.004289796644536874
1727,-0.007989628726386616
1728,-0.010500224665845475
1729,-0.009981544833086452
1730,-0.0062396567719989245
1731,-0.000804976822439402
1732,0.004150340686712177
1733,0.007193412657340226
1734,0.008176311195323142
1735,0.007563572910586768
1736,0.005299208016905534
1737,0.0004375017026752489
1738,-0.00793144947064306
1739,-0.019199306725554872
1740,-0.030622875178285804
1741,-0.03841698188382263
1742,-0.03998861268371726
1743,-0.03568438190471594
1744,-0.028640607771345722
1745,-0.02271063903068877
1746,-0.019932307786941404
1747,-0.019411067589350704
1748,-0.018460822076759437
1749,-0.015113300136074802
1750,-0.010009358716824374
1751,-0.006129650967428487
1752,-0.006531735311404488
1753,-0.011903866113755157
1754,-0.019947265627292002
1755,-0.027116352594344043
1756,-0.031277478985945247
1757,-0.03307583604706141
1758,-0.034920571976614814
1759,-0.038534913271596964
1760,-0.04318169903666453
1761,-0.04598852352646624
1762,-0.0439794673703376
1763,-0.03613715705893018
1764,-0.024074645954876468
1765,-0.011175953225637563
1766,-0.0010504157734401692
1767,0.003862286653199426
1768,0.0032233556791319506
1769,-0.0008579711947007389
1770,-0.004400232090778129
1771,-0.003287441772146463
1772,0.0044531070199535505
1773,0.017370912380442853
1774,0.03157802301428379
1775,0.04355616916062097
1776,0.052587532592433435
1777,0.06066248263161647
1778,0.06986032539618947
1779,0.07957432155592531
1780,0.08623058547001858
1781,0.08590705945183642
1782,0.0775466461539965
1783,0.0638726942386369
1784,0.04922320166887208
1785,0.03629644027619322
1786,0.024634943472787586
1787,0.011915011431241573
1788,-0.003418132911265494
1789,-0.020541792837179024
1790,-0.036733176039857075
1791,-0.049009638137686384
1792,-0.05532579488585039
1793,-0.05473722371891383
1794,-0.047277004743015175
1795,-0.03440901703025729
1796,-0.019760908655185323
1797,-0.008821024478385096
1798,-0.006755045539305586
1799,-0.015258032540406167
1800,-0.03075333598730775
1801,-0.04574937210154475
1802,-0.052906199062390045
1803,-0.04917788979432802
1804,-0.03722336061539547
1805,-0.02337014744852118
1806,-0.013992984288252897
1807,-0.012986198899134271
1808,-0.0214594152667845
1809,-0.03854937347355641
1810,-0.061654184552464394
1811,-0.0860076552257952
1812,-0.1053217034264857
1813,-0.11474281114656791
1814,-0.11456042286918638
1815,-0.11099178847431468
1816,-0.11204010127012418
1817,-0.12122675271004449
1818,-0.13524116415482207
1819,-0.1489471866444787
1820,-0.16395920495111765
1821,-0.19190976840134544
1822,-0.24661305308768894
1823,-0.329140980473467
1824,-0.4175767866704436
1825,-0.47087641895528154
1826,-0.4451164213764283
1827,-0.31072933305102846
1828,-0.0605346122466497
1829,0.2910118889411544
1830,0.7085428371421341
1831,1.1314375529450376
1832,1.4721148841170695
1833,1.6317934565883203
1834,1.5386399009847878
1835,1.1914463685613856
1836,0.6779097635298907
1837,0.14658927970203578
1838,-0.2580189086552363
1839,-0.46013382103091577
1840,-0.47796747206176793
1841,-0.397091431839627
1842,-0.3138894668368473
1843,-0.2872767530359286
1844,-0.32455986335791653
1845,-0.3995169795433777
1846,-0.48058709468367866
1847,-0.547704375289716
1848,-0.5921897025365745
1849,-0.6089186800787758
1850,-0.5923274381299792
1851,-0.5395327188150203
1852,-0.4552606337235822
1853,-0.35219603753482154
1854,-0.24581893029153784
1855,-0.14811417148316428
1856,-0.06481320817507047
1857,0.003045854732281142
1858,0.056015817981804196
1859,0.09458437259373872
1860,0.11958723628720895
1861,0.13320752481637227
1862,0.13898285048129833
1863,0.14058492648598725
1864,0.1402978002292288
1865,0.13823528011300001
1866,0.13273189161800641
1867,0.12169726349500126
1868,0.10431429983149304
1869,0.08224299406646823
1870,0.059561721563548484
1871,0.04125044723979242
1872,0.03094673378189412
1873,0.0293087078970772
1874,0.03396703723646598
1875,0.04090656954233039
1876,0.046153883667968215
1877,0.04671997837127535
1878,0.04071876848201701
1879,0.02741326048452425
1880,0.007766985032921034
1881,-0.01488600019627016
1882,-0.03509445039527867
1883,-0.04703583784888741
1884,-0.04706481952691617
1885,-0.035520005724106116
1886,-0.016639473334720874
1887,0.0032653181175370306
1888,0.018181499008508586
1889,0.02413128209319618
1890,0.019889616345032904
1891,0.006954152246734018
1892,-0.010974138361921001
1893,-0.029048485981128233
1894,-0.04282833623548531
1895,-0.04972573314997954
1896,-0.049447669352171104
1897,-0.04313965676515823
1898,-0.032079890682476096
1899,-0.017274178227055716
1900,-0.00040243183169055277
1901,0.015038213749279328
1902,0.024188925236547785
1903,0.023391136789250935
1904,0.01311611333954945
1905,-0.0014674779545096512
1906,-0.013434877713035996
1907,-0.018652228211139085
1908,-0.0182761966005481
1909,-0.016973679294463133
1910,-0.018241661828777636
1911,-0.020856941091827556
1912,-0.019672765283161392
1913,-0.010257763516300561
1914,0.00652424929433593
1915,0.023950337334343597
1916,0.0335036757548794
1917,0.030383956537361298
1918,0.016278188498656636
1919,-0.002332701939610166
1920,-0.018485678773534967
1921,-0.0282130382150622
1922,-0.031122028729596365
1923,-0.028726091526606316
1924,-0.022672259480241354
1925,-0.014280057273089425
1926,-0.005046557851967481
1927,0.003114961189802686
1928,0.008477924111301912
1929,0.01033726161671774
1930,0.009161390950888405
1931,0.005969857935482963
1932,0.00173955057967915
1933,-0.0024796647284268717
1934,-0.00506732710739227
1935,-0.003970745903758159
1936,0.0020482149685391434
1937,0.011920860985792916
1938,0.02209271483881964
1939,0.028354778743169103
1940,0.028596273316410903
1941,0.02435311088259219
1942,0.01982960118350592
1943,0.019107707112075933
1944,0.02372999071906276
1945,0.032430710854030514
1946,0.04288814858255595
1947,0.0537102150026673
1948,0.06489662438581378
1949,0.07660446603269484
1950,0.0876518639421926
1951,0.09536825541962823
1952,0.09708027275946939
1953,0.0920037848352463
1954,0.0819754521552972
1955,0.07049889179704384
1956,0.060947115773916954
1957,0.05522966473745212
1958,0.05355059159398257
1959,0.05488615022825595
1960,0.05748091675499402
1961,0.059147279368184105
1962,0.05771742462195631
1963,0.05189714071711497
1964,0.04209503771369208
1965,0.03038820597534367
1966,0.019288721547678925
1967,0.010072273920823448
1968,0.002043897532451905
1969,-0.006512075878922147
1970,-0.016405763139100235
1971,-0.026320680819696837
1972,-0.03348915954448718
1973,-0.035832317994761595
1974,-0.03379998608514406
1975,-0.030325673768070556
1976,-0.028878228876099102
1977,-0.031169059306192792
1978,-0.03628630916763252
1979,-0.041750798367978764
1980,-0.04541282134469957
1981,-0.04660795416882831
1982,-0.045881219800627336
1983,-0.04392660020522573
1984,-0.04092930648359426
1985,-0.0368607634560769
1986,-0.03220905539844484
1987,-0.02820163592420227
1988,-0.026149228113526518
1989,-0.02647304126147876
1990,-0.02833018477742
1991,-0.030199417899669595
1992,-0.030898561050623847
1993,-0.030141875307637813
1994,-0.02823464022642108
1995,-0.025345654531889097
1996,-0.021180489375634628
1997,-0.015441288732040735
1998,-0.008627261384439165
1999,-0.00230356952095666
2000,0.001624672189363551
2001,0.002189391409351261
2002,0.0001523445069387848
2003,-0.0024267363047809796
2004,-0.003601347266172629
2005,-0.002834600900813993
2006,-0.0011283024605131305
2007,0.00011862425128071089
2008,0.0005470869080225508
2009,0.0013150223705878333
2010,0.0041479931212653285
2011,0.009705339450231769
2012,0.016610718017350506
2013,0.0219906587592293
2014,0.023185658058816342
2015,0.019426349746858355
2016,0.01235981650558745
2017,0.005182380466535793
2018,0.001018713844339572
2019,0.0014734977136979905
2020,0.00597429210839403
2021,0.012048808795877521
2022,0.016358894964329282
2023,0.016123991472869283
2024,0.01038677206937547
2025,0.0005016381535484511
2026,-0.010486341004086516
2027,-0.019266261866359498
2028,-0.023646592059688568
2029,-0.023136733588024608
2030,-0.01864358425090354
2031,-0.01184741639133122
2032,-0.004798014295564026
2033,0.00032783530640293043
2034,0.0017699401224067256
2035,-0.0008890549503143525
2036,-0.006136103250448497
2037,-0.011195618456921269
2038,-0.013917907461670525
2039,-0.014500050610099482
2040,-0.015354561427675538
2041,-0.018843998829679166
2042,-0.02463288758632417
2043,-0.029113094517692836
2044,-0.027807036794931784
2045,-0.019033996421899506
2046,-0.005806403602701534
2047,0.005772170661358496
2048,0.010456657850707407
2049,0.007085458139262216
2050,-0.0012834095212655447
2051,-0.010063894526237488
2052,-0.01623116503479683
2053,-0.019468924514882698
2054,-0.02103497767607845
2055,-0.021928528202266706
2056,-0.02213690627074073
2057,-0.021334855998982383
2058,-0.019958489772232593
2059,-0.01941339102102452
2060,-0.02121561968318563
2061,-0.025911157212234505
2062,-0.032688265132481915
2063,-0.03982265155121743
2064,-0.04539903738529105
2065,-0.047789200159826066
2066,-0.045901023495574206
2067,-0.03951479827218177
2068,-0.0297315552920191
2069,-0.019064896071589114
2070,-0.010679877026578397
2071,-0.006899851034938191
2072,-0.007831725254455045
2073,-0.011077398492790146
2074,-0.012817529646064581
2075,-0.009615991114499067
2076,0.00013519857134907678
2077,0.015830085319928088
2078,0.03522433760955869
2079,0.05533843645447741
2080,0.07313725807209134
2081,0.08590859698366464
2082,0.09160810744050762
2083,0.08934780734258632
2084,0.07984239566503035
2085,0.06541530034843022
2086,0.049357823611408676
2087,0.03486966547018633
2088,0.024092627957264492
2089,0.017640983743229206
2090,0.014672657650729053
2091,0.013289519828663261
2092,0.011088873967300805
2093,0.005851691600180045
2094,-0.0036552758891049393
2095,-0.017027402772719136
2096,-0.03216295657769085
2097,-0.046026915485429365
2098,-0.055915122320017885
2099,-0.060478506161677194
2100,-0.05992352216355411
2101,-0.05544958345462797
2102,-0.04853156277427632
2103,-0.04059597927070742
2104,-0.03307930976370032
2105,-0.02741428767320221
2106,-0.02463761085904984
2107,-0.024860039150048675
2108,-0.027143999669290136
2109,-0.03001851264826238
2110,-0.03224745147434699
2111,-0.03322653172566212
2112,-0.03278332295341248
2113,-0.030757039838750624
2114,-0.026892741693965067
2115,-0.021164167599549838
2116,-0.014147188702067442
2117,-0.007038515124575449
2118,-0.0013111292126853948
2119,0.001703738541887624
2120,0.0011388087602060258
2121,-0.003084676814764352
2122,-0.009896021728837374
2123,-0.017026712180209343
2124,-0.021738830464157075
2125,-0.0222208005218822
2126,-0.01871043074822714
2127,-0.013296174808258777
2128,-0.008364319302334826
2129,-0.00496297596374101
2130,-0.002568720812551936
2131,-0.0004457844470304425
2132,0.0008440544618296211
2133,-0.0005067380996143685
2134,-0.005744464979705227
2135,-0.01367713151801246
2136,-0.020719416750205527
2137,-0.02315736670596234
2138,-0.019820842405566315
2139,-0.012885820059182132
2140,-0.006166806296431461
2141,-0.0024289663039543307
2142,-0.001933331520055424
2143,-0.0031327965350368245
2144,-0.00453407015445465
2145,-0.005980017460938394
2146,-0.008440518756161215
2147,-0.012786285294144778
2148,-0.018683949501210627
2149,-0.024390616525314428
2150,-0.027486278541762922
2151,-0.026116689464966453
2152,-0.020177062237164603
2153,-0.011811804891273649
2154,-0.004707589958487327
2155,-0.002230894696434489
2156,-0.005397185821214187
2157,-0.012150589067115854
2158,-0.018708633410461636
2159,-0.022097741739141395
2160,-0.021889233914182637
2161,-0.01975391436461839
2162,-0.01740340024851067
2163,-0.014963335625250613
2164,-0.011327648705623639
2165,-0.006001915128120695
2166,-0.0003998592551441261
2167,0.002892169244417731
2168,0.002255406820801102
2169,-0.0015404691325737658
2170,-0.006069573969704702
2171,-0.009391475504145687
2172,-0.011454224505009141
2173,-0.013438680415290317
2174,-0.015898386847095304
2175,-0.017775204638035464
2176,-0.01737341148650645
2177,-0.014241063235006167
2178,-0.00992350633714733
2179,-0.006759334037288671
2180,-0.005975635263950437
2181,-0.007057395359016531
2182,-0.008940617403136272
2183,-0.01155180630130518
2184,-0.01580557564107294
2185,-0.021888007273616422
2186,-0.02770579850151022
2187,-0.029531617825426112
2188,-0.024801472624562802
2189,-0.014723741169543385
2190,-0.00418018804438566
2191,0.0013490030543183483
2192,-0.0005228086564748207
2193,-0.007709834157669931
2194,-0.01554038578968522
2195,-0.020176259559307755
2196,-0.020801999344864576
2197,-0.019168094062700293
2198,-0.017387480731693016
2199,-0.01610801227564086
2200,-0.014466272676482803
2201,-0.011485593827209992
2202,-0.007429013438341505
2203,-0.00389778672151726
2204,-0.002691518030951217
2205,-0.004463801195479818
2206,-0.008251147001006468
2207,-0.01215404019579773
2208,-0.014546643968853194
2209,-0.014874020482800085
2210,-0.013526063086208618
2211,-0.011070259122771143
2212,-0.007647970109521263
2213,-0.003162580378116937
2214,0.001885873145204033
2215,0.00580362446819881
2216,0.0062226542658456625
2217,0.0017092014664408458
2218,-0.0066975903122340405
2219,-0.015474608505466367
2220,-0.02056534338637516
2221,-0.02006207835521447
2222,-0.01552431335459591
2223,-0.010716131423573446
2224,-0.008626122928391539
2225,-0.009182012990583226
2226,-0.00962680585490743
2227,-0.0073001222863949
2228,-0.002428916648539339
2229,0.0015975026678455536
2230,0.0008837675336718005
2231,-0.005537282284510782
2232,-0.014413651996103824
2233,-0.020304663970585994
2234,-0.01935809818528348
2235,-0.011874068464678098
2236,-0.0018066692294870007
2237,0.006116603731224999
2238,0.009252617465849971
2239,0.00789075720634322
2240,0.0040247259810763086
2241,-0.00043770828188789164
2242,-0.004534399435369036
2243,-0.00794666442982615
2244,-0.010401773627907961
2245,-0.011607320284877765
2246,-0.011667983506466697
2247,-0.011292655169032708
2248,-0.011347338855140936
2249,-0.01208970582485715
2250,-0.012854895614076857
2251,-0.01259416487848793
2252,-0.01087897997549623
2253,-0.00852367018204607
2254,-0.0072428745832894895
2255,-0.008491812595923107
2256,-0.012259220752102253
2257,-0.016678715067912346
2258,-0.01885995439454233
2259,-0.016584599999202834
2260,-0.00988216966633533
2261,-0.0014133175146828028
2262,0.004774718973777117
2263,0.005487369250398826
2264,0.0002156330486602822
2265,-0.008644352516072568
2266,-0.017275410884243746
2267,-0.022525243749812837
2268,-0.023195572434752412
2269,-0.019939297444403637
2270,-0.01429367969929153
2271,-0.007816834845695678
2272,-0.001797475628661619
2273,0.00273790260853543
2274,0.00516526763854737
2275,0.0055216835037189054
2276,0.004442155360393784
2277,0.002585302251928504
2278,2.409175591003667e-05
2279,-0.0036803081435633025
2280,-0.008614924522550232
2281,-0.013662786600329118
2282,-0.01666292290253389
2283,-0.015729691474059233
2284,-0.010742279096143378
2285,-0.003729975291921138
2286,0.002231920853746674
2287,0.004766503071088019
2288,0.003293632821722633
2289,-0.0011268344338168236
2290,-0.006764655415309977
2291,-0.01211094731558417
2292,-0.01619992349783834
2293,-0.01852274649950853
2294,-0.018922529765997426
2295,-0.017589728415385142
2296,-0.014990105292560906
2297,-0.011630000669823656
2298,-0.007851399864060648
2299,-0.003923759888764957
2300,-0.0003992521835212569
2301,0.0016650843145812378
2302,0.001018156875278532
2303,-0.002965700393856645
2304,-0.00947862618920423
2305,-0.016143162844717618
2306,-0.01986300035477996
2307,-0.01836280130248967
2308,-0.011607394065598953
2309,-0.0021954294651158374
2310,0.0057164651154756555
2311,0.00853203928409775
2312,0.005162199289590332
2313,-0.00248270689565066
2314,-0.010836490528217713
2315,-0.016901853430257165
2316,-0.019709164321743425
2317,-0.020012270556481252
2318,-0.01875790671550224
2319,-0.01592186765464063
2320,-0.010855388970815661
2321,-0.003710206899336346
2322,0.003659328428066162
2323,0.008474395551791452
2324,0.008970850981798792
2325,0.005734161673153709
2326,0.0011458505592821864
2327,-0.002558637141999303
2328,-0.004800843037361497
2329,-0.006393504722599158
2330,-0.007948640514824405
2331,-0.008720801466484015
2332,-0.0071590655463320925
2333,-0.002665868014059571
2334,0.0032083714542052106
2335,0.007415034468834028
2336,0.007446643695809016
2337,0.0030398102801656767
2338,-0.0038172648176791695
2339,-0.01038693093238403
2340,-0.014805505881250305
2341,-0.01661354891352349
2342,-0.016160857889739446
2343,-0.013806927401056966
2344,-0.009742364523898569
2345,-0.004417323479952681
2346,0.0010787610489995092
2347,0.005213290401253057
2348,0.0066850353568775915
2349,0.005043395457110379
2350,0.0008358927640838458
2351,-0.004697094269881007
2352,-0.01007216884691993
2353,-0.013912631058289451
2354,-0.015188265188847092
2355,-0.013454870166671285
2356,-0.00910898118131236
2357,-0.003497356920153334
2358,0.0013412830100473366
2359,0.0033812739477702544
2360,0.0015456346867933077
2361,-0.00361353247970962
2362,-0.009991421204311957
2363,-0.014899664076859914
2364,-0.016461637479897505
2365,-0.014561220413639083
2366,-0.010674682499316294
2367,-0.006699979505925555
2368,-0.0036824104748058133
2369,-0.0014255798293320208
2370,0.000776751710485661
2371,0.003022889548920083
2372,0.004347745442883395
2373,0.003343121345343289
2374,-0.0007168988660313754
2375,-0.007229601660150328
2376,-0.014578687140107833
2377,-0.021026804194920777
2378,-0.02542260571978021
2379,-0.02734768192947606
2380,-0.026957056919667585
2381,-0.02492766278832994
2382,-0.02251753410279532
2383,-0.02133727118597252
2384,-0.022608999220980773
2385,-0.02631012672349498
2386,-0.030957419954692176
2387,-0.03438410378650503
2388,-0.03500969683333434
2389,-0.03263570546520676
2390,-0.028213259424283123
2391,-0.02293190414772254
2392,-0.017495864815582726
2393,-0.012115999791420569
2394,-0.006950915039149623
2395,-0.002306307714804328
2396,0.0017488498464119395
2397,0.005967424624055071
2398,0.011990293371263757
2399,0.0215674141878279
2400,0.03536470545493421
2401,0.05221356054404699
2402,0.06938574726494884
2403,0.08374401708382301
2404,0.09301719933817013
2405,0.09641842381502624
2406,0.09435820929117306
2407,0.08767970102455608
2408,0.07714662020396398
2409,0.06359504930355225
2410,0.048457501475218545
2411,0.033895409096395865
2412,0.022043626449927675
2413,0.013756261354867148
2414,0.007952525021564481
2415,0.0023882575432556223
2416,-0.004532367134477126
2417,-0.01238519779165543
2418,-0.019092888515761776
2419,-0.02282852837506371
2420,-0.02375763077133863
2421,-0.02393640735966914
2422,-0.02535508888750541
2423,-0.02791960886072917
2424,-0.02932393470670542
2425,-0.027043976566880977
2426,-0.02069670683809942
2427,-0.012658521970401456
2428,-0.006427404968454453
2429,-0.004192761834125421
2430,-0.005624459055751528
2431,-0.008678995179408105
2432,-0.011537680798602132
2433,-0.01410801644397753
2434,-0.018118092940864944
2435,-0.02589745594793488
2436,-0.03865281686161888
2437,-0.055270849179560516
2438,-0.07254713490193862
2439,-0.08710597422589281
2440,-0.09804528653664203
2441,-0.10826943667518221
2442,-0.12294521691273494
2443,-0.14591549644954066
2444,-0.17734904840156165
2445,-0.21548252593517406
2446,-0.2613240542372578
2447,-0.32097598682481665
2448,-0.40067679564615183
2449,-0.49596105002850877
2450,-0.5834579761772463
2451,-0.6243821405033141
2452,-0.5804406966571497
2453,-0.4321672549278447
2454,-0.18672537150383495
2455,0.12911994679314082
2456,0.4822078869496341
2457,0.8389481910916536
2458,1.1595522252289876
2459,1.3906659694866774
2460,1.4720862255024312
2461,1.3623519060309563
2462,1.0690231142738047
2463,0.6598253547007301
2464,0.24104249395601443
2465,-0.08727192742257454
2466,-0.272364517358422
2467,-0.32201276143525803
2468,-0.28594660256684734
2469,-0.22225482170045185
2470,-0.17127353699466194
2471,-0.14844678583291437
2472,-0.15178948041344598
2473,-0.17213495048703245
2474,-0.19855997550463167
2475,-0.2198353563046665
2476,-0.22639736492876242
2477,-0.2141958381319342
2478,-0.1872194953817699
2479,-0.15531163416123983
2480,-0.1281409232735934
2481,-0.10996582864473847
2482,-0.09903682710514164
2483,-0.09112092896928087
2484,-0.08327987225458403
2485,-0.07478406777119828
2486,-0.06554055957813458
2487,-0.054760723151198024
2488,-0.04162975324064313
2489,-0.02700859991009657
2490,-0.013874134091749734
2491,-0.00559190979494309
2492,-0.0035044874375430935
2493,-0.006085056361195301
2494,-0.01033814716252436
2495,-0.013978739448603584
2496,-0.016378305485486355
2497,-0.017710910171064777
2498,-0.017548882055507926
2499,-0.014549425161882852
2500,-0.007626053859331853
2501,0.002524057560923194
2502,0.01302316191182062
2503,0.020039794630515608
2504,0.020815067506371694
2505,0.015134817203763612
2506,0.005404396791498229
2507,-0.004563764125455453
2508,-0.011277541328952524
2509,-0.012952884144923989
2510,-0.010028054540347608
2511,-0.0046984149362944
2512,0.0002607490899973154
2513,0.002846363521909356
2514,0.002713388668249779
2515,0.0011152016080531596
2516,-0.0001232239231944143
2517,-3.0240084887729775e-05
2518,0.0006329065799556026
2519,-0.00020950098256319622
2520,-0.004294680871784923
2521,-0.011205059285036907
2522,-0.01788486190713766
2523,-0.020267498731391206
2524,-0.01620096850828747
2525,-0.00755320193235717
2526,0.00040041952900103346
2527,0.0022969167223363504
2528,-0.003542556290354472
2529,-0.01379696738941603
2530,-0.02245189432230264
2531,-0.025017565678479063
2532,-0.021359234448971275
2533,-0.015003749646683844
2534,-0.00976836689750204
2535,-0.0067498111241804035
2536,-0.004176137986324012
2537,9.173978252003816e-05
2538,0.005977688191209218
2539,0.01095485682848933
2540,0.012217721695907336
2541,0.009080626172565484
2542,0.0034085805526759662
2543,-0.0020599683624773846
2544,-0.005669083963535734
2545,-0.0072763738369143755
2546,-0.007160511580287417
2547,-0.0049891833146543186
2548,-0.00015974156309621
2549,0.006891811888337823
2550,0.014038156477533736
2551,0.018462999055282384
2552,0.01852681707858434
2553,0.014706761556356116
2554,0.008730429035643136
2555,0.001890344184202881
2556,-0.005650045178196504
2557,-0.013876059522284608
2558,-0.021478779043442954
2559,-0.025786169736533276
2560,-0.024538666616124714
2561,-0.018005594861127846
2562,-0.009410227384999168
2563,-0.003124463393550085
2564,-0.002110665701076885
2565,-0.006632592480743082
2566,-0.014897675055929763
2567,-0.024534292485403224
2568,-0.03343371291680093
2569,-0.03967283136796348
2570,-0.04146731247291009
2571,-0.03793419299324399
2572,-0.030120716429026535
2573,-0.020939764572228067
2574,-0.01349766980974362
2575,-0.009052110931380988
2576,-0.006541276606151836
2577,-0.004274298123733185
2578,-0.0021668331115289414
2579,-0.0021510238956919977
2580,-0.006078757927248001
2581,-0.013045019053990987
2582,-0.018940309972365572
2583,-0.019118286424164337
2584,-0.012056416013750359
2585,-0.0007263430897562274
2586,0.009678338505317293
2587,0.015733965160164426
2588,0.018049775462295244
2589,0.020010364210302188
2590,0.02442900121254123
2591,0.03127136891490075
2592,0.03832206290256586
2593,0.04377713806471521
2594,0.04808770637609376
2595,0.053391649897446214
2596,0.061311653672180534
2597,0.07129056408127714
2598,0.08080534754687368
2599,0.08689652878720888
2600,0.08751289539631822
2601,0.08192672435499426
2602,0.07072452424302653
2603,0.05604867372208895
2604,0.041763607552369644
2605,0.032509442799631735
2606,0.031401013553761244
2607,0.037808166954225605
2608,0.04727571642905638
2609,0.054130832246842585
2610,0.05489568561167401
2611,0.049729727061364436
2612,0.040884235020054296
2613,0.02997166082583733
2614,0.016904004505651164
2615,0.0014889136716851794
2616,-0.014259628699930034
2617,-0.025981141601832874
2618,-0.0297355753960592
2619,-0.025283852152192476
2620,-0.016627263239369812
2621,-0.00900797982761533
2622,-0.005007728874973217
2623,-0.003345499096025145
2624,-0.0013977982702340311
2625,0.0011838196934611089
2626,0.0014944850018395036
2627,-0.003812045959126548
2628,-0.01457068496523857
2629,-0.02596100560417272
2630,-0.03160301719762708
2631,-0.02836126164158302
2632,-0.01867989695946294
2633,-0.008487548200035229
2634,-0.002671286233383886
2635,-0.002116699970319033
2636,-0.0045768892692636814
2637,-0.007941349627990459
2638,-0.012373166953286116
2639,-0.0191947312003449
2640,-0.0278545083613478
2641,-0.03439858568273193
2642,-0.033539185772178806
2643,-0.022895194777445053
2644,-0.005642542447963343
2645,0.011042451132575
2646,0.02069908697464566
2647,0.02158994392071477
2648,0.016786724051339033
2649,0.010660643823461657
2650,0.005243536512498337
2651,-0.00024737342767179853
2652,-0.006696903205106061
2653,-0.012365707476654771
2654,-0.013335957217437789
2655,-0.007080072017661446
2656,0.004255124381675968
2657,0.01438817717072879
2658,0.017384462965646878
2659,0.012363387710709883
2660,0.004172191970315676
2661,-0.0007713343314520755
2662,0.00012102798812492369
2663,0.003780258626869766
2664,0.004855122548830822
2665,0.001160176477352718
2666,-0.003892452090929939
2667,-0.004265152857156647
2668,0.0028932392265114924
2669,0.013856701842942545
2670,0.020583360556809673
2671,0.016913605366996383
2672,0.003548160222747686
2673,-0.012283316023587114
2674,-0.02203744660359898
2675,-0.02160918388645266
2676,-0.013244341279238646
2677,-0.002791368400534086
2678,0.0047640126618956995
2679,0.007771907412843483
2680,0.0071378438053317
2681,0.004053354505248273
2682,-0.0011706054545456267
2683,-0.008316510589568085
2684,-0.015910832279196797
2685,-0.021194525749911496
2686,-0.02176784380951617
2687,-0.017449403372636237
2688,-0.010612329293953808
2689,-0.00465698536810576
2690,-0.0018779902389228428
2691,-0.0023179983246776354
2692,-0.004194657846191909
2693,-0.005274446265071599
2694,-0.004175689971729969
2695,-0.0010081886736689233
2696,0.0027185433888206566
2697,0.004809831420307371
2698,0.003555002472344076
2699,-0.001117708993558321
2700,-0.007304057147227815
2701,-0.012158790190317872
2702,-0.013850979564808758
2703,-0.01300381812069466
2704,-0.012304865190204822
2705,-0.014389220524128513
2706,-0.019659375680590938
2707,-0.025920990928586463
2708,-0.03023196550513149
2709,-0.03144110808215954
2710,-0.03126373287438501
2711,-0.032971000499127115
2712,-0.0387424069141214
2713,-0.047730748332207626
2714,-0.05619001121762417
2715,-0.05941198752402363
2716,-0.05410878049082908
2717,-0.03995353066576035
2718,-0.01980230156516096
2719,0.0012063067042077033
2720,0.0173062359282796
2721,0.02415735979641107
2722,0.02074534762609207
2723,0.010285345452575385
2724,-0.0006064190380257063
2725,-0.004455467920674392
2726,0.0038438845115645257
2727,0.024681331335947434
2728,0.05344239912032653
2729,0.0823815294593105
2730,0.1036767544338009
2731,0.11221549219873764
2732,0.10697629985577614
2733,0.09069565358860798
2734,0.06834163637976158
2735,0.04531780664870423
2736,0.026132308061184717
2737,0.01371044731121216
2738,0.009076931914032357
2739,0.0111519013239846
2740,0.016809616921326653
2741,0.021630991292493136
2742,0.021489164120210603
2743,0.014363323509966644
2744,0.0012736497569520713
2745,-0.0144005640547873
2746,-0.028845141224025685
2747,-0.03964956021652255
2748,-0.046324797847410046
2749,-0.04939722363587181
2750,-0.049161666885880334
2751,-0.04533693454705328
2752,-0.03786517984261882
2753,-0.027905985242318194
2754,-0.017866012750062873
2755,-0.0102847566537416
2756,-0.0065771463860104795
2757,-0.006787042791953184
2758,-0.010431849923536109
2759,-0.017318283785092498
2760,-0.027219123858472076
2761,-0.03864848306514326
2762,-0.04829281297805255
2763,-0.052387509523112136
2764,-0.04944612179607945
2765,-0.04204220964732287
2766,-0.035746472704583435
2767,-0.03578013894471217
2768,-0.04414462038058692
2769,-0.05956023961513143
2770,-0.07970738460333991
2771,-0.1029442324705913
2772,-0.12758598168168955
2773,-0.1502613973649548
2774,-0.16690505880266757
2775,-0.1775425179119711
2776,-0.19086394801314133
2777,-0.2222456506554
2778,-0.2832090555978677
2779,-0.36850569842191977
2780,-0.45123103396912917
2781,-0.4913245986788296
2782,-0.45205880957604777
2783,-0.31273360371946357
2784,-0.0705724494441192
2785,0.26351060458032805
2786,0.6642950829979996
2787,1.08288745284765
2788,1.4394128884869497
2789,1.6352926656101494
2790,1.5909728775927792
2791,1.2918321202286607
2792,0.8106062489673808
2793,0.28463049838651266
2794,-0.14409425776401683
2795,-0.39122544332180587
2796,-0.45785324998016297
2797,-0.41109772617989715
2798,-0.3361873385172915
2799,-0.2931911528085185
2800,-0.301070423983112
2801,-0.34838389512304535
2802,-0.413633046210762
2803,-0.47894101139535994
2804,-0.5327098182254687
2805,-0.56698609609159
2806,-0.5760654135616167
2807,-0.5574897305006914
2808,-0.5127051689910072
2809,-0.44576055815745985
2810,-0.36155002698178934
2811,-0.2656993308663404
2812,-0.16572042658059957
2813,-0.07098089592380091
2814,0.009831873138674967
2815,0.07199118600236307
2816,0.1156783946723879
2817,0.14366542677235333
2818,0.15811131177813254
2819,0.159668285921526
2820,0.14950695496294503
2821,0.131685595151667
2822,0.11288895687442338
2823,0.09928387116747547
2824,0.09316416943902855
2825,0.09223787997679503
2826,0.09189001958787078
2827,0.08825400845161054
2828,0.07979350838143053
2829,0.06700206985527787
2830,0.05148437527448359
2831,0.035516304980931994
2832,0.021868709220774205
2833,0.01306014933809706
2834,0.010022095272392263
2835,0.011296265742131644
2836,0.013791373919591388
2837,0.014716616924326163
2838,0.01309217121690795
2839,0.009603032535341711
2840,0.005187256757346352
2841,-6.956570267396432e-05
2842,-0.0066447392167611075
2843,-0.014373362944831302
2844,-0.02175828919133295
2845,-0.026597083764883095
2846,-0.027302039032269146
2847,-0.02365830675974262
2848,-0.016545502703695918
2849,-0.007344477766422341
2850,0.002071007603801967
2851,0.008905017390668367
2852,0.009708148032183995
2853,0.0020737250551555674
2854,-0.0131180630824904
2855,-0.03093574896713607
2856,-0.044395999880660425
2857,-0.048274743302529385
2858,-0.04204472503111413
2859,-0.02972770820603858
2860,-0.016850191015779198
2861,-0.006953636785248942
2862,-0.0002817521276436666
2863,0.004723322189938553
2864,0.008828938155652905
2865,0.010737677656715822
2866,0.008157489066457635
2867,0.00013027304287371996
2868,-0.011464381940502973
2869,-0.022487299983777992
2870,-0.0286942540672326
2871,-0.02782323972004354
2872,-0.020295518341905343
2873,-0.008500201568486866
2874,0.004368673066616174
2875,0.015056045752615146
2876,0.020594753486589245
2877,0.018899825810720437
2878,0.009870456758210945
2879,-0.0037293964148024175
2880,-0.016792174509526126
2881,-0.024128246578858953
2882,-0.023225212827508796
2883,-0.015446470139865158
2884,-0.004592770251207761
2885,0.006082830022049391
2886,0.015886529141843887
2887,0.025982879962035594
2888,0.03672579498281696
2889,0.04571561428146119
2890,0.048765447182358417
2891,0.04328656734238839
2892,0.031180831549100743
2893,0.018479363759480817
2894,0.011681171328534759
2895,0.013604654969753733
2896,0.021981763082425523
2897,0.03166639647915613
2898,0.038388505837584186
2899,0.04105633690691962
2900,0.04128258636595107
2901,0.04129036816508594
2902,0.04234464920624091
2903,0.04474697783636336
2904,0.04865775579519749
2905,0.05440167821845977
2906,0.06185539262596711
2907,0.06977386794725306
2908,0.07607471413486144
2909,0.07906732122718901
2910,0.07856447242011748
2911,0.07586310012839709
2912,0.07263629746128625
2913,0.06973634457565592
2914,0.0668620460787294
2915,0.0631664787701576
2916,0.05810990280664523
2917,0.05186752206602044
2918,0.04517555932953718
2919,0.03894007299174212
2920,0.03387038032910619
2921,0.030122640255148166
2922,0.026938586947851187
2923,0.022574964545007386
2924,0.014959135760872917
2925,0.003065923417370011
2926,-0.011778570413973741
2927,-0.02582883523636948
2928,-0.03462957772073154
2929,-0.035713863268943255
2930,-0.03048626705587868
2931,-0.02374126377655504
2932,-0.020811855944492537
2933,-0.024132306993514607
2934,-0.03164860766900554
2935,-0.038378160099464764
2936,-0.040183491558580246
2937,-0.037083441347075655
2938,-0.033552238012960055
2939,-0.0353214351821443
2940,-0.044798375136222576
2941,-0.05842853488252132
2942,-0.0681515003427805
2943,-0.06626967260989272
2944,-0.0505714394500396
2945,-0.02624262305558301
2946,-0.003219098598798066
2947,0.009320841844007485
2948,0.007801320369558551
2949,-0.004481950717518822
2950,-0.020082121501676417
2951,-0.0319671063928173
2952,-0.036900332818904764
2953,-0.03581628985966312
2954,-0.031618429339246495
2955,-0.026449499008432478
2956,-0.02045007947037966
2957,-0.012584474014526913
2958,-0.0024926824672674925
2959,0.008289850364439388
2960,0.016718072538171612
2961,0.019904783722860676
2962,0.01686174896443811
2963,0.00918162706258178
2964,0.00032156253647561096
2965,-0.006012117513816197
2966,-0.0074971100147437865
2967,-0.0040889477879214944
2968,0.0021829887556148453
2969,0.008390593888694866
2970,0.012256467585143947
2971,0.013201210524916844
2972,0.012212747663386477
2973,0.010628411120092862
2974,0.008809368570026288
2975,0.0059054783420349165
2976,0.0010485446821957385
2977,-0.005050184570135373
2978,-0.009734207941612415
2979,-0.009988173842838574
2980,-0.004885501616579781
2981,0.0032390118039488437
2982,0.010143204445923317
2983,0.012610183888312788
2984,0.010504762751272646
2985,0.006214057538432589
2986,0.0021274997353394175
2987,-0.0013655938865040392
2988,-0.0054520262924822194
2989,-0.010612986150146995
2990,-0.015011648537050476
2991,-0.01550027959075305
2992,-0.010553080411302748
2993,-0.0023183799280183247
2994,0.004417204308644075
2995,0.005709780693978178
2996,0.001375594841982527
2997,-0.005216224552951101
2998,-0.010172145043247476
2999,-0.012093383322116832
3000,-0.01246357522154663
3001,-0.013419642884189599
3002,-0.015348781133109704
3003,-0.016667552352047116
3004,-0.015796010304048952
3005,-0.013174727903895603
3006,-0.0112751320784228
3007,-0.012642721645039084
3008,-0.017892298320154036
3009,-0.025449450013169506
3010,-0.03302797152736747
3011,-0.03926800354486626
3012,-0.04408851485275905
3013,-0.04776040227432568
3014,-0.04989310167975819
3015,-0.04937592187549411
3016,-0.04522867526337043
3017,-0.03751105750231587
3018,-0.02758040730209316
3019,-0.017658071424569457
3020,-0.010073905954551956
3021,-0.0064743853280219265
3022,-0.007118025470825233
3023,-0.010488972758131498
3024,-0.013605622221599008
3025,-0.01313613537781922
3026,-0.006803306362741236
3027,0.005790030703007242
3028,0.023353829867964748
3029,0.04368746214709135
3030,0.0642054397528603
3031,0.08192453915963102
3032,0.09352345306352523
3033,0.0962525366473447
3034,0.08955157143702593
3035,0.07611992705470898
3036,0.06114878729009351
3037,0.049754392063449615
3038,0.04422503245075262
3039,0.04302884192056035
3040,0.04223881025935281
3041,0.03821430043355303
3042,0.029579054655912408
3043,0.017325155664099732
3044,0.003438564920091013
3045,-0.010560440627853745
3046,-0.024022279609642913
3047,-0.036472611692076384
3048,-0.04672561634404085
3049,-0.05281957507771028
3050,-0.05304600216376862
3051,-0.0473578394056201
3052,-0.037975881199899225
3053,-0.02849725563967048
3054,-0.021977798914735315
3055,-0.019400608148334664
3056,-0.019748003389901764
3057,-0.02154819008489651
3058,-0.024407319136615584
3059,-0.029035577243342985
3060,-0.03580633945703516
3061,-0.04349392968114031
3062,-0.04976671569931401
3063,-0.05315701728032092
3064,-0.054500558022322926
3065,-0.056243811594525725
3066,-0.06031435891598676
3067,-0.0669186333470386
3068,-0.07558564109380962
3069,-0.086975663978105
3070,-0.10272463323582565
3071,-0.12283065879778982
3072,-0.14366541493763402
3073,-0.16023184862943946
3074,-0.17215263161969196
3075,-0.1878065528982163
3076,-0.22084522263797435
3077,-0.27946988472358536
3078,-0.35592913707113416
3079,-0.42446038830539945
3080,-0.44906841274817944
3081,-0.39488451472955355
3082,-0.23636380192105405
3083,0.03756453297106493
3084,0.4157567804294158
3085,0.8529829360361816
3086,1.2636535037308723
3087,1.5365550310465863
3088,1.5756052034966572
3089,1.3496989127455945
3090,0.9197171459131772
3091,0.41907399228434156
3092,-0.006515624473791788
3093,-0.2655356445416164
3094,-0.3537252640172255
3095,-0.33710910468951744
3096,-0.30184300348457216
3097,-0.3061354118962467
3098,-0.3613209105242957
3099,-0.4444258642297986
3100,-0.5241724294226415
3101,-0.5798529769892141
3102,-0.604850590395466
3103,-0.6002822768163738
3104,-0.5686480943289923
3105,-0.5124468386292607
3106,-0.43595071342164105
3107,-0.34611733436679476
3108,-0.25114080524118376
3109,-0.158254306571348
3110,-0.07282597785411254
3111,0.001070939317457339
3112,0.06002449910973479
3113,0.10171883112597635
3114,0.12608767169516433
3115,0.1358722419139647
3116,0.1357207455219137
3117,0.13026029454417629
3118,0.12246933021492658
3119,0.11342650571062299
3120,0.10337158300320232
3121,0.09295967443577824
3122,0.08352299505593672
3123,0.0761623215639905
3124,0.07068233234474816
3125,0.06559616065681786
3126,0.059345551529727626
3127,0.05153799458754031
3128,0.04286807406847569
3129,0.033797290348907286
3130,0.023603521592640328
3131,0.011250132947192272
3132,-0.0024914903307120097
3133,-0.014064122555286131
3134,-0.01908004601917404
3135,-0.016082207567993063
3136,-0.008608934944809018
3137,-0.0030273894429302087
3138,-0.0034990274257411897
3139,-0.008577616073149517
3140,-0.012883180664597597
3141,-0.01259562209090586
3142,-0.009590525420814781
3143,-0.009964588110659565
3144,-0.0179488120353613
3145,-0.030859585165272478
3146,-0.04015559852784914
3147,-0.038147541551345046
3148,-0.024573787649118627
3149,-0.007181802600197362
3150,0.004232762278865006
3151,0.005124582554344011
3152,-0.0013029629780182254
3153,-0.008004161783691587
3154,-0.01039079628989286
3155,-0.00940290418749731
3156,-0.00920753830031805
3157,-0.012354405694255841
3158,-0.017096806577898867
3159,-0.01905914740173316
3160,-0.015289222921401887
3161,-0.006867438782650508
3162,0.0020003835075479144
3163,0.007182534595734535
3164,0.007189077196089227
3165,0.003294167267425306
3166,-0.0021787462356391706
3167,-0.007469182446824841
3168,-0.011660854511562152
3169,-0.014044173341644262
3170,-0.013778017034931415
3171,-0.010418668579392002
3172,-0.00470594840638197
3173,0.0013920470427966837
3174,0.0056388208979154825
3175,0.006751227504741398
3176,0.0049105792853520285
3177,0.0012947476030254598
3178,-0.002780410080002363
3179,-0.006348746657335416
3180,-0.00871152963848108
3181,-0.009197085579229658
3182,-0.007211035215679265
3183,-0.0025609532971394514
3184,0.004322116486396778
3185,0.012494868140684567
3186,0.02075260191152976
3187,0.027702232531139008
3188,0.0317084724412459
3189,0.031169127328521375
3190,0.02540612752447494
3191,0.01571186501085914
3192,0.005519767472723961
3193,-0.0009430269787635164
3194,-0.0009171980799405052
3195,0.005334046056143866
3196,0.014985392030246176
3197,0.02483947121182946
3198,0.033439038027298223
3199,0.04131864697811284
3200,0.049317469706207546
3201,0.056745932271855544
3202,0.061412534813454656
3203,0.06172561186580647
3204,0.05891045585796579
3205,0.05697554191157396
3206,0.059996336609125095
3207,0.06885360592943443
3208,0.08029507464817559
3209,0.08925026427227813
3210,0.0924414911046515
3211,0.09021128467128037
3212,0.0852074311973
3213,0.07948155496629875
3214,0.07286858869300522
3215,0.06401986433157308
3216,0.05273244357666381
3217,0.04099387759256774
3218,0.03160002403010737
3219,0.025747008097442035
3220,0.022028574931043248
3221,0.01779829399073598
3222,0.01147778098548441
3223,0.0035611120021487937
3224,-0.004463100556592002
3225,-0.011915027458089106
3226,-0.01951822806234258
3227,-0.028299380185430614
3228,-0.03811802008699097
3229,-0.04741014417382035
3230,-0.05431008131245965
3231,-0.05788037704606055
3232,-0.05826903182725215
3233,-0.055971792037859666
3234,-0.051359408552629625
3235,-0.04512063023362581
3236,-0.03894001151471275
3237,-0.035207075459856255
3238,-0.03554142050151791
3239,-0.03935382003655591
3240,-0.0439043607903703
3241,-0.04599539285070531
3242,-0.0438952511732081
3243,-0.03793521282369394
3244,-0.029584770838539824
3245,-0.020228312877490044
3246,-0.010886839808981436
3247,-0.0028461043498168147
3248,0.0019620512456885314
3249,0.0017138345907906519
3250,-0.003847376959007954
3251,-0.012611824691501666
3252,-0.020883967054291595
3253,-0.025296106773217787
3254,-0.024461834396287047
3255,-0.0192786623408415
3256,-0.011926524913274955
3257,-0.004497997043051795
3258,0.00180710967292934
3259,0.006639321624007844
3260,0.00995304438732673
3261,0.011514115459937191
3262,0.010861283543949897
3263,0.007782669127121779
3264,0.00297575870243306
3265,-0.0017070831602299455
3266,-0.0038879862427597537
3267,-0.001986818261134903
3268,0.0036594562393415892
3269,0.010844199316478224
3270,0.016808546993265845
3271,0.019822369818148337
3272,0.019763922383480747
3273,0.01739182464994416
3274,0.013278804428238365
3275,0.007627076136064311
3276,0.0010891295387659534
3277,-0.004565922521545073
3278,-0.007099757883174667
3279,-0.005506397626081968
3280,-0.0011517612792193435
3281,0.00298880748661278
3282,0.004534614488903402
3283,0.00336966349313406
3284,0.0012260172020975054
3285,-0.00033809503411512724
3286,-0.0014920575119845014
3287,-0.0036602424012835274
3288,-0.007578744159480524
3289,-0.011967297332201149
3290,-0.014268386591631472
3291,-0.012785284443213423
3292,-0.008145788672632243
3293,-0.0027407359134207776
3294,0.001182527319301178
3295,0.002873725597205034
3296,0.002756180554535117
3297,0.0011339171441555518
3298,-0.002439141439432169
3299,-0.008380672131688364
3300,-0.01579867550629653
3301,-0.02225134034356189
3302,-0.02506913114260473
3303,-0.02317607160626261
3304,-0.01782031580012066
3305,-0.011629952934604308
3306,-0.006892330866609571
3307,-0.004489024269196732
3308,-0.0041230261661345515
3309,-0.005249911404368486
3310,-0.007647578640282681
3311,-0.01114328500146566
3312,-0.014960102598444186
3313,-0.017527308772334833
3314,-0.01714298224537903
3315,-0.013081098849736694
3316,-0.006309223712862915
3317,0.0007659880658437731
3318,0.005432309673846582
3319,0.006005772408802881
3320,0.0025730828867116615
3321,-0.0032514349096312593
3322,-0.009323928875054824
3323,-0.014048046690449324
3324,-0.016877829041856453
3325,-0.01805522073975162
3326,-0.01794774873158715
3327,-0.016588099927645254
3328,-0.013771303134393481
3329,-0.009563888535264412
3330,-0.004739928399367837
3331,-0.0007355857931490904
3332,0.0008962842521381215
3333,-0.0008130215983804147
3334,-0.005812684279663669
3335,-0.013071121010925463
3336,-0.021005100670015323
3337,-0.0280407582277865
3338,-0.03305459077414127
3339,-0.03556260705282957
3340,-0.03566742677233088
3341,-0.03386820203056804
3342,-0.03086346282922705
3343,-0.02742949573979233
3344,-0.024367967142896477
3345,-0.022439510365931566
3346,-0.022192911051897506
3347,-0.023683724783782705
3348,-0.02621536865230669
3349,-0.028339809648834577
3350,-0.02830735139939798
3351,-0.024900712243837622
3352,-0.01822817831437301
3353,-0.009864380565571207
3354,-0.0019957925016832446
3355,0.004069602282428121
3356,0.009008874072855083
3357,0.01521234263077844
3358,0.025061674330578605
3359,0.03890414332413596
3360,0.054325193107294625
3361,0.06743812219245884
3362,0.0752816616911936
3363,0.07744421166309365
3364,0.07567582096286982
3365,0.07201550861221073
3366,0.06723852948326593
3367,0.06098146526526306
3368,0.05313943150521632
3369,0.044806034404752657
3370,0.03753069791888647
3371,0.03155625922875771
3372,0.025028946040432036
3373,0.015431731118102573
3374,0.0022421042507761086
3375,-0.01171845736192126
3376,-0.0218800509841977
3377,-0.02541378323689459
3378,-0.02361693558099842
3379,-0.020985359183525093
3380,-0.021697210908019043
3381,-0.026572350125251727
3382,-0.03306512968066114
3383,-0.037969137691205856
3384,-0.04005831152261123
3385,-0.0402346960470667
3386,-0.039471805247005956
3387,-0.037122469835121366
3388,-0.0316489335113979
3389,-0.02307807948489725
3390,-0.014408532081711735
3391,-0.010083891661478113
3392,-0.012689324865941118
3393,-0.02105044693490116
3394,-0.031665125096263784
3395,-0.042031637993267895
3396,-0.052463261745050754
3397,-0.064599613763763
3398,-0.0784447800678893
3399,-0.09147818882782463
3400,-0.10115207811383044
3401,-0.1081588044089926
3402,-0.11662322823362727
3403,-0.13059981768166162
3404,-0.15069811432501642
3405,-0.17517758965253616
3406,-0.2050650948075478
3407,-0.24735237264341123
3408,-0.31045982643484415
3409,-0.3930889217176433
3410,-0.4751798026667524
3411,-0.5200055902827347
3412,-0.48803185930799375
3413,-0.3534503276480872
3414,-0.11268917599709294
3415,0.21753382121734613
3416,0.6053118598575984
3417,1.0037485767231114
3418,1.347851330820022
3419,1.5595870043662423
3420,1.5705053602905386
3421,1.3560994955130288
3422,0.9604205613018186
3423,0.48919871043270413
3424,0.06847048688343566
3425,-0.20990885598943693
3426,-0.324026579171937
3427,-0.3193295952631287
3428,-0.2734305293367154
3429,-0.2531144385984573
3430,-0.28831517250199945
3431,-0.3718644098353649
3432,-0.47632571978830573
3433,-0.5725747456280539
3434,-0.6401863721009927
3435,-0.6691273830639626
3436,-0.6574743662879503
3437,-0.6090444121340141
3438,-0.5316985110514931
3439,-0.4355859884163684
3440,-0.3312076691107475
3441,-0.22792352226298596
3442,-0.1331900995823005
3443,-0.05211671114838363
3444,0.01296089371357552
3445,0.062463720253701935
3446,0.09855225215720356
3447,0.1234672818173406
3448,0.13848938556458606
3449,0.14437342087078742
3450,0.14261497179658236
3451,0.13595181979939736
3452,0.12729137550319303
3453,0.11804121539903498
3454,0.10764157955122633
3455,0.09496195384167905
3456,0.0802739658023641
3457,0.06583359266783079
3458,0.054454316616441345
3459,0.04743258343411474
3460,0.043760018123399816
3461,0.04119975238086361
3462,0.03800141651491366
3463,0.033620137929917845
3464,0.028063491061391662
3465,0.020961079907136665
3466,0.011596041906062626
3467,-6.280737227460953e-05
3468,-0.012464312577742068
3469,-0.02277940262559524
3470,-0.02832836466020217
3471,-0.028054825579456696
3472,-0.023025649994670404
3473,-0.015799297895684437
3474,-0.009249002178882713
3475,-0.005504033624266139
3476,-0.005339356041005142
3477,-0.008107475181001233
3478,-0.012241786501938324
3479,-0.016167540763107325
3480,-0.019083359572246928
3481,-0.02098140919232295
3482,-0.021859789531704598
3483,-0.020969697510478044
3484,-0.017148982084933692
3485,-0.01030353071231105
3486,-0.0026903310196466643
3487,0.0016482845140008834
3488,-0.0005154009364252883
3489,-0.008852644066386077
3490,-0.019100064035034753
3491,-0.025781876576108226
3492,-0.026022336372734885
3493,-0.021288757893912713
3494,-0.015609962247286191
3495,-0.01192993780937445
3496,-0.009891553371676643
3497,-0.006933636946418499
3498,-0.001452139123441727
3499,0.00510019387945322
3500,0.009171629687533883
3501,0.008147620151495547
3502,0.002561960211114069
3503,-0.0045001338493254744
3504,-0.010039070971899487
3505,-0.01320122412523151
3506,-0.014935152934035342
3507,-0.015933640005295232
3508,-0.015240460310912592
3509,-0.011120602110713189
3510,-0.0033871029834508393
3511,0.00523350546296894
3512,0.010334912602128774
3513,0.008878342665843454
3514,0.0015148564006964476
3515,-0.007795238484503125
3516,-0.014517403577211166
3517,-0.016338918444259533
3518,-0.013881750842375487
3519,-0.00916791923083989
3520,-0.0035919659260925793
3521,0.002695020081435401
3522,0.009694456605007309
3523,0.016209623921509292
3524,0.01990529011334622
3525,0.018993178786169775
3526,0.014060087278983408
3527,0.008248913711227929
3528,0.005397693257303929
3529,0.00755484077186084
3530,0.013855443219229862
3531,0.02156288574267941
3532,0.02824744018958072
3533,0.03323223760221666
3534,0.037267886791923416
3535,0.04104383937226892
3536,0.04408586418981776
3537,0.04505812126986627
3538,0.043104968741877775
3539,0.038954759492505646
3540,0.03481613549116741
3541,0.033199742365449425
3542,0.03562669180104562
3543,0.042088034125303236
3544,0.051371275193500654
3545,0.061750764998558264
3546,0.07151834209168925
3547,0.07922064685648059
3548,0.08377632644295023
3549,0.0846268960078042
3550,0.0818912285385804
3551,0.07640680637092175
3552,0.06959335817937426
3553,0.06313361616283969
3554,0.058480337690917095
3555,0.05627592616943326
3556,0.05595882886209005
3557,0.05592590060761189
3558,0.05435180960832263
3559,0.050208320214341684
3560,0.04368904472971038
3561,0.03561745500390934
3562,0.02633618750631376
3563,0.01520666146027465
3564,0.0014368269119533976
3565,-0.014309465608145947
3566,-0.029049345631964093
3567,-0.038529210129274405
3568,-0.03977311858079048
3569,-0.03328038663184871
3570,-0.023089254466845524
3571,-0.014550154099898583
3572,-0.01143986284348321
3573,-0.01443535136435639
3574,-0.02168566477936203
3575,-0.03051946710653264
3576,-0.03873043234431216
3577,-0.04474414046460743
3578,-0.047241607237434535
3579,-0.04519601374052015
3580,-0.03853146373566774
3581,-0.028686186027681502
3582,-0.018303166348012604
3583,-0.01011079270049408
3584,-0.005847006867745261
3585,-0.005974759527993332
3586,-0.01009489245220553
3587,-0.017332948821336874
3588,-0.02622668161805174
3589,-0.0344412204719303
3590,-0.039055467668739456
3591,-0.0376930022721393
3592,-0.029880047865427938
3593,-0.017620213665709615
3594,-0.004677759484629734
3595,0.005025144117349813
3596,0.008974785089498914
3597,0.006867389459982599
3598,0.0004636512031826229
3599,-0.007286753093348262
3600,-0.013488874175139472
3601,-0.016453547925886693
3602,-0.016198256341319606
3603,-0.013930106392088654
3604,-0.010793543392264519
3605,-0.006863930325433129
3606,-0.001347727530368957
3607,0.0060531456253139024
3608,0.013866646249871854
3609,0.019102989453063584
3610,0.01920526821885905
3611,0.014190996700919624
3612,0.007031937338959136
3613,0.0017235086113523619
3614,0.0005549118407126703
3615,0.002850798308499012
3616,0.006120525301513548
3617,0.00835949318001505
3618,0.009313055358098211
3619,0.009721162652288912
3620,0.009657747423672687
3621,0.007928724173275989
3622,0.003259244247414892
3623,-0.00399217975691752
3624,-0.011499559004151201
3625,-0.016525523939345234
3626,-0.017901455314852106
3627,-0.016501049158503176
3628,-0.01384162094679384
3629,-0.010410294547207807
3630,-0.005587496246771451
3631,0.0007063644357147624
3632,0.006477822555829293
3633,0.008170979121909828
3634,0.0031915913077277796
3635,-0.007656995027057396
3636,-0.02003373747816894
3637,-0.028457600620278717
3638,-0.029378404184007452
3639,-0.022756508528137032
3640,-0.011527591563389184
3641,2.15540701957867e-05
3642,0.00772311127531693
3643,0.008585176630345779
3644,0.0018429176125360834
3645,-0.010133556516181058
3646,-0.022129901243224268
3647,-0.028369274504767155
3648,-0.02585449206550653
3649,-0.016303385766145997
3650,-0.0047965653643391335
3651,0.004071179959092784
3652,0.009349972552108683
3653,0.013393955175088856
3654,0.018338306546892308
3655,0.02278767653618371
3656,0.022117465150747743
3657,0.012500969309622046
3658,-0.004844442290312399
3659,-0.023218722171040873
3660,-0.034628708004662515
3661,-0.03533779010412413
3662,-0.028233306922272175
3663,-0.020151436987164775
3664,-0.016524084113119
3665,-0.01777061343198582
3666,-0.020094805394915982
3667,-0.019510718886046774
3668,-0.015411688075994785
3669,-0.010806815798366023
3670,-0.009460292264639823
3671,-0.012716988453491403
3672,-0.018703046570374183
3673,-0.024248413944582346
3674,-0.027542428206455204
3675,-0.029179481931562074
3676,-0.03093197905771482
3677,-0.03362548918975425
3678,-0.03611577636359282
3679,-0.03622494527644206
3680,-0.03275215680337779
3681,-0.026836926368017766
3682,-0.021573436217638242
3683,-0.020160452731465665
3684,-0.023870683363564633
3685,-0.03110476389123865
3686,-0.0379971121119147
3687,-0.04014096600992101
3688,-0.03451110866690145
3689,-0.020691605096993748
3690,-0.0009213035366989152
3691,0.020942287179016535
3692,0.040916189638050694
3693,0.05605852511333263
3694,0.06489176986643458
3695,0.06730328493184193
3696,0.06446438550325578
3697,0.05893912794512607
3698,0.05444613845993186
3699,0.05457290573669773
3700,0.060613953177788255
3701,0.0699696842495264
3702,0.07682004918330397
3703,0.07533776850123862
3704,0.06347649846860356
3705,0.044413944625682045
3706,0.02428337245960773
3707,0.00785394571899107
3708,-0.004330102069510941
3709,-0.015016073053741804
3710,-0.02651186288204262
3711,-0.03765926690587021
3712,-0.04434299048473167
3713,-0.04309551431612388
3714,-0.03452235395625896
3715,-0.02348565159175392
3716,-0.015942073869023472
3717,-0.015179456049223605
3718,-0.020366597301075595
3719,-0.02797974345671065
3720,-0.034298922495955904
3721,-0.03694395820821926
3722,-0.0350608724745306
3723,-0.029158680593545008
3724,-0.02128191623820958
3725,-0.014941108670833026
3726,-0.013892648908194858
3727,-0.020087606810882397
3728,-0.0324354560178178
3729,-0.04764282378941186
3730,-0.06243083905210583
3731,-0.07505642976442141
3732,-0.08496088511832346
3733,-0.09162553811763818
3734,-0.09463407471211133
3735,-0.09522066503653515
3736,-0.09716401730401741
3737,-0.10497419239333976
3738,-0.12046242590078454
3739,-0.14158154926474986
3740,-0.16597564156780686
3741,-0.19641809974360644
3742,-0.24159175313068082
3743,-0.308467935910607
3744,-0.3905317797229165
3745,-0.4617621536130972
3746,-0.48314343134982984
3747,-0.4184477733880031
3748,-0.24846756689318977
3749,0.024504460764642307
3750,0.3798624143968796
3751,0.7805379481025948
3752,1.1692459023173254
3753,1.4670741571333195
3754,1.5882152872388378
3755,1.4744822450003887
3756,1.1331945418663174
3757,0.6504515452773876
3758,0.16261466537762131
3759,-0.20312605542628648
3760,-0.38463610608474585
3761,-0.4034799586292289
3762,-0.3380524550477502
3763,-0.27303509046722596
3764,-0.25883438139940185
3765,-0.3014657651143552
3766,-0.3787759218309469
3767,-0.4633653229510481
3768,-0.5355507267268667
3769,-0.5838494340129791
3770,-0.6011330810127495
3771,-0.5839761533193419
3772,-0.5351184133702002
3773,-0.46400718806565044
3774,-0.382687886088789
3775,-0.2999772778006338
3776,-0.2190514689359271
3777,-0.14011112015176064
3778,-0.06475997392145233
3779,0.0024914987751904517
3780,0.05671220930807606
3781,0.09598471062436906
3782,0.1221766965942678
3783,0.13859338521749506
3784,0.1472624075041044
3785,0.14856575647527856
3786,0.14307079020196262
3787,0.1330322335016209
3788,0.1216224562506076
3789,0.11065070833687192
3790,0.09932413922628222
3791,0.08558849673221844
3792,0.06889767942993869
3793,0.05172236849192907
3794,0.03826292818774532
3795,0.03146175726252806
3796,0.030915083869964378
3797,0.03332568091391552
3798,0.034828608450469714
3799,0.03311730506531254
3800,0.02791494449066413
3801,0.02005129591185302
3802,0.010437572733386302
3803,-0.0001937199130426717
3804,-0.010998370269156099
3805,-0.02086587970405818
3806,-0.02863531619938603
3807,-0.0333366648111602
3808,-0.0341929434838798
3809,-0.030662988857807456
3810,-0.02293840909118354
3811,-0.01266527474108754
3812,-0.0029751359396534196
3813,0.002798372317468808
3814,0.0030751793347122292
3815,-0.0009621518225219157
3816,-0.006379018177261324
3817,-0.01079837177823582
3818,-0.013971326727840246
3819,-0.017181432631518133
3820,-0.021144657707465916
3821,-0.024587116573025546
3822,-0.025035379270199058
3823,-0.02112180854654385
3824,-0.014133740473938679
3825,-0.007246334590440363
3826,-0.0031610043477700495
3827,-0.002384046326414966
3828,-0.003591708275565026
3829,-0.005327249234276858
3830,-0.007027837565962723
3831,-0.008391797722031939
3832,-0.008204921382465306
3833,-0.00454649293862463
3834,0.003226187514970855
3835,0.01259802257223645
3836,0.0184823954439213
3837,0.01650364341301254
3838,0.006440316560771454
3839,-0.007258263587901133
3840,-0.018531408069667167
3841,-0.023786295547849737
3842,-0.023562659641625804
3843,-0.020671491922484422
3844,-0.016961775480575446
3845,-0.011921176151388501
3846,-0.004233540897551205
3847,0.005619267727972551
3848,0.014575304523653998
3849,0.018927410417867385
3850,0.017103894537103814
3851,0.01067012594643859
3852,0.0028184836691355864
3853,-0.0039330374446822506
3854,-0.008633078302098156
3855,-0.010994544253461502
3856,-0.010309505293718522
3857,-0.0057780300001763684
3858,0.0020725663872986693
3859,0.010771927197812087
3860,0.017321315023825418
3861,0.020575263015541696
3862,0.022143113043801843
3863,0.024591565294342616
3864,0.028491095680955734
3865,0.03128409874301595
3866,0.029397534062363832
3867,0.021865917322516477
3868,0.01210228497267578
3869,0.006045411240848961
3870,0.008210609903227535
3871,0.01897166035783176
3872,0.035041798755068826
3873,0.05211329952640913
3874,0.06699935105432057
3875,0.0778155321639047
3876,0.08317030000840833
3877,0.08225571346856367
3878,0.07620380049534761
3879,0.068958764405263
3880,0.06578502182362873
3881,0.0698082883280834
3882,0.07936185142196044
3883,0.08873262522209249
3884,0.09204847562773122
3885,0.08719376266123992
3886,0.07660071950527697
3887,0.0646193354838694
3888,0.054147448917565025
3889,0.045475812262167584
3890,0.03779556610124849
3891,0.03118754494332417
3892,0.026777380739711594
3893,0.025025524274892477
3894,0.024277118826094735
3895,0.0214369560560021
3896,0.014314460933245454
3897,0.0033358195023819783
3898,-0.009068156325776254
3899,-0.02068581353999941
3900,-0.031023405875923216
3901,-0.040622890160690775
3902,-0.04916748531694494
3903,-0.05469812135064542
3904,-0.05506868011758129
3905,-0.05027621784783376
3906,-0.043187898560023266
3907,-0.03770015064342401
3908,-0.03597232084564908
3909,-0.03734028934128561
3910,-0.03978923986316016
3911,-0.04223887621059525
3912,-0.045143795167834
3913,-0.04885797696533187
3914,-0.051795945981653393
3915,-0.05082919405288462
3916,-0.04401627533477364
3917,-0.033061081157512745
3918,-0.022749489432527015
3919,-0.01740871094223465
3920,-0.017462455456116813
3921,-0.01930982418312659
3922,-0.018721672756640977
3923,-0.014624807852086748
3924,-0.009792789591198956
3925,-0.007932411887030897
3926,-0.010032307396925356
3927,-0.013366816615706614
3928,-0.013855014952545689
3929,-0.009341350834643831
3930,-0.0008333665289622654
3931,0.008937249438347717
3932,0.01767330332564028
3933,0.02421080333806
3934,0.027663874726490956
3935,0.026806038717069387
3936,0.021027323894754993
3937,0.011998528641071753
3938,0.003823056640958962
3939,0.0006941929789112422
3940,0.003753821829144322
3941,0.01008181518290846
3942,0.015003391721007522
3943,0.01576207059253701
3944,0.01323443767829712
3945,0.01023878478197204
3946,0.008305473527459434
3947,0.006219322184518884
3948,0.0017617869516017718
3949,-0.005225462717095896
3950,-0.011729345284300034
3951,-0.013763237834904542
3952,-0.009921644522754179
3953,-0.0029213113247128246
3954,0.0023910886182365934
3955,0.002803417061570606
3956,-0.0010450756869424893
3957,-0.00576741513732126
3958,-0.008382487714309758
3959,-0.00859415182167006
3960,-0.00837291625402645
3961,-0.009596787393537951
3962,-0.012095997438721102
3963,-0.013771783580927953
3964,-0.012445752243613047
3965,-0.00769866607099188
3966,-0.0012567736447204438
3967,0.004112919875204876
3968,0.0061343153853696385
3969,0.0039238339070007105
3970,-0.0020171781711763965
3971,-0.010325272882113256
3972,-0.01932987157606066
3973,-0.027450879807752623
3974,-0.03347661135392924
3975,-0.036751460584775054
3976,-0.03722695670480289
3977,-0.035366312778367194
3978,-0.03199243441345552
3979,-0.028175967942459825
3980,-0.025138942590329953
3981,-0.02404954582667005
3982,-0.025642105893782848
3983,-0.029777910333049582
3984,-0.03520163227635034
3985,-0.03972693706440063
3986,-0.04091614807732962
3987,-0.037083679254455215
3988,-0.028223587629310952
3989,-0.01633934508241333
3990,-0.004792715266365634
3991,0.003230973921349717
3992,0.006416776695057703
3993,0.00614569224711974
3994,0.005826134226296426
3995,0.009061118437428056
3996,0.017791055735977515
3997,0.03153294679776656
3998,0.04798046513068954
3999,0.06427437221597906
4000,0.07800401005980072
4001,0.08755560061710428
4002,0.0921038380461288
4003,0.09164291101993685
4004,0.08699554880313276
4005,0.07942213926591174
4006,0.06979897503302626
4007,0.058013302603389785
4008,0.04335414467206379
4009,0.025858611130521583
4010,0.007484189081205864
4011,-0.008204933236496285
4012,-0.01800480800463277
4013,-0.02131370433013583
4014,-0.020792635768638358
4015,-0.02074286239279504
4016,-0.024331154536414393
4017,-0.031702118675550464
4018,-0.04025048753728325
4019,-0.046625600625236005
4020,-0.04885620227511749
4021,-0.04715431410410027
4022,-0.0431227619678807
4023,-0.03823246286417728
4024,-0.03279826445273588
4025,-0.02619277562539011
4026,-0.01810674378212363
4027,-0.009847347998712643
4028,-0.004483250729877949
4029,-0.005369077814799054
4030,-0.013885971086676259
4031,-0.02812726727081117
4032,-0.04377700726538686
4033,-0.0567025234721715
4034,-0.06526473750335188
4035,-0.07057617045179507
4036,-0.07484106688542304
4037,-0.07962691136207156
4038,-0.08562941391767534
4039,-0.09353408252048823
4040,-0.1042648712981753
4041,-0.11794824338971377
4042,-0.13317946047573873
4043,-0.14866355256348088
4044,-0.16669622925666755
4045,-0.19472728814920132
4046,-0.24145076091598444
4047,-0.30841403572521553
4048,-0.382981435113761
4049,-0.43840014983371434
4050,-0.44118827139999506
4051,-0.3606038943230019
4052,-0.1754644312858411
4053,0.12062052434253681
4054,0.5109629820053927
4055,0.944696586228057
4056,1.3331223479715426
4057,1.5673241265454936
4058,1.559585545198794
4059,1.2905244612077689
4060,0.8313512890734205
4061,0.32050276152933743
4062,-0.09746336326768865
4063,-0.3362437046531268
4064,-0.39770465615458717
4065,-0.35291718250427806
4066,-0.2918610408050045
4067,-0.276083935935376
4068,-0.31990846568823017
4069,-0.40197709500347245
4070,-0.4899428781455608
4071,-0.5591768493094668
4072,-0.5979049038370038
4073,-0.6033773953099232
4074,-0.5771938355555344
4075,-0.5235676402108621
4076,-0.449168224609408
4077,-0.3621982778244907
4078,-0.27059769323181193
4079,-0.18083868376435103
4080,-0.09794238337060927
4081,-0.025800816518848798
4082,0.03313761731758468
4083,0.07840678057266338
4084,0.11116212022827579
4085,0.13281271636691622
4086,0.14399367173240363
4087,0.14512022258213875
4088,0.13796982797748727
4089,0.1263068394934479
4090,0.1143429555894679
4091,0.10418803293974191
4092,0.09482917743914498
4093,0.08390471300575884
4094,0.07076346175628659
4095,0.05786966281816757
4096,0.04908521959633473
4097,0.04633206577490541
4098,0.04768383571641175
4099,0.04858509500502684
4100,0.04504162073889671
4101,0.03602376961659999
4102,0.02334191462071917
4103,0.009670122770375055
4104,-0.0031803348023268395
4105,-0.014371971067075592
4106,-0.023047420194236765
4107,-0.027791264238088354
4108,-0.02740897818757651
4109,-0.0223210768073779
4110,-0.015079142103712058
4111,-0.009243014487001155
4112,-0.00735582284268877
4113,-0.0095883468134344
4114,-0.014061774522083726
4115,-0.018455475847879866
4116,-0.021518255108955622
4117,-0.023337901737919185
4118,-0.024394211870943563
4119,-0.024463241039452004
4120,-0.022471301919132682
4121,-0.017456954527061558
4122,-0.009765571360710032
4123,-0.0013884954191873144
4124,0.0048926598533650025
4125,0.006910903001315341
4126,0.0040814940050589565
4127,-0.0025403626402521716
4128,-0.010826720030606536
4129,-0.01823611153118012
4130,-0.022392561893488483
4131,-0.021777622957707073
4132,-0.016530772848989704
4133,-0.008796525577910289
4134,-0.0019407293582093968
4135,0.0012684126352030198
4136,0.0003394122492777512
4137,-0.0028057310844323696
4138,-0.00551584657817269
4139,-0.006584981143890362
4140,-0.007026804908948262
4141,-0.008728073275324686
4142,-0.012188635351658319
4143,-0.015460007045477727
4144,-0.015380504509823398
4145,-0.010161296742551996
4146,-0.0011510842917547555
4147,0.0077244710078152885
4148,0.012433503682374373
4149,0.011322684538669837
4150,0.005847156180910881
4151,-0.0007623815319191875
4152,-0.005703717572878943
4153,-0.008058492290403306
4154,-0.008645005968892137
4155,-0.00864629455586739
4156,-0.008206421565470754
4157,-0.006121542089618034
4158,-0.0009114712049919119
4159,0.007514065674757758
4160,0.016956689270108048
4161,0.023739772050828063
4162,0.02490750739495664
4163,0.020289015766146376
4164,0.012808789270973515
4165,0.006693419739518095
4166,0.00489750868116334
4167,0.007694484205600807
4168,0.013334495372890557
4169,0.019874931424912097
4170,0.026406049226758037
4171,0.03273898969321859
4172,0.03831555042655449
4173,0.04189968874700085
4174,0.04268021862513485
4175,0.041710041592383694
4176,0.041952312324575
4177,0.046405618081290685
4178,0.05572954241624608
4179,0.067510800554625
4180,0.07795437266475344
4181,0.08456857100901174
4182,0.08748019395839321
4183,0.08832165836411247
4184,0.08795254373998936
4185,0.08536488359610528
4186,0.07889688935977757
4187,0.06852441830160183
4188,0.05682736773263289
4189,0.04743567300461412
4190,0.04222192876120949
4191,0.03983456210742303
4192,0.037010579667033576
4193,0.031508897483156946
4194,0.02393999406066816
4195,0.0167790884873169
4196,0.011532744179291626
4197,0.006839645298435977
4198,-0.0005415321966550786
4199,-0.012640770666487134
4200,-0.027932041094426065
4201,-0.04199159056063839
4202,-0.05067875272834817
4203,-0.053044270443528684
4204,-0.05146152873610439
4205,-0.049082814628136705
4206,-0.04715366099271184
4207,-0.04468093966748864
4208,-0.04053836570827686
4209,-0.03568307516145992
4210,-0.03308417685833137
4211,-0.035263381446831124
4212,-0.041750283291255796
4213,-0.04892501400622362
4214,-0.05251658478913762
4215,-0.05058803611340878
4216,-0.04447709059342968
4217,-0.0371269411098867
4218,-0.030582527614498967
4219,-0.024948424024056372
4220,-0.019467308758466008
4221,-0.014296346018503998
4222,-0.011027074788891502
4223,-0.01137768334511267
4224,-0.015318627278144255
4225,-0.020423960242623794
4226,-0.02310143535133266
4227,-0.020741430649993793
4228,-0.013194535002025515
4229,-0.0027068143675851716
4230,0.0073539793401537455
4231,0.014026207072834255
4232,0.015809442156840624
4233,0.01305647642903584
4234,0.0077683892551978235
4235,0.0028273889796740334
4236,0.0007751459614179787
4237,0.0025871868919997497
4238,0.007162836775865104
4239,0.011985562968850089
4240,0.014636419807163282
4241,0.014173008429252398
4242,0.011444279829785478
4243,0.008211826951653952
4244,0.005831949157449577
4245,0.004490036582880963
4246,0.003424478979806897
4247,0.0017668293022763616
4248,-0.0007531311188848356
4249,-0.0037027430383822692
4250,-0.006320288470045718
4251,-0.007916552057641659
4252,-0.008011833841399722
4253,-0.00630914015274924
4254,-0.0027931374561974073
4255,0.0019602921828333307
4256,0.0065513335804190075
4257,0.009020245507337796
4258,0.0077189907374564685
4259,0.00236292950076374
4260,-0.005472650932987326
4261,-0.012901582115800836
4262,-0.017128914649939035
4263,-0.016883435059350325
4264,-0.01298120147224964
4265,-0.007691119673118898
4266,-0.003382764476849833
4267,-0.0013773414780196523
4268,-0.0016741134113694137
4269,-0.003515034572112278
4270,-0.0061645226503822155
4271,-0.009264493166627773
4272,-0.012617045127580655
4273,-0.015769633202464047
4274,-0.017881715828078546
4275,-0.018018472827671484
4276,-0.015620086474764476
4277,-0.010805683444693358
4278,-0.004394088683998476
4279,0.00225063576130698
4280,0.007457291985833326
4281,0.009633621279252432
4282,0.007858068941441254
4283,0.0024614761116196313
4284,-0.004864743693136811
4285,-0.011728326601091195
4286,-0.016173345571416135
4287,-0.01751851758995603
4288,-0.0162836274329813
4289,-0.013368885786155882
4290,-0.009338417542959422
4291,-0.004529249693068196
4292,0.00019828708125205056
4293,0.0030599518393771823
4294,0.0021023212993665826
4295,-0.0032219680289746907
4296,-0.01103133791185263
4297,-0.01773791477352087
4298,-0.020282596184579435
4299,-0.01820322952621506
4300,-0.013792496245052634
4301,-0.010142106555848508
4302,-0.008718861434974693
4303,-0.00858421757029473
4304,-0.007927097373384909
4305,-0.006454501400113876
4306,-0.006310830968135006
4307,-0.010457436419432514
4308,-0.019791599481543555
4309,-0.03160069508321375
4310,-0.040948788391355156
4311,-0.044063119808926486
4312,-0.04095785390982533
4313,-0.035103747510804154
4314,-0.03049164598485944
4315,-0.028689505831233766
4316,-0.028397999069792762
4317,-0.02763358011177044
4318,-0.02621513241114982
4319,-0.026020780228748718
4320,-0.028737497158312197
4321,-0.03338744572005764
4322,-0.0362643322216909
4323,-0.03362696181802878
4324,-0.02474555717191046
4325,-0.012393333110213518
4326,-0.00021467124026112495
4327,0.01060843903644967
4328,0.022225337959649774
4329,0.03763238752202006
4330,0.057102279943393945
4331,0.07683133397034585
4332,0.0910779219214129
4333,0.09594651551690443
4334,0.09168488311179786
4335,0.08193293412454886
4336,0.07106702330121745
4337,0.0620203206054898
4338,0.055841309345090184
4339,0.05229701567817225
4340,0.05016359263235148
4341,0.04695373549349739
4342,0.03917257073958075
4343,0.024027131348892998
4344,0.0018587532042859535
4345,-0.022784354898796336
4346,-0.042910702602556375
4347,-0.05289297811045076
4348,-0.05164677696954937
4349,-0.042837284109674
4350,-0.03211430884389746
4351,-0.023688861270472095
4352,-0.018844675995987364
4353,-0.01707273367827772
4354,-0.018190757696957577
4355,-0.023128663893589814
4356,-0.03257068289092546
4357,-0.0449259558029476
4358,-0.056015795549786765
4359,-0.06145056311457293
4360,-0.06006287846470958
4361,-0.05536016825323275
4362,-0.05330744045977294
4363,-0.057955337467024526
4364,-0.06863196389353149
4365,-0.08129363388294489
4366,-0.09282928842019286
4367,-0.10412144415084434
4368,-0.1186884458962453
4369,-0.13825378316772752
4370,-0.16025793050803572
4371,-0.1809530388139112
4372,-0.20185687143174108
4373,-0.23257416489225313
4374,-0.28478246413294106
4375,-0.35995678398750297
4376,-0.44019028783892766
4377,-0.490304600730882
4378,-0.47069580911275133
4379,-0.35210728377719647
4380,-0.12376616133589607
4381,0.20548367120048466
4382,0.6064458636492075
4383,1.0252781557630422
4384,1.3819437559239218
4385,1.583814597686041
4386,1.558961198678203
4387,1.2954266466426276
4388,0.860190345041896
4389,0.3787754674590512
4390,-0.01852920745774239
4391,-0.25369748533500885
4392,-0.32757302312140335
4393,-0.3030093124147718
4394,-0.26021078540576237
4395,-0.2549161410643699
4396,-0.30197611678365144
4397,-0.3853217114192314
4398,-0.4786562217188439
4399,-0.5603647161453584
4400,-0.6171822741958668
4401,-0.641756529352894
4402,-0.6310061813822363
4403,-0.5869064960881528
4404,-0.5166645755680099
4405,-0.4299522488534677
4406,-0.3348599045923274
4407,-0.236220036700939
4408,-0.13762009884716014
4409,-0.04453702641431134
4410,0.03512384018484445
4411,0.09408031413388303
4412,0.12965175516687097
4413,0.14508020884301903
4414,0.14711675624156917
4415,0.1420743366061183
4416,0.1335086181686615
4417,0.12276406910057955
4418,0.11095780656636793
4419,0.1000642718429223
4420,0.09213445487508852
4421,0.08770857264624914
4422,0.08519203560601693
4423,0.08188449687180213
4424,0.07572474192871262
4425,0.06624374288251375
4426,0.054140326794750615
4427,0.0402783458741037
4428,0.025338350461231705
4429,0.010438097155225347
4430,-0.00223739522033033
4431,-0.009986691573481594
4432,-0.011337128214831394
4433,-0.00754659580752748
4434,-0.0022671550695332714
4435,0.00070537370003791
4436,-0.00016480967166454747
4437,-0.0036547985870610763
4438,-0.007550163562187564
4439,-0.010906487482005608
4440,-0.014595749924081018
4441,-0.019698165134614275
4442,-0.025539434498375903
4443,-0.02957639202546116
4444,-0.029429603867201636
4445,-0.02508065965376991
4446,-0.018991474943334946
4447,-0.013995430220962413
4448,-0.011100552778068942
4449,-0.009409131269930088
4450,-0.008079778516752806
4451,-0.008022888222894254
4452,-0.011239044724412537
4453,-0.018244702992100768
4454,-0.026262027523029245
4455,-0.030379939679790156
4456,-0.027068959803466935
4457,-0.017043464821154986
4458,-0.004913080243795996
4459,0.0040686116920129545
4460,0.007343679414182007
4461,0.005849496567320447
4462,0.0021513186653446155
4463,-0.0019358368915545934
4464,-0.006087589921539141
4465,-0.010392707834663388
4466,-0.014054676234868342
4467,-0.015394556537949524
4468,-0.013117465071716917
4469,-0.007513298081189353
4470,-0.00045136502311106104
4471,0.00572589540827325
4472,0.009374532301969659
4473,0.009941382139745122
4474,0.0076080153193427815
4475,0.002795255721752754
4476,-0.004015348522683237
4477,-0.012168125204767833
4478,-0.02067695012514427
4479,-0.028159421152870477
4480,-0.03288630369780257
4481,-0.033063630313107634
4482,-0.027512137608468375
4483,-0.01660481133074178
4484,-0.0028348815972694063
4485,0.00970930851184668
4486,0.017049934587684987
4487,0.01733139338474053
4488,0.011836183316284159
4489,0.0042882751933005754
4490,-0.0011053758122541034
4491,-0.001631293153021924
4492,0.0030057576089019843
4493,0.011018633802963657
4494,0.019594219968414414
4495,0.026011440199770176
4496,0.0285040007479105
4497,0.02682672215462985
4498,0.02243379992315918
4499,0.018041879347329065
4500,0.01651052957179887
4501,0.019447802943399962
4502,0.02632203367429245
4503,0.034704010310390124
4504,0.04158961367728176
4505,0.04504250191490826
4506,0.04518369764662116
4507,0.043982830653027806
4508,0.04404883132199425
4509,0.04717243639254768
4510,0.053429339413174085
4511,0.06125014039896516
4512,0.06829987046238313
4513,0.07262107639059011
4514,0.07346552007827181
4515,0.07151805863403371
4516,0.06856376294071666
4517,0.06682531239598524
4518,0.06815073650017575
4519,0.07315167154034131
4520,0.08049197117038301
4521,0.08676973309446322
4522,0.08747656702639939
4523,0.07903725760432874
4524,0.061071974893906714
4525,0.037447095415042625
4526,0.015067859532020611
4527,0.0007077520735126238
4528,-0.0024085354507714547
4529,0.0038230619433971907
4530,0.013656302927125075
4531,0.02076459908703885
4532,0.02142101959508162
4533,0.015729355803762474
4534,0.006499532503499293
4535,-0.0030931896304756193
4536,-0.011363543416671566
4537,-0.01843932442028668
4538,-0.025234511392353415
4539,-0.03213510019224276
4540,-0.03845963727300439
4541,-0.04301523345853999
4542,-0.04518704888378359
4543,-0.04560589849974412
4544,-0.04579509441005711
4545,-0.04703226210820023
4546,-0.04932774649639014
4547,-0.05136184836960837
4548,-0.05144628829882866
4549,-0.04872354746771791
4550,-0.04365057781369808
4551,-0.03749340681895275
4552,-0.031437226491653376
4553,-0.026135221571834424
4554,-0.02189450597207046
4555,-0.018950007952914735
4556,-0.017276730271669666
4557,-0.016156699305163308
4558,-0.014312715529235704
4559,-0.01097512177262144
4560,-0.007059788268339281
4561,-0.005040408581687015
4562,-0.0070517698919781244
4563,-0.012598513783586196
4564,-0.018098958124795506
4565,-0.019182736250867784
4566,-0.014129103645866618
4567,-0.005482386695730132
4568,0.0017673473423416306
4569,0.00404242278894222
4570,0.0017986721746664676
4571,-0.0012780625015432264
4572,-0.0016100765857919512
4573,0.001455904915754674
4574,0.005675220654711984
4575,0.008312709043656042
4576,0.008410622862286367
4577,0.006944677223844322
4578,0.005234699093892796
4579,0.003592222412257617
4580,0.0015372452644992014
4581,-0.001055507597271365
4582,-0.0035415930514059025
4583,-0.005459429447317767
4584,-0.007647805376126639
4585,-0.01183710677972915
4586,-0.0185833701018267
4587,-0.025443903556247028
4588,-0.027562710812599957
4589,-0.020828500400475836
4590,-0.005303353972542751
4591,0.013924319782755348
4592,0.029331354140522136
4593,0.03512309820438789
4594,0.02999742459125286
4595,0.016902545132701223
4596,0.00060998934547173
4597,-0.014730572510676186
4598,-0.026536892805049703
4599,-0.033406948691477645
4600,-0.0346033665307386
4601,-0.03022873653824527
4602,-0.021779221867268585
4603,-0.012145996709828882
4604,-0.004597162416835214
4605,-0.001262334560742705
4606,-0.002164347089959347
4607,-0.005447275209784726
4608,-0.008563616860191147
4609,-0.00959334430138254
4610,-0.007969996533916461
4611,-0.00443026501839119
4612,-0.0004549817193523443
4613,0.0024395677191911182
4614,0.0033229366894778653
4615,0.0022134084117432264
4616,-1.2900990385285326e-05
4617,-0.0022632708299443133
4618,-0.004159803963504773
4619,-0.006606447884048535
4620,-0.01135205117879738
4621,-0.019548050718007644
4622,-0.030192270911813965
4623,-0.03974256793536566
4624,-0.043574020224956905
4625,-0.03863515533894371
4626,-0.025614053787039195
4627,-0.00905286462287741
4628,0.004823918092566381
4629,0.011238285559811632
4630,0.009007543202455472
4631,0.0005619858861367568
4632,-0.009825177498811573
