,0
0,-0.015570089293356331
1,-0.015977975208766895
2,-0.017812583810633296
3,-0.021744318458081516
4,-0.0268839768216697
5,-0.03068335421751848
6,-0.03039933940107068
7,-0.02555663512767766
8,-0.019203353093326023
9,-0.01612435123467689
10,-0.018906548774121595
11,-0.025321282576986986
12,-0.029903076468208674
13,-0.028823243220067518
14,-0.023680944374654535
15,-0.02037679584692446
16,-0.023723573394520473
17,-0.032698133287237016
18,-0.040952018785895224
19,-0.04237374640655335
20,-0.03666157320741348
21,-0.02971464180728868
22,-0.028396965692632496
23,-0.03436744702804229
24,-0.042383236170656896
25,-0.04428519765820632
26,-0.03490729174810475
27,-0.015006960055010943
28,0.010374481939227251
29,0.035556215764829494
30,0.05632087589249655
31,0.06957910756460561
32,0.07272286556404603
33,0.06483148595671023
34,0.049016172464163794
35,0.0327713632528662
36,0.024301455254741068
37,0.02678082229597927
38,0.03542668245597011
39,0.04072369999977839
40,0.03591929905524484
41,0.02265653363014193
42,0.009607473566486701
43,0.004872606429790602
44,0.008637705220901393
45,0.012749745673942462
46,0.007910846921561174
47,-0.0077662606632217
48,-0.026631673245321886
49,-0.03797616792087299
50,-0.037405805139757706
51,-0.030536873632560933
52,-0.0275085351031722
53,-0.03337006846713922
54,-0.04344759972846436
55,-0.048256612817162654
56,-0.04340210999574245
57,-0.034846875211911904
58,-0.03408042790682833
59,-0.047472209848106746
60,-0.07008626755280832
61,-0.09028573041272195
62,-0.1009354449076725
63,-0.10613397156883314
64,-0.11640261510825958
65,-0.1367987837103193
66,-0.16017236654676192
67,-0.17339834392140874
68,-0.17141116682138466
69,-0.16502882991918522
70,-0.17349405478411753
71,-0.2074704715666043
72,-0.2583291141021723
73,-0.3040010120170784
74,-0.32506583444820625
75,-0.3139094732308911
76,-0.2670504221124298
77,-0.1701942031693393
78,0.002819214103210052
79,0.2667365718283302
80,0.5925279643226844
81,0.8972457153865264
82,1.0751676022515047
83,1.0557758249654885
84,0.8481398558847866
85,0.5375381700655406
86,0.2355339662891337
87,0.019739403264096993
88,-0.09533054929071834
89,-0.14255313495516742
90,-0.16292878397587626
91,-0.17685689340728655
92,-0.1833269315758621
93,-0.17725107866493842
94,-0.16288268675782874
95,-0.15152832404709068
96,-0.15030057975555938
97,-0.1561590657905158
98,-0.16091158434578412
99,-0.16003325946129415
100,-0.15525269751721005
101,-0.149409518273849
102,-0.1411513601194005
103,-0.12639398057972356
104,-0.10469013052279019
105,-0.08237905972209103
106,-0.06786478172145977
107,-0.06350845428702336
108,-0.06295774046304667
109,-0.05726302775568168
110,-0.04375211791441467
111,-0.02855515889854876
112,-0.020243831151320942
113,-0.021244262869399587
114,-0.02578649974328689
115,-0.02612699103213479
116,-0.020225477410233422
117,-0.012943336402309614
118,-0.010025948017268364
119,-0.01175655374531062
120,-0.013157854705585703
121,-0.010232515550168242
122,-0.005071947738813859
123,-0.0039051711445438064
124,-0.009947684565871228
125,-0.01884897054330125
126,-0.02213771615736809
127,-0.015659962183953668
128,-0.0043983268296316855
129,0.0016761350857220172
130,-0.0029757486427421168
131,-0.014058292317246854
132,-0.021594837117983812
133,-0.019674914101005442
134,-0.012140875991709967
135,-0.008525257931600052
136,-0.014285081604733914
137,-0.025122382132931026
138,-0.031133335289254195
139,-0.02672268413552417
140,-0.016460049305830646
141,-0.011056074753888746
142,-0.017344754670803993
143,-0.031916905978198316
144,-0.044305191839260884
145,-0.046326557689836616
146,-0.0386015177019414
147,-0.02860356889910062
148,-0.023057721742273926
149,-0.022515757736955813
150,-0.02287808624073851
151,-0.021211125478060863
152,-0.019202687518281414
153,-0.020771069473289563
154,-0.026894984243173405
155,-0.03363356951699012
156,-0.03569826257980434
157,-0.03186779692524207
158,-0.026473689668367606
159,-0.025234259040520058
160,-0.029586131543795767
161,-0.03525393448930372
162,-0.036509680431292914
163,-0.03182606471000517
164,-0.025256463917286233
165,-0.022207584435927373
166,-0.023893669353484998
167,-0.026044112243470433
168,-0.02315716436632124
169,-0.01406117078459002
170,-0.003251889687029875
171,0.003336352557664373
172,0.003967461257695639
173,0.0026097502537821473
174,0.004861919436715921
175,0.012367759155005285
176,0.021280654539147393
177,0.026303418556862516
178,0.026232098557964295
179,0.025347743524225367
180,0.02909497253399603
181,0.03827720577037266
182,0.04768919511724255
183,0.050846254393639954
184,0.04634016890507008
185,0.03947445693397081
186,0.03727863604676169
187,0.04156059052842492
188,0.046827105573383404
189,0.04534447362212695
190,0.034629028916380485
191,0.020109345050151176
192,0.010233714004112323
193,0.008605798691363744
194,0.010688632433726867
195,0.008269470642729829
196,-0.0025901578077690193
197,-0.017728125693803953
198,-0.02876254807295423
199,-0.03083453775456864
200,-0.02676619331539032
201,-0.023834984153313563
202,-0.026591503641511922
203,-0.03286056032595404
204,-0.03671348793179158
205,-0.03518153292992298
206,-0.0317455588957742
207,-0.03286533747639317
208,-0.040842891401935436
209,-0.05023671827998605
210,-0.05190710818543064
211,-0.041443846197005946
212,-0.024195542574350998
213,-0.011841723419462392
214,-0.013067705661394277
215,-0.02639045989177592
216,-0.04141544277418158
217,-0.047355002422195785
218,-0.04132532120578797
219,-0.029465793677133582
220,-0.02061155672382764
221,-0.018774962472190147
222,-0.021114271654172904
223,-0.022362638094451243
224,-0.020585879948526547
225,-0.01845747863556297
226,-0.01930073000056136
227,-0.022624478852743386
228,-0.024217095935328076
229,-0.020842362748162573
230,-0.014475870254701723
231,-0.011211055598231892
232,-0.015401237118931507
233,-0.02476576863313635
234,-0.031651256993737435
235,-0.029682919820403726
236,-0.01955438706672659
237,-0.008313111121346344
238,-0.0028035935275179994
239,-0.0037131846195788236
240,-0.00605446247531234
241,-0.00538768541126811
242,-0.0031612768688545
243,-0.005330054205108445
244,-0.01532905587136973
245,-0.028638709511394255
246,-0.03515489734062655
247,-0.028003836782558994
248,-0.010657094727569994
249,0.004871393615690051
250,0.007808200004106062
251,-0.0022533984611801585
252,-0.015241275019987073
253,-0.019654859820913466
254,-0.01250956345045721
255,-0.0012546701122807403
256,0.0036213306935591856
257,-0.0019559120647270247
258,-0.012784595459668643
259,-0.020051637824098648
260,-0.019443731054256976
261,-0.013994000978416316
262,-0.009781490884925435
263,-0.009646884844332352
264,-0.011356293594112127
265,-0.011369548066047808
266,-0.009426725300270989
267,-0.008740301785052716
268,-0.011792512070069521
269,-0.016757984929373963
270,-0.01893430951517737
271,-0.01595848133350926
272,-0.01109945023946305
273,-0.01054955304664873
274,-0.016931359575516697
275,-0.025646965720558253
276,-0.02836584282131535
277,-0.020881727738260525
278,-0.007817252563855598
279,0.0007706761829511895
280,-0.001847745064145665
281,-0.013027426974920635
282,-0.02316321739542205
283,-0.02439496847834237
284,-0.01750041097665974
285,-0.010642009021369123
286,-0.011380938862551655
287,-0.019638048856988666
288,-0.02812325120682367
289,-0.029453856306414887
290,-0.022896330716160575
291,-0.014390364864159386
292,-0.010304687535350309
293,-0.011415983749668866
294,-0.013009486442414696
295,-0.010582519952133915
296,-0.004973564118802835
297,-0.0015304845254870054
298,-0.004264687814069588
299,-0.011251863767153699
300,-0.01631163389408368
301,-0.01541767336648155
302,-0.011145107677709517
303,-0.010221457317617927
304,-0.016340423720637445
305,-0.025603978794165358
306,-0.029703313132591825
307,-0.024173525737594216
308,-0.013539790968832902
309,-0.007757440063476593
310,-0.012840443092798628
311,-0.024631257804633315
312,-0.03205730814274403
313,-0.027197485463762876
314,-0.012784343489008528
315,-3.2001249252605786e-05
316,0.0011941253095605888
317,-0.009301892668809746
318,-0.02271338416056952
319,-0.029668769367079774
320,-0.028113501535064627
321,-0.023538678629406878
322,-0.022361346388139705
323,-0.02571817073080549
324,-0.029683868062196708
325,-0.030758692278101386
326,-0.0300671217136307
327,-0.03158535053164111
328,-0.03660149912345074
329,-0.0409989384236893
330,-0.039041863452994666
331,-0.030122516778603857
332,-0.021110570209224
333,-0.020893443156200304
334,-0.031715406634342615
335,-0.04581465740550147
336,-0.05127300366826844
337,-0.042091833862134165
338,-0.0230652190189995
339,-0.004712474365971777
340,0.006918769771608438
341,0.015630572691025392
342,0.030177747883163887
343,0.05366669966496553
344,0.07773672250231048
345,0.08789918835290672
346,0.07590544245730654
347,0.04799878920811785
348,0.021152352433656114
349,0.010088472681626805
350,0.016193482612660234
351,0.027741886936240558
352,0.030766310472409852
353,0.02073266229789278
354,0.00510107124125346
355,-0.004502084806826078
356,-0.002673131829506575
357,0.00602642348810374
358,0.012256353705723307
359,0.010134821364936455
360,0.000846368330399614
361,-0.010555356749452554
362,-0.02058775100593277
363,-0.02916107990734222
364,-0.036748282193570264
365,-0.04125715822496389
366,-0.039120853277685566
367,-0.030031604679747907
368,-0.020018681902135245
369,-0.018498743136695073
370,-0.030885167773744834
371,-0.05333868559906253
372,-0.07499411745662682
373,-0.0863500866238733
374,-0.086711731010483
375,-0.0842034428679154
376,-0.08843187974034276
377,-0.10234210594208792
378,-0.12033836373731277
379,-0.13402981066686004
380,-0.14026645456782016
381,-0.1443250902825426
382,-0.15554100572263607
383,-0.17930830609149778
384,-0.21244360615207938
385,-0.24581580457748647
386,-0.2714748249796035
387,-0.28696812060718185
388,-0.29144729177708795
389,-0.27579519612776154
390,-0.21642731119236908
391,-0.08262392400446956
392,0.1419927888860839
393,0.4361929071685727
394,0.7345939218493827
395,0.9485490022301322
396,1.0068187255129648
397,0.8925061921134907
398,0.6524170579089125
399,0.3721412570137844
400,0.13275320909716026
401,-0.023757876406925227
402,-0.10144262489191988
403,-0.13127439445197664
404,-0.144010987887367
405,-0.15415340667279376
406,-0.16153311347494392
407,-0.1627779759061579
408,-0.1600066673491677
409,-0.1601306063287713
410,-0.16780089720758753
411,-0.17988474031019241
412,-0.18673194826416467
413,-0.17913374180683114
414,-0.15538947968550249
415,-0.12316316790640486
416,-0.09481757017256781
417,-0.07951826625937579
418,-0.07761284615290187
419,-0.08123006177501424
420,-0.08060204280324612
421,-0.07127373254263673
422,-0.05656063275788595
423,-0.04345792234066618
424,-0.035848103627119765
425,-0.03131897606986245
426,-0.024556588820891095
427,-0.013872887934238387
428,-0.004089923856028169
429,-0.0023551404963533373
430,-0.010615186864135207
431,-0.02235157954946493
432,-0.027496124317745143
433,-0.02139512624727525
434,-0.009233581484549457
435,-0.0012853477895348256
436,-0.0032291743357730157
437,-0.010850028948085788
438,-0.014424085310836287
439,-0.008629257604322399
440,0.0017795354690330557
441,0.00631300577094727
442,-0.0009580070949256518
443,-0.015255194488882977
444,-0.025312225695473815
445,-0.02404489032569078
446,-0.015307002537136252
447,-0.010050722585619377
448,-0.015529833356717378
449,-0.028050733138605455
450,-0.036402083781528996
451,-0.03270847854011688
452,-0.020184638181358808
453,-0.010231759773920168
454,-0.011647690399468863
455,-0.022361639742401844
456,-0.03163377430908837
457,-0.030518405917292366
458,-0.020447825429952455
459,-0.011715067007602591
460,-0.013454856770004594
461,-0.02486079620705729
462,-0.03601511641480395
463,-0.03732716197275316
464,-0.028376962312110135
465,-0.017806515508579444
466,-0.014749749901005539
467,-0.02038566805797666
468,-0.027729147624716278
469,-0.029438346643085967
470,-0.02554806054882253
471,-0.023318333067733163
472,-0.02938146500424011
473,-0.04209933664451997
474,-0.05191189969421093
475,-0.04965663137860009
476,-0.03504115762195426
477,-0.017229647654290754
478,-0.00699652339544391
479,-0.00780227783685018
480,-0.013911851995616167
481,-0.01678379488666225
482,-0.013217772507287322
483,-0.0075344364939806865
484,-0.006226968746041783
485,-0.010816259738868662
486,-0.016017767845048325
487,-0.014774298182340592
488,-0.004959119514292845
489,0.008784808929508774
490,0.019528115826690964
491,0.024141833168257146
492,0.02509958701696538
493,0.02677971142165543
494,0.03056224509196573
495,0.03380254450970983
496,0.033335976567561286
497,0.029376072525426754
498,0.025509627480445655
499,0.024926417670565335
500,0.02715631769332294
501,0.028950435215915817
502,0.02825643198978748
503,0.02666294781856824
504,0.027267234165942802
505,0.03012477916344375
506,0.030607136745176
507,0.02334404334875323
508,0.008350699386571316
509,-0.007155687932346794
510,-0.014103850874077797
511,-0.009725013500315138
512,-0.0006736742967179056
513,0.0024826850331336526
514,-0.0052734700288488805
515,-0.018849107314454466
516,-0.027871083582165973
517,-0.026443261918518847
518,-0.018542255604683366
519,-0.013930307279196195
520,-0.01864808183428744
521,-0.029355286900548512
522,-0.036903104109448734
523,-0.03543132268654627
524,-0.027982503717451628
525,-0.023260460857762982
526,-0.026962311299514277
527,-0.03629977400865672
528,-0.04291022830091186
529,-0.04098862286439104
530,-0.0325504724146848
531,-0.02493836102422245
532,-0.02348683732278113
533,-0.026778144520008058
534,-0.028900347506513935
535,-0.02595507547385789
536,-0.020043983045656612
537,-0.01686969036314949
538,-0.01965883572317115
539,-0.025666880293425273
540,-0.028719596623484125
541,-0.025164160020564104
542,-0.01735466221363525
543,-0.01139344277857442
544,-0.011481092968781673
545,-0.016327327404293723
546,-0.020829813140879068
547,-0.02107752306880431
548,-0.017732081275837065
549,-0.014705522136961519
550,-0.014752914525358048
551,-0.016518714147773665
552,-0.01599028784758998
553,-0.010874041439689088
554,-0.0034593587284252516
555,0.0010583651906353523
556,-0.0006187209534156079
557,-0.0065792228527464325
558,-0.011279716231621922
559,-0.010761737319445398
560,-0.006580833546024681
561,-0.004482802768331095
562,-0.008797333268674185
563,-0.017805105025968243
564,-0.024703082970573248
565,-0.023574319668318282
566,-0.01485176389823072
567,-0.0050226251497411285
568,-0.0007392198271085038
569,-0.0029360031246914156
570,-0.006608815224739556
571,-0.006372233379498651
572,-0.0021672701673966775
573,0.0006820677988573739
574,-0.0028353521776213193
575,-0.011781083322499091
576,-0.019592102688258388
577,-0.020292012016214202
578,-0.014438340530866883
579,-0.00871692117957162
580,-0.00939286220967259
581,-0.01607309077875029
582,-0.022048122848138556
583,-0.020930780507185904
584,-0.012966736530093217
585,-0.004707284719080725
586,-0.0024430272454116515
587,-0.006109222456665903
588,-0.009850067244092188
589,-0.008573331202960836
590,-0.003629537511252035
591,-0.0015897785627135032
592,-0.007197037158752974
593,-0.01771180888907535
594,-0.02471506074992217
595,-0.021986226055080722
596,-0.0117934022986536
597,-0.0032199903578171117
598,-0.0038732831144009288
599,-0.012863323119584696
600,-0.02179384223200826
601,-0.02276314339905673
602,-0.015641609786216367
603,-0.007744064468486571
604,-0.006507111615501278
605,-0.01247790314308385
606,-0.019321483970812403
607,-0.020456999117918297
608,-0.01549040178284181
609,-0.01012423756285084
610,-0.009956464190999829
611,-0.014666057877472043
612,-0.01848679429272166
613,-0.01635778628031354
614,-0.009366814541888806
615,-0.0038653939637923016
616,-0.0050965198945664095
617,-0.011783094635355134
618,-0.0172203629662937
619,-0.015892636494142985
620,-0.009029604087115535
621,-0.003477498708333286
622,-0.004898645213944364
623,-0.012045343947196517
624,-0.017916257940391832
625,-0.01680657671077547
626,-0.010289123778123034
627,-0.006017381088462797
628,-0.01025906061047767
629,-0.021417505409895527
630,-0.031109529302191255
631,-0.0320827615682065
632,-0.02539610089180833
633,-0.019692697697320245
634,-0.022930228420371096
635,-0.034390406838283996
636,-0.04480012736249213
637,-0.04471609929213405
638,-0.03329592099846873
639,-0.01907191099516487
640,-0.01199354618796137
641,-0.01442416827959387
642,-0.019720010871080537
643,-0.019537920450783744
644,-0.012480209612286866
645,-0.005519610975821448
646,-0.0069431513363208686
647,-0.017967439698500624
648,-0.031306772318507134
649,-0.037823364765201116
650,-0.03432558480964561
651,-0.024791393597658088
652,-0.014416466876730236
653,-0.0034031136171267925
654,0.012542178450671966
655,0.03547127692803818
656,0.059742383475103904
657,0.07448608564403815
658,0.07247357749869919
659,0.05685945231627907
660,0.038839629305691965
661,0.028105061477343873
662,0.025188813598055283
663,0.02297250423170594
664,0.015465782628405741
665,0.004731871804140168
666,-0.0011333217356309859
667,0.003197677821622825
668,0.01391871445536911
669,0.020986216794240863
670,0.017632211985276237
671,0.006925435152901253
672,-0.0014274011011711505
673,-0.0010387570159165545
674,0.00443946882946683
675,0.0048190842054155756
676,-0.006118426761584575
677,-0.02358902066458269
678,-0.03560917989536308
679,-0.03434148300324992
680,-0.023964381286314715
681,-0.01708669820055698
682,-0.0228380339600949
683,-0.0381255335044076
684,-0.05075453276882945
685,-0.05160536925214472
686,-0.044020773518298875
687,-0.0410438709900731
688,-0.05299868640397104
689,-0.07754907370571418
690,-0.10209795194277063
691,-0.11616828733330431
692,-0.12132343094079742
693,-0.12855747190762767
694,-0.14587995630885822
695,-0.16919552501296697
696,-0.18661529998206355
697,-0.19244214882709365
698,-0.1962135946563984
699,-0.2159982421445586
700,-0.260631858454767
701,-0.31735779489303206
702,-0.356964492952396
703,-0.3517125508350468
704,-0.2890517455500164
705,-0.16941254988276183
706,0.005708908852292086
707,0.23749590856555597
708,0.5158198196351498
709,0.7994167781284425
710,1.0146636773850197
711,1.0854559181485852
712,0.9784657963771706
713,0.729559786692402
714,0.4277346061704574
715,0.16564275619051294
716,-0.007592033353822756
717,-0.09863294282471816
718,-0.14431041289105057
719,-0.17472586997199413
720,-0.19577598601079793
721,-0.19953961751225485
722,-0.18509527247995827
723,-0.16647496866331338
724,-0.16121717411062153
725,-0.17357352350438843
726,-0.1905903108797658
727,-0.1948030081094059
728,-0.18030922665583188
729,-0.15655606114878157
730,-0.1374289976234657
731,-0.12771872725260508
732,-0.12037224933926541
733,-0.10596401918318699
734,-0.08357875866460937
735,-0.061928471174536356
736,-0.050341477225154335
737,-0.04950697881273935
738,-0.051340255285194064
739,-0.04744403424869184
740,-0.03704034230932599
741,-0.026488481164317693
742,-0.021629107225184296
743,-0.02143610440588517
744,-0.019577387799762265
745,-0.01189362843026322
746,-0.0016050161931433062
747,0.0034627946796026445
748,-0.0010614132509948252
749,-0.011058729029951277
750,-0.017312358354956574
751,-0.014246381419205922
752,-0.005411449002495036
753,-0.0001389384283458872
754,-0.0044297253662056
755,-0.014908998089085827
756,-0.021846352245321325
757,-0.018487637284905458
758,-0.007754633210864303
759,0.00021748938164814198
760,-0.0025146780452177586
761,-0.014246608064020802
762,-0.02517749495133714
763,-0.026456364202984483
764,-0.018143726020382174
765,-0.00870099504009288
766,-0.006812813254451463
767,-0.013561019195114429
768,-0.022289131062561064
769,-0.02578200569440903
770,-0.023321662322116344
771,-0.020664144805973464
772,-0.023340928603901544
773,-0.030439237347118564
774,-0.035382285418524076
775,-0.03292214409724034
776,-0.02504424927232552
777,-0.019456253659284717
778,-0.02191169160389691
779,-0.030133520366674126
780,-0.03579852183967988
781,-0.032985967076822886
782,-0.024698780694369378
783,-0.0205518425650242
784,-0.027349440192878185
785,-0.04162078620234976
786,-0.05178057266807819
787,-0.04844660944430097
788,-0.03334403842114732
789,-0.018186701213214862
790,-0.014288169535243507
791,-0.022506293809446173
792,-0.0328915047556662
793,-0.03423587508182402
794,-0.024399658468302027
795,-0.011756568400134877
796,-0.006749214948927872
797,-0.011930597308453087
798,-0.019969161444216902
799,-0.021096158353272
800,-0.012381716484892641
801,0.00012613119219247366
802,0.007969539449600034
803,0.008565278953304991
804,0.006948235549590627
805,0.009694449610875632
806,0.017681868604846947
807,0.025236798768237905
808,0.026374812614108824
809,0.021445767000835364
810,0.017127500188585436
811,0.019676144518427988
812,0.02840650779337463
813,0.03624020845794361
814,0.03692089183569802
815,0.031556189146788295
816,0.027661083569932313
817,0.031438068493089555
818,0.04100967791695832
819,0.047583565440540626
820,0.04368297319322865
821,0.03043339724176415
822,0.016667266956739035
823,0.010619177923853956
824,0.012301068306081027
825,0.013977303544259127
826,0.008151625988137956
827,-0.004912555507849303
828,-0.017558006426974818
829,-0.02249500710928394
830,-0.020118356444494084
831,-0.01805743711460328
832,-0.02344231627617513
833,-0.03562614354428118
834,-0.0465931992635789
835,-0.04859519804568414
836,-0.041435452498639634
837,-0.03232961428291377
838,-0.02875989137438497
839,-0.03160303204054412
840,-0.035230244488750034
841,-0.034043480811816046
842,-0.028481973221377944
843,-0.024366410531470647
844,-0.026495537819126794
845,-0.03332823507007643
846,-0.03833636031261764
847,-0.03661139895619164
848,-0.02985168364244188
849,-0.024562788304878305
850,-0.02535039263570566
851,-0.03025448192133992
852,-0.03293268990126812
853,-0.02937969108762208
854,-0.022145838835805877
855,-0.017597441253620984
856,-0.01902152321123529
857,-0.0228335377635
858,-0.022115125491349568
859,-0.014155566399537276
860,-0.0042703980446443975
861,-0.001553824458239012
862,-0.010216118404266696
863,-0.024845879499654548
864,-0.03451303484110953
865,-0.03223274708624606
866,-0.02104738172480564
867,-0.011021838060460119
868,-0.009957480829667633
869,-0.01649686273321009
870,-0.021938824387045315
871,-0.01881869582229996
872,-0.008037096371760317
873,0.0020664720307373326
874,0.0035211534647314195
875,-0.0041657630166758875
876,-0.014172096602637217
877,-0.019171637225048638
878,-0.01789169000701122
879,-0.015179854536246075
880,-0.016047215725360997
881,-0.02011586972901955
882,-0.022219631932037756
883,-0.018399032718438606
884,-0.010850854305201874
885,-0.0063530044133503485
886,-0.00940056437646588
887,-0.01698748366884098
888,-0.020742672398947885
889,-0.014936744305348061
890,-0.0027573143772386508
891,0.00557375209143321
892,0.0016456874933279968
893,-0.013329249112228509
894,-0.029060380614162582
895,-0.03474952920370859
896,-0.02796110927101271
897,-0.015921993301250655
898,-0.00851249927204549
899,-0.009739257270707135
900,-0.01536796586978977
901,-0.018157198208531025
902,-0.015045229118590037
903,-0.00941930598407824
904,-0.006946108467285609
905,-0.009730679934442078
906,-0.014669204598317543
907,-0.017136091427661884
908,-0.015727406994123522
909,-0.013124664954888517
910,-0.012567649282399614
911,-0.014084414205225897
912,-0.01467461123467729
913,-0.012193532306488342
914,-0.008544504526517702
915,-0.008383333257064102
916,-0.014308136718203423
917,-0.02347242019031276
918,-0.029458282574723785
919,-0.027990434900509308
920,-0.02095581405108921
921,-0.014568858531297298
922,-0.01327452332364118
923,-0.015427422318799814
924,-0.015279520882778829
925,-0.009542650322732165
926,-0.0019021990526844944
927,-0.00045332676335031676
928,-0.009931335242091423
929,-0.026148422419598055
930,-0.03849622368212876
931,-0.038793494836649005
932,-0.028376486412107146
933,-0.016613058829447983
934,-0.012107079436708221
935,-0.015006877744321152
936,-0.01786720261711593
937,-0.014104857764715348
938,-0.00543950555924717
939,-0.000581897465511041
940,-0.0062239095703831284
941,-0.019403668749142407
942,-0.0293281412160424
943,-0.027400213632388704
944,-0.015744431280372048
945,-0.0056088171949256384
946,-0.006856867038238635
947,-0.018653456261542033
948,-0.03042226395563088
949,-0.032097509654169756
950,-0.02359653167421921
951,-0.014371391050646807
952,-0.013842048250752291
953,-0.022430771690226392
954,-0.03193691904153079
955,-0.03435479891549706
956,-0.029860997458850572
957,-0.02596156317524124
958,-0.029092579351206953
959,-0.03760991440796227
960,-0.043372820074572625
961,-0.040088925465287834
962,-0.02970136558632466
963,-0.02034236846581535
964,-0.018193475631453418
965,-0.021766195672764797
966,-0.02437622446455387
967,-0.021945883491493325
968,-0.017738530282960588
969,-0.01886834496939249
970,-0.028042521601367727
971,-0.03911684208791976
972,-0.04142230890866426
973,-0.029076842758333835
974,-0.006407624175953612
975,0.01573352867869497
976,0.02920484643804468
977,0.034565781387446814
978,0.03841545829227863
979,0.045230490338129495
980,0.05212815562666642
981,0.05184846997398274
982,0.040909314621626
983,0.02461693043539863
984,0.013593670730243809
985,0.014763604525928255
986,0.025199965727029233
987,0.034595204716827546
988,0.03401742811589944
989,0.022933725201346043
990,0.008523250011516215
991,-0.0012634247794447826
992,-0.00401151575047777
993,-0.0031840398214063835
994,-0.003509576743882209
995,-0.006830792445072877
996,-0.012156039808294621
997,-0.018426812943837835
998,-0.025790360659867624
999,-0.033779954631359244
1000,-0.03933599099848197
1001,-0.03839740461018085
1002,-0.030553455032016286
1003,-0.021760155011388012
1004,-0.021001254845922954
1005,-0.03286156076132697
1006,-0.05296511173139128
1007,-0.07128394756935065
1008,-0.08076797127805269
1009,-0.08320774787859964
1010,-0.08673046718085096
1011,-0.09760077551498794
1012,-0.1145889681325182
1013,-0.13126053132379467
1014,-0.1432392267344627
1015,-0.1526062420028013
1016,-0.16518180563577262
1017,-0.18435264361108597
1018,-0.20857351572162586
1019,-0.23494184423707504
1020,-0.26378900809085354
1021,-0.2976570956329253
1022,-0.3343819575889076
1023,-0.3612717960226937
1024,-0.3572115138965809
1025,-0.30177114462540766
1026,-0.18358746978384904
1027,-0.00219423188587169
1028,0.23403397872091253
1029,0.5063325849864233
1030,0.7786229433716678
1031,0.9944187222278482
1032,1.0898533221874054
1033,1.0234249216703528
1034,0.8051606055978734
1035,0.5013910286983831
1036,0.20566980902296467
1037,-0.008047738154662707
1038,-0.1186744104686498
1039,-0.15580683423446853
1040,-0.1671780472023905
1041,-0.18290292291705484
1042,-0.20269699110251935
1043,-0.21048714366208454
1044,-0.19818739978041233
1045,-0.1760415990077807
1046,-0.16249841325068384
1047,-0.16617252703666524
1048,-0.17821387229660285
1049,-0.18169306416477937
1050,-0.16793533784570602
1051,-0.1439556861509225
1052,-0.12467974947782653
1053,-0.11835847776660288
1054,-0.11936511218462685
1055,-0.11465352852597982
1056,-0.09690768692250179
1057,-0.07157650320640954
1058,-0.051536106119129704
1059,-0.04511238893850404
1060,-0.0490376003783322
1061,-0.05251774415942477
1062,-0.0477508875655641
1063,-0.03652991306655979
1064,-0.027058725927888022
1065,-0.024889921658318673
1066,-0.027282124754179193
1067,-0.02635635165503243
1068,-0.017500067441475278
1069,-0.004441203355412362
1070,0.004008168933043222
1071,0.002221135232073791
1072,-0.007050114135107937
1073,-0.015394855036727977
1074,-0.01645616304891257
1075,-0.011148436704923078
1076,-0.0057526827434773095
1077,-0.005361732844085114
1078,-0.009368384213375524
1079,-0.01311860308189513
1080,-0.01343378241778479
1081,-0.011999190489865376
1082,-0.013164704817073573
1083,-0.01866987036017822
1084,-0.025034302297591095
1085,-0.02660947101948186
1086,-0.021402731777553356
1087,-0.013734041680724132
1088,-0.010709701554693703
1089,-0.015595621781137287
1090,-0.024447401354540148
1091,-0.02948212488815813
1092,-0.026281591081585603
1093,-0.018108518579585425
1094,-0.013140935913998047
1095,-0.017029865078607962
1096,-0.027654928806367975
1097,-0.03699934060682724
1098,-0.038433598332215754
1099,-0.032614222032059034
1100,-0.026514852574110914
1101,-0.02662054842588167
1102,-0.03284222851758805
1103,-0.03893952368811466
1104,-0.03889249934862363
1105,-0.032884974452254856
1106,-0.027008162283993664
1107,-0.027056268495745283
1108,-0.032688453419272234
1109,-0.03786862116404222
1110,-0.037154378988074735
1111,-0.031420166470187166
1112,-0.027072436060475498
1113,-0.029410161459823586
1114,-0.03688436708618424
1115,-0.04230993604374566
1116,-0.040077932920949806
1117,-0.03212215496864118
1118,-0.02634477062386689
1119,-0.02871291387347499
1120,-0.03683228736058746
1121,-0.04167483582930895
1122,-0.03613527570104806
1123,-0.022115850453693173
1124,-0.009008748296753993
1125,-0.004834340069350245
1126,-0.008655288723289956
1127,-0.011798471574195682
1128,-0.006779104574340327
1129,0.004884793079944532
1130,0.013846668148846972
1131,0.01217763645855027
1132,0.001706266012575365
1133,-0.006867918663778485
1134,-0.0035552273876991625
1135,0.011645665968974192
1136,0.028597248633704643
1137,0.03616059144481653
1138,0.031996624126280376
1139,0.02394360255550064
1140,0.022061462325958164
1141,0.02925089782395112
1142,0.03934128214816393
1143,0.04396573894715093
1144,0.04098056872077496
1145,0.03600290960880167
1146,0.035809592841355486
1147,0.04060191664842261
1148,0.04324287021438218
1149,0.03644464147724519
1150,0.02068405444908929
1151,0.004627849512242549
1152,-0.0027996928339192326
1153,-0.0011028400782571032
1154,0.0010405687289660747
1155,-0.00592310192769486
1156,-0.022920335490039363
1157,-0.040814196431208725
1158,-0.04864071626168669
1159,-0.04373615726216133
1160,-0.034058338637999154
1161,-0.030514964720534752
1162,-0.03675262080798139
1163,-0.046217193692429645
1164,-0.049101118401412236
1165,-0.04216260396653193
1166,-0.03179236511481993
1167,-0.027559274139380974
1168,-0.0328683504331701
1169,-0.041990470468677044
1170,-0.046128828708729
1171,-0.04214198703351828
1172,-0.03512069671136968
1173,-0.03248220947605224
1174,-0.0358994402263928
1175,-0.03944481892218816
1176,-0.03583195226576752
1177,-0.024305623125088206
1178,-0.012051109086063667
1179,-0.007598621846094236
1180,-0.01280101616992358
1181,-0.021349332852722443
1182,-0.025150125672745667
1183,-0.022040878214594856
1184,-0.01718491731968531
1185,-0.017061423199742895
1186,-0.02244303491233888
1187,-0.02756464193132923
1188,-0.026178306901045962
1189,-0.01814232035982454
1190,-0.009784150029868646
1191,-0.007772894192774127
1192,-0.012851824828018669
1193,-0.01974452817643372
1194,-0.023028512365076206
1195,-0.022613143955679833
1196,-0.023048508648214713
1197,-0.02755845587176146
1198,-0.03342273356398486
1199,-0.03405434548852662
1200,-0.026035170121841734
1201,-0.013818961196714176
1202,-0.006723341953358029
1203,-0.010538763157941227
1204,-0.02182621117971793
1205,-0.03074675174556843
1206,-0.030022833278790014
1207,-0.0215061097099249
1208,-0.014018547611030944
1209,-0.014609896744035579
1210,-0.021788645680255854
1211,-0.027277097270313508
1212,-0.02440726214373364
1213,-0.014782260423253455
1214,-0.006677110698711476
1215,-0.006906966084157675
1216,-0.01428688950523458
1217,-0.021049686210845155
1218,-0.020584514101078893
1219,-0.013683099205464004
1220,-0.007215194300574174
1221,-0.0068708402219902626
1222,-0.01146516666455448
1223,-0.014503628419593495
1224,-0.011240033968326261
1225,-0.003930847671855797
1226,0.00010151368793981239
1227,-0.004317684389220013
1228,-0.01494598354835086
1229,-0.024064369349591563
1230,-0.02571856005567965
1231,-0.02113393818060133
1232,-0.01704412830504095
1233,-0.018694465876448536
1234,-0.0244960644202223
1235,-0.027626147999622243
1236,-0.023006964928790355
1237,-0.01278955051381566
1238,-0.004881475640222945
1239,-0.00579864138909893
1240,-0.014652686849460462
1241,-0.024052003731292904
1242,-0.0270719466255544
1243,-0.023601020818748958
1244,-0.019946844031076348
1245,-0.022095891920715018
1246,-0.02923578491887827
1247,-0.03403196333433095
1248,-0.029681235937496567
1249,-0.017082394663096592
1250,-0.005061933432199135
1251,-0.0030338115415133394
1252,-0.01270227645686255
1253,-0.026483944352078712
1254,-0.03411253933808623
1255,-0.03129369050802981
1256,-0.022552684006457234
1257,-0.01612857706010348
1258,-0.016265743591070976
1259,-0.020268511281117937
1260,-0.022504323785681516
1261,-0.02059933209970203
1262,-0.017351351850066365
1263,-0.01684208056197008
1264,-0.019444766549692932
1265,-0.02135619105298288
1266,-0.019104846913685157
1267,-0.013886779041374416
1268,-0.01066209613912886
1269,-0.012699083348943993
1270,-0.01748623058634405
1271,-0.01884422291606498
1272,-0.013534190418201402
1273,-0.005509540616941661
1274,-0.0028719735018051685
1275,-0.009965098646293389
1276,-0.022388032162102015
1277,-0.0303129097429769
1278,-0.027414665779806287
1279,-0.0169608920392787
1280,-0.009055375008821769
1281,-0.011458305239914226
1282,-0.022595563488194248
1283,-0.033255862435449035
1284,-0.03515748768414675
1285,-0.02817537717646022
1286,-0.019655021695721715
1287,-0.017054825913863703
1288,-0.021377524670618327
1289,-0.027533764617550416
1290,-0.03056890405604909
1291,-0.03093475208423868
1292,-0.033348309983701065
1293,-0.04065588634150926
1294,-0.04943163206059129
1295,-0.05236429503938029
1296,-0.045479423747829636
1297,-0.03297194094314629
1298,-0.02433921067067605
1299,-0.02596191609974565
1300,-0.03502927758780847
1301,-0.04192665600865787
1302,-0.039292496143457076
1303,-0.029366869078153928
1304,-0.02244226404725392
1305,-0.02735393877857587
1306,-0.04250605862800969
1307,-0.05576646162163638
1308,-0.05367552869179952
1309,-0.032049122047751476
1310,0.0010832693317897693
1311,0.03224171438026413
1312,0.05246598473816637
1313,0.06182140949904785
1314,0.0655929347139423
1315,0.06720795641124977
1316,0.06528489471232249
1317,0.05715157983454301
1318,0.04418144941141754
1319,0.032530646752087125
1320,0.02798429992584366
1321,0.03018221088460261
1322,0.032554366490976455
1323,0.02858194491642249
1324,0.018312742071378917
1325,0.008408282808025249
1326,0.005346523554355144
1327,0.00846443879835519
1328,0.010019624987991239
1329,0.0025908083055423844
1330,-0.013331456329705631
1331,-0.029192777625588348
1332,-0.03608079386528146
1333,-0.03290717661866876
1334,-0.02713433501709231
1335,-0.02744088883643128
1336,-0.035606622756861404
1337,-0.045466524978878944
1338,-0.049576506304924696
1339,-0.04663930511920046
1340,-0.042378356585742
1341,-0.04350813487102077
1342,-0.05136446451317567
1343,-0.06159156518876164
1344,-0.06958873618066
1345,-0.07550139190356875
1346,-0.08353751781824628
1347,-0.09683847185198828
1348,-0.11382853633815099
1349,-0.12994637091760353
1350,-0.14250880387556297
1351,-0.15319799677264845
1352,-0.16579459803622426
1353,-0.18241374776162364
1354,-0.20293225809574014
1355,-0.22783548125223918
1356,-0.25977114431739357
1357,-0.29995760684746414
1358,-0.34183877337767843
1359,-0.3688534733437161
1360,-0.3600664992679494
1361,-0.29940363999775343
1362,-0.18033052056474222
1363,-0.003225301284292076
1364,0.22795633258501602
1365,0.5009587916608769
1366,0.7832155236773344
1367,1.0158517167404624
1368,1.1281106864111736
1369,1.0713485984166637
1370,0.8519010703169114
1371,0.5367398847997285
1372,0.22288163545224943
1373,-0.01133136695946376
1374,-0.1404944118868644
1375,-0.1904422519536615
1376,-0.2066283081032958
1377,-0.21958014582824398
1378,-0.23226182959128933
1379,-0.23287854652176046
1380,-0.21592888354805034
1381,-0.19121447979516965
1382,-0.17505117380787316
1383,-0.17496350349077058
1384,-0.18344718169244828
1385,-0.18597191103521063
1386,-0.1745885419643259
1387,-0.15418756129810113
1388,-0.13642731321578294
1389,-0.1280595207437603
1390,-0.12488076094681841
1391,-0.11648607189597227
1392,-0.0967789318411267
1393,-0.07027483812883561
1394,-0.048567380679124056
1395,-0.04039747935470809
1396,-0.04428059188944203
1397,-0.05001073281915952
1398,-0.04737159798057622
1399,-0.0342961851056413
1400,-0.017681827855506482
1401,-0.006811535336673495
1402,-0.00562487562934437
1403,-0.010462919223977738
1404,-0.014478242306368192
1405,-0.01393385438880122
1406,-0.010538546377264882
1407,-0.008362429641251818
1408,-0.009173948421768125
1409,-0.011087333905190497
1410,-0.011482668896752035
1411,-0.010526732953310958
1412,-0.011122772881071483
1413,-0.015211055978895239
1414,-0.020621907565763674
1415,-0.022447008927939
1416,-0.01813193998962074
1417,-0.011105135901908285
1418,-0.00859210487992888
1419,-0.014936592752292316
1420,-0.026693959550139895
1421,-0.03471471170273821
1422,-0.0319479621650539
1423,-0.019941332890262356
1424,-0.007817977254173679
1425,-0.004429343130957206
1426,-0.010865269484350005
1427,-0.02021445593087911
1428,-0.02457453435131286
1429,-0.022447221757599976
1430,-0.019470044836797006
1431,-0.022060431002927247
1432,-0.03045603282001791
1433,-0.038082270828112025
1434,-0.037831961840251185
1435,-0.02903486525431827
1436,-0.018310350116303088
1437,-0.01357847471293497
1438,-0.01713810922194212
1439,-0.024393405804390728
1440,-0.0290420845782765
1441,-0.029217971975115546
1442,-0.028465940413455175
1443,-0.03093382424701545
1444,-0.03609435590675748
1445,-0.03867964202034732
1446,-0.034049613993645256
1447,-0.023532645040100768
1448,-0.014142394752257575
1449,-0.01263154602310207
1450,-0.019514636353880406
1451,-0.028808417452449685
1452,-0.033686669452038784
1453,-0.03253770413970398
1454,-0.0296593132144179
1455,-0.030197158130545923
1456,-0.03455787935832284
1457,-0.0378781354749173
1458,-0.03496911819594532
1459,-0.025687504064003587
1460,-0.015328718799082985
1461,-0.009667578915514785
1462,-0.009612508084555924
1463,-0.010771568603205444
1464,-0.008270001389065994
1465,-0.0019003963849170563
1466,0.0036147616004478782
1467,0.0035281846049722812
1468,-0.0018060825825036196
1469,-0.006808279001683733
1470,-0.00580715126889253
1471,0.0015741983355651162
1472,0.0100958374769675
1473,0.013983086793120488
1474,0.012428729057598766
1475,0.010133636479346824
1476,0.012417759963485315
1477,0.019779450397328736
1478,0.027280031110866382
1479,0.0293352606101875
1480,0.025186252840274138
1481,0.019721856217967945
1482,0.018931705017543946
1483,0.024455182198796978
1484,0.03237597698347312
1485,0.03708748799195112
1486,0.03616352378424757
1487,0.0315436908090351
1488,0.026384129788400427
1489,0.02134278133096003
1490,0.01435025477093108
1491,0.003924224405976676
1492,-0.007889087698992062
1493,-0.01657444126036356
1494,-0.019513001411025598
1495,-0.019122176043059054
1496,-0.021062738637758815
1497,-0.028727388048164344
1498,-0.039324806110731136
1499,-0.04578526721523187
1500,-0.04316893737972987
1501,-0.03361390847641874
1502,-0.024883421917802934
1503,-0.02356948849925953
1504,-0.02926379555824811
1505,-0.03527456112792024
1506,-0.035247272493226386
1507,-0.029301839105873112
1508,-0.023711978943002587
1509,-0.024457577275556364
1510,-0.03104963200656618
1511,-0.0368235958110356
1512,-0.03550966987722187
1513,-0.027593890505736768
1514,-0.02008814341257744
1515,-0.019833095840719038
1516,-0.026923387716659912
1517,-0.03476320317684681
1518,-0.03663822706683816
1519,-0.03215277697530115
1520,-0.027056346589411744
1521,-0.02675155226997468
1522,-0.030280703361644422
1523,-0.031149660998078407
1524,-0.024308198571597762
1525,-0.012111586489315894
1526,-0.0028708072481929627
1527,-0.0030471902160951066
1528,-0.010773855956650185
1529,-0.017365421613244537
1530,-0.015633023379888752
1531,-0.006942744277554152
1532,-3.1292365110838737e-06
1533,-0.0024283770172030877
1534,-0.013247743079565465
1535,-0.023648133028791037
1536,-0.02521290119038301
1537,-0.017673593297325565
1538,-0.00880065953870159
1539,-0.006790183094702874
1540,-0.012671511310196783
1541,-0.01992661889039756
1542,-0.021264228266690853
1543,-0.015635168968050454
1544,-0.00874962137297004
1545,-0.007058544390273002
1546,-0.011522223302124792
1547,-0.01728529515908394
1548,-0.01913745701207248
1549,-0.016848920365192345
1550,-0.014902692958202925
1551,-0.017132678227327038
1552,-0.02207807370508008
1553,-0.024081784653810504
1554,-0.019163136338704513
1555,-0.00964745255661062
1556,-0.0026179427844415307
1557,-0.0034305546095393493
1558,-0.010590487328528034
1559,-0.01709724087680701
1560,-0.017036135212877092
1561,-0.011011562025345423
1562,-0.005164720250726368
1563,-0.0048808350830392465
1564,-0.009533683614602977
1565,-0.01349414304055747
1566,-0.012263815519312549
1567,-0.007383562675193463
1568,-0.004990489478478435
1569,-0.009375613019987222
1570,-0.018101833139947072
1571,-0.023843638886380514
1572,-0.021388701762027888
1573,-0.012917812379872759
1574,-0.0061920313467562745
1575,-0.007249236647012986
1576,-0.014722656314637959
1577,-0.021371969857133077
1578,-0.021294547201137343
1579,-0.015644624112173707
1580,-0.011197060356689922
1581,-0.013273051436124207
1582,-0.020206313593606286
1583,-0.024967632525360387
1584,-0.02233153426759403
1585,-0.014337537615711396
1586,-0.00846383638062681
1587,-0.010253989282392465
1588,-0.017761911863573426
1589,-0.023425753722502662
1590,-0.021566794127932595
1591,-0.014055396915930857
1592,-0.008470583603222875
1593,-0.010543702991689618
1594,-0.018379912731218986
1595,-0.024209319016306692
1596,-0.02196855970618982
1597,-0.013255551423837419
1598,-0.005820389407547186
1599,-0.006107068007747253
1600,-0.013157496112577681
1601,-0.019759229417690483
1602,-0.01956574153532009
1603,-0.013138621561310501
1604,-0.007079887586770107
1605,-0.007307957322462862
1606,-0.013229438773462197
1607,-0.018515760177139667
1608,-0.017567963662919576
1609,-0.011150559878518113
1610,-0.005590241565622279
1611,-0.006381175163700115
1612,-0.01260833070227654
1613,-0.017800373570420188
1614,-0.016446640249269645
1615,-0.009734450126742792
1616,-0.0046980442379784
1617,-0.007378909027156795
1618,-0.016572231851353654
1619,-0.0243979738012604
1620,-0.023468186558646575
1621,-0.013981264132024012
1622,-0.003920915743165428
1623,-0.0019692675733015037
1624,-0.009686720775493944
1625,-0.020285620344578374
1626,-0.025097215827248925
1627,-0.021528155956645187
1628,-0.014965642580659234
1629,-0.01302975495487647
1630,-0.018008494416942914
1631,-0.02495910707344879
1632,-0.02719979376366482
1633,-0.023476973074042843
1634,-0.01942500295649166
1635,-0.02175289378323296
1636,-0.031059058723064817
1637,-0.040698150850917186
1638,-0.04305855377506458
1639,-0.03704366944377442
1640,-0.029210189829431202
1641,-0.027364644289475906
1642,-0.03304969960779883
1643,-0.04046081035758835
1644,-0.04274451905811424
1645,-0.03907794617646763
1646,-0.03518591362115754
1647,-0.036799797167726585
1648,-0.0429245098571408
1649,-0.04602029689110755
1650,-0.03904865127466598
1651,-0.022191501478863875
1652,-0.0023634488939404874
1653,0.013882709976759985
1654,0.026559681891772064
1655,0.04095745424293527
1656,0.060123472541123324
1657,0.07911329768783533
1658,0.08757780931919469
1659,0.07889591572651912
1660,0.0571603165887129
1661,0.03492785583838928
1662,0.023353755189298664
1663,0.02364962971075043
1664,0.02758189719425297
1665,0.026170527074646965
1666,0.018154465387902184
1667,0.010377388164676208
1668,0.010222299663987133
1669,0.017759667548281774
1670,0.025221181267407924
1671,0.02410479353181679
1672,0.012899219984581017
1673,-0.0019204227505366725
1674,-0.01226101675062416
1675,-0.015719875660577132
1676,-0.01682775618092574
1677,-0.02146916673818713
1678,-0.03048086338262732
1679,-0.038996758799543244
1680,-0.04202064887139639
1681,-0.040189116615330825
1682,-0.03943504524427413
1683,-0.044654005324038105
1684,-0.05401185865183806
1685,-0.06029479951292185
1686,-0.058548929478003164
1687,-0.052341000797781784
1688,-0.05168789646351468
1689,-0.06389653067386587
1690,-0.08614430091599196
1691,-0.10755013881722571
1692,-0.11922911106278712
1693,-0.12254054645429044
1694,-0.12718792622090608
1695,-0.14105626564815804
1696,-0.16237089399209137
1697,-0.18260155841301795
1698,-0.19719412406983455
1699,-0.2123175477083257
1700,-0.23914311930205928
1701,-0.28002475180001046
1702,-0.32017980318020495
1703,-0.3339216664089206
1704,-0.3001424518436665
1705,-0.21238830651545842
1706,-0.07489826992812176
1707,0.10825479513645561
1708,0.3351211031763882
1709,0.5922558097252109
1710,0.8379834920945817
1711,1.0042533478211513
1712,1.0260427462000548
1713,0.8818381241110289
1714,0.6141701060007687
1715,0.3110422281120586
1716,0.05902587620694386
1717,-0.09886858203692987
1718,-0.17226778155757833
1719,-0.19857615775757131
1720,-0.20894075207928317
1721,-0.21223216549546275
1722,-0.20394498916223552
1723,-0.18432268168194732
1724,-0.1653107599762834
1725,-0.16079116569791307
1726,-0.17243241059218367
1727,-0.1869859949568537
1728,-0.18814396421537571
1729,-0.17112385144156794
1730,-0.1458686232614348
1731,-0.1265056270466985
1732,-0.11807815490807612
1733,-0.11341413801649912
1734,-0.10226241692976046
1735,-0.08272118143621865
1736,-0.06334911525866671
1737,-0.054187169996217914
1738,-0.056053830637889955
1739,-0.05899838318275284
1740,-0.051594279207782805
1741,-0.03210267387459165
1742,-0.010743407439369794
1743,-0.0008412365179146131
1744,-0.007071454235413181
1745,-0.021514128404259064
1746,-0.030734086277742028
1747,-0.027040001909389745
1748,-0.013855529527033941
1749,-0.001263127781608333
1750,0.003103178384609559
1751,-0.0007832405486425974
1752,-0.007829186170581752
1753,-0.013944685711860333
1754,-0.0190267223656143
1755,-0.024429304126114396
1756,-0.028923471376913135
1757,-0.028603990110804996
1758,-0.021351576161592695
1759,-0.010786016977632389
1760,-0.004559560612259346
1761,-0.007752596410950944
1762,-0.017828269118220764
1763,-0.02671999927206821
1764,-0.028568672498270276
1765,-0.02551010525244307
1766,-0.02535259557140653
1767,-0.03301293263083942
1768,-0.04423953577078873
1769,-0.04843020559232385
1770,-0.03852353476337268
1771,-0.01862880161865023
1772,-0.001715025880013959
1773,0.0010057545241301004
1774,-0.01062042058045179
1775,-0.026165442123058026
1776,-0.034132615898040945
1777,-0.03146241368117703
1778,-0.024499531505728065
1779,-0.02141367952568691
1780,-0.02407452140706761
1781,-0.027205820109703648
1782,-0.02492932407430455
1783,-0.017516464691217874
1784,-0.011436824200092819
1785,-0.012936299513629559
1786,-0.021921951669616913
1787,-0.03233087326544421
1788,-0.03831292428206122
1789,-0.03962715964110673
1790,-0.0406802951730067
1791,-0.04445053411219746
1792,-0.04805125399618454
1793,-0.04513642235164071
1794,-0.033176353712114505
1795,-0.018107054345298947
1796,-0.01081594372461066
1797,-0.017819321321035766
1798,-0.03467181423861077
1799,-0.048796924575827294
1800,-0.04986362431788752
1801,-0.038544852533691706
1802,-0.0255899499217644
1803,-0.02191670328544231
1804,-0.028775408757834475
1805,-0.03703720047866108
1806,-0.036162743782854875
1807,-0.024346503068947003
1808,-0.010268916603152599
1809,-0.004859958581638898
1810,-0.010933018385166849
1811,-0.02051806892938096
1812,-0.022372345580439754
1813,-0.012520672967330369
1814,0.0020786538524342414
1815,0.010032448615436014
1816,0.0059174337443611185
1817,-0.005078299623976566
1818,-0.012219999635766183
1819,-0.008820785444244875
1820,0.002611345409369422
1821,0.013875761083462968
1822,0.01911409603967055
1823,0.019480248580269997
1824,0.02052690991278275
1825,0.025704222920427906
1826,0.032732543624282066
1827,0.03612726733269406
1828,0.03280595729049328
1829,0.02495560901180967
1830,0.01758048205586398
1831,0.013659232660419561
1832,0.011930068320642598
1833,0.009184383841266148
1834,0.00418951372216125
1835,-0.0010353301581939184
1836,-0.003716803780837664
1837,-0.0036248904410093163
1838,-0.003513425535024103
1839,-0.006321149363389386
1840,-0.01230074106517947
1841,-0.019217072281627945
1842,-0.025257203026669724
1843,-0.031201463830110614
1844,-0.03916637927377353
1845,-0.04911599685956817
1846,-0.057148396661195255
1847,-0.0580777298342767
1848,-0.050337970322042985
1849,-0.03837189308144336
1850,-0.029658636415100255
1851,-0.02868942097806803
1852,-0.03342442868027358
1853,-0.037637710729965544
1854,-0.036942802035250945
1855,-0.0326748501158981
1856,-0.02987980932016504
1857,-0.031523535029248484
1858,-0.034898032366895676
1859,-0.034093641926504714
1860,-0.026253720229817548
1861,-0.015247608924785414
1862,-0.008677235017490006
1863,-0.010780219748498951
1864,-0.018234917269690266
1865,-0.023387250113437036
1866,-0.022077882873869262
1867,-0.018254262082813597
1868,-0.020237684263287682
1869,-0.03175022522565489
1870,-0.0465891918442036
1871,-0.0530021607032317
1872,-0.04448213810553483
1873,-0.026797675583935074
1874,-0.013825261647222975
1875,-0.015220330265932773
1876,-0.027278969472952143
1877,-0.03604437432832236
1878,-0.030348351190708008
1879,-0.012713374014253844
1880,0.0024333752426031786
1881,0.001934426306869139
1882,-0.013825045223949858
1883,-0.03122378089538697
1884,-0.036068244809354416
1885,-0.026574285262565115
1886,-0.014361283937895163
1887,-0.012736633645250631
1888,-0.023723853291915904
1889,-0.03626544414528218
1890,-0.03703775355358989
1891,-0.023224260157617325
1892,-0.005097806899264775
1893,0.0035672779074178876
1894,-0.0023353802995681582
1895,-0.01587224447919576
1896,-0.025743962129514637
1897,-0.026699655267165848
1898,-0.022674880782963903
1899,-0.02071496174730198
1900,-0.02291287089657132
1901,-0.024749058128909547
1902,-0.020899222465335834
1903,-0.011791861719066214
1904,-0.0038449010202167505
1905,-0.003253875157337138
1906,-0.009930814486872868
1907,-0.017844296452770463
1908,-0.02126256453033308
1909,-0.02037572853455874
1910,-0.020553776089364536
1911,-0.026086177375808005
1912,-0.0348793111626748
1913,-0.03966408992347391
1914,-0.034811551253829294
1915,-0.022253732139657038
1916,-0.010666264044929371
1917,-0.008304279507982414
1918,-0.015805095444376797
1919,-0.02542536406684133
1920,-0.02751034938307918
1921,-0.018662126599646243
1922,-0.00466461578998944
1923,0.00418051248711575
1924,0.0012103277344365092
1925,-0.011757080830456942
1926,-0.026543617416177508
1927,-0.03531447498253637
1928,-0.035913903184420136
1929,-0.031710238343396924
1930,-0.027078056863991208
1931,-0.02337369108782174
1932,-0.019135034661766893
1933,-0.013608048040700007
1934,-0.009253810221473594
1935,-0.010070749329728155
1936,-0.017167969243605807
1937,-0.026308730962939522
1938,-0.030568838470549968
1939,-0.026174262714828554
1940,-0.016074995121518852
1941,-0.007615412963771353
1942,-0.006243527682961017
1943,-0.011089429751567943
1944,-0.016475552135417647
1945,-0.01765823632729978
1946,-0.015077843050770784
1947,-0.013135504336857036
1948,-0.015184423854186606
1949,-0.020166134419882742
1950,-0.024305563252325624
1951,-0.025706892679415404
1952,-0.02653627649159931
1953,-0.030179494611260883
1954,-0.03648857867805841
1955,-0.040737902795728934
1956,-0.03818177935051521
1957,-0.02982081294187642
1958,-0.022928709863791266
1959,-0.024788283898434516
1960,-0.03531603820726392
1961,-0.046225938843948565
1962,-0.048413220146444225
1963,-0.040849356558840866
1964,-0.032056413668410756
1965,-0.032053933618858554
1966,-0.04223810587398348
1967,-0.05330571677734281
1968,-0.05383640629555933
1969,-0.04148731644656163
1970,-0.025657146560079523
1971,-0.01857795243439687
1972,-0.02343197322151267
1973,-0.0314920915065969
1974,-0.03148013015927851
1975,-0.02175577191547744
1976,-0.012457693691945756
1977,-0.014542083686036433
1978,-0.026433374704071158
1979,-0.0325945651495413
1980,-0.017203104708882824
1981,0.019334305195117998
1982,0.057505044558693534
1983,0.07378374960110554
1984,0.0606895958987365
1985,0.033254792060189844
1986,0.015579188585435154
1987,0.019760607826040555
1988,0.03656425612114802
1989,0.04585913764024574
1990,0.03613754582874458
1991,0.014440086999749382
1992,-0.0019122181344734365
1993,-0.002599276305654435
1994,0.006559447100366661
1995,0.010716444648576864
1996,0.0011494505177640215
1997,-0.016932527601296682
1998,-0.030873418585102452
1999,-0.033601361128135325
2000,-0.029611831645106453
2001,-0.028591127856393853
2002,-0.03444777095539231
2003,-0.0416607287545057
2004,-0.04226459045260281
2005,-0.03515096281856046
2006,-0.027218756835786687
2007,-0.025328569528763036
2008,-0.028548011374219612
2009,-0.030102245647411555
2010,-0.02749090879863684
2011,-0.029170268683936774
2012,-0.04850665144150609
2013,-0.0890357638113339
2014,-0.13584434648954674
2015,-0.16403463071241392
2016,-0.15911700412856977
2017,-0.13128461030126415
2018,-0.10935377101629955
2019,-0.11825767331847928
2020,-0.15948892655616798
2021,-0.21166676754914454
2022,-0.2501149635726437
2023,-0.26720931595764696
2024,-0.2754340744848256
2025,-0.291876722859609
2026,-0.3196528357174928
2027,-0.34261444529118534
2028,-0.33522689346213796
2029,-0.27550785822927193
2030,-0.14966370912449448
2031,0.04970101862131136
2032,0.32032524767376214
2033,0.6369061885905847
2034,0.9391956383923163
2035,1.1411287431838593
2036,1.1672813481268816
2037,0.997447478415431
2038,0.6862752986670027
2039,0.3387490685029926
2040,0.05501934149473444
2041,-0.11777734573724494
2042,-0.1948445759375967
2043,-0.2233456261296749
2044,-0.24102106403250861
2045,-0.2561321476097047
2046,-0.2581444191323741
2047,-0.24148812015707083
2048,-0.2172496321450748
2049,-0.20359467949890742
2050,-0.20756417276203493
2051,-0.21784621600642018
2052,-0.21555573669242395
2053,-0.1919497359975485
2054,-0.15604346645315298
2055,-0.12574574043036396
2056,-0.11186537950218778
2057,-0.11001228209365296
2058,-0.10675668348689138
2059,-0.09285468020372785
2060,-0.07083840272970493
2061,-0.050931537911248624
2062,-0.04059164221691684
2063,-0.038096473113007054
2064,-0.035557323872459565
2065,-0.027378515228711906
2066,-0.01558674683738059
2067,-0.00730676453116501
2068,-0.007486980115698217
2069,-0.014145486161638132
2070,-0.020426812869717828
2071,-0.021047900118235187
2072,-0.01680259316024249
2073,-0.013079329885373792
2074,-0.014239129153294835
2075,-0.019457105088346388
2076,-0.02386768775482318
2077,-0.023548104705045793
2078,-0.019256050332361847
2079,-0.015316169781193614
2080,-0.015018463489775383
2081,-0.017368626433219528
2082,-0.01855325946679425
2083,-0.01654170400080416
2084,-0.013859966328894477
2085,-0.01529597326998898
2086,-0.0225516503729598
2087,-0.031338082558401585
2088,-0.03437351796395449
2089,-0.027952684112702783
2090,-0.01593435918361817
2091,-0.0071323103753833765
2092,-0.008282036878574789
2093,-0.018929781729052363
2094,-0.03262054742653011
2095,-0.042677976827395735
2096,-0.04681349017174972
2097,-0.04670189384613284
2098,-0.04421281197801336
2099,-0.0391787098965451
2100,-0.031144292879628305
2101,-0.022430411931595243
2102,-0.017963004761324855
2103,-0.020978874590276815
2104,-0.028939307042976037
2105,-0.034709123807777575
2106,-0.032912106833833873
2107,-0.025528928549610592
2108,-0.020715947439404536
2109,-0.025215097653351524
2110,-0.03738518586077592
2111,-0.04785745313851995
2112,-0.04769159497234268
2113,-0.03654581548331315
2114,-0.023126063865537526
2115,-0.017437711971170184
2116,-0.02209395111466624
2117,-0.030664632936561378
2118,-0.03423249713389262
2119,-0.029697925915395305
2120,-0.022178458192901027
2121,-0.019817162811559555
2122,-0.026348166721314716
2123,-0.0382236220697013
2124,-0.04817844175534479
2125,-0.05108972095326371
2126,-0.046648661332378466
2127,-0.0373654704537364
2128,-0.02519688992248415
2129,-0.010792549955714447
2130,0.004274349520255979
2131,0.015701516758498076
2132,0.018275190168146844
2133,0.010478699061335677
2134,-0.0025588396090788987
2135,-0.011466513008515674
2136,-0.009293761237064317
2137,0.0030047745870591235
2138,0.017247165934751944
2139,0.0246499473523228
2140,0.02284183836929102
2141,0.017201396883414335
2142,0.015455539340790587
2143,0.020522704579100774
2144,0.02810879739855482
2145,0.031092245249066095
2146,0.026394242959742943
2147,0.017780779189345945
2148,0.012027238893746272
2149,0.012286943131721042
2150,0.01515448373349872
2151,0.014222728889727369
2152,0.006516888160550337
2153,-0.00460977667843643
2154,-0.012926376435152334
2155,-0.015519618277700105
2156,-0.015391030295784865
2157,-0.017853303480560457
2158,-0.02456611742008418
2159,-0.031573768030619655
2160,-0.033598593051517626
2161,-0.03021498796393521
2162,-0.0272459083483464
2163,-0.03137417532512785
2164,-0.04301535706912968
2165,-0.054743223398964105
2166,-0.057428330232599405
2167,-0.048626499863294204
2168,-0.03523269327782433
2169,-0.027682638519267642
2170,-0.031005951703799942
2171,-0.04097233002380862
2172,-0.048582961617196815
2173,-0.04821428754350636
2174,-0.04163030259721293
2175,-0.03467353681692957
2176,-0.030843447328618642
2177,-0.02863981976485595
2178,-0.024990504032670394
2179,-0.020307928840117322
2180,-0.018973765598484654
2181,-0.024225378847832317
2182,-0.032992072662367006
2183,-0.03699396232807719
2184,-0.03012798993395025
2185,-0.015154126658824714
2186,-0.0024984588384246945
2187,-0.0014085480362951482
2188,-0.011541925504220623
2189,-0.023227260204814127
2190,-0.02647401934877229
2191,-0.020194624821905104
2192,-0.012723514936559299
2193,-0.013196414436333669
2194,-0.022372517214329896
2195,-0.031998397599409284
2196,-0.03323083173797449
2197,-0.025548311574840284
2198,-0.017146987551504022
2199,-0.01646937113669408
2200,-0.023484184665875707
2201,-0.029555333698291778
2202,-0.026047583682442393
2203,-0.013064539707472138
2204,0.00030545512636588005
2205,0.004311043782253965
2206,-0.002848549254888625
2207,-0.014257002400850718
2208,-0.021401544054793522
2209,-0.021634967334314033
2210,-0.01887008139027707
2211,-0.017854386258493178
2212,-0.018800919406199663
2213,-0.01806065509237803
2214,-0.013550286862356618
2215,-0.008446098997450345
2216,-0.008656404469787844
2217,-0.016467272091329213
2218,-0.027138646290247537
2219,-0.03248778294791822
2220,-0.028441757907379114
2221,-0.0193344813312286
2222,-0.014565925385361935
2223,-0.020333062173670945
2224,-0.03370554876031483
2225,-0.044240456607768
2226,-0.041780999462004365
2227,-0.02404039881720673
2228,0.0018299681999239799
2229,0.024302799689895342
2230,0.03469806059359029
2231,0.031117936356846856
2232,0.01699432110899092
2233,-0.0033254441241287983
2234,-0.027507771501870587
2235,-0.05411508749978354
2236,-0.07895224847908096
2237,-0.09320884247743191
2238,-0.08673460205729094
2239,-0.05540385476144383
2240,-0.007177550751326221
2241,0.03891219987395193
2242,0.06198998119341448
2243,0.05147389662453011
2244,0.013834338827864005
2245,-0.030999405457732714
2246,-0.061263146846628334
2247,-0.0651607281613183
2248,-0.04550658409336323
2249,-0.01557268258528432
2250,0.009565175857328637
2251,0.020201871931530543
2252,0.01452317603972558
2253,-0.0028410565071600533
2254,-0.023912401801076705
2255,-0.04059693462612465
2256,-0.04761435349075688
2257,-0.0445027749072347
2258,-0.035476958182457295
2259,-0.026625692666295244
2260,-0.021992915626755108
2261,-0.02141389574203088
2262,-0.021735021041656616
2263,-0.02006521462394776
2264,-0.015949618444548293
2265,-0.01073634365314631
2266,-0.0055059239011551915
2267,-0.00034889291725614935
2268,0.004129925120072027
2269,0.005300214167696325
2270,-0.00022685118600238876
2271,-0.012834284359915597
2272,-0.027470663395952742
2273,-0.036158898592788244
2274,-0.034433438111528464
2275,-0.026049159295776506
2276,-0.020787192240073013
2277,-0.026223851322190482
2278,-0.04049306936003376
2279,-0.05305408720929544
2280,-0.053549671707908746
2281,-0.041164147747580516
2282,-0.025890755659806405
2283,-0.020197945098400866
2284,-0.0283863134790559
2285,-0.0431793784760292
2286,-0.052532670070567535
2287,-0.05032758122822077
2288,-0.04120574761693268
2289,-0.0353720011402198
2290,-0.038411152137990665
2291,-0.045482119040472946
2292,-0.04497263251902749
2293,-0.0281509117168282
2294,0.0035729452973481146
2295,0.03946872970069894
2296,0.06691435976489216
2297,0.0789907006221268
2298,0.07685748164206835
2299,0.06660293956811292
2300,0.05433163422260183
2301,0.04328331920471245
2302,0.03393953097329734
2303,0.025639949811425613
2304,0.017999490192247197
2305,0.011534135061064136
2306,0.007626757960346065
2307,0.00785691418660023
2308,0.012712348821255458
2309,0.020398926892081923
2310,0.027064153384679553
2311,0.02901089326447938
2312,0.025552161835984653
2313,0.019903757743151118
2314,0.01665641271632015
2315,0.01740468690725282
2316,0.018329528579949364
2317,0.012489362580079549
2318,-0.004353713288320122
2319,-0.0290886098568307
2320,-0.0522491856332131
2321,-0.06470001395223203
2322,-0.06495703005611768
2323,-0.06083589685279782
2324,-0.06339555060929465
2325,-0.07779418105189131
2326,-0.09892989916027316
2327,-0.11614715307496506
2328,-0.12330260574657675
2329,-0.1250762281019803
2330,-0.13310434616881495
2331,-0.1547656562583031
2332,-0.18504120731808543
2333,-0.21003615549968938
2334,-0.22008839244834105
2335,-0.22050879496138057
2336,-0.22897895065937246
2337,-0.2606969542996776
2338,-0.3143386289110942
2339,-0.3714966470221813
2340,-0.40891302742224445
2341,-0.4097421720730679
2342,-0.3616801609627098
2343,-0.24604061462617705
2344,-0.03613332655993449
2345,0.2818438302458408
2346,0.6758193161261082
2347,1.053501536249994
2348,1.2912577471520779
2349,1.2978308769192113
2350,1.0713618851994378
2351,0.7060277517465323
2352,0.33947120437904005
2353,0.07687017047211485
2354,-0.055608515722520326
2355,-0.10034676823578945
2356,-0.11819896954384985
2357,-0.14278329759589126
2358,-0.17116149809944456
2359,-0.18711927611315965
2360,-0.187310840897065
2361,-0.18532247312662808
2362,-0.1949172174450176
2363,-0.21387961449874843
2364,-0.2259840737227579
2365,-0.21786527681315002
2366,-0.19247587155602858
2367,-0.16570389177818978
2368,-0.15067754506169373
2369,-0.1461650105079883
2370,-0.1400143641890671
2371,-0.1227715729447596
2372,-0.09708966129852098
2373,-0.07415537241294068
2374,-0.06210639914529266
2375,-0.05882859453014928
2376,-0.0557976738664692
2377,-0.0477557943862168
2378,-0.03757875991525378
2379,-0.03170101149535881
2380,-0.03184154047145321
2381,-0.03242325724333653
2382,-0.026540998738594695
2383,-0.01392478512529529
2384,-0.002099586447489296
2385,0.0008785254746813114
2386,-0.005243978115815751
2387,-0.012228621189821372
2388,-0.01130567346779172
2389,-0.0019149722950770496
2390,0.007594306772499241
2391,0.008140159693806204
2392,-0.0010885801102095915
2393,-0.011707057401092666
2394,-0.014190249460593798
2395,-0.006966954109253253
2396,0.0023015537372286813
2397,0.004302942972851576
2398,-0.003106738066237895
2399,-0.013431540385870622
2400,-0.018499930509926453
2401,-0.016622076051613713
2402,-0.013793619648346654
2403,-0.01700527815488918
2404,-0.026641144427681795
2405,-0.035684917542733216
2406,-0.03646392583563403
2407,-0.02812225941089272
2408,-0.017454133317084432
2409,-0.012498731436139606
2410,-0.015419010773594786
2411,-0.021550161020891183
2412,-0.02500410338087945
2413,-0.024668012434490502
2414,-0.024468772523436898
2415,-0.028106525253039374
2416,-0.0343259421615567
2417,-0.03805027816140928
2418,-0.03620190454997434
2419,-0.031723227875100825
2420,-0.030969349468205516
2421,-0.03673980091647661
2422,-0.044324209289798605
2423,-0.045390860627934314
2424,-0.03652275964922979
2425,-0.02383807743578422
2426,-0.018308556553271786
2427,-0.025482921528740404
2428,-0.039406245611223585
2429,-0.04717547648112127
2430,-0.04053819898287371
2431,-0.023832228895197392
2432,-0.010531266011861098
2433,-0.011219496176619484
2434,-0.023990094733309184
2435,-0.03616034868641765
2436,-0.03570503590867349
2437,-0.021838472585977507
2438,-0.00514911605527067
2439,0.002468251775452485
2440,-0.0014799780938347788
2441,-0.008468946784760935
2442,-0.0073957246240504365
2443,0.005142235345237516
2444,0.02210467022425547
2445,0.03274369987879217
2446,0.03210878021216558
2447,0.024700442053613762
2448,0.019645229362591523
2449,0.02253819952451935
2450,0.031463408554836994
2451,0.040079521875858476
2452,0.04398044133855436
2453,0.04410298503822507
2454,0.04451288981475032
2455,0.04751355708453882
2456,0.051230189788417965
2457,0.05185992846224724
2458,0.04791690147084393
2459,0.041898722668557764
2460,0.03759831635778016
2461,0.03585815392192186
2462,0.033293615121728626
2463,0.025601539176647807
2464,0.01233744576511201
2465,-0.0017583667493820576
2466,-0.01065879374353461
2467,-0.012714721212273582
2468,-0.01249346471868929
2469,-0.016578972373765363
2470,-0.027039242259726606
2471,-0.038930167693505456
2472,-0.04466152310951968
2473,-0.04139173765389087
2474,-0.034310765751758385
2475,-0.03226105455461524
2476,-0.03948384914768471
2477,-0.05127628897020882
2478,-0.05788629500924984
2479,-0.05317817416712334
2480,-0.03999658895072059
2481,-0.027298248389478662
2482,-0.02200097785639099
2483,-0.023420902332873646
2484,-0.025363335535262235
2485,-0.02329199748996961
2486,-0.019145946395660807
2487,-0.019023907630192884
2488,-0.026280952163371646
2489,-0.037179358401808665
2490,-0.04359859641308625
2491,-0.04023651493841917
2492,-0.029334802352246767
2493,-0.018487034099767242
2494,-0.01383922412789216
2495,-0.015243078006261276
2496,-0.017671283327503503
2497,-0.01695442147728919
2498,-0.013901369655906291
2499,-0.012866304240129932
2500,-0.01656368597877922
2501,-0.022628318821809074
2502,-0.025526988892189562
2503,-0.02197660602570891
2504,-0.014445762021599692
2505,-0.00911383685477781
2506,-0.01007352216904298
2507,-0.015328809496582389
2508,-0.018569437882642786
2509,-0.015213787024381014
2510,-0.007025446533399461
2511,-0.0008017800631893813
2512,-0.0022040454992697757
2513,-0.010488648863673088
2514,-0.019148201027571313
2515,-0.021868145123301274
2516,-0.018094040286354765
2517,-0.012903158030223185
2518,-0.011487377581052114
2519,-0.01388302835810285
2520,-0.015271841482384285
2521,-0.011458662693161325
2522,-0.003774614161925741
2523,0.0017992695625444575
2524,0.0004948616044167071
2525,-0.006457212578883978
2526,-0.013142986169634024
2527,-0.015010615652940557
2528,-0.013225588682451751
2529,-0.012678215001348882
2530,-0.015853208674036282
2531,-0.019426048201720305
2532,-0.01769101441037994
2533,-0.009434838568632507
2534,-0.000659463147572921
2535,0.000508763387774832
2536,-0.007920785490344065
2537,-0.018939623402965837
2538,-0.02263793448966427
2539,-0.015688041549494686
2540,-0.004792742204479809
2541,-0.00039794834112555724
2542,-0.006683165894776282
2543,-0.017679218424093722
2544,-0.023309153837431647
2545,-0.019274925634474964
2546,-0.010990165533828606
2547,-0.007867327880401587
2548,-0.013904089198182638
2549,-0.023950830723555312
2550,-0.0290422560251064
2551,-0.025082656614889086
2552,-0.01619192437539474
2553,-0.009839244400970545
2554,-0.009247839215965042
2555,-0.010925530204213947
2556,-0.009472042746694671
2557,-0.004193704013873305
2558,-0.0003537616790634518
2559,-0.003638375853572227
2560,-0.013562981065083107
2561,-0.022780461933677
2562,-0.02339488177325085
2563,-0.014353399552882597
2564,-0.0027658251987899957
2565,0.002250778837114705
2566,-0.002485552721334502
2567,-0.011806761413569084
2568,-0.01734324751296213
2569,-0.015219898286377157
2570,-0.00912080601582375
2571,-0.006147385670881059
2572,-0.00974206166700805
2573,-0.016537792061501355
2574,-0.01999802974975281
2575,-0.0170831274104402
2576,-0.011309196776374028
2577,-0.00918231376870082
2578,-0.013558861144744357
2579,-0.0205876131298707
2580,-0.02342546595866542
2581,-0.019183539685378354
2582,-0.012172360830751124
2583,-0.009973847021122684
2584,-0.01597160300863018
2585,-0.025731824164597378
2586,-0.031099864449245958
2587,-0.02826112117824847
2588,-0.021792270474036736
2589,-0.020349448572302996
2590,-0.027872766821386605
2591,-0.03897284737405571
2592,-0.04348135587095085
2593,-0.03622709359298655
2594,-0.02261008780903229
2595,-0.014169792858293624
2596,-0.017938714357408857
2597,-0.029701410629690412
2598,-0.03791913386205453
2599,-0.034916855868474435
2600,-0.024663894102971963
2601,-0.01932984663564985
2602,-0.027355334325161615
2603,-0.044084316681015256
2604,-0.05403799898024211
2605,-0.04333386184471556
2606,-0.011420206270102286
2607,0.028109894703949843
2608,0.0580270809567454
2609,0.06986836728652909
2610,0.06788898794967305
2611,0.06248770685457741
2612,0.06030530640690747
2613,0.05999570317101475
2614,0.05616983696973807
2615,0.04619814019268195
2616,0.03290012460252477
2617,0.021386923762486708
2618,0.014398935691765296
2619,0.011199453787581016
2620,0.010375531443987352
2621,0.012373089532499463
2622,0.018258700417892675
2623,0.02610622352475814
2624,0.029849370184571573
2625,0.02326654546935676
2626,0.006006192526121539
2627,-0.014556772145659397
2628,-0.02850549589901754
2629,-0.03157007309784057
2630,-0.02874867750972799
2631,-0.029596924198771035
2632,-0.03927049960955236
2633,-0.053695243385845776
2634,-0.06354028487573735
2635,-0.06329657711396078
2636,-0.056771773608868724
2637,-0.053677485971019775
2638,-0.06060282679308808
2639,-0.07518533095762997
2640,-0.08920221289407751
2641,-0.09748307708200438
2642,-0.10364058839961922
2643,-0.11663072599242484
2644,-0.141341709692071
2645,-0.17268156042355287
2646,-0.1994820443041358
2647,-0.21478221751764023
2648,-0.22243020426093713
2649,-0.23340620510281948
2650,-0.25559042309447744
2651,-0.2872140548791825
2652,-0.3197309151691766
2653,-0.3447362302009236
2654,-0.3542004759050149
2655,-0.33112293000425
2656,-0.24200507002842953
2657,-0.047405820734118365
2658,0.26673673468449866
2659,0.6570043934798764
2660,1.0197588185044624
2661,1.2316995111122917
2662,1.214449622336905
2663,0.9808300114280665
2664,0.6291497481605511
2665,0.28788919983757777
2666,0.04839074748622798
2667,-0.07055874841232372
2668,-0.1089476561628281
2669,-0.12161845554061151
2670,-0.14030637718851735
2671,-0.16512339899527734
2672,-0.1816324628685544
2673,-0.18189742367269984
2674,-0.1715756480076871
2675,-0.16196861968305237
2676,-0.15869267823948344
2677,-0.1578521419660217
2678,-0.1509940725804198
2679,-0.1326506124257516
2680,-0.10450116776939128
2681,-0.07483665063785536
2682,-0.055065267588944554
2683,-0.05479441346260593
2684,-0.07649576343601494
2685,-0.11208811545335595
2686,-0.14492507947178096
2687,-0.15822786920029086
2688,-0.1454666560082124
2689,-0.11482862699738822
2690,-0.08332532711430235
2691,-0.06447438583259038
2692,-0.05935123131338815
2693,-0.05818455263383916
2694,-0.05047939213828886
2695,-0.034309266108056846
2696,-0.016768556016486982
2697,-0.006171835421022923
2698,-0.004109553056615077
2699,-0.004887383899015976
2700,-0.002187506617074289
2701,0.004232262313419888
2702,0.008583027238007544
2703,0.0055491860940487
2704,-0.0035393764636511534
2705,-0.011221565136574102
2706,-0.01071241123383222
2707,-0.002346515315025588
2708,0.006638734513339912
2709,0.008766912151650166
2710,0.003011462092490008
2711,-0.004798771919211074
2712,-0.007976996479910655
2713,-0.005370688785800298
2714,-0.002013210371434173
2715,-0.003735488396480166
2716,-0.01135773457242258
2717,-0.020237797497277263
2718,-0.02532264479403702
2719,-0.026212822472106618
2720,-0.026867839773774122
2721,-0.030341060646556887
2722,-0.03438398080576947
2723,-0.033115281148272835
2724,-0.023607921701358774
2725,-0.010633496022912105
2726,-0.003959271139021112
2727,-0.009849362409100112
2728,-0.024682883025345
2729,-0.03730101853690583
2730,-0.03858445919572191
2731,-0.02957396423116623
2732,-0.020414641622611612
2733,-0.02094120725883787
2734,-0.03169946991409049
2735,-0.04380653923315778
2736,-0.047569487575780486
2737,-0.04144047019298576
2738,-0.03280803349879664
2739,-0.03028427404371733
2740,-0.035404902752842075
2741,-0.04187329743616945
2742,-0.042629108397833286
2743,-0.03714927000738248
2744,-0.03144908815899569
2745,-0.03105883308874543
2746,-0.0346923042952124
2747,-0.03564040577045963
2748,-0.029702402802152954
2749,-0.021179010335116866
2750,-0.019863139907367957
2751,-0.03106899357670991
2752,-0.048451490477854395
2753,-0.05754832070361627
2754,-0.04783158686134007
2755,-0.022354969506312418
2756,0.004342340285027906
2757,0.018596690541123534
2758,0.01895978344160437
2759,0.0160390540152702
2760,0.021227537240425042
2761,0.03524794927987504
2762,0.04746109490395681
2763,0.04640265382673386
2764,0.03122876501631918
2765,0.013089168250404102
2766,0.005341295143191247
2767,0.012138872408078939
2768,0.02600371526099842
2769,0.03588519191977002
2770,0.037244831015430385
2771,0.03459139458158257
2772,0.03512345405779538
2773,0.040921940255631915
2774,0.04767522017598727
2775,0.05030088925076493
2776,0.04848650202716036
2777,0.0458074542311097
2778,0.04366573634566236
2779,0.037421080541798726
2780,0.020018589097724658
2781,-0.009771898109977441
2782,-0.043020372952303106
2783,-0.06562040860571926
2784,-0.0689976821695788
2785,-0.05700935614631919
2786,-0.04265542206196177
2787,-0.037499971392439276
2788,-0.043175341728978245
2789,-0.05199686076692127
2790,-0.05513513260272504
2791,-0.05029420264519955
2792,-0.04225088271123366
2793,-0.036925290629397395
2794,-0.03552460068382313
2795,-0.03437843714595752
2796,-0.029893902504819294
2797,-0.023006067823637188
2798,-0.01840677551179517
2799,-0.019446213273460307
2800,-0.02414915308430072
2801,-0.026745534286434253
2802,-0.023525811094177472
2803,-0.017215486751582337
2804,-0.015086111954801855
2805,-0.021968795408912417
2806,-0.03463604484143831
2807,-0.04338356400750945
2808,-0.0401977531081663
2809,-0.026405181603595215
2810,-0.012456329436178772
2811,-0.00928594632305868
2812,-0.01860374806839537
2813,-0.031029559853043998
2814,-0.034233407322200024
2815,-0.02403230036664633
2816,-0.008330301672185791
2817,-9.611457443883559e-05
2818,-0.005685560398376847
2819,-0.01926905941036461
2820,-0.028518285624099127
2821,-0.026154914095449507
2822,-0.01645443926549671
2823,-0.01064763836076446
2824,-0.015776259765702863
2825,-0.027756976369144287
2826,-0.03525122932522863
2827,-0.030511720858393147
2828,-0.016778914390607136
2829,-0.0053009367294529364
2830,-0.005054861202695791
2831,-0.014986835389024199
2832,-0.02574783325752297
2833,-0.028622366250797292
2834,-0.022829937830877858
2835,-0.014686477535913619
2836,-0.010432439030037759
2837,-0.010395687110122263
2838,-0.01004005228093408
2839,-0.006044946967348491
2840,-0.000611005324641877
2841,0.0005223949667779487
2842,-0.005889645065089448
2843,-0.01684746586008217
2844,-0.025405419810086656
2845,-0.026546534517159062
2846,-0.020817634701869224
2847,-0.012668382007565041
2848,-0.006010779625259286
2849,-0.0018823672048249374
2850,3.180384105326545e-07
2851,-0.0012166202127367855
2852,-0.006996924012119156
2853,-0.016067323878903847
2854,-0.022730649159670106
2855,-0.020494554724398054
2856,-0.008839502775710132
2857,0.0037853828131747046
2858,0.005440206375977181
2859,-0.00873773837372994
2860,-0.030443364747977385
2861,-0.04347603431208559
2862,-0.037105486193078636
2863,-0.015963316002441295
2864,0.0030251861412785557
2865,0.004715210123212596
2866,-0.011530100130091186
2867,-0.03203655101303856
2868,-0.04173564082099816
2869,-0.03769252239064191
2870,-0.030558155768397474
2871,-0.032834302744237945
2872,-0.04558792477257335
2873,-0.0567717337991089
2874,-0.05290974929946307
2875,-0.032577873376694835
2876,-0.008029407576836393
2877,0.0071087762361996465
2878,0.012009632777419533
2879,0.019996803577309916
2880,0.04444847835106575
2881,0.08214776001524685
2882,0.1107527407676007
2883,0.10472673719918167
2884,0.05674281518863539
2885,-0.014366305493864149
2886,-0.07658285170317064
2887,-0.1075502914674806
2888,-0.1077736989346742
2889,-0.09399843582890183
2890,-0.08079058397926156
2891,-0.06831104301018623
2892,-0.047023522104149035
2893,-0.013079291957024394
2894,0.022117977878722397
2895,0.0385430065606637
2896,0.024586517249203067
2897,-0.011683770929966027
2898,-0.04793635364075835
2899,-0.06494877597309497
2900,-0.06036415906442048
2901,-0.04722584730353524
2902,-0.04011832495804549
2903,-0.04257759164800019
2904,-0.0467783725461187
2905,-0.043875390587607935
2906,-0.03356276975832309
2907,-0.023589268637263988
2908,-0.020989453014833417
2909,-0.025036233518764828
2910,-0.0292774159353972
2911,-0.029822867182789644
2912,-0.03022627599016524
2913,-0.03699833136132409
2914,-0.05010322297123915
2915,-0.058898861663177246
2916,-0.049243084424476176
2917,-0.016301743915972434
2918,0.02889171311952133
2919,0.06608260627979651
2920,0.08057069502827105
2921,0.07340632588603115
2922,0.05840606383812173
2923,0.04934981674468171
2924,0.049232450448590565
2925,0.0506869418079213
2926,0.04573519437585135
2927,0.03456801869840444
2928,0.02496685346398643
2929,0.02380590397984058
2930,0.02981307879487148
2931,0.03491622057956644
2932,0.03236491072356652
2933,0.022929603913486356
2934,0.01282647117642125
2935,0.005977196437545587
2936,-0.0006792110680970364
2937,-0.013363507291359548
2938,-0.0329958576234802
2939,-0.051525311114205954
2940,-0.05803713827046274
2941,-0.04935946596095984
2942,-0.0344320181206377
2943,-0.027221652816909154
2944,-0.03440428880925456
2945,-0.04977447190835494
2946,-0.0610827207075749
2947,-0.06262311409475421
2948,-0.06093130530474283
2949,-0.06779687638061252
2950,-0.08775305356257168
2951,-0.11299931918321479
2952,-0.131136963516503
2953,-0.13778258383348935
2954,-0.14092701498146593
2955,-0.15246954174222105
2956,-0.17589049485027414
2957,-0.20323457676556833
2958,-0.22474473513954346
2959,-0.24078403466245626
2960,-0.2626962324790321
2961,-0.3004600948155989
2962,-0.34875519967744995
2963,-0.3848406312537479
2964,-0.3796626924994842
2965,-0.31094893021950504
2966,-0.16751579856175675
2967,0.05331587902923382
2968,0.34366170934543433
2969,0.6729605750586862
2970,0.9772395888617165
2971,1.1694650931884651
2972,1.1771687549258472
2973,0.9872159762185198
2974,0.6635116161014188
2975,0.31854007293261893
2976,0.054264584319652566
2977,-0.0873384391866459
2978,-0.13126514909447876
2979,-0.1347487817550471
2980,-0.14223828615232903
2981,-0.16389531046556682
2982,-0.186458636847188
2983,-0.19769115205509297
2984,-0.19936520015256454
2985,-0.200651894812562
2986,-0.2044260565852968
2987,-0.203426116547236
2988,-0.18980988807758384
2989,-0.16635690854747737
2990,-0.14622419730338465
2991,-0.14088374940126558
2992,-0.14851638092107297
2993,-0.15473029484675757
2994,-0.14507554334411338
2995,-0.11740104342341785
2996,-0.08280139018184278
2997,-0.055261083345035864
2998,-0.04045360400522707
2999,-0.03374775851234909
3000,-0.027705868856712192
3001,-0.020426238782483237
3002,-0.016416748884102734
3003,-0.020039646362471644
3004,-0.029088993331926164
3005,-0.03546135108796157
3006,-0.03232217125777103
3007,-0.02052112167541887
3008,-0.007798634987010206
3009,-0.00152166427430063
3010,-0.002058890445426436
3011,-0.0032364137961350594
3012,0.0006617726004958212
3013,0.0083450693961107
3014,0.012077194949049026
3015,0.005128435674831173
3016,-0.0109545944816416
3017,-0.026524242532361277
3018,-0.03184679082966132
3019,-0.02579250927374676
3020,-0.017010134407216257
3021,-0.01613489224670629
3022,-0.025965393144519604
3023,-0.038684755980701827
3024,-0.042870908236139336
3025,-0.03397285220441204
3026,-0.01860158548031665
3027,-0.008643006814641507
3028,-0.010648264345355266
3029,-0.02032945859570537
3030,-0.02713349918599165
3031,-0.02436929244658017
3032,-0.015246503485201734
3033,-0.009281196907013813
3034,-0.012824489239362535
3035,-0.022983934836288505
3036,-0.030681914226396396
3037,-0.029595742599770693
3038,-0.022104877146609553
3039,-0.016555943256582346
3040,-0.01884506821888797
3041,-0.0268249224205604
3042,-0.03296891928304563
3043,-0.03229739485430734
3044,-0.02734136614187125
3045,-0.025124868077111617
3046,-0.029436346226948996
3047,-0.036528241954998854
3048,-0.03883525040734591
3049,-0.032960960625131625
3050,-0.023625975408515004
3051,-0.01926419081609851
3052,-0.02351720643292117
3053,-0.03126446094235013
3054,-0.0334381766290518
3055,-0.026027586236543762
3056,-0.014318459005799238
3057,-0.008039413973011585
3058,-0.01212127299747219
3059,-0.022149134500555695
3060,-0.028902395718051626
3061,-0.027356257586593276
3062,-0.02121320129427856
3063,-0.01867246194759217
3064,-0.02392945471217414
3065,-0.032956843649611794
3066,-0.03753166058703952
3067,-0.03311261510708255
3068,-0.022580222102915392
3069,-0.012478954363497257
3070,-0.006222884342995194
3071,-0.0015895322880608445
3072,0.0050974570511639165
3073,0.013079013505252594
3074,0.016535445787248644
3075,0.010608631949489857
3076,-0.0019245313966569253
3077,-0.010702971016763053
3078,-0.005583740156092556
3079,0.014623824579138675
3080,0.04070598833134817
3081,0.06041412678304059
3082,0.06788819470081883
3083,0.0665634655882599
3084,0.06344928772853038
3085,0.06102744746593289
3086,0.05508043399867123
3087,0.04056064046581062
3088,0.019321049917254154
3089,0.0013603722560100464
3090,-0.0025927704761103615
3091,0.009239765026731031
3092,0.026796093745493584
3093,0.03522099847955493
3094,0.026038452453801965
3095,0.0029984311053817487
3096,-0.021929821833326514
3097,-0.03824701714187857
3098,-0.04372457611208562
3099,-0.04331044896623601
3100,-0.04271907263909956
3101,-0.04351535144391373
3102,-0.04380004046585652
3103,-0.04236123191660725
3104,-0.040935006548012194
3105,-0.042013522798684484
3106,-0.04504940512933067
3107,-0.04592213853122068
3108,-0.040936234709008784
3109,-0.031314419723713086
3110,-0.023026405174495404
3111,-0.02140959271432688
3112,-0.025744560831442047
3113,-0.029585735748205298
3114,-0.027087647305470246
3115,-0.019235861972067947
3116,-0.013439310447212166
3117,-0.0163066608433994
3118,-0.026488386636343276
3119,-0.03495804430989889
3120,-0.03308276281397786
3121,-0.020994381925146736
3122,-0.008017269471866791
3123,-0.004356383546143436
3124,-0.011799639872457558
3125,-0.022360221154808138
3126,-0.02618863402155258
3127,-0.021040129923268782
3128,-0.014026093980191166
3129,-0.013971661696816098
3130,-0.022029094992008197
3131,-0.030005098138898657
3132,-0.028262268255743184
3133,-0.015502316722254997
3134,-0.0007129066684694028
3135,0.004853641060043457
3136,-0.001967850858544606
3137,-0.013533595618050655
3138,-0.018842855089881774
3139,-0.01385385434587582
3140,-0.004721674419426717
3141,-0.0010849819973752358
3142,-0.00624633302578593
3143,-0.013927832976315684
3144,-0.014636191365562469
3145,-0.005251760585840466
3146,0.00750216960558638
3147,0.012901881025552897
3148,0.005608388474905847
3149,-0.01018631931332769
3150,-0.02512932208635815
3151,-0.032686666650732055
3152,-0.03305471197914426
3153,-0.03022055878895119
3154,-0.026476451459600276
3155,-0.02066838588411439
3156,-0.011664722965054563
3157,-0.002392377316372765
3158,0.001026274782173947
3159,-0.004923741543958272
3160,-0.016268539540954207
3161,-0.02338012230828342
3162,-0.018919178790457764
3163,-0.004828861279472226
3164,0.008499383665993305
3165,0.010709242751955311
3166,0.0001584229917138769
3167,-0.01504073164643295
3168,-0.024405164415202747
3169,-0.023895205715535925
3170,-0.018100565896937808
3171,-0.014338540135023843
3172,-0.014984223751809404
3173,-0.015743499706816187
3174,-0.011336907913870988
3175,-0.0024588035090619426
3176,0.003496577327677986
3177,-0.0008145031584395617
3178,-0.01491920833488755
3179,-0.02963598605380271
3180,-0.03451295718341327
3181,-0.026937281091268393
3182,-0.01440271261917955
3183,-0.0077416476469950495
3184,-0.011587139392151311
3185,-0.02081062310771304
3186,-0.025880110397289664
3187,-0.02169921688655245
3188,-0.011584052161402337
3189,-0.0031718016549817643
3190,-0.000932503602747386
3191,-0.002809363984693875
3192,-0.003810120774919904
3193,-0.002155913075388108
3194,-0.0012388377840804499
3195,-0.005375977426104359
3196,-0.014103725365040478
3197,-0.02143835723377762
3198,-0.02133495549702556
3199,-0.013882051308636522
3200,-0.005626620757582542
3201,-0.0032577043501868276
3202,-0.006852982172175242
3203,-0.009750118210779219
3204,-0.005631299396119507
3205,0.004073990931631166
3206,0.010196612179716725
3207,0.0039495892754401254
3208,-0.014292704187125839
3209,-0.034151891504394245
3210,-0.04362039385464776
3211,-0.039102794817979875
3212,-0.027842774297265546
3213,-0.020629761901211633
3214,-0.021869493838781576
3215,-0.02641579730383567
3216,-0.02581967319740576
3217,-0.017505576663628848
3218,-0.007749873662529616
3219,-0.005638109548132285
3220,-0.014078343968077955
3221,-0.026708027110423322
3222,-0.033621465930174524
3223,-0.030270070663459787
3224,-0.021067017200095142
3225,-0.014668938790846043
3226,-0.015963208145675284
3227,-0.022513160617512913
3228,-0.028271785609240412
3229,-0.030081281254551992
3230,-0.030177904714720583
3231,-0.03259385479255863
3232,-0.0378682577791529
3233,-0.042077279864013925
3234,-0.041366006558268456
3235,-0.03705215099909259
3236,-0.03539102445316758
3237,-0.04139110610721676
3238,-0.05237958373438847
3239,-0.057948197292235534
3240,-0.04729980328895562
3241,-0.018092480700768097
3242,0.020815243516025456
3243,0.05515703431237878
3244,0.07476524084359543
3245,0.07913409390573124
3246,0.07524616334083238
3247,0.07058666095396193
3248,0.06774451809874026
3249,0.0645493019092126
3250,0.05820740668126772
3251,0.04870751635149921
3252,0.03847790179486277
3253,0.029589313140711344
3254,0.02211408875353393
3255,0.01540885796042121
3256,0.010384491312151219
3257,0.009479258568769779
3258,0.013665890550937455
3259,0.01960881796057925
3260,0.02071735393523018
3261,0.012151033799157749
3262,-0.004605185397655795
3263,-0.02232334453958104
3264,-0.03382520443104663
3265,-0.037760725425163705
3266,-0.03880092933955755
3267,-0.04205899045834392
3268,-0.04744504194372556
3269,-0.04988713018655737
3270,-0.045326511385588124
3271,-0.036165507615891546
3272,-0.030070392558052404
3273,-0.03285872570943604
3274,-0.04267439043695263
3275,-0.05176522544109262
3276,-0.054442126361723873
3277,-0.053144092053002925
3278,-0.056161231315974225
3279,-0.06912803625842796
3280,-0.08903529536443563
3281,-0.10706826276750372
3282,-0.11740873320223752
3283,-0.1228774834697039
3284,-0.13168442175503328
3285,-0.1490515464372688
3286,-0.17285128855339493
3287,-0.19775204110262123
3288,-0.22268578278615503
3289,-0.2524267959814071
3290,-0.2903867516438696
3291,-0.32968804177504385
3292,-0.3521543794736452
3293,-0.33688143528907877
3294,-0.27009319283734035
3295,-0.1472676707685836
3296,0.03171213569699272
3297,0.2642326951532903
3298,0.5359118514843454
3299,0.8070321160951711
3300,1.0114096833178425
3301,1.0791063382463975
3302,0.974393412109005
3303,0.7232366039956672
3304,0.4073379392705655
3305,0.1246344490998576
3306,-0.058915264282061036
3307,-0.13503714583490198
3308,-0.1423567737873182
3309,-0.13151035843554382
3310,-0.1330942759715625
3311,-0.14844697381128175
3312,-0.163075061989053
3313,-0.16648923993435505
3314,-0.16165233474043367
3315,-0.15950270464843447
3316,-0.16698973063322753
3317,-0.1804582056309556
3318,-0.18932634796959247
3319,-0.18539340802991322
3320,-0.16909518908225157
3321,-0.14791633372945057
3322,-0.12947647267902798
3323,-0.11592427331863575
3324,-0.10414680478637385
3325,-0.09053495752345239
3326,-0.07511937688716082
3327,-0.06117603606592491
3328,-0.051284655186131005
3329,-0.04438770164853034
3330,-0.03715350747860934
3331,-0.028214652318074997
3332,-0.02052959057345322
3333,-0.018801158938499804
3334,-0.02409958693381218
3335,-0.031253292716842934
3336,-0.032355458320680375
3337,-0.02369493599037272
3338,-0.009553643705489652
3339,0.0011608802326174392
3340,0.0026544319279001825
3341,-0.0028881831870114253
3342,-0.007988199061789325
3343,-0.007470082960097161
3344,-0.0034614486684001354
3345,-0.002834931709564288
3346,-0.009701544006141679
3347,-0.020604221827340775
3348,-0.027415852281622154
3349,-0.025172015539900082
3350,-0.01698607677610557
3351,-0.011017605157871667
3352,-0.012448512894571785
3353,-0.018517394442324087
3354,-0.021640596150414502
3355,-0.01746264503215899
3356,-0.009592506631425364
3357,-0.006033061968965825
3358,-0.010746808596659234
3359,-0.018936648018570063
3360,-0.021158315819784237
3361,-0.012607136969561995
3362,0.0014607508354261033
3363,0.009743667601939371
3364,0.0048605972094180805
3365,-0.010032994211710573
3366,-0.024161939726536224
3367,-0.02873959740999573
3368,-0.024239033200357613
3369,-0.01881542939182892
3370,-0.01993877627212748
3371,-0.027523095755683735
3372,-0.03487048075676444
3373,-0.035864450567358416
3374,-0.030946300879071707
3375,-0.02610704020254381
3376,-0.026376301427808245
3377,-0.030690005282433146
3378,-0.03330893416963643
3379,-0.03012326143625682
3380,-0.023231917640767367
3381,-0.01904952519948389
3382,-0.021848795260338706
3383,-0.029311040388467435
3384,-0.03465138251426261
3385,-0.03326987083313584
3386,-0.027312435751084323
3387,-0.023572098197220163
3388,-0.026763153570179596
3389,-0.03478089526499797
3390,-0.0405843947127157
3391,-0.038803949148660005
3392,-0.030577348640279105
3393,-0.021986725564916834
3394,-0.017877788055313086
3395,-0.017375102039914853
3396,-0.01555904329561169
3397,-0.009441291135630192
3398,-0.001954044246024235
3399,0.0003680695424845798
3400,-0.006077697707369129
3401,-0.017721957466525492
3402,-0.026311331661887295
3403,-0.025967407651675743
3404,-0.018095207276492907
3405,-0.009466275293073418
3406,-0.005474165456653184
3407,-0.005242352318779954
3408,-0.0032990327831220476
3409,0.004105917119468977
3410,0.014621535928331708
3411,0.02192864362609647
3412,0.02229409547764282
3413,0.018841960368260635
3414,0.018976049820379773
3415,0.027226599725670132
3416,0.0405154326449892
3417,0.05064663279349216
3418,0.05178304092484872
3419,0.045690391561090976
3420,0.039595347270683645
3421,0.03868405004826923
3422,0.040573570786559085
3423,0.037297975389516215
3424,0.023128512279096302
3425,0.0008507038119024252
3426,-0.01955306772682374
3427,-0.02877832933347735
3428,-0.02551409856688334
3429,-0.016744345059143236
3430,-0.011210583162434905
3431,-0.012389673276473667
3432,-0.01726874434531943
3433,-0.021229047420483742
3434,-0.023487371284155775
3435,-0.027468046759737352
3436,-0.03602557058873379
3437,-0.046875693128832496
3438,-0.05341341546972965
3439,-0.05050896868004253
3440,-0.03958728916311424
3441,-0.02775847461130014
3442,-0.02162356265349559
3443,-0.021747599577967035
3444,-0.02317613448662765
3445,-0.02129402355963563
3446,-0.016922706857534484
3447,-0.015383458852548347
3448,-0.020547102847827646
3449,-0.030189248669321624
3450,-0.03770575328589798
3451,-0.038584890963233316
3452,-0.034867110723352766
3453,-0.032698140651905176
3454,-0.03529130572469504
3455,-0.038712654397220256
3456,-0.03534515309196276
3457,-0.021987110512666042
3458,-0.004373272286909721
3459,0.006937831210405324
3460,0.00577541072787012
3461,-0.0042187609428479145
3462,-0.01331317079947313
3463,-0.014881705487730443
3464,-0.010969378686780929
3465,-0.008891679467124589
3466,-0.012702039903275278
3467,-0.018558798935776236
3468,-0.01888160898003737
3469,-0.010944826698743904
3470,-0.0007650640830497739
3471,0.0021566719550913
3472,-0.005787310810054774
3473,-0.01834090140800701
3474,-0.02513208734075527
3475,-0.0216766301488465
3476,-0.013736040193917866
3477,-0.011602016313666941
3478,-0.019854477792063875
3479,-0.032649654110767236
3480,-0.0391442248467086
3481,-0.033706472998108736
3482,-0.0209846674929797
3483,-0.01112199810785824
3484,-0.010094865331942444
3485,-0.014686592288576168
3486,-0.01669761554602891
3487,-0.011764080352123587
3488,-0.003836732391505656
3489,-0.0010340032482089021
3490,-0.007292439074550521
3491,-0.018233329681251638
3492,-0.025183422012299214
3493,-0.023115174594060147
3494,-0.014667015136065963
3495,-0.0067286317245087955
3496,-0.0036202129655225268
3497,-0.0039209531582590895
3498,-0.0036830983825437485
3499,-0.0018861810505648047
3500,-0.0018062952330753137
3501,-0.006678162359247182
3502,-0.014529863072685471
3503,-0.018382871001407758
3504,-0.012559369620550924
3505,0.0008327482144643876
3506,0.012058120141777855
3507,0.011258313658560243
3508,-0.0032059423731204705
3509,-0.02320536590662211
3510,-0.03751657896681951
3511,-0.040588918400870415
3512,-0.035607144833091256
3513,-0.029719522918440218
3514,-0.026653335763316056
3515,-0.023925304816095772
3516,-0.01686945671185069
3517,-0.004900840104527004
3518,0.006547258752647129
3519,0.010462608659678465
3520,0.004757096813185214
3521,-0.0054921861635610515
3522,-0.012285294270188603
3523,-0.01153188152344237
3524,-0.006260377536458103
3525,-0.0034618618285583254
3526,-0.007643637301253703
3527,-0.016934100736634282
3528,-0.024977749573819857
3529,-0.026550317755358602
3530,-0.021725813042049586
3531,-0.015146011396297128
3532,-0.011586610636209338
3533,-0.012177686957557516
3534,-0.0145434429673186
3535,-0.016094349903160936
3536,-0.0167430200631929
3537,-0.018252442588330052
3538,-0.02119652544990669
3539,-0.023208424045760526
3540,-0.020930720090456875
3541,-0.014012655284208
3542,-0.0068327459804551505
3543,-0.005434753481719012
3544,-0.012010910472180445
3545,-0.02228058700671002
3546,-0.028831339255464453
3547,-0.027707075748323325
3548,-0.02195471957677487
3549,-0.018444921754228277
3550,-0.02090844936297087
3551,-0.0261874160914891
3552,-0.027740655493579423
3553,-0.023040306704051442
3554,-0.017114057573303327
3555,-0.017979250942361837
3556,-0.02800977893691728
3557,-0.040026455811677866
3558,-0.04285623679279195
3559,-0.031793976536588484
3560,-0.014011665984211087
3561,-0.0032088806809839883
3562,-0.007935314619254678
3563,-0.024248597371119125
3564,-0.039495476434839236
3565,-0.043627164552761576
3566,-0.03752126085132529
3567,-0.030836646104895685
3568,-0.031854779898386164
3569,-0.039018193001373214
3570,-0.04184004392768283
3571,-0.029952369979688413
3572,-0.0019232164115810949
3573,0.033568762253377515
3574,0.06423773465823118
3575,0.08197629613492234
3576,0.08567017682995591
3577,0.07838628877133849
3578,0.063334161626971
3579,0.04288064121543564
3580,0.02054884073507319
3581,0.0023140999821370575
3582,-0.0056611456080707355
3583,-0.001521187736711826
3584,0.009933320008206636
3585,0.02000718083187224
3586,0.022275256041762066
3587,0.016996482444256535
3588,0.009880187049123289
3589,0.006318841277627357
3590,0.006365626003596039
3591,0.005069092416469478
3592,-0.002250336221193501
3593,-0.01491907581870847
3594,-0.02702495987417599
3595,-0.03271367635548126
3596,-0.03152188843778607
3597,-0.02844145340908571
3598,-0.02858257377549507
3599,-0.03182176047658755
3600,-0.03307470582872239
3601,-0.02827046668774058
3602,-0.020092700442983773
3603,-0.017260484292800318
3604,-0.027238187669396133
3605,-0.04897971927732047
3606,-0.07286890447655267
3607,-0.0884961561349032
3608,-0.09341361832755118
3609,-0.09482605818738159
3610,-0.10261578303508935
3611,-0.12012969788193714
3612,-0.1412009394344076
3613,-0.15608561759880557
3614,-0.1608712119003395
3615,-0.1619234044325285
3616,-0.17152440555725423
3617,-0.198528592643813
3618,-0.2417345790451193
3619,-0.29074641027880377
3620,-0.3324536278847429
3621,-0.35679213923625297
3622,-0.35670148801862056
3623,-0.32285075728644586
3624,-0.23913758448290198
3625,-0.08583427409017541
3626,0.147611890551886
3627,0.44600112344482523
3628,0.7595382416357296
3629,1.0127755384364179
3630,1.1319083348850305
3631,1.0783876800709438
3632,0.8697854172664488
3633,0.5739049966032728
3634,0.2777052537526228
3635,0.048620966951633995
3636,-0.08938505967645359
3637,-0.1531870373086938
3638,-0.17751319517132227
3639,-0.19000004981759905
3640,-0.2003574234136014
3641,-0.20623025148696883
3642,-0.20548837728891142
3643,-0.20243635105735902
3644,-0.2038570742915295
3645,-0.2110493431093572
3646,-0.21695874858830796
3647,-0.2116238764317239
3648,-0.19090562332101424
3649,-0.16055657623867012
3650,-0.13216320928160114
3651,-0.11466122072107283
3652,-0.10851459086119034
3653,-0.10681576393417264
3654,-0.10159753426839116
3655,-0.089793156490914
3656,-0.07433078905698919
3657,-0.0602949911432783
3658,-0.04999198373662257
3659,-0.04115443886255381
3660,-0.029518613728198355
3661,-0.01328761496607629
3662,0.004454215210892739
3663,0.0174636345149411
3664,0.020766976974166462
3665,0.014131773565303374
3666,0.0018481034712832492
3667,-0.010659915355653148
3668,-0.02021860099079815
3669,-0.02647770229612735
3670,-0.029844732128249125
3671,-0.029572776737850758
3672,-0.024375768718678296
3673,-0.014897295388432086
3674,-0.004935886712785816
3675,0.0006762892378081758
3676,1.0999795751126702e-05
3677,-0.004174722388178282
3678,-0.007096337522100935
3679,-0.006822278439734413
3680,-0.0064646602724164805
3681,-0.01105653480266011
3682,-0.021876387226182493
3683,-0.034011007956349856
3684,-0.040139376350843164
3685,-0.0372830054336745
3686,-0.029865595785802515
3687,-0.02566566756950192
3688,-0.028279916961975914
3689,-0.03353312693515336
3690,-0.033716605933668736
3691,-0.025787014815231782
3692,-0.01537261548431815
3693,-0.012159192574890128
3694,-0.020625445856159365
3695,-0.034981152173410024
3696,-0.043534307736689794
3697,-0.03883831067910354
3698,-0.02434843560646145
3699,-0.011430028548359568
3700,-0.009499496921028295
3701,-0.018334832746686215
3702,-0.029302341750564058
3703,-0.03377316569239064
3704,-0.03052594807190903
3705,-0.025467591058980575
3706,-0.024723405676884906
3707,-0.02839083881840493
3708,-0.03108784067018224
3709,-0.028321548196213353
3710,-0.021850761218094688
3711,-0.018370754131892243
3712,-0.022729104920391017
3713,-0.03254886580563521
3714,-0.039895451064405923
3715,-0.03864707091668716
3716,-0.030411726017690557
3717,-0.023027602326066605
3718,-0.022884166692921593
3719,-0.028511254497013874
3720,-0.031889937695112225
3721,-0.026477212389415104
3722,-0.014176426944893173
3723,-0.004166888868859857
3724,-0.004267429755939014
3725,-0.012974306144240652
3726,-0.02010093309637778
3727,-0.015928131749576135
3728,-0.00048705421669920345
3729,0.015883784864271853
3730,0.021521829866138584
3731,0.013767294538368342
3732,0.0011132235873994455
3733,-0.004642766168040024
3734,0.0012726305280239662
3735,0.013338477641697152
3736,0.021989970575937295
3737,0.02275518142738503
3738,0.019413253945601644
3739,0.018817583082603687
3740,0.02342760430668509
3741,0.029382069512109584
3742,0.03160918939947509
3743,0.029878003317070953
3744,0.028872695058902154
3745,0.032108834857880714
3746,0.03655068978645981
3747,0.03445973707673658
3748,0.021375655317265645
3749,0.002132311834361205
3750,-0.011954263860888343
3751,-0.012916430687786279
3752,-0.003738208944050692
3753,0.003929702979043491
3754,0.00019739239138631508
3755,-0.014245493075789005
3756,-0.029239386859003506
3757,-0.03494055331066824
3758,-0.03073861644462153
3759,-0.024887574805685927
3760,-0.025720589658109215
3761,-0.033461262729872605
3762,-0.04064976162427084
3763,-0.04032335239635206
3764,-0.03337862877668503
3765,-0.027649517871511663
3766,-0.02980423712998829
3767,-0.03840531016790386
3768,-0.045150182864241405
3769,-0.04295134396274184
3770,-0.03269637451726658
3771,-0.022070517434325823
3772,-0.017962114396862926
3773,-0.020314180600255468
3774,-0.023449015318144327
3775,-0.02295538940151164
3776,-0.02049872740090313
3777,-0.021329524042140148
3778,-0.027272512013441164
3779,-0.03313497316051567
3780,-0.03117332674574066
3781,-0.019660076116176508
3782,-0.00658992556846103
3783,-0.0037158993468284596
3784,-0.015716284630776907
3785,-0.03479245744462797
3786,-0.046489733264361566
3787,-0.04196472847246437
3788,-0.025504097457987956
3789,-0.010303099346304656
3790,-0.0065133944874096175
3791,-0.012797212922973405
3792,-0.019067391750075432
3793,-0.017228038774737994
3794,-0.009159255286724207
3795,-0.004229446120703016
3796,-0.009138487381334857
3797,-0.02046097963099465
3798,-0.02746498335871366
3799,-0.022504419087468835
3800,-0.00874047918504807
3801,0.00245712983597981
3802,0.0019894650804381
3803,-0.008676015774293585
3804,-0.019232447869060018
3805,-0.02039013051295569
3806,-0.012305937939899373
3807,-0.0037409482253595366
3808,-0.0032237193785716227
3809,-0.010998839960975657
3810,-0.01931749146472414
3811,-0.02027118143613194
3812,-0.013249771406504277
3813,-0.004978534174776231
3814,-0.0026552899163958307
3815,-0.0072820112223220875
3816,-0.013566283734739155
3817,-0.015895210678194695
3818,-0.013944857057268556
3819,-0.012290028013142884
3820,-0.014794832758788394
3821,-0.019929054255622608
3822,-0.022073933168668937
3823,-0.017572681683133848
3824,-0.0092216979161687
3825,-0.004270443783793963
3826,-0.007504028776518635
3827,-0.016139031847228785
3828,-0.021837227435992826
3829,-0.018352013580865766
3830,-0.007715521576873524
3831,0.0010369402885121526
3832,-0.0002788111018267132
3833,-0.011636932101324774
3834,-0.02463967384899274
3835,-0.02967185514096836
3836,-0.023893494174938433
3837,-0.013072857528387239
3838,-0.006088782705250336
3839,-0.007470437022591496
3840,-0.014571182531801608
3841,-0.02114927768899988
3842,-0.023199780945081717
3843,-0.021464425804885542
3844,-0.019022393408282066
3845,-0.017353911599430026
3846,-0.015263675418503271
3847,-0.011420948437977656
3848,-0.007142782886969455
3849,-0.005847196361102574
3850,-0.009457309705834683
3851,-0.015703164989163233
3852,-0.019663793499403368
3853,-0.018461853414244195
3854,-0.014392591821623345
3855,-0.012947950778319972
3856,-0.017282283201776397
3857,-0.024542091546961936
3858,-0.027996110100599488
3859,-0.023254440768449056
3860,-0.012634102474255105
3861,-0.0033059110273977637
3862,-0.0008796710253471392
3863,-0.004612715759287633
3864,-0.008852895599604019
3865,-0.009121668105738695
3866,-0.006611188628810209
3867,-0.006532779044451093
3868,-0.012093562624250724
3869,-0.020453407914478878
3870,-0.025077067480410074
3871,-0.02230653571570887
3872,-0.015442546314669812
3873,-0.011900351147334641
3874,-0.015961404389626743
3875,-0.024274821623509912
3876,-0.028768419738331254
3877,-0.02435744606176611
3878,-0.014025486332744495
3879,-0.006337556112013085
3880,-0.007779786755344999
3881,-0.017218708121866377
3882,-0.02747300746213327
3883,-0.031980860972256456
3884,-0.029917879987959414
3885,-0.025300107574919874
3886,-0.021983673154170054
3887,-0.020316165971883043
3888,-0.018714609985891147
3889,-0.017625253491719478
3890,-0.02058730339288501
3891,-0.030465475119229844
3892,-0.04470813118784091
3893,-0.0553358930673123
3894,-0.05493722650361162
3895,-0.043580473788640786
3896,-0.029873793687898303
3897,-0.02447602274659636
3898,-0.031423372156677905
3899,-0.04481403773139868
3900,-0.0535510127336806
3901,-0.049671807784748986
3902,-0.03308631851463137
3903,-0.009529999867320255
3904,0.015049496434949315
3905,0.03788694587159247
3906,0.058101826224569525
3907,0.07352879833899731
3908,0.08020921719622956
3909,0.07567605757636685
3910,0.06250251552938131
3911,0.04774898359860405
3912,0.03795797101780482
3913,0.03412799058964393
3914,0.03161519487315742
3915,0.02535177557333762
3916,0.015484247055421979
3917,0.007819472244232725
3918,0.008293584902041379
3919,0.01656320363510136
3920,0.025028277704940455
3921,0.02471896781478506
3922,0.012962642234579675
3923,-0.004201653375970563
3924,-0.01723834842012445
3925,-0.02130297276398445
3926,-0.01994261011633603
3927,-0.021003491188296412
3928,-0.028708662534075287
3929,-0.039414383489760695
3930,-0.04503924370104335
3931,-0.04092411895773219
3932,-0.030755400360232547
3933,-0.023969644518445823
3934,-0.028009542670842158
3935,-0.04238248085828901
3936,-0.059610305827281884
3937,-0.07188360169921018
3938,-0.07742322204107055
3939,-0.081294877910915
3940,-0.09053602952491918
3941,-0.10813133074539295
3942,-0.130815934714154
3943,-0.15212969036509208
3944,-0.1679361593538475
3945,-0.17998417860587376
3946,-0.19481688517321472
3947,-0.21884392702740627
3948,-0.25320592760258315
3949,-0.2922332383787073
3950,-0.3264533165435395
3951,-0.34702946418789477
3952,-0.34666882660833
3953,-0.3150632101820641
3954,-0.23348892665505022
3955,-0.07749053002536256
3956,0.16730701195575354
3957,0.48284543490791315
3958,0.8068650054323746
3959,1.0472840957762048
3960,1.121967921314036
3961,1.0026699982292364
3962,0.7342025802904995
3963,0.41361325662937326
3964,0.14084988533036877
3965,-0.02800744736466657
3966,-0.09671909790816749
3967,-0.10868851135239774
3968,-0.1099034634012893
3969,-0.12226773004038399
3970,-0.1418419085444001
3971,-0.15565030505405442
3972,-0.15884152228253257
3973,-0.1585058655182991
3974,-0.16458908728331517
3975,-0.1789702969293942
3976,-0.19308885902916967
3977,-0.19532235395446804
3978,-0.18075796808819955
3979,-0.15493137715980998
3980,-0.12910411584330025
3981,-0.11173976332799332
3982,-0.10323704080611729
3983,-0.09751465100987725
3984,-0.08824416731208148
3985,-0.07418787602094656
3986,-0.059507966607391105
3987,-0.04944774404647698
3988,-0.04554152477937014
3989,-0.04450156234378649
3990,-0.041424058405455086
3991,-0.034130526217957605
3992,-0.024666865187529266
3993,-0.016820444846563202
3994,-0.012290916801708084
3995,-0.009322285870952653
3996,-0.005079751070564322
3997,0.0007254686190991686
3998,0.004799888543002716
3999,0.0031661030017993246
4000,-0.004626749767337365
4001,-0.014148118134892328
4002,-0.019223805937175147
4003,-0.016913071493559993
4004,-0.009775101544707822
4005,-0.003327229466538205
4006,-0.001147756446759034
4007,-0.0023160351332000405
4008,-0.003539951348714437
4009,-0.003591812682198321
4010,-0.0052423355149499
4011,-0.012331361301895591
4012,-0.024709440318089436
4013,-0.03643265546606457
4014,-0.039833411158351546
4015,-0.0322698597802624
4016,-0.019167926858807464
4017,-0.009928374700716992
4018,-0.009962011922903163
4019,-0.01615182860043259
4020,-0.020190020459739513
4021,-0.01684602239788229
4022,-0.009313654407575232
4023,-0.0063385476710481215
4024,-0.013678621121693473
4025,-0.028078017140102395
4026,-0.039711536610016446
4027,-0.04093577907200508
4028,-0.03302423239980912
4029,-0.02447960889383743
4030,-0.022723179946617593
4031,-0.027388177509290013
4032,-0.03170048317874985
4033,-0.030239860833682443
4034,-0.024956394520065248
4035,-0.023163129463093818
4036,-0.029516851937328756
4037,-0.04033173954156766
4038,-0.04640997218815059
4039,-0.04194258132481975
4040,-0.03061630040755623
4041,-0.022501062500759825
4042,-0.024389674851361086
4043,-0.03299648823724853
4044,-0.03792124443991754
4045,-0.031787264901545875
4046,-0.017767298304040405
4047,-0.00701276019374005
4048,-0.008211244947284983
4049,-0.019181329541782772
4050,-0.028549342636357174
4051,-0.025927042955090553
4052,-0.010974491984589135
4053,0.006975182464823305
4054,0.017857737255557393
4055,0.019491524488880356
4056,0.017836239592107443
4057,0.019459836314036354
4058,0.02437698904836271
4059,0.026562370214103292
4060,0.021272970985230292
4061,0.011272692391965851
4062,0.005256704310597772
4063,0.009866917362741232
4064,0.02332992609356738
4065,0.03715033545365181
4066,0.04411940591668286
4067,0.04452976815043824
4068,0.044435443425509064
4069,0.04804502861592321
4070,0.05240036607192543
4071,0.05010752586955708
4072,0.037455320439914765
4073,0.01944672447233316
4074,0.006157910235757515
4075,0.0036293031971605513
4076,0.008257070355800982
4077,0.010400835254944351
4078,0.003773332051651472
4079,-0.008673103094430857
4080,-0.018205456820281123
4081,-0.019562738736784734
4082,-0.016543295325510278
4083,-0.018092974346059963
4084,-0.028707644398100952
4085,-0.04295081022112924
4086,-0.050039368801879106
4087,-0.04439426540512022
4088,-0.03177260302750494
4089,-0.02454290682945383
4090,-0.030214117663671075
4091,-0.044172001846599064
4092,-0.05381923964794606
4093,-0.050387888867228184
4094,-0.037167683663085455
4095,-0.02620473727925125
4096,-0.026611580378430075
4097,-0.03578065899083989
4098,-0.04203563060112728
4099,-0.036181731168354776
4100,-0.020755135605685666
4101,-0.007963137802044357
4102,-0.008252679806143868
4103,-0.02050530655822231
4104,-0.033227932815491745
4105,-0.03542589595271246
4106,-0.026566439267368902
4107,-0.01617514265863379
4108,-0.01389340269368462
4109,-0.020051276564059077
4110,-0.025956410776200884
4111,-0.023220397729517783
4112,-0.012497618897533704
4113,-0.0028602728776496145
4114,-0.002631779041948859
4115,-0.011078524117381066
4116,-0.01932284421476238
4117,-0.019389815496497702
4118,-0.012105198771972046
4119,-0.005890409379203954
4120,-0.007872480133688386
4121,-0.01651216618770254
4122,-0.02324404145232345
4123,-0.02127591923727562
4124,-0.012369917047879394
4125,-0.0046431952009285665
4126,-0.003849388800769321
4127,-0.007444372654221926
4128,-0.007844307547232688
4129,-0.0015528936396952068
4130,0.005652969585932697
4131,0.0036059207012260302
4132,-0.011555301208667372
4133,-0.03166195531988998
4134,-0.042279207219534355
4135,-0.03526886326746258
4136,-0.016385104302449383
4137,-0.00043807255423274636
4138,0.0016955400789471615
4139,-0.007861235764816833
4140,-0.01713061348996008
4141,-0.0162310644508792
4142,-0.0065113614284200575
4143,0.001620455982014672
4144,-0.0005241559690743044
4145,-0.011389789995523
4146,-0.021073840497308996
4147,-0.021265382301775833
4148,-0.013073240632485914
4149,-0.005147236615711111
4150,-0.004484175087095413
4151,-0.009531643574695197
4152,-0.01251359181494127
4153,-0.008276857781443166
4154,-0.0002894780017228442
4155,0.002563289973001948
4156,-0.004790799726996971
4157,-0.017825850311790004
4158,-0.026192659788376874
4159,-0.023534079575820273
4160,-0.01363404309432819
4161,-0.006718807389058579
4162,-0.009479927765960655
4163,-0.018634547726755688
4164,-0.024347504005595794
4165,-0.020086378358067078
4166,-0.00915568537208673
4167,-0.0015026865494650688
4168,-0.004026888053624971
4169,-0.013976541886689915
4170,-0.021843969770066137
4171,-0.0207299959743527
4172,-0.012853584157333401
4173,-0.006911324156079143
4174,-0.009184183915602464
4175,-0.017411336105860056
4176,-0.023455980896540066
4177,-0.021814908319301787
4178,-0.015165162974043711
4179,-0.011272291342393388
4180,-0.014486462601835826
4181,-0.020677235787598384
4182,-0.021064437974604333
4183,-0.011350459522942117
4184,0.0030347193804848406
4185,0.01117198654326005
4186,0.006634960754576381
4187,-0.006364108395683125
4188,-0.016724856997725093
4189,-0.016649600015836593
4190,-0.008593240814735122
4191,-0.0024308503864858303
4192,-0.0057197458510025705
4193,-0.016464204270007134
4194,-0.025187909014802973
4195,-0.024069421855860036
4196,-0.014248446336113493
4197,-0.004470456507086617
4198,-0.002740003960963208
4199,-0.009204551783847485
4200,-0.016881023920373356
4201,-0.018970218867836022
4202,-0.015264888262379919
4203,-0.01152251158905232
4204,-0.012956735131564982
4205,-0.018776507203750632
4206,-0.02330759971078938
4207,-0.022311129364345712
4208,-0.01778332483182589
4209,-0.01614453516856403
4210,-0.021571567792145994
4211,-0.031301979073961976
4212,-0.03786947901671258
4213,-0.036268473687119045
4214,-0.02899571351276521
4215,-0.02388935150075598
4216,-0.026760307297003162
4217,-0.0359545712585186
4218,-0.044087524995786394
4219,-0.04515487625170626
4220,-0.04003616973218677
4221,-0.03514363133448447
4222,-0.035782699820494444
4223,-0.040856044861317165
4224,-0.04393730266277967
4225,-0.039287147865617766
4226,-0.02665720863677884
4227,-0.010350564430809645
4228,0.005914606840563437
4229,0.022574030032497736
4230,0.04234023125590407
4231,0.06492231697287634
4232,0.08419884823359067
4233,0.09147685695806523
4234,0.08241644496246298
4235,0.06135041978103557
4236,0.03888304950756137
4237,0.024698796871382274
4238,0.02165755330236388
4239,0.02573290251584183
4240,0.030903437638639786
4241,0.03400544402235948
4242,0.035408513780234976
4243,0.035896430911006943
4244,0.03374446437382202
4245,0.025369321746497347
4246,0.009021412798634271
4247,-0.01224177158170605
4248,-0.03153276840255445
4249,-0.04260645080373171
4250,-0.0440561482077562
4251,-0.03962283876818754
4252,-0.034505129767731305
4253,-0.031184069281485018
4254,-0.02865270477986665
4255,-0.025592429304625214
4256,-0.02399458739771962
4257,-0.028929995626923014
4258,-0.04380703608777246
4259,-0.06542353857231234
4260,-0.08443645145224196
4261,-0.092425064277594
4262,-0.08998218691834824
4263,-0.08784229196940493
4264,-0.09843282762891334
4265,-0.12444637386616123
4266,-0.15527386123133202
4267,-0.17605951434143807
4268,-0.18215283484676126
4269,-0.18520627268325573
4270,-0.2036914669716246
4271,-0.24537140325050794
4272,-0.29812605125369696
4273,-0.3385003229067267
4274,-0.3497996297896342
4275,-0.3307900962183359
4276,-0.2846125232145919
4277,-0.19907364255352655
4278,-0.0426994486097933
4279,0.21022839799516652
4280,0.5410113590556098
4281,0.8693018275378838
4282,1.081535371376226
4283,1.0932259181168416
4284,0.902250907746744
4285,0.5927510705821287
4286,0.2854761359055227
4287,0.07054845660964866
4288,-0.03075521505758136
4289,-0.05484347195283386
4290,-0.05370020396209202
4291,-0.05874583165516873
4292,-0.07377889134196465
4293,-0.09108359445761724
4294,-0.1080013801854496
4295,-0.12856365784339469
4296,-0.15412972548627576
4297,-0.1774964555645775
4298,-0.18817312952674567
4299,-0.18256339990822482
4300,-0.16746016892714616
4301,-0.1531806183627817
4302,-0.1439955447039596
4303,-0.13581660026184436
4304,-0.12269715632440344
4305,-0.1043661984980717
4306,-0.08668685742070886
4307,-0.07520288386522506
4308,-0.06933769270709708
4309,-0.063532335561131
4310,-0.05366252171266941
4311,-0.04144687249031373
4312,-0.032168258757599016
4313,-0.02858851437013206
4314,-0.027989172178466686
4315,-0.02554155395033176
4316,-0.020035571643213564
4317,-0.015350049367749448
4318,-0.015815442423366313
4319,-0.020555243457618298
4320,-0.023355539194338838
4321,-0.018819056825239593
4322,-0.00857383804554138
4323,-0.0006743702845416323
4324,-0.002075254531666414
4325,-0.01140974767081408
4326,-0.019565433376346107
4327,-0.018072431342756264
4328,-0.007405246831481721
4329,0.003029810415554857
4330,0.003571414063551854
4331,-0.0064943071595705785
4332,-0.018059751380127574
4333,-0.02060173868822058
4334,-0.011927762539575967
4335,-8.119516804833355e-05
4336,0.0042056940602169
4337,-0.0028338428179022278
4338,-0.015268017774175288
4339,-0.023696694213784023
4340,-0.023910639789991302
4341,-0.019658105401980513
4342,-0.017575706821581376
4343,-0.02014002580816773
4344,-0.02388193727807282
4345,-0.024079999612800985
4346,-0.020304387329706405
4347,-0.016675933612295732
4348,-0.016810947615212367
4349,-0.01939864804879561
4350,-0.019679572287688275
4351,-0.015434085828172822
4352,-0.010684367906465698
4353,-0.012273048315728502
4354,-0.022132478506067556
4355,-0.033387227035307665
4356,-0.03538249292487679
4357,-0.023799586541522803
4358,-0.0061467749475742454
4359,0.0034998378837881733
4360,-0.0034944683316976586
4361,-0.02246214128115817
4362,-0.03925076661229497
4363,-0.0424650873481805
4364,-0.03292726525112366
4365,-0.02175287126948395
4366,-0.0192009917861354
4367,-0.02507735765907493
4368,-0.029718883783562307
4369,-0.02426256193622453
4370,-0.01002505592413602
4371,0.002121322560071962
4372,0.0017053603481910564
4373,-0.011650892747415816
4374,-0.027928428737267016
4375,-0.035755758069929505
4376,-0.03196492388614706
4377,-0.022814043984348553
4378,-0.01646918177859149
4379,-0.014717274490433203
4380,-0.012073752120775664
4381,-0.002629863597754534
4382,0.012802930335883827
4383,0.02672184666401442
4384,0.03209316259999756
4385,0.02929729323011932
4386,0.025769566115356874
4387,0.02868117611541755
4388,0.038011918675674446
4389,0.04689096106822436
4390,0.04870090611705728
4391,0.043674631967971764
4392,0.03836594475079731
4393,0.03868272192409006
4394,0.04367416017248059
4395,0.04640712202570511
4396,0.0410042143608946
4397,0.0286662843585278
4398,0.01658032478465841
4399,0.010862266920814012
4400,0.010712566377791883
4401,0.00967118885364742
4402,0.0026030450808678975
4403,-0.008785488875328058
4404,-0.017590109083327143
4405,-0.018894250549757196
4406,-0.01518004040927131
4407,-0.014337886788077913
4408,-0.0220498194283481
4409,-0.03600181126542118
4410,-0.04764538838212824
4411,-0.04982365826044166
4412,-0.04289893213784177
4413,-0.03366406497362001
4414,-0.028516895640101108
4415,-0.0278612498269307
4416,-0.027073985951625263
4417,-0.022500616071100994
4418,-0.015908038790667732
4419,-0.012698714438667439
4420,-0.01589060143401249
4421,-0.022388325724837635
4422,-0.025717611768731642
4423,-0.022608039375752904
4424,-0.016630381024713283
4425,-0.014914768351216672
4426,-0.020992556631014323
4427,-0.03086185934611403
4428,-0.03628814995626731
4429,-0.03219215557009087
4430,-0.02096718319540159
4431,-0.009723691804426182
4432,-0.0035285208153649807
4433,-0.001515909434361775
4434,0.00048434325211097644
4435,0.004011424666116774
4436,0.005343118285671413
4437,-0.0007541717556162153
4438,-0.014646955275356525
4439,-0.029642563563300726
4440,-0.03683751363353291
4441,-0.03276092071866124
4442,-0.02248358611060192
4443,-0.01501919685624706
4444,-0.015254358132481561
4445,-0.020026355625217526
4446,-0.021953735796084544
4447,-0.017109966337096293
4448,-0.008957570302285351
4449,-0.004714203062321529
4450,-0.007821674814247618
4451,-0.014082249107830278
4452,-0.015480636216013024
4453,-0.008148737658427222
4454,0.0032803981806323406
4455,0.009387436233257584
4456,0.004509007696659522
4457,-0.007852950169904763
4458,-0.017892507909779972
4459,-0.01805717518465056
4460,-0.009440460665256882
4461,-0.0002582035051074071
4462,0.0019205473552903975
4463,-0.00315278539824775
4464,-0.008840362398431684
4465,-0.008336333753047643
4466,-0.0011178706336287243
4467,0.0067560242239651895
4468,0.008314907882871732
4469,0.0016885017464117636
4470,-0.008940139837158339
4471,-0.017627628763545927
4472,-0.021583611622151902
4473,-0.022202022577067507
4474,-0.022112300958225153
4475,-0.02203619786871059
4476,-0.020763983040639887
4477,-0.017673843183832354
4478,-0.014341912655368433
4479,-0.013021369866759691
4480,-0.01363018766110418
4481,-0.012996046780463856
4482,-0.007936902478800727
4483,0.0005760936618677043
4484,0.006761398467445021
4485,0.004485018131887513
4486,-0.0067228550414897776
4487,-0.019847333554018326
4488,-0.02520300210595395
4489,-0.018270537602995213
4490,-0.0038023694977525196
4491,0.007634532376519287
4492,0.007968468874368285
4493,-0.0022100163084704198
4494,-0.014745436995882839
4495,-0.021048304988066282
4496,-0.018906017611805104
4497,-0.013245543057578014
4498,-0.010747612894152363
4499,-0.013627711115359206
4500,-0.01824515417413309
4501,-0.019387179167389856
4502,-0.015736034605366465
4503,-0.011143425513672305
4504,-0.010603665742288996
4505,-0.015048286663178617
4506,-0.020216954448088874
4507,-0.020797737295069153
4508,-0.015739974267124757
4509,-0.009362938516638983
4510,-0.006999960901912929
4511,-0.009462446112360412
4512,-0.012019604550654237
4513,-0.00922893205502968
4514,-0.0009651942133744498
4515,0.00657983128290259
4516,0.006421621582876257
4517,-0.0022774463109452373
4518,-0.012798132646250399
4519,-0.016809375726091376
4520,-0.012195226948276128
4521,-0.005099655406781185
4522,-0.003941209805609092
4523,-0.011073671374592857
4524,-0.0203089070683711
4525,-0.022899235754791327
4526,-0.0161891845434926
4527,-0.006368263019579696
4528,-0.0025292221124713025
4529,-0.007903564936044424
4530,-0.0169957282838736
4531,-0.021419933599812476
4532,-0.01847925319079967
4533,-0.01379344518984671
4534,-0.01536801733235771
4535,-0.025203926093872862
4536,-0.03699949561982162
4537,-0.042231266212683194
4538,-0.03838226079129753
4539,-0.031025359345661425
4540,-0.0278650392648831
4541,-0.03100514986214571
4542,-0.03527900278832492
4543,-0.03404272713478404
4544,-0.026228012469652284
4545,-0.01748722807622013
4546,-0.014630773847621868
4547,-0.0193531640292633
4548,-0.027441792946210693
4549,-0.0334579236255986
4550,-0.03521172775790188
4551,-0.03327291415798735
4552,-0.026950426474288275
4553,-0.012537344646055854
4554,0.01289484578518486
4555,0.045645780231221324
4556,0.07445132440148874
4557,0.08728330002415802
4558,0.08072229738396158
4559,0.06319627150577645
4560,0.04841103747203327
4561,0.04440045547664459
4562,0.04792056222084292
4563,0.04903807447358637
4564,0.04129821005085953
4565,0.027864621337623508
4566,0.01816985543797542
4567,0.01870931734533878
4568,0.02687586629514936
4569,0.03338418317833964
4570,0.03050770364183393
4571,0.018205435267588957
4572,0.0028815388846803285
4573,-0.009134988763020753
4574,-0.016661310640211025
4575,-0.0228192530533782
4576,-0.0301454205163463
4577,-0.03730151542031919
4578,-0.040725535599887536
4579,-0.03902022187000286
4580,-0.035061149724531
4581,-0.033498420502737616
4582,-0.03639339440134971
4583,-0.04167715225027102
4584,-0.0459737169546452
4585,-0.04862935986194254
4586,-0.05261930803593859
4587,-0.0614925611282614
4588,-0.07573568565780536
4589,-0.09232052615860223
4590,-0.10756810820976478
4591,-0.12004351060491819
4592,-0.13072924703559236
4593,-0.14122365156416197
4594,-0.1527912932055934
4595,-0.1672993079012027
4596,-0.18790103835086422
4597,-0.2171466564511778
4598,-0.25362310372485647
4599,-0.2908572159046521
4600,-0.3199340310317488
4601,-0.3320807620578019
4602,-0.3162546789404904
