,0
0,-0.006543950572570048
1,-0.0022145329170776694
2,-0.00196527680647271
3,-0.0053767686122239465
4,-0.007678764102774246
5,-0.004470846618432209
6,0.0037265348889638857
7,0.011698784919911213
8,0.014330496332154297
9,0.011140132684264482
10,0.0060488193002893095
11,0.0028336086459785402
12,0.00121291243314764
13,-0.002184571494549626
14,-0.009004480364103482
15,-0.015922184579516024
16,-0.017055836937380435
17,-0.010123306787375455
18,9.00606243294823e-05
19,0.005354898338630699
20,0.0020268982518915936
21,-0.0043353645772400435
22,-0.003130339917805176
23,0.011273481141247663
24,0.03282424376008583
25,0.04724617492295775
26,0.043365173498425315
27,0.022448944000887816
28,-0.0028564833670814338
29,-0.01907566204054622
30,-0.02245667496380812
31,-0.02028249392146224
32,-0.022412838407373736
33,-0.03142577954526544
34,-0.04052254437515637
35,-0.04064019455594234
36,-0.02956987775829618
37,-0.01441359492851196
38,-0.00539201317027606
39,-0.007124120187671884
40,-0.015404025724541682
41,-0.021876827538045936
42,-0.021651054624664153
43,-0.016728950897292903
44,-0.012709784185972479
45,-0.012668249300866824
46,-0.014294776407535445
47,-0.012718755454126983
48,-0.005888755588667792
49,0.0027678302192099377
50,0.006829726023869923
51,0.002159708658847547
52,-0.009666805961941877
53,-0.022565229562604816
54,-0.030629799702032133
55,-0.03258170264586821
56,-0.03275884475901816
57,-0.03812581044695825
58,-0.05349672839283762
59,-0.07824927485664415
60,-0.10684699197997695
61,-0.133054655509212
62,-0.15506609423255666
63,-0.17754781052505036
64,-0.20818242900444717
65,-0.2503049531243524
66,-0.2969458571174807
67,-0.33155513413075666
68,-0.33587118633350627
69,-0.29918300619299
70,-0.22128901615108604
71,-0.10664149658088096
72,0.04411811180870019
73,0.23480160851022264
74,0.46174947605328315
75,0.697018305606141
76,0.8829629804519298
77,0.9499597182370069
78,0.8523010836968478
79,0.6006132946524441
80,0.2668136277116544
81,-0.04618097407878641
82,-0.25375211072734427
83,-0.3277347009921655
84,-0.30049802322222074
85,-0.23530727576860164
86,-0.18532269563167914
87,-0.16839663282659276
88,-0.17026522382346537
89,-0.16733039677275746
90,-0.14847569803631405
91,-0.12057615437655146
92,-0.09796043158472853
93,-0.08835991028186718
94,-0.08779450764377983
95,-0.08667950001784477
96,-0.07936975287011461
97,-0.06790159621520953
98,-0.05769827625461235
99,-0.05091641711819141
100,-0.04454527697231257
101,-0.03474100928851283
102,-0.02227955435720963
103,-0.012979060228852158
104,-0.012243286117204152
105,-0.019060823357084374
106,-0.025669854335127994
107,-0.023755971483244414
108,-0.0116831381863121
109,0.003922534039786731
110,0.013718782745390339
111,0.013208606725643498
112,0.005521330707336276
113,-0.00263311690328433
114,-0.007414448616740622
115,-0.01037983786398125
116,-0.015097883668880145
117,-0.021928216187426797
118,-0.02673146714807229
119,-0.024979770950655934
120,-0.016952375983282655
121,-0.008400607505364414
122,-0.005622437827887521
123,-0.009660614570314445
124,-0.015405027942245287
125,-0.01657870164308605
126,-0.011734381769957962
127,-0.005399463286213062
128,-0.003383739275810765
129,-0.007079189338240449
130,-0.012471268972421602
131,-0.014694948769050243
132,-0.013297113573622383
133,-0.012674551289317637
134,-0.017139521272083555
135,-0.025664898507077646
136,-0.031875975336764735
137,-0.02969055508457662
138,-0.019283254190667128
139,-0.007495233547104883
140,-0.0020659155578176087
141,-0.005026134508475228
142,-0.011436536693375587
143,-0.014538594587611815
144,-0.012261323377403346
145,-0.00881727554610228
146,-0.00996997975632807
147,-0.016744714402114325
148,-0.023878983975224973
149,-0.024681283227909807
150,-0.017653270782922864
151,-0.008364756948785329
152,-0.004534720866876435
153,-0.008842189755640464
154,-0.01633235424880906
155,-0.01903801813995789
156,-0.013561155418687097
157,-0.004427974370746199
158,5.694691122320615e-05
159,-0.004383544630794544
160,-0.013906923821380122
161,-0.02006208080790982
162,-0.017579293135157693
163,-0.009081866674104714
164,-0.00238645784934864
165,-0.0031872087497369335
166,-0.010217765989255641
167,-0.017319603580398878
168,-0.019946896802036547
169,-0.019391837137668386
170,-0.020598211017073743
171,-0.026132702447734642
172,-0.032839888113090854
173,-0.03486308797985557
174,-0.029987371728779307
175,-0.022609584937515876
176,-0.019942021527379603
177,-0.025037430479960023
178,-0.03370274819734726
179,-0.03861360563414201
180,-0.036621797917744475
181,-0.03183562327483142
182,-0.03119754505052367
183,-0.03693899325744554
184,-0.04367918867377843
185,-0.04343732556895312
186,-0.03380463565826264
187,-0.021060128388416942
188,-0.01477180040051124
189,-0.018837610652295937
190,-0.027636256961286756
191,-0.031171305416150263
192,-0.02440189902111409
193,-0.011864349599552688
194,-0.003216183919348277
195,-0.004054679473212492
196,-0.010797557907108405
197,-0.014354964475925927
198,-0.00884973466699223
199,0.003006510375719265
200,0.012779103355067512
201,0.014320440066457735
202,0.009143037368351436
203,0.004303718659951163
204,0.005304709769114275
205,0.011046003163020398
206,0.015422007499043803
207,0.013522156034861104
208,0.006195287324516818
209,-0.0011827956420010512
210,-0.004011405675343223
211,-0.0023962926165724606
212,-0.00015468041684145098
213,-0.0005096879149526769
214,-0.003160589271937777
215,-0.0054867844171449225
216,-0.006064778470777569
217,-0.006365663599523803
218,-0.00876735061717077
219,-0.013264037785132226
220,-0.016823583071127426
221,-0.01647847640772405
222,-0.012972072939417142
223,-0.010776752265540408
224,-0.013882823649309817
225,-0.02136218681225062
226,-0.02744274976326371
227,-0.026585729653472192
228,-0.018908427990834243
229,-0.010532115394134732
230,-0.008142336035019649
231,-0.012768866276341571
232,-0.018802162057269395
233,-0.019341698947791454
234,-0.012810380466332762
235,-0.004451126717677984
236,-0.0012564142837371084
237,-0.005285600092534835
238,-0.01188145431091599
239,-0.014444452085450872
240,-0.010961128556550844
241,-0.005828239730574917
242,-0.005286418759437598
243,-0.011163772963106038
244,-0.0192181608344103
245,-0.02360091493817871
246,-0.022721403411939844
247,-0.020434322190413967
248,-0.021382205895135543
249,-0.025461833835406518
250,-0.027400439459809498
251,-0.022178833819706006
252,-0.010840306708435417
253,-0.0005049881421664635
254,0.0018882659221971416
255,-0.003877397074831029
256,-0.011066078871296205
257,-0.01255285649133154
258,-0.007825190100210447
259,-0.003409707558404965
260,-0.006113984344365327
261,-0.015705402611834184
262,-0.02445989663410848
263,-0.02438639444007122
264,-0.015259626796479634
265,-0.005485011065575602
266,-0.004569661355001647
267,-0.0141512954893121
268,-0.026168451277237374
269,-0.03012019178443611
270,-0.022739875745600976
271,-0.011055820118165794
272,-0.0059949258956749595
273,-0.012510899426630234
274,-0.025330738084130205
275,-0.03399087300532622
276,-0.032179367125141176
277,-0.022711078397265744
278,-0.013983611199770454
279,-0.011878144967255679
280,-0.014977891836164731
281,-0.0172305725508613
282,-0.014776391884627722
283,-0.009887463770211647
284,-0.008258191800550208
285,-0.012702816878345609
286,-0.019840465307870134
287,-0.023230545043008935
288,-0.019900887793517927
289,-0.013765292404278638
290,-0.012389581560470845
291,-0.019988378052292533
292,-0.03319095687729337
293,-0.04355200355489508
294,-0.04453140451921403
295,-0.036663476733558936
296,-0.026507689242992714
297,-0.02074178837267024
298,-0.020933679338962882
299,-0.02339366964452816
300,-0.023484253014637833
301,-0.019794271118825153
302,-0.014302650780402614
303,-0.009031130466771075
304,-0.003226861502905905
305,0.00565474975228553
306,0.01810213094676058
307,0.030093617622388456
308,0.0352575445137155
309,0.030293468804359493
310,0.018645664540701393
311,0.008486210305898183
312,0.006202403349807543
313,0.01105524228513493
314,0.016054305884862733
315,0.014593891517724292
316,0.006960608919204323
317,0.0006262431772790364
318,0.0037330810907688626
319,0.017434631531726474
320,0.0339572097137274
321,0.04219325195223656
322,0.03596584055486934
323,0.017964315268969917
324,-0.003435714880424083
325,-0.02086205230904395
326,-0.032008789467706494
327,-0.0383096221893967
328,-0.04097174532463426
329,-0.039181202960215766
330,-0.032161100755365386
331,-0.022128022902197245
332,-0.014120000732822787
333,-0.012233863292540448
334,-0.016028852216629
335,-0.021020386318683693
336,-0.022986099941283457
337,-0.021714079698448786
338,-0.02033266542484499
339,-0.021077547265505397
340,-0.02227368268527216
341,-0.02011356782433492
342,-0.013576492593805823
343,-0.007088234333300117
344,-0.007460182596019722
345,-0.01756007192757368
346,-0.03297639492058213
347,-0.045461253434284116
348,-0.050355843434540803
349,-0.05105746343042151
350,-0.056183369794523805
351,-0.072044919801004
352,-0.09757243578497324
353,-0.12645569597667916
354,-0.15426715431041316
355,-0.18348075899145821
356,-0.2212197862071941
357,-0.2713686583415894
358,-0.3279421320623611
359,-0.3755529537566338
360,-0.3966467750028392
361,-0.3795747511555995
362,-0.32135832557861455
363,-0.22398492651245394
364,-0.08872005762505414
365,0.08545180796904059
366,0.2966358276406641
367,0.5311979651859848
368,0.7581312864167347
369,0.9325380832051832
370,1.0090794301257753
371,0.9600170048826981
372,0.7888413598060088
373,0.5318623073172837
374,0.24610130656584955
375,-0.010939460537226574
376,-0.19990112735066398
377,-0.3083200285128396
378,-0.3472222193570492
379,-0.33977470912252494
380,-0.3092423393944651
381,-0.27185837117514244
382,-0.23589700349079146
383,-0.20450634891886155
384,-0.17879115570031762
385,-0.15906139531397284
386,-0.14442792726410747
387,-0.13233142760298655
388,-0.11937633005743305
389,-0.10340238496418014
390,-0.08526225400292423
391,-0.06856903666378458
392,-0.05713970011358752
393,-0.051942285817136655
394,-0.05014603281728088
395,-0.047307084654759635
396,-0.04091158984971675
397,-0.03207418365795493
398,-0.023806141367926734
399,-0.017632112126247122
400,-0.012116000456447356
401,-0.004992675453974077
402,0.003279505681741449
403,0.008613323679627288
404,0.006681552811658385
405,-0.0023383698340742613
406,-0.012605122558402154
407,-0.01691508376424248
408,-0.012904975215697943
409,-0.005275945552682744
410,-0.001642465276556931
411,-0.005736547657225006
412,-0.014381638653578128
413,-0.02103111657508823
414,-0.022218414763269686
415,-0.020452771191144203
416,-0.020809331632022678
417,-0.024966547913840034
418,-0.029074189065409282
419,-0.027828543302995168
420,-0.02054808588972791
421,-0.012715049981278061
422,-0.010951268901506014
423,-0.016267858741560663
424,-0.022579696358558783
425,-0.022440689145111263
426,-0.014599148751174233
427,-0.005757024526723806
428,-0.004365413009871552
429,-0.012226676643262898
430,-0.02219060974260701
431,-0.024566023387451473
432,-0.01635252345281856
433,-0.004387908600514529
434,0.0008444239858194018
435,-0.0049860085993432175
436,-0.015989152072933693
437,-0.021655887228908655
438,-0.016800313188869497
439,-0.006346568492894189
440,-0.00045220336664898454
441,-0.004766755018335682
442,-0.01521583760352457
443,-0.02217589132701983
444,-0.01976788825800878
445,-0.011193589281071697
446,-0.0051503917546241035
447,-0.007178104686391414
448,-0.014572356013120744
449,-0.019657973068480838
450,-0.017776732806133837
451,-0.011800102720398716
452,-0.008759543073253325
453,-0.012305015082004416
454,-0.018879446276115833
455,-0.021555430072194057
456,-0.017519521203857063
457,-0.011376147661291348
458,-0.010691706469410828
459,-0.018198725131829335
460,-0.028652028976851335
461,-0.03375012441300679
462,-0.030357568270133285
463,-0.023772936105269576
464,-0.022616864517024167
465,-0.030309197554972696
466,-0.04162836392823389
467,-0.04786712491330235
468,-0.04551504516360365
469,-0.039798800550684924
470,-0.03947244980026429
471,-0.047984910232129314
472,-0.05983200997350004
473,-0.06578539432444762
474,-0.06183200047908759
475,-0.0529090287274902
476,-0.04768599893568174
477,-0.04961461263946604
478,-0.053262624080689505
479,-0.049707546929958844
480,-0.035671824351988825
481,-0.01724096662238827
482,-0.00433656468640411
483,-0.0013543512271448099
484,-0.003275792469328193
485,-0.0011486574954397268
486,0.008543699526144241
487,0.020056121064696435
488,0.024033612420626578
489,0.017063649610537707
490,0.0055417696910499345
491,-0.00016596436589743713
492,0.00437431571910331
493,0.013445636327302127
494,0.016828562391145604
495,0.009767575430425111
496,-0.002521322960239479
497,-0.010126422334239913
498,-0.008156449855279888
499,-0.0012810348195079597
500,0.0012379365671729519
501,-0.005106850616512974
502,-0.015677975091252853
503,-0.021475488548274222
504,-0.018133318777588257
505,-0.01012841212119669
506,-0.006176850566830955
507,-0.010621042126259165
508,-0.019425676355945196
509,-0.02455015657560429
510,-0.022025050795594504
511,-0.015545568334721257
512,-0.0121724217739167
513,-0.014786703553523968
514,-0.01910857051349514
515,-0.01828968012477545
516,-0.010317867721114291
517,-0.0006130428453941534
518,0.002930266129081644
519,-0.0024309505050220596
520,-0.011580774202109465
521,-0.016448794984909643
522,-0.013669633037669653
523,-0.007470120620005645
524,-0.005069644656212722
525,-0.009321769779348075
526,-0.015981256471194978
527,-0.018256824318704575
528,-0.013971437582124085
529,-0.008033555103821673
530,-0.007632905458928585
531,-0.014910738290868603
532,-0.0244813312446087
533,-0.02843300397336427
534,-0.02398709362564897
535,-0.016255132671816493
536,-0.013292377771091272
537,-0.018247898265980222
538,-0.02632388029486779
539,-0.02954241239097906
540,-0.0246022694225817
541,-0.016045251206247352
542,-0.011620037018613253
543,-0.014513644829942622
544,-0.020253749505797856
545,-0.021400986718125518
546,-0.015299278747844598
547,-0.007010569067447218
548,-0.004347731163134614
549,-0.009900855172834287
550,-0.018116376478059068
551,-0.020565378010901567
552,-0.01435383714098979
553,-0.0053450223284522164
554,-0.002837190768162919
555,-0.010716655194917803
556,-0.02361472945535953
557,-0.03176306523046789
558,-0.029829453188022624
559,-0.021285108719657005
560,-0.014377432627646331
561,-0.013982972465449694
562,-0.01740304525710603
563,-0.017963190108026612
564,-0.012443561206845668
565,-0.004715128508083337
566,-0.001967092560304992
567,-0.007412722792364756
568,-0.016841208986982527
569,-0.02248326993197463
570,-0.020383412837139486
571,-0.01405792275503585
572,-0.01093863479348053
573,-0.01516399412149197
574,-0.023720987352948204
575,-0.029520055971883695
576,-0.028215516831408508
577,-0.02211527398023983
578,-0.01758773565968546
579,-0.018780855975234063
580,-0.02390953634684405
581,-0.027617095500209663
582,-0.026840165898284394
583,-0.02420226173817119
584,-0.025476815703135206
585,-0.033547354633741956
586,-0.044793056992391056
587,-0.051573529313353635
588,-0.04867303489369883
589,-0.03776917982442887
590,-0.02581718724090292
591,-0.018925903528872565
592,-0.01744755272397218
593,-0.016709845713602983
594,-0.012366887699379553
595,-0.004958705555960575
596,0.0008423878393271646
597,0.0014985791406883584
598,-0.0010214656718519693
599,-0.000495747960039804
600,0.0074430574514116905
601,0.02019253066839371
602,0.029452215450747582
603,0.02835382127064541
604,0.018016793397054667
605,0.007069509561946873
606,0.0040126673510417965
607,0.009256385354335914
608,0.014480595976569444
609,0.010434429671520846
610,-0.003729702645246434
611,-0.018361714074928228
612,-0.02086678132041018
613,-0.006447819805985024
614,0.017485204373209967
615,0.0370730409779396
616,0.0426420787815305
617,0.034898656124649534
618,0.021992805765033957
619,0.011308267418819795
620,0.00405510807331137
621,-0.003018163014646979
622,-0.011924412658395538
623,-0.020396716264429873
624,-0.024545429799448588
625,-0.02375186110132767
626,-0.021940408804349516
627,-0.023495873569617375
628,-0.028181385296033486
629,-0.030836138716255686
630,-0.026719575894516102
631,-0.017199789202451903
632,-0.009627650868576438
633,-0.01088476706039151
634,-0.020672805768865814
635,-0.03135397826658342
636,-0.03498607352412722
637,-0.03101278234572507
638,-0.02703483586497642
639,-0.0315384088172928
640,-0.04537622586738577
641,-0.06044150586316405
642,-0.06737357961390524
643,-0.06528044702812755
644,-0.06392084060621325
645,-0.07552251465588955
646,-0.10351615235132433
647,-0.13920514309938936
648,-0.17041320944154442
649,-0.19431168816724356
650,-0.22131477146384898
651,-0.2643590261514877
652,-0.3221834197739032
653,-0.3727484296049305
654,-0.38503050377391934
655,-0.34002502592761935
656,-0.2414668777142155
657,-0.10528715489535888
658,0.06183478566037663
659,0.2706685244471323
660,0.52994709139084
661,0.8123481780976949
662,1.0394625054205244
663,1.1102206628563165
664,0.9620367049258256
665,0.6216636355662767
666,0.20366020216498398
667,-0.14856745341185829
668,-0.3401629607854555
669,-0.36747174266672755
670,-0.300265638412477
671,-0.22353118868154237
672,-0.18494545713706545
673,-0.1819345857832857
674,-0.1863238307355614
675,-0.17739136495477342
676,-0.15585907754628497
677,-0.13452583257290207
678,-0.12170597282975407
679,-0.11465156722332767
680,-0.10580201485706464
681,-0.09191864208396805
682,-0.07632439338536767
683,-0.06399855253107406
684,-0.056431257262423304
685,-0.05140594509900281
686,-0.046331081306879365
687,-0.040497691917332074
688,-0.03436204651946812
689,-0.028081494551986684
690,-0.021806128890685575
691,-0.016982712578823528
692,-0.01595121405834101
693,-0.019262393454074215
694,-0.023711058195436244
695,-0.024223160164335615
696,-0.0186166983649673
697,-0.010428073971723989
698,-0.006245542959566679
699,-0.009574148536164829
700,-0.01727874564811118
701,-0.022454410222445154
702,-0.02107655724491176
703,-0.01573623707729192
704,-0.012607105865213564
705,-0.014756391882279524
706,-0.018777396821912956
707,-0.0183557105224126
708,-0.011166419224395418
709,-0.0018996367191201691
710,0.0019553964993533537
711,-0.002493694993337663
712,-0.010456592698583986
713,-0.014007124685203124
714,-0.0099346753298615
715,-0.003129948290064191
716,-0.002019643071380241
717,-0.010380950353039254
718,-0.023481637549028885
719,-0.03232349049944188
720,-0.03190946476724224
721,-0.025596321127220118
722,-0.021457226025412113
723,-0.024324214176318235
724,-0.031252029943345944
725,-0.03467144839563035
726,-0.029988542934338842
727,-0.02017741778911898
728,-0.012992152996240604
729,-0.013636314809719472
730,-0.020008142586120048
731,-0.024948052420634435
732,-0.02306773594120537
733,-0.015482813901189545
734,-0.008113408786063956
735,-0.005627404785176335
736,-0.007183577159034528
737,-0.008005844084144027
738,-0.004835794745412939
739,0.00046549426135864035
740,0.00279518495581285
741,-0.0008899165248945828
742,-0.008357937417023991
743,-0.014270899343433839
744,-0.01549376293327185
745,-0.014093822318157196
746,-0.01495585628365365
747,-0.020461109768191058
748,-0.02772558209833028
749,-0.03134670481417375
750,-0.029001922749759948
751,-0.024232594886158337
752,-0.023421042070043495
753,-0.029728755430382843
754,-0.039885554383747135
755,-0.0470511139207746
756,-0.04708856886821959
757,-0.042266200633123314
758,-0.038900854346431285
759,-0.04130844596525725
760,-0.04789733500909611
761,-0.05298831478763895
762,-0.05229222636641369
763,-0.04654345898877078
764,-0.039893845553729566
765,-0.03507608513861613
766,-0.03055353368664416
767,-0.022673734843718842
768,-0.01052372981415338
769,0.0017832114318369389
770,0.008170906462117324
771,0.00628803090405809
772,0.00015869674448965466
773,-0.0031222300624903798
774,0.00026969374593532663
775,0.007558727360310394
776,0.012291352217448634
777,0.010669214010974929
778,0.005095878006537024
779,0.001498534596102413
780,0.0031767492146003115
781,0.007396157214333771
782,0.008184665830387655
783,0.0025232433136920156
784,-0.00635712892909174
785,-0.011996682534217235
786,-0.011083688843904746
787,-0.006757147080577858
788,-0.005432049530083439
789,-0.010283844668807754
790,-0.01796915428153726
791,-0.02194404020342466
792,-0.019051093267536637
793,-0.012674571465432966
794,-0.009211741274303749
795,-0.011443039944000494
796,-0.015636038157673532
797,-0.015474225156119023
798,-0.008884215719045543
799,-0.0007090146108969869
800,0.0017438478427078288
801,-0.004015965621970924
802,-0.012915467527705603
803,-0.017094754707093287
804,-0.013639809246854415
805,-0.007573473186909912
806,-0.006958983098257423
807,-0.014783191152315973
808,-0.025597459198234626
809,-0.030350347857725165
810,-0.024869571062207472
811,-0.013871742890267937
812,-0.0066926338603107245
813,-0.008882573980706975
814,-0.01764333070482861
815,-0.025170713665492776
816,-0.026282402089250527
817,-0.022798186768013748
818,-0.02067669517942385
819,-0.02321455323110466
820,-0.02740071681924603
821,-0.02713522892282414
822,-0.019961727181339324
823,-0.010324519012517453
824,-0.005791214040587411
825,-0.009781389445052201
826,-0.01802299166166298
827,-0.022464169052987155
828,-0.019032434084263028
829,-0.011682710133521111
830,-0.008626270491584077
831,-0.014252579004208295
832,-0.024602022694983995
833,-0.030938175254861425
834,-0.02809279355993237
835,-0.019487582560665448
836,-0.01385119653751031
837,-0.016728644009418765
838,-0.025037422683064022
839,-0.03002340824267535
840,-0.025768698528940696
841,-0.014946244907608475
842,-0.006214677202242374
843,-0.0058672119493000385
844,-0.011960062517828829
845,-0.016599778248121914
846,-0.013943354350141384
847,-0.005890384144886218
848,6.03568489923002e-05
849,-0.0016212474849724061
850,-0.009241692209484155
851,-0.01609034878980925
852,-0.017543072037833517
853,-0.015605147545884573
854,-0.016293749112027193
855,-0.022787993817728787
856,-0.03164105240477492
857,-0.03608529166623253
858,-0.033026144176615466
859,-0.026449167818310984
860,-0.023645597412963723
861,-0.028054680985382184
862,-0.03598451813520819
863,-0.040478070820702164
864,-0.038296616992726656
865,-0.03289562083510945
866,-0.030472244553897368
867,-0.033276765146923716
868,-0.03711083398920839
869,-0.03557518954945152
870,-0.026718880436549405
871,-0.015321548748028647
872,-0.00848412572134289
873,-0.00892730340799358
874,-0.012628315815486735
875,-0.013028572587210806
876,-0.007526008872773642
877,0.00018156138648157835
878,0.004104771996252266
879,0.002220819874187861
880,-0.0012850229756385648
881,-6.86305183051749e-05
882,0.007923065794396458
883,0.01786047219550796
884,0.021930303928037978
885,0.016251548967418837
886,0.004496316252433114
887,-0.005096382723349283
888,-0.006641702105450474
889,-0.001311252937951977
890,0.004250765753882446
891,0.004222867878903233
892,-0.0010524677752368125
893,-0.005328256108321919
894,-0.0019147206422249173
895,0.01053368573472408
896,0.026790675610434068
897,0.03904174351675955
898,0.04225703052444176
899,0.03642577051332846
900,0.024533655578690174
901,0.00918700627295725
902,-0.008467514348963418
903,-0.02691397314973435
904,-0.04240094206135547
905,-0.050091625497389825
906,-0.047865690943485945
907,-0.03899343075555446
908,-0.03033921468663925
909,-0.027010951987092573
910,-0.02826275255581509
911,-0.028750844414859426
912,-0.024188253705136966
913,-0.015916705831595962
914,-0.009680220979006705
915,-0.00958508667981647
916,-0.013334192994567989
917,-0.013975788781415248
918,-0.00701259541204269
919,0.004043694668966034
920,0.009707840715064857
921,0.003004645650197162
922,-0.013427953805705242
923,-0.028858369340832038
924,-0.0340215012662327
925,-0.03028045369852806
926,-0.029691478798106165
927,-0.04526129521735431
928,-0.07972408677874374
929,-0.12286905667321736
930,-0.16008187835094748
931,-0.1848603963176844
932,-0.20441483525706322
933,-0.23322039965951163
934,-0.27950737366362277
935,-0.33560589601007096
936,-0.38007982640455973
937,-0.390317188927906
938,-0.3560409674395832
939,-0.283268512157319
940,-0.18533074523635662
941,-0.06778146861363288
942,0.07986867954460533
943,0.2757948054165632
944,0.522850287662753
945,0.7861623209772645
946,0.9911896726967684
947,1.0518706857254947
948,0.9176218114430743
949,0.6105976430842759
950,0.225573689099124
951,-0.11303344711150248
952,-0.31309222528952596
953,-0.3570001061861175
954,-0.2981815047380746
955,-0.21739115113527152
956,-0.17131635844428866
957,-0.16791992454814358
958,-0.1796890175666342
959,-0.1771797092807934
960,-0.1537064251141066
961,-0.12461677962820293
962,-0.10798212481946981
963,-0.10721272211055748
964,-0.11035706898952492
965,-0.10362929022788431
966,-0.08457716705747972
967,-0.06297036750707073
968,-0.05034263304168294
969,-0.04926021332167734
970,-0.052147534000995754
971,-0.04954308267419403
972,-0.03907757203998383
973,-0.02682157849249938
974,-0.020560426343057957
975,-0.022028819402745804
976,-0.025465321317332014
977,-0.023417400587234766
978,-0.013953720842079185
979,-0.00248733501027154
980,0.003257585032783088
981,0.0002172076854332274
982,-0.0075834113640346175
983,-0.013152733245169695
984,-0.013059211193566709
985,-0.01014391546161688
986,-0.010041651819313824
987,-0.01512713198538399
988,-0.021894444536375814
989,-0.024306886876692316
990,-0.019746407056741216
991,-0.011656486401248303
992,-0.006303141969949716
993,-0.006940227377846699
994,-0.01117751556156613
995,-0.013998552527127325
996,-0.013103192241458386
997,-0.010984341194251804
998,-0.011708105577465456
999,-0.016012637864983602
1000,-0.02012820176322737
1001,-0.01972733963372053
1002,-0.014832083740511133
1003,-0.01029595393771172
1004,-0.011051012902158357
1005,-0.016923816458645814
1006,-0.022502413890427817
1007,-0.02241276269241277
1008,-0.01671142548370123
1009,-0.010867967378908413
1010,-0.010328614866324895
1011,-0.015215069350422687
1012,-0.020518172684594917
1013,-0.021404970503407315
1014,-0.01799509373509736
1015,-0.0146824394664696
1016,-0.014965078084436697
1017,-0.017522967483111766
1018,-0.017862630261182934
1019,-0.013740874495357266
1020,-0.008330999787661999
1021,-0.007351661256433563
1022,-0.01288243483765377
1023,-0.020451963367836265
1024,-0.022914800677569874
1025,-0.017588720991993934
1026,-0.00940506863119914
1027,-0.006519127000980129
1028,-0.012415473823192542
1029,-0.022322999383273773
1030,-0.027690718928298382
1031,-0.02446781623659227
1032,-0.017011524776169632
1033,-0.013680087030331078
1034,-0.01844200517172281
1035,-0.026880823192667193
1036,-0.030664224980609042
1037,-0.026096157590610243
1038,-0.018206881771568532
1039,-0.016170401679578547
1040,-0.02442568831956928
1041,-0.038191533142350936
1042,-0.047795266979841856
1043,-0.04759020887470078
1044,-0.04077311192438214
1045,-0.03553058182007994
1046,-0.0365245527638689
1047,-0.04025142448865514
1048,-0.03883511901111921
1049,-0.028357604261384013
1050,-0.01332708839820507
1051,-0.0027743095481363236
1052,-0.0018176278092394587
1053,-0.007010934475553338
1054,-0.0099794294422978
1055,-0.005622932484114577
1056,0.0032562918932324517
1057,0.009318411769784821
1058,0.00840718875484206
1059,0.0037108267505369607
1060,0.0021850431584230327
1061,0.00698781096671767
1062,0.013766867509754397
1063,0.014757698447478824
1064,0.006693371061902794
1065,-0.005470843196690988
1066,-0.012961577703791898
1067,-0.01153947915959096
1068,-0.005548729132228236
1069,-0.0035437984558042705
1070,-0.009691421616732653
1071,-0.019412392575742184
1072,-0.02365562668603129
1073,-0.017738456729779143
1074,-0.006162293266193379
1075,0.001314411939099733
1076,-0.0014072821224863628
1077,-0.01138124482263152
1078,-0.019741159070793414
1079,-0.020051724183007394
1080,-0.013761650230407787
1081,-0.007831514348137227
1082,-0.007445597016829593
1083,-0.011313503370945773
1084,-0.013997966291810889
1085,-0.012331931017482345
1086,-0.008914739744030375
1087,-0.008984581653161943
1088,-0.014111837605435659
1089,-0.01967104205174696
1090,-0.01921054880137703
1091,-0.011529827717727457
1092,-0.003054872523036183
1093,-0.002486746043551784
1094,-0.012472090977747673
1095,-0.026398651551158676
1096,-0.03379022023589607
1097,-0.02952229738507188
1098,-0.01826009845475047
1099,-0.00995125032152515
1100,-0.010666673004018731
1101,-0.017422203326187945
1102,-0.021690988906388473
1103,-0.01798637984429951
1104,-0.009189369355126986
1105,-0.003631164470518906
1106,-0.0069488663226123385
1107,-0.016650198273829124
1108,-0.02453509020285273
1109,-0.02448824198417742
1110,-0.018089512666856274
1111,-0.01275819498415378
1112,-0.014401165177710364
1113,-0.021724079457482906
1114,-0.027590072018568564
1115,-0.025937077407448522
1116,-0.017489242543910842
1117,-0.008835698427085424
1118,-0.005972928995121295
1119,-0.00872541985451057
1120,-0.011452811100090906
1121,-0.009192030538481027
1122,-0.0030363881610629443
1123,0.0006538920823677453
1124,-0.0035110107910351655
1125,-0.014401911295069219
1126,-0.025006503323092753
1127,-0.028672409054622622
1128,-0.024884756568565175
1129,-0.019038365346226046
1130,-0.016683756958182756
1131,-0.018193771324231653
1132,-0.01921072057226001
1133,-0.016197996610719405
1134,-0.011097218999498917
1135,-0.009975878196582159
1136,-0.01681076989871995
1137,-0.02877884390642796
1138,-0.03814250016729252
1139,-0.039178012477075266
1140,-0.03335065692136162
1141,-0.027552534122857585
1142,-0.027179771158809343
1143,-0.031054845922058802
1144,-0.03329056532825645
1145,-0.030032675082546294
1146,-0.023956630300898826
1147,-0.021692294800672515
1148,-0.026706826077005568
1149,-0.03501779566034219
1150,-0.038385696176236064
1151,-0.03205786844399634
1152,-0.01943530448616952
1153,-0.009023389179561333
1154,-0.00667574756223056
1155,-0.010702983002263574
1156,-0.014370690710815044
1157,-0.012886377718484703
1158,-0.0077289858568679315
1159,-0.00423133555811299
1160,-0.005323795431010397
1161,-0.008092019392412787
1162,-0.006666498159837249
1163,0.0016072729446245217
1164,0.013027808638886704
1165,0.02056761869791726
1166,0.02006296205736454
1167,0.013625587952496923
1168,0.007300248624636251
1169,0.005567594020292426
1170,0.007930648968962312
1171,0.010305146265941006
1172,0.009215897444284103
1173,0.004613955608488218
1174,-0.0008209092056432082
1175,-0.004358997261349815
1176,-0.004891018025718766
1177,-0.0024306180055760503
1178,0.003024803081852076
1179,0.011250903278360886
1180,0.020229572022667862
1181,0.02547594970114068
1182,0.02210124541072514
1183,0.008666782024022759
1184,-0.010512361009238337
1185,-0.027293480918822492
1186,-0.03503643340926378
1187,-0.0332462271118359
1188,-0.02755998286391814
1189,-0.02484582556235989
1190,-0.027421869585711602
1191,-0.0313552282897323
1192,-0.030396207203050283
1193,-0.022138803802457765
1194,-0.010863266933265751
1195,-0.004302703747378945
1196,-0.007019154405188627
1197,-0.016318055509474277
1198,-0.024541960449607235
1199,-0.02581261135258302
1200,-0.021072503955552185
1201,-0.01671306806129807
1202,-0.018092000611791312
1203,-0.024236049432970454
1204,-0.029027298300965988
1205,-0.027826105349964443
1206,-0.022855882910327353
1207,-0.021553634609130963
1208,-0.029058476890285637
1209,-0.042326980333686495
1210,-0.05236676387360108
1211,-0.05313393847693558
1212,-0.0484390658099009
1213,-0.04942702830326476
1214,-0.0644000196115818
1215,-0.09099934502536536
1216,-0.11918216820568989
1217,-0.14264740348962462
1218,-0.16689428581957483
1219,-0.2042443160393385
1220,-0.2590139033877675
1221,-0.3171285328027865
1222,-0.3517403401176971
1223,-0.34107226611303954
1224,-0.2816019468925826
1225,-0.1831307174319225
1226,-0.05075655357240191
1227,0.1255086271070489
1228,0.3572271252858873
1229,0.6273354440243972
1230,0.871643010076184
1231,0.9970960373397416
1232,0.9330339031786138
1233,0.6809715105644463
1234,0.3239588018615583
1235,-0.015252728985605868
1236,-0.23951831762993697
1237,-0.3215280575555174
1238,-0.3005587579768443
1239,-0.2419545250646455
1240,-0.1938164770494853
1241,-0.16974472698120974
1242,-0.1602580525649066
1243,-0.1536958311608944
1244,-0.1468092891734002
1245,-0.14118175217316425
1246,-0.1358646801595657
1247,-0.12656946621959814
1248,-0.11114274672341001
1249,-0.09324251641624332
1250,-0.07905075401003622
1251,-0.07068894017214322
1252,-0.06404720082447284
1253,-0.05363517462017213
1254,-0.03900661211874393
1255,-0.025503933297848308
1256,-0.01843715182664666
1257,-0.017162035404582887
1258,-0.015712086699640262
1259,-0.009471356548780771
1260,-0.0006699708687388782
1261,0.0034670345814353087
1262,-0.0016708299308275773
1263,-0.012564288238976814
1264,-0.020114317585704845
1265,-0.018063279689930593
1266,-0.009021931232859727
1267,-0.002075392780020992
1268,-0.004227940264338852
1269,-0.013956310688629119
1270,-0.022961390072959373
1271,-0.0241612878903467
1272,-0.018082244721870092
1273,-0.011714118739992707
1274,-0.011421098049649216
1275,-0.017082583546746896
1276,-0.022973408693593843
1277,-0.02398467296329871
1278,-0.020660098877405938
1279,-0.01810974680700452
1280,-0.020259005451759196
1281,-0.02552339084674261
1282,-0.02831904480095833
1283,-0.024738273738482825
1284,-0.016510122061475972
1285,-0.009249227068682659
1286,-0.006933527493240752
1287,-0.008400429054001414
1288,-0.009452039163009273
1289,-0.008190391203718506
1290,-0.007677474371465099
1291,-0.01271230288224876
1292,-0.023810679761222676
1293,-0.03485346245507697
1294,-0.037577770039760976
1295,-0.029144082440614383
1296,-0.015415930822613493
1297,-0.006282022334473469
1298,-0.007020229933782661
1299,-0.013808388932037455
1300,-0.017743122350620776
1301,-0.01356328595228841
1302,-0.004658763986383253
1303,0.00047521052705005117
1304,-0.0031853653380414446
1305,-0.012044822124551095
1306,-0.017240292496587598
1307,-0.013195911226343896
1308,-0.003005874449045002
1309,0.0045193917948967745
1310,0.00309045962147622
1311,-0.005624271327069384
1312,-0.01439456392724428
1313,-0.017808499157057567
1314,-0.017072168520926738
1315,-0.017710711684947186
1316,-0.023100387878305748
1317,-0.030872151200417468
1318,-0.035875438600353346
1319,-0.03624420971017236
1320,-0.03573708174836994
1321,-0.039516342732644
1322,-0.04772517256232136
1323,-0.053996327267718774
1324,-0.05122028462152988
1325,-0.039239173054359894
1326,-0.02653591689374363
1327,-0.023462548277596612
1328,-0.03293191488015397
1329,-0.047426945819271406
1330,-0.055480552240211756
1331,-0.05177574854805664
1332,-0.04145267711892053
1333,-0.03465861681043449
1334,-0.03665540176825362
1335,-0.042961974362373215
1336,-0.04405425534836658
1337,-0.03489977791756548
1338,-0.02001899305058466
1339,-0.009212192289108296
1340,-0.00816944066308246
1341,-0.01307172845394683
1342,-0.014337871494560886
1343,-0.005825266055043194
1344,0.00934140300732822
1345,0.02170914630840476
1346,0.024117937760663594
1347,0.0176832781543345
1348,0.0097470753761053
1349,0.006358286167642472
1350,0.006915747466449058
1351,0.005986278821597844
1352,-8.78449156887375e-05
1353,-0.008838408945211897
1354,-0.014015702424495936
1355,-0.012065578159781896
1356,-0.00598474649404561
1357,-0.002583840340205222
1358,-0.005953186577338648
1359,-0.013708520361384369
1360,-0.01962061792482089
1361,-0.019701620386938703
1362,-0.015489919549408617
1363,-0.011467255819779556
1364,-0.009779349416132243
1365,-0.008140563621883291
1366,-0.003189995851391656
1367,0.00449391883113697
1368,0.009537564526519458
1369,0.006607945571302626
1370,-0.003736980836149814
1371,-0.014435873145443352
1372,-0.017833243075426976
1373,-0.012741052841673267
1374,-0.005735037906338917
1375,-0.005126921805680082
1376,-0.013181246014572297
1377,-0.023997980848844566
1378,-0.029123403533917215
1379,-0.0255304753051027
1380,-0.018331365066211545
1381,-0.015662952502809146
1382,-0.020708288000688288
1383,-0.028539626222354536
1384,-0.03082055504273836
1385,-0.023890498616951857
1386,-0.012552231215206232
1387,-0.005967952371735815
1388,-0.009483922436408047
1389,-0.019928940802935197
1390,-0.028572056724954213
1391,-0.028796848583542117
1392,-0.021396163132299265
1393,-0.012958519297288064
1394,-0.009424810630324729
1395,-0.011167112500409474
1396,-0.013961947376281654
1397,-0.014203192567696003
1398,-0.0126623769080835
1399,-0.01296087791175105
1400,-0.01664368105279654
1401,-0.020433701410880217
1402,-0.019058379902777898
1403,-0.011113106761345592
1404,-0.001834491060295374
1405,0.0006965808069148623
1406,-0.007120149169947465
1407,-0.02050456568128998
1408,-0.029913809380929086
1409,-0.029148383686438017
1410,-0.02046593612432697
1411,-0.01195318624596879
1412,-0.009799831848534123
1413,-0.012953981132519055
1414,-0.015140635532398193
1415,-0.011880802631878492
1416,-0.005285622245828606
1417,-0.001843929571856244
1418,-0.005633700311726369
1419,-0.014021342811899196
1420,-0.020280663761092152
1421,-0.020402333918281078
1422,-0.017041592735646725
1423,-0.01651409361640835
1424,-0.02195796556854488
1425,-0.02980520936429196
1426,-0.033355799184507214
1427,-0.029905668780963464
1428,-0.024078230923820373
1429,-0.023718409635211987
1430,-0.03223023552827413
1431,-0.04493843282356675
1432,-0.05313267409855225
1433,-0.051840531237192754
1434,-0.043746697313432586
1435,-0.035659944152120635
1436,-0.031430623180423986
1437,-0.028620479791570966
1438,-0.022139735651671044
1439,-0.010767248695760838
1440,0.0005160235937462549
1441,0.00506050907567788
1442,0.001397494299265563
1443,-0.004734070434898894
1444,-0.005530511154235182
1445,0.001536974218961219
1446,0.011495886603367648
1447,0.01695908429906606
1448,0.015333511161201407
1449,0.010849131143381959
1450,0.009481702075362954
1451,0.012219808789963617
1452,0.013884507847167767
1453,0.008926278974739655
1454,-0.0018246099285399579
1455,-0.010825731414572447
1456,-0.01086818687315741
1457,-0.002641655645884303
1458,0.005175255020216047
1459,0.004179537811051268
1460,-0.004803133410216815
1461,-0.011114750231709936
1462,-0.0034610397322902874
1463,0.019129054020523034
1464,0.044809091297857095
1465,0.05765219646669753
1466,0.050148136677695715
1467,0.02856451374473895
1468,0.006814616376232865
1469,-0.005231652931859197
1470,-0.008550727041974645
1471,-0.011565097791410175
1472,-0.020759223817848386
1473,-0.03446841568730919
1474,-0.0451471034745609
1475,-0.04703277901108724
1476,-0.04137639746191076
1477,-0.03447228981675905
1478,-0.031075193725588916
1479,-0.03008546952816247
1480,-0.026677262121604314
1481,-0.018376420068622397
1482,-0.008673990952179949
1483,-0.00432614074513419
1484,-0.008853839982384003
1485,-0.01863049376370502
1486,-0.025595830847339487
1487,-0.024345831470395436
1488,-0.01711088822349826
1489,-0.01193645146238406
1490,-0.015557436704974253
1491,-0.027336540158515443
1492,-0.03978038088060146
1493,-0.04531127069538106
1494,-0.043358502805374316
1495,-0.04143241344090013
1496,-0.04907233842105093
1497,-0.06989328559793238
1498,-0.09881949790336252
1499,-0.12716722895878446
1500,-0.1511688128966907
1501,-0.17601013949105265
1502,-0.21094602128010936
1503,-0.2589953118177217
1504,-0.3102278659382063
1505,-0.3453365045444188
1506,-0.3472662197249915
1507,-0.3107748888688301
1508,-0.24069979046196188
1509,-0.13994104744674873
1510,0.0006826895523240461
1511,0.19735797461000004
1512,0.45170076053649544
1513,0.7279965563475438
1514,0.9510231587255918
1515,1.034524565622573
1516,0.927471471516963
1517,0.648745016798238
1518,0.2851018761832973
1519,-0.04924853716486685
1520,-0.2673230445331174
1521,-0.3451736400288731
1522,-0.31969415914882027
1523,-0.2550596257512443
1524,-0.20293166689969572
1525,-0.18092243522041557
1526,-0.1773305294203919
1527,-0.1717967832741646
1528,-0.15403641725754097
1529,-0.1288640008030029
1530,-0.10812904744970855
1531,-0.09905910434252982
1532,-0.09871938437310382
1533,-0.09769600596413089
1534,-0.08862942310453423
1535,-0.0721651477522392
1536,-0.0557363983383668
1537,-0.04667671621766051
1538,-0.045736297193898906
1539,-0.046605634215284825
1540,-0.0418499052122418
1541,-0.02996396632183017
1542,-0.01705638395609131
1543,-0.0113540523867342
1544,-0.015375499651607902
1545,-0.023114013933326745
1546,-0.025205405526351282
1547,-0.017548609627158138
1548,-0.005283573019823082
1549,0.0018662100352112897
1550,-0.001306732740208308
1551,-0.010585545668090657
1552,-0.016409218731859247
1553,-0.013091784176552764
1554,-0.004248500987551446
1555,0.000898444616459617
1556,-0.0032626656295465673
1557,-0.013087439528510028
1558,-0.01924228900086245
1559,-0.01601791625083742
1560,-0.007160037785899336
1561,-0.00235444798269945
1562,-0.007743381282398053
1563,-0.019812452851435375
1564,-0.028714644216586562
1565,-0.027792546348450284
1566,-0.01994125017314453
1567,-0.014581754738321347
1568,-0.018272965985992238
1569,-0.028203091009395016
1570,-0.03487775084735013
1571,-0.03125637256442683
1572,-0.019384800350791074
1573,-0.008248979581036937
1574,-0.005274710936068591
1575,-0.009915460032685983
1576,-0.015302814279776481
1577,-0.015744565320251334
1578,-0.012263193655370696
1579,-0.010800473211909432
1580,-0.015392209852948192
1581,-0.023614283814319865
1582,-0.028973589484114527
1583,-0.027595037628977675
1584,-0.02215457989004343
1585,-0.01897143170734225
1586,-0.021319328378148393
1587,-0.02593129865001694
1588,-0.02635290507711098
1589,-0.01970529239736836
1590,-0.009870086607561336
1591,-0.003754778861996939
1592,-0.004410940760686769
1593,-0.008065097718140558
1594,-0.008181593197781594
1595,-0.0024782079149865623
1596,0.004312283682767665
1597,0.004943360871710616
1598,-0.002937316803982684
1599,-0.013934027363538107
1600,-0.019689135031554894
1601,-0.016813259024341234
1602,-0.01022086278169631
1603,-0.008521337730819773
1604,-0.015858501169084743
1605,-0.02805988679500495
1606,-0.0367352914940484
1607,-0.037228750688206136
1608,-0.032694364421628624
1609,-0.030538030990342635
1610,-0.03501014209570162
1611,-0.04335289552751149
1612,-0.049116277299800865
1613,-0.048995703436861174
1614,-0.04613497394473964
1615,-0.0466193850365543
1616,-0.05290224696978894
1617,-0.060995057501383065
1618,-0.06430558193519889
1619,-0.06012446147885074
1620,-0.052030224118056856
1621,-0.04573100890908726
1622,-0.042734359504971425
1623,-0.03861549816519104
1624,-0.027967303514383823
1625,-0.01106371673340213
1626,0.004867609796953366
1627,0.011669279644665059
1628,0.00801291638027182
1629,0.001163958629018178
1630,0.000591014045641379
1631,0.009239287833393749
1632,0.02078187528163166
1633,0.02555480913294267
1634,0.019548951380385902
1635,0.00791312113045878
1636,-0.00021624356496551404
1637,-0.0003563397926859977
1638,0.0036211929956695985
1639,0.004105044375795233
1640,-0.002179051940623819
1641,-0.010770252640080604
1642,-0.01407567080024465
1643,-0.009247234681831975
1644,-0.001345935668601162
1645,0.0014631554017280166
1646,-0.004033037703608137
1647,-0.012789200409805256
1648,-0.01628581411899476
1649,-0.010768674519741313
1650,-0.0009014621930957933
1651,0.00470372131978441
1652,0.0016627349329713815
1653,-0.006276573430926434
1654,-0.011297447818674974
1655,-0.009387172745247611
1656,-0.004191243852870747
1657,-0.0030961443724887468
1658,-0.009524571256369884
1659,-0.019163354767967183
1660,-0.023923481823275927
1661,-0.019766472347759655
1662,-0.010703570471821883
1663,-0.005035623620563539
1664,-0.00751180074024073
1665,-0.01503959224841799
1666,-0.020030380696087823
1667,-0.017969375841580107
1668,-0.01175092969035027
1669,-0.008633560943736102
1670,-0.01296952172106071
1671,-0.021916745336885056
1672,-0.028235232291091594
1673,-0.02722479183894027
1674,-0.02091302752806201
1675,-0.015564437175957437
1676,-0.01532187612593984
1677,-0.01849292665208676
1678,-0.02004003825260966
1679,-0.017379029717012526
1680,-0.013267548449877237
1681,-0.012720396068889379
1682,-0.017218586077684502
1683,-0.022432660816904003
1684,-0.022164481696358
1685,-0.01476199169519219
1686,-0.005475130785125571
1687,-0.002053766150062218
1688,-0.007602138098993712
1689,-0.01758154306410311
1690,-0.023939573670753236
1691,-0.022448486485040473
1692,-0.016250221747506483
1693,-0.012357307586114755
1694,-0.014712500949106457
1695,-0.020614454222737937
1696,-0.023805928904625552
1697,-0.020890313101520147
1698,-0.014591284137221537
1699,-0.01072412343912385
1700,-0.012127260514928385
1701,-0.015790216216809216
1702,-0.016081317978854655
1703,-0.010753559287617972
1704,-0.003573496381364961
1705,-0.0008137522948986084
1706,-0.005052328383910358
1707,-0.012498821242318672
1708,-0.016610058301191912
1709,-0.014485676658675053
1710,-0.009704012313438055
1711,-0.00872861191419087
1712,-0.014391475112898504
1713,-0.022915523314889337
1714,-0.027492439185602176
1715,-0.02493676558029833
1716,-0.01882482557968864
1717,-0.015947782144842767
1718,-0.0195525999555027
1719,-0.026124869919079426
1720,-0.02902984805414252
1721,-0.025465487166486528
1722,-0.019706996816640864
1723,-0.019141272938098416
1724,-0.02678719683213921
1725,-0.0377471337070475
1726,-0.043416612497950834
1727,-0.03963865343356952
1728,-0.030844428588186774
1729,-0.025880453138808636
1730,-0.02933177523221036
1731,-0.03677424809055499
1732,-0.038789651697707164
1733,-0.03006644001367719
1734,-0.014801139930891464
1735,-0.00305898791577973
1736,-0.0015128336363695095
1737,-0.007468163408061624
1738,-0.011845175013818732
1739,-0.007998459977262739
1740,0.002359616961974357
1741,0.011740982802254569
1742,0.014928297994814745
1743,0.014045511485225943
1744,0.01551200177374641
1745,0.022293425631065164
1746,0.02982865658590103
1747,0.030215336842677867
1748,0.020543563189960236
1749,0.00668670652571582
1750,-0.001723738144829818
1751,-0.00037106119495564625
1752,0.005786954038878783
1753,0.007893519114082094
1754,0.0026801522072590527
1755,-0.003554750659986652
1756,-0.0008425436222569294
1757,0.01412842500740931
1758,0.033315062220263425
1759,0.04309220964848318
1760,0.03537370413542629
1761,0.013965544931623258
1762,-0.009285603506632822
1763,-0.024422397282985023
1764,-0.030118634658590902
1765,-0.031838733115226815
1766,-0.034559554032142184
1767,-0.037858548764016606
1768,-0.03780117522273413
1769,-0.03267949852774717
1770,-0.025939337187619135
1771,-0.023052012853288603
1772,-0.025703751764321343
1773,-0.029544213522451367
1774,-0.028060116931133666
1775,-0.018876216060616364
1776,-0.006337870243021886
1777,0.0020855569864920488
1778,0.0020870231904245996
1779,-0.0043204898340090305
1780,-0.011303068214150712
1781,-0.014541584704879772
1782,-0.01439494438902959
1783,-0.014531453875905905
1784,-0.018064008410917192
1785,-0.0250398414330374
1786,-0.03314088930534603
1787,-0.040220826592176996
1788,-0.046091324358546626
1789,-0.05239552079655582
1790,-0.061395531981904755
1791,-0.07499099108502069
1792,-0.09437556397677924
1793,-0.1199926705634387
1794,-0.15165178805377663
1795,-0.18896062246137332
1796,-0.2316741760479227
1797,-0.2788267753672907
1798,-0.326216288774244
1799,-0.36404465808662523
1800,-0.3778436115032068
1801,-0.3537221822634961
1802,-0.28449094900898475
1803,-0.17106002086788552
1804,-0.01737284157434782
1805,0.1753771206406251
1806,0.4061580823076932
1807,0.6605436100628602
1808,0.8962370598099474
1809,1.0446990330809949
1810,1.0377086351609313
1811,0.8477411084313387
1812,0.5152116307611323
1813,0.13931929547587205
1814,-0.16723461778464682
1815,-0.3330292159684838
1816,-0.3575058165444691
1817,-0.2980274185423789
1818,-0.2266801408626682
1819,-0.18809871157252833
1820,-0.1845633610110919
1821,-0.19166577224691836
1822,-0.1862630574998687
1823,-0.164023177065669
1824,-0.1369125612104948
1825,-0.118313947835368
1826,-0.11099123015806273
1827,-0.10709082990938004
1828,-0.09741907269890823
1829,-0.08012855858474971
1830,-0.06140556607110439
1831,-0.04889097258643553
1832,-0.044670414618180596
1833,-0.04405057550026842
1834,-0.04053952483756268
1835,-0.031994374709480355
1836,-0.022322355732486334
1837,-0.017456732874636345
1838,-0.019521827248802685
1839,-0.024613274313297108
1840,-0.02623417816699991
1841,-0.021222979999693893
1842,-0.012685276851576468
1843,-0.00716283634410133
1844,-0.008620668006722067
1845,-0.014858921355706134
1846,-0.019732304820927506
1847,-0.019057143005347922
1848,-0.014514180634619093
1849,-0.011737753385301485
1850,-0.014437409220015605
1851,-0.020367653114540894
1852,-0.023265910098931142
1853,-0.019026682102999598
1854,-0.010070533961717702
1855,-0.003445090639495803
1856,-0.004274404048462637
1857,-0.010835982086091774
1858,-0.016124811312253115
1859,-0.014517774289446552
1860,-0.00714980294076323
1861,-0.0008015645471478739
1862,-0.0013833419653728953
1863,-0.008348160137920432
1864,-0.01542306484580936
1865,-0.01683511776545786
1866,-0.012849100861739631
1867,-0.00920283697769209
1868,-0.011130187945527401
1869,-0.018018869348051282
1870,-0.024043800069783336
1871,-0.02408201298882524
1872,-0.018912277850160832
1873,-0.01444874885190258
1874,-0.015790470222800387
1875,-0.022102554711320648
1876,-0.027493253661756395
1877,-0.026971460665097764
1878,-0.021422210348881664
1879,-0.016557771553587057
1880,-0.01696278336391005
1881,-0.021369752720524354
1882,-0.024027355609092523
1883,-0.02073381776731558
1884,-0.013262320285392926
1885,-0.0075396588387426095
1886,-0.007438410608228382
1887,-0.010701192951167634
1888,-0.0114183094586468
1889,-0.006650543144357381
1890,-0.0002570729325065402
1891,0.00041170398732031906
1892,-0.00798997364344883
1893,-0.020634856015815287
1894,-0.028219927802926696
1895,-0.025324225344497284
1896,-0.015447713851883302
1897,-0.007826465792622514
1898,-0.009072243682635237
1899,-0.017621903979046796
1900,-0.02604013982803037
1901,-0.028447326591812712
1902,-0.025563085907218015
1903,-0.022716376979191707
1904,-0.023519029917175693
1905,-0.026132844278001534
1906,-0.025964663500369856
1907,-0.021613001833072916
1908,-0.0173624948615262
1909,-0.01917327629965193
1910,-0.028123314527710268
1911,-0.03827895473242214
1912,-0.041715847844097695
1913,-0.036107432453735114
1914,-0.027384844157419562
1915,-0.024545895771947296
1916,-0.03132478971377407
1917,-0.04258866063589864
1918,-0.04887219012441816
1919,-0.04474493508443739
1920,-0.03320802398319525
1921,-0.022294847671302458
1922,-0.0174835132356919
1923,-0.01721739237956422
1924,-0.015440272042893903
1925,-0.008164490326207086
1926,0.0025377772561278743
1927,0.010802079256169581
1928,0.012868312232475464
1929,0.010567556339277012
1930,0.009037035402610478
1931,0.011191095974596128
1932,0.01466490209413628
1933,0.014349969322529531
1934,0.007940565115290035
1935,-0.0011798985018631582
1936,-0.0067797425445324635
1937,-0.005683577335063285
1938,-0.0009074678375416595
1939,0.0012027793898361804
1940,-0.0028486269949488043
1941,-0.010278841619458527
1942,-0.014831505488735826
1943,-0.013139365455993774
1944,-0.008300683749654932
1945,-0.006929583222274799
1946,-0.012432814102042729
1947,-0.021232453530794462
1948,-0.025952624713559972
1949,-0.022657275248908565
1950,-0.0149384544001177
1951,-0.010530816715604933
1952,-0.013588489449089008
1953,-0.020377322735861885
1954,-0.023006850312202013
1955,-0.017756532622130797
1956,-0.009592550766814038
1957,-0.00790077198381143
1958,-0.017199875639387213
1959,-0.031954330658860206
1960,-0.040951999837855295
1961,-0.03738556594929546
1962,-0.025017989745882166
1963,-0.014501743390663529
1964,-0.013509399250110925
1965,-0.020265578409148815
1966,-0.026442367034736923
1967,-0.02595680961192554
1968,-0.020579616104792767
1969,-0.01699989461816362
1970,-0.018993129297555048
1971,-0.02320087843482381
1972,-0.022862934625572425
1973,-0.015268449798280652
1974,-0.0048399867223876585
1975,0.0014066322077389416
1976,0.0010707052540621007
1977,-0.0014964711292333914
1978,-0.0003073291330261697
1979,0.005575453740037831
1980,0.011148887799274108
1981,0.011416564191344031
1982,0.007662973642638743
1983,0.006940852589884589
1984,0.014810828982948351
1985,0.028779851180494607
1986,0.03960281325964887
1987,0.03967911832019127
1988,0.030303482223194823
1989,0.02034221633220222
1990,0.017396336116256572
1991,0.02016080510695575
1992,0.019696494357326906
1993,0.008558454786305663
1994,-0.011140243609705074
1995,-0.028775353603722766
1996,-0.03461077941564096
1997,-0.028665407679831667
1998,-0.020612464910260316
1999,-0.020817008456488317
2000,-0.030971984373504163
2001,-0.04300766499211832
2002,-0.046995259159601434
2003,-0.04037023137858989
2004,-0.0298850688005988
2005,-0.024862094542268037
2006,-0.028502789343297683
2007,-0.03546311508947708
2008,-0.037548311810058695
2009,-0.031604986595283456
2010,-0.02197674546712481
2011,-0.015594344412495268
2012,-0.015025133623588066
2013,-0.01646537466345499
2014,-0.014342134625646824
2015,-0.007470556273193294
2016,-0.00038008544020356853
2017,0.001360444312157672
2018,-0.003246733144807252
2019,-0.00994948621487535
2020,-0.014029113625238992
2021,-0.015318414844225938
2022,-0.01814384791393029
2023,-0.026486447758444345
2024,-0.039858437403443525
2025,-0.054517613775494675
2026,-0.0686274761550266
2027,-0.08545106144723612
2028,-0.11075720182091908
2029,-0.1471244637566027
2030,-0.19143177477634618
2031,-0.23818444186828447
2032,-0.28429967545650603
2033,-0.32876460380665967
2034,-0.3664631124269756
2035,-0.38334444433860104
2036,-0.36053187288954125
2037,-0.28593596007767835
2038,-0.16249929194952278
2039,-0.00369163159907329
2040,0.18000693591405967
2041,0.3879989135701535
2042,0.6178621647364926
2043,0.8421524959781423
2044,0.9978777829906713
2045,1.0085499317719906
2046,0.832201029986201
2047,0.5016292781664038
2048,0.12156959149934118
2049,-0.18285750784781657
2050,-0.3337924500874634
2051,-0.33732278506513297
2052,-0.2649779053935055
2053,-0.19751442265580432
2054,-0.17465768793668385
2055,-0.18471468031800908
2056,-0.19298924841833753
2057,-0.17861321920165885
2058,-0.14892452960344194
2059,-0.12520391228870226
2060,-0.11893012740063186
2061,-0.12204878943181866
2062,-0.1177363150824785
2063,-0.0982258681046542
2064,-0.07175307355935945
2065,-0.05336756233722553
2066,-0.050177823425089224
2067,-0.05554016512841829
2068,-0.0566430062614732
2069,-0.046921063431762625
2070,-0.031187929469846845
2071,-0.019517963174422316
2072,-0.016894785325466115
2073,-0.018945770374707287
2074,-0.017353313533125247
2075,-0.008954970688964472
2076,0.000666920146842806
2077,0.0025562520748091387
2078,-0.006623527896488059
2079,-0.020720498220876526
2080,-0.029116205967098824
2081,-0.025962424290541047
2082,-0.015051618162752193
2083,-0.005936939736543572
2084,-0.005131288756063288
2085,-0.01066774484524631
2086,-0.01487780095308543
2087,-0.01232864615521511
2088,-0.005079930421630203
2089,-0.00030271908512168847
2090,-0.002923488419474528
2091,-0.01078750937592761
2092,-0.017138285365247072
2093,-0.01772877030554932
2094,-0.015160758322991541
2095,-0.015892154793130057
2096,-0.0229309350524949
2097,-0.03184315855960078
2098,-0.03452715591052523
2099,-0.02730026169213011
2100,-0.015197032454288262
2101,-0.007855454145528332
2102,-0.010678004513069217
2103,-0.019808762719493257
2104,-0.02589148678197966
2105,-0.02299946184823408
2106,-0.014051822858667923
2107,-0.007529735436654675
2108,-0.008912758211818717
2109,-0.015406341353869002
2110,-0.01912331718231516
2111,-0.015369207654896688
2112,-0.00759768529266237
2113,-0.004010593769752114
2114,-0.009219364063155992
2115,-0.01938036013780404
2116,-0.025758583146298603
2117,-0.02322728736206947
2118,-0.015235555636720216
2119,-0.010264765842344165
2120,-0.01328939880237635
2121,-0.020781336949709146
2122,-0.024305050555015768
2123,-0.019173162241134648
2124,-0.009499911389954001
2125,-0.004463764453356595
2126,-0.009300463472007484
2127,-0.019877966202769194
2128,-0.026317629872701
2129,-0.022287911022609005
2130,-0.011002693623072799
2131,-0.0021425832297251347
2132,-0.0027628161260964167
2133,-0.011041981939841003
2134,-0.018782915265887656
2135,-0.01988465710606924
2136,-0.016223713942994024
2137,-0.015201326990415865
2138,-0.021696727088553636
2139,-0.03273862504348833
2140,-0.04030705606932537
2141,-0.03933143156215321
2142,-0.03267461915370402
2143,-0.02803027163970731
2144,-0.029970690505613046
2145,-0.03535234810878509
2146,-0.03682414834925352
2147,-0.030825582093832515
2148,-0.021771961665107094
2149,-0.01795049480682054
2150,-0.02314664979547117
2151,-0.03251916129159223
2152,-0.03708398413965901
2153,-0.03247641175765638
2154,-0.02322398996609725
2155,-0.018143408655961875
2156,-0.02136230450272878
2157,-0.027959448575049416
2158,-0.028739149873658356
2159,-0.01957594560970803
2160,-0.006080667948754139
2161,0.0012422936487969322
2162,-0.0030872692306439034
2163,-0.0140302054437838
2164,-0.020345259480820818
2165,-0.014772595004145786
2166,-0.0005636681363042162
2167,0.01166023417109014
2168,0.013591072683619957
2169,0.006308948342173701
2170,-0.0016625484623828696
2171,-0.0030455361970363106
2172,0.0012765662710356345
2173,0.0036004446389705687
2174,-0.0026209288302124246
2175,-0.01604556698984931
2176,-0.028347026695183086
2177,-0.03163622834099691
2178,-0.025165006190900823
2179,-0.015158299108619058
2180,-0.0085190290873342
2181,-0.006904890632620099
2182,-0.0067465930886525605
2183,-0.00444402888373876
2184,-0.0008292791556657579
2185,-0.00015838306299565535
2186,-0.004932857478813631
2187,-0.012353930353873978
2188,-0.016484153267150605
2189,-0.014086413558368722
2190,-0.008061515732660104
2191,-0.0047224513531074885
2192,-0.007495733731476144
2193,-0.013436916338239414
2194,-0.016177171092846585
2195,-0.012362969889729129
2196,-0.005062369444501987
2197,-0.0007212453790753264
2198,-0.0028684584196758166
2199,-0.009049104328538164
2200,-0.014011082664855536
2201,-0.015584496451149739
2202,-0.016864981207422743
2203,-0.022250979649370776
2204,-0.031530803976068444
2205,-0.03858745930821583
2206,-0.036729222080114685
2207,-0.025686887993857627
2208,-0.013120964077042016
2209,-0.008542375063885466
2210,-0.015013109743837811
2211,-0.02643244584558797
2212,-0.03307195704311045
2213,-0.030213333639942788
2214,-0.02184594852232309
2215,-0.016185421798143754
2216,-0.0175813207907628
2217,-0.022647170961570793
2218,-0.024132424763905036
2219,-0.018484859201638334
2220,-0.009590479380703353
2221,-0.005067067192227067
2222,-0.008810148015150444
2223,-0.0171008101254482
2224,-0.02205323731824688
2225,-0.01903170125665867
2226,-0.010868206952995596
2227,-0.004897613351277592
2228,-0.005831306160914417
2229,-0.011469957815831183
2230,-0.015356985859598105
2231,-0.013570268774223578
2232,-0.008747994761329373
2233,-0.007229375849986794
2234,-0.012163402809828795
2235,-0.019675806269920854
2236,-0.02232255031771961
2237,-0.016736107276862568
2238,-0.007822285010834623
2239,-0.004851019500811147
2240,-0.01269607962583422
2241,-0.026614065032283057
2242,-0.0359984116481582
2243,-0.034005102639076065
2244,-0.024021357436354075
2245,-0.016610506293107005
2246,-0.01955140861892059
2247,-0.030321163242398766
2248,-0.038225746150257894
2249,-0.034265119981813905
2250,-0.01946141094547401
2251,-0.0038844584209917175
2252,0.0024994261319984524
2253,-0.0016157431219896647
2254,-0.008771988942299089
2255,-0.010607205437617562
2256,-0.005705534646208742
2257,-3.069827530030752e-05
2258,-0.00020640558426048998
2259,-0.006827373757905543
2260,-0.014402337527515904
2261,-0.017449323488830767
2262,-0.016106758991632525
2263,-0.015527054667117202
2264,-0.020005588177774
2265,-0.028189363981562292
2266,-0.03434465425108883
2267,-0.03420636352081239
2268,-0.029213386778776874
2269,-0.02477418826313283
2270,-0.02452174826667189
2271,-0.02665794160210758
2272,-0.02620149662501874
2273,-0.02071700449526854
2274,-0.013431771506624265
2275,-0.010327170791736794
2276,-0.014030269129404301
2277,-0.020710599354357866
2278,-0.023259607994237104
2279,-0.01778002483002864
2280,-0.007141247090600326
2281,0.0017182965706695377
2282,0.003961742636839083
2283,0.0005395464170385436
2284,-0.0038128050997154796
2285,-0.005748753849561479
2286,-0.006248740226242321
2287,-0.008588654241197254
2288,-0.013898038302491714
2289,-0.01929199875337128
2290,-0.020705711843113397
2291,-0.017469482925811484
2292,-0.013647566002253697
2293,-0.014367194825056023
2294,-0.02057257000457008
2295,-0.0275269357432348
2296,-0.02890642580187216
2297,-0.02281803410654064
2298,-0.013979654305779316
2299,-0.009792346404548522
2300,-0.013816225576926676
2301,-0.022667156770202368
2302,-0.02915577355178389
2303,-0.02865556570798999
2304,-0.02277819572863425
2305,-0.01715154087001501
2306,-0.015739341630247164
2307,-0.01728514914819927
2308,-0.017191331646488006
2309,-0.012773387172453417
2310,-0.006579097985026595
2311,-0.00440823246724919
2312,-0.009854491677029762
2313,-0.020598599351823538
2314,-0.03006436430609634
2315,-0.032994432412310724
2316,-0.029835611415309937
2317,-0.025982928291625355
2318,-0.02673885381220998
2319,-0.03271276518456728
2320,-0.03973023098296607
2321,-0.042927302098227385
2322,-0.0408804609814638
2323,-0.03597610438967607
2324,-0.031204283705916547
2325,-0.02708380146639875
2326,-0.021974058984569438
2327,-0.01517304316296981
2328,-0.00902807725869859
2329,-0.00722290101329188
2330,-0.010618444150965148
2331,-0.01510744241851667
2332,-0.014398823621105143
2333,-0.005680942830851748
2334,0.007274590203841826
2335,0.017022313921674977
2336,0.019004117849242216
2337,0.015484709906555115
2338,0.012820335613207268
2339,0.014596971244155934
2340,0.017603698680815162
2341,0.015109289969338678
2342,0.004538405434685289
2343,-0.00831272440559003
2344,-0.013551129340851589
2345,-0.006623228166898201
2346,0.006167138534432958
2347,0.012169842955050332
2348,0.0036422192742335806
2349,-0.014450630920412842
2350,-0.027720757107253594
2351,-0.02431467128529537
2352,-0.004993276535362307
2353,0.01763032110745733
2354,0.02974824092196949
2355,0.02709194440651394
2356,0.016394493076376644
2357,0.007305797265496029
2358,0.0032464759716200973
2359,-0.00015276516002369223
2360,-0.00847878310817515
2361,-0.021312328104614784
2362,-0.03192177761976617
2363,-0.03391812880228032
2364,-0.027691700484347628
2365,-0.01986562975938385
2366,-0.016428436351300604
2367,-0.016858324453969956
2368,-0.015513338026468546
2369,-0.008876894163312393
2370,-0.0008669226517584745
2371,-7.647656277841796e-05
2372,-0.01108181642148004
2373,-0.028505379346043695
2374,-0.040460243088903815
2375,-0.03895829546367067
2376,-0.027633454355566488
2377,-0.01908814494040932
2378,-0.02382844036871634
2379,-0.04093576482749518
2380,-0.05928713777395722
2381,-0.06828966227754457
2382,-0.06804600773339112
2383,-0.06934377536438192
2384,-0.08354267669418904
2385,-0.11211150030421414
2386,-0.14591166919394244
2387,-0.17488321974954346
2388,-0.19854885585272541
2389,-0.22662587965628916
2390,-0.26834408281167127
2391,-0.3201104766015487
2392,-0.36335403563767305
2393,-0.37532238087053005
2394,-0.34354345758490934
2395,-0.27097376959631947
2396,-0.16736606053213893
2397,-0.035582776132286345
2398,0.13275880483564434
2399,0.34557601974068736
2400,0.5906119619215865
2401,0.8248400008050762
2402,0.9850258691833853
2403,1.0158767599848213
2404,0.8985305123140324
2405,0.6612298833782799
2406,0.3662043175581091
2407,0.08217899828279265
2408,-0.14083827090203221
2409,-0.2825829427171096
2410,-0.3485214391305387
2411,-0.3582346463419921
2412,-0.3344083309180246
2413,-0.2961801015582596
2414,-0.2563445506575186
2415,-0.22092119171190588
2416,-0.19057665220564907
2417,-0.1636090089616743
2418,-0.13904309493876393
2419,-0.11776358606240399
2420,-0.10109981272159956
2421,-0.08873969832805592
2422,-0.07853842112786207
2423,-0.06863500461500813
2424,-0.05949504307621243
2425,-0.05328164655979478
2426,-0.05085812212234973
2427,-0.0496774964039792
2428,-0.045340550468560045
2429,-0.03579970658584488
2430,-0.023979101378875527
2431,-0.01566867373163825
2432,-0.014231403865185246
2433,-0.017214098435630466
2434,-0.01845568069312683
2435,-0.013927079488591792
2436,-0.005665545975746177
2437,0.00013207315319347583
2438,-0.0009490099070540949
2439,-0.007401908992585361
2440,-0.013488352448852256
2441,-0.014930406576995157
2442,-0.012811869722483854
2443,-0.011844196464631354
2444,-0.014979343850413693
2445,-0.020064610301537267
2446,-0.022037752603602346
2447,-0.018353847778254297
2448,-0.011929798749454969
2449,-0.008426556606231565
2450,-0.010574085440609345
2451,-0.015408376559103076
2452,-0.01739959013795692
2453,-0.01437392524444479
2454,-0.010085808772716979
2455,-0.010528301128932485
2456,-0.01747278723098129
2457,-0.025842240652087123
2458,-0.028011365280319753
2459,-0.021251229724338346
2460,-0.011084463054259088
2461,-0.006911583418400197
2462,-0.013645548661010209
2463,-0.027125355930318354
2464,-0.037712170257499414
2465,-0.038787033297818796
2466,-0.03223262486323003
2467,-0.025902744883105372
2468,-0.025768162280373718
2469,-0.030426980733202748
2470,-0.033144174018581135
2471,-0.029075717356749756
2472,-0.020281602502200746
2473,-0.013521200052517564
2474,-0.013210915332070035
2475,-0.01685075527590872
2476,-0.01769531628100044
2477,-0.011989160071679519
2478,-0.0032850268140705635
2479,0.0008079089685691827
2480,-0.003610901933926087
2481,-0.012294641213326792
2482,-0.016450879669954798
2483,-0.011061309472720332
2484,0.0002692265568127254
2485,0.008802143942201761
2486,0.009068255462024576
2487,0.0038190614213587755
2488,0.0006159659703831012
2489,0.0035868012359055604
2490,0.008800722506328875
2491,0.00809332002214315
2492,-0.002397991581633894
2493,-0.017612839147151005
2494,-0.027706188192071567
2495,-0.027084128768938686
2496,-0.01955657478104089
2497,-0.014620903864870584
2498,-0.018592183317901453
2499,-0.029220149952862415
2500,-0.038757747584172705
2501,-0.041989702603609846
2502,-0.041010208437423784
2503,-0.04216311695853939
2504,-0.04867166781228947
2505,-0.056797835362040985
2506,-0.05958511124611135
2507,-0.054327295785834555
2508,-0.04597877387165139
2509,-0.04277523872059892
2510,-0.04824860184094836
2511,-0.05757825445150105
2512,-0.06201442843373581
2513,-0.05713771367957181
2514,-0.046927421794826896
2515,-0.03974258018009123
2516,-0.04023310547472746
2517,-0.04507490532092928
2518,-0.04653312577690072
2519,-0.04015923789636249
2520,-0.02902336419144335
2521,-0.020484274230410316
2522,-0.01888721346651943
2523,-0.021441837265710473
2524,-0.021207437922255615
2525,-0.01406389729361739
2526,-0.002761610595586688
2527,0.005794261651751956
2528,0.007174634757329405
2529,0.003440490353126409
2530,0.0008118560744472536
2531,0.0035680248968635612
2532,0.010262412114968426
2533,0.01573540658282811
2534,0.016523192650619162
2535,0.014046620135868946
2536,0.012508534298241104
2537,0.013964305144810289
2538,0.015870192866682346
2539,0.013727149962305644
2540,0.0060619285620525975
2541,-0.003522708761839257
2542,-0.009539005527559707
2543,-0.009931026713720405
2544,-0.008076390590347034
2545,-0.009274267463065075
2546,-0.015140561426413696
2547,-0.02162325098665088
2548,-0.022866471930252617
2549,-0.017254937517541175
2550,-0.009574374055460386
2551,-0.006875977881646921
2552,-0.011855380780182525
2553,-0.02018645812536159
2554,-0.024547552132707554
2555,-0.02155571354764091
2556,-0.014890592072987156
2557,-0.011532701262845519
2558,-0.014784052419517822
2559,-0.020959250352811053
2560,-0.023078519422066027
2561,-0.01796709437697709
2562,-0.009691152041665348
2563,-0.0057659140068162095
2564,-0.009718209613960579
2565,-0.017340943190931987
2566,-0.020521359932993928
2567,-0.015115933936498613
2568,-0.005239414584306001
2569,0.00032699875021255636
2570,-0.0037286093664959247
2571,-0.014376981427722386
2572,-0.023309340662293506
2573,-0.02487211352728
2574,-0.021089591657305312
2575,-0.01895113152569671
2576,-0.02286284379782526
2577,-0.02995422437614714
2578,-0.0329885842189082
2579,-0.02789190498107228
2580,-0.018186445706812708
2581,-0.01171502183208533
2582,-0.012887158158682169
2583,-0.018316515923632124
2584,-0.020362208910752123
2585,-0.015052756685524684
2586,-0.006322508933531622
2587,-0.0021484461871463904
2588,-0.006422525033711381
2589,-0.014838909020582759
2590,-0.019087878014109105
2591,-0.015186384914890967
2592,-0.007463949948209183
2593,-0.004065991633086045
2594,-0.008511258748791503
2595,-0.015989981062230953
2596,-0.018353838766912836
2597,-0.012828448226393776
2598,-0.005464855147478692
2599,-0.005478308500437392
2600,-0.015857938661044096
2601,-0.029646357642767518
2602,-0.03589533255247476
2603,-0.02976433844005998
2604,-0.01703472915392657
2605,-0.008677765870982393
2606,-0.010752279171627263
2607,-0.01931719550857603
2608,-0.024976070028556705
2609,-0.022262219058411286
2610,-0.014612286693568441
2611,-0.010363898408819832
2612,-0.014159630931206632
2613,-0.022436739905868166
2614,-0.02728846134333307
2615,-0.0245398060415994
2616,-0.01784900276504805
2617,-0.014851885422894598
2618,-0.01939574952057603
2619,-0.027720483147359146
2620,-0.03238531314234677
2621,-0.02998057980407145
2622,-0.024898255330558998
2623,-0.025281696299273924
2624,-0.03489824425624434
2625,-0.04869061082794496
2626,-0.05638385472476954
2627,-0.05105150732728124
2628,-0.035008514856054745
2629,-0.017890721770485896
2630,-0.008800783228028228
2631,-0.009458873681195426
2632,-0.013998958108523368
2633,-0.014929048707823894
2634,-0.009545510926891241
2635,-0.0012836364407738821
2636,0.0044992491348870844
2637,0.005818043358835373
2638,0.005432071623456734
2639,0.0073939877748228685
2640,0.012513245874105261
2641,0.017317984478149657
2642,0.017519595555985205
2643,0.012507166839771815
2644,0.006327239480303616
2645,0.00397800107040628
2646,0.006463306832192119
2647,0.009464808457692729
2648,0.0072255678867704344
2649,-0.001723229165307818
2650,-0.012318648295085137
2651,-0.016516789831373023
2652,-0.009692577935114237
2653,0.005643559242410732
2654,0.021849213863638327
2655,0.03175929956064182
2656,0.03288423870175195
2657,0.027114965328262044
2658,0.01740380709217039
2659,0.005380756372679671
2660,-0.008013072405031019
2661,-0.02065842053746772
2662,-0.02937193463001536
2663,-0.032592909151058155
2664,-0.032601664290624555
2665,-0.03399229955572029
2666,-0.03903984927750921
2667,-0.044567693730740876
2668,-0.04421731646718303
2669,-0.03469307140380247
2670,-0.01993355922307783
2671,-0.008501474218345993
2672,-0.006083230883474144
2673,-0.010309968691047822
2674,-0.013316450293581673
2675,-0.009813397590913514
2676,-0.0025975992885893954
2677,0.00031392490769805185
2678,-0.005781586383708095
2679,-0.016915822663997687
2680,-0.024206378668859302
2681,-0.023252314015223742
2682,-0.01941582079513982
2683,-0.022986898607786407
2684,-0.038639740403257794
2685,-0.05999888949037945
2686,-0.07547756849593965
2687,-0.08008618000668721
2688,-0.08134963021325717
2689,-0.09298815099046401
2690,-0.12239925461369337
2691,-0.16449983133314489
2692,-0.20800953842649902
2693,-0.2471139208521399
2694,-0.28541978553062214
2695,-0.32710647081676086
2696,-0.3643657702647036
2697,-0.37550687731565213
2698,-0.33790103982838515
2699,-0.24403768314011387
2700,-0.10434695245577713
2701,0.06646462359762186
2702,0.2643007256052511
2703,0.4924459243132749
2704,0.7382483897416853
2705,0.9514601364967792
2706,1.0517513910023961
2707,0.9711497233214683
2708,0.7046318090822743
2709,0.32849657979438607
2710,-0.0333446902775692
2711,-0.27533138830355897
2712,-0.3629322023996061
2713,-0.33688903269390535
2714,-0.2715135258191719
2715,-0.2226023711580338
2716,-0.20265101078606435
2717,-0.193701183253302
2718,-0.17738430501693098
2719,-0.15328377324333783
2720,-0.13384204993217252
2721,-0.12738574959745425
2722,-0.12881132024811415
2723,-0.12584963223662787
2724,-0.11201125982656703
2725,-0.09214015883254592
2726,-0.07602567773038289
2727,-0.06813217147062312
2728,-0.06426492166080791
2729,-0.05750084210774414
2730,-0.04598238909116718
2731,-0.034213000858239404
2732,-0.02725527027443999
2733,-0.024789323486930213
2734,-0.02154473146307021
2735,-0.013349707777047543
2736,-0.002056539056412437
2737,0.00596126841003901
2738,0.006130179429492316
2739,0.00025036813708624226
2740,-0.005277451721037338
2741,-0.0056305211593084695
2742,-0.001901585821278884
2743,0.0005494181782735956
2744,-0.002205032887203933
2745,-0.008707042465631105
2746,-0.01370132595125111
2747,-0.01346591927123861
2748,-0.009515643919481453
2749,-0.00709468476644814
2750,-0.010037834973424005
2751,-0.01702423098619714
2752,-0.022777203872800873
2753,-0.022978199413346258
2754,-0.01820982968109556
2755,-0.01330996160012496
2756,-0.012920052413280772
2757,-0.017488141368134494
2758,-0.023322918365139736
2759,-0.026304501875204923
2760,-0.02547559991067154
2761,-0.023168378830272014
2762,-0.021969908097900406
2763,-0.02195245688243384
2764,-0.021071986986041874
2765,-0.01809264539390031
2766,-0.014584104676073052
2767,-0.013495272610445783
2768,-0.015628944755121943
2769,-0.01797027238242632
2770,-0.01622975394409542
2771,-0.009495547164972596
2772,-0.0021742327429838974
2773,-0.0006177370093529755
2774,-0.007160619929010223
2775,-0.017370686956398408
2776,-0.023643722206931877
2777,-0.022089376570417894
2778,-0.01608164722349982
2779,-0.012789614316744474
2780,-0.015903628783509392
2781,-0.02179651321715597
2782,-0.023198436742099548
2783,-0.01694678259603459
2784,-0.007974510197412592
2785,-0.005109227554903995
2786,-0.012403118119638578
2787,-0.024527295580032374
2788,-0.0311713029454091
2789,-0.026622600483421778
2790,-0.015361588727717685
2791,-0.008071222565342536
2792,-0.01166958150566522
2793,-0.022854410288942136
2794,-0.03135092844821402
2795,-0.0297107730294509
2796,-0.02023514045481803
2797,-0.012498475277023139
2798,-0.014111392310352671
2799,-0.023766653540988534
2800,-0.03309030986480959
2801,-0.03507256758417364
2802,-0.03060962268436238
2803,-0.026959154881797332
2804,-0.0301310205561566
2805,-0.03905865385735467
2806,-0.04717285449869681
2807,-0.049296154474521445
2808,-0.04654348644954969
2809,-0.04432563643783827
2810,-0.04587899548849513
2811,-0.048345954917340714
2812,-0.045640244426564267
2813,-0.03514677207752006
2814,-0.021199389675792747
2815,-0.011496065961849121
2816,-0.00985922120706978
2817,-0.01260450897429017
2818,-0.012273538683245011
2819,-0.005120866998510788
2820,0.005057061442410603
2821,0.010566580076514825
2822,0.007347599630946657
2823,-0.0010204725238000265
2824,-0.006719977528903094
2825,-0.00506909680915682
2826,0.0013844017385596678
2827,0.005909058506768457
2828,0.004510866502509493
2829,-0.00026049779340000287
2830,-0.0023070547351675165
2831,0.0014465884994469935
2832,0.007685276272007293
2833,0.009985044681035763
2834,0.005390788745648771
2835,-0.002450303361858204
2836,-0.006880552034412523
2837,-0.004990967745774528
2838,-0.0006782326892012215
2839,-0.000753900784982553
2840,-0.007872836326823403
2841,-0.017411854827709544
2842,-0.02165614688381299
2843,-0.017363493729995627
2844,-0.009224895431184097
2845,-0.005596097548580975
2846,-0.010475186774378822
2847,-0.019544096145724624
2848,-0.024254082954092978
2849,-0.020068608649975946
2850,-0.010826691560979873
2851,-0.004942639340566434
2852,-0.007195180180751424
2853,-0.01422864782717827
2854,-0.018194691955852882
2855,-0.014824047428913583
2856,-0.0077646782498672325
2857,-0.00477909888299176
2858,-0.009648814992677538
2859,-0.018065473547613398
2860,-0.02182735623955382
2861,-0.017208856256251504
2862,-0.008985969287389796
2863,-0.005853527767908316
2864,-0.011688671739118577
2865,-0.021472012994774692
2866,-0.026124161172010402
2867,-0.021521581231898082
2868,-0.0126242325973114
2869,-0.008480690484717154
2870,-0.013096720722874686
2871,-0.021419567782433518
2872,-0.024576826752517583
2873,-0.019101350647196293
2874,-0.01071411466647271
2875,-0.008646028715500447
2876,-0.016087218770973244
2877,-0.026441896267566045
2878,-0.02940330223525226
2879,-0.02103787188372975
2880,-0.007930389577265919
2881,-0.0011926464109895635
2882,-0.006097856330678714
2883,-0.01738366135816897
2884,-0.02465539688281047
2885,-0.02243349418214729
2886,-0.015006089458575823
2887,-0.0115786071142087
2888,-0.016821803478354942
2889,-0.026269660202548017
2890,-0.03095857967957596
2891,-0.0264481300902874
2892,-0.017152091239401847
2893,-0.011778620817171102
2894,-0.014606278974139334
2895,-0.021375142641314075
2896,-0.02381847435351517
2897,-0.018169948837441836
2898,-0.009056203763186641
2899,-0.004876643602126969
2900,-0.00932849046531091
2901,-0.017595710446941425
2902,-0.021057268122365067
2903,-0.01585215134882585
2904,-0.006765463663661274
2905,-0.002535354814588364
2906,-0.007218782220921305
2907,-0.01619654937039776
2908,-0.020806304336979102
2909,-0.017017378124844048
2910,-0.00952854572044081
2911,-0.007196052043692223
2912,-0.01428995671652079
2913,-0.02619890116434186
2914,-0.03379143024619931
2915,-0.0321188215137827
2916,-0.024972231132311284
2917,-0.02102372467220265
2918,-0.025554718926582287
2919,-0.035855776890398844
2920,-0.044404565165282635
2921,-0.04614496142769235
2922,-0.04247634125321068
2923,-0.03840031054126734
2924,-0.036421205915521906
2925,-0.03386110990719854
2926,-0.0263086676907003
2927,-0.013320408999039591
2928,-0.0001393710162317229
2929,0.006608997080068864
2930,0.005030641158936002
2931,-0.00019043381213304706
2932,-0.002000819636411021
2933,0.0028913730941087594
2934,0.011702702237998677
2935,0.018787114353215006
2936,0.020763779981244207
2937,0.018626059374840156
2938,0.015463213218664732
2939,0.01285058084194075
2940,0.0097715108610277
2941,0.00474505141701724
2942,-0.0016421299854700484
2943,-0.006727335241169563
2944,-0.008175044646959444
2945,-0.005978884604776257
2946,-0.0018106043039552468
2947,0.003434351288697026
2948,0.010867474030498413
2949,0.021798243288672664
2950,0.03451335106616758
2951,0.04332344398196428
2952,0.04182977013660166
2953,0.028232678786014983
2954,0.007937035729375068
2955,-0.00951673143462266
2956,-0.017284655110533398
2957,-0.01625064146498015
2958,-0.013822899466714068
2959,-0.017313505151391354
2960,-0.02754447572607697
2961,-0.03826698463981967
2962,-0.04186348481402463
2963,-0.03615180700348657
2964,-0.02614584719186637
2965,-0.019341511007563553
2966,-0.019118175311161095
2967,-0.022459657836329666
2968,-0.023866404261536564
2969,-0.021300368005642303
2970,-0.01820357854896068
2971,-0.01976524305887959
2972,-0.027429371585162926
2973,-0.037249962515406715
2974,-0.04361833678618857
2975,-0.044463709779166215
2976,-0.04283219443970962
2977,-0.04373498359376936
2978,-0.04987585048205173
2979,-0.060441027849783516
2980,-0.07345341812909198
2981,-0.08864493945711555
2982,-0.10806607001869974
2983,-0.13466988255467774
2984,-0.17083304383653145
2985,-0.21739711394835634
2986,-0.2719560301246948
2987,-0.32615991554271107
2988,-0.36488844228911643
2989,-0.3705462507477495
2990,-0.3310087331226447
2991,-0.24429912133967313
2992,-0.11440168901467374
2993,0.05796943640968941
2994,0.2772786551503833
2995,0.5391118461010626
2996,0.8080228153579728
2997,1.0099095907479794
2998,1.0571423736335592
2999,0.899360859655747
3000,0.5663065114240136
3001,0.16668130801465356
3002,-0.16420407189431624
3003,-0.33623408959829043
3004,-0.3471964046540719
3005,-0.2686088677158387
3006,-0.18897289506743775
3007,-0.1580261191583881
3008,-0.16948727248609818
3009,-0.18612185578284052
3010,-0.1792511726988001
3011,-0.149781420694359
3012,-0.11927863608541592
3013,-0.10585972908162852
3014,-0.10863521722288474
3015,-0.11212070279998601
3016,-0.10276713906180653
3017,-0.08095469024225041
3018,-0.058788876772736844
3019,-0.04792432988243199
3020,-0.049465756694776555
3021,-0.05430809725451967
3022,-0.05217381665661523
3023,-0.040528982224892734
3024,-0.025846913731496897
3025,-0.017045578251108296
3026,-0.017522494837967213
3027,-0.02273978980920652
3028,-0.02494888555291358
3029,-0.02034558833188589
3030,-0.012115498485425848
3031,-0.006851450256197573
3032,-0.007981502913105992
3033,-0.012532459724949265
3034,-0.014283007233738067
3035,-0.010160949631066993
3036,-0.0035215566986466717
3037,-0.000934595976183755
3038,-0.005544641657484622
3039,-0.013642899368533376
3040,-0.018084179921494734
3041,-0.015364903752905022
3042,-0.009306393716346471
3043,-0.007424335852695373
3044,-0.01332134589819725
3045,-0.02262508623471042
3046,-0.026761987525053793
3047,-0.02119553014497321
3048,-0.01019423441561033
3049,-0.003341289892885019
3050,-0.0068996702984897235
3051,-0.01812360797734949
3052,-0.027814862270036433
3053,-0.028598132171988474
3054,-0.021115233872207224
3055,-0.01259046735011914
3056,-0.00961354075938611
3057,-0.012281311579320456
3058,-0.015086027678944503
3059,-0.0131483739424258
3060,-0.007332703500491648
3061,-0.0032397631835714806
3062,-0.005335418202118074
3063,-0.012248526289079105
3064,-0.017955075501768218
3065,-0.017639695632082463
3066,-0.012410492067877487
3067,-0.008220100705294813
3068,-0.010054830608101124
3069,-0.017059752115363848
3070,-0.023313912879369778
3071,-0.023461368520277057
3072,-0.01774088974153806
3073,-0.011628554114527732
3074,-0.010571957308795623
3075,-0.014976290792143592
3076,-0.020188770163930177
3077,-0.02124573101805203
3078,-0.017566967244417968
3079,-0.013074370432350007
3080,-0.011940207357230177
3081,-0.014501430451806746
3082,-0.017472448964161717
3083,-0.017973303589178913
3084,-0.01689214547654034
3085,-0.017878710502995547
3086,-0.023005650328797932
3087,-0.029844894879356966
3088,-0.03338556000639663
3089,-0.031108385179626108
3090,-0.02595660733350309
3091,-0.023818204131345118
3092,-0.02774953523241734
3093,-0.03476130295287595
3094,-0.038651298087147345
3095,-0.03625317388827609
3096,-0.030789451715075876
3097,-0.02871566901215553
3098,-0.03299713961167
3099,-0.039565264886742973
3100,-0.04075027889703993
3101,-0.03258074274083825
3102,-0.018877502676998052
3103,-0.00809824429655062
3104,-0.005948140686897016
3105,-0.010827317445270993
3106,-0.016229052962511314
3107,-0.01728223206407524
3108,-0.014744023140903742
3109,-0.01272006540491914
3110,-0.01303291211046306
3111,-0.012587724004672425
3112,-0.006774987476387826
3113,0.004638955638662123
3114,0.015657543028170306
3115,0.018867043082660146
3116,0.012595900586900553
3117,0.003202464171386727
3118,-0.000350925806442208
3119,0.005095523316748709
3120,0.013539578073290457
3121,0.015058705844161097
3122,0.005053384080989797
3123,-0.011110724298264131
3124,-0.02253410243967085
3125,-0.02230128172501339
3126,-0.013328076973762752
3127,-0.005244359764846673
3128,-0.005418269294457023
3129,-0.012584956153190758
3130,-0.018841897397396067
3131,-0.017724374677920464
3132,-0.010434862283702008
3133,-0.004372904218827409
3134,-0.00570719111221845
3135,-0.01340096353767469
3136,-0.020429775066209563
3137,-0.020740317561479465
3138,-0.014943227778549627
3139,-0.009210276923999528
3140,-0.008737400635432893
3141,-0.012503660927283031
3142,-0.014596210286952549
3143,-0.010647112603049928
3144,-0.0027499202872583355
3145,0.0022145991878841347
3146,-0.000771963347438104
3147,-0.00989511861737901
3148,-0.018182535177716272
3149,-0.020105994084722266
3150,-0.016486327493736536
3151,-0.012904600402822566
3152,-0.013486030657337876
3153,-0.01660757713797293
3154,-0.01699561540556481
3155,-0.01196767162248073
3156,-0.005146533131258305
3157,-0.003458842292250038
3158,-0.010177056147651109
3159,-0.021066525614867573
3160,-0.0278329521463525
3161,-0.02577674427419522
3162,-0.01819032067213351
3163,-0.013100125012020238
3164,-0.01549740679767804
3165,-0.022684685571468036
3166,-0.027255383524686705
3167,-0.024607905279097952
3168,-0.017414066773790794
3169,-0.012615144394754332
3170,-0.014115416690783962
3171,-0.018699544113735003
3172,-0.01940266717813858
3173,-0.012943042568961585
3174,-0.0036055307948579876
3175,0.0005427119799169689
3176,-0.004506851827105482
3177,-0.014598203016539147
3178,-0.0212105901577305
3179,-0.019496928476396887
3180,-0.01267825328460659
3181,-0.00853991088101424
3182,-0.011618745306335453
3183,-0.018886040187340497
3184,-0.023132984134496173
3185,-0.02050054392364062
3186,-0.01446378139882011
3187,-0.012208155847948526
3188,-0.01704963512551008
3189,-0.024594743150423558
3190,-0.026649937537826515
3191,-0.019160777530215493
3192,-0.006414755891527277
3193,0.002604038928298478
3194,0.0021375702661425573
3195,-0.005780771920833962
3196,-0.014238980077712647
3197,-0.018505137879879688
3198,-0.02001341298669251
3199,-0.023536344356954363
3200,-0.03095837877897704
3201,-0.03852832569879676
3202,-0.0406968396585783
3203,-0.036544904403414236
3204,-0.03176804785443811
3205,-0.03351223066118848
3206,-0.04281203911851526
3207,-0.05233459000582115
3208,-0.05230613759943487
3209,-0.03944347872056221
3210,-0.02042232568780577
3211,-0.006359959693485733
3212,-0.003317246279209262
3213,-0.007632446021486208
3214,-0.010224413795774757
3215,-0.005398529976350161
3216,0.004422793258066496
3217,0.012285091932342219
3218,0.014468139563265172
3219,0.014273830945613809
3220,0.01796967451517211
3221,0.027226791572077948
3222,0.03614317683633847
3223,0.03635910226104027
3224,0.025420225617707716
3225,0.009918238437007142
3226,-0.00010586577764876972
3227,-0.0002653331346769902
3228,0.004549899293847013
3229,0.005804491559518447
3230,0.0007430918446873999
3231,-0.003941972573069752
3232,0.0016004332136632287
3233,0.019764629649415326
3234,0.04090395502941632
3235,0.04990660888924911
3236,0.03859857056883028
3237,0.012864753695519673
3238,-0.012087206484026277
3239,-0.024167223356733946
3240,-0.02346645754892055
3241,-0.02016364358124874
3242,-0.023834795663894348
3243,-0.03440196349506265
3244,-0.04292900638697822
3245,-0.04092017437522101
3246,-0.028862226389079766
3247,-0.0158526248968902
3248,-0.010954882248720422
3249,-0.01483854541667692
3250,-0.019749812611885575
3251,-0.017599800866795787
3252,-0.008083418080097035
3253,0.0011017768465885597
3254,0.0019393820643247672
3255,-0.006132100790443526
3256,-0.016123003175841484
3257,-0.02099767337569946
3258,-0.020953556503085877
3259,-0.022877579138257883
3260,-0.032489554291395537
3261,-0.0474568876241752
3262,-0.059078806258035174
3263,-0.06136243947162613
3264,-0.058308701787381886
3265,-0.061497783585499094
3266,-0.07980789841435625
3267,-0.11149570286119101
3268,-0.1469016588644234
3269,-0.1791260147944682
3270,-0.21121679901408147
3271,-0.2513504234782201
3272,-0.2999522600186669
3273,-0.34204201823623825
3274,-0.3538978533011097
3275,-0.31866951187959214
3276,-0.23555295961120087
3277,-0.11303606637079666
3278,0.04600816592670366
3279,0.24854207886588126
3280,0.49458418253759306
3281,0.7515585818447172
3282,0.9468208765313169
3283,0.9955946645767917
3284,0.8520718328848595
3285,0.5473879585936197
3286,0.18265024397922505
3287,-0.12273548964615738
3288,-0.2931885222071169
3289,-0.32770228460333883
3290,-0.2822838874010519
3291,-0.22314112123388258
3292,-0.1873294059094231
3293,-0.1749778879932591
3294,-0.16866161322555037
3295,-0.156534704499939
3296,-0.14002556435879593
3297,-0.12575488647272565
3298,-0.11530065752688429
3299,-0.10418163767586305
3300,-0.08881163870452388
3301,-0.07173338107114885
3302,-0.058933121915290855
3303,-0.052849145808136086
3304,-0.04943737192721242
3305,-0.04268086608992072
3306,-0.03143286309421259
3307,-0.020966220192184658
3308,-0.017508511527064473
3309,-0.021632528568074676
3310,-0.0274591019814134
3311,-0.028338332452178535
3312,-0.022970687337892
3313,-0.01584360970183278
3314,-0.012092196689272607
3315,-0.012543225983083647
3316,-0.013916471807780387
3317,-0.013236533595700801
3318,-0.011113363287556587
3319,-0.01030168045228517
3320,-0.011577015040849025
3321,-0.012062659330027606
3322,-0.008290066881921031
3323,-0.0007158515543610277
3324,0.0055888036005079765
3325,0.005432151075863415
3326,-0.001194214575833921
3327,-0.008660354892318277
3328,-0.010974860345318324
3329,-0.007684737256542274
3330,-0.004378877397116806
3331,-0.007078384431127918
3332,-0.016007800824422727
3333,-0.0250170005846753
3334,-0.027382141254317566
3335,-0.022363974270311157
3336,-0.016082822744273056
3337,-0.015794556299510758
3338,-0.02305125158827369
3339,-0.032241756203981134
3340,-0.03575432026431272
3341,-0.030713369960974388
3342,-0.02099310891355749
3343,-0.013000267274514882
3344,-0.009691712659225686
3345,-0.00865706537105029
3346,-0.0057589885662538455
3347,-0.0002596182929860849
3348,0.003936178667618161
3349,0.002189404056319351
3350,-0.005840765131139536
3351,-0.015262372679285428
3352,-0.020245545404079787
3353,-0.019378854928642972
3354,-0.01671533372074418
3355,-0.017332257698257098
3356,-0.02176692197164086
3357,-0.025039964823705983
3358,-0.021586047433535996
3359,-0.011412268273774156
3360,-0.0011686572610624967
3361,0.0015119717375377943
3362,-0.004671190970963983
3363,-0.01293893651070081
3364,-0.014532310504660027
3365,-0.0073022506129002025
3366,0.0014969421556197344
3367,0.0014439561204817983
3368,-0.011164503063390108
3369,-0.029095148321218525
3370,-0.04003753328829518
3371,-0.03749704464403898
3372,-0.026644174762315044
3373,-0.019508065846695566
3374,-0.023883116067628662
3375,-0.03632750353767619
3376,-0.045788178159263934
3377,-0.04426602421057381
3378,-0.03426570451602559
3379,-0.02600978127261413
3380,-0.027363663843286857
3381,-0.03637839312725526
3382,-0.043572185830031376
3383,-0.0414070649930089
3384,-0.031467897765766945
3385,-0.022396308817615413
3386,-0.02095960809904849
3387,-0.025365680448132723
3388,-0.02743995111181301
3389,-0.021243075357891314
3390,-0.009292353735181027
3391,-0.00012724714135365267
3392,0.0002190617834842382
3393,-0.005817282294523501
3394,-0.009887392822016432
3395,-0.006111881260765082
3396,0.0032061460541826254
3397,0.010201958785989694
3398,0.009585754386071694
3399,0.003964319222946246
3400,0.000982550238504203
3401,0.005270480399196863
3402,0.013441168290241738
3403,0.01728222768742673
3404,0.01200085105274043
3405,0.0012685031807739197
3406,-0.006031667891815508
3407,-0.0042264700834997344
3408,0.0037693533334959657
3409,0.00928649666104684
3410,0.006065998039943716
3411,-0.004182185923116704
3412,-0.013967364866918144
3413,-0.017417486567320305
3414,-0.015470423194582422
3415,-0.014006315314188904
3416,-0.017254471393632637
3417,-0.023337465932075942
3418,-0.02633615475593474
3419,-0.02253577859776253
3420,-0.014407540583097601
3421,-0.008371132125807545
3422,-0.008721212051019271
3423,-0.013811186483286678
3424,-0.01808987281128137
3425,-0.017646354864240238
3426,-0.013615459210308704
3427,-0.010291008138788152
3428,-0.010287270190317123
3429,-0.011904294192474732
3430,-0.011289674783620487
3431,-0.006911637027349724
3432,-0.0015572461683326026
3433,0.0002198502436605221
3434,-0.003479826903352451
3435,-0.010149814861005597
3436,-0.015479759894924516
3437,-0.017503596489154283
3438,-0.018010775156845894
3439,-0.019912696223410943
3440,-0.023519124178518598
3441,-0.025803019518470624
3442,-0.02358008968715517
3443,-0.01735847571685897
3444,-0.011723240849384477
3445,-0.011485665614752356
3446,-0.017126152610846976
3447,-0.023991971892822404
3448,-0.02625907490921548
3449,-0.022111256904634218
3450,-0.01532288630242735
3451,-0.011726362824735184
3452,-0.013825327210217696
3453,-0.01857506157240881
3454,-0.020413014161188795
3455,-0.01670566704374771
3456,-0.010474426873001595
3457,-0.007750938938344155
3458,-0.01191988123820789
3459,-0.020286047538419883
3460,-0.02613163372814296
3461,-0.024482063881922582
3462,-0.016351133737213377
3463,-0.00763912723282077
3464,-0.0038361034055774323
3465,-0.005549979117516723
3466,-0.008939897201563029
3467,-0.010276460889759961
3468,-0.009810724298774734
3469,-0.010947297095975151
3470,-0.01566755304801035
3471,-0.0212650717765104
3472,-0.022374555598409895
3473,-0.016774522639111097
3474,-0.009013025448424925
3475,-0.007392390300383835
3476,-0.016329232000155194
3477,-0.03130421123112276
3478,-0.041939330741871596
3479,-0.04115528368019997
3480,-0.03202220482668572
3481,-0.02538665621280256
3482,-0.029851884598948997
3483,-0.04327982835548941
3484,-0.05407141499395128
3485,-0.05145640030658667
3486,-0.0353406316213114
3487,-0.016431552300847085
3488,-0.00649617836094841
3489,-0.007991599079444146
3490,-0.012801281395560376
3491,-0.010889862158814816
3492,-0.00011183530458767216
3493,0.012395182065746392
3494,0.018143659398496992
3495,0.016113858357160633
3496,0.013381811795265016
3497,0.017110942942763704
3498,0.026449219816524254
3499,0.03296448117043485
3500,0.029327272895879483
3501,0.01722982165609729
3502,0.0061161891746130265
3503,0.0037481701097616393
3504,0.008261870880986923
3505,0.0101492494058533
3506,0.0025224957674730673
3507,-0.010712700003681882
3508,-0.017473852074546797
3509,-0.008937933864496862
3510,0.011203593804384585
3511,0.028904110434008784
3512,0.03159902465624222
3513,0.018628385405342413
3514,0.0006168708417641913
3515,-0.011081165027683838
3516,-0.014398259782878823
3517,-0.016619896284176663
3518,-0.025185940653974795
3519,-0.03888540008095362
3520,-0.04827068079660016
3521,-0.044707061065900125
3522,-0.02900079453119303
3523,-0.011200241440963628
3524,-0.0019125293453966727
3525,-0.003535311891311491
3526,-0.00948482107973796
3527,-0.01154171320459317
3528,-0.007819069875368762
3529,-0.00379544631826822
3530,-0.0059823724344992835
3531,-0.014930466542413881
3532,-0.024593560642285017
3533,-0.028542795986709054
3534,-0.026674608808429215
3535,-0.025552222574313353
3536,-0.03182185179074799
3537,-0.04513618862433989
3538,-0.057831647369610883
3539,-0.062210213554140324
3540,-0.058652949409218474
3541,-0.056441800514867066
3542,-0.0658695833414484
3543,-0.08888153400428055
3544,-0.1175614985693088
3545,-0.14254869578158258
3546,-0.16339535353286663
3547,-0.1899646188371692
3548,-0.23199502020392365
3549,-0.2858863261177388
3550,-0.331740516934892
3551,-0.34473349515206264
3552,-0.31085318604143963
3553,-0.23197493925248053
3554,-0.1154979237569802
3555,0.03963147808231181
3556,0.24259912669016126
3557,0.49084529760557943
3558,0.7466416499018196
3559,0.93548617882854
3560,0.9775036728667249
3561,0.8352040921589468
3562,0.5435023979850231
3563,0.19757451216881713
3564,-0.095530135220147
3565,-0.2692365127851418
3566,-0.3203664968511277
3567,-0.2929588715815922
3568,-0.24113525709465244
3569,-0.19922913704111173
3570,-0.17506926419590435
3571,-0.1616649058616974
3572,-0.15150699014576402
3573,-0.14224577383556236
3574,-0.1341612089133951
3575,-0.12648681256940897
3576,-0.1172377445343443
3577,-0.10529244762368596
3578,-0.091270782395875
3579,-0.07638579620042475
3580,-0.06138474963558652
3581,-0.04712219066235136
3582,-0.03550385322579916
3583,-0.028614520850459964
3584,-0.02626548495326806
3585,-0.02491014202840592
3586,-0.02011458019589621
3587,-0.01085304020816285
3588,-0.0012142151597614136
3589,0.002866601770954545
3590,-0.0008389476867363538
3591,-0.008461060267271744
3592,-0.013435231540507346
3593,-0.012545926893369464
3594,-0.0086628685770011
3595,-0.007468006009839637
3596,-0.011541621955321778
3597,-0.017832336388849318
3598,-0.021008256741887107
3599,-0.01910516363526646
3600,-0.015541818703847871
3601,-0.015386426295940255
3602,-0.01977755515008505
3603,-0.024385391106248364
3604,-0.023669087791131464
3605,-0.01667777070633994
3606,-0.008440530410866634
3607,-0.005386054441032503
3608,-0.009278964900799002
3609,-0.015710417038217794
3610,-0.01863640959012843
3611,-0.01639238271180467
3612,-0.013142610981678588
3613,-0.01433460303456987
3614,-0.020789643825885776
3615,-0.027475498619820342
3616,-0.0283328552756649
3617,-0.022416509276509813
3618,-0.015180128490354116
3619,-0.013457005123391508
3620,-0.01893336659953792
3621,-0.02649279859887009
3622,-0.029115514730198765
3623,-0.024609960268195213
3624,-0.017618466853865693
3625,-0.014913851823568872
3626,-0.018560658488931084
3627,-0.02365736252198379
3628,-0.02297325334337713
3629,-0.014083121609893914
3630,-0.0020965847609035336
3631,0.004755354423052603
3632,0.0025679026265734827
3633,-0.004786318472836583
3634,-0.009410527054427954
3635,-0.006684583328277391
3636,0.0008184542783397206
3637,0.00630444732980371
3638,0.005414430238800564
3639,-4.6424339260335226e-05
3640,-0.00475231535254133
3641,-0.005830086385245757
3642,-0.005838697894120301
3643,-0.009644867621780313
3644,-0.018516452924588995
3645,-0.02782014754461282
3646,-0.031156840942466308
3647,-0.027065602827176884
3648,-0.02139911103091797
3649,-0.022425074040374558
3650,-0.03294260614560338
3651,-0.04702608162784588
3652,-0.05489039260090246
3653,-0.05160809458491833
3654,-0.041545530074037815
3655,-0.03430574419396308
3656,-0.03599004619573486
3657,-0.04399121879163792
3658,-0.050072089011220296
3659,-0.04854185143347764
3660,-0.04159568921573531
3661,-0.03682046259372173
3662,-0.039505311545284624
3663,-0.047298826816740094
3664,-0.052302770862860504
3665,-0.04844873106979937
3666,-0.03703940338368135
3667,-0.02530841674212326
3668,-0.019633434937913263
3669,-0.019993643758114577
3670,-0.02076375738048032
3671,-0.016686634948908787
3672,-0.008023603765116235
3673,1.2650782421434997e-06
3674,0.0026063056694488867
3675,0.00019601375293038165
3676,-0.002190920369332187
3677,-6.998097879405566e-06
3678,0.0063037956058537
3679,0.0118696729052079
3680,0.012331353323752473
3681,0.008123936077402912
3682,0.003812116053306172
3683,0.003246193037929675
3684,0.005570834215991288
3685,0.006259515935193275
3686,0.0021723480169569247
3687,-0.004625297988177559
3688,-0.008458887104471052
3689,-0.0057224669503834445
3690,0.0010882571444916244
3691,0.005361182065017601
3692,0.002744090611828956
3693,-0.004387627211319717
3694,-0.009095584830238937
3695,-0.006848491078921386
3696,-0.00042530998968110987
3697,0.002393587263947096
3698,-0.0035861681292130056
3699,-0.015500326216766348
3700,-0.02467483059730211
3701,-0.024686955535489087
3702,-0.017467045803045436
3703,-0.011407035515251327
3704,-0.013227682797653927
3705,-0.021525204930979834
3706,-0.02829842755056312
3707,-0.026895810747809883
3708,-0.018513270899605593
3709,-0.010884978781133196
3710,-0.010601109659098305
3711,-0.01676299398994756
3712,-0.022217697772037134
3713,-0.020959008540425865
3714,-0.01416127991418063
3715,-0.008820842418050851
3716,-0.010499290416622384
3717,-0.01757631588616815
3718,-0.02281121606809866
3719,-0.020586334348582765
3720,-0.012491634293903707
3721,-0.005641369341065475
3722,-0.005488312796152446
3723,-0.010446040592164817
3724,-0.013760771879375725
3725,-0.010699527290299094
3726,-0.003702394299046478
3727,-0.00017028292631390666
3728,-0.005011147586229532
3729,-0.01543986901697958
3730,-0.02336852115516274
3731,-0.023140049599563957
3732,-0.01694829705042202
3733,-0.012523643378811613
3734,-0.015368939764662769
3735,-0.023296543880491686
3736,-0.028727215431648252
3737,-0.026414405282788714
3738,-0.018775286851844486
3739,-0.013399795380648866
3740,-0.015223585717091967
3741,-0.021326697534222422
3742,-0.023767628104534082
3743,-0.017754746129221094
3744,-0.006931784359796836
3745,-0.0002625636984383282
3746,-0.003356937952584474
3747,-0.012761948466527478
3748,-0.01899485471683285
3749,-0.01554482612167141
3750,-0.005160635403237286
3751,0.0026594688748622477
3752,0.0005148846018411736
3753,-0.0102394063633405
3754,-0.02123067162213995
3755,-0.025141935339810316
3756,-0.022081358426602842
3757,-0.018297843525510702
3758,-0.01910745014350483
3759,-0.023491878305667742
3760,-0.025729166129100506
3761,-0.022005614228967452
3762,-0.014895785265202374
3763,-0.010968711141252174
3764,-0.014009062449298218
3765,-0.020942325601759314
3766,-0.024808243275571715
3767,-0.021865794828607007
3768,-0.015581844038775385
3769,-0.013314230970827338
3770,-0.01889104347147423
3771,-0.02853112430663957
3772,-0.03431134215518085
3773,-0.03185727073569738
3774,-0.024649097980293164
3775,-0.02061387231775087
3776,-0.024297919172541604
3777,-0.03231700641608247
3778,-0.036584859056451105
3779,-0.03216900642217005
3780,-0.022069728335689695
3781,-0.014250231634413506
3782,-0.013867336782497623
3783,-0.018352512973878087
3784,-0.020155798789632227
3785,-0.014398151691028305
3786,-0.003834930452374946
3787,0.0038140506471532687
3788,0.0035650800338134637
3789,-0.0017192016436222111
3790,-0.003955629151405924
3791,0.002236136414415766
3792,0.014020338942303864
3793,0.022695867604669625
3794,0.02173518585014325
3795,0.012775359149262665
3796,0.0038055899996694764
3797,0.0014157004463495096
3798,0.004756693496915007
3799,0.0070989242907395075
3800,0.003266652135543089
3801,-0.004679584802771489
3802,-0.00940362422146364
3803,-0.006025551544095817
3804,0.0023067175653533846
3805,0.0070707691194510265
3806,0.0031070670278467586
3807,-0.005180227554004024
3808,-0.006874865078659451
3809,0.0052518232366942485
3810,0.0267847489863477
3811,0.04382300463297959
3812,0.043908634923837925
3813,0.026130067491034942
3814,0.0014211682181555177
3815,-0.016949908106199542
3816,-0.023877107292345573
3817,-0.024662212441802254
3818,-0.027897758328915164
3819,-0.03652812235874293
3820,-0.045608994373845094
3821,-0.04811836543640864
3822,-0.04227949200121937
3823,-0.03297174141982981
3824,-0.026340374553759382
3825,-0.02367889703207198
3826,-0.02097415026527862
3827,-0.014199877812569286
3828,-0.004353424576511573
3829,0.003265433869276432
3830,0.0046536873570413965
3831,0.0013701148362126184
3832,-0.001297119299136354
3833,-0.0003562465008941098
3834,0.0012595810042522553
3835,-0.002379145771775784
3836,-0.013610059036822192
3837,-0.027956358099683894
3838,-0.037939732392418477
3839,-0.04019734540644637
3840,-0.038607771084995905
3841,-0.040291577626274486
3842,-0.04884752421960968
3843,-0.06196329127638392
3844,-0.0756023118897383
3845,-0.08973020455709163
3846,-0.10899682912566458
3847,-0.1376645674410525
3848,-0.17474861694674865
3849,-0.21509022340527242
3850,-0.2549283163451971
3851,-0.2946275979678935
3852,-0.33389360298354454
3853,-0.3638333712553692
3854,-0.36546949796838973
3855,-0.31882156341144285
3856,-0.21527379222311815
3857,-0.061218430576446825
3858,0.13042800777403565
3859,0.35022100322331234
3860,0.5893529070074348
3861,0.8229036332429973
3862,0.9967796643633166
3863,1.0398125726120164
3864,0.9032687672847488
3865,0.6024199031553608
3866,0.22501457623667862
3867,-0.10766308064821892
3868,-0.3047299764839404
3869,-0.3506685730444608
3870,-0.30060648722207317
3871,-0.23300435154768895
3872,-0.19765251018733304
3873,-0.19579637438709882
3874,-0.19953102369093897
3875,-0.18643254361541672
3876,-0.15845626778601704
3877,-0.13367904798904628
3878,-0.12486462651830481
3879,-0.12736068057203995
3880,-0.1259239299657639
3881,-0.11083879407615946
3882,-0.08658195460240106
3883,-0.06586814483638934
3884,-0.05675359962128294
3885,-0.05595163245426424
3886,-0.05382454878423302
3887,-0.044697070727780855
3888,-0.0318844623537175
3889,-0.02319684134200679
3890,-0.022350203235718298
3891,-0.025137975531021393
3892,-0.023822560337040687
3893,-0.014976271465875865
3894,-0.002964280829214759
3895,0.00415674164324578
3896,0.0022083507926074714
3897,-0.0052767874468788705
3898,-0.010406385607709087
3899,-0.008144082284715911
3900,-0.0006424943216997612
3901,0.005148763202610193
3902,0.004112919009944763
3903,-0.002479663922238682
3904,-0.008654854423586617
3905,-0.009806437047783492
3906,-0.007140897060684666
3907,-0.006128524249531713
3908,-0.010516702159770002
3909,-0.01795303850893472
3910,-0.021850128367543947
3911,-0.017976904921982687
3912,-0.009316652690830936
3913,-0.004030268983564658
3914,-0.007969852801132894
3915,-0.018780047174307483
3916,-0.027528784968145252
3917,-0.026734611987465684
3918,-0.017335951368183545
3919,-0.007885278899282847
3920,-0.006593839362964231
3921,-0.01376916137299395
3922,-0.021861512636073166
3923,-0.022970745777282957
3924,-0.016438575954259238
3925,-0.009172615411339558
3926,-0.008580857214075192
3927,-0.015247312884473601
3928,-0.02257313379407031
3929,-0.023546892560604347
3930,-0.017726610620776205
3931,-0.011474072052919896
3932,-0.011383491500319882
3933,-0.017644249471912746
3934,-0.02396503681676621
3935,-0.02393956464119061
3936,-0.01729406291821587
3937,-0.009790574129214307
3938,-0.007147961198858224
3939,-0.009363422291416897
3940,-0.011194570528703693
3941,-0.008099455519046029
3942,-0.0013423533745640286
3943,0.0030640210715395127
3944,0.0004947848887862343
3945,-0.007396720933932672
3946,-0.014092430022756095
3947,-0.014566190111792885
3948,-0.010208021620248513
3949,-0.007386824658641904
3950,-0.011111124830418923
3951,-0.02011490041112202
3952,-0.02819590023064298
3953,-0.030360563083186562
3954,-0.02760672027106386
3955,-0.025663720415638705
3956,-0.02910382484104828
3957,-0.03679034770449181
3958,-0.04315395889966002
3959,-0.04388740450545214
3960,-0.040281067999435385
3961,-0.03789319423444558
3962,-0.040966744577014665
3963,-0.04818698136068208
3964,-0.05390079909229119
3965,-0.05340190958172041
3966,-0.046941074429133714
3967,-0.03865089817468725
3968,-0.03187689419331868
3969,-0.025990486648493315
3970,-0.01798880556178748
3971,-0.006979691763802224
3972,0.0035192109939237346
3973,0.008306253466370438
3974,0.005709668914263653
3975,-0.00015241806621490495
3976,-0.002765489736199675
3977,0.0007820391565930211
3978,0.007113019031973569
3979,0.010000966296212641
3980,0.006632376960726397
3981,0.00044688958509350187
3982,-0.0023553325457338565
3983,0.0008293886147355097
3984,0.006244080343361132
3985,0.007526275808448871
3986,0.0023059931986528963
3987,-0.00504940806010777
3988,-0.007516632357328095
3989,-0.002448658837755485
3990,0.005435012379413932
3991,0.008253248457647055
3992,0.002430768948715855
3993,-0.007817827401761483
3994,-0.014430152927755645
3995,-0.013079333432829868
3996,-0.007062111492526245
3997,-0.003774435550622811
3998,-0.007289678442958155
3999,-0.014314303856734788
4000,-0.01744250326403965
4001,-0.012497921490985706
4002,-0.0028135401759374966
4003,0.003666734188011328
4004,0.0016251848830147464
4005,-0.006983827059156209
4006,-0.015154206906587345
4007,-0.017516070533520313
4008,-0.01493996209148387
4009,-0.012804992268360207
4010,-0.015007275235539002
4011,-0.019865660542755046
4012,-0.02198670008349344
4013,-0.01808100249005065
4014,-0.010750481106051792
4015,-0.006313361461124943
4016,-0.008733128503983351
4017,-0.015683747275113687
4018,-0.02074122041145355
4019,-0.01962336240087895
4020,-0.014316018572084262
4021,-0.010938298706247636
4022,-0.01340534156261957
4023,-0.019219885366002505
4024,-0.02173727013602377
4025,-0.0168345283991608
4026,-0.007386765396273562
4027,-0.0009183913215478216
4028,-0.002493894039256107
4029,-0.009777495098466241
4030,-0.015274353826998132
4031,-0.013745744080800686
4032,-0.007529149991494111
4033,-0.004338914840102171
4034,-0.009485332665455178
4035,-0.020145482202221676
4036,-0.02756722931751571
4037,-0.025365148040318784
4038,-0.015893270451419528
4039,-0.008290860437645585
4040,-0.009848821940257714
4041,-0.01900580074757354
4042,-0.02687575572874614
4043,-0.025923808829408375
4044,-0.01733178904120066
4045,-0.009789943881993592
4046,-0.010866293396061832
4047,-0.01946382356973034
4048,-0.026837695879158262
4049,-0.02517083892900027
4050,-0.01520504194820297
4051,-0.005392722036723842
4052,-0.00351564354128223
4053,-0.009208057244502629
4054,-0.014808181760750277
4055,-0.013496310560732102
4056,-0.006344700710088915
4057,-0.0011150220844789512
4058,-0.00412183732107087
4059,-0.013565702329787146
4060,-0.021205053189662475
4061,-0.020673076044657387
4062,-0.013925531493262222
4063,-0.009207108922956887
4064,-0.01259352326587268
4065,-0.021730738850870117
4066,-0.028149173536834198
4067,-0.025794860905851844
4068,-0.017119334779122992
4069,-0.01059778919634008
4070,-0.012257784753867938
4071,-0.019799519924791287
4072,-0.025139827071968796
4073,-0.02263992411830684
4074,-0.014648890672051908
4075,-0.00892050378044872
4076,-0.010773313667814782
4077,-0.018031024995098274
4078,-0.023687532702212515
4079,-0.023274348732917876
4080,-0.01928375806248184
4081,-0.018281599668277235
4082,-0.02392686710461566
4083,-0.03314700101813447
4084,-0.039225332628346106
4085,-0.03836705189931371
4086,-0.03290965428446612
4087,-0.02809788681613121
4088,-0.026161978621785785
4089,-0.024157912613981772
4090,-0.017877767468886877
4091,-0.007539859813013196
4092,0.0011106864405389975
4093,0.0019588952936558696
4094,-0.005065638844404909
4095,-0.013000559241967618
4096,-0.013749742629243326
4097,-0.005378781399430344
4098,0.006285268487004926
4099,0.013326555838002642
4100,0.013074142574994618
4101,0.009871629609692963
4102,0.009717049400335787
4103,0.013475295570291021
4104,0.015837489710084536
4105,0.011263227577075801
4106,0.0007523898137412296
4107,-0.007909791217874447
4108,-0.007296343847198291
4109,0.0020639138176812
4110,0.011617597711800461
4111,0.013023944049920362
4112,0.006920702070724505
4113,0.003221889178956597
4114,0.01179240450589308
4115,0.03191810656878756
4116,0.05084770678600472
4117,0.05358373766823228
4118,0.035503779976906846
4119,0.006436470910014205
4120,-0.017512739883133684
4121,-0.026952007137136517
4122,-0.025441923050184778
4123,-0.024026243857465098
4124,-0.029971093588413274
4125,-0.04045857974907512
4126,-0.046551609046717866
4127,-0.0427252845657777
4128,-0.03237068724397174
4129,-0.024229408624534952
4130,-0.02377708569981739
4131,-0.02819250748433743
4132,-0.029584467578201004
4133,-0.02293942320785443
4134,-0.010934063669400003
4135,-0.0012050126471830707
4136,0.0009142205791317882
4137,-0.002899199174022662
4138,-0.006022389205407166
4139,-0.0033410146896897938
4140,0.00416524747266217
4141,0.010751784195815569
4142,0.011471336578180464
4143,0.006590288538677012
4144,0.0009465747747139941
4145,-0.0008725531474793183
4146,0.000897801086138032
4147,0.0007194065647344503
4148,-0.008487267972894997
4149,-0.03049645398852307
4150,-0.0633675853309181
4151,-0.10071433926511547
4152,-0.13528712081185149
4153,-0.16253528615089682
4154,-0.18257034343113301
4155,-0.2001051767242136
4156,-0.2224353504237145
4157,-0.2556194317468966
4158,-0.29972012506207335
4159,-0.3454544652289421
4160,-0.37537538278935867
4161,-0.37082046072508257
4162,-0.32141971742938724
4163,-0.23029108402682558
4164,-0.10955190706039927
4165,0.0316952691712638
4166,0.19645695244665629
4167,0.39483481905931833
4168,0.6241605915065671
4169,0.8486247087603715
4170,0.9990619597530499
4171,1.0022437318581139
4172,0.8257803800818617
4173,0.50787490773828
4174,0.14695136695561145
4175,-0.14664792531496063
4176,-0.30638090938497886
4177,-0.3358927951672491
4178,-0.2911373906936393
4179,-0.23570666796162995
4180,-0.20363519971034183
4181,-0.19284351347205086
4182,-0.18516535147062252
4183,-0.16978045054177895
4184,-0.15038663966279905
4185,-0.13561730627539523
4186,-0.12730465571438493
4187,-0.11932876053759077
4188,-0.10601668696590752
4189,-0.08904229460025156
4190,-0.07507559822853183
4191,-0.06769467824788354
4192,-0.06328134122841406
4193,-0.05547998302948298
4194,-0.04281450426173181
4195,-0.030591571148920207
4196,-0.024871806758330887
4197,-0.025351959995721113
4198,-0.025307756382943677
4199,-0.018901575941797137
4200,-0.007880642854653699
4201,-0.0001399930707501459
4202,-0.0013916694483368825
4203,-0.00877792825215434
4204,-0.013419049528188771
4205,-0.009460848013998002
4206,-0.00019715630198135494
4207,0.00523703055573892
4208,0.001275501542515875
4209,-0.008322236945466886
4210,-0.014392641937315095
4211,-0.011957262074500555
4212,-0.005543802591279113
4213,-0.004631748311459999
4214,-0.013746488665450175
4215,-0.027270323612409282
4216,-0.03435044545614008
4217,-0.02915465632399847
4218,-0.016391237630570474
4219,-0.0067516620272273665
4220,-0.006875326054820019
4221,-0.013635050465167012
4222,-0.018009832590320476
4223,-0.014313444962463442
4224,-0.0055717278312535905
4225,-7.326293493356941e-05
4226,-0.0029969507765048274
4227,-0.011605758964715877
4228,-0.01847902821378357
4229,-0.01903109012135442
4230,-0.015519115427082715
4231,-0.013745985075098388
4232,-0.016346376538744555
4233,-0.019955537557295455
4234,-0.019285008924672418
4235,-0.013684490469691555
4236,-0.00891625514687814
4237,-0.011677017659386762
4238,-0.022077807110148468
4239,-0.03195766564668708
4240,-0.03156271556694908
4241,-0.018805256008148016
4242,-0.002254794256608934
4243,0.005504264877295579
4244,-0.0014863333204705458
4245,-0.01748408960926858
4246,-0.0301158279017709
4247,-0.03091284487567157
4248,-0.021809462046860746
4249,-0.012136934743316716
4250,-0.009535326559776002
4251,-0.013490627931742225
4252,-0.017122309841117376
4253,-0.014728325176640421
4254,-0.007394317045995658
4255,-0.0014612313918544056
4256,-0.0019652177004684016
4257,-0.007925072811518222
4258,-0.014035130469322855
4259,-0.016583326094831437
4260,-0.017200909041968145
4261,-0.02053703740049467
4262,-0.0284325431718784
4263,-0.03692291829272497
4264,-0.03955311891593285
4265,-0.03392068603997525
4266,-0.0247940597170564
4267,-0.0203206224161372
4268,-0.024685907926954038
4269,-0.03427193608798437
4270,-0.04111095610006119
4271,-0.04035786825158129
4272,-0.034577174751781334
4273,-0.03076424187290466
4274,-0.03313940100199723
4275,-0.03885217396204413
4276,-0.040789617979708676
4277,-0.03464201427249633
4278,-0.023219781836702404
4279,-0.013812295444993052
4280,-0.011289603624815452
4281,-0.013777566153035534
4282,-0.015034833973981964
4283,-0.010918507723781525
4284,-0.003338927555721419
4285,0.002173615445358275
4286,0.002568981097527158
4287,0.0005815362868914792
4288,0.0017046903972692154
4289,0.00792214213290577
4290,0.014813938633928065
4291,0.015390247370859426
4292,0.007128933120988396
4293,-0.004841154727624843
4294,-0.011931404035414699
4295,-0.009918116352555587
4296,-0.0028744770318909906
4297,0.000734895370703315
4298,-0.0038241510882443376
4299,-0.01298811515091918
4300,-0.018264620391796292
4301,-0.014260610404434158
4302,-0.003647549051137596
4303,0.005571249289691753
4304,0.007595478177252418
4305,0.003722755637990861
4306,1.1128228757634911e-05
4307,0.0004160508329454893
4308,0.0025457838853316156
4309,0.0003664572796093369
4310,-0.008973362883836211
4311,-0.02129367604468393
4312,-0.02865547510236712
4313,-0.026688575304456327
4314,-0.01870590139679682
4315,-0.01243379817489054
4316,-0.012549254602933824
4317,-0.01645859230065123
4318,-0.017544310380375634
4319,-0.012573473981386083
4320,-0.005649074014180892
4321,-0.004434992025039329
4322,-0.01219352958958517
4323,-0.02365337009617691
4324,-0.02923498385392999
4325,-0.02393810831745015
4326,-0.012331202504130976
4327,-0.004552401466223585
4328,-0.006869263727697163
4329,-0.015771102640218047
4330,-0.02136240411837263
4331,-0.01692972476855955
4332,-0.005544832510575937
4333,0.00267100508573802
4334,5.1058169327658325e-05
4335,-0.011416001523845008
4336,-0.022023078108559573
4337,-0.02345887063314418
4338,-0.01631987639339664
4339,-0.008964389532112932
4340,-0.0091322457417506
4341,-0.01665382093307518
4342,-0.02421890342084177
4343,-0.025072691022689136
4344,-0.01974738753342841
4345,-0.015153454535299617
4346,-0.017172962355017037
4347,-0.024411087131715397
4348,-0.029477741652301357
4349,-0.026474871716606754
4350,-0.01706800307110814
4351,-0.008965444700579632
4352,-0.008321779531712151
4353,-0.01372817728362859
4354,-0.017843200281347137
4355,-0.014991383019269045
4356,-0.007031977199786054
4357,-0.0015587954251566512
4358,-0.00424371313243287
4359,-0.013038324934167412
4360,-0.020055019567421124
4361,-0.019209689150977757
4362,-0.011962947106116232
4363,-0.005516037439335297
4364,-0.005482417440958535
4365,-0.010555834281477456
4366,-0.014492966414025666
4367,-0.013153666635985451
4368,-0.00916899303802363
4369,-0.009306993645631565
4370,-0.017189229498245858
4371,-0.028898255347784223
4372,-0.03618403129836918
4373,-0.03427245903524725
4374,-0.026523131009671214
4375,-0.021226594099820615
4376,-0.023644145486952917
4377,-0.03113164269878222
4378,-0.036108279408366716
4379,-0.033832729734195696
4380,-0.02722039809254232
4381,-0.023939100549201085
4382,-0.028687475695170408
4383,-0.038260829013068424
4384,-0.04418237670732342
4385,-0.04027581381590599
4386,-0.027930892357225234
4387,-0.014353922335891889
4388,-0.006003368514944844
4389,-0.003742065471157767
4390,-0.003926659596296188
4391,-0.0034184459251581966
4392,-0.002816470680846084
4393,-0.004646518281450884
4394,-0.008948604093664936
4395,-0.011581605720602375
4396,-0.00761496450962941
4397,0.0034276014836195534
4398,0.016011152071556865
4399,0.0227467324689873
4400,0.02051799279274418
4401,0.012753227865461653
4402,0.005807119846062756
4403,0.0032087339332746998
4404,0.003408332366207149
4405,0.0027771664701591947
4406,0.00012215624464682827
4407,-0.002337914674506922
4408,-0.0023902681589755073
4409,-0.0013604297020299136
4410,-0.003106867148865546
4411,-0.008900467280229477
4412,-0.01380867631196657
4413,-0.009617315683874071
4414,0.007151675577671214
4415,0.029613395066666853
4416,0.04379438871231241
4417,0.03938241117116176
4418,0.018897827993869083
4419,-0.0034044153237776146
4420,-0.012830360648001703
4421,-0.006285008175108377
4422,0.00554128697885359
4423,0.00787647902227294
4424,-0.005120871364284357
4425,-0.02555748808821484
4426,-0.03922658967867054
4427,-0.038226628256853024
4428,-0.02730099545421645
4429,-0.018529082951489632
4430,-0.01981937173680063
4431,-0.028094993583328468
4432,-0.03323091703932926
4433,-0.028485872161041634
4434,-0.017191258619525786
4435,-0.00935749261724978
4436,-0.011732011793245869
4437,-0.021152293875092716
4438,-0.02774412976369954
4439,-0.024849948602729113
4440,-0.01592441995016838
4441,-0.01150451902576742
4442,-0.019038762486156532
4443,-0.035455732549901545
4444,-0.04986505104958543
4445,-0.05399247982046915
4446,-0.05034620047419727
4447,-0.05021181486748996
4448,-0.06346470484879188
4449,-0.09020374177631531
4450,-0.12234333077077356
4451,-0.15322793466382267
4452,-0.18502169930107049
4453,-0.2255879152624102
4454,-0.2772278126330233
4455,-0.3284970786793906
4456,-0.3581588243221767
4457,-0.34865587065119974
4458,-0.29658432675115337
4459,-0.20981414363479686
4460,-0.09398035373797181
4461,0.05720590308984404
4462,0.255050311980535
4463,0.49464840618594363
4464,0.7370429420495677
4465,0.9136808037754458
4466,0.956341261008418
4467,0.835224266709155
4468,0.5795731778683164
4469,0.26619486868329145
4470,-0.01700847323851322
4471,-0.20957039919907874
4472,-0.2972761195428388
4473,-0.304805513395909
4474,-0.27245123761724976
4475,-0.23367253372784336
4476,-0.20465664596993416
4477,-0.18644657786568278
4478,-0.173106449346207
4479,-0.15907823972113114
4480,-0.14261423617946423
4481,-0.12558795621740493
4482,-0.1112313345164337
4483,-0.10135407563628934
4484,-0.09460216834636952
4485,-0.08706183107283551
4486,-0.07516592290057358
4487,-0.058855641487507444
4488,-0.04220070085607192
4489,-0.03049544359943913
4490,-0.026024352702031732
4491,-0.026223806158491236
4492,-0.0260421113427037
4493,-0.022437489519524297
4494,-0.016836075504902244
4495,-0.013229351145866557
4496,-0.01379545530522475
4497,-0.016394549648868748
4498,-0.016492090485736723
4499,-0.01166889543251848
4500,-0.004215519458853374
4501,0.0008939806947297487
4502,0.0007781320583309509
4503,-0.0025296205400140714
4504,-0.00411064793377611
4505,-0.0011736999940533518
4506,0.0038665210921787546
4507,0.005405046767577165
4508,-2.4899583833322067e-05
4509,-0.010209125303942064
4510,-0.0189844901069897
4511,-0.02168918619169362
4512,-0.019175946406740384
4513,-0.016604783382270873
4514,-0.01826804715117178
4515,-0.023507580033729547
4516,-0.027651234081938977
4517,-0.026937598564754594
4518,-0.022481340012032554
4519,-0.01930981869097885
4520,-0.021408001501064887
4521,-0.027689812599787582
4522,-0.032911483517411765
4523,-0.032637361764180334
4524,-0.02734244703436073
4525,-0.02162623824746073
4526,-0.01944415618497948
4527,-0.020270929287170593
4528,-0.020112604075430023
4529,-0.0162524412428137
4530,-0.010681636479393686
4531,-0.008436889369434729
4532,-0.012356302388969249
4533,-0.019663711947436508
4534,-0.024155595051459193
4535,-0.022078427003654987
4536,-0.01583004925287624
4537,-0.011603380698842067
4538,-0.013194971201476079
4539,-0.018228464028961805
4540,-0.02072109064307682
4541,-0.017437044332669047
4542,-0.011439030359799124
4543,-0.008973251808708737
4544,-0.012713003420487527
4545,-0.018394443926098302
4546,-0.018682981753479697
4547,-0.010720948581642782
4548,0.0002721465676654008
4549,0.005364049827374123
4550,0.0003298860208151915
4551,-0.010091555973350336
4552,-0.016509184310390834
4553,-0.013811851043247073
4554,-0.006131280175956506
4555,-0.0029870708405535158
4556,-0.010280754996094963
4557,-0.024747268446563987
4558,-0.0370391604163324
4559,-0.04026972217406835
4560,-0.03578419917454413
4561,-0.030955192437015347
4562,-0.03167910555642614
4563,-0.037134403405775514
4564,-0.04164394445609206
4565,-0.04119967699873448
4566,-0.037752257214088286
4567,-0.037007446870007635
4568,-0.042250137059829815
4569,-0.05066924961756989
4570,-0.05591370046096282
4571,-0.05415983098258865
4572,-0.04746167799525458
4573,-0.041090972511861855
4574,-0.03783695290870407
4575,-0.03535122001183888
4576,-0.02937440868106129
4577,-0.01939435393982611
4578,-0.010471325350144518
