,0
0,-0.0067696040405896985
1,-0.05147472668643513
2,-0.06683062901990007
3,-0.05823004471580051
4,-0.06078162102397615
5,-0.09868624954668101
6,-0.1539215461379428
7,-0.18173418943875125
8,-0.16020657590369708
9,-0.12029860065631096
10,-0.11727187805576686
11,-0.16453661412770532
12,-0.1970683543356256
13,-0.11254262640581558
14,0.1342920142118676
15,0.4669406980260007
16,0.719274151004641
17,0.7494900070715709
18,0.545733759798189
19,0.23527150442132538
20,-0.010675499468902248
21,-0.09719802459332308
22,-0.05508254415316664
23,0.01098920849784802
24,0.019768140385740124
25,-0.029301322384243357
26,-0.07800826836114563
27,-0.07619758623857759
28,-0.02678980653969186
29,0.026316853803139632
30,0.045377971011421825
31,0.03140026417502979
32,0.01514849815040432
33,0.022823202629028323
34,0.053017513425797844
35,0.08398501052505788
36,0.09811739417462505
37,0.09695967351466955
38,0.09457489153214854
39,0.10038836679200258
40,0.11050974775320387
41,0.11422458257282007
42,0.10587608132836682
43,0.08893279726308025
44,0.06968390117059085
45,0.04934799653958016
46,0.023624166394763127
47,-0.010644185775689805
48,-0.04982788144776615
49,-0.0853293943540335
50,-0.11096205328189915
51,-0.12827861133996815
52,-0.14462815437657206
53,-0.1660467535984863
54,-0.1917905337844838
55,-0.21526916248126154
56,-0.2299752478177467
57,-0.23473856368238455
58,-0.23379847709918652
59,-0.2321675993397927
60,-0.23089266272965758
61,-0.22663774897857772
62,-0.21591437239149508
63,-0.19990607908124913
64,-0.18502133209160465
65,-0.17795555297710322
66,-0.17919737135221264
67,-0.1809812394213684
68,-0.17236536522852092
69,-0.1478300938567374
70,-0.11209921937400413
71,-0.07659094855680146
72,-0.0501475386014202
73,-0.03205687575581838
74,-0.01363698558219659
75,0.013016972358832205
76,0.04715601263715949
77,0.07964378207690241
78,0.10099614250865693
79,0.10948904123180961
80,0.11167176810156308
81,0.11505198007736576
82,0.12032485703726699
83,0.1208687900309999
84,0.10998658073671465
85,0.0886714048825239
86,0.0660978035539925
87,0.052122113489172006
88,0.04883938187192135
89,0.049114517018119926
90,0.04327167446080038
91,0.027488197796616605
92,0.006263414665404427
93,-0.012573858172156062
94,-0.024780920196474182
95,-0.03185438459147112
96,-0.03719624418817359
97,-0.04122349500297384
98,-0.04093513770305341
99,-0.0341909185854105
100,-0.023626792698451138
101,-0.015415859316308228
102,-0.013667254874338414
103,-0.01620568476661071
104,-0.016448697114446572
105,-0.009949348743637548
106,0.0008233045272881819
107,0.0084602482277573
108,0.007688528871368479
109,0.0006527245173096972
110,-0.004931125519513486
111,-0.003102818554968651
112,0.004674858680538292
113,0.011108839282264596
114,0.010374137461609562
115,0.0038803064229376064
116,-0.0012410990815992663
117,0.0005722247556436034
118,0.0075468549450267
119,0.012171097484836305
120,0.00866412413139599
121,-0.0010858993470031502
122,-0.009081675120167155
123,-0.008834985432216017
124,-0.0015765784760152553
125,0.00504743198301193
126,0.00448306096233534
127,-0.002435917882150147
128,-0.008559500387531085
129,-0.007675418858742003
130,-0.0006653303691574991
131,0.005523331501561942
132,0.004949881363004158
133,-0.0013514819167160933
134,-0.006471525647767368
135,-0.004631792594195293
136,0.0029637835807694054
137,0.009284687749005151
138,0.008446766309996715
139,0.0015144510241331846
140,-0.004631846740011823
141,-0.004163768683893729
142,0.0019963385157238476
143,0.007317523281317131
144,0.006425737835233554
145,0.0006448171294103159
146,-0.003288823276079174
147,-8.301812710085677e-05
148,0.008553213406094325
149,0.01529379551050183
150,0.014286568277047416
151,0.00700286179943411
152,0.0010190415444397412
153,0.0027944865086829383
154,0.011417643132460544
155,0.01940899529071149
156,0.01983670083864471
157,0.012883638935426867
158,0.005562031828346827
159,0.004940753153833426
160,0.011506280247695861
161,0.01903646030493093
162,0.02092540929049382
163,0.016618459017468987
164,0.011849606414542522
165,0.012614531723661983
166,0.019027903168932894
167,0.025237171265776688
168,0.025417224370079858
169,0.019734698802938915
170,0.014212545429189299
171,0.01460634683190423
172,0.020495132751729678
173,0.025616446956638634
174,0.024170211965785844
175,0.01673376699610201
176,0.009760075394834793
177,0.009101354029855777
178,0.01408537528165181
179,0.018168884022784017
180,0.015547719228066735
181,0.007035053956334825
182,-0.0007780022978370734
183,-0.0022473396447956597
184,0.0015644563423185221
185,0.003999320026021366
186,-0.00031327762440285173
187,-0.009844457677097618
188,-0.017633503289197036
189,-0.018406868850245613
190,-0.014041374599691745
191,-0.01162772986660835
192,-0.015940865999191145
193,-0.024020481305316598
194,-0.027685247574515518
195,-0.021834630585122597
196,-0.010294783405926239
197,-0.0030256596034826688
198,-0.006929546507898555
199,-0.019022576589561944
200,-0.02877150540628238
201,-0.027664841891772103
202,-0.017032243579991453
203,-0.0066829261507795005
204,-0.005678384219728532
205,-0.014039030520239228
206,-0.023174255918590247
207,-0.024358918995812884
208,-0.0169169953829819
209,-0.008307406398853134
210,-0.006369067562142298
211,-0.011588592638038502
212,-0.016996597746339784
213,-0.015579804888881657
214,-0.007635818142006241
215,-0.0006528165288567139
216,-0.0018251528852220524
217,-0.010686337725667185
218,-0.01924108418776919
219,-0.019541871967522384
220,-0.011283873921397864
221,-0.0019858741969224084
222,0.0003477200536347694
223,-0.00518318742316368
224,-0.011929385441094974
225,-0.0126188868525542
226,-0.006594991706206903
227,-0.00014480303663721788
228,0.0002497716593869118
229,-0.005243728894244567
230,-0.009914198664149384
231,-0.007524985180034778
232,0.0008846541178256766
233,0.007468756868525699
234,0.005124448947349364
235,-0.0052579546731192205
236,-0.015121180098965393
237,-0.016032306723619008
238,-0.007461137218860483
239,0.002946352486931045
240,0.006727233653783537
241,0.0023047178613395895
242,-0.004374394633559548
243,-0.006478322834779646
244,-0.0031973735884056158
245,7.777389451394892e-05
246,-0.0018094498631394994
247,-0.007722676664287734
248,-0.011096124473995717
249,-0.006964972648757643
250,0.00220397506233527
251,0.008242699627973193
252,0.005195558659261846
253,-0.004525757505258875
254,-0.012193383499678117
255,-0.01122985866243014
256,-0.0036596952593837325
257,0.0020235357875451206
258,-0.0005053761060758515
259,-0.009018971276874881
260,-0.015154481412132492
261,-0.013201141237567
262,-0.006216664449346222
263,-0.0030560627186161896
264,-0.009198352175372623
265,-0.020739397306448068
266,-0.027844657858518154
267,-0.024352194080773864
268,-0.013879844489255656
269,-0.006250937474962846
270,-0.007820946186096828
271,-0.015399238259730538
272,-0.01972641526552559
273,-0.014800494719631616
274,-0.003642961667236562
275,0.004999907721606457
276,0.005290007216566375
277,-0.0005091098426890636
278,-0.0050704946760295
279,-0.0036162962796805064
280,0.0017023813067074337
281,0.004552327968282269
282,0.0008850720941623245
283,-0.007397329615279542
284,-0.014552651112531704
285,-0.01613072027229963
286,-0.012310329010253723
287,-0.007282769057591793
288,-0.0061275239918593336
289,-0.011691166846277266
290,-0.022909787974043028
291,-0.03518750861958706
292,-0.04325589483044956
293,-0.04561489639388893
294,-0.04708985640688452
295,-0.055667550318181
296,-0.07447350658111233
297,-0.09626535565020751
298,-0.10812746145370468
299,-0.10466702375626598
300,-0.09689980638724702
301,-0.10460887741925265
302,-0.13575471018036328
303,-0.17323233753482276
304,-0.18694240772696535
305,-0.16473384113280543
306,-0.13160649081346756
307,-0.13078198056431045
308,-0.17576404288724762
309,-0.21768201813716687
310,-0.1684797683796014
311,0.026918391357917876
312,0.32709885849978604
313,0.6003382728063451
314,0.7070437796685667
315,0.5978445594921805
316,0.34846405026093324
317,0.10278661730947429
318,-0.02880737311180175
319,-0.03463694073580198
320,0.014845444035413586
321,0.039963406678677045
322,0.014054019598905605
323,-0.03186595497716245
324,-0.05257012671825326
325,-0.03257116558746617
326,0.006933076432830608
327,0.03495668470816293
328,0.03942930444506002
329,0.032015380303708645
330,0.03125453685843206
331,0.04495683430409543
332,0.06727055694295483
333,0.08775147893107467
334,0.09998045367199174
335,0.10284089750918282
336,0.0978260734500282
337,0.08801432967558741
338,0.07850956443014913
339,0.07415553034757189
340,0.07419408309410638
341,0.06979442152746021
342,0.04965836863217943
343,0.010378921102089192
344,-0.0385445507674458
345,-0.08133456166332806
346,-0.10896861396985161
347,-0.12621911278612014
348,-0.14568806565163778
349,-0.17465977633805344
350,-0.20767893938369777
351,-0.231807142986968
352,-0.23879960469020708
353,-0.23202593503302654
354,-0.22197116895889404
355,-0.21583657824387234
356,-0.21203847214725297
357,-0.20447445553695423
358,-0.19112119382075438
359,-0.17755625853612894
360,-0.17185335033714205
361,-0.17632856241681655
362,-0.1845298617101086
363,-0.18625192002699392
364,-0.17546726979475957
365,-0.15380545794042982
366,-0.12720785358982017
367,-0.10001521020521942
368,-0.07242386392754413
369,-0.042967578105029366
370,-0.012387769224561078
371,0.015674064290728124
372,0.03782543730106945
373,0.054272649790852015
374,0.06850035383699503
375,0.08331933670194198
376,0.09723500423950704
377,0.1050062780620034
378,0.10224823656196633
379,0.08992393908784431
380,0.07446641882017453
381,0.06320090843132423
382,0.059003613832508336
383,0.058769647555640216
384,0.056743839573565796
385,0.049438534522957094
386,0.03773846629536081
387,0.024782230989582245
388,0.012315281647507965
389,-0.0005596547985755942
390,-0.015063398915416446
391,-0.02958030304933055
392,-0.03943430579690232
393,-0.04042005274727965
394,-0.032870937380483724
395,-0.022098050483224222
396,-0.014352154246103433
397,-0.011881825125273263
398,-0.011721585122616155
399,-0.009310850276528454
400,-0.0033218861735049747
401,0.00308991265794821
402,0.005748965444770373
403,0.003947910892312008
404,0.0012223609805286787
405,0.001553253052908381
406,0.004993307828105982
407,0.007454910892018014
408,0.005098093801641369
409,-0.0012006787151110877
410,-0.0061758233372555035
411,-0.005317435259780548
412,0.0003153985831734871
413,0.004765238344969627
414,0.0030202673158635715
415,-0.0037474645206202004
416,-0.009049346468241876
417,-0.0075039420923207895
418,-0.00046343683508080844
419,0.005016959170871313
420,0.0031390350649437918
421,-0.004627905560237057
422,-0.010713255874203853
423,-0.008934644824234388
424,-0.0009438365341381281
425,0.004999110438395937
426,0.0020356376577337814
427,-0.008286330677208402
428,-0.017079396285954174
429,-0.016475245122360656
430,-0.007215821999873626
431,0.0019868349981167904
432,0.0027681669828271884
433,-0.00500698969171798
434,-0.013482243542137257
435,-0.014805957626879078
436,-0.008846028152424534
437,-0.0029377826708347704
438,-0.004029483883791979
439,-0.01127838547430007
440,-0.016729955451170182
441,-0.013537404696789684
442,-0.0034289938476534327
443,0.004341804347211588
444,0.001898930661497088
445,-0.009154571691619377
446,-0.01859773991735176
447,-0.016919554399805938
448,-0.0042623164946677065
449,0.009647505028210612
450,0.01454249476378772
451,0.008950079970543173
452,0.0009693086674339756
453,4.254083317385324e-05
454,0.007946128924207473
455,0.017691540359430595
456,0.02101106447897743
457,0.016673609555976618
458,0.011352302590663818
459,0.012463087464692829
460,0.02045238899194213
461,0.028373737428162335
462,0.02905399956108925
463,0.022442337564488626
464,0.015641837540441433
465,0.015638761506171394
466,0.02217238438289472
467,0.027999314624427802
468,0.026251279000716558
469,0.017379767193747342
470,0.008637215039840435
471,0.006662042030519155
472,0.010747640041836993
473,0.01365977312191229
474,0.009166854329904852
475,-0.0014024383250099764
476,-0.010294918008209482
477,-0.011072125109445642
478,-0.005126832950285551
479,-0.00033348396217195125
480,-0.0031288152820346457
481,-0.011999339853638564
482,-0.01899998610478445
483,-0.017854320213952623
484,-0.010503596695041192
485,-0.005433607871115657
486,-0.009310737351794825
487,-0.02020684276745243
488,-0.029205582742417725
489,-0.02889536328555443
490,-0.020413046918860114
491,-0.012132941028612572
492,-0.011379637428919797
493,-0.017425590246791352
494,-0.022664870163965803
495,-0.020633229852079132
496,-0.012711735216206119
497,-0.0067424098955061905
498,-0.008978447978065133
499,-0.017538908488112515
500,-0.024042702834190226
501,-0.021851867498606757
502,-0.01266160875503896
503,-0.004797840304244904
504,-0.004918129392391843
505,-0.011470207171832909
506,-0.01650219257954701
507,-0.013977413434661363
508,-0.006126584886969865
509,-0.0012933384968609437
510,-0.0053250953457232835
511,-0.015190240377338854
512,-0.021432214569465993
513,-0.01728237813850794
514,-0.005508728553785976
515,0.0038431636196853284
516,0.002759389403018779
517,-0.007353747623215403
518,-0.01726988628136654
519,-0.018805777883396532
520,-0.012248651444525017
521,-0.005300128364755714
522,-0.004965840789680512
523,-0.010641599765285486
524,-0.015155858283584695
525,-0.012424852720571493
526,-0.0038516915302060513
527,0.002925911715819849
528,0.0015360476815046303
529,-0.0069891412998242305
530,-0.015507412659480916
531,-0.017980920002647758
532,-0.015192222033180559
533,-0.013224857769742877
534,-0.016452411807548785
535,-0.022433724391860484
536,-0.024184700241312196
537,-0.01769758382186849
538,-0.006991713855700566
539,-0.0011602840769098836
540,-0.005828020403323422
541,-0.017282539095377795
542,-0.025319961856222057
543,-0.022496778070831246
544,-0.01110336980535383
545,-0.0011149888314241462
546,-0.0009254948659336345
547,-0.009610634038962573
548,-0.01804542468953913
549,-0.01773908959840094
550,-0.008912281806757714
551,-0.00018283148231475871
552,-0.00034689755694144466
553,-0.010215684609066513
554,-0.022139488326423505
555,-0.027270870540349636
556,-0.023335135603963143
557,-0.015678944205419848
558,-0.01128308744695468
559,-0.012155959375206107
560,-0.014517001517378694
561,-0.01387662770718269
562,-0.01019682697179888
563,-0.007702068519455461
564,-0.009851060926883483
565,-0.015103447308816433
566,-0.018158124759470016
567,-0.015479178577534688
568,-0.00934481192545475
569,-0.006063257543679984
570,-0.009889289283347834
571,-0.018550670392576026
572,-0.02482487144435843
573,-0.022833341779367286
574,-0.013285380458376378
575,-0.0029255545980934484
576,0.0012440135359576272
577,-0.0022204654264799664
578,-0.00840970091464598
579,-0.010828052097522717
580,-0.007409114357325044
581,-0.002402466724779339
582,-0.0023456037264669204
583,-0.009625572388415443
584,-0.019624508107712803
585,-0.024627407999910745
586,-0.021444899309838717
587,-0.015493288431694119
588,-0.01647851653539797
589,-0.02877337257486741
590,-0.04588651204643798
591,-0.05588121534085949
592,-0.053923410641428866
593,-0.049318931218658324
594,-0.057836123152371716
595,-0.08479478561936339
596,-0.11619597366382294
597,-0.12988296977731234
598,-0.11851160023024139
599,-0.1007877317858841
600,-0.10565430453302573
601,-0.14163198101425412
602,-0.18307791363007442
603,-0.19270735024426794
604,-0.16253032971832249
605,-0.13007600440634898
606,-0.14433902778995616
607,-0.2060134632796251
608,-0.24135861166772588
609,-0.1480515238221292
610,0.11396412244349866
611,0.46408477468356385
612,0.7354760119980482
613,0.7860266952529806
614,0.6000602823028325
615,0.29780810475011477
616,0.04536474057867109
617,-0.06013047853614913
618,-0.039525863900883196
619,0.014101187584050053
620,0.024692185797585642
621,-0.01307424245960681
622,-0.05154612454681426
623,-0.04830331499021484
624,-0.005295188081038163
625,0.041452009439831725
626,0.06125411487921864
627,0.05480435566226796
628,0.04570636641281194
629,0.05306229232441812
630,0.07504646039868043
631,0.09623938112682591
632,0.10579418471015833
633,0.10608220596095072
634,0.10576345982137322
635,0.10829552883046673
636,0.10882322432857716
637,0.10048666718983029
638,0.08096381795530147
639,0.05218188997618663
640,0.015751588060210146
641,-0.02861278509068603
642,-0.07949768517131556
643,-0.1303968451669978
644,-0.17227550685943976
645,-0.2005780936093539
646,-0.21910831374788975
647,-0.2358398138935823
648,-0.25441331935746514
649,-0.27015254499876873
650,-0.27505103944239984
651,-0.2668219340376854
652,-0.25266387147211267
653,-0.2435949466493233
654,-0.24470055914598124
655,-0.2507520107321786
656,-0.25133452257123845
657,-0.24035101954044136
658,-0.2207472264071764
659,-0.20026774091754362
660,-0.1828697110290386
661,-0.16444493148058664
662,-0.13703623444801005
663,-0.09734324333439136
664,-0.05115422770530687
665,-0.00930399274402637
666,0.021084161019523845
667,0.0418029266228103
668,0.060357014056133286
669,0.08154817924777542
670,0.10203963063612138
671,0.11322632983428643
672,0.10971060479259981
673,0.09517859532332587
674,0.07985182876283337
675,0.07176464918163053
676,0.07012317495932409
677,0.06704334385758356
678,0.05584572708617955
679,0.037707856531660595
680,0.020173598939779196
681,0.00921152390911813
682,0.0030830262056395948
683,-0.005453495047537706
684,-0.020576894311164197
685,-0.03725865600048058
686,-0.044398334559479745
687,-0.035002275686567746
688,-0.013790902978886861
689,0.005529026901115173
690,0.011462110838017438
691,0.004336141876558019
692,-0.0044587769757125
693,-0.0027713848943217204
694,0.012038102067530105
695,0.03195759875239793
696,0.04645227378994595
697,0.05143010541391663
698,0.05065289630378307
699,0.049348753298689395
700,0.04756599311794206
701,0.04046384727447758
702,0.0249560425479634
703,0.00516659189812586
704,-0.009718273364412968
705,-0.013578149976758418
706,-0.009266532972937471
707,-0.0059501618832574965
708,-0.010135960673220212
709,-0.019269153570255576
710,-0.024504558169017997
711,-0.020104128085492008
712,-0.01004372639747449
713,-0.00490359183225963
714,-0.011723921180197643
715,-0.026710920032805393
716,-0.038155123275046866
717,-0.03698528201144196
718,-0.02482665369214914
719,-0.011828551681298318
720,-0.006583396719466544
721,-0.008209462634842709
722,-0.008380165123669334
723,-0.0010188852197715857
724,0.010387341672197795
725,0.015544761930214437
726,0.007684882669463877
727,-0.008850025824871904
728,-0.021639044605481578
729,-0.02128807792081759
730,-0.009987089447530285
731,0.0007810208317183174
732,0.001181542826059946
733,-0.007935967157568717
734,-0.01648653576171788
735,-0.015370096089687386
736,-0.005301615404926335
737,0.0042946737915486935
738,0.004962910358618964
739,-0.0022416353339583996
740,-0.007711092088473734
741,-0.0026363906628167223
742,0.01249736951740613
743,0.028423297562914097
744,0.035791247805386756
745,0.03339750995791908
746,0.028181480569718746
747,0.027604535450055485
748,0.032370853640421096
749,0.036600976843451254
750,0.03474104205914325
751,0.027763372674279682
752,0.022257439200886152
753,0.02349871886197019
754,0.02976806593662996
755,0.033847194484512885
756,0.030236933924030367
757,0.020790601324619122
758,0.013031473849695194
759,0.012785577530942421
760,0.018464142610860698
761,0.022663854431266214
762,0.01943234419487872
763,0.009922160231479956
764,0.0008365332032776735
765,-0.0026607098789025816
766,-0.0023193713963773166
767,-0.004902012554580573
768,-0.014760669384944906
769,-0.028323953127856155
770,-0.03629697050444386
771,-0.03192736311129778
772,-0.017652792759157772
773,-0.003732035276759759
774,9.028252755358774e-05
775,-0.007656577653981081
776,-0.019885984554721244
777,-0.02796805880121673
778,-0.029181083267979226
779,-0.027769337630731354
780,-0.02925863265723668
781,-0.034160339368109936
782,-0.03741156126264597
783,-0.033867748219934816
784,-0.02402902069610028
785,-0.014046003705262034
786,-0.009933761612257855
787,-0.011822833986924585
788,-0.014040850869718458
789,-0.010922887255081656
790,-0.0024887353113454344
791,0.005666593687285192
792,0.007994778629770789
793,0.004276807318177681
794,-0.0008092017447327738
795,-0.003187748678412675
796,-0.00397078255305249
797,-0.008067525244302931
798,-0.01807952892112899
799,-0.02995081888600565
800,-0.035424841032139734
801,-0.029529358518643585
802,-0.015924117025079756
803,-0.0045945340159595505
804,-0.00363244532903936
805,-0.012593908593059224
806,-0.02346166881957203
807,-0.028008045333151092
808,-0.024479936625342834
809,-0.017665838216574886
810,-0.013146808647797607
811,-0.011990370421663154
812,-0.011011923979785372
813,-0.007550014330902979
814,-0.003072403756689583
815,-0.0015693265260500657
816,-0.004632807627886721
817,-0.008909574023097375
818,-0.009150066346310754
819,-0.003939779247830599
820,0.0020423151686877208
821,0.0021067320287112444
822,-0.005749545876719848
823,-0.01631351351795896
824,-0.021695929184772395
825,-0.0187511542739427
826,-0.012071444692717113
827,-0.0094436016243618
828,-0.014125458325524583
829,-0.02157693336559543
830,-0.023979638527333362
831,-0.018172555131452474
832,-0.009158031867837754
833,-0.005591124813648908
834,-0.011512128569161038
835,-0.022311281608237653
836,-0.02886975745212316
837,-0.025955798957032553
838,-0.016906097141515197
839,-0.010240082684868264
840,-0.011548680747239307
841,-0.01836298819601178
842,-0.02270982370664998
843,-0.01875741358249113
844,-0.008335150910426019
845,0.0006496796311741479
846,0.0011795060497971689
847,-0.007004963400570714
848,-0.01771707384852905
849,-0.024014134274840965
850,-0.023753982700227865
851,-0.02016717926304048
852,-0.017615975010358588
853,-0.017152772376443214
854,-0.016245313482893715
855,-0.0125737638389401
856,-0.007580222993321071
857,-0.005640918591227825
858,-0.009268372558891956
859,-0.01524681693722859
860,-0.016382792672773188
861,-0.00826150296894135
862,0.0051564383066858765
863,0.013297358728437379
864,0.00782436687889458
865,-0.009055630333873839
866,-0.025201757445769267
867,-0.02870122707911786
868,-0.018696823019813978
869,-0.006310163330322196
870,-0.004065350189448709
871,-0.013792176681406094
872,-0.02527540174580457
873,-0.02747521802052942
874,-0.02086205551714115
875,-0.01741403754328618
876,-0.02744534709415665
877,-0.04715939766578938
878,-0.06134977637012296
879,-0.05982675114177426
880,-0.05010505566612495
881,-0.051051431348370264
882,-0.0723686967863798
883,-0.10197800144342056
884,-0.11718065250751522
885,-0.10986971045423076
886,-0.09810381747980657
887,-0.10817905402802308
888,-0.14370567276488486
889,-0.1765105995351884
890,-0.1746219758112509
891,-0.14129493271160354
892,-0.12001601016928987
893,-0.14991335568157144
894,-0.20993706842054283
895,-0.2129312222615325
896,-0.07134974609169097
897,0.21421252946738886
898,0.5258153601269795
899,0.697201945949624
900,0.6335479243380242
901,0.38397575201154455
902,0.10454191209709161
903,-0.058031158509759054
904,-0.06536842942538415
905,0.00799041332589382
906,0.05684893255849839
907,0.035250803402485924
908,-0.02128206975466665
909,-0.04768670008672601
910,-0.01656020585462696
911,0.042184753316554816
912,0.0788420997176551
913,0.07420645955489436
914,0.05320211710116715
915,0.05422295613912838
916,0.08958556201122733
917,0.13609096537226978
918,0.1608232166595407
919,0.153081695734833
920,0.13121569025879198
921,0.12088523716341008
922,0.12878342489564704
923,0.13724793283238046
924,0.12255735954113932
925,0.07729919585843409
926,0.01578463128261246
927,-0.040377295403439935
928,-0.08098026612456401
929,-0.11277729043595341
930,-0.14873676335012237
931,-0.1931508683980232
932,-0.23703774390519117
933,-0.26703445449289903
934,-0.2780382850803482
935,-0.27729357118112175
936,-0.27678815531028667
937,-0.2821419556268964
938,-0.2888412191713955
939,-0.28875933870909626
940,-0.27961515329050346
941,-0.26745803395607526
942,-0.2596955692607852
943,-0.2560037997354646
944,-0.24681535667696103
945,-0.22156409541647015
946,-0.17895328564074686
947,-0.1291504806004768
948,-0.08548873394910149
949,-0.053445063749069634
950,-0.027293392272600997
951,0.0026813728430856196
952,0.03969607266254597
953,0.07683476947123646
954,0.10334613725315521
955,0.11427153705359037
956,0.11405618224851055
957,0.11128691038112519
958,0.11050047104796204
959,0.10928502547962793
960,0.10284463048899728
961,0.09045312793123053
962,0.07673542488445272
963,0.06662326638452162
964,0.05966737061093852
965,0.050028709503580085
966,0.03244996287330311
967,0.008222261971474545
968,-0.014917481673089764
969,-0.02894533880015538
970,-0.031811464266913836
971,-0.027996645958594083
972,-0.023402054408395892
973,-0.02006187331117907
974,-0.015804198145682995
975,-0.008501500384272134
976,0.0001888656568945551
977,0.0058291933908605365
978,0.005825866334845211
979,0.0024860874921543963
980,0.0009029994366764745
981,0.0036461155884160087
982,0.007871550257174127
983,0.00816522500443283
984,0.002416906428045717
985,-0.005419785374536022
986,-0.00888240556085328
987,-0.005533495083064491
988,0.0002510600563318331
989,0.0014426815493649736
990,-0.004427482291127679
991,-0.012324913544624113
992,-0.014338200106191825
993,-0.007532687159153195
994,0.002818619085340245
995,0.008058969098739882
996,0.0043809214411847635
997,-0.0037266065972965208
998,-0.008272815537840792
999,-0.005917698899524619
1000,-0.0011622034055070582
1001,-0.0013298703788683095
1002,-0.008560675631317939
1003,-0.017180929813474112
1004,-0.019304985713898125
1005,-0.012966331183896632
1006,-0.0043267539120445606
1007,-0.0015264549170310388
1008,-0.0063981260305285385
1009,-0.012609257894141874
1010,-0.012280033108050564
1011,-0.004367664832793643
1012,0.0038502647002540075
1013,0.003895478745096531
1014,-0.005313360201256085
1015,-0.01614300490913457
1016,-0.01965675623218874
1017,-0.01435673213380793
1018,-0.007484125351382223
1019,-0.007604181044756804
1020,-0.015962195762355445
1021,-0.02525157109279505
1022,-0.02689328138197561
1023,-0.019398911185287825
1024,-0.009480029641764764
1025,-0.005049962748231649
1026,-0.007419334133210578
1027,-0.01056500756785072
1028,-0.007934871617953088
1029,0.0004573069383447385
1030,0.008035924192842787
1031,0.008708914839652644
1032,0.003583363615768744
1033,0.0002953126577817333
1034,0.005482853193797665
1035,0.01800692071199328
1036,0.029862703066151536
1037,0.03399250396536152
1038,0.031245013458423045
1039,0.029554007023509694
1040,0.036163011916858424
1041,0.05057705166507133
1042,0.06504361135266035
1043,0.07177219590446951
1044,0.06953170033060192
1045,0.06327386675965188
1046,0.0577920206221234
1047,0.05248115880060704
1048,0.042818709054618306
1049,0.026829711257484304
1050,0.009262579251882612
1051,-0.0016334753690076193
1052,-0.0020493222921929904
1053,0.002792063891690065
1054,0.002659867052816206
1055,-0.008262786043507572
1056,-0.025495628996143858
1057,-0.03785899662101257
1058,-0.03747169051231555
1059,-0.02681176168599501
1060,-0.016230553794302452
1061,-0.014426453894699817
1062,-0.02100017159637048
1063,-0.027930564266238654
1064,-0.028015010131354615
1065,-0.0217355185563406
1066,-0.016000482019226544
1067,-0.01653595858972451
1068,-0.02192736096150147
1069,-0.025320631473134726
1070,-0.02181690525437703
1071,-0.013807864095094748
1072,-0.008703524222347162
1073,-0.011348774710677235
1074,-0.01889201136744789
1075,-0.023425238676396606
1076,-0.019852566363852294
1077,-0.011106780983206808
1078,-0.005403701090135613
1079,-0.008141508840438634
1080,-0.01642105482246136
1081,-0.021644245104296363
1082,-0.01773830079667483
1083,-0.007055841792167552
1084,0.0017235247393040866
1085,0.0016181453101861963
1086,-0.0063972800568730444
1087,-0.014705002295338776
1088,-0.01635848901173469
1089,-0.011231781861507126
1090,-0.005335274504949407
1091,-0.004479037398347197
1092,-0.008802420979782271
1093,-0.013399855838658523
1094,-0.013928882139184282
1095,-0.011170297557177744
1096,-0.009857994493629047
1097,-0.013151438867250256
1098,-0.018650942985288452
1099,-0.020278093755193516
1100,-0.014307675663277546
1101,-0.00349143273775941
1102,0.005013088885914069
1103,0.006048685921764135
1104,0.0009836080650220524
1105,-0.00403683044007562
1106,-0.0042950993734987295
1107,-0.0009538816668076347
1108,0.0006270923637255431
1109,-0.003127098872431979
1110,-0.009925891327083422
1111,-0.013718942559834003
1112,-0.010955016662219966
1113,-0.00459901334911786
1114,-0.0015903557275689325
1115,-0.005995531190647017
1116,-0.014622460173734033
1117,-0.01968883938078981
1118,-0.016244987295972874
1119,-0.007206343441794654
1120,-0.0009443577388955733
1121,-0.003529395773893505
1122,-0.012979542002076726
1123,-0.021049371070314096
1124,-0.0208849236439276
1125,-0.01325822036692077
1126,-0.005525123111997975
1127,-0.004500403581642554
1128,-0.010222965445504283
1129,-0.01650844450776231
1130,-0.017428788362362006
1131,-0.013124436718258206
1132,-0.009237280050627843
1133,-0.010748272907590985
1134,-0.016590458509621937
1135,-0.020547401031542623
1136,-0.01755549701130863
1137,-0.00902751318906938
1138,-0.0017314703338405521
1139,-0.001219417264402986
1140,-0.006362921134582573
1141,-0.010579470988706409
1142,-0.008653258312181774
1143,-0.002278438945121676
1144,0.001497179172622193
1145,-0.002346927036370484
1146,-0.011032550484727642
1147,-0.016064481219914706
1148,-0.011622683592637122
1149,-0.0009665963254268694
1150,0.006042672143772065
1151,0.002444001633421197
1152,-0.008670351644943322
1153,-0.016964254282314954
1154,-0.015287015716260288
1155,-0.007136773454843162
1156,-0.0030409792227118378
1157,-0.009181487831874207
1158,-0.02031938931085168
1159,-0.025226040563201442
1160,-0.019475245760125895
1161,-0.011610889049113683
1162,-0.014846060372747584
1163,-0.03224779905466979
1164,-0.051850996550520854
1165,-0.05866582934254656
1166,-0.05178246407828259
1167,-0.04727056458567507
1168,-0.06154101257473494
1169,-0.09195346577062206
1170,-0.11705901058062748
1171,-0.11905616969015764
1172,-0.10526577985138909
1173,-0.1029962322948535
1174,-0.12956043402154305
1175,-0.16906925043238835
1176,-0.18529407345488882
1177,-0.1624001115383597
1178,-0.130046775333539
1179,-0.137717340087313
1180,-0.19427892038999922
1181,-0.2333402865974396
1182,-0.15206783436971202
1183,0.09627079150044236
1184,0.43596791929221845
1185,0.6984334222324927
1186,0.7371637469752549
1187,0.53796914386206
1188,0.2312593362817607
1189,-0.005789046594685099
1190,-0.07589744530854999
1191,-0.014473023412625456
1192,0.06584424506037274
1193,0.07980799114252934
1194,0.030216459199216006
1195,-0.018145940069886998
1196,-0.01258695375414803
1197,0.039962927359112436
1198,0.09016868550514481
1199,0.1007283599175614
1200,0.08021550780267929
1201,0.06703508035221006
1202,0.08639529166733542
1203,0.12605656168922388
1204,0.15215634726376384
1205,0.14450549395784823
1206,0.11428257313378246
1207,0.0887990231762743
1208,0.08207031564753563
1209,0.08168314465739629
1210,0.06317720307989683
1211,0.01522857043372777
1212,-0.04970630619293531
1213,-0.10797538581139335
1214,-0.146232246877408
1215,-0.1707798104559093
1216,-0.19754176568329718
1217,-0.2343788521205874
1218,-0.2732042232161933
1219,-0.2982465551212813
1220,-0.30119284085215686
1221,-0.2886422908527462
1222,-0.2758272760888796
1223,-0.273504104458958
1224,-0.2801595617710217
1225,-0.2855205512277456
1226,-0.2806628865989461
1227,-0.2648292019301046
1228,-0.2433729405530601
1229,-0.22015564757292921
1230,-0.19268526632049437
1231,-0.15500555637304952
1232,-0.10535997760846869
1233,-0.05071045086675875
1234,-0.0030200873860622736
1235,0.029832369251220847
1236,0.05012332197429982
1237,0.06733811596677258
1238,0.08855364460529239
1239,0.11104257635961012
1240,0.12431353808369758
1241,0.12008870627949345
1242,0.10102475999082332
1243,0.0797697272242727
1244,0.06881336961842077
1245,0.07029421855353873
1246,0.07509888320330393
1247,0.07188905424172153
1248,0.05738978132579035
1249,0.038352880475206755
1250,0.023938381920889505
1251,0.01660469850237544
1252,0.01071667917312121
1253,-6.0446717952537506e-05
1254,-0.014625910035195689
1255,-0.024400910491727504
1256,-0.021824368829579156
1257,-0.008810411929503915
1258,0.0037590594436860184
1259,0.005574170378097945
1260,-0.0036409270247067345
1261,-0.014018145145956055
1262,-0.014947973561962102
1263,-0.004877545803181928
1264,0.0078034190826109144
1265,0.013161101178606926
1266,0.008799480210396315
1267,0.0008993690057702358
1268,-0.003037223622870211
1269,-0.0017738727336940206
1270,-0.0005691465940332237
1271,-0.004417106654796839
1272,-0.011910709929391937
1273,-0.016360792069790166
1274,-0.012920114238003426
1275,-0.00407792762370871
1276,0.002382454116989081
1277,0.0009751042964694279
1278,-0.006121938177377964
1279,-0.011421159550511985
1280,-0.009789713196227262
1281,-0.0036253959328747584
1282,-0.0003292789210015785
1283,-0.004686224420913581
1284,-0.013863292820797887
1285,-0.020036036761377975
1286,-0.01799037017111283
1287,-0.010142454811173839
1288,-0.004079199634164654
1289,-0.005158574135125731
1290,-0.011495348448246553
1291,-0.01615727618135472
1292,-0.014229555734989213
1293,-0.007691481541729972
1294,-0.00333574116803061
1295,-0.005872131220742068
1296,-0.013061972681665979
1297,-0.017681859579615405
1298,-0.014408526915786722
1299,-0.004936272299925119
1300,0.003597895272903116
1301,0.005287346755800991
1302,0.0007425729996330068
1303,-0.004022241187917455
1304,-0.003793353454422814
1305,0.0007994656435404912
1306,0.004372178480048923
1307,0.002779968353937186
1308,-0.0021573325056962883
1309,-0.004114330883928867
1310,0.0014217421809624706
1311,0.012297593090709581
1312,0.021315173286154017
1313,0.022920454396325122
1314,0.018414759999509523
1315,0.014499177951047432
1316,0.016562544154971368
1317,0.023392933772208205
1318,0.028593424215171664
1319,0.027249053309336135
1320,0.021078965838437515
1321,0.016817298495915477
1322,0.019422210230688797
1323,0.026986547211387955
1324,0.03253446990265803
1325,0.030909948662877832
1326,0.02378334939725131
1327,0.01771764562040789
1328,0.017321485453413672
1329,0.02054415242196639
1330,0.020973834020460005
1331,0.014793110720624295
1332,0.005188337411996534
1333,-0.00048195699798910695
1334,0.0019321210419516528
1335,0.008893675940006111
1336,0.012287181537877966
1337,0.0072101271079181226
1338,-0.0032328187113785387
1339,-0.010932156229996255
1340,-0.010658470471324902
1341,-0.00506208144543348
1342,-0.0018752344466794718
1343,-0.0061339517473695026
1344,-0.01515833517018244
1345,-0.021268407346489986
1346,-0.019521474496541378
1347,-0.012763520193560394
1348,-0.008924174879435691
1349,-0.013149559517883116
1350,-0.02250511879525416
1351,-0.028533073098754684
1352,-0.025296801018934903
1353,-0.015155955750505816
1354,-0.006651753145512123
1355,-0.006481466286621843
1356,-0.013248943589630193
1357,-0.018977005802891956
1358,-0.01690278995105674
1359,-0.008050920430452566
1360,-0.0002839626657898533
1361,-0.0007848743162296668
1362,-0.009233125562224016
1363,-0.01822808825387705
1364,-0.02049393067672742
1365,-0.015856132501980882
1366,-0.011230283657199183
1367,-0.013665797063298419
1368,-0.023250994397046067
1369,-0.03283960119877334
1370,-0.034919891544441445
1371,-0.028944289106172014
1372,-0.02190634806961489
1373,-0.021481577808037635
1374,-0.0283368691893892
1375,-0.03514284761493171
1376,-0.033407575932220164
1377,-0.02166387079740401
1378,-0.007167953434015306
1379,0.0005238669149636313
1380,-0.00203921386574023
1381,-0.009736244086247165
1382,-0.014379548573866361
1383,-0.012506131919127236
1384,-0.007814050685583981
1385,-0.006217698944086216
1386,-0.008949029929840507
1387,-0.0109230608036319
1388,-0.005999306751230109
1389,0.006408305225846683
1390,0.020311910917314373
1391,0.028834961770266093
1392,0.030703131464064583
1393,0.030745245247104702
1394,0.03385268538112059
1395,0.03881162669385452
1396,0.03878623833616538
1397,0.028401757085259376
1398,0.010288288379055339
1399,-0.00596382976210819
1400,-0.012013888793468337
1401,-0.008326978917299471
1402,-0.0035628248521729603
1403,-0.006217960811072534
1404,-0.016628345314375955
1405,-0.027102057018295045
1406,-0.029854780637287207
1407,-0.02469473680296926
1408,-0.018829013397770253
1409,-0.01925351319106298
1410,-0.025674922227970097
1411,-0.0311880329327996
1412,-0.029824346598415572
1413,-0.022988609533434023
1414,-0.018022318764403116
1415,-0.02038000680989533
1416,-0.02761319566738244
1417,-0.03155542737631381
1418,-0.026624176487859683
1419,-0.0157602481349094
1420,-0.007838662478346421
1421,-0.009049232636015354
1422,-0.01686437092301015
1423,-0.02255943326116475
1424,-0.019634876578156622
1425,-0.009748971812891204
1426,-0.0005838858918258086
1427,0.0017471094351805584
1428,-0.0019464960221187238
1429,-0.0056499439813606
1430,-0.00444348700125401
1431,0.0011798578949520407
1432,0.006694541219509845
1433,0.00830054703921181
1434,0.006007568598799758
1435,0.0027031614914635738
1436,0.0011734174088020917
1437,0.00220529436966867
1438,0.0046244842339662785
1439,0.006050640253216603
1440,0.003675348013264813
1441,-0.004298370967349758
1442,-0.01668753086399173
1443,-0.029140709578143423
1444,-0.03768833584353677
1445,-0.04369906613464052
1446,-0.05432424094458213
1447,-0.07562246222277952
1448,-0.10417445916370399
1449,-0.12752749427046486
1450,-0.13643628708474903
1451,-0.13780619389634935
1452,-0.15229680990214878
1453,-0.19409590314911276
1454,-0.2515077254935027
1455,-0.29208777441491
1456,-0.29408196240881035
1457,-0.2751856580349512
1458,-0.28370332417393784
1459,-0.3496575332756795
1460,-0.43765388769803026
1461,-0.45348304209440377
1462,-0.31385716360630656
1463,-0.027074525305404214
1464,0.2888581155342865
1465,0.4776873239670425
1466,0.45535122460866156
1467,0.2704784969627291
1468,0.0652758657042
1469,-0.02908672726476435
1470,0.02452674827895791
1471,0.17024247433387313
1472,0.3295786322115126
1473,0.46950873316763003
1474,0.6091746213865561
1475,0.7707089788571062
1476,0.931392528103142
1477,1.026591178611021
1478,0.999038404107246
1479,0.8455965786112912
1480,0.6186162823398411
1481,0.38444649473978215
1482,0.17964439023485995
1483,0.0016655393861050053
1484,-0.16562138705145385
1485,-0.3221227756389207
1486,-0.4458681615154001
1487,-0.5124500478453268
1488,-0.5172432884065332
1489,-0.4795483364088085
1490,-0.42774854224899683
1491,-0.3811220482766704
1492,-0.3430886716919039
1493,-0.30746300146796746
1494,-0.26860196665446645
1495,-0.22659847425681467
1496,-0.18592412859109864
1497,-0.1513628062995146
1498,-0.12498282328864234
1499,-0.10525689536052749
1500,-0.08808427363008528
1501,-0.06944412616028461
1502,-0.04863044768695183
1503,-0.029541307793913892
1504,-0.01792309917470634
1505,-0.0159512850869489
1506,-0.0190091978660342
1507,-0.018578216027210118
1508,-0.009528818833101388
1509,0.004865993296422753
1510,0.015523952440654618
1511,0.015921237208552458
1512,0.00837533130834783
1513,0.00193947955434417
1514,0.0036887639393518136
1515,0.011832090200615653
1516,0.01745627552419181
1517,0.013225644706503531
1518,0.0004882871181787487
1519,-0.012098706342202694
1520,-0.016825083437135596
1521,-0.013750070567861376
1522,-0.00954340688375787
1523,-0.010054811375589608
1524,-0.014541003058367953
1525,-0.017384944949246264
1526,-0.015098418848192111
1527,-0.010847129253504957
1528,-0.011434986286047475
1529,-0.019778205408463416
1530,-0.03090418870992306
1531,-0.03610433244244378
1532,-0.03143299971845544
1533,-0.021964523409761683
1534,-0.01718341003727013
1535,-0.021775222711573592
1536,-0.030930050708169995
1537,-0.03501327906743572
1538,-0.029183944338964013
1539,-0.018491329742523672
1540,-0.01329955101522547
1541,-0.0193924405327171
1542,-0.032385432793339004
1543,-0.04186459418827798
1544,-0.04115122344135337
1545,-0.03318493083989672
1546,-0.02702315430521525
1547,-0.028771887523261583
1548,-0.03606879647083723
1549,-0.04134886697783881
1550,-0.0401338567091771
1551,-0.035641960252155415
1552,-0.03503144067874284
1553,-0.04134123128115136
1554,-0.04967249388363336
1555,-0.051794168506105485
1556,-0.04463076359328731
1557,-0.03394845452454938
1558,-0.029268617417469726
1559,-0.03486771289449203
1560,-0.045730895064688706
1561,-0.05245299658229639
1562,-0.050226391367874254
1563,-0.04309210306558091
1564,-0.03945005116647216
1565,-0.043501550073434446
1566,-0.05115402086640109
1567,-0.05425965204511802
1568,-0.04873491618389396
1569,-0.03845690341889886
1570,-0.0312971006691024
1571,-0.03151639198100013
1572,-0.0361095833694971
1573,-0.03842471302026648
1574,-0.035046568607769245
1575,-0.02892490243123254
1576,-0.025826550459307568
1577,-0.028008593884793206
1578,-0.03164918823079815
1579,-0.03058048136196299
1580,-0.022467381707158028
1581,-0.01121112915984775
1582,-0.003232333642666499
1583,-0.0013795188500990703
1584,-0.0024584060347645972
1585,-0.0007038705012962782
1586,0.006319164209508318
1587,0.015174250814448929
1588,0.019789275251005337
1589,0.017281713231116755
1590,0.010769834683826762
1591,0.006538886667189676
1592,0.008309667557759644
1593,0.013998717555002718
1594,0.01787880292040938
1595,0.01594370353357824
1596,0.009411100131480755
1597,0.003252720332787571
1598,0.0014084397306300036
1599,0.003342265317424697
1600,0.005074711431865758
1601,0.0033929140096691087
1602,-0.0010570502589187856
1603,-0.004786459718495832
1604,-0.005348860811387426
1605,-0.00394930486842612
1606,-0.003990625211589198
1607,-0.007057430383325623
1608,-0.010687108427089378
1609,-0.010631028770204075
1610,-0.005623857071608888
1611,0.00030991503070049685
1612,0.0009538708612160562
1613,-0.006053120883993845
1614,-0.016120538668004142
1615,-0.021163330461453057
1616,-0.016958671164966167
1617,-0.007539767351074655
1618,-0.0020507486208915034
1619,-0.006511834599974987
1620,-0.018063372275020896
1621,-0.027282741658006177
1622,-0.02665251163692905
1623,-0.017313629716454455
1624,-0.007734163170675476
1625,-0.00561189851593373
1626,-0.01083048717497169
1627,-0.016221083400968478
1628,-0.015207880871222995
1629,-0.008646684698910709
1630,-0.004002408835817448
1631,-0.007675999009668971
1632,-0.018187113454869595
1633,-0.027146797209720436
1634,-0.02721324526452861
1635,-0.01920436134426306
1636,-0.011286142406788059
1637,-0.010991139465163138
1638,-0.017959076829703248
1639,-0.024582864811011518
1640,-0.023854754184706124
1641,-0.016511332182675836
1642,-0.010289501573186569
1643,-0.012038128137038655
1644,-0.020638489523241953
1645,-0.027918332337584187
1646,-0.026733056327904518
1647,-0.018152430163099746
1648,-0.010512355322294878
1649,-0.011189084865881996
1650,-0.019243067333321477
1651,-0.02626000462879616
1652,-0.024588266539621314
1653,-0.014842808449433035
1654,-0.005308997161802408
1655,-0.003931284899398219
1656,-0.010847957262361633
1657,-0.01872252246924337
1658,-0.020254313449592533
1659,-0.015184197523568126
1660,-0.0098793552349283
1661,-0.010251857607173065
1662,-0.0154885652820565
1663,-0.019065600760000405
1664,-0.01591781648728323
1665,-0.008243017609153499
1666,-0.003768115106144241
1667,-0.008015802712078343
1668,-0.018338277676194566
1669,-0.02587798469866604
1670,-0.023748264451626706
1671,-0.013495663028345456
1672,-0.0035600366443353237
1673,-0.0013218826784135444
1674,-0.0065482497010669
1675,-0.012471630376138906
1676,-0.013053092836157314
1677,-0.008939618869179662
1678,-0.0062049864444203955
1679,-0.009427143179385733
1680,-0.016402140142961926
1681,-0.020048831676186166
1682,-0.015648435997570098
1683,-0.0060245307617954515
1684,0.0007714874188852658
1685,-0.000821284828452876
1686,-0.008380417945975525
1687,-0.01380549848934673
1688,-0.011304444374309403
1689,-0.003238804837063297
1690,0.0019995420408926946
1691,-0.0018975635566039083
1692,-0.012966403986801444
1693,-0.022798448771452564
1694,-0.02461604022839267
1695,-0.019669379485429336
1696,-0.015674817529676806
1697,-0.018894711814193787
1698,-0.027782411815851206
1699,-0.03456034421008258
1700,-0.03314138743323474
1701,-0.025371616032076633
1702,-0.019188766844872678
1703,-0.020456461101324916
1704,-0.02675816025856828
1705,-0.029610649377304822
1706,-0.023053174378607787
1707,-0.009963775165720064
1708,0.00040468375171869367
1709,0.0012990087281309114
1710,-0.005192882524045206
1711,-0.010702523021506144
1712,-0.009249547306624514
1713,-0.002973691184440232
1714,0.000893026067396243
1715,-0.0016716015680553978
1716,-0.006897824967629849
1717,-0.007199952208188256
1718,0.000737032638963546
1719,0.012521789236363951
1720,0.020732301558386734
1721,0.0222199983964992
1722,0.01996587632322913
1723,0.017955512406026615
1724,0.015593765985178068
1725,0.008397395278196015
1726,-0.0060958154629430945
1727,-0.02470925415441701
1728,-0.041971057538544035
1729,-0.05623136042850979
1730,-0.07051272344923191
1731,-0.08665119994611323
1732,-0.10067115799134879
1733,-0.10710659162865083
1734,-0.10859156083047031
1735,-0.11775825730114892
1736,-0.14478003858574817
1737,-0.18172481976762697
1738,-0.20377482196976943
1739,-0.1927462652313818
1740,-0.1615442415977123
1741,-0.1489988251680558
1742,-0.17955401345019173
1743,-0.22193572046450866
1744,-0.19370379002792573
1745,-0.023314634343735423
1746,0.27532652030759713
1747,0.5842678927710088
1748,0.7478954729091536
1749,0.6803336185557749
1750,0.42891703681569215
1751,0.14057072958599393
1752,-0.04257763779202448
1753,-0.07470003523207328
1754,-0.016215008469326476
1755,0.03494831006260253
1756,0.02514179852945292
1757,-0.026618740510237042
1758,-0.06527621000707126
1759,-0.057000504377685765
1760,-0.01431376706197431
1761,0.02509844312822193
1762,0.03674602873264979
1763,0.02707502533501458
1764,0.01971590663590365
1765,0.030120687178747597
1766,0.0541404198623463
1767,0.07703760434362432
1768,0.08908136627017214
1769,0.09165131424185163
1770,0.09127765672119692
1771,0.09121531962614711
1772,0.08942226424251393
1773,0.08243385548165272
1774,0.06866572288570369
1775,0.047622282439641006
1776,0.01780536651877485
1777,-0.022406419268224904
1778,-0.07112539384586009
1779,-0.12107497085382077
1780,-0.16268181296914147
1781,-0.1900714327610067
1782,-0.20468331698343945
1783,-0.2134534175382775
1784,-0.22346675321257603
1785,-0.23750245190274658
1786,-0.2531158388413859
1787,-0.2645519990373872
1788,-0.2653519569082422
1789,-0.25045329282808615
1790,-0.2177299219041862
1791,-0.16879457270581566
1792,-0.10842687127302726
1793,-0.0427015470015129
1794,0.02267557825294722
1795,0.08223812738032939
1796,0.12933739684123635
1797,0.15606568567994875
1798,0.15643514729056596
1799,0.13111869780745056
1800,0.08922899885206384
1801,0.04419067777302412
1802,0.006043239818543702
1803,-0.02354001563335751
1804,-0.04903731864250213
1805,-0.07366074536842979
1806,-0.09379987253109456
1807,-0.10088156044486779
1808,-0.08919883887629207
1809,-0.06238730655785116
1810,-0.03223829193813574
1811,-0.010601156063472188
1812,-0.0015132458086618878
1813,-0.00031791699268407395
1814,0.00013234757040324856
1815,0.002540552260486209
1816,0.003965436569342718
1817,0.0007803289022207593
1818,-0.005868871643260266
1819,-0.009961396524533475
1820,-0.006058129418552763
1821,0.005189732558674983
1822,0.017078907652619327
1823,0.02253740396594282
1824,0.020023383808013412
1825,0.014118012107267318
1826,0.010594304765478698
1827,0.011055473107444503
1828,0.012310829077213961
1829,0.01061952197638954
1830,0.00602690415586608
1831,0.002216188905397612
1832,0.002234577040442551
1833,0.004884090432520338
1834,0.0058290049786360616
1835,0.0023447272881344247
1836,-0.0034381897045410513
1837,-0.006534380761833145
1838,-0.004520547762760955
1839,-0.0006482845725069447
1840,-0.0010099680078924135
1841,-0.008274342724672548
1842,-0.0183957513761646
1843,-0.02403038789655898
1844,-0.021590737884640582
1845,-0.014862951879131819
1846,-0.011268476696862754
1847,-0.014270011245941608
1848,-0.019604879044529566
1849,-0.0194690960269845
1850,-0.010766686964313172
1851,0.00088017316954078
1852,0.005793955856619399
1853,-0.0005705085429102588
1854,-0.012837547068786252
1855,-0.02025782922686014
1856,-0.016490160072234396
1857,-0.0053010271904633715
1858,0.0032853825642019793
1859,0.0026171910737532176
1860,-0.004519354147716078
1861,-0.009174843651926372
1862,-0.005443401075788666
1863,0.0035572344920326545
1864,0.008785257530740723
1865,0.004284988778700647
1866,-0.006854494276360932
1867,-0.015447073637570616
1868,-0.01507329937993789
1869,-0.008082123053469056
1870,-0.002896749684372018
1871,-0.005455241519343882
1872,-0.013365938342593402
1873,-0.018535919155983283
1874,-0.01552216169634288
1875,-0.007159610583774751
1876,-0.001782274395187584
1877,-0.00478643523894662
1878,-0.012980921721390853
1879,-0.017456489873834267
1880,-0.012262345666386808
1881,-0.0003680613441202232
1882,0.009020522617448425
1883,0.009255663570662244
1884,0.0025967047483628812
1885,-0.002096595726559176
1886,0.0018901202548097943
1887,0.012430090870471415
1888,0.020416709649536957
1889,0.018415940555194542
1890,0.007828621519806652
1891,-0.0022195625599239384
1892,-0.0030964957977054155
1893,0.005830022252710959
1894,0.017269440557549864
1895,0.023138868085587322
1896,0.02166159436155786
1897,0.017857728797201457
1898,0.017598188729209825
1899,0.02156123781467827
1900,0.02506228887657902
1901,0.02350203220113531
1902,0.017513385236849192
1903,0.012420024675705316
1904,0.012627811929688898
1905,0.01684839294681454
1906,0.01922208048654095
1907,0.01532902995612288
1908,0.006954423100216949
1909,0.0005767260568171604
1910,0.00086878339852512
1911,0.005699292076533834
1912,0.00786145687194681
1913,0.0021229289399963824
1914,-0.00926156998467465
1915,-0.01817151809312169
1916,-0.018064794262894538
1917,-0.01013452832259967
1918,-0.002177395327616052
1919,-0.001221045160766438
1920,-0.0070508485972260015
1921,-0.012873199655815354
1922,-0.012308718605841054
1923,-0.005697644569697758
1924,0.0005007340395938575
1925,0.00043449593932676407
1926,-0.005224328432573828
1927,-0.010211878332344214
1928,-0.00944445750651791
1929,-0.004588426266131731
1930,-0.002555313778354079
1931,-0.008302631874353204
1932,-0.019281788880964608
1933,-0.02737799742248802
1934,-0.026628767413866085
1935,-0.019036464405072166
1936,-0.012564043003908164
1937,-0.01324356019163752
1938,-0.01931308615413485
1939,-0.023292523983494722
1940,-0.019868618479179426
1941,-0.011534381661443563
1942,-0.006187649586908814
1943,-0.009094759748316465
1944,-0.017424350127862438
1945,-0.022998925093031728
1946,-0.02054457817383181
1947,-0.01305652333270847
1948,-0.008758992052371782
1949,-0.012675742071470994
1950,-0.021369351181426542
1951,-0.026263061251896584
1952,-0.02225103213867375
1953,-0.012855975133885344
1954,-0.006602741304546508
1955,-0.008191560525383002
1956,-0.013479962011090696
1957,-0.013630951985043193
1958,-0.004559351229220262
1959,0.007797436322888919
1960,0.012106396251040907
1961,0.002260682768158182
1962,-0.01602885452504427
1963,-0.02923479564054053
1964,-0.027310867127175592
1965,-0.012130430891014607
1966,0.00444154559083046
1967,0.010791087275783005
1968,0.004681627759087087
1969,-0.006571767348673855
1970,-0.014043943269997443
1971,-0.01514902610946904
1972,-0.01434748414543563
1973,-0.016972269217239405
1974,-0.023126384896113912
1975,-0.027841443673917
1976,-0.026802483065016414
1977,-0.021192017339607346
1978,-0.016394786096611096
1979,-0.015991746883805114
1980,-0.01759205172698856
1981,-0.015229731085072439
1982,-0.00612371255235063
1983,0.005250309102902494
1984,0.010439185898356698
1985,0.004903290436068585
1986,-0.0071697498839524525
1987,-0.016146217311297922
1988,-0.015505563466846305
1989,-0.007601804199146644
1990,-0.001148957311268507
1991,-0.0029162426170324805
1992,-0.011624503104084619
1993,-0.019713198013081162
1994,-0.020897645381998224
1995,-0.015959688152891387
1996,-0.011302991594641567
1997,-0.01214833524818249
1998,-0.017411458683400674
1999,-0.021263474724378766
2000,-0.01942781861417889
2001,-0.01355858153734293
2002,-0.009249892787450411
2003,-0.009919599794648747
2004,-0.013066628807233093
2005,-0.012889497455169416
2006,-0.006601592673309945
2007,0.0021546806786495636
2008,0.006521048829462058
2009,0.0031791367945318066
2010,-0.00422788200456806
2011,-0.008663295590757836
2012,-0.006790590977642672
2013,-0.0023379616873392896
2014,-0.0020716077112522676
2015,-0.008294841210876999
2016,-0.01567650262049291
2017,-0.016155214513323052
2018,-0.007414264299943001
2019,0.003695866965017687
2020,0.006835788651511689
2021,-0.0020826811429234472
2022,-0.0166136111850841
2023,-0.025453605081624073
2024,-0.022754986903222384
2025,-0.013022911767940171
2026,-0.005943782599364586
2027,-0.006673171522127848
2028,-0.011561483977807558
2029,-0.01331812357831387
2030,-0.009534921492688395
2031,-0.005139463117835008
2032,-0.0063602975552074555
2033,-0.01339116659473308
2034,-0.020330451592736252
2035,-0.02244547558214068
2036,-0.02207004655851505
2037,-0.025822086259341057
2038,-0.03616281901913765
2039,-0.0476064096843014
2040,-0.05293040854438984
2041,-0.05255935345678822
2042,-0.05536546159473606
2043,-0.0685472198081877
2044,-0.08803210611730256
2045,-0.10211237914846275
2046,-0.10607232126545009
2047,-0.11061040464671348
2048,-0.13106810637124142
2049,-0.16653156931166835
2050,-0.19370327819869484
2051,-0.188510179630044
2052,-0.1566951669053896
2053,-0.1371811749523692
2054,-0.16370668455917436
2055,-0.21559047504492834
2056,-0.21111325224479985
2057,-0.06604714297492512
2058,0.22298044382218346
2059,0.5455516645418894
2060,0.7367226947318487
2061,0.6914333368651988
2062,0.443397080214737
2063,0.141883078819996
2064,-0.05615023549834425
2065,-0.09115849586174793
2066,-0.022061227406364327
2067,0.04344410681128553
2068,0.041494712842284065
2069,-0.010053494005904688
2070,-0.04906484070248641
2071,-0.03568430409604616
2072,0.015171339761161173
2073,0.05773400619501715
2074,0.06399103894602548
2075,0.04819825180281911
2076,0.04813607447645461
2077,0.08635685128975265
2078,0.14959677958467937
2079,0.20270593093498035
2080,0.2201422862050349
2081,0.20483587418875654
2082,0.17971466751151
2083,0.16331368524780795
2084,0.1532169103815533
2085,0.13103455783456053
2086,0.08209094636131777
2087,0.010876449907139372
2088,-0.06127499693865661
2089,-0.11341740249702832
2090,-0.14158413360466682
2091,-0.1604518450897195
2092,-0.18909625557159127
2093,-0.23355866838858147
2094,-0.28142481841853184
2095,-0.3128734503287037
2096,-0.3180614785961712
2097,-0.3051924683622488
2098,-0.2922444608812043
2099,-0.29038627649522364
2100,-0.2946858849126042
2101,-0.29059581755020986
2102,-0.26952657258779833
2103,-0.2381217071316486
2104,-0.21211759242592598
2105,-0.20087176090748116
2106,-0.19788898663721885
2107,-0.18682559700322182
2108,-0.15723801356408557
2109,-0.11476570802954661
2110,-0.075909872851713
2111,-0.05259792852746263
2112,-0.04148201897665617
2113,-0.027999148392722505
2114,-0.0007887683747694295
2115,0.03758451054102521
2116,0.07339675475688645
2117,0.09443538101185178
2118,0.09991748799409542
2119,0.09873513622914788
2120,0.09915615625453664
2121,0.10109666099455347
2122,0.09841330970917594
2123,0.0877908188753146
2124,0.07412893654524175
2125,0.06642886142218524
2126,0.06839362931588712
2127,0.07360193314696666
2128,0.07051720948318849
2129,0.05266371274106495
2130,0.024207914989445304
2131,-0.004086538543445516
2132,-0.024063671525515584
2133,-0.03546228667881277
2134,-0.04284789109400709
2135,-0.04850475653543851
2136,-0.04938126204568405
2137,-0.04132713629985649
2138,-0.025717705093435447
2139,-0.01075367345617285
2140,-0.00520340603523014
2141,-0.01042421572169291
2142,-0.018749542619543324
2143,-0.020289993653442875
2144,-0.011870208019316694
2145,0.0004046552619722061
2146,0.007303034495100126
2147,0.005242066292156405
2148,-0.0008154062344437267
2149,-0.0029023157940384382
2150,0.0017303004365565229
2151,0.00795758062818083
2152,0.008258764580843275
2153,0.0007650945940967185
2154,-0.00823890824374627
2155,-0.01000685535617004
2156,-0.0017928203431868059
2157,0.010117610964635329
2158,0.015844312060849467
2159,0.010779060483439198
2160,-0.0003866048078553384
2161,-0.008123247729700144
2162,-0.0067044781240238
2163,0.0010263361158851176
2164,0.006947824836342316
2165,0.005563034273353595
2166,-0.0010666130348736206
2167,-0.005823449036792081
2168,-0.0037591023840974377
2169,0.0030276821972704746
2170,0.0074619180861661555
2171,0.004364960773304594
2172,-0.0045344480363549294
2173,-0.012190404206486118
2174,-0.012808463315118652
2175,-0.0071118872975559026
2176,-0.0014305472696387765
2177,-0.0016907729242613496
2178,-0.008103952909503533
2179,-0.015411110785747301
2180,-0.018060613241650293
2181,-0.015099379214089093
2182,-0.010212581981797112
2183,-0.007371058058759349
2184,-0.006819883362763039
2185,-0.005468499005572502
2186,-0.000984797237085075
2187,0.004990072735467484
2188,0.008115711350144331
2189,0.005922192851027662
2190,0.0008472260511808077
2191,-0.0017096702101805253
2192,0.0013341034716033338
2193,0.00740590864859487
2194,0.010469747603803476
2195,0.006868423813774911
2196,-0.0008569896613718663
2197,-0.006043810505583155
2198,-0.004019420796962865
2199,0.0036129674533183866
2200,0.010623860519420549
2201,0.012055619473267158
2202,0.008596944754827064
2203,0.005320580954688809
2204,0.006336440558331044
2205,0.010861137792353814
2206,0.014525237650093318
2207,0.014268991382388364
2208,0.011565702523419152
2209,0.01062238286284057
2210,0.013582245875125583
2211,0.01796077075574975
2212,0.019212714314494943
2213,0.015843278471211718
2214,0.011576864239306052
2215,0.011935607606790258
2216,0.01839159117751132
2217,0.02607392337060807
2218,0.027754959274134475
2219,0.020581605361436862
2220,0.009029198001351312
2221,0.0010005582389830696
2222,0.0006353098005176952
2223,0.004689870786288054
2224,0.00595288987167975
2225,0.0003346524704304914
2226,-0.00927876827695574
2227,-0.016072899672776593
2228,-0.01609694299763637
2229,-0.012010791746738185
2230,-0.010145767089421767
2231,-0.013983305893839513
2232,-0.020710651886482804
2233,-0.02431090087987357
2234,-0.02194167597097752
2235,-0.016973820763978246
2236,-0.015480675446017854
2237,-0.01974962301119839
2238,-0.02558911830856874
2239,-0.02644063994680708
2240,-0.020285754986856832
2241,-0.012230899062455457
2242,-0.009801963125249034
2243,-0.015381310749011378
2244,-0.023394403309832012
2245,-0.025392587511824896
2246,-0.018328772304648838
2247,-0.007904754208026466
2248,-0.0034654988796234527
2249,-0.009161630370769124
2250,-0.019886536986545456
2251,-0.025989591683752578
2252,-0.02229524226113451
2253,-0.012793785434732113
2254,-0.006590500411466671
2255,-0.009158957832784989
2256,-0.01737244387033416
2257,-0.02293413602014619
2258,-0.02058673911912702
2259,-0.012976567893617575
2260,-0.007582779736696827
2261,-0.009041223722488698
2262,-0.014612918647527225
2263,-0.017205703407176247
2264,-0.012734662350448992
2265,-0.004344706328611392
2266,0.0007184705670870333
2267,-0.0016177553093670223
2268,-0.00817125231115175
2269,-0.011713592331007052
2270,-0.00825054191622024
2271,-0.0010814250591493699
2272,0.002448316985030983
2273,-0.001689381911251451
2274,-0.010026330197604377
2275,-0.014778359324009994
2276,-0.01130442608699465
2277,-0.0025565183604839823
2278,0.003789704554923409
2279,0.00263991308240041
2280,-0.003957854339836479
2281,-0.00935586331687927
2282,-0.009218041729657036
2283,-0.005761604021874034
2284,-0.005058475755089669
2285,-0.010198031839903497
2286,-0.017399079543151612
2287,-0.019301228244489987
2288,-0.01241797660201021
2289,-0.0013170056634294537
2290,0.004954711893663102
2291,0.0011038277212562352
2292,-0.009377319941152961
2293,-0.017361912139558087
2294,-0.01654632793006973
2295,-0.00914874928592378
2296,-0.0034124250905124428
2297,-0.005431561151063153
2298,-0.013314751088578124
2299,-0.019324894322504026
2300,-0.017724879447033295
2301,-0.010450612894390653
2302,-0.004992969073612378
2303,-0.006725039929074879
2304,-0.013480767165176107
2305,-0.017876865428622192
2306,-0.015002142968215889
2307,-0.007631951967958214
2308,-0.003609259296015817
2309,-0.007972822264442011
2310,-0.01775884365880192
2311,-0.024723111270382552
2312,-0.02325047895960252
2313,-0.015547449329913176
2314,-0.009061038746492795
2315,-0.00894559144970147
2316,-0.01324420611182478
2317,-0.015439806133169406
2318,-0.011444609398525783
2319,-0.0037794100486297434
2320,0.0011159444340220657
2321,-0.0006152261810673995
2322,-0.006619910046131556
2323,-0.010970608405325686
2324,-0.010023569671365556
2325,-0.0055936619343676134
2326,-0.002730067090930418
2327,-0.004800326869459636
2328,-0.010684287403838953
2329,-0.016191775654762076
2330,-0.017801291997812923
2331,-0.015409526164594678
2332,-0.012372610623984336
2333,-0.013243628858053445
2334,-0.020559501302705854
2335,-0.032363356246915054
2336,-0.04250907528640174
2337,-0.04493726279290988
2338,-0.0397919129790882
2339,-0.03571944796365786
2340,-0.04393710007152353
2341,-0.06720310398343259
2342,-0.09424194340279751
2343,-0.10793309068107686
2344,-0.1024178146519156
2345,-0.09225948098077216
2346,-0.10085228386897788
2347,-0.13567782023250846
2348,-0.17544365248103647
2349,-0.18722795625885041
2350,-0.16185343142786468
2351,-0.131255795672107
2352,-0.14199020960472236
2353,-0.2013470813924331
2354,-0.24770170595302549
2355,-0.18489027040285333
2356,0.03592549104610106
2357,0.3546659365582241
2358,0.6224362601280102
2359,0.6987912645288297
2360,0.5523066881138776
2361,0.2824724358343583
2362,0.044848287657956995
2363,-0.05835029338013051
2364,-0.034899169180446124
2365,0.03063265246441766
2366,0.05970999892363089
2367,0.03743878692538016
2368,0.003850739625506773
2369,0.0015556652518496882
2370,0.035389952717446646
2371,0.07708407835761075
2372,0.09980869470374401
2373,0.10288118628817007
2374,0.10487051973043532
2375,0.11886629925231026
2376,0.1388311978131794
2377,0.14915735615665188
2378,0.143167387773252
2379,0.12902491694176654
2380,0.11813305725374629
2381,0.11082758102368663
2382,0.0956593870712414
2383,0.062300693496531265
2384,0.013324724089581245
2385,-0.03763084995105111
2386,-0.078565868587188
2387,-0.1089879432106096
2388,-0.13753145069859296
2389,-0.17129578045977562
2390,-0.20855282783352475
2391,-0.24135403994541335
2392,-0.2636662166721531
2393,-0.27598423756406504
2394,-0.2827227376703071
2395,-0.28685682264066453
2396,-0.2881727045100087
2397,-0.28609448105449686
2398,-0.28245757589308446
2399,-0.2801974673896903
2400,-0.2793953686782557
2401,-0.27566008401964887
2402,-0.26328879310010656
2403,-0.2401314403780541
2404,-0.2090310149960195
2405,-0.17446740262179236
2406,-0.1382979550715069
2407,-0.0993212144199354
2408,-0.0569058080251628
2409,-0.014215155629006862
2410,0.023057232244124492
2411,0.05142125458990958
2412,0.07261744378651759
2413,0.09129356782696026
2414,0.10944779085021035
2415,0.12356392726164672
2416,0.1279169245344314
2417,0.1211140502766761
2418,0.10919092553473447
2419,0.10159253691990315
2420,0.1033360316163457
2421,0.11062219946269666
2422,0.11407605548323971
2423,0.10661965349420172
2424,0.08874132143719712
2425,0.06669702092462182
2426,0.046083498419922736
2427,0.02740953366913238
2428,0.0077865889206495545
2429,-0.013592379119824426
2430,-0.03235630629041518
2431,-0.04185161329151077
2432,-0.039370933965612434
2433,-0.029442543422728208
2434,-0.02060558121912303
2435,-0.018447556296088186
2436,-0.021395316262785437
2437,-0.023148575492436554
2438,-0.019265839874089995
2439,-0.011494096325136767
2440,-0.00577948781419685
2441,-0.00615105836156264
2442,-0.010661649298613386
2443,-0.013401687720479366
2444,-0.010479193451834165
2445,-0.003902209668229597
2446,0.0005472617300365153
2447,-0.0007353552581272586
2448,-0.005477925892549956
2449,-0.00789519009571936
2450,-0.0047455170912099
2451,0.001124001055231043
2452,0.0034797554732631094
2453,-0.000968952836392696
2454,-0.009026669451770008
2455,-0.01395612220477371
2456,-0.012049540652270346
2457,-0.006217885617661761
2458,-0.0029463306347584993
2459,-0.005695699218415602
2460,-0.011474106561195206
2461,-0.014081598462621844
2462,-0.010682802151086301
2463,-0.00490596161250657
2464,-0.0031968442851809343
2465,-0.00810310437880534
2466,-0.01539721698711614
2467,-0.01809573502683618
2468,-0.013392716019132113
2469,-0.005495366216437307
2470,-0.0014556227564278769
2471,-0.004172585118752309
2472,-0.009600947956928478
2473,-0.01094497842504756
2474,-0.005583026094589308
2475,0.0022352562072187397
2476,0.005575927139295733
2477,0.0016455787445461608
2478,-0.005554569870567757
2479,-0.009299667371125307
2480,-0.006788595618601804
2481,-0.0017655290389530821
2482,-0.0006306277579357319
2483,-0.006007157372127732
2484,-0.014112918905889652
2485,-0.018389010275159726
2486,-0.015682208415125694
2487,-0.00893646693718924
2488,-0.003959685115128298
2489,-0.0036600838726473612
2490,-0.005452710855896495
2491,-0.004221966735925595
2492,0.002279611371088379
2493,0.010991518427706633
2494,0.016409225304553757
2495,0.015854693955812835
2496,0.011977050389948002
2497,0.010118874778271364
2498,0.013219069749723728
2499,0.01923674390601489
2500,0.02348444640354562
2501,0.023397251948088026
2502,0.02094478058919515
2503,0.02035405700774373
2504,0.023552793876843385
2505,0.028022367595957547
2506,0.02928534910792557
2507,0.025513216961558473
2508,0.019511944869640876
2509,0.015943709953449
2510,0.016522686197866718
2511,0.0181314827767689
2512,0.01596995632387307
2513,0.008697408159428332
2514,0.00028855602675194694
2515,-0.003547016109571597
2516,-0.001005373547559664
2517,0.003816276893858401
2518,0.00482362860622944
2519,1.0871048611073904e-05
2520,-0.006445092153479133
2521,-0.008457353757761105
2522,-0.0045659934152938245
2523,-1.8746318810794428e-05
2524,-0.0018545207693619675
2525,-0.011535562612342183
2526,-0.022565190804080433
2527,-0.02600251099527574
2528,-0.018994532035293242
2529,-0.00807699805518737
2530,-0.0036653444515240266
2531,-0.010597183668891084
2532,-0.023601963760972195
2533,-0.03207540100927142
2534,-0.02971683528153911
2535,-0.0199636892622364
2536,-0.012240832224046401
2537,-0.01287173281219987
2538,-0.019480572980612974
2539,-0.02406710552880311
2540,-0.021359157070129343
2541,-0.014019574661080635
2542,-0.009661689433369959
2543,-0.01290098153755231
2544,-0.020553775410415573
2545,-0.024801503995196098
2546,-0.02108391319028942
2547,-0.012763874920551598
2548,-0.007883828032986434
2549,-0.011245748375429491
2550,-0.01966682276989999
2551,-0.025050573547136586
2552,-0.022166672442019367
2553,-0.013485268064151339
2554,-0.006479197478037329
2555,-0.006287924982213533
2556,-0.011053187363955263
2557,-0.014331907783565453
2558,-0.011865208439228147
2559,-0.005808364596491177
2560,-0.0023312580079681003
2561,-0.005256441185273693
2562,-0.012254621563680408
2563,-0.017318044361721796
2564,-0.01679507249950002
2565,-0.012770978387810354
2566,-0.010465521043723159
2567,-0.012515606490404209
2568,-0.016158367728433265
2569,-0.01626023884952598
2570,-0.011046139803891047
2571,-0.004520977226905644
2572,-0.0028910400529671694
2573,-0.008438106011993018
2574,-0.017023809076312575
2575,-0.021873431323889945
2576,-0.019993629565674603
2577,-0.014856955952504176
2578,-0.012648660238588209
2579,-0.01582059710420658
2580,-0.020469574576644008
2581,-0.02029481475710441
2582,-0.013268756246825986
2583,-0.004296922123877797
2584,-0.0009993383870191986
2585,-0.006572361542329422
2586,-0.01669210325671602
2587,-0.023526910624831726
2588,-0.02293810391744737
2589,-0.017823015964916242
2590,-0.01445605863844152
2591,-0.015735071791928984
2592,-0.01833548685116381
2593,-0.016721323216029572
2594,-0.00980474388143698
2595,-0.003096570980372508
2596,-0.003641386941949965
2597,-0.01255212807373552
2598,-0.022880956325645553
2599,-0.025606598697477116
2600,-0.018339982663325316
2601,-0.008145680911276423
2602,-0.005210087017003701
2603,-0.013053905313222147
2604,-0.024761374736064816
2605,-0.029230658383851565
2606,-0.021743539621344357
2607,-0.008674771825956162
2608,-0.0015779691515661908
2609,-0.006200624944387214
2610,-0.01710788035038985
2611,-0.02324336784700299
2612,-0.01894324397710647
2613,-0.009366617905780856
2614,-0.004821381103364524
2615,-0.009788315683879223
2616,-0.018098844447457758
2617,-0.019568335129332443
2618,-0.011353111005709337
2619,-0.0018730395472196946
2620,-0.0025318860054905816
2621,-0.015507657779482653
2622,-0.030768486792716813
2623,-0.036244813330448385
2624,-0.030832650627759205
2625,-0.02601307544556494
2626,-0.033540427192473146
2627,-0.05212187159411598
2628,-0.06816064692902277
2629,-0.07079800849939599
2630,-0.06499891911595021
2631,-0.06711547654260494
2632,-0.08629963978405295
2633,-0.11232821815321953
2634,-0.12543346307458278
2635,-0.11950011522015665
2636,-0.11245187300541876
2637,-0.12867586557551297
2638,-0.16946849265222552
2639,-0.20518700476792728
2640,-0.20359781889945167
2641,-0.16842516586877343
2642,-0.1435474059235214
2643,-0.16770853094412275
2644,-0.21837791787162647
2645,-0.20621083974291898
2646,-0.04219055646170818
2647,0.27166394608804745
2648,0.6115455781167488
2649,0.8018257982731645
2650,0.7388899494179214
2651,0.4690460787870772
2652,0.1545284993831011
2653,-0.04500368815301685
2654,-0.0783535758818992
2655,-0.014581980892706587
2656,0.036725504402715575
2657,0.01943549884580275
2658,-0.03918917118744706
2659,-0.07485036213421895
2660,-0.05404920861132138
2661,0.00026704175452697994
2662,0.04000248557421923
2663,0.04096484130080057
2664,0.0211808465102706
2665,0.01664560669658565
2666,0.04409069916286228
2667,0.08747291286466374
2668,0.11683967693295162
2669,0.1169647056271818
2670,0.09812898559928197
2671,0.08256947031206219
2672,0.08316441047007311
2673,0.09447636262905335
2674,0.10109359825672545
2675,0.09203172919894895
2676,0.0675466313944661
2677,0.03493073669301561
2678,0.00037637061640470723
2679,-0.03474152637926434
2680,-0.07143678527547495
2681,-0.10909481566154561
2682,-0.1446108245916172
2683,-0.1749431146326365
2684,-0.19964280621530345
2685,-0.22044891149629497
2686,-0.23849423014617727
2687,-0.2522309017465306
2688,-0.2584502773481552
2689,-0.25566586859565277
2690,-0.24666895235623693
2691,-0.23756899529544032
2692,-0.23372079202161472
2693,-0.23587165693860263
2694,-0.23987485165320518
2695,-0.24019480218672207
2696,-0.23395957371341708
2697,-0.22186614662920887
2698,-0.20544369937336754
2699,-0.18397049489957823
2700,-0.15477565091436282
2701,-0.11701075156305699
2702,-0.07486244816948136
2703,-0.03610368038129582
2704,-0.006420973258394224
2705,0.015297416206580695
2706,0.035714320004889576
2707,0.06034593373325449
2708,0.08751495193252554
2709,0.10893287095661187
2710,0.11673679639207943
2711,0.11049178385771621
2712,0.0975361038381996
2713,0.08642427263874863
2714,0.07988496215521886
2715,0.07402037967906439
2716,0.0641106447544015
2717,0.0507470900867355
2718,0.03980765824824301
2719,0.03621777095733615
2720,0.037986016017462654
2721,0.03697265656723829
2722,0.026167022233628413
2723,0.006582632416303266
2724,-0.013040936818933157
2725,-0.023677909916400695
2726,-0.02363429856939947
2727,-0.019231839449802755
2728,-0.0181938135562095
2729,-0.022354246437381105
2730,-0.02670670870582257
2731,-0.025347800256911517
2732,-0.018041356687771744
2733,-0.010691249556066932
2734,-0.009304200823093687
2735,-0.013687078772380804
2736,-0.017456111570160526
2737,-0.014575351800190983
2738,-0.005935477304064303
2739,0.0008034143712406284
2740,-0.0016764143494436357
2741,-0.01305982979173196
2742,-0.02515887483314401
2743,-0.029242926574792008
2744,-0.024044947158357984
2745,-0.016723295663237714
2746,-0.015767259346925376
2747,-0.022646554664943065
2748,-0.0303036281162266
2749,-0.030014679043520003
2750,-0.02001546927977199
2751,-0.007510430336888852
2752,-0.002048299734061097
2753,-0.006618498271094678
2754,-0.015057958981329257
2755,-0.018246391311698282
2756,-0.013028184354917207
2757,-0.005146916518032332
2758,-0.0033173290985587193
2759,-0.010216201300430069
2760,-0.019214391102678006
2761,-0.020133811153404353
2762,-0.008590916812388934
2763,0.00994331159728255
2764,0.02509734896265786
2765,0.030660334146716726
2766,0.029116771940372568
2767,0.027701781170314247
2768,0.030361575730528577
2769,0.033776166162631495
2770,0.0312380424822986
2771,0.02019316288974434
2772,0.0056374978713734205
2773,-0.004164428319792782
2774,-0.005401464718430391
2775,-0.002183869206382599
2776,-0.0023283294315123667
2777,-0.009675376522430019
2778,-0.020512476118064026
2779,-0.027464785553818417
2780,-0.026755470227004072
2781,-0.021540673103755407
2782,-0.01820062055684623
2783,-0.019661902224271163
2784,-0.022697949227486677
2785,-0.02185749730202472
2786,-0.015706559270617322
2787,-0.008654121408324184
2788,-0.006282706001757216
2789,-0.009029005780508234
2790,-0.011034252002921605
2791,-0.00580278588741627
2792,0.006838057080243124
2793,0.019699570182639417
2794,0.024619269796386442
2795,0.02022843093292396
2796,0.01335812637323184
2797,0.012454365739918549
2798,0.019349175722750765
2799,0.027550522163619032
2800,0.028859551356660705
2801,0.021793245120985405
2802,0.013331320159789228
2803,0.012045405453857606
2804,0.01932680663875766
2805,0.027544735560684923
2806,0.027252335285779368
2807,0.016532430064956354
2808,0.0032216675589340597
2809,-0.0024205885682624245
2810,0.0023842741538151985
2811,0.010148250018722568
2812,0.010330597912678303
2813,-0.00032851290681987883
2814,-0.014385687930900705
2815,-0.020597908644353142
2816,-0.01458308439629157
2817,-0.003034735946712065
2818,0.0024827235291714064
2819,-0.003857375054178778
2820,-0.017197885138475248
2821,-0.02710256019776667
2822,-0.027408596389879986
2823,-0.02128554041159013
2824,-0.01707057302061637
2825,-0.01958439090421646
2826,-0.02572177551376266
2827,-0.028375709612929206
2828,-0.024243234497614407
2829,-0.017371353810666776
2830,-0.014929441177873735
2831,-0.019713197458215086
2832,-0.027126349197867654
2833,-0.02970685192426749
2834,-0.024570297772223318
2835,-0.016253937544163308
2836,-0.0121692787046868
2837,-0.015307126677327254
2838,-0.02147684702058724
2839,-0.023678238053853745
2840,-0.019064371518060584
2841,-0.0115462452552906
2842,-0.007666609918069769
2843,-0.01013383929297628
2844,-0.015527549330243633
2845,-0.018209915086337063
2846,-0.01614058789286884
2847,-0.012563237498364752
2848,-0.012018971793476418
2849,-0.015092646432335762
2850,-0.01756224869846531
2851,-0.014947191975828666
2852,-0.00770970091494113
2853,-0.001518130585055337
2854,-0.0019741045100613187
2855,-0.008977709721577163
2856,-0.016516007080948365
2857,-0.01834801831796784
2858,-0.01408779055614525
2859,-0.009599990828154714
2860,-0.011151056954113659
2861,-0.01899171323176136
2862,-0.026756494259806224
2863,-0.027431041482624985
2864,-0.02014407692234814
2865,-0.011119989775765851
2866,-0.007778301598677948
2867,-0.011691138359912543
2868,-0.017282119724715925
2869,-0.017550806494609536
2870,-0.011190971725701935
2871,-0.004054008834657159
2872,-0.003444258347801167
2873,-0.010823119389239815
2874,-0.020147159974102123
2875,-0.023585163416546276
2876,-0.019083943189067448
2877,-0.012351975385691518
2878,-0.011239895139300104
2879,-0.017958972123522054
2880,-0.026756864405889647
2881,-0.029376615518276746
2882,-0.023018566336285386
2883,-0.01306949599832182
2884,-0.007974962630852966
2885,-0.011283455501485955
2886,-0.018568053099967355
2887,-0.022055017508404284
2888,-0.01823828664242256
2889,-0.0109929282520101
2890,-0.007346672705226225
2891,-0.010377031091190574
2892,-0.016379412318266867
2893,-0.018963362715578577
2894,-0.015731672377840122
2895,-0.010723277989677588
2896,-0.010200155299039882
2897,-0.016069409578127147
2898,-0.023535394965169234
2899,-0.025339494159412775
2900,-0.018527735088152905
2901,-0.007369658384846781
2902,0.0001738733625537564
2903,-0.0009271120030875308
2904,-0.008948102728208344
2905,-0.017409343355493455
2906,-0.020734511958569783
2907,-0.018577121562878725
2908,-0.015391157358991301
2909,-0.015972418932520528
2910,-0.02092862923730806
2911,-0.026016243591020574
2912,-0.026142271681369685
2913,-0.020800522907868338
2914,-0.0158792886127814
2915,-0.01920448927844581
2916,-0.03281421337803338
2917,-0.04919979807053591
2918,-0.05666598361477732
2919,-0.050647562521362405
2920,-0.04039513171996928
2921,-0.042519902998875723
2922,-0.06504845664405
2923,-0.09706509681794026
2924,-0.11655827809343913
2925,-0.11187219594847897
2926,-0.0960021478242283
2927,-0.09641605708526818
2928,-0.12677437309234663
2929,-0.16861547941204613
2930,-0.1858201849297677
2931,-0.16251495830375484
2932,-0.12630467311117632
2933,-0.12618319981464154
2934,-0.17766009581948455
2935,-0.22694927903704865
2936,-0.17857232911351556
2937,0.024592509519395712
2938,0.3344972348414784
2939,0.6092671486551964
2940,0.7048855980077793
2941,0.5779908018602319
2942,0.3163130786384601
2943,0.07199355970813481
2944,-0.04649885742029642
2945,-0.03721360365674236
2946,0.020422615276031394
2947,0.045504461740817514
2948,0.017473379084591935
2949,-0.025897476985467613
2950,-0.038434278493107876
2951,-0.010050718158169467
2952,0.031695001808301995
2953,0.05458884613808199
2954,0.051715103619219896
2955,0.04164001953416616
2956,0.04518744652864781
2957,0.06540268667963423
2958,0.0884482349877539
2959,0.09972335467792512
2960,0.09676280706502903
2961,0.08803796980532247
2962,0.08258753844269101
2963,0.08229912406615766
2964,0.08249049828398643
2965,0.07702774064001278
2966,0.061863624858316396
2967,0.03551408466313896
2968,-0.00100954421407982
2969,-0.04355299115960054
2970,-0.08545643202691874
2971,-0.12113422956078795
2972,-0.150179149802259
2973,-0.1773090461347696
2974,-0.20694385827660594
2975,-0.23725129485345964
2976,-0.2601092562155132
2977,-0.26796182892779585
2978,-0.2612938954114564
2979,-0.24921345308141177
2980,-0.24214878669103157
2981,-0.24345913699180627
2982,-0.2478292675921086
2983,-0.24754183877850405
2984,-0.2400124570222986
2985,-0.22910309144072896
2986,-0.21938426656317278
2987,-0.20976577263536444
2988,-0.19342000759640526
2989,-0.1643340744234242
2990,-0.12394264348125966
2991,-0.08106087178008806
2992,-0.04492326391388915
2993,-0.017920013221848462
2994,0.00510412793625983
2995,0.03055056068465939
2996,0.05906731558542032
2997,0.08461569100014332
2998,0.10024062424335835
2999,0.10459898546074858
3000,0.10274809285309788
3001,0.10061870452861929
3002,0.09900659587972734
3003,0.09336894670144778
3004,0.0797243632133807
3005,0.06053600213344589
3006,0.04415525265032061
3007,0.03772563010429447
3008,0.0402083245627462
3009,0.04255771466690955
3010,0.035413456553181136
3011,0.017361841111474638
3012,-0.0039309325217942
3013,-0.018707657036574177
3014,-0.023516675851211147
3015,-0.023113378029672227
3016,-0.02445745657835247
3017,-0.029159438442197663
3018,-0.03207925764526828
3019,-0.02740032759896025
3020,-0.0157951859276556
3021,-0.005046900849000086
3022,-0.003047225506776907
3023,-0.009950481715227534
3024,-0.01747369703858022
3025,-0.016490246602562583
3026,-0.005819868581237269
3027,0.006324852950579523
3028,0.00982936958062517
3029,0.0020667432343361475
3030,-0.00972786373575734
3031,-0.01526977425123762
3032,-0.010616405702447984
3033,-0.0012446247423598847
3034,0.003768903531511837
3035,0.0004598928046118931
3036,-0.0068821930934130455
3037,-0.010754221534914944
3038,-0.008153433151275626
3039,-0.003161946424958758
3040,-0.002163337496078656
3041,-0.0070024980810888945
3042,-0.013247526183622377
3043,-0.015166552060320748
3044,-0.01197419468825034
3045,-0.008646106417483918
3046,-0.010379916797397084
3047,-0.016545676003913663
3048,-0.020660459160775378
3049,-0.016759161494412676
3050,-0.005823969815147805
3051,0.004387127867530756
3052,0.006265437941124452
3053,-0.0006214020066008843
3054,-0.00926627714342313
3055,-0.011960707973020209
3056,-0.007429566343422246
3057,-0.0015058528363282161
3058,-0.0009830893085521117
3059,-0.0069540655305287075
3060,-0.014173499772817023
3061,-0.016722334986939737
3062,-0.013939461696268914
3063,-0.010560399864677064
3064,-0.011133549472731402
3065,-0.01472844317256329
3066,-0.015639155995112994
3067,-0.009556820806234892
3068,0.001108311014367332
3069,0.00849572380339517
3070,0.006403259341354759
3071,-0.003499082017729681
3072,-0.01255504892573868
3073,-0.012642732785716867
3074,-0.00346565659166874
3075,0.0071766822704033
3076,0.010416669221458803
3077,0.00416972556217057
3078,-0.005292311002487372
3079,-0.009184854348138136
3080,-0.0038203442233754117
3081,0.006924130068118633
3082,0.015995583279058645
3083,0.019681157579549753
3084,0.019980534868116122
3085,0.02110528505247696
3086,0.02427622006211988
3087,0.026402908232836794
3088,0.02393519937221054
3089,0.01765353847679648
3090,0.013052856941673907
3091,0.015436629741960688
3092,0.02440424065632428
3093,0.03342394534055949
3094,0.0354374013640521
3095,0.02947483354698035
3096,0.02195458241827227
3097,0.02113715409578283
3098,0.029623533064023915
3099,0.04170855667857957
3100,0.0479718676064145
3101,0.042903658166041074
3102,0.02880292352388199
3103,0.012901607808038968
3104,0.0009373213924506963
3105,-0.006746593759006455
3106,-0.013494991329294999
3107,-0.021552967608858938
3108,-0.029378753923483183
3109,-0.033595771610603745
3110,-0.03313937495893171
3111,-0.030953878446229204
3112,-0.03128744750569111
3113,-0.03532007688169856
3114,-0.03969972696295602
3115,-0.039684768155964
3116,-0.033923679865310065
3117,-0.02616092738650244
3118,-0.02209656848441017
3119,-0.02432696270196912
3120,-0.03012473289442182
3121,-0.034035047061776263
3122,-0.03267743542719646
3123,-0.027233241986116465
3124,-0.021590876861967277
3125,-0.018383069311180236
3126,-0.0169447862813038
3127,-0.014939058501161492
3128,-0.011548470770863194
3129,-0.008668037665114542
3130,-0.008838368867720239
3131,-0.012210121955233771
3132,-0.015896807901695648
3133,-0.016557595680765695
3134,-0.013607537310367374
3135,-0.009711461663216868
3136,-0.008005484561371443
3137,-0.008932203578623546
3138,-0.010041120420835478
3139,-0.009007485123180342
3140,-0.0066266788746337235
3141,-0.0063709578322182076
3142,-0.010627316228135293
3143,-0.017428946545222194
3144,-0.02140702863942101
3145,-0.018595725206274005
3146,-0.010594823385667118
3147,-0.003744535922077478
3148,-0.003603747590404085
3149,-0.009758343052942608
3150,-0.01602842239526795
3151,-0.016146214682257
3152,-0.009642989239163728
3153,-0.002295080716558856
3154,-0.0006257987082335858
3155,-0.005745629488707908
3156,-0.012531728237552846
3157,-0.014948951227622177
3158,-0.012216567260826577
3159,-0.009586196716655549
3160,-0.012791368893301732
3161,-0.021629895837624015
3162,-0.029257874618030394
3163,-0.02830771421955365
3164,-0.018131519718636323
3165,-0.00606144912653362
3166,-0.0011540423256827946
3167,-0.006151741816341213
3168,-0.015255278356872426
3169,-0.019819483198449873
3170,-0.0164937477812759
3171,-0.010003331258650341
3172,-0.008013024665117333
3173,-0.01324666372314888
3174,-0.020693551413255643
3175,-0.02268413145997332
3176,-0.016795309946995816
3177,-0.008664528240847232
3178,-0.006759498431549574
3179,-0.014135086358746917
3180,-0.025304978183211254
3181,-0.0313953184519925
3182,-0.028543933322197467
3183,-0.021218916175088816
3184,-0.017160678239052866
3185,-0.019103280485823656
3186,-0.02180944795788079
3187,-0.017669536307793055
3188,-0.005312245001855671
3189,0.007710656576145346
3190,0.011377098752709864
3191,0.002716901242916089
3192,-0.011056631087368988
3193,-0.019084646531157497
3194,-0.016701194375883112
3195,-0.008942338247514954
3196,-0.0046313265069827265
3197,-0.0075076352790585926
3198,-0.013487013881176638
3199,-0.016211274359089235
3200,-0.014189601934477786
3201,-0.011664490698531017
3202,-0.012900354380470474
3203,-0.01714483076115195
3204,-0.020353462341269543
3205,-0.021296439744730805
3206,-0.02402348809107494
3207,-0.03296061651784421
3208,-0.046396975157961
3209,-0.05712563465728415
3210,-0.06084509062791943
3211,-0.06260666695642914
3212,-0.07219235971487142
3213,-0.09200545421545003
3214,-0.11171863119376049
3215,-0.1184013258152281
3216,-0.11283664365633776
3217,-0.11248154542633786
3218,-0.13371231129419558
3219,-0.17040891542264286
3220,-0.19497451304391392
3221,-0.18673816721256015
3222,-0.15991179815444012
3223,-0.15561495403716055
3224,-0.1953036176832041
3225,-0.23796637578985724
3226,-0.19232870742103786
3227,0.010111808537424986
3228,0.3377790076548641
3229,0.6514849173164292
3230,0.7881595820446816
3231,0.676712428583611
3232,0.39220630662426725
3233,0.10167931253235224
3234,-0.05517709349065664
3235,-0.05442074614039327
3236,0.020290822408224354
3237,0.06402953989528534
3238,0.035357262703351294
3239,-0.027854705754619433
3240,-0.06124786976595197
3241,-0.03756212682120845
3242,0.015678330663873564
3243,0.05087310378353074
3244,0.04675465994644237
3245,0.022884942439575437
3246,0.014956450296076534
3247,0.03984918892154747
3248,0.08322757383223357
3249,0.11653763712529432
3250,0.12327311377446776
3251,0.11023966625771506
3252,0.09711169353602564
3253,0.09710652275108478
3254,0.1062519630643805
3255,0.10822975792479489
3256,0.08827643761980902
3257,0.04423400731571564
3258,-0.012705280070028607
3259,-0.06648982300873982
3260,-0.10684840563387604
3261,-0.13455734518597737
3262,-0.15825370347702666
3263,-0.18588921578240974
3264,-0.21773856453358498
3265,-0.24643733107498375
3266,-0.2636162470470095
3267,-0.2670733773966425
3268,-0.26214967268850525
3269,-0.25650533377807105
3270,-0.2536642182381973
3271,-0.2514827181974735
3272,-0.24638531436509553
3273,-0.23830626852760656
3274,-0.2308975480177101
3275,-0.22696771243349792
3276,-0.2244136537924342
3277,-0.217366017050498
3278,-0.20150602389280553
3279,-0.17783832255785784
3280,-0.15079099320733938
3281,-0.12273356093487388
3282,-0.09110625525258373
3283,-0.05172889683588335
3284,-0.005102456932533842
3285,0.04117149685801227
3286,0.07716002727257468
3287,0.09844347867883822
3288,0.10931444368432103
3289,0.11782552677762947
3290,0.12726972014761545
3291,0.13253662080223472
3292,0.12530727457922544
3293,0.10338721492944528
3294,0.075092890458408
3295,0.05395031125376699
3296,0.04803961603457302
3297,0.053488634421218935
3298,0.057947578305430375
3299,0.05084868142229501
3300,0.031359578855342435
3301,0.007526874258953292
3302,-0.01159092469930954
3303,-0.02297771744787867
3304,-0.029776030386627284
3305,-0.03559750120722746
3306,-0.03963658293134905
3307,-0.03770324545517344
3308,-0.027744663006569567
3309,-0.013660839853114871
3310,-0.003023705183978628
3311,-0.0006934009443445265
3312,-0.0046723663644374636
3313,-0.008375612954014146
3314,-0.007037426608361893
3315,-0.0018404178643578722
3316,0.0022064561846299674
3317,0.0021013380083256114
3318,1.425931464151594e-05
3319,0.00029888050032699686
3320,0.003587486447027023
3321,0.00470849106956384
3322,-0.002494186385127813
3323,-0.01774092940289101
3324,-0.03209811866384357
3325,-0.034337397854794366
3326,-0.02081425571686361
3327,0.0003051425239048054
3328,0.01496831087332505
3329,0.014465051065581087
3330,0.0020299509048492537
3331,-0.010905725227646879
3332,-0.014986470254693855
3333,-0.010160385807011917
3334,-0.003750398704214929
3335,-0.002275804839029629
3336,-0.005557895377654952
3337,-0.008555893290187303
3338,-0.008098187515093067
3339,-0.006797965551115344
3340,-0.009834903922796796
3341,-0.018188680187811702
3342,-0.025942368813506013
3343,-0.02514594896420065
3344,-0.013694072712057727
3345,0.0018630759409520277
3346,0.011838646030087665
3347,0.012111775031190264
3348,0.007452118158638006
3349,0.0061061413826821115
3350,0.010998281218605473
3351,0.016377653695491986
3352,0.013423195386123934
3353,-0.0005601673994328853
3354,-0.018369315322039243
3355,-0.028395276263869833
3356,-0.024344315352771418
3357,-0.010228784525372887
3358,0.003661645700173136
3359,0.009619800863251728
3360,0.007973697297638062
3361,0.0048248661160960795
3362,0.00533585180981266
3363,0.009494018536727152
3364,0.013861082470560122
3365,0.016360079915879015
3366,0.018416718815047448
3367,0.02227450800998637
3368,0.02696808993153066
3369,0.02808478225046955
3370,0.022290724262811687
3371,0.01207539004069727
3372,0.0052650255018226125
3373,0.00882730630114496
3374,0.02243765963266007
3375,0.038064040025794485
3376,0.046358176074086724
3377,0.04414052422403191
3378,0.036151777133107056
3379,0.029711737128962457
3380,0.02767288620251323
3381,0.02647640851897749
3382,0.020863037393459384
3383,0.010126039368945345
3384,-0.0006330662264397784
3385,-0.005583170034666761
3386,-0.004354854894003548
3387,-0.002863525579490806
3388,-0.00765076621487473
3389,-0.01923740331846572
3390,-0.03112823990240846
3391,-0.03556843290027201
3392,-0.030469876316146702
3393,-0.020837557129348254
3394,-0.013609598048877479
3395,-0.011373761522218334
3396,-0.011265223260687778
3397,-0.009703017781251561
3398,-0.007425187248155043
3399,-0.009055551131101122
3400,-0.01745803530494984
3401,-0.029060912021906055
3402,-0.03575522855431279
3403,-0.03221845537404062
3404,-0.021509214680275328
3405,-0.012956898568248216
3406,-0.013875073720176993
3407,-0.0229567437218764
3408,-0.03180595753811391
3409,-0.03312654802685329
3410,-0.027526343302023144
3411,-0.022327106620599488
3412,-0.023782648248958753
3413,-0.030639331967856523
3414,-0.03548924087422114
3415,-0.03244785687610629
3416,-0.023362762999011157
3417,-0.01632933476215182
3418,-0.01802829604847653
3419,-0.02745841118641016
3420,-0.037052390254348755
3421,-0.03976093099775932
3422,-0.03500546413581332
3423,-0.02796568826031822
3424,-0.023574529133527464
3425,-0.02170989455287535
3426,-0.018380691556672678
3427,-0.011230999759160011
3428,-0.003192054842067922
3429,-0.00013080736935390373
3430,-0.004691379011603439
3431,-0.012665993644540723
3432,-0.015928102467419752
3433,-0.009477266463456358
3434,0.004064537383666911
3435,0.016886000461441127
3436,0.02311440406257239
3437,0.02386046163622918
3438,0.025361760697920916
3439,0.03203814146158536
3440,0.04123677851015341
3441,0.044946728462183005
3442,0.037140254102355365
3443,0.01989914470247267
3444,0.0023751087373449237
3445,-0.006797462063352038
3446,-0.006854475999854049
3447,-0.005279194735143012
3448,-0.010761160796451865
3449,-0.025069486526661255
3450,-0.041163179580295424
3451,-0.04917067622102261
3452,-0.04478745695284872
3453,-0.032662987058085825
3454,-0.022124675518101745
3455,-0.019492869289847344
3456,-0.023874784920888785
3457,-0.02955100167711365
3458,-0.031831081259418526
3459,-0.03055168103695668
3460,-0.028452139708827005
3461,-0.02703305114716617
3462,-0.02471674723344487
3463,-0.019198612022882085
3464,-0.011110482067749224
3465,-0.00457855511019621
3466,-0.0035663076637464444
3467,-0.0075866252934199355
3468,-0.011466860106346068
3469,-0.00998014669528955
3470,-0.0030767703037991355
3471,0.003608128192574647
3472,0.003929341149178119
3473,-0.0026668410495269508
3474,-0.01019157376937859
3475,-0.011631209477158162
3476,-0.005786717609277793
3477,0.0014155560381439634
3478,0.0028022417430745095
3479,-0.0026313044595234984
3480,-0.008441441533918813
3481,-0.0073936529557995685
3482,0.00046731574670419137
3483,0.007001841234785493
3484,0.004066139112645122
3485,-0.007437235365662348
3486,-0.017481537900005874
3487,-0.01699914444745837
3488,-0.008174459551597442
3489,-0.0035452324521239686
3490,-0.013612696934643072
3491,-0.035469275855911406
3492,-0.05525674241059136
3493,-0.06311743712688943
3494,-0.06493232879469704
3495,-0.07696529512128149
3496,-0.10761169501400289
3497,-0.14608367813057077
3498,-0.17250542751835785
3499,-0.18069184856567302
3500,-0.18832307574746357
3501,-0.21989250763202145
3502,-0.2777446844157959
3503,-0.33381489631973293
3504,-0.35657380952867335
3505,-0.34856271080069967
3506,-0.3512497403980883
3507,-0.40160447811304306
3508,-0.47695272166673697
3509,-0.4879634398131959
3510,-0.3426626699631198
3511,-0.03529099374454714
3512,0.32097717605719955
3513,0.5586037981449343
3514,0.5742626760919278
3515,0.4059348116661683
3516,0.20420269773478567
3517,0.12224783644645593
3518,0.2153900506110794
3519,0.4260060331795556
3520,0.6509883715876088
3521,0.8215680812165331
3522,0.9283786926210085
3523,0.9867718092565921
3524,0.9933546143550295
3525,0.922478384398498
3526,0.7610567714261335
3527,0.5378393160091842
3528,0.31137068334811413
3529,0.12668209629212562
3530,-0.015805277256158403
3531,-0.14851202390669793
3532,-0.2950839399434676
3533,-0.44082920574608464
3534,-0.5432916673860113
3535,-0.5707882578338417
3536,-0.5309878618906252
3537,-0.4638575009274123
3538,-0.40842135571072097
3539,-0.37543242259013376
3540,-0.3485992031992009
3541,-0.3082484606140283
3542,-0.25233627749123044
3543,-0.1964785297045521
3544,-0.15695925635011043
3545,-0.13556436961859952
3546,-0.12015349292860095
3547,-0.09799037383236059
3548,-0.06753594757701664
3549,-0.038114127616632104
3550,-0.019669158313181508
3551,-0.013521353654453236
3552,-0.012367488130725211
3553,-0.008049383188417768
3554,0.0012145865130859387
3555,0.01065281256139908
3556,0.014879560532109752
3557,0.013490224370912178
3558,0.0110385079699086
3559,0.012071508686735231
3560,0.016564492852943646
3561,0.020241205419634194
3562,0.019158183019153795
3563,0.013737078048031575
3564,0.00816215325987402
3565,0.005843219206911119
3566,0.005677545134887897
3567,0.003097618219356016
3568,-0.004950353103460934
3569,-0.016097937827288564
3570,-0.023934030182553502
3571,-0.023753846661872316
3572,-0.01724993637534354
3573,-0.011403914119056544
3574,-0.012285736025264388
3575,-0.019480511170592893
3576,-0.026482050741169688
3577,-0.026814202552486593
3578,-0.02016255050182187
3579,-0.012727960617250057
3580,-0.011476712347106042
3581,-0.017734698962861457
3582,-0.02612548135888504
3583,-0.029705555677289986
3584,-0.02630276871618669
3585,-0.020107282613046926
3586,-0.017286291131407762
3587,-0.02010668738398881
3588,-0.02524043736267633
3589,-0.02760449124093997
3590,-0.025635234271264525
3591,-0.022680271182223138
3592,-0.02327673026511933
3593,-0.028281662041326698
3594,-0.03390865709131978
3595,-0.03566284343055
3596,-0.033100730717618695
3597,-0.03043413271512154
3598,-0.03222300073912762
3599,-0.038507229530083925
3600,-0.04447292769908457
3601,-0.045227883064737816
3602,-0.0409523010502308
3603,-0.03704958416917342
3604,-0.03882264386776074
3605,-0.045857846221176904
3606,-0.051923839449213666
3607,-0.050882704161826574
3608,-0.0429917030411244
3609,-0.03524709355022646
3610,-0.03508443790668754
3611,-0.04336027852207604
3612,-0.05346969963350904
3613,-0.05757212157915079
3614,-0.05390149590513222
3615,-0.04801669846935005
3616,-0.0468415907354471
3617,-0.05154193531641886
3618,-0.056446519838099035
3619,-0.05509215295377292
3620,-0.04718654517472769
3621,-0.03925269471657118
3622,-0.038102397233272634
3623,-0.04368390990992403
3624,-0.048696437409863944
3625,-0.045642915428419084
3626,-0.03439883197413817
3627,-0.02263591486480851
3628,-0.018459064035767518
3629,-0.02243968927924009
3630,-0.026974701847998918
3631,-0.023712584879665623
3632,-0.011775175475947936
3633,0.0013382391763629398
3634,0.007075413002039527
3635,0.004178520184826219
3636,-0.00014836066483604467
3637,0.002619916180489605
3638,0.013880710639504402
3639,0.02635202500040913
3640,0.030828903509696123
3641,0.024632558639282896
3642,0.013703950523326219
3643,0.00665704365819239
3644,0.006855313295619869
3645,0.010151867535079117
3646,0.010047954531487421
3647,0.004707707099592423
3648,-0.0012712155351601558
3649,-0.0018974038036139974
3650,0.0036926858498281413
3651,0.009938207125945672
3652,0.010122077075201363
3653,0.0029252351617567313
3654,-0.006258396982590992
3655,-0.010494249922198051
3656,-0.00777683970152275
3657,-0.002447045920457628
3658,-0.0003943800615638945
3659,-0.003112178461091781
3660,-0.006659400382349913
3661,-0.006396882686668823
3662,-0.0023584173390360057
3663,0.0005298353114849514
3664,-0.002242914292163997
3665,-0.009477453506059127
3666,-0.01476669733005026
3667,-0.012720068777430704
3668,-0.004774185604898989
3669,0.0015038731158540388
3670,-0.000643450606882415
3671,-0.010624640271085525
3672,-0.02087475800276926
3673,-0.023940881973848856
3674,-0.01939267780896687
3675,-0.013781553390344715
3676,-0.013772662376278217
3677,-0.019393254819246194
3678,-0.024196306426251306
3679,-0.022127437297310093
3680,-0.014062758871812327
3681,-0.0072817449829351896
3682,-0.00830216337880788
3683,-0.016300856024902888
3684,-0.02384496394106255
3685,-0.02429572538845389
3686,-0.01844101055516234
3687,-0.01359772042538327
3688,-0.01599661553965384
3689,-0.024119472523186553
3690,-0.029831380258547903
3691,-0.026370066544945406
3692,-0.015286954411972174
3693,-0.00532498092296522
3694,-0.004178884162507376
3695,-0.011212348740022075
3696,-0.018347459188332735
3697,-0.018260926110651166
3698,-0.011720586738203947
3699,-0.006680082982896338
3700,-0.009937718458534845
3701,-0.01968147116491102
3702,-0.02656693525921096
3703,-0.022627618794110876
3704,-0.009440054730086658
3705,0.002621065653736688
3706,0.003720742187124147
3707,-0.006222521964264275
3708,-0.017281835362750887
3709,-0.018648596246097368
3710,-0.0086343378313705
3711,0.0038353429275265923
3712,0.007583156020678792
3713,-0.0005217913387672202
3714,-0.012940291390285751
3715,-0.018728539344813867
3716,-0.013595849783335254
3717,-0.0032946553695863837
3718,0.002474756835747525
3719,-0.0006057008961503532
3720,-0.007927053170465895
3721,-0.011247585979840186
3722,-0.007212865953002739
3723,-0.0005857185569211182
3724,0.0008282506734234756
3725,-0.005714803521671162
3726,-0.01492027299158626
3727,-0.018535629622008033
3728,-0.013391485003261053
3729,-0.004444067367850283
3730,0.00010549909612264592
3731,-0.003294741840860233
3732,-0.010415635676208837
3733,-0.013812411841393502
3734,-0.01038900810215077
3735,-0.0044179999603003225
3736,-0.0031304439883293594
3737,-0.009398548199030514
3738,-0.018811864548242286
3739,-0.023946628420336943
3740,-0.021464603355562516
3741,-0.015017183908547416
3742,-0.011303199238883389
3743,-0.01350143482389303
3744,-0.01873129907532037
3745,-0.021841761693335633
3746,-0.02124512035722182
3747,-0.020477529542723985
3748,-0.023774533130215547
3749,-0.030441288981347375
3750,-0.034369278134327386
3751,-0.02984264738263913
3752,-0.01796317321821834
3753,-0.006747456844962902
3754,-0.00398902469956561
3755,-0.009559917362511602
3756,-0.015101521326958797
3757,-0.012112444039558412
3758,-0.0007857553056155296
3759,0.00953218073556757
3760,0.009471439488004618
3761,-0.000350896568943944
3762,-0.008852468262264646
3763,-0.004872064023075967
3764,0.011550903811958915
3765,0.028724848525006
3766,0.034831918130782485
3767,0.0298640317966442
3768,0.025084890672968745
3769,0.029773399124091316
3770,0.03913376547784346
3771,0.03737998762257766
3772,0.014405284897910844
3773,-0.02121754297980947
3774,-0.04825820684742943
3775,-0.053706923114774874
3776,-0.04703683677279001
3777,-0.05115725282891533
3778,-0.07762717013102616
3779,-0.11239985848647754
3780,-0.12952725959615274
3781,-0.12037762561458226
3782,-0.10640029366115618
3783,-0.11812512293268855
3784,-0.15990245132116082
3785,-0.19970365351783903
3786,-0.20057999165208618
3787,-0.16433100155893743
3788,-0.1374800539929356
3789,-0.16276325958530524
3790,-0.21848674118063038
3791,-0.21227859544897615
3792,-0.05217360205412322
3793,0.25857761323189515
3794,0.5915935786003181
3795,0.7690301055782761
3796,0.6921825488128732
3797,0.4174143357502753
3798,0.11396786880889498
3799,-0.06176993438453912
3800,-0.07121478436868237
3801,0.003780688752675272
3802,0.05036533979125525
3803,0.02046059933402177
3804,-0.04678237252255683
3805,-0.08121065873741479
3806,-0.05315761243025868
3807,0.005869946408285019
3808,0.04259373277038739
3809,0.034686458694156756
3810,0.005830584143870467
3811,-0.00444933856193485
3812,0.01948269962821439
3813,0.05855018195592146
3814,0.08197339922404659
3815,0.07671257699993671
3816,0.054956640181441446
3817,0.03700523385865775
3818,0.030343413887489852
3819,0.025284142380742385
3820,0.008163784039180336
3821,-0.0234986911611683
3822,-0.05839261299993607
3823,-0.08174911512195765
3824,-0.08746392101356237
3825,-0.08162840149513124
3826,-0.07650956450413839
3827,-0.08173275697317633
3828,-0.09945311918976568
3829,-0.12507182933772237
3830,-0.15061953744187812
3831,-0.16755086262325453
3832,-0.16806471285708385
3833,-0.1461311722953503
3834,-0.09947677013922167
3835,-0.03224055909446551
3836,0.04366418539979598
3837,0.11075024230558714
3838,0.15214949072522416
3839,0.15905646600066534
3840,0.13464055565982463
3841,0.09117470292163385
3842,0.04196661846615178
3843,-0.005916733099014856
3844,-0.052468220185207755
3845,-0.09895000356111447
3846,-0.14137407542395053
3847,-0.16991938241552657
3848,-0.17537168328928632
3849,-0.15683825402363458
3850,-0.1235136841207161
3851,-0.08869255045118207
3852,-0.06131801709950138
3853,-0.04227471458093371
3854,-0.027725303534477913
3855,-0.015137874315633498
3856,-0.005808473628947567
3857,-0.0020644662381819217
3858,-0.0030523020475067314
3859,-0.004162844161029509
3860,-0.0008784110276734416
3861,0.007060212890034771
3862,0.015586473456066518
3863,0.02036464336979897
3864,0.020707693919057357
3865,0.01943993325711895
3866,0.019236059320087647
3867,0.019655593000346194
3868,0.018105896546961417
3869,0.013488729407214458
3870,0.008237200579960427
3871,0.0061758536820799795
3872,0.00830994233511724
3873,0.011191298150785541
3874,0.010023407765487005
3875,0.0036167576161188534
3876,-0.003971962389982842
3877,-0.007167774434777549
3878,-0.00450603971195873
3879,-0.0004546960484452956
3880,-0.0012845636808427288
3881,-0.008817198293109306
3882,-0.018238799681143704
3883,-0.02235437155155643
3884,-0.01831474148039449
3885,-0.010301795921645394
3886,-0.005550166963704172
3887,-0.007619920013600593
3888,-0.013496132664581856
3889,-0.01719216728626502
3890,-0.015989083184000615
3891,-0.012878676813980743
3892,-0.012806920301224678
3893,-0.016818136200127357
3894,-0.020461718508331124
3895,-0.018407061410477134
3896,-0.010584950009661264
3897,-0.0032380019210011797
3898,-0.0032571955430909403
3899,-0.011184731465092836
3900,-0.020048868089513432
3901,-0.02164472340683747
3902,-0.014364020083066621
3903,-0.004830816085217083
3904,-0.0015334544267936166
3905,-0.006603460479825917
3906,-0.01387688271487474
3907,-0.01522094343971192
3908,-0.008843715581806659
3909,-0.001224998864409711
3910,-0.0006226785351997786
3911,-0.008587161537404575
3912,-0.018041591270074445
3913,-0.020021265826555466
3914,-0.012498956565615069
3915,-0.0025304084275471947
3916,0.0005045731609270982
3917,-0.006016347544651595
3918,-0.015447692171921254
3919,-0.018353882979143754
3920,-0.011577063081186598
3921,-0.0010706287611910368
3922,0.0040600815925169
3923,0.00024672634416372666
3924,-0.007619314253377795
3925,-0.01154126926052055
3926,-0.00832908628446752
3927,-0.002111871508805904
3928,0.0007229195345513645
3929,-0.0014158155163585585
3930,-0.0037014371394118476
3931,-0.0003371707352877783
3932,0.008689460748764408
3933,0.0167336462594642
3934,0.016708789782398814
3935,0.008296089060501746
3936,-0.0011552669400696025
3937,-0.00319451726709313
3938,0.00392727814516316
3939,0.013731285056097456
3940,0.01769957070799672
3941,0.013183874644540905
3942,0.00551773824879548
3943,0.0025677565456844386
3944,0.007236743432519798
3945,0.015143362395894443
3946,0.019382653310854238
3947,0.017339048456839815
3948,0.012794211492992936
3949,0.011535106569664753
3950,0.01519296572285949
3951,0.019622479115253614
3952,0.019343643369697426
3953,0.013366052302098757
3954,0.006358641401536722
3955,0.003919946944880015
3956,0.006753452154923933
3957,0.009732130914719743
3958,0.006940472653758746
3959,-0.0022738405608799086
3960,-0.012318875174988362
3961,-0.016531551386600674
3962,-0.013450814062892297
3963,-0.008007540673046366
3964,-0.006493555987056827
3965,-0.010371020644677953
3966,-0.01512137102599084
3967,-0.015239913004233496
3968,-0.010254229505510644
3969,-0.005562317431485829
3970,-0.007097688116602538
3971,-0.015126669143872382
3972,-0.02349769770293912
3973,-0.02528466953701059
3974,-0.01934250849279956
3975,-0.011298495241471522
3976,-0.008005500134540973
3977,-0.010998274878973403
3978,-0.015458444613574665
3979,-0.015603622064908696
3980,-0.010900052242054824
3981,-0.006673019024240651
3982,-0.008439149422576215
3983,-0.01579733711495516
3984,-0.022314208055779716
3985,-0.021792721583441435
3986,-0.014684660484058793
3987,-0.007996372298597558
3988,-0.00845333124893598
3989,-0.015588350735999148
3990,-0.021785972348461986
3991,-0.01956561460294896
3992,-0.009109005259554548
3993,0.0014668937096952537
3994,0.0036257160052623203
3995,-0.0034374527739689225
3996,-0.011966372487039693
3997,-0.013077882274016975
3998,-0.005348012626808691
3999,0.0037683575249467553
4000,0.005109084177614557
4001,-0.0033304723442049034
4002,-0.014386037848906633
4003,-0.01848050231924834
4004,-0.012608358075916174
4005,-0.002944489760542686
4006,0.00126685487664567
4007,-0.003521412275856288
4008,-0.012169225235490789
4009,-0.016229413382436247
4010,-0.01212837136897359
4011,-0.004124722103000301
4012,0.0004923642363867998
4013,-0.0012592513908466565
4014,-0.005661323927639167
4015,-0.006983145829529224
4016,-0.004043380376029845
4017,-0.0016189423514391063
4018,-0.005166503308058654
4019,-0.014407216696667238
4020,-0.022656396214135732
4021,-0.022936667433004772
4022,-0.014866567998712756
4023,-0.005329878360081386
4024,-0.0020953806247074767
4025,-0.006640977334515566
4026,-0.013229546297829202
4027,-0.014973742698332041
4028,-0.010636445302369983
4029,-0.005340007005784369
4030,-0.004718642578487774
4031,-0.008783527694741318
4032,-0.011975285807567869
4033,-0.009370858046770084
4034,-0.002507263420738308
4035,0.0014880032893940403
4036,-0.003042364410186957
4037,-0.01403213149164251
4038,-0.022762782375606673
4039,-0.021654842537827526
4040,-0.011444996970269326
4041,-0.0007888361116935594
4042,0.0014836575716789934
4043,-0.0057803872894414705
4044,-0.015389082795039083
4045,-0.018724567242022906
4046,-0.013536198624468487
4047,-0.005345821866711992
4048,-0.00155016084330354
4049,-0.004270945480887784
4050,-0.008895135391636689
4051,-0.009405468815106888
4052,-0.0048826494833268345
4053,-0.0005431052707657086
4054,-0.0022648195068862196
4055,-0.010162857489567585
4056,-0.0178266949071193
4057,-0.018230020744947804
4058,-0.010588243702681095
4059,-0.0013199187349621862
4060,0.0019789616993251425
4061,-0.002335547032809043
4062,-0.008759427146357185
4063,-0.010447870169228657
4064,-0.005989637565135791
4065,-0.0002097406178608198
4066,0.0015815801009012966
4067,-0.0005295011377611898
4068,-0.001581967679702798
4069,0.00191232156952498
4070,0.007064330644433521
4071,0.007101776866183166
4072,-0.001083283760127759
4073,-0.012850863269441418
4074,-0.020374332900636147
4075,-0.02125562545621568
4076,-0.021341587755790065
4077,-0.027874253766061757
4078,-0.040409125068499835
4079,-0.050541753325379135
4080,-0.052020927610560826
4081,-0.05004541306698554
4082,-0.057629614096597684
4083,-0.08091693597824161
4084,-0.10953649979068905
4085,-0.12512501131041365
4086,-0.12145237447724043
4087,-0.11404889367517163
4088,-0.12546678741413037
4089,-0.15898308832460775
4090,-0.19022545565630397
4091,-0.19089764086988487
4092,-0.16309233368860693
4093,-0.14446515361636336
4094,-0.16894906795350478
4095,-0.2159919618296786
4096,-0.2040494912254808
4097,-0.05060578852056241
4098,0.24395080648861625
4099,0.5654458234035283
4100,0.7484748072151717
4101,0.692117032335783
4102,0.4362793267018667
4103,0.1337719906667868
4104,-0.060425915147605196
4105,-0.09264738797439187
4106,-0.026745239522408162
4107,0.02951199819974394
4108,0.016807462517408292
4109,-0.04165820973259897
4110,-0.08132123728003302
4111,-0.06333976345103592
4112,-0.00485706835353331
4113,0.046723230569300216
4114,0.06152808850355174
4115,0.049752856076016365
4116,0.04341540415953463
4117,0.0619698712639338
4118,0.09654365707152787
4119,0.1236213194047451
4120,0.12950368019345226
4121,0.12050434298104115
4122,0.11230350974054765
4123,0.11297463218198336
4124,0.11728504017194682
4125,0.11537119420236089
4126,0.10413370058034133
4127,0.08915313330351221
4128,0.07665869728923731
4129,0.06545088714073985
4130,0.04758697770357487
4131,0.016753924457360236
4132,-0.024560837554938413
4133,-0.06633804599916265
4134,-0.09942381048301652
4135,-0.1230274940340909
4136,-0.14445123811901628
4137,-0.17150759962548462
4138,-0.20459688351511007
4139,-0.23549959390994096
4140,-0.25390323730538994
4141,-0.2559595413556832
4142,-0.24748229174770436
4143,-0.2390735556235109
4144,-0.2374618577617253
4145,-0.24061114531611993
4146,-0.24077784990364695
4147,-0.2325117799012599
4148,-0.2180257264803648
4149,-0.20474099210552638
4150,-0.1972281274600558
4151,-0.19137730285634474
4152,-0.17691642413704367
4153,-0.14657082766260782
4154,-0.10350099496816492
4155,-0.059752644933572685
4156,-0.02666897836592874
4157,-0.0058939750230085925
4158,0.010749258743410373
4159,0.03250833611211129
4160,0.060457658025619726
4161,0.08647974574597433
4162,0.10112822763116919
4163,0.10244356023619802
4164,0.09711627332573398
4165,0.09322142809404635
4166,0.09220185470932873
4167,0.0883589653342687
4168,0.07626055860624008
4169,0.05818705892106527
4170,0.04350730112211594
4171,0.040064845253382504
4172,0.04602523640754491
4173,0.05060940676455607
4174,0.043527492212563905
4175,0.024240661252608472
4176,0.0021503284379099956
4177,-0.012397201975758585
4178,-0.017457754139269494
4179,-0.020126288370917383
4180,-0.028112336754774814
4181,-0.04089840146150764
4182,-0.04948907062013156
4183,-0.045156588627710825
4184,-0.02856945485248783
4185,-0.010181717424302072
4186,-0.0012558169427755155
4187,-0.0040257692893434826
4188,-0.01034898220245033
4189,-0.009989452710434794
4190,-0.0004749632589727431
4191,0.01083122247886379
4192,0.014118603364037165
4193,0.006583180390778416
4194,-0.0051438301053644215
4195,-0.011595847109720465
4196,-0.00934229351572535
4197,-0.003470122343199422
4198,-0.0016046853279148771
4199,-0.005801827230346033
4200,-0.010554837247039081
4201,-0.008821203997851218
4202,0.00019531567291856478
4203,0.009586564536253138
4204,0.011316091367364544
4205,0.004335922118222837
4206,-0.004032810353701192
4207,-0.005157386937219646
4208,0.0022179404429148205
4209,0.010378748696296387
4210,0.01005644469105802
4211,-0.00021572958510120106
4212,-0.01209119102563962
4213,-0.015037168150793602
4214,-0.006389569644134494
4215,0.005989175666423832
4216,0.011204720484726725
4217,0.005774007564892773
4218,-0.0031980474084685835
4219,-0.005259967235520409
4220,0.0028536732244253426
4221,0.013833837903191305
4222,0.016952546155341378
4223,0.008698993123563672
4224,-0.003644632264902941
4225,-0.009017478112133652
4226,-0.0031987757194301943
4227,0.007465108967381355
4228,0.012740958750445484
4229,0.00870371425622754
4230,0.001194191197730633
4231,-0.0007192089631147566
4232,0.005636069337676741
4233,0.013752512099993529
4234,0.014795597201157428
4235,0.006975656477445462
4236,-0.0022561082108768526
4237,-0.0035288315362846188
4238,0.00500771355596754
4239,0.015720959393994205
4240,0.019058915500491578
4241,0.013075561790160766
4242,0.0053921247975476086
4243,0.0056628090938468005
4244,0.016056595602011788
4245,0.029120955536040657
4246,0.034963481619335976
4247,0.03053660118577453
4248,0.022004260934431658
4249,0.01824313325537567
4250,0.02221587018750988
4251,0.02867206528643944
4252,0.030007304580770527
4253,0.02402946432433498
4254,0.01585586236027174
4255,0.012381005758898132
4256,0.015210753898436662
4257,0.019219895324917344
4258,0.01797732956845765
4259,0.010361249378054434
4260,0.0016761969292928862
4261,-0.0017177669178420963
4262,0.0012624369926719423
4263,0.005479306245446733
4264,0.004840826091809223
4265,-0.0016211753192864299
4266,-0.008957228695602417
4267,-0.011487357188314208
4268,-0.00865485969032036
4269,-0.00561835216135372
4270,-0.007986788130866972
4271,-0.01600633065473294
4272,-0.024081445760562894
4273,-0.026188987971553588
4274,-0.021834224799001503
4275,-0.016596305725379477
4276,-0.01664457799943634
4277,-0.022603171769256317
4278,-0.028841001498094508
4279,-0.028938034098118397
4280,-0.021972736729564162
4281,-0.013442473250397869
4282,-0.009922316893663397
4283,-0.012762482076928828
4284,-0.01706937687557638
4285,-0.016943289208220892
4286,-0.01168183646837732
4287,-0.006656878443902814
4288,-0.007881132814416256
4289,-0.015647202404392425
4290,-0.02367282647637719
4291,-0.024798413149860754
4292,-0.017764710446016945
4293,-0.008447815391303726
4294,-0.00434124829186722
4295,-0.007698691231046355
4296,-0.013991596314427496
4297,-0.0169643198984578
4298,-0.014983288476791874
4299,-0.012204202514578969
4300,-0.01349518760403563
4301,-0.018545361679857278
4302,-0.02151180607681808
4303,-0.016887126826674606
4304,-0.005728147161368659
4305,0.004302652347301101
4306,0.005595968972110007
4307,-0.0023157629522306275
4308,-0.012177083423368817
4309,-0.01562637032238148
4310,-0.010699697525426283
4311,-0.003107261044289082
4312,-0.0003294636874290801
4313,-0.004523612409332723
4314,-0.011085870472584285
4315,-0.013815037951497987
4316,-0.011082117966886736
4317,-0.006793056482525288
4318,-0.005614934892381034
4319,-0.007869418111057482
4320,-0.00955855333158681
4321,-0.007294671086191817
4322,-0.0025770356742658793
4323,-0.0005497219355953634
4324,-0.004362383791880781
4325,-0.01118556157024066
4326,-0.01448588146782406
4327,-0.010666092722962196
4328,-0.0033204317861043413
4329,-0.00034550678125095584
4330,-0.006233214407726538
4331,-0.016993898127353073
4332,-0.023012198953735782
4333,-0.0175977728247294
4334,-0.003356392064194783
4335,0.009670082893404612
4336,0.012516605587444888
4337,0.0047131683004047725
4338,-0.0060121959521025215
4339,-0.011114503935496966
4340,-0.00862828207232357
4341,-0.003879869873033729
4342,-0.0033943403485823488
4343,-0.008251051694651793
4344,-0.013319004813322984
4345,-0.01285056571078321
4346,-0.0067044881202885705
4347,-0.0009498351420097206
4348,-0.0021544893311345303
4349,-0.010857105833734358
4350,-0.020587600785333567
4351,-0.02352134501157626
4352,-0.017501799206676914
4353,-0.007842109262698108
4354,-0.0022909088717232985
4355,-0.004039474160555733
4356,-0.009402124810406491
4357,-0.012143373668624504
4358,-0.009925022926084706
4359,-0.006395240274491633
4360,-0.0069560080101812895
4361,-0.012694221829341004
4362,-0.018826267468968268
4363,-0.019353982551457427
4364,-0.013178916408761364
4365,-0.005330605748509157
4366,-0.00196369413710686
4367,-0.004248867812270556
4368,-0.0074653545494096415
4369,-0.0061916001947035695
4370,-0.0001267876065173362
4371,0.005528307080840239
4372,0.005421306183593469
4373,-0.0005704411015174412
4374,-0.007464268542215476
4375,-0.010363038768314986
4376,-0.009070322642481091
4377,-0.007584699203354235
4378,-0.009726042545451306
4379,-0.01595232745769369
4380,-0.024227419857742842
4381,-0.03276420162094401
4382,-0.0408724233064208
4383,-0.047614499236662694
4384,-0.05150157895011656
4385,-0.05289260162149329
4386,-0.055879165759185626
4387,-0.06533086425640632
4388,-0.08053887248015495
4389,-0.09317265695787842
4390,-0.0947949638812608
4391,-0.08806559197379064
4392,-0.08822573010833315
4393,-0.10899718048842647
4394,-0.14497767488958033
4395,-0.17134073245482417
4396,-0.16717487676021942
4397,-0.14177392611544765
4398,-0.13259803938236409
4399,-0.1668815243012467
4400,-0.21855053406084515
4401,-0.20773156537721282
4402,-0.058434948299825096
4403,0.22603787276516477
4404,0.5377169190634699
4405,0.7224071692764775
4406,0.684668867001982
4407,0.45707997907155506
4408,0.17651135027013992
4409,-0.013953121415062393
4410,-0.05854229951623748
4411,-0.00694322627945021
4412,0.046958832135276546
4413,0.04564844538347104
4414,0.001144959858679762
4415,-0.035823449954387826
4416,-0.03102753378909749
4417,0.005960084378262438
4418,0.0398304140626313
4419,0.047042427780338805
4420,0.034964552175434566
4421,0.0291057877662889
4422,0.046328700340678666
4423,0.080750627144415
4424,0.11208780259870058
4425,0.12443039151340471
4426,0.1173925689539197
4427,0.1026062458285111
4428,0.09231826351404124
4429,0.09077733901568649
4430,0.09326275271652229
4431,0.09060232431939838
4432,0.07489191264671446
4433,0.04368942706784311
4434,0.0013691426707018559
4435,-0.04319698555626033
4436,-0.0819793108605785
4437,-0.11280971122786372
4438,-0.13986924204480827
4439,-0.16874886543910425
4440,-0.2003344437923823
4441,-0.22935518772164246
4442,-0.24911598770204768
4443,-0.257727407400267
4444,-0.2595679379741638
4445,-0.2606436541826609
4446,-0.26284396932543064
4447,-0.26308035908212263
4448,-0.25787327446329084
4449,-0.24799654592926235
4450,-0.23778187890579472
4451,-0.2296823196772118
4452,-0.22018464154408227
4453,-0.20207583210379687
4454,-0.171363398614284
4455,-0.13190500021555618
4456,-0.09274383756094964
4457,-0.06048546551229168
4458,-0.03421917334542694
4459,-0.008003560491513262
4460,0.02177911023441393
4461,0.05189732525715694
4462,0.07530026767387368
4463,0.08845996469107936
4464,0.09509784939743132
4465,0.1020206735150668
4466,0.11119226413470197
4467,0.11657784424644281
4468,0.10980242638268528
4469,0.08951003916926192
4470,0.06486779869060999
4471,0.04888700315613605
4472,0.047298743903113734
4473,0.05355490290836481
4474,0.054958609302364625
4475,0.04419407061960179
4476,0.02525825584800353
4477,0.008368487218960415
4478,-0.0006458864642212728
4479,-0.005618569167696346
4480,-0.014779364261732795
4481,-0.030639522953635846
4482,-0.04578352677570261
4483,-0.04932807511607416
4484,-0.03780773550653733
4485,-0.019446901141991862
4486,-0.007162844451692471
4487,-0.0068670796583042044
4488,-0.012410246992502623
4489,-0.012039563775052414
4490,6.743702130265197e-06
4491,0.017978685231090953
4492,0.03016745520750807
4493,0.02968820034738743
4494,0.01996954597630503
4495,0.010229322624321874
4496,0.006260050236607181
4497,0.005965893904161799
4498,0.003528348696497155
4499,-0.0030108262523626654
4500,-0.009135894917987233
4501,-0.00887350414131998
4502,-0.0017723187094892102
4503,0.005934482711090599
4504,0.007514679586130311
4505,0.0028408156117473793
4506,-0.0012490081966090019
4507,0.0019147531893659476
4508,0.011387348156267223
4509,0.018690958345650932
4510,0.01575708779482336
4511,0.002968506114815748
4512,-0.010816393193484247
4513,-0.01645127940409265
4514,-0.01282639777482383
4515,-0.00706194830510321
4516,-0.006498779743229514
4517,-0.01076967625553853
4518,-0.012225795852493615
4519,-0.00448115216549992
4520,0.009646205835083278
4521,0.019291682582292594
4522,0.015336948040382428
4523,-0.00048311618735669083
4524,-0.016281026658990554
4525,-0.020326910142596737
4526,-0.01138018106574988
4527,0.0007264518949182419
4528,0.004701402403656552
4529,-0.0017006063353520535
4530,-0.010275646861407625
4531,-0.01107144970607397
4532,-0.0023940110805177424
4533,0.00771514220954148
4534,0.00976918265206378
4535,0.002483101946432858
4536,-0.005840450632518545
4537,-0.005515327117799937
4538,0.004898023152838212
4539,0.01703771141338762
4540,0.020735969117496936
4541,0.013669716031309617
4542,0.003273953470185309
4543,-0.000747076714757934
4544,0.004243159994010452
4545,0.011821044056747887
4546,0.013616361193124132
4547,0.00824658751342357
4548,0.0030610309896111285
4549,0.006895919589016236
4550,0.020985836663867587
4551,0.03702099626085943
4552,0.044328393498661536
4553,0.039262939761707596
4554,0.027866250294375096
4555,0.019569385858941746
4556,0.018425683087850378
4557,0.020443474959561614
4558,0.019135806120594873
4559,0.01304843674485075
4560,0.007238210236259376
4561,0.007207451327500085
4562,0.011905642261708232
4563,0.013652897254995584
4564,0.005742783896368497
4565,-0.009800238656223401
4566,-0.022648740148913438
4567,-0.023220724042707905
4568,-0.011892995120040578
4569,0.0008338340903778435
4570,0.0038574912166715286
4571,-0.00430389274691941
4572,-0.01456199841801016
4573,-0.01659907194946145
4574,-0.009319883059580245
4575,-0.0019935281191214007
4576,-0.0048222030982943385
4577,-0.0182542822290438
4578,-0.03178629305590149
4579,-0.03370411937622638
4580,-0.022346854743549277
4581,-0.007854258617518897
4582,-0.0026475147708357855
4583,-0.009905895114370327
4584,-0.02115330442675017
4585,-0.02501457393955789
4586,-0.018308806906650453
4587,-0.008653941000662486
4588,-0.006406804340011742
4589,-0.014257527099200532
4590,-0.024762918345400453
4591,-0.027907358267680593
4592,-0.020869070797322482
4593,-0.010369170095588031
4594,-0.005713206705962905
4595,-0.009839878675460061
4596,-0.01721198949981898
4597,-0.020104507546074856
4598,-0.016436753453801252
4599,-0.011192766806671233
4600,-0.010414324067044255
4601,-0.01438011220818073
4602,-0.017164392081628004
4603,-0.012967500381835466
4604,-0.0025691600879975914
4605,0.006847943977249471
4606,0.008442722632795977
4607,0.002254333202446626
4608,-0.005050900596025185
