,0
0,-0.009703099124845238
1,0.01224927576608709
2,0.037326535224787294
3,0.061954875442480545
4,0.07701064159222856
5,0.0760539964869422
6,0.06202024994329595
7,0.04513396285810267
8,0.03392438650259631
9,0.02830577543508251
10,0.021415740641204495
11,0.008019182744652482
12,-0.00886783599988662
13,-0.019112523837677156
14,-0.012816663494676587
15,0.012427894660083894
16,0.04908634830173768
17,0.0822637079563813
18,0.09538132914564558
19,0.07755734298595451
20,0.030938934362905096
21,-0.02641036537117091
22,-0.06726330913482875
23,-0.07118357486241866
24,-0.039777013205901005
25,0.0022544187291448996
26,0.024587148531170812
27,0.015246578347866364
28,-0.00930622473832008
29,-0.018452699743514156
30,0.004823775546476808
31,0.04697528242508655
32,0.07369023335879177
33,0.05877424610134124
34,0.007016393490620155
35,-0.048870334241249896
36,-0.07416927470425326
37,-0.058429842981868554
38,-0.020881020226975924
39,0.006998888479724419
40,0.005306109380306774
41,-0.02257557371596282
42,-0.05596265977217979
43,-0.07242441012748507
44,-0.06133471350687755
45,-0.029230888987625166
46,0.0035987375537485378
47,0.013940316859485918
48,-0.009404311147736554
49,-0.05467383911091395
50,-0.09075504485116359
51,-0.08798027024734846
52,-0.0426872691104868
53,0.016642380983988743
54,0.05153735073992649
55,0.04711268589448735
56,0.025054857131258938
57,0.020536988364699863
58,0.0446193401389252
59,0.07388838993546658
60,0.08565324443860256
61,0.1065938169349581
62,0.21623285798119987
63,0.479807235957435
64,0.8563852421667018
65,1.1701925514628804
66,1.195726035918149
67,0.8117199221516387
68,0.10778985124596555
69,-0.6491277433793465
70,-1.1744732008511882
71,-1.3357327532111185
72,-1.2074491507766258
73,-0.98032933594482
74,-0.8079055740708381
75,-0.7135651119207573
76,-0.6175766960671782
77,-0.4400939203729505
78,-0.18261256535221876
79,0.07511039787148932
80,0.24490142643205481
81,0.29716481607842143
82,0.27111123453896846
83,0.2317445993030437
84,0.2194719798770947
85,0.23286822808333935
86,0.24761437968383074
87,0.2448232736048081
88,0.223308680695685
89,0.19273085135209816
90,0.16179574354095178
91,0.13387564237634023
92,0.10975936935769234
93,0.09007219430118721
94,0.07401603058370765
95,0.058246582368286164
96,0.03994188980253212
97,0.021643771240167628
98,0.011265710256123497
99,0.01497723615188305
100,0.029236370343801506
101,0.04102096771452628
102,0.0380090679390649
103,0.0198997193561469
104,-0.0005183167774264355
105,-0.008807028221858536
106,-0.0025712045247857154
107,0.006110826421943069
108,0.0028258806439173533
109,-0.013653483376667462
110,-0.028150429698998614
111,-0.022947080149867686
112,0.0032219657861124627
113,0.029398715660409386
114,0.027108280936807033
115,-0.016229064592434513
116,-0.08592407439791594
117,-0.1511381468058534
118,-0.18852769248562817
119,-0.19721577683629288
120,-0.19275685795570954
121,-0.18813482186313424
122,-0.18169538885171072
123,-0.16358711488907202
124,-0.13235021609404513
125,-0.10224607050791389
126,-0.0914566230412698
127,-0.10202694292008312
128,-0.11296859348829258
129,-0.09653081319014573
130,-0.04463082169306436
131,0.019440896985743007
132,0.05704336342448229
133,0.045694713955460806
134,-0.0010902784792462335
135,-0.043172102956272024
136,-0.04451794462520758
137,0.0005512336644097719
138,0.06638398348637448
139,0.1187018009374066
140,0.14029568930342962
141,0.13916545574789801
142,0.13564442391541376
143,0.14259812427135385
144,0.1560601091923718
145,0.16209509492497776
146,0.1512290400338927
147,0.12692157299846557
148,0.10172623704560901
149,0.08610072925125237
150,0.08031864084455997
151,0.07598530522722498
152,0.06482645834379624
153,0.04648949520847448
154,0.02856327871744171
155,0.019050081110604484
156,0.018055967610858682
157,0.01619972766435477
158,0.001648305024929709
159,-0.0296749618210227
160,-0.06922233848347756
161,-0.10082977445918312
162,-0.1121434637840529
163,-0.10354550488280535
164,-0.08743941617166061
165,-0.07850813730381577
166,-0.0828448076967383
167,-0.09452111422802557
168,-0.10173435628843695
169,-0.09684683017301188
170,-0.08211379524763773
171,-0.06737745120255331
172,-0.06285203049832462
173,-0.07309235830080746
174,-0.09549857289600774
175,-0.1221533448132592
176,-0.14237545739491408
177,-0.1456088849244941
178,-0.12597273088047495
179,-0.08757155268892827
180,-0.04575354176038805
181,-0.019867297884957506
182,-0.020004580726867602
183,-0.03791694654620366
184,-0.0516725282877015
185,-0.04260800110458661
186,-0.011022702813046941
187,0.023542178857341764
188,0.03830814726687458
189,0.025319568974797507
190,-0.004328590018223938
191,-0.03205096061201191
192,-0.04588420237432504
193,-0.04353682669445676
194,-0.02510226675269499
195,0.011774069246912709
196,0.06658448920026919
197,0.12949032294442686
198,0.18926346492775276
199,0.25504511817069825
200,0.3672234270726944
201,0.571000772254161
202,0.8588331964884128
203,1.1286790489141785
204,1.2098538021603473
205,0.9605340666279139
206,0.3754920385777868
207,-0.3804346403757849
208,-1.0496308082890866
209,-1.4219257609510674
210,-1.4402648915564211
211,-1.2026012453437513
212,-0.8722637196900741
213,-0.5737615677945246
214,-0.34747396043787404
215,-0.17641222243450772
216,-0.03984384747998307
217,0.05939449136056655
218,0.10801607626239043
219,0.10847773675934823
220,0.08531608298804022
221,0.06651287919181381
222,0.062118470342811455
223,0.06212986807935914
224,0.052905394654633134
225,0.03300540278278832
226,0.013260730545442169
227,0.004402870800767485
228,0.007341086359426388
229,0.015261648528404585
230,0.02245673477634017
231,0.028739076014695584
232,0.035584106601605756
233,0.04059127033783508
234,0.03819419184028813
235,0.026220975193119257
236,0.010408127557850061
237,0.0010135086309834796
238,0.004536455403178798
239,0.01896543009917146
240,0.03705571533900077
241,0.0535913268970627
242,0.06883844212483484
243,0.0850893908108108
244,0.10075055466581556
245,0.10874766046496795
246,0.10121901790627837
247,0.07611716699914861
248,0.03984432857623822
249,0.004055649484329076
250,-0.020476152798292797
251,-0.028845973076566948
252,-0.023841370428474264
253,-0.0147009153233113
254,-0.01332010973127563
255,-0.02855040577246224
256,-0.060716628786451496
257,-0.10011063872675743
258,-0.1320214500098078
259,-0.14619096178585528
260,-0.14410588828252757
261,-0.13805423679605178
262,-0.14201510591538796
263,-0.1612308808871482
264,-0.18858543176361944
265,-0.21036575333537916
266,-0.21648961281185877
267,-0.20725068703121674
268,-0.19213014515823257
269,-0.18259721476908758
270,-0.18465664310635932
271,-0.195884949608655
272,-0.207795226644141
273,-0.21105872867407555
274,-0.2002189411139555
275,-0.1756215137620753
276,-0.14210816064058318
277,-0.1057345888651478
278,-0.07077375664911856
279,-0.0389005273072615
280,-0.010627570667802289
281,0.012941428889417707
282,0.030205455458727215
283,0.04108039825766651
284,0.04855900965087524
285,0.057413184907406725
286,0.07049916106235976
287,0.08604890828217154
288,0.09894272497283647
289,0.1051879982058674
290,0.10543001633017587
291,0.10403728809694804
292,0.10466063031388843
293,0.1066861793514123
294,0.1059540171611991
295,0.09865000553779721
296,0.08426572329759097
297,0.0651066341107511
298,0.04389808552348803
299,0.022714234370769915
300,0.003905185387444281
301,-0.009593131108899026
302,-0.01663074966152669
303,-0.020799666183809892
304,-0.02945356218808213
305,-0.0476768730028553
306,-0.07239706235999799
307,-0.09345527284181021
308,-0.10202580203453271
309,-0.09840831409219879
310,-0.09076453848693858
311,-0.08586913720225314
312,-0.08253150554273492
313,-0.07621130568542654
314,-0.0700076262463927
315,-0.07732553166041126
316,-0.10859588833570699
317,-0.1536300826838298
318,-0.1812044104568575
319,-0.16294231289338085
320,-0.10051213935952047
321,-0.024226048976399465
322,0.04425025390981759
323,0.13092126130656628
324,0.3012985205251223
325,0.5928317990959006
326,0.9378995710215905
327,1.1551958485278417
328,1.0437167419877103
329,0.5263321631308842
330,-0.2653871166943027
331,-1.0411693261121542
332,-1.512491822926743
333,-1.5526626112218074
334,-1.2465285696571349
335,-0.8064085473159369
336,-0.429097173410678
337,-0.19918091457169004
338,-0.09042924836858016
339,-0.03481025153243637
340,0.011705782616651988
341,0.052588724315997384
342,0.07541833094522257
343,0.0791449505835192
344,0.07762069103441085
345,0.08465601503353266
346,0.10186562100915714
347,0.12060555014305605
348,0.1313041400284747
349,0.12854444944823215
350,0.10982347302492297
351,0.07477881753056512
352,0.028740099996090063
353,-0.014668624389068513
354,-0.03902916709834958
355,-0.03682777255526869
356,-0.016244710692991098
357,0.0053056086421939905
358,0.01602173324191968
359,0.018644172240836372
360,0.024470466317203225
361,0.03864260722550744
362,0.05208516195126089
363,0.048852840030024415
364,0.02195339678192839
365,-0.01795488200515383
366,-0.0496277361618446
367,-0.057532542548082446
368,-0.04267891185592189
369,-0.019423463448541598
370,-0.0029683174000089112
371,0.0005613236629600942
372,-0.005747981139576104
373,-0.016331936845786328
374,-0.028774588372762318
375,-0.044000971705584514
376,-0.06337625143344841
377,-0.08718591158574673
378,-0.11544967465776276
379,-0.14829464082336735
380,-0.1840460536661762
381,-0.21729592031737296
382,-0.24076831711796093
383,-0.2510260478177642
384,-0.2528482502313577
385,-0.2568389567650326
386,-0.2709190220602792
387,-0.29297641919598283
388,-0.3118397893782364
389,-0.31616811773815195
390,-0.3030261407394976
391,-0.2779381250022947
392,-0.24658988998265458
393,-0.2069790859268718
394,-0.15086789876445544
395,-0.07430229498751387
396,0.012601433561040208
397,0.08688559081891796
398,0.12573229416599693
399,0.1211874428322608
400,0.0848070887653047
401,0.039124172124824774
402,0.0037064890834406458
403,-0.013388665041830013
404,-0.014614602875024304
405,-0.007009819326595216
406,0.001890700431342351
407,0.004801514212491498
408,-0.004160556714381007
409,-0.025603654077114776
410,-0.05201982481046385
411,-0.07178601113150276
412,-0.07926034336596688
413,-0.08142297239087848
414,-0.09188788664160186
415,-0.11545332263763511
416,-0.13886480779218607
417,-0.14067115342813186
418,-0.11396853869224904
419,-0.07885831594551007
420,-0.06719092512596067
421,-0.08957477464063027
422,-0.11719083622942525
423,-0.10169853955409902
424,-0.018921499623498254
425,0.10747338950589772
426,0.2323621806584189
427,0.3447758135116674
428,0.49264340552642477
429,0.7353311662313375
430,1.0523578959571167
431,1.2942282545899706
432,1.2438314326334172
433,0.7665609702351195
434,-0.06066459744410638
435,-0.9533033608133247
436,-1.5713535971944257
437,-1.716986353197273
438,-1.4360573226463058
439,-0.9569281022477695
440,-0.5251295687712724
441,-0.26286534209145557
442,-0.1451683100222399
443,-0.08117122237446564
444,-0.011998338682549292
445,0.05494989177271951
446,0.08366577238470793
447,0.06443403445938065
448,0.02945464355157098
449,0.021605850025417775
450,0.05463050687996339
451,0.10460287261548859
452,0.13646962482165104
453,0.1359304244044158
454,0.11677079248077286
455,0.10147358869877408
456,0.09798816101097114
457,0.09508290190941932
458,0.07749390635067066
459,0.04330600979190897
460,0.0066301940699203255
461,-0.015133668471684293
462,-0.01580337328969322
463,-0.00337590831772435
464,0.009486036502493534
465,0.01698115001032236
466,0.022927560967652055
467,0.03343172959315329
468,0.04767385064637539
469,0.056123393009160805
470,0.04804001423795219
471,0.021393290757242493
472,-0.013877277945429051
473,-0.04241214033092885
474,-0.05436747090039126
475,-0.05167518561786384
476,-0.044887270512537075
477,-0.04408815082788198
478,-0.05206435653395834
479,-0.06508175959687493
480,-0.07921834573035196
481,-0.09532746035896578
482,-0.11775917715353904
483,-0.14854743465236758
484,-0.1832410786914105
485,-0.2127001528298876
486,-0.22922216602657208
487,-0.23140251455522468
488,-0.22381895478547037
489,-0.2127276940278151
490,-0.2021306167206506
491,-0.19307377257881952
492,-0.1851886138936663
493,-0.1776262920168416
494,-0.16822029693613103
495,-0.15247562799107772
496,-0.12455349100235788
497,-0.08037425576390825
498,-0.020749232602156976
499,0.04770013856531652
500,0.11442750706335944
501,0.16860478370487036
502,0.20286554954352376
503,0.2155428688255892
504,0.2101909918758244
505,0.1924540860862271
506,0.16646604619228772
507,0.13399999811485405
508,0.09734273863307699
509,0.06246544083728396
510,0.03735196767032538
511,0.024864940550445164
512,0.016908409324367837
513,-0.0017472485527206998
514,-0.0401964476668829
515,-0.09053604139287874
516,-0.13240889545878376
517,-0.15177871444024119
518,-0.1558084842582511
519,-0.16553556234826755
520,-0.1893702055640187
521,-0.20366615036612798
522,-0.1649952939071722
523,-0.048258267952551906
524,0.12606326116845756
525,0.3079766358446244
526,0.4674755802753171
527,0.6266204449328018
528,0.8303197327618039
529,1.070073516423224
530,1.2324379108939127
531,1.1394261147455333
532,0.6733568026423639
533,-0.10454969669913516
534,-0.9453211763448034
535,-1.538122113163749
536,-1.688294774536816
537,-1.4205966723313679
538,-0.938478622291878
539,-0.48050761710702294
540,-0.18510608253015226
541,-0.051825123211794326
542,-0.0009452798209787713
543,0.03833806845838905
544,0.0832481774375207
545,0.11400249473398993
546,0.11545616838170686
547,0.09867113794700273
548,0.08904684158456055
549,0.10174272028875096
550,0.13085384837358793
551,0.15889534447070108
552,0.1728920376031084
553,0.17148834139445202
554,0.16041729355986828
555,0.14490009430858558
556,0.12702526805950073
557,0.10816334676313737
558,0.09130888393871646
559,0.08016469409495794
560,0.07648819202247857
561,0.0788461241858344
562,0.08370221667147128
563,0.08729776410496023
564,0.08677860478763122
565,0.08053104757554352
566,0.06836636812101145
567,0.05157030378002007
568,0.032373366556583946
569,0.012976178182706171
570,-0.00507883937509881
571,-0.020855197627931865
572,-0.03398629665409151
573,-0.04530675379817134
574,-0.05738583684896628
575,-0.07332593983890863
576,-0.09367819161306566
577,-0.11411114162918087
578,-0.12715324507657116
579,-0.1280532831485387
580,-0.12013471461406072
581,-0.11400228313501728
582,-0.11976431462195747
583,-0.13825657053811094
584,-0.15937058756133074
585,-0.17004479940351303
586,-0.1656880575766389
587,-0.15494824544442284
588,-0.1529583146132027
589,-0.1682439779608535
590,-0.1943068192459731
591,-0.21307682906984823
592,-0.2073327061513508
593,-0.17190201407685118
594,-0.11527449598623607
595,-0.05196490465416519
596,0.006746034740721427
597,0.05644906352663065
598,0.09697573780469068
599,0.12854126239129998
600,0.1511790461531901
601,0.1668458339161307
602,0.18003309179547172
603,0.1946575783018263
604,0.2099283216359027
605,0.21992729627012797
606,0.21820065457902324
607,0.20335373111162555
608,0.18030057430853175
609,0.15602405672658265
610,0.13402708185907466
611,0.11255444926299696
612,0.08751361174296678
613,0.05657031144084329
614,0.020752326921024952
615,-0.016552398415536337
616,-0.05076406783050935
617,-0.07635246078201849
618,-0.08790263773000401
619,-0.08359266913330439
620,-0.06894271521866203
621,-0.05610635415620034
622,-0.05691563346713878
623,-0.07436487286387566
624,-0.10011190590714501
625,-0.12070246723722149
626,-0.1269972173338635
627,-0.11855606803093705
628,-0.10067349631597478
629,-0.07942970366306983
630,-0.060117364470938656
631,-0.04663341670739429
632,-0.034733636038485505
633,0.0002645206372126549
634,0.10646883322694137
635,0.3316350722398681
636,0.6753788883408366
637,1.0501223675623055
638,1.2930662043381969
639,1.242005844818563
640,0.8360085369867731
641,0.1712117802592381
642,-0.5353967077180983
643,-1.0570933761632753
644,-1.270662289172987
645,-1.1983798927305331
646,-0.9605732006479166
647,-0.685362716305987
648,-0.4441476662763522
649,-0.24770943736010162
650,-0.08368567982652603
651,0.05029876993388295
652,0.14512567836599652
653,0.19944084886878208
654,0.23000713074766604
655,0.25869283458757425
656,0.2904034894997969
657,0.30718557512767
658,0.28668734361821485
659,0.2274212076656486
660,0.15572800922992244
661,0.1070438578809488
662,0.09859959571873456
663,0.11803700018756913
664,0.1367280291980033
665,0.13419329568329663
666,0.11198381642566485
667,0.08728576360266428
668,0.07513008270375107
669,0.0760637187357836
670,0.07831707094882123
671,0.06959886716192998
672,0.04685451245634571
673,0.016841816988122794
674,-0.010397917875191419
675,-0.028223693366426675
676,-0.03558902359784742
677,-0.03531788281905596
678,-0.031658171873610655
679,-0.029017120990238718
680,-0.03136030564132626
681,-0.04111859278710038
682,-0.05773067986534073
683,-0.07718002121853738
684,-0.09357900191995996
685,-0.10234356730575059
686,-0.10315112195846765
687,-0.10067139886907277
688,-0.1021165174652038
689,-0.11251045498203607
690,-0.13037310216451306
691,-0.14703181104756105
692,-0.1510357579203171
693,-0.13563820073830746
694,-0.10440374571913663
695,-0.07042835258782432
696,-0.04889164611922131
697,-0.04776261364702629
698,-0.06320745533201023
699,-0.08282510164301958
700,-0.09387407700204164
701,-0.09010124123674293
702,-0.07256415090927693
703,-0.045217503972604385
704,-0.010226085640931937
705,0.032546350335482775
706,0.08185739668835235
707,0.13137960948052213
708,0.17034004940117572
709,0.18903967351117903
710,0.18532912567591592
711,0.16687150247116103
712,0.14702967796443495
713,0.1370230167344933
714,0.13979735460466552
715,0.14970431562195002
716,0.15771793529989342
717,0.1579332443313369
718,0.15051520881224206
719,0.13943075390520565
720,0.12759684208835487
721,0.11401926479416659
722,0.09550233513788484
723,0.07127120633029807
724,0.046013718152637245
725,0.02798224852165064
726,0.023085702410493434
727,0.029695303038360696
728,0.0387664451466033
729,0.039700550395947845
730,0.02757091459484693
731,0.006055718066847489
732,-0.016130313124749135
733,-0.03219960352992912
734,-0.04187940240890342
735,-0.050075382720656786
736,-0.061205521418325456
737,-0.0744231243202931
738,-0.08400623652084581
739,-0.08459710784426419
740,-0.07670326310144764
741,-0.06752381193214321
742,-0.06599285713042144
743,-0.07575880104901384
744,-0.09170669862450617
745,-0.10302187278126104
746,-0.10070546202420048
747,-0.08388453674825946
748,-0.060108669177453854
749,-0.03953999681290009
750,-0.02777352050851791
751,-0.02293024694711208
752,-0.018798243592097783
753,-0.010549834856273251
754,0.002228656262777467
755,0.01712164379577047
756,0.032029952394341366
757,0.04562760877064101
758,0.0549832320749714
759,0.05490047861776903
760,0.0425690400524021
761,0.024231593088257897
762,0.015402197431557567
763,0.030641821309480455
764,0.07100359168474144
765,0.12421132455518974
766,0.1832321268408679
767,0.2679787578892023
768,0.42305227516386307
769,0.6792031458786744
770,1.0009696822669893
771,1.2672366324058575
772,1.317009379129333
773,1.0434059449861435
774,0.4735338570214548
775,-0.22754266555221841
776,-0.8385727337093953
777,-1.1959787277087193
778,-1.2635690739079148
779,-1.118592942421714
780,-0.8784950601286446
781,-0.6302249667985962
782,-0.40795261494955637
783,-0.21649169952341973
784,-0.06255573129660752
785,0.038466050028694194
786,0.07943080396224532
787,0.07654677852077083
788,0.06270075671414925
789,0.0643331884988255
790,0.08417226629006314
791,0.10504988672285714
792,0.10893188595358325
793,0.0924968811143897
794,0.06698931968912272
795,0.04633750676847509
796,0.03661174156746117
797,0.035006844846477654
798,0.035718603068798184
799,0.03514276372999554
800,0.03266833383070719
801,0.02917477369127662
802,0.026284218978778542
803,0.026149825044748484
804,0.029841224770596517
805,0.0348948683677781
806,0.03555083195230589
807,0.02759772831143108
808,0.014301846676272443
809,0.006904283752818835
810,0.0171922219205454
811,0.0475553252875439
812,0.08754292280079841
813,0.12075889806690349
814,0.13647187775681974
815,0.13584633622476086
816,0.1277977633002399
817,0.11922275960373421
818,0.10924192642480246
819,0.09254149834588085
820,0.06767311604408213
821,0.041414255746822864
822,0.024425917094275454
823,0.02210971681036968
824,0.029259610378306825
825,0.033535665134276485
826,0.024696021234424378
827,0.001615884970161365
828,-0.02837890399770651
829,-0.056295136078061435
830,-0.07790625786073502
831,-0.09468283844048794
832,-0.10964534740638268
833,-0.1229168238858245
834,-0.13119395491568767
835,-0.13109074779918303
836,-0.12270515168276733
837,-0.10998477904683544
838,-0.0977943009817778
839,-0.08857574295767147
840,-0.08148239371804518
841,-0.07428197999663941
842,-0.06585611761493448
843,-0.05696430097197447
844,-0.04888434643730623
845,-0.0415299889565207
846,-0.03292065134439723
847,-0.020499207755871843
848,-0.003232200916961944
849,0.017033362674645773
850,0.03580470296352374
851,0.04763824761267318
852,0.04855154175803941
853,0.03817120078293994
854,0.020581428306518705
855,0.0031202072541504987
856,-0.006689370073991604
857,-0.004565806644130549
858,0.008887066797174705
859,0.0294774263626317
860,0.052645072690097425
861,0.07600520343452602
862,0.09921969667888195
863,0.12165817898380585
864,0.1404221783537802
865,0.15100583995516326
866,0.15034118742411923
867,0.1396047040841782
868,0.12422845458711579
869,0.11098046438146329
870,0.10440406775346167
871,0.10511424856251791
872,0.11052082781505448
873,0.11659341645903762
874,0.11911360962077769
875,0.11419609397398542
876,0.09891752502812629
877,0.07252076831219414
878,0.03752063293004142
879,-0.00039816756610016506
880,-0.034032568674479846
881,-0.057143897871962
882,-0.06671580468747298
883,-0.06424045216050926
884,-0.0555109676643423
885,-0.0484888422796131
886,-0.04955969216026956
887,-0.06004498059898322
888,-0.07567922916223363
889,-0.09010395652761902
890,-0.09987848808824351
891,-0.10650205453906322
892,-0.11335401091258072
893,-0.12069157117554064
894,-0.12444694957514302
895,-0.12090977911973061
896,-0.11254730236177245
897,-0.10776909290707182
898,-0.11321675555982609
899,-0.12585846995372454
900,-0.13396642711627238
901,-0.12753092433702234
902,-0.10802766673897962
903,-0.08678094944557346
904,-0.07268798867518081
905,-0.0619828725876887
906,-0.04105706950088606
907,0.0015902987406299987
908,0.0698942730719062
909,0.16981590244967137
910,0.3215081837689484
911,0.5502963892562702
912,0.8494286266380111
913,1.141731388854295
914,1.284532193863039
915,1.1372430250802708
916,0.6574701760105051
917,-0.044362937431601496
918,-0.7424637914749296
919,-1.210084653972054
920,-1.3362170889552623
921,-1.1670301396798113
922,-0.8515003797187384
923,-0.5398940708153298
924,-0.30943160546782456
925,-0.15805356903722134
926,-0.04937073840012242
927,0.04047128282753769
928,0.1094825170608372
929,0.14727369382096894
930,0.15557225287260681
931,0.15046290690969377
932,0.14868163725950356
933,0.15511482485605155
934,0.16306485284051403
935,0.16352681156421855
936,0.15228150756265232
937,0.12956484804607277
938,0.09680615286605795
939,0.05678441564143129
940,0.01682872366669537
941,-0.011189597563894524
942,-0.017662206957490566
943,-0.004069404059116854
944,0.015227361026901025
945,0.02189262849563412
946,0.006732258449724747
947,-0.02413787713411487
948,-0.055413339890199996
949,-0.07543689656769789
950,-0.08443800882423885
951,-0.09148928212585394
952,-0.1038498206162447
953,-0.11881697087013
954,-0.12525707325739932
955,-0.11297959716519941
956,-0.0815112180850437
957,-0.04114501596098286
958,-0.006315513806232514
959,0.01262115815271369
960,0.013279870250448047
961,-7.238138639434864e-05
962,-0.01964184912731333
963,-0.036059931516678745
964,-0.03978933459662516
965,-0.024465169270009655
966,0.007939759487737296
967,0.044474215999266986
968,0.06584455499680691
969,0.05762792210698185
970,0.020491990473045608
971,-0.029327519078539886
972,-0.07100324157295348
973,-0.09347930615997264
974,-0.10161669333583781
975,-0.10914976944754623
976,-0.12485286604609298
977,-0.14421375353378363
978,-0.15382306528837125
979,-0.1441474403556095
980,-0.11886339987790881
981,-0.0922472773658998
982,-0.07704436529893131
983,-0.07375421968500911
984,-0.07080224492453183
985,-0.05523447507709661
986,-0.024337821969676036
987,0.01198405223147762
988,0.03996405332687311
989,0.05400898521790118
990,0.06135236645448004
991,0.07502152323510519
992,0.10095391684406269
993,0.13048852729165158
994,0.14541289896239892
995,0.13228004620928385
996,0.09438446373056346
997,0.050920196263703955
998,0.023176713418739486
999,0.01879434250660869
1000,0.027223353082443634
1001,0.03008939504117788
1002,0.017111931234787832
1003,-0.006528694989660983
1004,-0.027227405012194686
1005,-0.03665215231609452
1006,-0.038606709465804766
1007,-0.04327323984553065
1008,-0.0561685688432256
1009,-0.07390905483568588
1010,-0.09037138006217238
1011,-0.10469108807118306
1012,-0.12067774312817328
1013,-0.1381255595109821
1014,-0.14755973249973403
1015,-0.13731034373245854
1016,-0.10697568050095552
1017,-0.07126366700308837
1018,-0.04653530329037618
1019,-0.03217003315968415
1020,-0.007742662593682663
1021,0.04811785270393705
1022,0.1365488280095292
1023,0.24068356082757986
1024,0.35260043167679955
1025,0.49394174985948247
1026,0.696491087259623
1027,0.9473786795848624
1028,1.1493783960930553
1029,1.150020664677949
1030,0.83950096800349
1031,0.24956506168266623
1032,-0.43137254425997706
1033,-0.9534577271889769
1034,-1.1492102291402742
1035,-1.022299452845742
1036,-0.7204388462837614
1037,-0.42240337725724164
1038,-0.23012112800190576
1039,-0.13951972648062158
1040,-0.09092017260775591
1041,-0.03910344807433783
1042,0.016770851177316796
1043,0.05382059668716811
1044,0.060981820763664624
1045,0.050881979079686
1046,0.042831697400007585
1047,0.04197704406574138
1048,0.03820589086653602
1049,0.022952187272553905
1050,0.002783728789696943
1051,-0.005485936431290848
1052,0.007953253601967119
1053,0.03516883703455745
1054,0.057154396811998985
1055,0.06059367309193296
1056,0.04834285631908099
1057,0.03497820064671598
1058,0.033413412551279754
1059,0.04530741001138136
1060,0.062134356858278936
1061,0.07340593725883734
1062,0.07393310257283592
1063,0.06549014740409859
1064,0.054086424501551024
1065,0.04634798018505315
1066,0.046920626178398636
1067,0.056882758820759445
1068,0.07310847567851028
1069,0.08919322767019194
1070,0.09806602619859857
1071,0.09504274365296068
1072,0.0795988813164913
1073,0.05513146494435395
1074,0.02712962332351082
1075,0.00042898910555984055
1076,-0.02367077942547833
1077,-0.04871774513726827
1078,-0.08062597892190601
1079,-0.12150974600556035
1080,-0.1646029408370298
1081,-0.19689297557847715
1082,-0.21045574336512
1083,-0.21338760936314852
1084,-0.22739357522825757
1085,-0.26918617853295623
1086,-0.33033707425679404
1087,-0.3770622026005853
1088,-0.376055019131675
1089,-0.3257413600340793
1090,-0.26132928046738996
1091,-0.22319429570132193
1092,-0.2156262002425077
1093,-0.1988263865865978
1094,-0.12891324283799654
1095,-0.010232229471480319
1096,0.09748463117765656
1097,0.13735586662176708
1098,0.13081946696838914
1099,0.18967081956224258
1100,0.42980297797563105
1101,0.8446477544966777
1102,1.251338941538143
1103,1.3788543101073825
1104,1.0514446830223523
1105,0.3309744157747191
1106,-0.4981083155923265
1107,-1.0978624452983643
1108,-1.2767376081615835
1109,-1.0774975493057748
1110,-0.7045571150775058
1111,-0.3660375507535226
1112,-0.15645623507965464
1113,-0.05120626905145457
1114,0.016281409579992984
1115,0.07986570912931998
1116,0.1275159379828228
1117,0.13930079126670594
1118,0.12317389966834714
1119,0.111177350861441
1120,0.1265889117774872
1121,0.160799434403018
1122,0.18363788347312754
1123,0.1742459468248374
1124,0.1404856495277812
1125,0.10942461611775427
1126,0.1010270405374486
1127,0.1114360140948624
1128,0.11983815820630167
1129,0.10936628864596591
1130,0.08132569062736837
1131,0.051438555385365514
1132,0.03465943011369829
1133,0.03375035365992549
1134,0.04027526334162824
1135,0.043973664230940124
1136,0.040337510813342595
1137,0.030668982302787313
1138,0.01736641946767907
1139,0.0008213325261362146
1140,-0.01923200955367301
1141,-0.040704937415673034
1142,-0.05881984074493008
1143,-0.06927356749016333
1144,-0.07153807407776021
1145,-0.06871261424836
1146,-0.06411802250405806
1147,-0.05836494061532568
1148,-0.05007841656534347
1149,-0.039397773809601286
1150,-0.03015130479202093
1151,-0.02776929526107809
1152,-0.034479435365272745
1153,-0.046459833158578906
1154,-0.05600309568515073
1155,-0.056897877782198056
1156,-0.048152814414804554
1157,-0.033077186018975094
1158,-0.01551901764647313
1159,0.0024289436409368308
1160,0.019329384486122578
1161,0.03235658643923359
1162,0.037928396417983144
1163,0.03512207181265517
1164,0.02795689822581758
1165,0.023198986795586057
1166,0.025326555738040633
1167,0.033907018143625275
1168,0.04611877971185736
1169,0.06091784999440975
1170,0.07894188465458561
1171,0.09746601373485068
1172,0.10707814020521227
1173,0.09675889510725377
1174,0.06474577809040083
1175,0.0236613478804732
1176,-0.00837833317589639
1177,-0.024261446982689158
1178,-0.034619019389544974
1179,-0.0546221622857144
1180,-0.08178660562770938
1181,-0.08889592863957033
1182,-0.04396370640732633
1183,0.05969839956332087
1184,0.19564740771094608
1185,0.33204746436942456
1186,0.469160123285006
1187,0.6419472748227222
1188,0.8710665268649813
1189,1.10034694045577
1190,1.187152989856504
1191,0.9778571342313717
1192,0.42580661241861006
1193,-0.3401614670223561
1194,-1.061958981663073
1195,-1.491649031314095
1196,-1.5275112710008993
1197,-1.2521150793172509
1198,-0.8546786626135763
1199,-0.5057657114417462
1200,-0.27666815753596363
1201,-0.1458615565482227
1202,-0.061550440813947636
1203,0.004034052326032881
1204,0.046936743940268755
1205,0.058228319871859474
1206,0.04702724231160989
1207,0.03690689698512557
1208,0.04518075215819757
1209,0.0695536769988492
1210,0.09408180491934905
1211,0.10501002099042306
1212,0.10001991951548221
1213,0.08534026532910804
1214,0.06854874870800742
1215,0.056118061301896116
1216,0.05544553255616578
1217,0.07436721436923283
1218,0.11503941750806057
1219,0.1679195976505038
1220,0.21394713198066445
1221,0.23545973477873638
1222,0.227142547852764
1223,0.1976284965243002
1224,0.1610500270014531
1225,0.1267851241872893
1226,0.09603308067137062
1227,0.06623801654827721
1228,0.03715054395603793
1229,0.012309754059821047
1230,-0.004417370933985723
1231,-0.012752187917263173
1232,-0.016533622447642657
1233,-0.021173290529185956
1234,-0.030951895292962106
1235,-0.047966111978741705
1236,-0.07212963308924686
1237,-0.10112902332694484
1238,-0.13065341947196252
1239,-0.15593312496977874
1240,-0.17423654960060384
1241,-0.18627804539111514
1242,-0.19505243288463864
1243,-0.20319378265091104
1244,-0.21149621722210285
1245,-0.21968314034241054
1246,-0.2276765015741316
1247,-0.23515947051098357
1248,-0.23994168699371624
1249,-0.23801646607468804
1250,-0.2266106931994802
1251,-0.20727333336087916
1252,-0.18461063977447859
1253,-0.16068326404631797
1254,-0.1310922272390445
1255,-0.0887196451898498
1256,-0.03315988591939938
1257,0.023967499232715433
1258,0.0654693615452108
1259,0.08246083546048807
1260,0.08187237236134635
1261,0.07868612835699994
1262,0.08011826157169999
1263,0.07904589995403924
1264,0.06502513083281419
1265,0.04094860457550236
1266,0.024500519375544066
1267,0.029011469349546258
1268,0.04374296524365226
1269,0.03969700161395874
1270,0.0020360836048148
1271,-0.042423279716045946
1272,-0.036885833047804586
1273,0.05742392974612634
1274,0.22190390793918516
1275,0.39439803022505115
1276,0.5296810937241643
1277,0.6461703665005862
1278,0.8015408088181466
1279,1.007634054608239
1280,1.1657270574698546
1281,1.1016477352494594
1282,0.69535926788657
1283,0.004640812198315872
1284,-0.7300246454998223
1285,-1.220924857831781
1286,-1.3118830098726055
1287,-1.0637533768741898
1288,-0.6865505769412443
1289,-0.3824979893244098
1290,-0.22742739751698954
1291,-0.1703297821108263
1292,-0.12401271809525058
1293,-0.05231110725381442
1294,0.01655504138101584
1295,0.04106326704940268
1296,0.017495040313710134
1297,-0.01840221877011141
1298,-0.03059645164835289
1299,-0.01576005111475149
1300,0.002231617698043309
1301,0.004146814894467753
1302,-0.0037134350440839415
1303,-0.0002561435539166837
1304,0.02315587264329439
1305,0.050019346768078406
1306,0.053698890529566765
1307,0.023434641934951983
1308,-0.025470631030471064
1309,-0.06626038876601587
1310,-0.08397118113271504
1311,-0.08444994761919361
1312,-0.08264055141596177
1313,-0.08449481180824578
1314,-0.08134242977033458
1315,-0.06114390634030713
1316,-0.023837697371528882
1317,0.015091450122947499
1318,0.036200470218574324
1319,0.03161892129125919
1320,0.010484099243382542
1321,-0.009556002799418761
1322,-0.016196972816376227
1323,-0.009835120369707176
1324,5.3880158163708766e-05
1325,0.004156180100509074
1326,-0.00048590788627874944
1327,-0.011188158386159703
1328,-0.02419516864554735
1329,-0.037779207550114546
1330,-0.05190220619078155
1331,-0.06674142031251887
1332,-0.08276611970626696
1333,-0.10183265727152183
1334,-0.1264883216670667
1335,-0.15660758613133016
1336,-0.18654797251058913
1337,-0.20695006153215503
1338,-0.21097451997463706
1339,-0.19941483678604172
1340,-0.17921825025502075
1341,-0.15654068085119927
1342,-0.131814614297627
1343,-0.10267408330150732
1344,-0.07153069268342477
1345,-0.047948376015772495
1346,-0.04054616065988903
1347,-0.04569810150385581
1348,-0.04688547441582035
1349,-0.02942444454235113
1350,0.002282609803014247
1351,0.024538410100236906
1352,0.015873955991968516
1353,-0.018908393603387856
1354,-0.04829701678101973
1355,-0.04157044723048792
1356,0.0026740731724989586
1357,0.060271740348941644
1358,0.11950341912137394
1359,0.21392124975468463
1360,0.40418221110424357
1361,0.7076946756186462
1362,1.0338714654363188
1363,1.1965380673434554
1364,1.0194932955864564
1365,0.4680625611766964
1366,-0.29644700771118576
1367,-0.9922521190417866
1368,-1.3760392791519647
1369,-1.373474540939756
1370,-1.0933837749202722
1371,-0.729091006529195
1372,-0.4311648581218669
1373,-0.24240738878002369
1374,-0.12259559487778168
1375,-0.01860618035850691
1376,0.08600100896751751
1377,0.1724197218143935
1378,0.21930149272054306
1379,0.22738534313490177
1380,0.21628495076176787
1381,0.20472020161786383
1382,0.19726177157567368
1383,0.18789507777034456
1384,0.17205915789032955
1385,0.15332656198806208
1386,0.13992107828253586
1387,0.13699609250174696
1388,0.1424160795578277
1389,0.14808710009717652
1390,0.14396893089640175
1391,0.12213161243158827
1392,0.08051191817069828
1393,0.025848797130341692
1394,-0.02687082917998009
1395,-0.06082707472541419
1396,-0.06743355670212418
1397,-0.053043701715487196
1398,-0.03606590046232659
1399,-0.03532687310969949
1400,-0.05795151423795318
1401,-0.09586707331719269
1402,-0.13321409459666295
1403,-0.15833920932231768
1404,-0.17095452903871128
1405,-0.17967088877768406
1406,-0.193074018582752
1407,-0.21216989474812453
1408,-0.2300876217300683
1409,-0.23861654810707172
1410,-0.2357784473956031
1411,-0.22820749199276988
1412,-0.2265322419739317
1413,-0.23751391792077448
1414,-0.2590827254566268
1415,-0.2819511072953866
1416,-0.29627309701915494
1417,-0.2980255364044969
1418,-0.29032728597949964
1419,-0.2791593242126804
1420,-0.2673491883046666
1421,-0.2517598115965542
1422,-0.22578327876354143
1423,-0.1850230477598542
1424,-0.13178278823584494
1425,-0.0751017468992812
1426,-0.026330532726916205
1427,0.006896067913595443
1428,0.02470528586981476
1429,0.034877297194569355
1430,0.04871987225848816
1431,0.07495797672874846
1432,0.11447390301591737
1433,0.15843965706675375
1434,0.19121476617306432
1435,0.19748231349682807
1436,0.17075397686010252
1437,0.11857861958325402
1438,0.06025574650262337
1439,0.016719028236375055
1440,-0.0019208183451895967
1441,-0.0022810575164312332
1442,-0.0014575408221772952
1443,-0.012348346897059811
1444,-0.03246896247370472
1445,-0.04674979666683267
1446,-0.042791908944177406
1447,-0.02442825761290566
1448,-0.009294676106748414
1449,-0.011079265472698361
1450,-0.023840345412698864
1451,-0.026116706305972008
1452,-0.002873266660722412
1453,0.03808754594871233
1454,0.07736229710291179
1455,0.11684374225430533
1456,0.19885862289630016
1457,0.3788782869767908
1458,0.6602579181668646
1459,0.9448635441337998
1460,1.0564470574062228
1461,0.8410500444266041
1462,0.2802106301514343
1463,-0.47028941808338653
1464,-1.1542344183976085
1465,-1.5545734690283308
1466,-1.601957035214178
1467,-1.3821270448084686
1468,-1.0515978257304817
1469,-0.7354809075713564
1470,-0.4801471846876578
1471,-0.2761997386992706
1472,-0.1095291821788433
1473,0.011997601502192708
1474,0.0720843538518594
1475,0.07383663438343147
1476,0.04757390275068872
1477,0.030553576797297803
1478,0.04015674426931813
1479,0.06617069619059104
1480,0.08659972571220251
1481,0.08923979191394615
1482,0.0792383280956159
1483,0.06941989534887359
1484,0.06639320435587005
1485,0.06628557771583202
1486,0.061752322876640016
1487,0.050884017736275156
1488,0.0389227832883044
1489,0.03254273128235734
1490,0.033567590978564765
1491,0.03803971361579954
1492,0.040295483667310984
1493,0.037281399336901694
1494,0.029421646812704767
1495,0.01846836164574986
1496,0.005268097776622612
1497,-0.010575502582143662
1498,-0.029594367710931442
1499,-0.051460574496562606
1500,-0.07480751338630492
1501,-0.09735907532197025
1502,-0.11586326352479001
1503,-0.12635075715967395
1504,-0.12571050290658284
1505,-0.11444342614037345
1506,-0.09854827094050639
1507,-0.08795307113845086
1508,-0.09108399109710077
1509,-0.10883307297956209
1510,-0.13299818111193923
1511,-0.1516629017924636
1512,-0.15821447525291674
1513,-0.15669117419064305
1514,-0.15832645547762514
1515,-0.17161081035985776
1516,-0.1944354789357031
1517,-0.2155557365891499
1518,-0.22419863968039488
1519,-0.2189463774515642
1520,-0.20779842406437296
1521,-0.2000149415133018
1522,-0.1981220091215028
1523,-0.19728906591637763
1524,-0.19083091000939775
1525,-0.17459802922101453
1526,-0.14626673033732623
1527,-0.1035645592668582
1528,-0.04745866825609724
1529,0.01145992905309046
1530,0.05331674465929872
1531,0.0620336699261031
1532,0.04207850716914504
1533,0.02023658938952692
1534,0.02457107508090687
1535,0.057176699742313514
1536,0.08946149774140083
1537,0.09039824973501301
1538,0.06315796890379996
1539,0.05055337219727931
1540,0.09662008175258317
1541,0.1987570460993187
1542,0.3028503268824402
1543,0.356395103906561
1544,0.3723776847964967
1545,0.4334528850298943
1546,0.6147277941391729
1547,0.885658743554159
1548,1.0871143655193367
1549,1.024773100707379
1550,0.6165008389450507
1551,-0.026431392145649855
1552,-0.6580288360105876
1553,-1.0555925244126392
1554,-1.1547692728048542
1555,-1.0619226100457686
1556,-0.9481251033711745
1557,-0.9205733273700687
1558,-0.9699760719774012
1559,-1.01501464233695
1560,-0.9846560903802798
1561,-0.8645028273053639
1562,-0.683830632481916
1563,-0.47699230775253887
1564,-0.2636984738956605
1565,-0.058614455860836294
1566,0.11422152048580354
1567,0.22662583078456217
1568,0.2674407915817466
1569,0.25498186119614397
1570,0.22495755121567435
1571,0.20444433129242295
1572,0.19645893932275704
1573,0.18739611671947395
1574,0.1662749056693132
1575,0.1354356502385609
1576,0.10468568316632565
1577,0.07917325851291995
1578,0.0556858596497639
1579,0.030049444481456085
1580,0.005114413650008066
1581,-0.010885429950796487
1582,-0.013728003066480646
1583,-0.009193864227101
1584,-0.008356930742528919
1585,-0.016957607787027453
1586,-0.030187887911120592
1587,-0.038266356833575474
1588,-0.03671764093584555
1589,-0.030816969567796136
1590,-0.030431332919271834
1591,-0.04143825236647308
1592,-0.06230418230637049
1593,-0.08764554442826902
1594,-0.11314577303553872
1595,-0.1363528356883426
1596,-0.15437308100130076
1597,-0.1636457346749543
1598,-0.16355539739896638
1599,-0.15923273057093137
1600,-0.15834623845422946
1601,-0.1637787497586946
1602,-0.17039653213691192
1603,-0.1707722467761657
1604,-0.16404910010502638
1605,-0.15668633270865726
1606,-0.1520251501233707
1607,-0.1399893582770964
1608,-0.1016070848827211
1609,-0.02823056341351758
1610,0.0635800603187847
1611,0.1409750084245855
1612,0.18376205842378457
1613,0.20506418036788293
1614,0.23852736355825277
1615,0.3003659941483155
1616,0.36583618646514415
1617,0.39200009262992386
1618,0.37206635060118065
1619,0.3654930560426655
1620,0.4596629394252348
1621,0.6819582281596261
1622,0.9386831800524295
1623,1.0487003901054448
1624,0.8625989084095795
1625,0.37848737143779165
1626,-0.24157808080102755
1627,-0.772845130871818
1628,-1.0689308847593963
1629,-1.1349328485846408
1630,-1.085902389111547
1631,-1.0389736938565044
1632,-1.0324950877662147
1633,-1.0275246996979606
1634,-0.9693705285990013
1635,-0.8424895589695376
1636,-0.6741094849225848
1637,-0.4986109762192553
1638,-0.3278253370931664
1639,-0.15558950686686648
1640,0.016350885242555544
1641,0.16476558318885448
1642,0.2599010214624966
1643,0.2924934789371288
1644,0.28378757024036017
1645,0.26797949673096577
1646,0.26451560966984455
1647,0.26647875613023175
1648,0.2540229992090204
1649,0.21765651550034945
1650,0.16876071435204953
1651,0.12909253693713946
1652,0.11124250662563266
1653,0.10886560601622466
1654,0.10450899825566932
1655,0.08623158819347737
1656,0.05743174917108208
1657,0.032009331247373915
1658,0.02062577895608144
1659,0.02094812359989885
1660,0.020095847368432163
1661,0.0062994986938606275
1662,-0.020902515898195452
1663,-0.05063710286590761
1664,-0.07032468461961353
1665,-0.07621034715207325
1666,-0.07573881755908088
1667,-0.08024887658416534
1668,-0.09499652056224406
1669,-0.11548004800437177
1670,-0.132849981116919
1671,-0.14268892135874572
1672,-0.148590723421233
1673,-0.15737124748930842
1674,-0.17111159716489233
1675,-0.18434348997647157
1676,-0.18939511327047992
1677,-0.18444458909159717
1678,-0.17576860038729997
1679,-0.17138320857629596
1680,-0.17220822519458379
1681,-0.16989137910038887
1682,-0.15406633359769487
1683,-0.12225045399563347
1684,-0.08263716883721725
1685,-0.047035306057863706
1686,-0.021134542779135117
1687,-0.0017368367283878286
1688,0.01712471051203767
1689,0.036852300963021514
1690,0.05419614863535306
1691,0.0677669864551857
1692,0.08194513386593172
1693,0.1016534511275874
1694,0.12337726236036192
1695,0.1349815728412868
1696,0.12869612322123247
1697,0.11490256706940966
1698,0.11855093987977045
1699,0.15598226344103694
1700,0.2141876172660232
1701,0.2595161584295008
1702,0.27639787694714724
1703,0.3004456519208612
1704,0.4033907905705019
1705,0.6260760975676145
1706,0.9104698489777956
1707,1.0986858858189332
1708,1.0204702079962962
1709,0.6140016097216862
1710,-0.013744385224337668
1711,-0.6410556911691448
1712,-1.0646676601474363
1713,-1.2137661991306539
1714,-1.1644558149883948
1715,-1.0565044297395731
1716,-0.9881781571213005
1717,-0.9695512352462587
1718,-0.9537234869745965
1719,-0.899335955055406
1720,-0.8039417734508634
1721,-0.6890359004692773
1722,-0.5666889106504149
1723,-0.42799075912636053
1724,-0.262315263411307
1725,-0.08145859657840747
1726,0.08027403780620199
1727,0.1910286337206619
1728,0.24567308362142745
1729,0.2654100992441436
1730,0.27471070692845195
1731,0.27949458833321944
1732,0.2670384817324287
1733,0.22510399110073337
1734,0.15957774441027733
1735,0.09347806668322661
1736,0.04959341580833626
1737,0.03402868555020408
1738,0.03508762653829294
1739,0.03626833094204898
1740,0.02985849500289464
1741,0.01935364705967348
1742,0.01095995083053232
1743,0.004361525695401556
1744,-0.007852482550164505
1745,-0.031982106409780844
1746,-0.06455762482239012
1747,-0.09183425661134612
1748,-0.09867363363754264
1749,-0.07984741131034288
1750,-0.04464673601827831
1751,-0.011056970505017557
1752,0.005943905876502748
1753,0.002919366678355938
1754,-0.012843275892668352
1755,-0.03190071287685124
1756,-0.051110652980710346
1757,-0.07460925372013649
1758,-0.10677739182515268
1759,-0.14397778517711868
1760,-0.17322490217457215
1761,-0.18002037131802504
1762,-0.15936780874786316
1763,-0.12066458617436641
1764,-0.08185414628222039
1765,-0.057101972156692916
1766,-0.04775992851643364
1767,-0.04367485720591045
1768,-0.033168876995165464
1769,-0.012784368086170953
1770,0.011474710833409453
1771,0.031668943117038044
1772,0.04637258965545329
1773,0.06160337372036706
1774,0.08343637793616537
1775,0.11005140518995613
1776,0.13174031797370941
1777,0.13921824317532372
1778,0.1316640823111948
1779,0.11594249272513642
1780,0.09805201638435887
1781,0.076834664020625
1782,0.04777941224794546
1783,0.012707565972834026
1784,-0.017290656044301928
1785,-0.031840909163730974
1786,-0.03426329165094034
1787,-0.04045661538094507
1788,-0.060031937843957134
1789,-0.07852964469070378
1790,-0.06493928235218
1791,-0.0048622425274712595
1792,0.07292985406806714
1793,0.11286122939290477
1794,0.08977225109249853
1795,0.05588394073289499
1796,0.11948331714535435
1797,0.3520799950123243
1798,0.6945643799512007
1799,0.9534600507251423
1800,0.9139511404543696
1801,0.4948851592138642
1802,-0.17662525598292556
1803,-0.8370734589789925
1804,-1.2536181708844647
1805,-1.3580099240417172
1806,-1.250242435721442
1807,-1.085455043819755
1808,-0.9491106583709942
1809,-0.8205164206025077
1810,-0.636232898283629
1811,-0.3784889278895552
1812,-0.10465461358241154
1813,0.10007313715359718
1814,0.19273267566687982
1815,0.19913653120983768
1816,0.18011684265950653
1817,0.17730358332120938
1818,0.18915898859609345
1819,0.1909402343674317
1820,0.1697951425319501
1821,0.13858823060158942
1822,0.11986819943196864
1823,0.12175908735853039
1824,0.13123431896210785
1825,0.12877521518477536
1826,0.10707902509947571
1827,0.07564655294187772
1828,0.04963764885139477
1829,0.03622320163096342
1830,0.031108574778192684
1831,0.025710812486037703
1832,0.015629874372155864
1833,0.002280339149622924
1834,-0.011869550047829712
1835,-0.027907480562789487
1836,-0.050003363856838456
1837,-0.08096583903795747
1838,-0.11869847769932998
1839,-0.156840196372308
1840,-0.1885346752718884
1841,-0.20971792179559187
1842,-0.2194753216142532
1843,-0.21813065398199394
1844,-0.20566507009435925
1845,-0.18228462522448524
1846,-0.15048747348770736
1847,-0.1162157282388794
1848,-0.08725709469394229
1849,-0.06953193119538509
1850,-0.0640458777010604
1851,-0.06700904169906186
1852,-0.07294953894329066
1853,-0.07798075817326075
1854,-0.08038345633670212
1855,-0.07853555365824971
1856,-0.06916200491704949
1857,-0.0487024942406139
1858,-0.01716674893077909
1859,0.01939550716350576
1860,0.05108828057929047
1861,0.07001908370780324
1862,0.07501963680203348
1863,0.07122437875304793
1864,0.06527333256082202
1865,0.06084261409886503
1866,0.05822474031965606
1867,0.0569883263172139
1868,0.05763764531909341
1869,0.06012487806695375
1870,0.06159917831610762
1871,0.05722982893576353
1872,0.04417873228989838
1873,0.024237014064162114
1874,0.0013695254963994943
1875,-0.023483879397409774
1876,-0.05361515895409413
1877,-0.09075181076657486
1878,-0.12821514465816625
1879,-0.1526526767741378
1880,-0.15587950360282732
1881,-0.145548366356283
1882,-0.14084418560230316
1883,-0.1533788114543762
1884,-0.17135600401221918
1885,-0.16615794369820863
1886,-0.11898121144455401
1887,-0.04080617397522161
1888,0.0400283042960615
1889,0.11648588231616055
1890,0.22760082182787253
1891,0.431587335201681
1892,0.7354630105095221
1893,1.0402889494414043
1894,1.164660623199873
1895,0.9511226090584273
1896,0.3855370701161761
1897,-0.3643493538976039
1898,-1.0301850582727716
1899,-1.3917421437889368
1900,-1.3891239276659324
1901,-1.1258540580543634
1902,-0.7758034541607002
1903,-0.4734995881722489
1904,-0.2637158643879086
1905,-0.12547116355875254
1906,-0.02671713411084902
1907,0.043323919355320685
1908,0.08059023413581674
1909,0.0880368465906694
1910,0.0828760054072038
1911,0.08329231482542598
1912,0.09280680043729189
1913,0.10032931086945245
1914,0.09452215560750908
1915,0.07607155367132576
1916,0.05586803638381234
1917,0.043323115553009384
1918,0.03836439233897123
1919,0.034436499896748664
1920,0.02706045816914688
1921,0.01766864261871475
1922,0.009442148556138515
1923,0.001402505305145258
1924,-0.011703484408442419
1925,-0.03355733031941535
1926,-0.06123871707490437
1927,-0.08667185541066921
1928,-0.10294806910123028
1929,-0.10891024987613337
1930,-0.10780849494372796
1931,-0.10244825388501644
1932,-0.09265850668013637
1933,-0.07776382982272145
1934,-0.06087600193718788
1935,-0.049602246840609265
1936,-0.051372304113287026
1937,-0.06717344103239986
1938,-0.08948411273660113
1939,-0.10678027164685527
1940,-0.1113901861349815
1941,-0.10463628206211704
1942,-0.0953919766164794
1943,-0.09340554549086476
1944,-0.10271401247851283
1945,-0.12009354906274593
1946,-0.13917517863978623
1947,-0.15614748210644291
1948,-0.17182736549192826
1949,-0.1883715569080213
1950,-0.2040334883255952
1951,-0.21143962012586678
1952,-0.20173071435211054
1953,-0.17134722805147073
1954,-0.12555324994790498
1955,-0.07567258995693284
1956,-0.03262273351846107
1957,-0.0021097375994543915
1958,0.01569181583678616
1959,0.02378678757727571
1960,0.026683122766345747
1961,0.029978702704695902
1962,0.03888367744374041
1963,0.054564863754108045
1964,0.07132602882504978
1965,0.07897341736676072
1966,0.07019427760557997
1967,0.046711548077503565
1968,0.017867531137362776
1969,-0.007364744074968941
1970,-0.026742519093534506
1971,-0.04295650727017916
1972,-0.0567267925984184
1973,-0.06434513164027185
1974,-0.06391769362814392
1975,-0.06251589231099153
1976,-0.07247567565404134
1977,-0.09654757710706761
1978,-0.11722513050407729
1979,-0.10577749240580149
1980,-0.04650079704125597
1981,0.04876163338083159
1982,0.1559757142080937
1983,0.27277165214184884
1984,0.43190070079022463
1985,0.6662167585374544
1986,0.945039432320762
1987,1.1431175692925768
1988,1.091136376480299
1989,0.6903830793317667
1990,0.008882480580138245
1991,-0.7247392009037561
1992,-1.2401962554545822
1993,-1.3784868065305336
1994,-1.1711218416092781
1995,-0.7950213995405566
1996,-0.44674720585974187
1997,-0.23260776582010156
1998,-0.1441089508741417
1999,-0.11290584569294079
2000,-0.08330664148506697
2001,-0.04460678684252468
2002,-0.013827197770502623
2003,-0.0019970621282202894
2004,5.3534583873660405e-05
2005,0.009312323421933742
2006,0.03139498844353167
2007,0.055658275039275645
2008,0.06697416630656808
2009,0.06007713501233935
2010,0.04290456990900085
2011,0.028199415191861144
2012,0.02314874365064405
2013,0.026255025423057417
2014,0.03235634269281733
2015,0.03969080502545941
2016,0.052371835495887684
2017,0.07626500194967498
2018,0.11162974994779788
2019,0.14854271273608455
2020,0.16970038691535452
2021,0.16026157826378545
2022,0.11864540112810246
2023,0.060005152188549744
2024,0.008371436953586909
2025,-0.01796486776795265
2026,-0.01726769428772773
2027,-0.003263933335527069
2028,0.006391732983555302
2029,0.002213765050705396
2030,-0.013920507059243945
2031,-0.03520201446640389
2032,-0.05804422785909416
2033,-0.08369047960887112
2034,-0.11270566839557247
2035,-0.13945677106660542
2036,-0.15361383154879493
2037,-0.14823327448135332
2038,-0.12687315969952168
2039,-0.10260934473613356
2040,-0.08927448252763184
2041,-0.09236739403231205
2042,-0.10709782159575877
2043,-0.12423024525866153
2044,-0.13748259707737506
2045,-0.14565038659741936
2046,-0.14848756896533874
2047,-0.1417560001718794
2048,-0.11762662441335664
2049,-0.07116393813969939
2050,-0.007214389540234471
2051,0.059227633892730884
2052,0.1108396603075046
2053,0.1384709830464506
2054,0.1461247048499767
2055,0.14649078717594965
2056,0.15072806195609537
2057,0.1607002172530627
2058,0.16952320301201051
2059,0.16923388262013508
2060,0.15865663299846455
2061,0.14478619604573742
2062,0.13669707154346264
2063,0.13720074810375577
2064,0.13921474231291603
2065,0.13001318331013742
2066,0.10046732788000873
2067,0.05266398493188192
2068,0.0003709608169582294
2069,-0.03834131557947082
2070,-0.05176541930613533
2071,-0.04163706465441551
2072,-0.021846164610916118
2073,-0.009361685257895153
2074,-0.013309949329157526
2075,-0.029756527759682665
2076,-0.04594862994407728
2077,-0.0508008000818919
2078,-0.043452864868517585
2079,-0.0331380193848971
2080,-0.030773177114803627
2081,-0.03978190906825793
2082,-0.054262961671363734
2083,-0.06577134511597205
2084,-0.07178195245898009
2085,-0.07728527848572478
2086,-0.08792238596814475
2087,-0.10203821205863813
2088,-0.1107751659818117
2089,-0.10730799483657971
2090,-0.09614014778119209
2091,-0.0918525455802737
2092,-0.10660521907885026
2093,-0.1377728960256408
2094,-0.16851860898800583
2095,-0.18197866231144483
2096,-0.17553627410247685
2097,-0.1605851732062076
2098,-0.1479030718665444
2099,-0.1347563699216593
2100,-0.10918516268888828
2101,-0.06784321333530097
2102,-0.025422539200868104
2103,0.001893642717885273
2104,0.028830241354585003
2105,0.11425552194020247
2106,0.32741664725596725
2107,0.6799491312062727
2108,1.0766731645097123
2109,1.3373315660177325
2110,1.2915662334284244
2111,0.8881450809447236
2112,0.23973970514268045
2113,-0.432721811600501
2114,-0.9191943308000782
2115,-1.1219303992949234
2116,-1.0767859102357704
2117,-0.8952198367891963
2118,-0.6819382256188221
2119,-0.48767912046946416
2120,-0.31631910825942705
2121,-0.1604466195491448
2122,-0.026385030097757948
2123,0.06870456882790546
2124,0.1152711121265185
2125,0.12248416326256782
2126,0.11187523281016856
2127,0.10198657114075978
2128,0.09873076613270218
2129,0.09762823837224935
2130,0.0924459124921495
2131,0.0813309985025868
2132,0.06687585866537593
2133,0.052961477888250744
2134,0.04247464151846672
2135,0.03692004172337437
2136,0.036419649924744175
2137,0.039204718265196115
2138,0.041619855128185224
2139,0.0398311193795359
2140,0.03250577463784474
2141,0.022117534253707716
2142,0.013317969969072559
2143,0.00940625226206751
2144,0.00979892493906134
2145,0.010714027534103224
2146,0.008565399313474612
2147,0.003110189529403656
2148,-0.002653210208823966
2149,-0.006180577799808824
2150,-0.009559379242897409
2151,-0.019780311686806655
2152,-0.043363708768776404
2153,-0.07875734183613034
2154,-0.11329717529342193
2155,-0.12927884338998835
2156,-0.11643054140271356
2157,-0.08152783794416882
2158,-0.04644885440894417
2159,-0.03449046053215921
2160,-0.05465158647902816
2161,-0.09602057562329608
2162,-0.13655036547565497
2163,-0.1587974318923277
2164,-0.15989508708323694
2165,-0.14876961844159003
2166,-0.13497246755213216
2167,-0.12009141956794764
2168,-0.09891953805704941
2169,-0.06766621657417952
2170,-0.030150907909253497
2171,0.004221375905504856
2172,0.02831161702905461
2173,0.04290250694362674
2174,0.054706220414376824
2175,0.06902192180790447
2176,0.08443583073353086
2177,0.09460607204837673
2178,0.09505642876753871
2179,0.08813410339208069
2180,0.08131237926213547
2181,0.08055116677561955
2182,0.0850233026000387
2183,0.08797045030728273
2184,0.08261850680603745
2185,0.06767367900979837
2186,0.04784226886208849
2187,0.029657573859883032
2188,0.01678016757420564
2189,0.008520189716207348
2190,0.0017913481222142625
2191,-0.0060365005155803425
2192,-0.015566485119503981
2193,-0.025215323793809336
2194,-0.03172765620062663
2195,-0.0315673580090286
2196,-0.02385753688472017
2197,-0.01365066376000816
2198,-0.011831166639178922
2199,-0.02892541346769424
2200,-0.06563457254114584
2201,-0.10821077745561633
2202,-0.13513299421226838
2203,-0.1321230396722906
2204,-0.10349296610289968
2205,-0.06911159684866112
2206,-0.04869306702123827
2207,-0.04725622595595198
2208,-0.054452296162009646
2209,-0.05580428758775767
2210,-0.04084174885956662
2211,0.0027250755324527247
2212,0.10028630805432734
2213,0.28490147583689296
2214,0.5643593895399537
2215,0.8810671474589377
2216,1.106120041380912
2217,1.092728342031857
2218,0.7665586368044114
2219,0.19086972837595823
2220,-0.44817801896373644
2221,-0.9353534962503471
2222,-1.1385919283836927
2223,-1.0645933983435638
2224,-0.8266647362015724
2225,-0.5586856727190463
2226,-0.34171952344569434
2227,-0.18757511566237461
2228,-0.07204702215992682
2229,0.02387172069233056
2230,0.09923891871587912
2231,0.1458966223122568
2232,0.16527749922174523
2233,0.1698956710666329
2234,0.1715700325952993
2235,0.17219803777587422
2236,0.1668976104069833
2237,0.1539162978596743
2238,0.13902344597226524
2239,0.12996851725584807
2240,0.12834096385846325
2241,0.12841748808319628
2242,0.12395112946529006
2243,0.11494418612687687
2244,0.10700501600123258
2245,0.10444166400712201
2246,0.10490778926797183
2247,0.10132123184795153
2248,0.08893760429069081
2249,0.0704442759708264
2250,0.054372627708984274
2251,0.04863580421647802
2252,0.054891535974114405
2253,0.06778725914192409
2254,0.0787030014989509
2255,0.08070854315442008
2256,0.07163969564352263
2257,0.054026772292746564
2258,0.03236854116394361
2259,0.009536352922861646
2260,-0.015182414892399979
2261,-0.04459508159073524
2262,-0.07948155729434493
2263,-0.11550030251447826
2264,-0.14475665350154665
2265,-0.1617128351954366
2266,-0.1684458358797957
2267,-0.17381607855364867
2268,-0.18625075949190065
2269,-0.20608347579529754
2270,-0.22442314388850582
2271,-0.2298242582742392
2272,-0.21689537217307722
2273,-0.1893858033918679
2274,-0.1557287755657225
2275,-0.12195706990062344
2276,-0.08855191531544876
2277,-0.05305097802572795
2278,-0.014505560510301628
2279,0.025034919353584786
2280,0.06271083636270433
2281,0.09734134701299524
2282,0.12919896912769868
2283,0.15782116221519146
2284,0.1810122710187913
2285,0.196477855238959
2286,0.2040563610511841
2287,0.20568609796138687
2288,0.20313638577005647
2289,0.1965299712372121
2290,0.18585620559488913
2291,0.17368493822209494
2292,0.1649745484283063
2293,0.16262549092906953
2294,0.1628074420902728
2295,0.15591854808215633
2296,0.13425930083840806
2297,0.10024101625950246
2298,0.06686712590284888
2299,0.048501882638510574
2300,0.049254392007410525
2301,0.05949653678005862
2302,0.0642580309851577
2303,0.05632186195990457
2304,0.04211888769345385
2305,0.0348806089751441
2306,0.04133091026652842
2307,0.05440884613564716
2308,0.05907355541772444
2309,0.046055424312957935
2310,0.02086600351943451
2311,-0.00038377242447287536
2312,-0.004666290306500327
2313,0.007186195648420034
2314,0.02218738170585066
2315,0.027322532522810118
2316,0.020567952446565063
2317,0.010803026720049414
2318,0.007449400086493471
2319,0.010362482453601702
2320,0.009877539865262451
2321,-0.003164971404866641
2322,-0.027247729060090042
2323,-0.04970910281901398
2324,-0.05648575116100983
2325,-0.04308534892146352
2326,-0.017145916652309565
2327,0.008792495727550705
2328,0.026855241784553743
2329,0.03720179190463821
2330,0.04355975409500633
2331,0.046841314922400804
2332,0.04376284726168672
2333,0.03164135410227407
2334,0.014212207160085873
2335,0.0023287013812978933
2336,0.008037805210580003
2337,0.036131992158341675
2338,0.07927936545102693
2339,0.12038082722687585
2340,0.14121151193472858
2341,0.13250569044769933
2342,0.09934542631968815
2343,0.05798954372115662
2344,0.025695171118778656
2345,0.010592506426576201
2346,0.009460257020226001
2347,0.015035367753574905
2348,0.025599414282268952
2349,0.04679263102352723
2350,0.08349113986545967
2351,0.13162848529375695
2352,0.1826701953227611
2353,0.24069400147629263
2354,0.3341001930708054
2355,0.5009131057821197
2356,0.7476839725287594
2357,1.0120036357973974
2358,1.1680708020331019
2359,1.0877998646996534
2360,0.7238568010613697
2361,0.15514281182234685
2362,-0.4437981039290667
2363,-0.8931456475472446
2364,-1.097058068907648
2365,-1.0737010700472873
2366,-0.9149894771456146
2367,-0.7160203362736742
2368,-0.5280588478636182
2369,-0.35929729427677437
2370,-0.20525226191220003
2371,-0.0727259125757898
2372,0.022073382862946484
2373,0.07118974267532974
2374,0.08524289311835793
2375,0.08538256794914562
2376,0.086610528271379
2377,0.08976037451930349
2378,0.08836867425139563
2379,0.08084978656714281
2380,0.0744286903392337
2381,0.07767603565634792
2382,0.09091788622464969
2383,0.10533281493686397
2384,0.11170760136215793
2385,0.10965725150082126
2386,0.10795244102126515
2387,0.11582998764508659
2388,0.13395418465984243
2389,0.15353638536449668
2390,0.16392375102674353
2391,0.16121110547151568
2392,0.15027281732709225
2393,0.13934098787472626
2394,0.13290221037024208
2395,0.12925662933432308
2396,0.12393032965947237
2397,0.11475065646246704
2398,0.10367845697449324
2399,0.0943454328292913
2400,0.08839806407842517
2401,0.08429277160195078
2402,0.07917597575078111
2403,0.07135628495328925
2404,0.060754197481235644
2405,0.04737675103212564
2406,0.030253020281870165
2407,0.00875651240091627
2408,-0.014679067358017023
2409,-0.03365963575210652
2410,-0.040892000553534036
2411,-0.03365687194166742
2412,-0.01725166628145703
2413,-0.002880556705107195
2414,-0.0008080710488352705
2415,-0.013704617153099214
2416,-0.03529004834099794
2417,-0.05526972910460684
2418,-0.06656894910702627
2419,-0.06923263538704366
2420,-0.0683919740296665
2421,-0.06869558199115275
2422,-0.07025339275247297
2423,-0.06933786404697495
2424,-0.06266106434173549
2425,-0.05100757541124999
2426,-0.038913772715584036
2427,-0.030872350594887306
2428,-0.027650964036987895
2429,-0.02600475339282591
2430,-0.021830977889026753
2431,-0.013763840245025735
2432,-0.0040742137586546705
2433,0.003588018158505122
2434,0.007263802603320596
2435,0.007853959449813172
2436,0.007806155230213455
2437,0.009052040673099435
2438,0.012188192937570497
2439,0.017173421612158894
2440,0.024216894541725136
2441,0.033780807352002576
2442,0.046141119622396684
2443,0.06161128433999544
2444,0.08131238602984561
2445,0.10683448816273111
2446,0.13774800885956393
2447,0.16881023974692133
2448,0.19067431072307545
2449,0.19565553262841778
2450,0.1846399913323113
2451,0.16810371352353407
2452,0.15818150967456085
2453,0.15757039769922063
2454,0.15608431004410883
2455,0.14008655517453375
2456,0.10732092708873511
2457,0.07228631761657249
2458,0.054605096950559935
2459,0.05980675312450333
2460,0.07179120824371621
2461,0.06682708515914178
2462,0.03730375599551131
2463,0.0014199578518366718
2464,-0.012589680475789036
2465,0.007760174885215999
2466,0.05211940860984109
2467,0.10966537824263814
2468,0.1970809773282902
2469,0.35370396188431913
2470,0.5926852596312605
2471,0.8461279813451096
2472,0.964578346410712
2473,0.7961659992138312
2474,0.30063834917848986
2475,-0.3898163288670672
2476,-1.0222830603290831
2477,-1.3624647474263387
2478,-1.3260074252036673
2479,-1.0101164253725163
2480,-0.6103230460407912
2481,-0.2921454927666436
2482,-0.11147860741675457
2483,-0.02690925789341806
2484,0.02873093104138426
2485,0.0867514626504178
2486,0.13444133794568291
2487,0.14910626156787415
2488,0.13099821348922097
2489,0.10480560581205589
2490,0.0958511956235174
2491,0.10922708282595871
2492,0.13096705771860817
2493,0.14544310095370638
2494,0.14927980998075197
2495,0.14991173049320666
2496,0.15424153981265412
2497,0.16098811799404983
2498,0.163447733737142
2499,0.15756133494467173
2500,0.14608791066057394
2501,0.13560051343645158
2502,0.13077692912624583
2503,0.1318880580701553
2504,0.13659598589775113
2505,0.1426150076472812
2506,0.1481791560679359
2507,0.15094292694416767
2508,0.14796171444053519
2509,0.13760114267364038
2510,0.12127108268122422
2511,0.10258575473910472
2512,0.0843431351088186
2513,0.06633494433662254
2514,0.04637491611990137
2515,0.023621647535918833
2516,0.0007734074511141363
2517,-0.017325533600266244
2518,-0.027644233291974414
2519,-0.03193477416256482
2520,-0.03603190533803736
2521,-0.04615836309200577
2522,-0.06549671337025843
2523,-0.09371646240528317
2524,-0.12912368676447014
2525,-0.1706242377948995
2526,-0.21714570741017197
2527,-0.26506878581649373
2528,-0.30670387047927195
2529,-0.33235346386210984
2530,-0.33525834368808505
2531,-0.31568424397644923
2532,-0.2805793591901885
2533,-0.2387936171098628
2534,-0.19572604740679167
2535,-0.1518172988633456
2536,-0.10577200084798122
2537,-0.058907755166252795
2538,-0.015875939107051755
2539,0.01943663683032272
2540,0.04889553245735056
2541,0.08039973525572182
2542,0.12173838411834174
2543,0.17255451526328872
2544,0.22170298641684025
2545,0.25345189785003613
2546,0.25843409220555824
2547,0.2406434848725354
2548,0.2145170083527841
2549,0.19423040136041597
2550,0.1838493113997406
2551,0.17620418106105776
2552,0.1609285945873688
2553,0.13446951348736141
2554,0.10358490578856608
2555,0.07976726389209118
2556,0.06979614284765509
2557,0.0705301054238104
2558,0.07193844545197195
2559,0.06524052927224508
2560,0.04913379121020575
2561,0.02943123951872807
2562,0.013387088743273007
2563,0.004119196914107299
2564,-0.00043703960865409
2565,-0.004177350081331958
2566,-0.008917732437450558
2567,-0.013486339427330674
2568,-0.01597836964165561
2569,-0.016369800595584426
2570,-0.016825461004866142
2571,-0.01967422993785225
2572,-0.02527303500567131
2573,-0.031752407601837646
2574,-0.036569605896756445
2575,-0.0382459697291606
2576,-0.03702934580979965
2577,-0.0346168080777583
2578,-0.0336603589873288
2579,-0.03708187297721778
2580,-0.04663191332326426
2581,-0.06096682734980112
2582,-0.07504458586871895
2583,-0.0825818886118926
2584,-0.08071274126844073
2585,-0.0730150669703943
2586,-0.06726828141041435
2587,-0.06859264366060662
2588,-0.07347473357699673
2589,-0.07058531110478697
2590,-0.04894592072034446
2591,-0.0073235179305605625
2592,0.042975814187600464
2593,0.08451984141565891
2594,0.10439321757527233
2595,0.10097453281314986
2596,0.08258730966284689
2597,0.06055556730280168
2598,0.042726891524897254
2599,0.03144841406546517
2600,0.025411539058191754
2601,0.022324226758398652
2602,0.020362099164024053
2603,0.018434302904288574
2604,0.01597832181514272
2605,0.01245026491127026
2606,0.006630765133768812
2607,-0.0033801860581581184
2608,-0.018684504939627353
2609,-0.03758518911904077
2610,-0.055526574228094525
2611,-0.06806443969910303
2612,-0.07435042182304231
2613,-0.07704730031275117
2614,-0.07802857919831269
2615,-0.07466579567431625
2616,-0.06223753220611075
2617,-0.04149434976630313
2618,-0.022983839037559635
2619,-0.02074740172829264
2620,-0.0386586837582075
2621,-0.06238744519959968
2622,-0.06664912887617347
2623,-0.03203913072986796
2624,0.045759611220926116
2625,0.16447483657337358
2626,0.33022933536797316
2627,0.5551430028536024
2628,0.8279172088071842
2629,1.0799751255539463
2630,1.1876912166347378
2631,1.0302543435617384
2632,0.5741542991598756
2633,-0.07838490344731941
2634,-0.7230922902758021
2635,-1.156257947275451
2636,-1.2790214939328644
2637,-1.133690966863001
2638,-0.8542575299818208
2639,-0.5755139883389956
2640,-0.36733478622605253
2641,-0.2296889978637668
2642,-0.1322301308439201
2643,-0.054675727239816396
2644,0.002278849043087325
2645,0.031924568478474885
2646,0.038213874392678
2647,0.03676468463780558
2648,0.043201842920425164
2649,0.06322468374166619
2650,0.09296509043346121
2651,0.1257460059939962
2652,0.15662187329619626
2653,0.18176536734818777
2654,0.1968238492947132
2655,0.19840042798065766
2656,0.18727782660562187
2657,0.16879844882894413
2658,0.14899265339998796
2659,0.13035019994534186
2660,0.1118018377984038
2661,0.09261502039054927
2662,0.07533739076427104
2663,0.06407680447352483
2664,0.05991499654358912
2665,0.05868904451382262
2666,0.05381925270335848
2667,0.041336466336878964
2668,0.02207499843605408
2669,-0.0005429000635002791
2670,-0.023793084287341955
2671,-0.046001530915481585
2672,-0.06414476163339695
2673,-0.0728231619563592
2674,-0.0675629893706676
2675,-0.050167022717136404
2676,-0.030447584793755863
2677,-0.021319568980430414
2678,-0.030561243520000052
2679,-0.056053833039203874
2680,-0.08826625123839026
2681,-0.11720622849597181
2682,-0.13758050925268012
2683,-0.14868435555665058
2684,-0.1512197599741223
2685,-0.14573383858953848
2686,-0.13436909775071798
2687,-0.12288146568692326
2688,-0.1189419156053439
2689,-0.1268209214591529
2690,-0.14322637268317404
2691,-0.1589629568793447
2692,-0.1657537761462658
2693,-0.1622062394665234
2694,-0.15317608134061633
2695,-0.14293819804046798
2696,-0.12887203893907984
2697,-0.10250618414897485
2698,-0.05807860716626586
2699,-0.0012028003921461718
2700,0.05100282550052244
2701,0.08014999684274204
2702,0.07980433859613864
2703,0.06092624469312435
2704,0.04456290906775483
2705,0.047174016824071865
2706,0.07003604168247932
2707,0.10067029268681153
2708,0.12417968837784438
2709,0.13449435880456176
2710,0.13652943317056596
2711,0.13886532356243647
2712,0.14475368884077236
2713,0.1497267570031742
2714,0.14698839076312695
2715,0.13431429017813645
2716,0.11552663950936791
2717,0.09584352013353445
2718,0.07675533299791179
2719,0.055989518412864606
2720,0.032044109385000456
2721,0.007565275793995381
2722,-0.012677363823978816
2723,-0.02696313802449648
2724,-0.03860359188280577
2725,-0.051721504317870884
2726,-0.06518185443223289
2727,-0.07204653505924818
2728,-0.06646669120461277
2729,-0.051368535749927835
2730,-0.038226185084049985
2731,-0.037819263242812096
2732,-0.05060388681119598
2733,-0.06647971755495298
2734,-0.07433561863261172
2735,-0.07154689145641671
2736,-0.06389547419401494
2737,-0.057217365287226374
2738,-0.05126518615753729
2739,-0.04269858684067048
2740,-0.031251906625982706
2741,-0.016746420760103367
2742,0.014809396173364759
2743,0.09939357295701176
2744,0.2767200530399234
2745,0.546552972455173
2746,0.8320807289941299
2747,0.9918159957575341
2748,0.8908045042154216
2749,0.49140878859156
2750,-0.10256387969900946
2751,-0.6884925598148246
2752,-1.0717635473002762
2753,-1.1653118271629246
2754,-1.0164704162127909
2755,-0.7517708344536398
2756,-0.48940755578142514
2757,-0.2838612077890936
2758,-0.13075953510608013
2759,-0.008754892120489473
2760,0.08690051818454132
2761,0.1444115702255881
2762,0.1577197643051878
2763,0.14166843807420676
2764,0.12396665055658777
2765,0.1239728160558608
2766,0.1402115082413603
2767,0.15720341662369264
2768,0.16233321159154065
2769,0.15568021477008936
2770,0.14559964363610042
2771,0.13784506286956066
2772,0.13059581596644923
2773,0.11915668120096184
2774,0.10323073045592923
2775,0.08805524660675482
2776,0.07864014522771134
2777,0.07414732298103481
2778,0.06875421957766494
2779,0.05777464285229846
2780,0.042168797807802166
2781,0.026793806422124755
2782,0.014816239447281804
2783,0.00464993064430203
2784,-0.007456854415820901
2785,-0.02251456291845795
2786,-0.03735089830888352
2787,-0.04835399949785181
2788,-0.05618699244593156
2789,-0.06600760057205265
2790,-0.08248837104695514
2791,-0.10456596415513049
2792,-0.12536102056340787
2793,-0.137598243178921
2794,-0.13945974212443343
2795,-0.13556854820726394
2796,-0.13269173259903244
2797,-0.13459847957242377
2798,-0.14058290537402685
2799,-0.14794315360468596
2800,-0.15493885518254563
2801,-0.16116591175225922
2802,-0.1658350734904739
2803,-0.1668531909881022
2804,-0.16229146450541476
2805,-0.15258513761633102
2806,-0.1405791145403148
2807,-0.12883925252289774
2808,-0.11690395360170441
2809,-0.1015889479004323
2810,-0.08037888223151309
2811,-0.054563066144239614
2812,-0.028779801481676876
2813,-0.007170585654363187
2814,0.010186114555663062
2815,0.02706852044246428
2816,0.047302355704244584
2817,0.07097818794005734
2818,0.09418309274212722
2819,0.1122626656423977
2820,0.1233435686510395
2821,0.12888108950245186
2822,0.1310922335599372
2823,0.1301260075913638
2824,0.12388001562287168
2825,0.11065611869491612
2826,0.09208145290368339
2827,0.07344991624767447
2828,0.06092878314210395
2829,0.05773109880925026
2830,0.06209935251903763
2831,0.06839457642529369
2832,0.07027833079636381
2833,0.06378812851200963
2834,0.04864789190499153
2835,0.027581330062868656
2836,0.004485786960943577
2837,-0.01742600468738758
2838,-0.036691460238733445
2839,-0.0534690042001709
2840,-0.06838323768525231
2841,-0.08126130238438187
2842,-0.09106011817307802
2843,-0.09747610827581055
2844,-0.10286195883425048
2845,-0.11187998501916258
2846,-0.1277400018329527
2847,-0.14751749476507564
2848,-0.1614856487369434
2849,-0.15908885655086807
2850,-0.13789527272926902
2851,-0.10741668495256217
2852,-0.08277315492944173
2853,-0.07256135946509332
2854,-0.07206883539476834
2855,-0.06884338370726623
2856,-0.05473009662890002
2857,-0.029783136053883018
2858,0.009534428588969655
2859,0.08652754244528288
2860,0.2415916439397311
2861,0.4991585392130453
2862,0.8229494691620036
2863,1.100000041889553
2864,1.1819283745715041
2865,0.9689839406956494
2866,0.4822672722733603
2867,-0.13095261844240141
2868,-0.6690921116874592
2869,-0.9794543045629692
2870,-1.0251023433221091
2871,-0.8773841929662832
2872,-0.6513632912734437
2873,-0.43699196130104334
2874,-0.26980419733211103
2875,-0.1457190437726273
2876,-0.051959866894264524
2877,0.015553111090687285
2878,0.05545317601592504
2879,0.07110191897551413
2880,0.07272624970149666
2881,0.0702893246143006
2882,0.06691853384224204
2883,0.06041672908674491
2884,0.05013179000000416
2885,0.04085069376914954
2886,0.03969484402816917
2887,0.049966706300114266
2888,0.06844910364886563
2889,0.08807416652729225
2890,0.10235939814709849
2891,0.10752660374255125
2892,0.10203392604401129
2893,0.08599908229452267
2894,0.0617088888210614
2895,0.03367661474884526
2896,0.006689444762339093
2897,-0.016836668987695654
2898,-0.037095010202297586
2899,-0.053863788415792764
2900,-0.06347880481954846
2901,-0.060032740024442935
2902,-0.04098762461518667
2903,-0.012232797589024501
2904,0.012961627476899247
2905,0.02148389759446728
2906,0.008758597088250466
2907,-0.018680305827759678
2908,-0.04809759080809588
2909,-0.06855956601038388
2910,-0.07599054568469604
2911,-0.07278834467891723
2912,-0.06418164823943805
2913,-0.05501898891750122
2914,-0.048622103932978604
2915,-0.046775342577094134
2916,-0.0495503214972594
2917,-0.05511376026911956
2918,-0.06058126155069345
2919,-0.06406357952821026
2920,-0.06643470770089985
2921,-0.07106270897411422
2922,-0.08131878097343345
2923,-0.0976344469324075
2924,-0.11637337836826353
2925,-0.1314277873500681
2926,-0.1374500918446306
2927,-0.1325347553072918
2928,-0.11864044464171297
2929,-0.09965816082340795
2930,-0.0786998015065653
2931,-0.056741131890870225
2932,-0.033609074465504984
2933,-0.010115993167478195
2934,0.011203022064867963
2935,0.028133837172689666
2936,0.041887977467542706
2937,0.05753999860982735
2938,0.07995386085247883
2939,0.10817140350045361
2940,0.13413350931196139
2941,0.14847829271046517
2942,0.14888228275670298
2943,0.14235678479937408
2944,0.13770518553516997
2945,0.13470477046071277
2946,0.12187255178902165
2947,0.08758620606910539
2948,0.03514389192056068
2949,-0.014344246106714809
2950,-0.037388631491251295
2951,-0.029282938941329523
2952,-0.010032323550850344
2953,-0.007053263548599025
2954,-0.03003253322318067
2955,-0.06305487554311731
2956,-0.08282053480565602
2957,-0.08425353850042294
2958,-0.08516629100101861
2959,-0.1026942094041459
2960,-0.12595783805572344
2961,-0.11723757882095666
2962,-0.04567918390697173
2963,0.07972308294559445
2964,0.2160642484638804
2965,0.3311667424613877
2966,0.44117339527829613
2967,0.5930959746386177
2968,0.7962826888992942
2969,0.9663291888272952
2970,0.9493537566754395
2971,0.6289126434309974
2972,0.036976768480368405
2973,-0.6284609405825285
2974,-1.1081561930651547
2975,-1.2374370629719724
2976,-1.0375518865835325
2977,-0.6786687113119487
2978,-0.35273403495288824
2979,-0.15865735798674174
2980,-0.07818999801957516
2981,-0.0379462049362754
2982,0.012038832540528833
2983,0.06868640196669665
2984,0.1034187245356497
2985,0.10433075321926827
2986,0.08916572170565619
2987,0.08389495432504776
2988,0.09613709480437296
2989,0.1114741880392851
2990,0.11238623941610332
2991,0.09694278269987064
2992,0.07868587204086808
2993,0.07116905079693811
2994,0.07531377274677387
2995,0.08169154344538825
2996,0.0826501627865808
2997,0.08005026329411288
2998,0.08120434718107833
2999,0.08899351272119747
3000,0.09751326832266047
3001,0.09765855120053757
3002,0.08643252140580014
3003,0.07047499762258164
3004,0.060611950277752465
3005,0.06284894858123508
3006,0.07386161927432731
3007,0.08422403179760812
3008,0.08580070080885321
3009,0.07701352084790225
3010,0.06247523795228524
3011,0.04838928442078
3012,0.037933131365314704
3013,0.029959602399464894
3014,0.02122518678639187
3015,0.009665920482121629
3016,-0.004161776187120217
3017,-0.018466110867828622
3018,-0.032847849300186284
3019,-0.04943671745599229
3020,-0.07110706561502544
3021,-0.09808967702709756
3022,-0.1260527968922837
3023,-0.14774936391151405
3024,-0.1573061690961381
3025,-0.1538697787826933
3026,-0.14182603447840203
3027,-0.1277047373671031
3028,-0.11642933334567405
3029,-0.10951384593945362
3030,-0.1055813285142087
3031,-0.10169613280489494
3032,-0.09426215848329272
3033,-0.07981261972831784
3034,-0.056600669457654074
3035,-0.02656386291270947
3036,0.004326954573867701
3037,0.028740375065783634
3038,0.04233323587182504
3039,0.04630778655611872
3040,0.0458801677611361
3041,0.046081304519847925
3042,0.048793027448453805
3043,0.05336139237289565
3044,0.059087500924333985
3045,0.06592922033186092
3046,0.07231297880930318
3047,0.07322510120337647
3048,0.06241668443011185
3049,0.038056730528302295
3050,0.006257429903660469
3051,-0.02217300663330564
3052,-0.03943734172634779
3053,-0.044957890797580405
3054,-0.041093411581969795
3055,-0.02512142168480168
3056,0.011928403384593049
3057,0.07548207981968834
3058,0.15646096259330827
3059,0.23471448545779472
3060,0.2999741606515966
3061,0.3718661794505207
3062,0.4925909665605962
3063,0.6856758234134726
3064,0.9089197214945854
3065,1.0468238922293227
3066,0.9650754448299559
3067,0.599695897348024
3068,0.01764194815032882
3069,-0.6015466748797605
3070,-1.0575080204913725
3071,-1.233564576769834
3072,-1.1443753917299084
3073,-0.9013628269305145
3074,-0.6306692640394358
3075,-0.40605839125775195
3076,-0.23642431263383037
3077,-0.09935553567295088
3078,0.01923179315989575
3079,0.11222545746097738
3080,0.1663284419733378
3081,0.1817159296533568
3082,0.17525564143981648
3083,0.16684878079975554
3084,0.16479001072376526
3085,0.16394919077437603
3086,0.15581133900383715
3087,0.13847114705508567
3088,0.1172916510211585
3089,0.09804797481738703
3090,0.08157036750095267
3091,0.06561766289138882
3092,0.05079072911363436
3093,0.04267144173089338
3094,0.046640452320404015
3095,0.06017358889134398
3096,0.07105343013712002
3097,0.06494454388412146
3098,0.03680431712449708
3099,-0.0037735922951432996
3100,-0.03855856701224057
3101,-0.0536006520810086
3102,-0.04856768309986774
3103,-0.035094375063270136
3104,-0.026263534868038868
3105,-0.026726452722947082
3106,-0.0316316848298132
3107,-0.033965565375515136
3108,-0.03229695656120509
3109,-0.031362183252501216
3110,-0.035659717576290835
3111,-0.043404877369034624
3112,-0.04764355615821104
3113,-0.04368268119820158
3114,-0.035100978868812555
3115,-0.03161004273702223
3116,-0.0401209649228321
3117,-0.05747021339153833
3118,-0.07214341526416751
3119,-0.07391538019867332
3120,-0.06276490035240667
3121,-0.04901599901723333
3122,-0.04469597895312223
3123,-0.05381644923066253
3124,-0.06964056623233786
3125,-0.08031304189222666
3126,-0.07724769122884993
3127,-0.05954903110219901
3128,-0.03240355332232106
3129,-0.00252418275935947
3130,0.025222490223978482
3131,0.048592254537535344
3132,0.06738569251254153
3133,0.08278177979541461
3134,0.09638437739299686
3135,0.10853522241440211
3136,0.11693559243746823
3137,0.1175333644855819
3138,0.10795313362506441
3139,0.09073592670274268
3140,0.07283917857385533
3141,0.060900157629974055
3142,0.056043840075032145
3143,0.052999224897846975
3144,0.044518643566147015
3145,0.027156525576592167
3146,0.00340361737437842
3147,-0.020958212220492992
3148,-0.040846308099342046
3149,-0.05340418038369047
3150,-0.05710599841635508
3151,-0.051606464966493654
3152,-0.03981933208105949
3153,-0.029185986593135035
3154,-0.027956197538547313
3155,-0.037496505482693884
3156,-0.04809679398507423
3157,-0.0449442660520666
3158,-0.021029349691303222
3159,0.01603277659273289
3160,0.053708208891730995
3161,0.09496763639356079
3162,0.16806503270170975
3163,0.3075301442574402
3164,0.5128418000440003
3165,0.7176271356217487
3166,0.8039295105864004
3167,0.6652992830861213
3168,0.28115961031932113
3169,-0.2515883984371403
3170,-0.7579586809810128
3171,-1.073288984337901
3172,-1.123583252363468
3173,-0.9483619015987196
3174,-0.6593635402561431
3175,-0.371146432886503
3176,-0.15055496959409387
3177,-0.008402174417046819
3178,0.07694344375288159
3179,0.1308950867529921
3180,0.16793633968233168
3181,0.19186865529176855
3182,0.20165566759256248
3183,0.195822056666271
3184,0.1750606400547025
3185,0.14456796473522585
3186,0.11458326666172144
3187,0.09631061116177828
3188,0.0944431638110565
3189,0.10254035094530807
3190,0.1067159984557648
3191,0.09586130040823057
3192,0.06998816564143459
3193,0.03940012827995787
3194,0.015616964953110948
3195,0.0023091901792089693
3196,-0.006071216023878091
3197,-0.017738391224538637
3198,-0.03571917710535632
3199,-0.055427774237669106
3200,-0.06872541996695797
3201,-0.07011494668951426
3202,-0.06013804846728439
3203,-0.04445418940771159
3204,-0.030418648559958593
3205,-0.023687112710749945
3206,-0.02625309426660726
3207,-0.03632660229294928
3208,-0.05002285758057303
3209,-0.06408495774412497
3210,-0.07780063482415309
3211,-0.09234917828059104
3212,-0.10791243770734664
3213,-0.12137448999927387
3214,-0.12742988075017173
3215,-0.1227430112677101
3216,-0.10943904675360673
3217,-0.09441638468787183
3218,-0.08492366186490273
3219,-0.0844628299562302
3220,-0.0923836719845809
3221,-0.10627897013109272
3222,-0.12339628620844635
3223,-0.1392563533030205
3224,-0.14623300589753407
3225,-0.13619058703968906
3226,-0.10687576134429262
3227,-0.06607196654194322
3228,-0.02762084149209073
3229,-0.0007961202491882401
3230,0.01775002396251968
3231,0.04090375913382703
3232,0.0782308654538682
3233,0.12476951581365511
3234,0.16261110302491852
3235,0.17495973346459934
3236,0.1603725382273912
3237,0.134194839308576
3238,0.11587617564934995
3239,0.11374437316527261
3240,0.12056418148108436
3241,0.12252452373260057
3242,0.11200961350156459
3243,0.09241235969399969
3244,0.07238913510213014
3245,0.05725499525783866
3246,0.04639070598162982
3247,0.037536637092285684
3248,0.031140909575403067
3249,0.028849372220031467
3250,0.02812471789528779
3251,0.020489330951174146
3252,-0.0025787249405322633
3253,-0.040956695216239625
3254,-0.08366656808381269
3255,-0.11685337096451079
3256,-0.13528604375239234
3257,-0.14628433805268176
3258,-0.1616724545766133
3259,-0.18504859175494248
3260,-0.20671522706440193
3261,-0.2116070749222465
3262,-0.1929994488004353
3263,-0.15898915008695608
3264,-0.12563261575756846
3265,-0.10360548485314172
3266,-0.09144382775034283
3267,-0.08147851433188949
3268,-0.07131870289595094
3269,-0.06778155213931558
3270,-0.07814514936938588
3271,-0.0978168611032923
3272,-0.10897716900166524
3273,-0.09453352074959806
3274,-0.05514883260685544
3275,-0.011543522245518778
3276,0.012742585343057168
3277,0.01302730917382184
3278,0.008284748398423015
3279,0.023635411197027917
3280,0.06850513544866746
3281,0.13456498772011338
3282,0.21711181120169318
3283,0.33521897347805185
3284,0.5204623656604668
3285,0.7724956678352639
3286,1.0185180264696347
3287,1.1234523946254233
3288,0.9619187779094537
3289,0.5083286012482753
3290,-0.12347003913518537
3291,-0.7280988087616542
3292,-1.1161168062237872
3293,-1.2081581380843485
3294,-1.055350012333486
3295,-0.7832238714207116
3296,-0.509620166780476
3297,-0.2945729518794389
3298,-0.1431487314071266
3299,-0.038524545821257236
3300,0.03131193513529358
3301,0.07024630299100518
3302,0.08400538736033883
3303,0.08491049772025906
3304,0.08546910480758386
3305,0.08993555365013373
3306,0.09418081596494986
3307,0.093327370356064
3308,0.08799854406371811
3309,0.08293466177450942
3310,0.08106732309600627
3311,0.08044858005319326
3312,0.07668923304452961
3313,0.0667399873039745
3314,0.04939588730242556
3315,0.023507023889824313
3316,-0.01143016355433122
3317,-0.05109607507275732
3318,-0.08378676329973367
3319,-0.09531874181971893
3320,-0.07979125694544527
3321,-0.04671307023524994
3322,-0.01621635453158359
3323,-0.004702572404014828
3324,-0.013041682217562297
3325,-0.027983341952823183
3326,-0.035397307709041786
3327,-0.032895553005725484
3328,-0.03021559722829649
3329,-0.037675644868535405
3330,-0.05437528787387154
3331,-0.06771607724626877
3332,-0.06471620776604364
3333,-0.044415564999836156
3334,-0.019873887558979095
3335,-0.00804532027822639
3336,-0.01661039069570727
3337,-0.03891969505199529
3338,-0.06046863040827943
3339,-0.07045686826287857
3340,-0.06866086216277889
3341,-0.06304356845437181
3342,-0.06170956812440014
3343,-0.06673395030844242
3344,-0.07446577839091723
3345,-0.08065841500942596
3346,-0.08494065065123446
3347,-0.0905713227241482
3348,-0.10018555848995477
3349,-0.11189239137983775
3350,-0.11959336467206452
3351,-0.11745248356609202
3352,-0.10459927618289766
3353,-0.085744245365611
3354,-0.06687414955276537
3355,-0.049691867134140554
3356,-0.03001848234262337
3357,-0.0022489878005830686
3358,0.0335916964573808
3359,0.06879294521952155
3360,0.0908596710857266
3361,0.09335120480530387
3362,0.08220834886160987
3363,0.07180776498134778
3364,0.07257451222165029
3365,0.08047810961679155
3366,0.0788187703165711
3367,0.05271204041789758
3368,0.004548721418536859
3369,-0.04409594042304785
3370,-0.06791097124423208
3371,-0.05867269354048402
3372,-0.033191533329933194
3373,-0.02044402166517871
3374,-0.03841058473698451
3375,-0.08060790084328215
3376,-0.1233193734189446
3377,-0.14540030117322
3378,-0.14193755368778468
3379,-0.12128996323969464
3380,-0.09296687908331917
3381,-0.06192287715411482
3382,-0.03433779729849491
3383,-0.023217702516302244
3384,-0.039975512086416046
3385,-0.07568545332920573
3386,-0.09393341028740088
3387,-0.052050502758909385
3388,0.061512980909867794
3389,0.20996298293840387
3390,0.33597906060294136
3391,0.4160206445202207
3392,0.48806869233624806
3393,0.6147568794817486
3394,0.8036419427457004
3395,0.9573480147978125
3396,0.9140494568876485
3397,0.56413875790352
3398,-0.044935461096474325
3399,-0.7066315785002621
3400,-1.1693372769267314
3401,-1.2856486969285608
3402,-1.0875397175191295
3403,-0.7394004579986015
3404,-0.4171887040203561
3405,-0.2103769251177916
3406,-0.10876310871346391
3407,-0.05844326673380203
3408,-0.02234439947094452
3409,0.003339246467318646
3410,0.01218140520807556
3411,0.01089920978421505
3412,0.016055457372544796
3413,0.03364500578307965
3414,0.0499116130955954
3415,0.0458221387994853
3416,0.018957973475666072
3417,-0.011951979757117367
3418,-0.025119360164451945
3419,-0.017035320977622406
3420,-0.004661792610065682
3421,-0.006689070026386232
3422,-0.023520188663342812
3423,-0.035949733206002296
3424,-0.022978924922543748
3425,0.019079880644426533
3426,0.07345711535764146
3427,0.11640962687240783
3428,0.13339874899602394
3429,0.12468126162036525
3430,0.09936712172001128
3431,0.06696169086645928
3432,0.03417622887763848
3433,0.006472340838185087
3434,-0.011248609359596484
3435,-0.01745330545611807
3436,-0.0168431201555147
3437,-0.01836578717091744
3438,-0.02840501029817072
3439,-0.04498117757968371
3440,-0.058931521521080873
3441,-0.061912301262560955
3442,-0.05447467954779822
3443,-0.046823470851871066
3444,-0.05111251782698984
3445,-0.07180050314601648
3446,-0.10263544278895655
3447,-0.1329707610051163
3448,-0.15732479007607236
3449,-0.17871046410716487
3450,-0.20227432160464498
3451,-0.22610062042983897
3452,-0.2401415255136229
3453,-0.23647532536247784
3454,-0.22098382857129079
3455,-0.21213519661271452
3456,-0.22408090885650228
3457,-0.24911535544615288
3458,-0.25939900628764956
3459,-0.23089329304219725
3460,-0.16811554081700675
3461,-0.10284734641166202
3462,-0.06368365666257672
3463,-0.04537009176110603
3464,-0.012439841785266479
3465,0.06101139767660714
3466,0.1550946951625649
3467,0.21607394945827385
3468,0.2160071327777146
3469,0.20409351783377422
3470,0.28696084409214506
3471,0.5349210430066131
3472,0.8879994713354832
3473,1.1536342549987326
3474,1.1196898467341687
3475,0.7059250498451071
3476,0.035075858358685
3477,-0.6361542941281325
3478,-1.0742647056858208
3479,-1.1952048003841962
3480,-1.0742000422361537
3481,-0.8531880099926514
3482,-0.6352634187010662
3483,-0.44625367574500696
3484,-0.2703579314696073
3485,-0.10380311279722866
3486,0.029016199875676368
3487,0.10185619032525901
3488,0.11698509896895863
3489,0.10497313954957589
3490,0.09728889678520022
3491,0.10283216339548482
3492,0.11051167291475256
3493,0.10957300211035055
3494,0.10274017240335961
3495,0.09980754741533324
3496,0.10327520351196129
3497,0.10513802655057661
3498,0.09847272961763495
3499,0.08874238271198676
3500,0.08969306787480046
3501,0.10694587567076652
3502,0.12772361163037382
3503,0.12994154494351645
3504,0.10335987007237404
3505,0.06166981744133854
3506,0.03225588667209966
3507,0.03221444518809012
3508,0.05297549838864127
3509,0.06793428030802337
3510,0.055900559087408964
3511,0.018860848676405313
3512,-0.021421781031945596
3513,-0.043730906649434076
3514,-0.04573620361016071
3515,-0.04451299034476398
3516,-0.060015987761735785
3517,-0.09680167812307794
3518,-0.13956589979419043
3519,-0.16538284473175388
3520,-0.16179711986967193
3521,-0.13630754281565127
3522,-0.11080557288306647
3523,-0.10639207130762088
3524,-0.13021805897719235
3525,-0.17291696355261307
3526,-0.21659573775467691
3527,-0.2462570665732105
3528,-0.2565866671641105
3529,-0.25079040975530253
3530,-0.23433987209644047
3531,-0.20955609846355855
3532,-0.17518821452924654
3533,-0.13039339056154958
3534,-0.07869829562801922
3535,-0.027687574086925328
3536,0.015781913053269057
3537,0.050523877158961256
3538,0.08101024158278218
3539,0.11151225058323022
3540,0.13941291560832314
3541,0.15469758564506597
3542,0.14786477359718603
3543,0.12036959059461845
3544,0.08770843578543236
3545,0.07025623525758652
3546,0.07778630510114214
3547,0.10066178524475795
3548,0.11648136551712869
3549,0.10787894836045434
3550,0.07659098757612498
3551,0.04118588803443145
3552,0.02006884990959996
3553,0.01502261281619283
3554,0.010633037302680655
3555,-0.009438848705089362
3556,-0.04436171736089534
3557,-0.07373102950340035
3558,-0.07441597201060293
3559,-0.04229244270825147
3560,0.0008189561240339264
3561,0.02221521375413043
3562,0.00341187038632673
3563,-0.04543821327029457
3564,-0.09340005053535474
3565,-0.1119478041177271
3566,-0.09475577761675735
3567,-0.059517549327933364
3568,-0.03244474218633939
3569,-0.029008075075332367
3570,-0.04536153088607969
3571,-0.06491412237641253
3572,-0.07291878916633499
3573,-0.06740689869111996
3574,-0.05917348890412122
3575,-0.062184937687363995
3576,-0.08227970449937531
3577,-0.11249225947174721
3578,-0.1380897301781776
3579,-0.14722425444976253
3580,-0.13893889998581765
3581,-0.12232050980103316
3582,-0.10772462097396875
3583,-0.09774267586853627
3584,-0.08602872337022557
3585,-0.06522019201592028
3586,-0.036635574260916896
3587,-0.012142792595109338
3588,-0.0053283497755687685
3589,-0.019171193687465705
3590,-0.041442524035498224
3591,-0.052786315933414964
3592,-0.04125507962045169
3593,-0.011204660716222775
3594,0.020660959826300177
3595,0.03820088121122807
3596,0.036657391144079246
3597,0.023271861930980974
3598,0.009177304309630579
3599,0.0010557619528503248
3600,-0.0005620770714403565
3601,0.0028869030316690074
3602,0.011690474975530527
3603,0.02641762123011661
3604,0.04337383693174418
3605,0.05328275635974418
3606,0.04667069726857466
3607,0.022085137410341134
3608,-0.010995711813080882
3609,-0.03886583717878965
3610,-0.0550784451974573
3611,-0.06611442958060149
3612,-0.08470489403316088
3613,-0.11571768683705094
3614,-0.14796727911034752
3615,-0.16166644880904246
3616,-0.1470389060646975
3617,-0.11734461660988457
3618,-0.10201344560309056
3619,-0.1228584973172357
3620,-0.1735528033246746
3621,-0.22237862493527394
3622,-0.23824710141933375
3623,-0.2174288897158107
3624,-0.18563746718295596
3625,-0.1721978657896972
3626,-0.18037824179596224
3627,-0.18324434593985187
3628,-0.14999696298909435
3629,-0.07607974228818509
3630,0.015990053132172864
3631,0.1092706246638363
3632,0.22484709856511087
3633,0.41282732773102754
3634,0.6965956798298225
3635,1.0146372174095604
3636,1.2193305565476886
3637,1.15220515533661
3638,0.750362222291328
3639,0.10545902060295789
3640,-0.5732246549245257
3641,-1.0692682574820007
3642,-1.2673262257750795
3643,-1.189798630127764
3644,-0.9502172866750205
3645,-0.6703489229027282
3646,-0.4225300146429546
3647,-0.22520542670422844
3648,-0.07337355815396408
3649,0.034209575585564984
3650,0.09292093496179371
3651,0.10702420547475053
3652,0.09838859909540491
3653,0.09662174302462256
3654,0.11898008053805686
3655,0.15872901116451138
3656,0.1923200546963775
3657,0.19871163728140231
3658,0.17450770048133146
3659,0.1337647683139973
3660,0.09507642059481206
3661,0.06826176284175808
3662,0.05113897681359564
3663,0.036612158416664764
3664,0.021493656251360134
3665,0.008569459357701134
3666,0.0012214897890451717
3667,-0.002589372992158872
3668,-0.010121579000116251
3669,-0.027502643870384747
3670,-0.05387274563653593
3671,-0.08209361279926636
3672,-0.10507850760366824
3673,-0.12086957231320168
3674,-0.131209290087979
3675,-0.13589620101295186
3676,-0.1303971701974566
3677,-0.11090739866781234
3678,-0.08233166495017315
3679,-0.059923294210294874
3680,-0.0604057752060977
3681,-0.08887768898289969
3682,-0.13305942374255453
3683,-0.1706725428578015
3684,-0.18420839221720908
3685,-0.1711447419540867
3686,-0.14246751954550838
3687,-0.11286632021666536
3688,-0.09186643903291145
3689,-0.08175059189570416
3690,-0.08045677959351062
3691,-0.08414490726877359
3692,-0.08737570347826179
3693,-0.0835710077403305
3694,-0.06837471263164076
3695,-0.04390714313217144
3696,-0.018867025449978633
3697,-0.0025478593447071933
3698,0.0026649288496328263
3699,0.003150304823186662
3700,0.007967485673154188
3701,0.020362047363120257
3702,0.035074024221772526
3703,0.04413093260439467
3704,0.045435189255073345
3705,0.04559317448818793
3706,0.0539448226028952
3707,0.07322509736488786
3708,0.09559731881685185
3709,0.1079881011645335
3710,0.10239671678002243
3711,0.08258173689502753
3712,0.06162741634478923
3713,0.05228118535661089
3714,0.0574792220955372
3715,0.0681436850516313
3716,0.06986560141651746
3717,0.05364995828928931
3718,0.022933251885383726
3719,-0.008388058950355552
3720,-0.02571758277066129
3721,-0.024136889686286935
3722,-0.011395190390084454
3723,-0.001076377809679678
3724,-0.0015442656336086527
3725,-0.010032313330921801
3726,-0.016929805761818736
3727,-0.016193981879051925
3728,-0.012082781515181426
3729,-0.0157474761443369
3730,-0.0348859350871967
3731,-0.06642711544879004
3732,-0.09927031497871859
3733,-0.12412441814602002
3734,-0.14047071059535798
3735,-0.1538818213000259
3736,-0.16719217552951543
3737,-0.17559831408885018
3738,-0.17150275606044812
3739,-0.154070846976158
3740,-0.13269092021154885
3741,-0.11951375029183035
3742,-0.11810912320144962
3743,-0.12023802919838673
3744,-0.11477789878976238
3745,-0.09981767014545481
3746,-0.08489225670997125
3747,-0.08036786452035433
3748,-0.08500957152800215
3749,-0.0855341019352964
3750,-0.06963348826119972
3751,-0.03918903788599801
3752,-0.009401924535621732
3753,0.005728050260103354
3754,0.006332689230566766
3755,0.004684591480720319
3756,0.012473688702452593
3757,0.035059585924684146
3758,0.08259701281223836
3759,0.1845763611153864
3760,0.3814399314313781
3761,0.6840631047870522
3762,1.0281061807900413
3763,1.2700512569717155
3764,1.2488694925201314
3765,0.884153215638948
3766,0.24306036311384166
3767,-0.4778623118102617
3768,-1.0502561025278685
3769,-1.3271504265620757
3770,-1.2991078112447108
3771,-1.0664837295227498
3772,-0.7614822874287563
3773,-0.48016307289583743
3774,-0.2618814719443192
3775,-0.10912316240164688
3776,-0.01459681611579166
3777,0.028813481185486208
3778,0.033335682308601684
3779,0.01976992711996914
3780,0.009402722306218182
3781,0.01146676546863971
3782,0.01966310751782539
3783,0.021749303272762185
3784,0.01272618367176514
3785,-0.0007336925477037079
3786,-0.007424749865420118
3787,-0.0020663665725848095
3788,0.010857185074314612
3789,0.022069507489450323
3790,0.025300190855632766
3791,0.020929442137451716
3792,0.013874799742226687
3793,0.009266065971406393
3794,0.009782751379206343
3795,0.01539184276389862
3796,0.023911574947092055
3797,0.03134470409581451
3798,0.032564406887420655
3799,0.023206705272815147
3800,0.002286624989856893
3801,-0.026135907922042546
3802,-0.05364086476063195
3803,-0.07056689038595317
3804,-0.07039842892952544
3805,-0.05352082044116395
3806,-0.02818066510447689
3807,-0.007158613616900516
3808,-0.0009250403734243709
3809,-0.011110051504784075
3810,-0.02924969355817486
3811,-0.04271306513809012
3812,-0.043924152736267874
3813,-0.03552486301876402
3814,-0.02703630457846716
3815,-0.026091421977130776
3816,-0.03248523328798031
3817,-0.0406096311165898
3818,-0.04739586383646306
3819,-0.0570643801148486
3820,-0.07710183935824866
3821,-0.10918954012262044
3822,-0.14468264952174514
3823,-0.17012710170984577
3824,-0.17804156017125844
3825,-0.17249449011892254
3826,-0.1641424697261278
3827,-0.16013304293850533
3828,-0.15917596640943818
3829,-0.15592145132665552
3830,-0.14850140731930433
3831,-0.14025533632899984
3832,-0.13434958313690315
3833,-0.12899763443778123
3834,-0.12026949638030648
3835,-0.10945742517971674
3836,-0.10484324393327206
3837,-0.11333625047793819
3838,-0.13051347777771533
3839,-0.14219550776874468
3840,-0.13889947552222698
3841,-0.12795515282563577
3842,-0.12696889532043987
3843,-0.1417469415629829
3844,-0.15216178384789666
3845,-0.12558425113297428
3846,-0.048368472319011445
3847,0.058892365349342606
3848,0.16569693370274163
3849,0.27626979901824544
3850,0.4433346208599622
3851,0.7190660771388186
3852,1.0734076297072013
3853,1.3573685005197964
3854,1.3673100322877043
3855,0.9827316183057438
3856,0.27571203988981086
3857,-0.502674834503789
3858,-1.0619788747680587
3859,-1.240074150578112
3860,-1.0783009066540674
3861,-0.7587836071831
3862,-0.4659232830703674
3863,-0.2821935363697698
3864,-0.1833410233020632
3865,-0.10877764579044112
3866,-0.030297245836214723
3867,0.03581837552367581
3868,0.06482825800685224
3869,0.058444814478755436
3870,0.04331385818012018
3871,0.04212816062028536
3872,0.05278595902918534
3873,0.056782205875024944
3874,0.04423021968829214
3875,0.026749754834466684
3876,0.02508909100099287
3877,0.046004624726772664
3878,0.07315556781371768
3879,0.08106446503333498
3880,0.05781914848470362
3881,0.01484684423734347
3882,-0.023941153285829152
3883,-0.041858966628455146
3884,-0.0400775292362589
3885,-0.03202448059398112
3886,-0.02957058526733025
3887,-0.034276609869152194
3888,-0.039670858452365274
3889,-0.039774834098960904
3890,-0.03504110356494395
3891,-0.03137661680834385
3892,-0.034887911919557105
3893,-0.04774663584278035
3894,-0.0679693560583102
3895,-0.09178539369673848
3896,-0.11566751730430742
3897,-0.13662819770817952
3898,-0.15168801285616335
3899,-0.15813334744987692
3900,-0.15498346905822935
3901,-0.14444624746372048
3902,-0.13166927125480493
3903,-0.12224546861318904
3904,-0.1188209180279452
3905,-0.11926547641484567
3906,-0.11812051291790246
3907,-0.11067889334834718
3908,-0.0967450197287921
3909,-0.08090097403843934
3910,-0.06861017086268767
3911,-0.06102196067810667
3912,-0.05288479322347062
3913,-0.03580492622425599
3914,-0.004647146369275585
3915,0.038056459381000184
3916,0.08341393606902688
3917,0.12210886091225127
3918,0.1498842763810785
3919,0.16806001919377989
3920,0.17930130883427883
3921,0.18332952999282026
3922,0.17711997284235453
3923,0.15939236428331918
3924,0.13450151951559852
3925,0.11100846607523465
3926,0.095382829382049
3927,0.08646621569977553
3928,0.07619997177393523
3929,0.05646707828831264
3930,0.02608462683903038
3931,-0.008238665997165873
3932,-0.037486444712887354
3933,-0.05699137026135726
3934,-0.0682865762309317
3935,-0.0755554529915482
3936,-0.08134216338410485
3937,-0.08597644706247405
3938,-0.09015134838800465
3939,-0.09626471047818086
3940,-0.10603964950677512
3941,-0.11731031789716331
3942,-0.12495436926765748
3943,-0.12644223012987427
3944,-0.12603459863332822
3945,-0.13137646243385936
3946,-0.14407917573867202
3947,-0.15404423403880296
3948,-0.14574750674711773
3949,-0.11293058343436493
3950,-0.06767184053979979
3951,-0.03302719357208548
3952,-0.0242810298280149
3953,-0.03656835608068344
3954,-0.05130565585301457
3955,-0.053797404251355325
3956,-0.040537833061360974
3957,-0.004780403063561162
3958,0.08385866408581652
3959,0.2741890835429155
3960,0.5890851128418502
3961,0.9700024783086044
3962,1.2644653387755818
3963,1.2890378768251984
3964,0.9406443540582291
3965,0.280345661333894
3966,-0.47771600687159643
3967,-1.0739222594171136
3968,-1.3375928886981154
3969,-1.2597860455875067
3970,-0.9647787602454547
3971,-0.614790700606282
3972,-0.32198483703476
3973,-0.12020620684220032
3974,0.006799743353715179
3975,0.08306186830879098
3976,0.12111739219953979
3977,0.12901085013771701
3978,0.12131187809116906
3979,0.11602545074236562
3980,0.12137040586749415
3981,0.12960451124980726
3982,0.1265855247284045
3983,0.10760602283248914
3984,0.08310099430978866
3985,0.06885050856730823
3986,0.0713425073035012
3987,0.0829180419386796
3988,0.09018545568915126
3989,0.08581475614550126
3990,0.07204127894366966
3991,0.05443801152857
3992,0.03472300348070301
3993,0.010877454216092434
3994,-0.01661986895038483
3995,-0.040958390974046924
3996,-0.053316549524353773
3997,-0.05169688783184202
3998,-0.04503990324043124
3999,-0.04758210968004023
4000,-0.06794772807221713
4001,-0.10254223845741939
4002,-0.13862305553989052
4003,-0.16355454277659975
4004,-0.17195833505259067
4005,-0.16572496747125287
4006,-0.14903126578277226
4007,-0.12433170389005592
4008,-0.09274403902133063
4009,-0.05692952077120336
4010,-0.022220052002274417
4011,0.00571120322906777
4012,0.02423013823115204
4013,0.03462215461472888
4014,0.03970887022728496
4015,0.04091246903014384
4016,0.03789445979602407
4017,0.030926169718237365
4018,0.023032650227685095
4019,0.019013368139513487
4020,0.02168717654342618
4021,0.02887758936284958
4022,0.034488296611426786
4023,0.03344810680156624
4024,0.026556047076046727
4025,0.020857394304559015
4026,0.024717596619197178
4027,0.04129083623224607
4028,0.06567694251088549
4029,0.08823111119527224
4030,0.10150535363823998
4031,0.10530796217958038
4032,0.10589688756506288
4033,0.11012685706908446
4034,0.11944957489579892
4035,0.1286452839060341
4036,0.13014169254259167
4037,0.12020431746539431
4038,0.1019634348570243
4039,0.08308304228991509
4040,0.07026080079947843
4041,0.06496849945911241
4042,0.06334105725404808
4043,0.059596533126867295
4044,0.049945484013806156
4045,0.03430913489186888
4046,0.015379706350573867
4047,-0.003576198499804854
4048,-0.020515413898433216
4049,-0.035230228601584306
4050,-0.048812762068318874
4051,-0.06235265035125205
4052,-0.07551337375874378
4053,-0.08600373449793065
4054,-0.09079465941337009
4055,-0.08864896765417211
4056,-0.0819015078378433
4057,-0.07532568320228465
4058,-0.07225542449554596
4059,-0.0711512165596423
4060,-0.06624772447114136
4061,-0.05250439859576157
4062,-0.03061428484823829
4063,-0.007038841639838443
4064,0.011444889376940217
4065,0.023437896933013447
4066,0.03282827364490273
4067,0.042747840814651085
4068,0.05021821426911592
4069,0.04817011928688794
4070,0.03366835496740418
4071,0.013396059967822232
4072,-0.0009742142073343122
4073,-0.004112786362338656
4074,-0.0028429207269530417
4075,-0.008343674402439188
4076,-0.02141534882587815
4077,-0.027249623623701053
4078,-0.007988472569684994
4079,0.038969509528463266
4080,0.09960500857712376
4081,0.16678031634519658
4082,0.26680533750399993
4083,0.45353233063944365
4084,0.7578533391837111
4085,1.1262654488040886
4086,1.4074366794249844
4087,1.418846209077632
4088,1.0610911330410449
4089,0.39925741453816377
4090,-0.354742989240348
4091,-0.9537364668534378
4092,-1.2448308972650648
4093,-1.229752213244133
4094,-1.0253390743590403
4095,-0.7684795476977337
4096,-0.5411715660593934
4097,-0.35948363145089185
4098,-0.21080340410984638
4099,-0.09096282231429811
4100,-0.00898519226032134
4101,0.03241092092269162
4102,0.04993199884779526
4103,0.06901475049083189
4104,0.10114871106619358
4105,0.1341150344412614
4106,0.14543651898711982
4107,0.12504329017508842
4108,0.08490946922556267
4109,0.047931940252837715
4110,0.02879842018807439
4111,0.025276385852961804
4112,0.025699552149013448
4113,0.022406951706658233
4114,0.017573095796897347
4115,0.018217983498108513
4116,0.028352464877669587
4117,0.04674637407883825
4118,0.07032510586457777
4119,0.0967552517677459
4120,0.1225196313085222
4121,0.14031666287388525
4122,0.14194466099592223
4123,0.1263949106181196
4124,0.10496146785652002
4125,0.09572863231919125
4126,0.10983503131029125
4127,0.14145473761937527
4128,0.17171265293513693
4129,0.18407769657730408
4130,0.1772731045163486
4131,0.1634340413196878
4132,0.15341079144123435
4133,0.14413359235804724
4134,0.12148486429576402
4135,0.07679536516275517
4136,0.020652579836837655
4137,-0.021114000574332905
4138,-0.027818771264334224
4139,-0.0028377710684132237
4140,0.02680428803910647
4141,0.03095346773195737
4142,-0.0006070475640109346
4143,-0.05233469088883583
4144,-0.09822686592292397
4145,-0.1232737580142169
4146,-0.13194405063451436
4147,-0.13818827353884539
4148,-0.1488997485362835
4149,-0.15734812370375317
4150,-0.15158575457552903
4151,-0.12777689773523582
4152,-0.09476316365315211
4153,-0.06635396604890874
4154,-0.050275097456199916
4155,-0.044706549892636345
4156,-0.044047547215464694
4157,-0.04587787852632167
4158,-0.05129403729835967
4159,-0.05961416836556008
4160,-0.06523300231187869
4161,-0.06146722210862195
4162,-0.04734366551825188
4163,-0.02912575684166511
4164,-0.01412232122955293
4165,-0.0034870531399855843
4166,0.007595688029976354
4167,0.02234012659113061
4168,0.036546251793911785
4169,0.042469302817512725
4170,0.03896100991737932
4171,0.0356231437799646
4172,0.0437749165237768
4173,0.06239361698912476
4174,0.076084272892421
4175,0.07221014776192733
4176,0.06290718430198664
4177,0.08708076371599499
4178,0.18241680075980413
4179,0.3473198985116869
4180,0.5285126230419155
4181,0.6523088587155073
4182,0.6783859610398988
4183,0.6300865893152952
4184,0.5713230754959828
4185,0.5465044507537034
4186,0.5355127945579896
4187,0.46615325681933445
4188,0.2773570861177769
4189,-0.019376061014838658
4190,-0.3336153722207046
4191,-0.5521143125652408
4192,-0.6125130591182295
4193,-0.5367761569399373
4194,-0.40259715204600066
4195,-0.2823684893422989
4196,-0.20103843159236753
4197,-0.14081027777840072
4198,-0.0774959831280135
4199,-0.010103998222528238
4200,0.04090065273938501
4201,0.05825236518948654
4202,0.047416188878994084
4203,0.03230144900220981
4204,0.03372467321712236
4205,0.05267056641958761
4206,0.07320775769641918
4207,0.07992366225673093
4208,0.07214233583162666
4209,0.06245359245158186
4210,0.06292315471268989
4211,0.07306583104211845
4212,0.08044741580216755
4213,0.07237563203946476
4214,0.04751752257891734
4215,0.017317071557994182
4216,-0.0033258964819738697
4217,-0.007419307239867118
4218,0.0006030523831583789
4219,0.011705477857920157
4220,0.022495791453330527
4221,0.03875494369636233
4222,0.06824055999390435
4223,0.10921007232554651
4224,0.14634639374959948
4225,0.16002542256682697
4226,0.14230123545778184
4227,0.10516783875556382
4228,0.07209880357034967
4229,0.05891064509601676
4230,0.06080361803902214
4231,0.057805688055368884
4232,0.03400404697317813
4233,-0.0073199513850723446
4234,-0.046929771751697616
4235,-0.06794863982855051
4236,-0.07144902844905811
4237,-0.07446740936237481
4238,-0.09302059051367126
4239,-0.12705774516466262
4240,-0.1613858757917281
4241,-0.18010155363900823
4242,-0.17927945764285746
4243,-0.16626390423542414
4244,-0.14887346737280255
4245,-0.12759057451735095
4246,-0.09849678650896596
4247,-0.06147750072916322
4248,-0.02253752580885449
4249,0.012903798027079506
4250,0.047065410730072116
4251,0.08728413480409404
4252,0.1352958619740532
4253,0.18050701457307763
4254,0.20656861699030915
4255,0.20614449662048628
4256,0.18868306103901183
4257,0.1722457490147832
4258,0.1670992214237978
4259,0.16781888376610005
4260,0.16174560456781711
4261,0.14407299171882748
4262,0.12281904567536807
4263,0.10841427793356047
4264,0.1001326397147807
4265,0.08557376890123926
4266,0.054944330315375704
4267,0.014635929931022976
4268,-0.016016313668874606
4269,-0.02323152686283489
4270,-0.013680245786977775
4271,-0.00919419703606248
4272,-0.025203613891816412
4273,-0.0543746893105465
4274,-0.07266567430038448
4275,-0.06259605438021533
4276,-0.030743721621373003
4277,-0.0017845731874164652
4278,0.005319253994723558
4279,-0.004439822701108692
4280,-0.007350579420535885
4281,0.015560163109324437
4282,0.05977327946591027
4283,0.10111038069932513
4284,0.11780729272118265
4285,0.10915079249031766
4286,0.09318372615674816
4287,0.08694289174075612
4288,0.0896388430115785
4289,0.08572023168493215
4290,0.06447303597517492
4291,0.03556799418983764
4292,0.0229727488909254
4293,0.04090470633172681
4294,0.07506462587052123
4295,0.0904525693480153
4296,0.0630276237204582
4297,0.007400135044539424
4298,-0.028492696065518075
4299,-0.003205524054559621
4300,0.07623243399268356
4301,0.15034303616111921
4302,0.15152567065098027
4303,0.06273364689076316
4304,-0.06127481713907475
4305,-0.13266466755322656
4306,-0.09812972658844976
4307,0.02459636576391189
4308,0.17489636890841112
4309,0.3145826177347493
4310,0.46402735093148484
4311,0.6669496795739198
4312,0.9113720762904783
4313,1.0851273771783099
4314,1.0239515602705067
4315,0.6302507090027196
4316,-0.029227391352432713
4317,-0.7326665126970372
4318,-1.2235466077576596
4319,-1.3571250381992546
4320,-1.167828992351928
4321,-0.8171170657228347
4322,-0.4739345858912243
4323,-0.22252988888074018
4324,-0.05534210389973534
4325,0.06799612067337663
4326,0.16201437660132526
4327,0.20697439410735663
4328,0.18471895385965065
4329,0.11307663936084653
4330,0.042009443795794556
4331,0.016607689644325394
4332,0.04374580648367893
4333,0.09275879411172058
4334,0.12652344156413184
4335,0.13235478183987862
4336,0.12605856478064825
4337,0.13009270757431207
4338,0.15004833983275428
4339,0.1717528640564274
4340,0.17886594044346885
4341,0.17102695299967335
4342,0.1638612806348604
4343,0.17151153403225156
4344,0.18997202749763245
4345,0.19845708079115995
4346,0.17813072836949484
4347,0.1305905546346864
4348,0.07868957750631292
4349,0.04882306016255389
4350,0.05050773362320026
4351,0.07047415902575971
4352,0.08450580006672867
4353,0.07520317702877838
4354,0.04147170929454966
4355,-0.004222690199083639
4356,-0.044115741253759985
4357,-0.06150435042569138
4358,-0.04488731561817789
4359,0.006297928231125571
4360,0.07525782541103111
4361,0.12880190078493575
4362,0.1320818305022969
4363,0.07124885001703916
4364,-0.032992106170423516
4365,-0.13454714323918038
4366,-0.18973982128308575
4367,-0.18338944496423115
4368,-0.13379750468043083
4369,-0.07517736529597907
4370,-0.03410685376840898
4371,-0.01844445106274238
4372,-0.02297099235892042
4373,-0.041066938920028134
4374,-0.0698876424639695
4375,-0.10675342081106859
4376,-0.14414579814267858
4377,-0.17027185203174838
4378,-0.1745831493075934
4379,-0.15277231610954242
4380,-0.10810204492941579
4381,-0.050420967630967296
4382,0.005664342594323092
4383,0.04527407967119953
4384,0.06201336905857704
4385,0.0664031635520915
4386,0.08419290104539467
4387,0.13973268197119712
4388,0.23355740042466475
4389,0.3331114326690086
4390,0.38877360613566897
4391,0.3669564407934003
4392,0.27570639377708417
4393,0.16186338683227214
4394,0.0806936524911361
4395,0.06053374247985895
4396,0.088197658760404
4397,0.1239429336912002
4398,0.13255792116520282
4399,0.10701403498727265
4400,0.06899153161285018
4401,0.04846637991873849
4402,0.058974685761375864
4403,0.08703168961274595
4404,0.10322431052493844
4405,0.08631325820018854
4406,0.04142541645402098
4407,-0.0027601994281356464
4408,-0.01650775547897885
4409,0.006810423667142223
4410,0.04518977258220362
4411,0.06583702405777356
4412,0.05074256684391942
4413,0.008126968249512383
4414,-0.03804585253479999
4415,-0.0679404457586204
4416,-0.07624078741508476
4417,-0.0671415414694091
4418,-0.044574834088477275
4419,-0.009673936240073434
4420,0.03626828782920588
4421,0.0946217470205921
4422,0.1797079696214672
4423,0.3197566498321402
4424,0.5308714433239399
4425,0.7738012129109932
4426,0.9347961328988308
4427,0.868491501221036
4428,0.4925253966960451
4429,-0.13132605328031915
4430,-0.8010647908419566
4431,-1.276173960671104
4432,-1.4111042279050812
4433,-1.225460815950469
4434,-0.8648775763564069
4435,-0.49221465442215806
4436,-0.19682595992593035
4437,0.01803996668594827
4438,0.18225094780126894
4439,0.3028659619598888
4440,0.3556455803346713
4441,0.32041685038368717
4442,0.21610410154438436
4443,0.09847613214963766
4444,0.024106698263526856
4445,0.015025278820076784
4446,0.05323055183275267
4447,0.10382090336277595
4448,0.14206277465033285
4449,0.16277341253715927
4450,0.1713458141901984
4451,0.17155561173106115
4452,0.1628586950631952
4453,0.14611518274762947
4454,0.12765238988521016
4455,0.11540343262140276
4456,0.11133872607483858
4457,0.10948613390846512
4458,0.10315994783921253
4459,0.09456503382609023
4460,0.09566647605963542
4461,0.11646871382254773
4462,0.14989598454042213
4463,0.16892395577633537
4464,0.143446948797067
4465,0.06648170497899544
4466,-0.03271301562736359
4467,-0.10402119678520433
4468,-0.11253596763055358
4469,-0.06719507294541761
4470,-0.01633798406941723
4471,-0.01082263437130766
4472,-0.06390943282540956
4473,-0.1417700510405737
4474,-0.19306169478042234
4475,-0.1920820764635376
4476,-0.15821820465300293
4477,-0.13585159751903259
4478,-0.15418205292607529
4479,-0.20338766387466037
4480,-0.24718089651779998
4481,-0.25806238279198535
4482,-0.24174495105911867
4483,-0.22875506504370086
4484,-0.24233131668689722
4485,-0.2734762492575855
4486,-0.287088824669388
4487,-0.2544907252614244
4488,-0.18316642061535657
4489,-0.115722557987881
4490,-0.09611242975924505
4491,-0.13018549277329827
4492,-0.17492004948411416
4493,-0.1689033473439128
4494,-0.08222934077371802
4495,0.05479177094401071
4496,0.1704605445430391
4497,0.2062017588279293
4498,0.16351879695831917
4499,0.10352063727569771
4500,0.09726372705975232
4501,0.16695599695826183
4502,0.26684285747219805
4503,0.31929046518949045
4504,0.27499064109902294
4505,0.14773920768546378
4506,-0.0006384572823150813
4507,-0.10601898574179244
4508,-0.137888574419396
4509,-0.10246314022377928
4510,-0.023748778589421787
4511,0.07267568118847614
4512,0.16423973327277758
4513,0.23654358284277785
4514,0.2984898323670614
4515,0.39232081896612897
4516,0.5710674239774348
4517,0.8411161427182454
4518,1.112648237912945
4519,1.2160208161477217
4520,0.998406881325269
4521,0.4417216302481898
4522,-0.2919238816035534
4523,-0.9358400310023923
4524,-1.2699714007998715
4525,-1.239802253695336
4526,-0.9605901474623759
4527,-0.6163590077201285
4528,-0.34087612659274624
4529,-0.16721083896333577
4530,-0.0623721083992452
4531,0.007168525208722541
4532,0.04362772958514959
4533,0.03600068245192965
4534,-0.007655078434280007
4535,-0.0554930186026632
4536,-0.07865923843858666
4537,-0.07704770890905058
4538,-0.07429402724191633
4539,-0.08764758417843814
4540,-0.1061380536307911
4541,-0.10117389683335878
4542,-0.05847279684303741
4543,0.0030195476261725834
4544,0.04645399979077943
4545,0.052286967153592157
4546,0.037811707905788465
4547,0.04047458224819335
4548,0.08065666400359917
4549,0.14062988572598492
4550,0.18097945462930543
4551,0.17884132200186134
4552,0.15020642242331972
4553,0.13345570608420948
4554,0.14930240808943318
4555,0.17652642108191735
4556,0.16900237673607843
4557,0.09985649130760527
4558,-0.008937114703098605
4559,-0.10118567294613583
4560,-0.1335878548145505
4561,-0.11196936654606346
4562,-0.08253889085528726
4563,-0.08650658193668455
4564,-0.12168162668611844
4565,-0.14812488696762566
4566,-0.1319108547019024
4567,-0.08302526323814571
4568,-0.04827288215417606
4569,-0.06434058132028297
4570,-0.11700636980643178
4571,-0.1489242585128096
4572,-0.11216009990384972
4573,-0.016891121005534616
4574,0.07137034151069233
4575,0.0863711573689741
4576,0.01877511757369408
4577,-0.07572849718076873
4578,-0.12511741651815836
4579,-0.10208525313791222
4580,-0.04320584998566934
4581,-0.01180127239213954
4582,-0.04081436181594238
4583,-0.10680992584909099
4584,-0.15441426994795604
4585,-0.14477624051334692
4586,-0.08427867801973174
4587,-0.012738669788937299
4588,0.03221952100735828
4589,0.04126711158380541
4590,0.03160954987965388
4591,0.026185120160724752
4592,0.03544599630698926
4593,0.054279566660139285
4594,0.07016784890304356
4595,0.07214091653190219
4596,0.05569670090285244
4597,0.025404634332698156
4598,-0.004245493337407568
4599,-0.013808784953487772
4600,0.00823740512880246
4601,0.05234893718261552
4602,0.08837930331222095
4603,0.08530407248212638
4604,0.03743538626372884
4605,-0.026134278001815184
4606,-0.06100606941911311
4607,-0.042460099558587615
4608,0.013768599239164868
4609,0.06430244877791433
4610,0.07441100166737188
4611,0.046035656760899955
4612,0.012933622723759098
4613,0.008188013781144457
4614,0.03411428032944799
4615,0.06130740748708802
4616,0.05605599566384025
4617,0.010020594503890574
4618,-0.053949272483295126
4619,-0.10257010014153138
4620,-0.11872709355210884
4621,-0.11092599127704414
4622,-0.10079161427284292
4623,-0.1031450208247563
4624,-0.116339252023051
4625,-0.1280229601010096
4626,-0.1278740910770469
4627,-0.11600779263067801
4628,-0.10247735185358481
4629,-0.10034846883990764
4630,-0.11694439494516327
4631,-0.14744351281869256
4632,-0.17514796159440643
4633,-0.18099032464476872
4634,-0.1575639422108305
4635,-0.11452723574257445
4636,-0.06445294495330989
4637,0.0037810769801150954
4638,0.13678026488292172
4639,0.38812374142499306
4640,0.7566581170229358
4641,1.138565945309129
4642,1.3470436621699873
4643,1.20929621735565
4644,0.684629968738064
4645,-0.08319073194581825
4646,-0.8276142898452744
4647,-1.3005598923607873
4648,-1.398538908019637
4649,-1.1916296874800418
4650,-0.8480104292518127
4651,-0.5207412967230618
4652,-0.2783269470891767
4653,-0.11196274366055156
4654,0.011315190671676672
4655,0.10547353903443793
4656,0.16255150570825075
4657,0.1767034607717105
4658,0.16199571064939633
4659,0.1459524787133547
4660,0.1488541079707305
4661,0.17070488711962448
4662,0.19627997442940892
4663,0.21004159204581707
4664,0.20621321283466554
4665,0.18797231975461678
4666,0.16125757628873894
4667,0.13114364529120706
4668,0.1024254796774401
4669,0.08027346415898369
4670,0.06796842405636752
4671,0.06391718764706636
4672,0.0621821643876076
4673,0.05708154764225837
4674,0.04759429027164665
4675,0.03714020723508127
4676,0.02907595577908068
4677,0.02266763451915156
4678,0.01363578331349035
4679,-0.0014810728614758468
4680,-0.021700196140920947
4681,-0.04221131101510696
4682,-0.058270254399719716
4683,-0.06829290379640962
4684,-0.07333617711310467
4685,-0.07415069214369906
4686,-0.06945792343064358
4687,-0.05760611235361904
4688,-0.039980611289124765
4689,-0.0223894544206505
4690,-0.012322247567374088
4691,-0.013937987173583218
4692,-0.0251199569669162
4693,-0.03950169323307626
4694,-0.05211449839831732
4695,-0.06391321719424085
4696,-0.08097731659946578
4697,-0.10847005710281875
4698,-0.14406604369074913
4699,-0.17659630316895192
4700,-0.191913718482627
4701,-0.1821650510792402
4702,-0.1514588121413791
4703,-0.11323718054703244
4704,-0.08100390935852056
4705,-0.05941754679390695
4706,-0.04258300363537444
4707,-0.02056912641839154
4708,0.011505722862840661
4709,0.04934636405930389
4710,0.08328913350747848
4711,0.10613271098140156
4712,0.11799412519683498
4713,0.12448670797738881
4714,0.130817776015153
4715,0.13770499528806102
4716,0.14248186188605516
4717,0.14332913000776282
4718,0.1417540434992809
4719,0.140761718183014
4720,0.14085060004377933
4721,0.1381428123464286
4722,0.1266989023709862
4723,0.10302354380778318
4724,0.0689784943106459
4725,0.031046246030490932
4726,-0.0030889306469554286
4727,-0.028142328026613896
4728,-0.04306452157682637
4729,-0.05050720982803684
4730,-0.05441363133383967
4731,-0.057135500664400235
4732,-0.05808260901324544
4733,-0.05517436731494074
4734,-0.04788691693161547
4735,-0.038557796752534755
4736,-0.029920883039455618
4737,-0.021429494405618116
4738,-0.009705208523576855
4739,0.005599736357288072
4740,0.017712012253960414
4741,0.020360886125631195
4742,0.026558088440143415
4743,0.08078263520587124
4744,0.24167726381411886
4745,0.5321916536623343
4746,0.8881611384703528
4747,1.1536274638083857
4748,1.1477141039456384
4749,0.7736184183170212
4750,0.09775622919995826
4751,-0.6634124211245512
4752,-1.2499985874030402
4753,-1.4921819432088346
4754,-1.3843200595960576
4755,-1.0578858224046501
4756,-0.6838847833326154
4757,-0.37851089374125646
