,0
0,-0.04174589158363649
1,-0.03968682797793341
2,-0.038518976378331696
3,-0.03790650444550825
4,-0.0364979632520763
5,-0.03346533505131155
6,-0.029797980585929702
7,-0.02795196791709871
8,-0.030093883912417057
9,-0.036570379130688974
10,-0.04593548705363765
11,-0.05622318281577028
12,-0.06593514415534762
13,-0.07373421943511943
14,-0.0775207369597504
15,-0.07454154297743286
16,-0.06324089266875657
17,-0.045535868473356084
18,-0.027193651163038304
19,-0.015247702982899894
20,-0.013945528436431636
21,-0.02222618330537444
22,-0.0346995491975799
23,-0.04536414390553689
24,-0.05122759102291735
25,-0.0532971726150263
26,-0.054655209676382197
27,-0.05749786045871768
28,-0.06140948506197404
29,-0.06380847674852887
30,-0.061842690668650294
31,-0.054321619345593694
32,-0.04266554052401961
33,-0.030579864322163117
34,-0.022633918962183544
35,-0.02220192788918086
36,-0.02958989631017353
37,-0.041441705033667245
38,-0.05212791640781944
39,-0.056626840495787055
40,-0.05319546531161044
41,-0.044048942007264356
42,-0.03364323625070026
43,-0.025942462452283578
44,-0.02269397907838705
45,-0.023653003402948913
46,-0.02792565536309033
47,-0.03480884358995261
48,-0.04338040125944481
49,-0.051655214678766805
50,-0.05672784851165598
51,-0.056325391651663406
52,-0.05060806887651074
53,-0.04251744960668494
54,-0.03611037784657227
55,-0.034091310662818015
56,-0.03648371153034369
57,-0.04136234250784798
58,-0.046759085959297134
59,-0.05193491700716797
60,-0.056991256459630955
61,-0.061480709126913856
62,-0.06365171166684935
63,-0.061314132900677394
64,-0.053680462301618576
65,-0.04248603432736169
66,-0.031245260544612755
67,-0.02317281761152616
68,-0.019521873985430097
69,-0.01968198955864704
70,-0.02268683472856256
71,-0.02842003707393366
72,-0.03715404647206508
73,-0.04786504273858979
74,-0.057282760715184275
75,-0.06122619841880989
76,-0.057613284580085584
77,-0.04861272667138881
78,-0.039727121932972384
79,-0.036134845873151356
80,-0.03914130755869376
81,-0.04567031954791774
82,-0.051134727458814505
83,-0.05308639916433878
84,-0.0524960970342626
85,-0.051842106467841084
86,-0.05214151017347352
87,-0.0518362428801956
88,-0.04843907967705059
89,-0.04115814553150293
90,-0.03197620745508705
91,-0.02438457349539922
92,-0.021203844186252256
93,-0.023414155027345868
94,-0.03046044690879708
95,-0.04095036054851606
96,-0.05274272551483394
97,-0.06279475298615655
98,-0.06790745133135756
99,-0.06654561641155651
100,-0.06026615039967581
101,-0.05305561559251864
102,-0.04870184125829516
103,-0.04842446966937185
104,-0.050978281481980095
105,-0.05503165499790344
106,-0.061194211629091624
107,-0.07127769981481656
108,-0.08524060554139042
109,-0.09893638149534731
110,-0.10540862266592577
111,-0.09922733324628558
112,-0.08038775607801432
113,-0.05454926975431995
114,-0.029613190632552647
115,-0.011637885020286058
116,-0.0030542721900630974
117,-0.003457993385381112
118,-0.010920579392965254
119,-0.02212648369207089
120,-0.031950138244206415
121,-0.03444051385387582
122,-0.02582455689612853
123,-0.00746123665999764
124,0.014232709445836229
125,0.0315960128908955
126,0.040503924288137656
127,0.0421479313013569
128,0.040376334608519915
129,0.037208205533678956
130,0.030855072482671903
131,0.018230438560515927
132,-0.0003989860159816375
133,-0.019234967372934626
134,-0.029877526879213395
135,-0.027454120631778677
136,-0.014966693257382657
137,-0.002032608627615569
138,0.0013434582363967113
139,-0.008680141242620497
140,-0.02779624104492473
141,-0.047360067075495275
142,-0.060744746936473915
143,-0.06728579824215747
144,-0.07114354583603168
145,-0.07662292806083656
146,-0.084131907764343
147,-0.09002116969291989
148,-0.09006248012699865
149,-0.08334905029362999
150,-0.07335481300344236
151,-0.06555139418296083
152,-0.06385097320792084
153,-0.06876331167104865
154,-0.07826269570017949
155,-0.08993832828686746
156,-0.10228734798406272
157,-0.11438564702976217
158,-0.1249880604631508
159,-0.13248671293080255
160,-0.13590457953511373
161,-0.13577873308234512
162,-0.13391565985791126
163,-0.13235905858180053
164,-0.13280890168031412
165,-0.1369872598232389
166,-0.14687339241686054
167,-0.16336731825198733
168,-0.18367120503952256
169,-0.1998678358119796
170,-0.201115017965778
171,-0.1788234943657432
172,-0.13077422589609708
173,-0.0601593802434509
174,0.03006331579296687
175,0.14197882284774505
176,0.2805992275894891
177,0.44442023121088003
178,0.6157459949574231
179,0.7601107206582811
180,0.838004934915812
181,0.8221836743048009
182,0.70877654423519
183,0.515164686868113
184,0.268302981627686
185,-0.005691754824714611
186,-0.28280812258671273
187,-0.5355861787439277
188,-0.7307112179816815
189,-0.837184755101113
190,-0.8417622408673986
191,-0.7594647618582089
192,-0.6287540971043968
193,-0.49256278622522187
194,-0.377824829330773
195,-0.28741516544497386
196,-0.20846975633578907
197,-0.12864806029034553
198,-0.0473520294545607
199,0.024955576080781746
200,0.07585852116415165
201,0.09960210372746023
202,0.09918982089193872
203,0.0828225361293162
204,0.05952016030931469
205,0.037145434134336776
206,0.022049584143258923
207,0.01800820683974093
208,0.024224035081454157
209,0.03478722928028562
210,0.04156530378358459
211,0.039189921625172666
212,0.028224127434439254
213,0.013773343156575382
214,0.0008429051435437624
215,-0.009321979183771787
216,-0.01878609925881622
217,-0.029277420240611737
218,-0.03924891034703987
219,-0.04464714516926922
220,-0.042619696029490804
221,-0.034525018412752566
222,-0.02534694388269066
223,-0.020080008388046043
224,-0.020410989207891674
225,-0.02451596637559439
226,-0.029700551568088665
227,-0.03501384665641656
228,-0.04129513510478064
229,-0.048883238587148534
230,-0.05563940820921543
231,-0.057648918016684744
232,-0.052284059117260584
233,-0.0408594869766406
234,-0.028290228491789426
235,-0.019854037987335572
236,-0.017821480720179306
237,-0.020801565503358342
238,-0.026063091066199216
239,-0.0323172879332451
240,-0.040180966652564896
241,-0.05004118360388825
242,-0.05982227358167385
243,-0.0653896662624222
244,-0.06368253511624947
245,-0.0557423902440372
246,-0.04658277445614463
247,-0.04169109636867359
248,-0.04314275410873845
249,-0.04869545525071854
250,-0.05441025096277579
251,-0.058090198826884494
252,-0.06032423618968801
253,-0.06255440451575169
254,-0.06459259451524366
255,-0.06435133437578798
256,-0.06001528752517352
257,-0.052227886328616066
258,-0.04389740109279096
259,-0.03782674485503265
260,-0.034697429892817586
261,-0.03347115118973345
262,-0.03352774186724973
263,-0.035845153593820824
264,-0.041527861153528425
265,-0.049053789675463706
266,-0.05345928769580764
267,-0.04914098174797631
268,-0.03434067717519382
269,-0.013302133201664474
270,0.006180918789888492
271,0.01802688820651923
272,0.02157162387799157
273,0.020773472662181817
274,0.020056895885604744
275,0.02080357172342484
276,0.021518198054223427
277,0.02096271779714644
278,0.020744773301696585
279,0.024600168903706053
280,0.035030523516591625
281,0.05061376252773998
282,0.06664625096492549
283,0.07855407921998034
284,0.08492632944467293
285,0.08753243502899231
286,0.08866613596806629
287,0.0886402431575219
288,0.08588084784757115
289,0.0793363046203099
290,0.07057421571330612
291,0.06325222400884077
292,0.060236865231284714
293,0.060965940548031165
294,0.06149739888903769
295,0.05727205749205222
296,0.046244947824501115
297,0.029862807327923735
298,0.011401397834286613
299,-0.006559430828757193
300,-0.023280876209135767
301,-0.03895437393092148
302,-0.05304180670711019
303,-0.0637420608901822
304,-0.06923104795367767
305,-0.06956154163811808
306,-0.06743567605462461
307,-0.06699902437067284
308,-0.07143901022200301
309,-0.08109989002483638
310,-0.09337601429782308
311,-0.10431087507139539
312,-0.11070856094895037
313,-0.11141948214149566
314,-0.10722895569340586
315,-0.09977106325707794
316,-0.09041749965294041
317,-0.07989928474282584
318,-0.06875878584332942
319,-0.05809807189304968
320,-0.0498857777946904
321,-0.0464070138975243
322,-0.04905980300045451
323,-0.05721849012633665
324,-0.06796229753213293
325,-0.077026955223512
326,-0.0806167602301193
327,-0.07713839477463164
328,-0.06787099232856136
329,-0.056160378385947764
330,-0.04561799501605959
331,-0.03844350678165569
332,-0.03488883187912231
333,-0.034034433497558914
334,-0.03504773463985763
335,-0.03775095341496233
336,-0.04200388942714557
337,-0.04659427150010369
338,-0.048962795938408375
339,-0.046479335068808664
340,-0.03853880432362914
341,-0.02774133101345421
342,-0.01889377777196994
343,-0.016266357358932476
344,-0.021032820305508404
345,-0.030759085140654462
346,-0.04118489642495857
347,-0.048774058422105956
348,-0.05211585305700911
349,-0.051492296083103205
350,-0.047554379875294
351,-0.04058761739310218
352,-0.03094484128387213
353,-0.019910318700361602
354,-0.009844647520505312
355,-0.0032598866198485
356,-0.0015863461795589911
357,-0.004686271803292522
358,-0.011411209347783766
359,-0.020514141344078817
360,-0.03100237090812063
361,-0.04172368778694478
362,-0.050855528830611126
363,-0.056124769144918166
364,-0.0558754374578497
365,-0.05022296107395706
366,-0.041328601789574815
367,-0.03248627838265174
368,-0.026630023043664013
369,-0.02523612032473794
370,-0.028150607733931524
371,-0.03410105431948559
372,-0.041279055972835016
373,-0.047668983278675074
374,-0.05132682777737717
375,-0.050937876782795315
376,-0.04654042707063527
377,-0.03981203889572718
378,-0.03342768496058641
379,-0.02975124020490934
380,-0.029790947057945903
381,-0.03317284881583823
382,-0.03893182395388681
383,-0.04614294110588282
384,-0.05369769001446051
385,-0.05965795046905246
386,-0.061370503135456694
387,-0.05691897187027357
388,-0.0469704093075036
389,-0.03522582025096849
390,-0.02662134891149867
391,-0.024455728138593476
392,-0.028755493849555558
393,-0.037148027136053856
394,-0.047180773399171164
395,-0.05771914604954228
396,-0.06816542696873645
397,-0.07668447608059138
398,-0.07984077301960016
399,-0.07465587768861333
400,-0.06142618665285582
401,-0.044485522876783035
402,-0.029810176502781623
403,-0.02134519619883745
404,-0.019185954983870122
405,-0.02095997943514414
406,-0.024691102362317988
407,-0.03017897063233118
408,-0.03771867105632279
409,-0.04591714446468607
410,-0.05136671441950265
411,-0.05096098480142769
412,-0.04473579858541611
413,-0.03632964000007714
414,-0.030362701853098695
415,-0.029042581336820333
416,-0.03108325758959537
417,-0.03377281024234925
418,-0.03597874607182074
419,-0.03904907569486392
420,-0.04474800463456211
421,-0.052381384534670054
422,-0.05815582996608026
423,-0.05771884952733673
424,-0.049775240337135165
425,-0.03757278335951938
426,-0.026902547824461727
427,-0.0222921738105551
428,-0.024492570968063412
429,-0.030992424263480388
430,-0.0385711505727332
431,-0.045382882538049646
432,-0.05099806825110564
433,-0.05506660337229449
434,-0.05651543337808017
435,-0.05430936562656464
436,-0.0488633650309778
437,-0.042330804807218056
438,-0.03716467048799561
439,-0.03431793924987535
440,-0.03303370171422086
441,-0.03257580426344517
442,-0.03402802597594544
443,-0.039876001281066414
444,-0.051208804680033596
445,-0.0650817871589198
446,-0.07502522118233014
447,-0.07506020774701949
448,-0.06419138253382214
449,-0.047501527707871236
450,-0.03272321512243059
451,-0.025077783426774736
452,-0.024598221362559503
453,-0.027760493716555514
454,-0.03135646033041841
455,-0.034839261670491804
456,-0.03931182702303519
457,-0.04479743991250315
458,-0.04896501076494428
459,-0.04873458213933643
460,-0.04312698619770401
461,-0.03447841852056409
462,-0.026836826858106042
463,-0.023118676448678568
464,-0.023636627636598302
465,-0.02703081808403652
466,-0.032218433234336846
467,-0.03917301888225641
468,-0.047820567800499536
469,-0.056447485666227926
470,-0.06160394244086265
471,-0.06003715730967028
472,-0.05119185396789718
473,-0.03818091353630276
474,-0.026369267724238116
475,-0.02060391504450594
476,-0.02300577128537748
477,-0.032530335069978863
478,-0.04605492108958601
479,-0.059863488589243834
480,-0.0706387329137033
481,-0.07590664879577474
482,-0.07437839513062053
483,-0.06639559695276366
484,-0.054131162661734955
485,-0.041050035460068364
486,-0.030632380029323877
487,-0.025035039593206028
488,-0.02451352831361817
489,-0.027855941048695054
490,-0.03331399425396436
491,-0.0392739180328186
492,-0.04437500992562087
493,-0.04742215013717559
494,-0.04756970740294822
495,-0.04478174155182567
496,-0.04007501894984021
497,-0.035131203757998324
498,-0.031470492329502636
499,-0.029843038056845263
500,-0.03028843856043975
501,-0.032644879422629045
502,-0.03688051945183943
503,-0.042895654991874754
504,-0.05006504323807954
505,-0.05706651954105067
506,-0.06222436640374764
507,-0.06411990412502083
508,-0.06212695075520701
509,-0.05679026726020997
510,-0.05007698521678123
511,-0.04525478228106474
512,-0.04593331629720117
513,-0.05424942066453151
514,-0.06913625592985179
515,-0.08609382989017908
516,-0.0990623757450386
517,-0.1033542953092764
518,-0.0976392965531952
519,-0.08375319578741286
520,-0.06496798926925004
521,-0.04450333093493873
522,-0.025353020315885932
523,-0.01076299148836949
524,-0.0038697362041369946
525,-0.006049043388104412
526,-0.015311822259195388
527,-0.02657106810745606
528,-0.03407779031149863
529,-0.034265839115275906
530,-0.02681958237536021
531,-0.013494523152859208
532,0.0036745486785079405
533,0.02283527879760428
534,0.04128805692478552
535,0.05472929665211883
536,0.05847804200283198
537,0.050324705052660734
538,0.03266961791764575
539,0.011835079931678108
540,-0.005262242463747353
541,-0.014678063653311802
542,-0.016773029857624445
543,-0.014837572751771517
544,-0.012629620159937953
545,-0.012791140066279199
546,-0.01673087404863477
547,-0.025079821527317935
548,-0.03767658080167244
549,-0.05308173237096958
550,-0.0685088608038765
551,-0.08077696556131589
552,-0.08778836447627825
553,-0.08935539186750809
554,-0.08671434528660193
555,-0.08127558838034313
556,-0.0738426255835044
557,-0.06499213672214807
558,-0.05607041950303589
559,-0.049559573780858596
560,-0.04812186302569914
561,-0.052946660756924835
562,-0.06282960404898523
563,-0.07487716756499528
564,-0.08629308968130789
565,-0.09572703637630287
566,-0.10313953184385173
567,-0.10865072978220319
568,-0.11187604985693186
569,-0.11266586047449065
570,-0.11245066978053823
571,-0.11436649600384922
572,-0.1213175721851115
573,-0.13337998440714308
574,-0.14712725896469608
575,-0.15798649171280538
576,-0.16371817689412882
577,-0.16559782515955512
578,-0.1657925007420553
579,-0.16324590689827084
580,-0.15224847049060228
581,-0.12548576929111613
582,-0.07877235357568588
583,-0.012643666096526458
584,0.07090342637058081
585,0.17269908479868906
586,0.29577506141826126
587,0.43814799647673425
588,0.5844681759000285
589,0.7048912001747755
590,0.7645664956599179
591,0.7383035508424156
592,0.6204722964559684
593,0.4244113248147242
594,0.17454610063485884
595,-0.10058581831548262
596,-0.3697807420117821
597,-0.5984772001455354
598,-0.7530008249634224
599,-0.8118222266544219
600,-0.7770156220344011
601,-0.6756647187108002
602,-0.5474051235265186
603,-0.42537811581186935
604,-0.32349982788839515
605,-0.23785350791454513
606,-0.15876592135882012
607,-0.08266397146008454
608,-0.015052807566811838
609,0.03523674628253246
610,0.06350047869281908
611,0.07183016561668902
612,0.06643471063902337
613,0.053794063006286745
614,0.03927374537562119
615,0.027817408246053138
616,0.023849419774229375
617,0.029092708709855516
618,0.040361173704112525
619,0.05038797301225825
620,0.05207417395587004
621,0.043007720640344096
622,0.026512679193131453
623,0.00855287342617502
624,-0.006530630822592171
625,-0.017799000667877582
626,-0.02613207487937705
627,-0.031656846785809226
628,-0.033106242076388265
629,-0.029603705331439766
630,-0.022696820532837107
631,-0.016259182530736736
632,-0.014147836282846677
633,-0.01775382918502233
634,-0.02555683084660276
635,-0.03472799497801103
636,-0.042988474569894256
637,-0.04912439169011224
638,-0.05230774983385694
639,-0.051633349471530296
640,-0.046741415622881644
641,-0.038831074534353985
642,-0.030662671751245613
643,-0.025141857060519607
644,-0.023655205873510273
645,-0.025687775345800946
646,-0.029942960143319708
647,-0.03562724199937931
648,-0.042491468688208175
649,-0.049738791355189514
650,-0.055331965344519195
651,-0.0569166135763781
652,-0.05377194737350925
653,-0.047854040855565556
654,-0.042670661336813145
655,-0.040848693419008084
656,-0.042622838474642
657,-0.04657642978297416
658,-0.05164931942564105
659,-0.0581026985537164
660,-0.06626861686166458
661,-0.07442196626318777
662,-0.07838095212592419
663,-0.0739939543613865
664,-0.06076878452895525
665,-0.043388059803311244
666,-0.029361800389233486
667,-0.024351337973094973
668,-0.028776048331080807
669,-0.038278559158687706
670,-0.047409135251416566
671,-0.05335535863896975
672,-0.05682054867857894
673,-0.05980631181906876
674,-0.06264342403545888
675,-0.06298648173720152
676,-0.057571084424256305
677,-0.0451551751324585
678,-0.028193535821375106
679,-0.011918349690250966
680,-0.0014952548753206173
681,0.0007940091495863924
682,-0.0034015153206343567
683,-0.009671859716503004
684,-0.013308057968877268
685,-0.011520852297405864
686,-0.0042517626058530735
687,0.006594242007035433
688,0.018693254038948538
689,0.030470285371360893
690,0.04121498790984014
691,0.05041841024741566
692,0.05725490296751952
693,0.0609029588320716
694,0.06145561936758137
695,0.06040543148925527
696,0.05993866944229906
697,0.06143235035241787
698,0.06450985279463287
699,0.06768381394219479
700,0.07010552670077148
701,0.07266022599948158
702,0.07702359258018115
703,0.08323628405187256
704,0.08808942717650775
705,0.08630220999931563
706,0.07409399312904022
707,0.052387743784314864
708,0.026841228621297952
709,0.004446205933288175
710,-0.010654536201218569
711,-0.018880480457424405
712,-0.023472359015899443
713,-0.0273106602769385
714,-0.03125018461307333
715,-0.03507154671312508
716,-0.039460745619092755
717,-0.04656291709148717
718,-0.0583386160752114
719,-0.0743398134471547
720,-0.09117999526143357
721,-0.10433332380516532
722,-0.11072212798372966
723,-0.11000992139517063
724,-0.10397055463089097
725,-0.09508080024310678
726,-0.08576799871054483
727,-0.07847946394630362
728,-0.07554967593546266
729,-0.07814294965749294
730,-0.0849709956462833
731,-0.0923079187313947
732,-0.09591817051844323
733,-0.09365470410885464
734,-0.0866062890635935
735,-0.07781419916595723
736,-0.06973933971769444
737,-0.06275217304860001
738,-0.0558659344171524
739,-0.04876364149983231
740,-0.04297964834501802
741,-0.040988246248945065
742,-0.044002367397356745
743,-0.05051643400773828
744,-0.05693748224568509
745,-0.05978708729559961
746,-0.05767896810537604
747,-0.051643640157809034
748,-0.04386959990151976
749,-0.03613347608855154
750,-0.02915316778044629
751,-0.023085054338060206
752,-0.018417431145911215
753,-0.016337538789581885
754,-0.01821241275619588
755,-0.024540201524625133
756,-0.034100972463594816
757,-0.04393999006676659
758,-0.05037810513997711
759,-0.050658471871313386
760,-0.04436216397515524
761,-0.033695710265365046
762,-0.022362164347451585
763,-0.013685340820763173
764,-0.009238161454950246
765,-0.008842770748920127
766,-0.01167403964603097
767,-0.01727890763447377
768,-0.02550548106252848
769,-0.03550225852285789
770,-0.04498952311380723
771,-0.05086235029052283
772,-0.05092868505019453
773,-0.045415341428164224
774,-0.036953936876051696
775,-0.029044715538110725
776,-0.024261190464996397
777,-0.0235126355860574
778,-0.02655372647781078
779,-0.03279522044898228
780,-0.0414343722146296
781,-0.05091435118393678
782,-0.05862885574808849
783,-0.06165284853129435
784,-0.05826144431694251
785,-0.04914497904703993
786,-0.03737058047543976
787,-0.02708721740726484
788,-0.021808591699763173
789,-0.023175648139534082
790,-0.03056951488943981
791,-0.04146257146357664
792,-0.05230165165128395
793,-0.05976268772511679
794,-0.06203697487808839
795,-0.059508361741482906
796,-0.054265545126145086
797,-0.0486161142832641
798,-0.04363657862431132
799,-0.03893180535777599
800,-0.033848208832007856
801,-0.029078665914070847
802,-0.027104484601707127
803,-0.03080438072490046
804,-0.041137772819674484
805,-0.05571333196416269
806,-0.0694675847294158
807,-0.07709565676390391
808,-0.07563441352986972
809,-0.06566406618124301
810,-0.05073759382931434
811,-0.03577322095227185
812,-0.025386043146886993
813,-0.022608320474692932
814,-0.027975538024546907
815,-0.039083727981744074
816,-0.051122527004961074
817,-0.05875573138439514
818,-0.058777871204714276
819,-0.0519686878871317
820,-0.04263921181856777
821,-0.03584914621874917
822,-0.03413716640281346
823,-0.03620189235819156
824,-0.03856968295920954
825,-0.03888658019479323
826,-0.03808010193530685
827,-0.0395209249013635
828,-0.04582338056363655
829,-0.05596430719477399
830,-0.06522483081165936
831,-0.06818465468316866
832,-0.06251531947803018
833,-0.050677779368623305
834,-0.0383124201953462
835,-0.030673234282409895
836,-0.029804874673774413
837,-0.034300442765482414
838,-0.041281121048312996
839,-0.04860306708963768
840,-0.05550746024770433
841,-0.061613463671521485
842,-0.06570679059343262
843,-0.06582076910674185
844,-0.06069681012571616
845,-0.05124150850309085
846,-0.04048523654800018
847,-0.03190625762604385
848,-0.027509045638263036
849,-0.027252788050586563
850,-0.030098928008840835
851,-0.03538665329559676
852,-0.04301918321089396
853,-0.052305367467131186
854,-0.060878942924906934
855,-0.06524676441172354
856,-0.06295348512620882
857,-0.05460784428523827
858,-0.043887148295368335
859,-0.035358093198709584
860,-0.031887947153520405
861,-0.033675593182135415
862,-0.039288261126987495
863,-0.047234902260979775
864,-0.05640338374208141
865,-0.06523992856073972
866,-0.07111409167597944
867,-0.07117280692604268
868,-0.06428445237621744
869,-0.052270221585434554
870,-0.039091739584193944
871,-0.028587508511658116
872,-0.02272092950912824
873,-0.021673502974527633
874,-0.025159320010265156
875,-0.033146644609188786
876,-0.045029125620801067
877,-0.05826757473990092
878,-0.06844504898853751
879,-0.07143548789380746
880,-0.06615919686045327
881,-0.055489420156992555
882,-0.044331848964421654
883,-0.03640110672958999
884,-0.03236118387869665
885,-0.03068258053875849
886,-0.030071047809833537
887,-0.03101385352026596
888,-0.03503318654753909
889,-0.04252811932977115
890,-0.05141206255903341
891,-0.05794097564147557
892,-0.059074243002490034
893,-0.05439658145011156
894,-0.04617752704188455
895,-0.03785240277723352
896,-0.03237148491182566
897,-0.031500611590223875
898,-0.03588792279538379
899,-0.045001355692345715
900,-0.05662652124113327
901,-0.06674124922712302
902,-0.07081352154154928
903,-0.06635966135530821
904,-0.05501728937455642
905,-0.042155077220161485
906,-0.03376314981208428
907,-0.03271531642954195
908,-0.03729293182845153
909,-0.043155473741640915
910,-0.04707613971178226
911,-0.0492699408805069
912,-0.05242706146197615
913,-0.0585105756575377
914,-0.06632147778944628
915,-0.07203314737859842
916,-0.07215743460395264
917,-0.06629104728340338
918,-0.05737991529270368
919,-0.049590367741385845
920,-0.04586064443669901
921,-0.04703683598406801
922,-0.05261072100351123
923,-0.06155176860072459
924,-0.07209625732827998
925,-0.08106134910070154
926,-0.0842855010115609
927,-0.07885809578947384
928,-0.06571006431563421
929,-0.0500983337745548
930,-0.03886257350481423
931,-0.036083678369634956
932,-0.04042605499780995
933,-0.04633169845268977
934,-0.04816127403275615
935,-0.04398679423211121
936,-0.03612325768080875
937,-0.028288783361241073
938,-0.02204492917851738
939,-0.015548884927913634
940,-0.005477276694468741
941,0.009709875755510227
942,0.027902472243997972
943,0.04417967552073644
944,0.05341205089453417
945,0.05261361846996093
946,0.04179090256129765
947,0.023526358094299857
948,0.0022027112367373233
949,-0.01679711339192351
950,-0.028384545322548613
951,-0.02984467169866914
952,-0.02281230825256191
953,-0.013391720436015204
954,-0.00941042171431453
955,-0.015955942893269164
956,-0.032144211231366904
957,-0.05168363091268624
958,-0.06714124310228478
959,-0.0748792565185895
960,-0.07692453600351326
961,-0.07838040935001862
962,-0.08261054122680112
963,-0.08829122983161378
964,-0.09083781030214712
965,-0.08691113385845682
966,-0.07797860781618904
967,-0.06972288857315874
968,-0.06781049703655198
969,-0.07379846817994633
970,-0.08471896918716654
971,-0.09634083330027407
972,-0.10667502792658373
973,-0.11634630599999714
974,-0.12592259325758753
975,-0.13357347223039204
976,-0.13600897244402593
977,-0.1318976155412694
978,-0.1239469845073439
979,-0.1170452967524144
980,-0.11421556264481189
981,-0.11478706974902259
982,-0.11680843384296626
983,-0.12059124357651405
984,-0.12830712616824244
985,-0.1387588718285426
986,-0.142789685396698
987,-0.12585948865585206
988,-0.07754763200512446
989,0.0005438615522910979
990,0.09732109293397569
991,0.20410163131620487
992,0.32376539380877245
993,0.46505107234085524
994,0.623439955466847
995,0.765366867434561
996,0.8338431477777016
997,0.7771665579418878
998,0.5817111110337178
999,0.2839304875061702
1000,-0.04788342678002527
1001,-0.34794430588180125
1002,-0.5782313583598253
1003,-0.7300377423789646
1004,-0.8084544370600555
1005,-0.8186021806793229
1006,-0.76568127434959
1007,-0.6639877488593737
1008,-0.5404610192131054
1009,-0.42487681395843285
1010,-0.33370168230475955
1011,-0.26233853484623815
1012,-0.19343220761430382
1013,-0.11432897992797095
1014,-0.028828613894721647
1015,0.04591273271060127
1016,0.09319305493168539
1017,0.10877350593798016
1018,0.10185109518953497
1019,0.0863136363985048
1020,0.07124469298675994
1021,0.058301725654775455
1022,0.04601844318810011
1023,0.0350404778709021
1024,0.028843696494491464
1025,0.02993403599173755
1026,0.036097628876920626
1027,0.040877526762565126
1028,0.03809486367459195
1029,0.026366602260275256
1030,0.009698482495159163
1031,-0.006090433369385664
1032,-0.01770311065566068
1033,-0.02569633711492833
1034,-0.032092886207114
1035,-0.03705858322026454
1036,-0.03815297836267303
1037,-0.033023255500048004
1038,-0.022928682783591905
1039,-0.013459989058640062
1040,-0.0112677752731984
1041,-0.01930475805847604
1042,-0.03458539397127848
1043,-0.05034918424537332
1044,-0.060717175091283354
1045,-0.0639435803273789
1046,-0.0619388980920671
1047,-0.057261859760148276
1048,-0.05086799590568601
1049,-0.042681436120609303
1050,-0.03390223915273706
1051,-0.02808472899437319
1052,-0.029276723613450326
1053,-0.038608008311267636
1054,-0.05254047536616616
1055,-0.06469092099169338
1056,-0.06992661084713363
1057,-0.06738459119725357
1058,-0.06010362915889258
1059,-0.05202788702170932
1060,-0.04530137792110399
1061,-0.04007081794133575
1062,-0.03632503843280128
1063,-0.03535614160293013
1064,-0.03908240525560128
1065,-0.04791298145594278
1066,-0.0594948311746267
1067,-0.0698608668462826
1068,-0.07606531054740277
1069,-0.07785613741411021
1070,-0.07687973653144685
1071,-0.07438318668524055
1072,-0.06986206613313767
1073,-0.06208314453475561
1074,-0.05141925681000951
1075,-0.040986474440730856
1076,-0.03514064362070039
1077,-0.03642871447331553
1078,-0.043605467196578526
1079,-0.05238836158435116
1080,-0.05820796688225456
1081,-0.05864593567728468
1082,-0.05387969365645991
1083,-0.04542699566377281
1084,-0.03479957020099972
1085,-0.02323463165413673
1086,-0.012230150947735118
1087,-0.0037755363254081747
1088,0.0003214751726217142
1089,-0.0004951601233032653
1090,-0.0050275746061955034
1091,-0.01078728220409738
1092,-0.014973795502240945
1093,-0.015283832677561374
1094,-0.010312694094995977
1095,0.0002411968276766767
1096,0.015415520296449272
1097,0.03304947306414118
1098,0.050295828440933846
1099,0.06442481832312184
1100,0.0734727474144925
1101,0.07650981559971323
1102,0.07377407418887336
1103,0.06696132369963491
1104,0.05938822698573465
1105,0.05526921911488444
1106,0.05781322252610287
1107,0.0671061064751764
1108,0.07952743861599784
1109,0.08961863653345417
1110,0.09329022839314788
1111,0.0898787268984675
1112,0.08137824110989789
1113,0.06967536810359622
1114,0.054511296003653155
1115,0.03424573793623851
1116,0.008755611815119038
1117,-0.018452803900659544
1118,-0.04134247772515891
1119,-0.05515346583092896
1120,-0.0597806183192444
1121,-0.059765281770978645
1122,-0.060851264254687946
1123,-0.06601455708072032
1124,-0.07418697100821245
1125,-0.08235881814711792
1126,-0.08877879193289065
1127,-0.09425495559123039
1128,-0.1005787091869765
1129,-0.107826912216746
1130,-0.1132496862852918
1131,-0.11292142550328776
1132,-0.10485421631277897
1133,-0.0910347751806015
1134,-0.07674749596738435
1135,-0.06764349985442615
1136,-0.06658130724027539
1137,-0.07225675579756508
1138,-0.08030665821014354
1139,-0.08597117506130787
1140,-0.08654860109278081
1141,-0.08218943679858641
1142,-0.07479291205795795
1143,-0.06610457076950768
1144,-0.05664544104637928
1145,-0.046347740251507785
1146,-0.03620315777813324
1147,-0.029134670513651775
1148,-0.02878798248141395
1149,-0.03680429999793822
1150,-0.0507894204979487
1151,-0.06497875340382997
1152,-0.07345506672260346
1153,-0.07352888389150256
1154,-0.06666406654439874
1155,-0.05645020055245879
1156,-0.04567403362947322
1157,-0.03512403883966572
1158,-0.024853232937675517
1159,-0.016134027106388373
1160,-0.011732019926470705
1161,-0.013961555992219911
1162,-0.02236412684417089
1163,-0.033359047846922174
1164,-0.0423656057836441
1165,-0.04657932292834634
1166,-0.04609038526599349
1167,-0.04273565983477929
1168,-0.03816090231381226
1169,-0.03298541833043799
1170,-0.027502320343256427
1171,-0.022700950295069456
1172,-0.020254431836249455
1173,-0.021424525809938734
1174,-0.026040595829166534
1175,-0.032544448543350646
1176,-0.038908027046987995
1177,-0.043447623549497515
1178,-0.04498487746134999
1179,-0.042773046571065385
1180,-0.036854081223441804
1181,-0.028720490059950147
1182,-0.02134527385726528
1183,-0.017953629668681022
1184,-0.02018423511870256
1185,-0.027147512181727132
1186,-0.03625027317470811
1187,-0.04503576729306274
1188,-0.05233894045151942
1189,-0.05782284651288759
1190,-0.060692143982968655
1191,-0.059274143285446154
1192,-0.05225293961732019
1193,-0.04053708814517962
1194,-0.02788276135176675
1195,-0.019367544747025907
1196,-0.018675462396259807
1197,-0.026144279789405873
1198,-0.03881983346221049
1199,-0.05217306610797017
1200,-0.06213777041174806
1201,-0.06637578703074101
1202,-0.06457191683422643
1203,-0.05811829331905907
1204,-0.04947769552754261
1205,-0.041304948372013525
1206,-0.0355223971629267
1207,-0.032810494621779256
1208,-0.032855265763233076
1209,-0.03509524472697966
1210,-0.03921768510492912
1211,-0.04489211050209077
1212,-0.051070860384442654
1213,-0.055771566908154144
1214,-0.05689674406282794
1215,-0.05361112015762129
1216,-0.047116902470510674
1217,-0.0400744843541141
1218,-0.035071895095449036
1219,-0.0333468358445412
1220,-0.03464953942633606
1221,-0.03804449085699331
1222,-0.04267240710136819
1223,-0.0477648011302023
1224,-0.05217500552527328
1225,-0.05430535748321978
1226,-0.05289673055798855
1227,-0.04811411077634103
1228,-0.04182021737600766
1229,-0.036542252246736365
1230,-0.03389590022189143
1231,-0.03386601597011965
1232,-0.0355957148297085
1233,-0.03881543204456722
1234,-0.044270775938206317
1235,-0.052425756929314705
1236,-0.06160545683368222
1237,-0.06772158294882769
1238,-0.06656503621026995
1239,-0.057175131144852
1240,-0.04334135538578545
1241,-0.031518202285051616
1242,-0.02650794770491311
1243,-0.02840566318210396
1244,-0.03335021245571533
1245,-0.037276235094178684
1246,-0.039195938580331366
1247,-0.041116020915895966
1248,-0.04499819479889774
1249,-0.05000433611694907
1250,-0.0528639392810792
1251,-0.050989953641015426
1252,-0.04517642199071888
1253,-0.03913392719513982
1254,-0.03630249921783596
1255,-0.03708969028754347
1256,-0.03918789002447914
1257,-0.040472292458331824
1258,-0.04139344235967693
1259,-0.0443633598955406
1260,-0.050751412766037174
1261,-0.058581697274944736
1262,-0.06338532654113727
1263,-0.06159987074239896
1264,-0.05347003311751014
1265,-0.04291277763236521
1266,-0.03463137920619125
1267,-0.031104814415773646
1268,-0.03183424902318541
1269,-0.0349111823581795
1270,-0.03897323310325308
1271,-0.04371475258289328
1272,-0.04889257351470008
1273,-0.05327259929454739
1274,-0.05481743286748104
1275,-0.052022368873595445
1276,-0.04518643123951583
1277,-0.03655118319598688
1278,-0.029278896767977382
1279,-0.026060536793645096
1280,-0.028125753854025375
1281,-0.03491205948091547
1282,-0.044306562435399696
1283,-0.053377444881585495
1284,-0.05948919575977138
1285,-0.06138451723304737
1286,-0.05954645637464376
1287,-0.05546767182715544
1288,-0.050330061046756525
1289,-0.04424255399838345
1290,-0.03680047414705437
1291,-0.028479005109227393
1292,-0.021417998200602664
1293,-0.018551496291952074
1294,-0.02156907374347878
1295,-0.029438589939270548
1296,-0.038885011972547595
1297,-0.046513666665652695
1298,-0.050784145493716834
1299,-0.05223077020648467
1300,-0.0520204904298383
1301,-0.050480649789357054
1302,-0.04710740003455979
1303,-0.04193348131812162
1304,-0.036658081446270606
1305,-0.03411291575976359
1306,-0.03628681259287679
1307,-0.04261133125943667
1308,-0.05006947857175994
1309,-0.05508993370200008
1310,-0.055680502196205475
1311,-0.05220785740226121
1312,-0.04654790286642755
1313,-0.04067091365607433
1314,-0.03589710708168284
1315,-0.033112182112383884
1316,-0.033238057775472445
1317,-0.03714861036216226
1318,-0.04495472661796997
1319,-0.05533558831530161
1320,-0.06565371478741389
1321,-0.0729775354107518
1322,-0.07543503426458296
1323,-0.073083743166689
1324,-0.06780997891591095
1325,-0.06236356045621596
1326,-0.05909917486342357
1327,-0.059083213529950177
1328,-0.061922512485922815
1329,-0.06620015280911935
1330,-0.07009908959212004
1331,-0.0718718825301577
1332,-0.07015043663780368
1333,-0.06429321195373178
1334,-0.0547789872295841
1335,-0.04329057732505557
1336,-0.03210683576351804
1337,-0.022962634249367085
1338,-0.01617401923806599
1339,-0.010802401974850263
1340,-0.005758159778136079
1341,-0.0008015610648019875
1342,0.003563897802842385
1343,0.007160290280817036
1344,0.010875772536224383
1345,0.01596923359294966
1346,0.02236567207277452
1347,0.027734528018104367
1348,0.028733303643960664
1349,0.023736135003471607
1350,0.014625749246485728
1351,0.005735000553667069
1352,0.0005594864681961766
1353,-0.0009542966688942536
1354,-0.00214320613117189
1355,-0.006704955236740393
1356,-0.015843184392491216
1357,-0.027912431615371394
1358,-0.04036536444970694
1359,-0.05160838767579051
1360,-0.0608918757171729
1361,-0.06693314094150637
1362,-0.06765449491030572
1363,-0.062180115929018516
1364,-0.05328912140217463
1365,-0.04719483533525323
1366,-0.04967571283984543
1367,-0.06137336947504704
1368,-0.0765870647899218
1369,-0.08719000534532796
1370,-0.08865496408280649
1371,-0.0830736294601831
1372,-0.07668484000508095
1373,-0.07439696307007171
1374,-0.07635762563505816
1375,-0.07938255263262074
1376,-0.08129607406558398
1377,-0.08363385791992631
1378,-0.09010763417270802
1379,-0.10257510142649953
1380,-0.11861528815292563
1381,-0.13301841134334602
1382,-0.14162434084661085
1383,-0.1439370186696466
1384,-0.1425560064514217
1385,-0.1406815835278764
1386,-0.1403610219942908
1387,-0.1425911680788033
1388,-0.14796699361019636
1389,-0.15609028189577595
1390,-0.16383076861786144
1391,-0.1644249962983509
1392,-0.14897802237878963
1393,-0.10957737908789716
1394,-0.041622174792785
1395,0.05595512737493635
1396,0.18127860832028792
1397,0.3285479453554505
1398,0.48511835768253275
1399,0.6294667389732542
1400,0.7336442272729201
1401,0.7707735701274807
1402,0.7238826397140261
1403,0.5910227563224684
1404,0.38464194847537175
1405,0.12762618783238003
1406,-0.15013221180677988
1407,-0.4136352208966193
1408,-0.6259828459660718
1409,-0.7559337563997823
1410,-0.788500328388134
1411,-0.7323271749949398
1412,-0.6174231829149945
1413,-0.4826178263919488
1414,-0.3594669443661477
1415,-0.26203011030534257
1416,-0.18763642903686267
1417,-0.1260485674378487
1418,-0.06951182752371002
1419,-0.017358881305006756
1420,0.025852539246640285
1421,0.055124808289517616
1422,0.06855058377804585
1423,0.06795881821274549
1424,0.057680105916451965
1425,0.04302691573750142
1426,0.02907515806971782
1427,0.019509285607816142
1428,0.01557053546146521
1429,0.015808275574261725
1430,0.017200253411450525
1431,0.01715908721028997
1432,0.015046344700701195
1433,0.012085618456166345
1434,0.009846621589473255
1435,0.008603392205507439
1436,0.006867117153684023
1437,0.0023596454784177547
1438,-0.006407376905044268
1439,-0.01907660080824721
1440,-0.033468919930531166
1441,-0.046438916932814385
1442,-0.05493570875225434
1443,-0.05683685199622157
1444,-0.051518860234887505
1445,-0.04026727699961158
1446,-0.02639339709693276
1447,-0.014647493419705912
1448,-0.009662610742367586
1449,-0.013849199283498825
1450,-0.025901019269908475
1451,-0.04110068251557089
1452,-0.053598133897817035
1453,-0.059390479694911166
1454,-0.058057049889320964
1455,-0.05214122554056886
1456,-0.04486779107301084
1457,-0.03813249773728446
1458,-0.03227145389479916
1459,-0.027392024140952778
1460,-0.024628016831361746
1461,-0.0258863948789487
1462,-0.03222795526985056
1463,-0.042408497158940774
1464,-0.05298735391889779
1465,-0.05999976116909821
1466,-0.060915565014791506
1467,-0.05560611455266502
1468,-0.04607167739337463
1469,-0.035557223112797215
1470,-0.02763476816413369
1471,-0.02526753703788206
1472,-0.029725690564775788
1473,-0.03974066922736319
1474,-0.05171019741916694
1475,-0.0612916009288341
1476,-0.06556787213646306
1477,-0.06429474788368582
1478,-0.059369545054975006
1479,-0.0531233693107432
1480,-0.04693746133793409
1481,-0.04116755044437004
1482,-0.03600719380418778
1483,-0.03212407681221267
1484,-0.030391106734935926
1485,-0.031148886768526795
1486,-0.0339146857621843
1487,-0.03782405283582268
1488,-0.04215623601355546
1489,-0.04618695968259467
1490,-0.04850658869844064
1491,-0.046829771659054754
1492,-0.039100373015656
1493,-0.025400877694548712
1494,-0.009044950752446223
1495,0.004500679829155231
1496,0.010579454628539695
1497,0.008247621146703393
1498,0.0009692685569130931
1499,-0.005503889553155877
1500,-0.006592066482862631
1501,-0.0012496675714099824
1502,0.008287259079541361
1503,0.018851336838033923
1504,0.02875784982211866
1505,0.03842975579993159
1506,0.04902334292301644
1507,0.06052179100208503
1508,0.07107609742343143
1509,0.07813707151120214
1510,0.08031323256346054
1511,0.07835772357536469
1512,0.07461071778782051
1513,0.07160187113231999
1514,0.07099617891042069
1515,0.07332738018384671
1516,0.07800225617971801
1517,0.08304868082672404
1518,0.08499919580081042
1519,0.07988562543041858
1520,0.06551958066512548
1521,0.0436006687349441
1522,0.019557743524009887
1523,-0.00046490597478848024
1524,-0.013463907524902057
1525,-0.021100617630355208
1526,-0.027474265436777764
1527,-0.03507051809615171
1528,-0.04260351991655513
1529,-0.046807097267399615
1530,-0.04649693241303137
1531,-0.04494281721716372
1532,-0.04802630954665749
1533,-0.05954956101619174
1534,-0.07776119217591798
1535,-0.09615219571633807
1536,-0.1078480052498511
1537,-0.10995161276822307
1538,-0.10455732132510348
1539,-0.09622337829060518
1540,-0.08849327344492211
1541,-0.0822517036824516
1542,-0.07660338160783148
1543,-0.07081671001608805
1544,-0.06546842980678058
1545,-0.062104216274071936
1546,-0.06203210463368157
1547,-0.06523687113860277
1548,-0.07001019962257055
1549,-0.07344351938615645
1550,-0.07267366598597762
1551,-0.06643391973408226
1552,-0.056020376137906454
1553,-0.04480339827807559
1554,-0.03633884802387056
1555,-0.032391711838856835
1556,-0.03247188890252538
1557,-0.035188687084752784
1558,-0.039933327225641135
1559,-0.04699908416794406
1560,-0.05590969303933486
1561,-0.06387480349641705
1562,-0.06654620294704655
1563,-0.06102343960047159
1564,-0.048487709900828665
1565,-0.03374690274970706
1566,-0.021795258103966923
1567,-0.014515388730305442
1568,-0.010651416435573113
1569,-0.008892226816114821
1570,-0.010580948610209959
1571,-0.018771762734475693
1572,-0.03414790686203893
1573,-0.05192743546527222
1574,-0.06346568583077114
1575,-0.061933976826497227
1576,-0.04738788869962497
1577,-0.02681671517377676
1578,-0.009216075394725902
1579,-3.0264837205051928e-05
1580,0.0006208955402229731
1581,-0.004521833779440227
1582,-0.013165739620620584
1583,-0.02422970916444831
1584,-0.03608759315324319
1585,-0.045250666054849786
1586,-0.04780080328544814
1587,-0.04255471876242381
1588,-0.03267890304003189
1589,-0.02377859322530463
1590,-0.01997161944915533
1591,-0.021453729186786938
1592,-0.025535345398412315
1593,-0.0297457628510886
1594,-0.03382923838548945
1595,-0.03892517874772755
1596,-0.045196676027316376
1597,-0.0505823649271807
1598,-0.05198708040322515
1599,-0.04775055080241
1600,-0.03915006024150136
1601,-0.02979111308004634
1602,-0.02360480982565935
1603,-0.022989428394411565
1604,-0.028038936479460416
1605,-0.03683154938747774
1606,-0.046366336988863846
1607,-0.05382502523432919
1608,-0.05776726894299295
1609,-0.05859606426244955
1610,-0.057804863085671954
1611,-0.05644048054799414
1612,-0.05410883852809234
1613,-0.04957710193826267
1614,-0.042537034060308496
1615,-0.0347986300337879
1616,-0.029546570835839798
1617,-0.0291368247724249
1618,-0.03339975058651982
1619,-0.0399625667995819
1620,-0.04613330760642136
1621,-0.05046341621013225
1622,-0.05269935305761089
1623,-0.05271145056583362
1624,-0.050024846507056527
1625,-0.044639638226703277
1626,-0.038058395745578705
1627,-0.03295701348804511
1628,-0.031393636275243796
1629,-0.03322764093019583
1630,-0.03642693201650413
1631,-0.039023133408654286
1632,-0.040697235751038785
1633,-0.04235954701083246
1634,-0.044299618041216196
1635,-0.04511998108291808
1636,-0.04287217597895879
1637,-0.03737021884825047
1638,-0.03120609201878232
1639,-0.02816751148715313
1640,-0.030379876155850173
1641,-0.03680451120639837
1642,-0.0443598206744877
1643,-0.050363150404970594
1644,-0.05391007089193226
1645,-0.05522654273306744
1646,-0.05427230571322961
1647,-0.050481369165538054
1648,-0.04395083916057273
1649,-0.03651220643220877
1650,-0.031098038287716036
1651,-0.029691999949652343
1652,-0.03183252896907127
1653,-0.03522973126192673
1654,-0.037938868159373876
1655,-0.03994883566463055
1656,-0.04266436026517466
1657,-0.04692152799522681
1658,-0.05162392471165428
1659,-0.05437960568383787
1660,-0.053476970870041135
1661,-0.04928582312730116
1662,-0.043882172232111855
1663,-0.03947719998503793
1664,-0.0372050761840514
1665,-0.03713975307268452
1666,-0.039006817547529375
1667,-0.04249807434901871
1668,-0.04686367864894752
1669,-0.05052919578358006
1670,-0.05158570656371345
1671,-0.049017516005887746
1672,-0.04359278607421352
1673,-0.03752715102909289
1674,-0.03316925251750304
1675,-0.03184441157071026
1676,-0.03370651933455484
1677,-0.038347341261532
1678,-0.045210717684500974
1679,-0.053292217094473286
1680,-0.06063872185403287
1681,-0.06459579502735094
1682,-0.06304776094093678
1683,-0.05578373608541707
1684,-0.04481384505211723
1685,-0.03333322518065287
1686,-0.02420518061240845
1687,-0.019111681244533746
1688,-0.018670670745860637
1689,-0.02282505508632189
1690,-0.030763565774515552
1691,-0.040529625288757025
1692,-0.04919221357567091
1693,-0.05403826691273089
1694,-0.054050865723910095
1695,-0.05032443873221629
1696,-0.04490573411379305
1697,-0.03912557192363962
1698,-0.033117335902541234
1699,-0.027047307053603295
1700,-0.022662053577351085
1701,-0.023126005462232493
1702,-0.03067452586146406
1703,-0.043981210092023215
1704,-0.05790792845293398
1705,-0.0664340553458165
1706,-0.0666341083489051
1707,-0.06040193267350048
1708,-0.05248417122824715
1709,-0.04664487433161227
1710,-0.04336615125900543
1711,-0.04087748232832834
1712,-0.03806959368775377
1713,-0.03614440397220928
1714,-0.03731601290730622
1715,-0.04199675590756547
1716,-0.04752235048196097
1717,-0.04995099334975908
1718,-0.04734073409784725
1719,-0.04133875999421826
1720,-0.03552294179936279
1721,-0.0321366510634566
1722,-0.030443023659617856
1723,-0.028284448895986317
1724,-0.025189314449996093
1725,-0.0237619832659384
1726,-0.027738790658004202
1727,-0.03837556250095668
1728,-0.052528384976162565
1729,-0.06426846567840831
1730,-0.06866712906509509
1731,-0.06458842770343284
1732,-0.05451085970219785
1733,-0.042192513080437255
1734,-0.030607040824125346
1735,-0.021657315193626493
1736,-0.016997378330814
1737,-0.018247592677099606
1738,-0.025932453885421064
1739,-0.03826556543327585
1740,-0.05139060789148276
1741,-0.06131731815340627
1742,-0.06605612795512905
1743,-0.06620574409167762
1744,-0.0637294827750258
1745,-0.06030270968439478
1746,-0.05676144910132408
1747,-0.053800252419295355
1748,-0.05269801690083753
1749,-0.05492056706873684
1750,-0.06079604861423112
1751,-0.06859599711479657
1752,-0.07508657201627777
1753,-0.07725371715738974
1754,-0.07385913907320496
1755,-0.0657476876559862
1756,-0.055014517467505006
1757,-0.0439973993683882
1758,-0.03481430647709163
1759,-0.029273177925604646
1760,-0.028520784395117533
1761,-0.03227572929981425
1762,-0.03831111306260804
1763,-0.04300126114032911
1764,-0.04291899071116709
1765,-0.03644256144638351
1766,-0.024183912205532065
1767,-0.008036513762338488
1768,0.01013424326842259
1769,0.028875983422504258
1770,0.046343041772293175
1771,0.059376088745628886
1772,0.0638813835653197
1773,0.056826435476277116
1774,0.038581574333792695
1775,0.01373289735419289
1776,-0.010515187628156009
1777,-0.02746987284383961
1778,-0.03370463116958708
1779,-0.030002734255647985
1780,-0.020434118956611867
1781,-0.01052541322100181
1782,-0.005453827408441693
1783,-0.008585195731022385
1784,-0.020392347862034907
1785,-0.03808864547241398
1786,-0.05653723761739507
1787,-0.0704498312667529
1788,-0.07681543287368661
1789,-0.07599545384783771
1790,-0.07075819050858012
1791,-0.06414623241272846
1792,-0.0579794525548715
1793,-0.05305218314667245
1794,-0.05035897759101516
1795,-0.05168750930888275
1796,-0.058668427237650714
1797,-0.07110948148070301
1798,-0.08635382622633656
1799,-0.10050627936191704
1800,-0.11056150517190119
1801,-0.11561916647409329
1802,-0.11636788474189894
1803,-0.11379605870225766
1804,-0.10873617207318538
1805,-0.10266220058973269
1806,-0.09845558388122165
1807,-0.09960425868729102
1808,-0.10795118487699681
1809,-0.12196903001796641
1810,-0.13746177134992854
1811,-0.15036538217230383
1812,-0.15910867149905128
1813,-0.16422399012422886
1814,-0.16559920479440654
1815,-0.16027104755197527
1816,-0.14323405756223717
1817,-0.11055889367400422
1818,-0.06142950362525132
1819,0.003373965699649057
1820,0.08499745139509295
1821,0.18742767814418365
1822,0.31277599179857796
1823,0.4533957483376189
1824,0.5876090469360611
1825,0.6842834363771055
1826,0.7147249108224782
1827,0.6642051524808441
1828,0.5356731957443401
1829,0.3447890947068508
1830,0.11229870694113167
1831,-0.1394463860556558
1832,-0.38481562765619004
1833,-0.5934895766872461
1834,-0.735214533523753
1835,-0.7904856539510032
1836,-0.7600901051557878
1837,-0.6656661323494303
1838,-0.539753622535402
1839,-0.41163949978662395
1840,-0.29786730920887755
1841,-0.2018815391764367
1842,-0.12034744741865983
1843,-0.050108437355900454
1844,0.008546909373706297
1845,0.052554596690354546
1846,0.07849557572908752
1847,0.08495175011066358
1848,0.07423360691374478
1849,0.053081401964457486
1850,0.031387790449492164
1851,0.018498744489151425
1852,0.018665273925628504
1853,0.02881368190278174
1854,0.04075966279528721
1855,0.046616678731193725
1856,0.04342388512291245
1857,0.03366410999419833
1858,0.021902889661701522
1859,0.010933419626383637
1860,0.0006835154771898961
1861,-0.00987114111823207
1862,-0.020323009595201367
1863,-0.028488454547839014
1864,-0.032219032476022355
1865,-0.03137976724618659
1866,-0.028162514525872637
1867,-0.02573119155904409
1868,-0.026571789811343963
1869,-0.03163329790501079
1870,-0.040206243002946784
1871,-0.050032006678889976
1872,-0.057702996050646306
1873,-0.05986845711654566
1874,-0.05510998587746922
1875,-0.045179487213152264
1876,-0.03419643187926113
1877,-0.026001100626580634
1878,-0.02175998140327339
1879,-0.02000529046812681
1880,-0.019108530394653933
1881,-0.01972575435615282
1882,-0.024572943601086812
1883,-0.035429376805087315
1884,-0.050160696712258396
1885,-0.06288316001566896
1886,-0.06763856027105627
1887,-0.06264281457034188
1888,-0.05148493371687849
1889,-0.040295017151833576
1890,-0.03340964166289462
1891,-0.031189354825614045
1892,-0.03145123566346847
1893,-0.032654805985507726
1894,-0.03563114652898834
1895,-0.042346686444514184
1896,-0.05312823733686831
1897,-0.06514633169182538
1898,-0.07365606259801073
1899,-0.07496547502475004
1900,-0.06872343411218773
1901,-0.0579333863857985
1902,-0.047056730608497
1903,-0.03981629557196162
1904,-0.03800135102647681
1905,-0.04142978401031663
1906,-0.048483711833830115
1907,-0.056756434746246504
1908,-0.06376915408292576
1909,-0.06774861294871563
1910,-0.06813468995612951
1911,-0.06541284232176693
1912,-0.06035326858269516
1913,-0.0533327382302755
1914,-0.04439974906152486
1915,-0.034013432216387945
1916,-0.023661378710634836
1917,-0.015612336282747356
1918,-0.011851848667228899
1919,-0.012963772718318143
1920,-0.017669982612240606
1921,-0.023111848308665594
1922,-0.025533399125532645
1923,-0.021209613728662716
1924,-0.007769915633320886
1925,0.014223366336115423
1926,0.04039264050381855
1927,0.06361232783464957
1928,0.07722348466903503
1929,0.07871893077231723
1930,0.07127025942295473
1931,0.06170005422088686
1932,0.05620324494123578
1933,0.0569772458405434
1934,0.062149948125595295
1935,0.06857334998642026
1936,0.07471044898950119
1937,0.08109406814084356
1938,0.08834088299185859
1939,0.09501963537667421
1940,0.09764542007420816
1941,0.09289413374073494
1942,0.0800181951049864
1943,0.061379104515798574
1944,0.040847529038686214
1945,0.021629952453867077
1946,0.005203493335196861
1947,-0.008331061129306015
1948,-0.019440342120990845
1949,-0.02882807715946562
1950,-0.03754646440079056
1951,-0.04688717721526517
1952,-0.05778394312696565
1953,-0.07024063067443956
1954,-0.08340382223125571
1955,-0.09615875575933286
1956,-0.1074823373316838
1957,-0.11612945492926165
1958,-0.12024639563520303
1959,-0.11793242084247534
1960,-0.10886269735079837
1961,-0.09564198072096758
1962,-0.08323204571812043
1963,-0.07627590247730989
1964,-0.07619385143996153
1965,-0.08046705109773605
1966,-0.08478149535365476
1967,-0.08619186101214937
1968,-0.08460470520377776
1969,-0.08156339765533926
1970,-0.0779089091606564
1971,-0.0728151469186212
1972,-0.06506723097322939
1973,-0.05500689361930901
1974,-0.044891246322624756
1975,-0.037198710017544795
1976,-0.03271551746159056
1977,-0.030503934354707544
1978,-0.02972466599518906
1979,-0.03107631241858471
1980,-0.03587699205664443
1981,-0.043486904821518575
1982,-0.0500338701847679
1983,-0.050575416833334635
1984,-0.043376427801988415
1985,-0.03233438729775253
1986,-0.02472836380732828
1987,-0.025694843082342468
1988,-0.034150019946635496
1989,-0.04387692078143798
1990,-0.04887854648884721
1991,-0.0481768748556064
1992,-0.045797449416868766
1993,-0.0462218649324505
1994,-0.049778639589394866
1995,-0.05231299680977543
1996,-0.04926987424226466
1997,-0.040171568159490745
1998,-0.02929655374560102
1999,-0.022141832454450592
2000,-0.02118005494813204
2001,-0.024773632501064458
2002,-0.029778457975479497
2003,-0.03479486332445118
2004,-0.04067843492677149
2005,-0.04797978324221969
2006,-0.05429014818766942
2007,-0.054731663629273175
2008,-0.04577156965932004
2009,-0.02910095686591531
2010,-0.011819362004635174
2011,-0.002194949041308651
2012,-0.004153036688216189
2013,-0.014898643057460331
2014,-0.027538799334058478
2015,-0.036416732247765926
2016,-0.040705170153943315
2017,-0.04348524614765434
2018,-0.047560246064133754
2019,-0.05206969700946486
2020,-0.05309905231994633
2021,-0.04771797409587168
2022,-0.03762918979653598
2023,-0.02884963625248344
2024,-0.027414463363759873
2025,-0.034759574779770826
2026,-0.04680467658129296
2027,-0.057435718981996293
2028,-0.06313014974650498
2029,-0.06458511837402775
2030,-0.06423308838008703
2031,-0.06256028108529288
2032,-0.05726027338566335
2033,-0.046312006663878684
2034,-0.03190284533539539
2035,-0.02086747523014336
2036,-0.020388599438350745
2037,-0.03229609343887889
2038,-0.050994824620648485
2039,-0.06708632665768705
2040,-0.0737840871869535
2041,-0.07084109642890339
2042,-0.06307372847377857
2043,-0.055391018196066275
2044,-0.04903949117219403
2045,-0.0421376826707677
2046,-0.03332139486757232
2047,-0.024560174653032323
2048,-0.020350449987058993
2049,-0.02412702560360149
2050,-0.03526887821296663
2051,-0.04929428060787422
2052,-0.060831201988602625
2053,-0.06670466260469421
2054,-0.06687327315811378
2055,-0.06315086307254406
2056,-0.05736718392801628
2057,-0.050493050128765544
2058,-0.0429288871782506
2059,-0.03519003237271491
2060,-0.02832067548518362
2061,-0.023918852652562134
2062,-0.02381945377195056
2063,-0.02930669410158059
2064,-0.03990633186662977
2065,-0.05251571375908928
2066,-0.06202853985658048
2067,-0.06379069175671667
2068,-0.05654880931561744
2069,-0.043631358227160744
2070,-0.03116350494246363
2071,-0.024483072923010676
2072,-0.02542694886128055
2073,-0.03229394242358137
2074,-0.041871611526623845
2075,-0.05133853373882107
2076,-0.05860803093871231
2077,-0.06176510592216498
2078,-0.05925906264026652
2079,-0.05130735271307207
2080,-0.040979904341100194
2081,-0.033125622256339
2082,-0.03133617391411414
2083,-0.03545862342789877
2084,-0.0421052364058698
2085,-0.047884457570036926
2086,-0.05233083196647142
2087,-0.05765256157555964
2088,-0.06550448869757675
2089,-0.07401363801912691
2090,-0.07817770569441185
2091,-0.07356663722794347
2092,-0.060109133109544646
2093,-0.042664024206305495
2094,-0.027995404599594778
2095,-0.02077659338840456
2096,-0.021627961504225607
2097,-0.028015880347982254
2098,-0.036506717935105404
2099,-0.044435351113803354
2100,-0.05031750096535951
2101,-0.053578766835384345
2102,-0.054259710731364305
2103,-0.05277080723429478
2104,-0.04958103751836657
2105,-0.045079948145702695
2106,-0.03993661030471722
2107,-0.035643623272329165
2108,-0.034337421759366805
2109,-0.03748094008719961
2110,-0.044372404226859986
2111,-0.05213004962738307
2112,-0.0576383266922854
2113,-0.05983910835548041
2114,-0.06003672930073351
2115,-0.05971726088437097
2116,-0.0581260774498662
2117,-0.05250434951573709
2118,-0.04135187759991264
2119,-0.027685627909185655
2120,-0.018607736933363594
2121,-0.02066337941614803
2122,-0.034598834815508656
2123,-0.054119930217420203
2124,-0.06992896690251538
2125,-0.07574869827238156
2126,-0.07152023284965854
2127,-0.0617714767704573
2128,-0.05140592386270601
2129,-0.042831516115866455
2130,-0.03626141440735961
2131,-0.031708267006013965
2132,-0.030014305102857308
2133,-0.03197280828788075
2134,-0.03694597029519081
2135,-0.04281110870560916
2136,-0.04739841977302522
2137,-0.049904015312075244
2138,-0.050902620765548925
2139,-0.05118382260250173
2140,-0.05079106385821977
2141,-0.04917310033951356
2142,-0.046021961565974275
2143,-0.041770325310549875
2144,-0.03738376026091221
2145,-0.03397882009698301
2146,-0.032760146799005914
2147,-0.034967467646388424
2148,-0.041202376762523835
2149,-0.05031576255400159
2150,-0.059062558249166064
2151,-0.06350691211713128
2152,-0.06154051890611353
2153,-0.05448272717357961
2154,-0.046251228366340616
2155,-0.040757919883944504
2156,-0.03982624227374838
2157,-0.04325819079784772
2158,-0.0503493814172939
2159,-0.06069315605222565
2160,-0.07319714302394464
2161,-0.08470232535027708
2162,-0.09058321427563082
2163,-0.08779904816849662
2164,-0.07787636315041738
2165,-0.06656357130485466
2166,-0.059669047065190606
2167,-0.05842116281672237
2168,-0.05866192472701064
2169,-0.05495408205524803
2170,-0.04607820732138706
2171,-0.03684325434524845
2172,-0.03429506328510899
2173,-0.04145986650020443
2174,-0.05404335593852268
2175,-0.0629561095566351
2176,-0.06056225630135034
2177,-0.04562618152937828
2178,-0.02341262305943992
2179,-0.001573702447919342
2180,0.014491093377090014
2181,0.023508927452549896
2182,0.027015332486575276
2183,0.026908025213053438
2184,0.0241338649150595
2185,0.01911756347382225
2186,0.012887493347679871
2187,0.007525582390419074
2188,0.005421451638346073
2189,0.007842089640587128
2190,0.013778674297139798
2191,0.019834849009181796
2192,0.021369607993956798
2193,0.014469263333104315
2194,-0.002173379197495573
2195,-0.026454190262581785
2196,-0.05356673221657218
2197,-0.07779952639539961
2198,-0.09444963039289117
2199,-0.10106171530587565
2200,-0.09782749530321697
2201,-0.0873742165620388
2202,-0.07404468409735934
2203,-0.06257401690450605
2204,-0.056380474790844966
2205,-0.05633689588048037
2206,-0.06098478695530139
2207,-0.06816016980441508
2208,-0.07665719120254137
2209,-0.08634917127491631
2210,-0.09667577333293753
2211,-0.10527102660575499
2212,-0.10868165297395313
2213,-0.10507383969093734
2214,-0.09647863786272286
2215,-0.0880875112091209
2216,-0.08479547720303374
2217,-0.08801579461536543
2218,-0.09568730065832914
2219,-0.10519284695091125
2220,-0.1158668778254606
2221,-0.1282768671655442
2222,-0.14122329612279985
2223,-0.1503766685276544
2224,-0.15107832801060586
2225,-0.14311077970008773
2226,-0.13222349822096074
2227,-0.12566971054721454
2228,-0.1250462105318798
2229,-0.12313355803731123
2230,-0.10812606981788124
2231,-0.07143089697481891
2232,-0.011487575489250933
2233,0.06981600035307858
2234,0.17332061876116966
2235,0.302834970192007
2236,0.4563878092716425
2237,0.6154242845551597
2238,0.7433061279925881
2239,0.7979804012194522
2240,0.7515251924077114
2241,0.602780441370407
2242,0.37482410674543376
2243,0.10162493815776809
2244,-0.18397269176720304
2245,-0.4527512895499973
2246,-0.6751822178027795
2247,-0.8211384034666127
2248,-0.8690851041512068
2249,-0.8193748021006091
2250,-0.6994856645397325
2251,-0.5538181554187527
2252,-0.4230163928096854
2253,-0.32653641265866884
2254,-0.2596225797381001
2255,-0.2046152898333801
2256,-0.14653265053609615
2257,-0.08195518536741325
2258,-0.01757883406876524
2259,0.037058283436652774
2260,0.07575050158711666
2261,0.0972991041662748
2262,0.10396638348883577
2263,0.09955302395084392
2264,0.08834031587389683
2265,0.07432518867490465
2266,0.06023739162027615
2267,0.046990277735445785
2268,0.03442376241788786
2269,0.022903967353088216
2270,0.014132271049080379
2271,0.010068002626856578
2272,0.010828757684102568
2273,0.013709222278919485
2274,0.014560201748956024
2275,0.01051023270738467
2276,0.001686758031418076
2277,-0.009456520371213476
2278,-0.020364795367789703
2279,-0.03002768529100027
2280,-0.03872980554003232
2281,-0.04653004525963143
2282,-0.05219096423196146
2283,-0.053626148447182734
2284,-0.049414725918863076
2285,-0.04009434695967561
2286,-0.028370592260137314
2287,-0.018316171875689728
2288,-0.014071978931833186
2289,-0.01838497719172223
2290,-0.031211978917100862
2291,-0.048988471921081814
2292,-0.06546870598729043
2293,-0.07442659308104196
2294,-0.0730194501644146
2295,-0.06354049051852018
2296,-0.05197249116627843
2297,-0.04406560724746021
2298,-0.041759740832116685
2299,-0.04268421253316457
2300,-0.04302417287541571
2301,-0.041244372031632205
2302,-0.03946406164294454
2303,-0.04134695426836994
2304,-0.048411098330380015
2305,-0.05801716713103697
2306,-0.06482092815715643
2307,-0.0645352695057504
2308,-0.057000144382562665
2309,-0.046274304104401004
2310,-0.03792685697946492
2311,-0.03573312445296245
2312,-0.04002326262237
2313,-0.048312694720440745
2314,-0.05717095566715113
2315,-0.06386044169610729
2316,-0.06703336419243427
2317,-0.06667568458226741
2318,-0.06371945141629992
2319,-0.05945545816487237
2320,-0.05475288616885175
2321,-0.049421733926184534
2322,-0.04235790866379916
2323,-0.032742038670893994
2324,-0.021579638657076402
2325,-0.012172890567425418
2326,-0.008600545569268777
2327,-0.012841306761511902
2328,-0.02258674437574732
2329,-0.03171667492126519
2330,-0.033641896357490875
2331,-0.02549429496610878
2332,-0.010228874259909034
2333,0.005047704679541753
2334,0.013581186734882148
2335,0.013270261860623644
2336,0.007764424508137254
2337,0.003602941660695542
2338,0.0055056062615789205
2339,0.013286126478482716
2340,0.022612330356300447
2341,0.028851959742248606
2342,0.030816756174998232
2343,0.03135034691576951
2344,0.034388422320513326
2345,0.04116058676944529
2346,0.04895395295002257
2347,0.05354992882374249
2348,0.05306614594158465
2349,0.04959342819409204
2350,0.04707617588073521
2351,0.04750716108297096
2352,0.049216910029645455
2353,0.04903458687309094
2354,0.046184879626279485
2355,0.04381439046294537
2356,0.04616204809432823
2357,0.053745103531589164
2358,0.06126854531840467
2359,0.06077068896912671
2360,0.047665575701360936
2361,0.02445296298964562
2362,-0.001179519837882413
2363,-0.02210164504105073
2364,-0.03622848187592202
2365,-0.04612987841682882
2366,-0.05488828434436094
2367,-0.0626739422928391
2368,-0.06730545017717099
2369,-0.06775430211513965
2370,-0.06656375627846065
2371,-0.06840595057344118
2372,-0.07606037929562065
2373,-0.08776822914812304
2374,-0.0985602880925527
2375,-0.10425978709465489
2376,-0.10438239766961473
2377,-0.10146277461683981
2378,-0.09793107313770469
2379,-0.09387669559308005
2380,-0.08779917232031854
2381,-0.07923931379987495
2382,-0.0703366814398187
2383,-0.06461216905599965
2384,-0.06415745581750427
2385,-0.06794224399996238
2386,-0.07271727070898326
2387,-0.07544257151074929
2388,-0.07493277261662669
2389,-0.071555161043655
2390,-0.06591054302953953
2391,-0.058224199994498
2392,-0.04899860647581126
2393,-0.03981814778251094
2394,-0.03296061897027549
2395,-0.029901171327616317
2396,-0.030233331200907217
2397,-0.032279550353990945
2398,-0.03488217399671081
2399,-0.03846597961720627
2400,-0.044068168077057185
2401,-0.051169237960271674
2402,-0.05664436966801505
2403,-0.05632790289271677
2404,-0.04819785780519988
2405,-0.034452784110477835
2406,-0.020542839380195733
2407,-0.011849012808752389
2408,-0.01069352074679258
2409,-0.01586655013095411
2410,-0.024472004973126953
2411,-0.03399761050786007
2412,-0.0428404908377908
2413,-0.0494898996521185
2414,-0.05201766839401682
2415,-0.048982538066720614
2416,-0.04101947106588694
2417,-0.031307448835979496
2418,-0.024004665700155196
2419,-0.021726890351604102
2420,-0.024179838347790937
2421,-0.029055389954305913
2422,-0.03422424333267121
2423,-0.039136090193022346
2424,-0.044238310728280605
2425,-0.0492284495842701
2426,-0.05210863141513131
2427,-0.05022400675894277
2428,-0.042523494659521696
2429,-0.031028728975188474
2430,-0.02009523424486549
2431,-0.013933552906890512
2432,-0.014323377311144816
2433,-0.0202201133651171
2434,-0.029282172394985314
2435,-0.0397467618502174
2436,-0.05095011621464228
2437,-0.062196016474731566
2438,-0.07133414386228157
2439,-0.07480643625083563
2440,-0.0696480400767527
2441,-0.05606786282173319
2442,-0.038430038515205975
2443,-0.023503400693354933
2444,-0.016943567855830427
2445,-0.020388025245879286
2446,-0.031088922948898735
2447,-0.04406750288060074
2448,-0.05497877678116054
2449,-0.061666562667897676
2450,-0.06379363501912833
2451,-0.06160018260778331
2452,-0.0553107226696319
2453,-0.04570219434424645
2454,-0.034952906255095555
2455,-0.02648613730559217
2456,-0.023473228444801215
2457,-0.02702281316119076
2458,-0.03552156630306759
2459,-0.045667564971716534
2460,-0.05431310041928926
2461,-0.05965076177976001
2462,-0.06106616312503193
2463,-0.05833869736819298
2464,-0.05142970863984753
2465,-0.041278161220208304
2466,-0.03065806126811523
2467,-0.023707293540979005
2468,-0.023835583101645862
2469,-0.03140735761523402
2470,-0.04317840439196489
2471,-0.054191973679219456
2472,-0.06076229552334582
2473,-0.062230954825390004
2474,-0.06031097415520845
2475,-0.05697918069472381
2476,-0.05298839272272558
2477,-0.04814509286608007
2478,-0.042591007498571434
2479,-0.037437045445370125
2480,-0.03406513049789536
2481,-0.03304334113198712
2482,-0.03400939376508479
2483,-0.036606158426245566
2484,-0.04112401735783036
2485,-0.047717560878820814
2486,-0.054865118507591515
2487,-0.059093611997625445
2488,-0.05709178684017688
2489,-0.04878442270328169
2490,-0.03839978470554663
2491,-0.03197885880191147
2492,-0.033082178306939464
2493,-0.040383896692226647
2494,-0.04925876665133003
2495,-0.055746204152664375
2496,-0.05910381337140472
2497,-0.06078024384577223
2498,-0.06140356463015549
2499,-0.059373257365520044
2500,-0.052749874781261016
2501,-0.042357079139002496
2502,-0.03243652564416767
2503,-0.027650808313766186
2504,-0.02920601182476905
2505,-0.03407201869044858
2506,-0.038227577696315004
2507,-0.04061794570180155
2508,-0.04361846990414539
2509,-0.04940614648432401
2510,-0.05611528552433022
2511,-0.058217883881400076
2512,-0.05137176072430538
2513,-0.037188778621458626
2514,-0.023008909447930805
2515,-0.016445082991873805
2516,-0.019602089898842774
2517,-0.028267084621009724
2518,-0.036545249019781165
2519,-0.04218456297062513
2520,-0.04742578802770561
2521,-0.05495189016931024
2522,-0.06351766461419359
2523,-0.0680459255543513
2524,-0.06427594316732188
2525,-0.053308789047735
2526,-0.04141909641560502
2527,-0.03517606092129619
2528,-0.036456869031455626
2529,-0.041855082832282814
2530,-0.046571315932500607
2531,-0.04867836806411045
2532,-0.049751380548674354
2533,-0.05182889461752475
2534,-0.054310271870978616
2535,-0.05413524111753631
2536,-0.04899410223385865
2537,-0.04020473484937645
2538,-0.032312587213076234
2539,-0.029758782921113835
2540,-0.03370497562630481
2541,-0.041717619463433664
2542,-0.05016669153160992
2543,-0.05682567316400004
2544,-0.06141935876020027
2545,-0.064161512371742
2546,-0.06423077634805238
2547,-0.059919407671364645
2548,-0.05034017448938293
2549,-0.037019010004838274
2550,-0.02381953940359954
2551,-0.015121772859013704
2552,-0.013568280293498389
2553,-0.018885501878253205
2554,-0.028366145444692598
2555,-0.0384720759141058
2556,-0.04649284790161233
2557,-0.05141091163482565
2558,-0.05371520992020601
2559,-0.054466948692546174
2560,-0.05425935845544397
2561,-0.05274946799209641
2562,-0.04912139554209427
2563,-0.043221555866337254
2564,-0.036512025843316157
2565,-0.031908115607471726
2566,-0.03225218917717873
2567,-0.0382747281255296
2568,-0.047553801709123066
2569,-0.05551346827903906
2570,-0.0580555514763542
2571,-0.05406625009270766
2572,-0.045956539361482314
2573,-0.037821611519478285
2574,-0.032670081985185784
2575,-0.03090519526169456
2576,-0.03113612159993085
2577,-0.032349445817591874
2578,-0.03527864907145967
2579,-0.04158149870423067
2580,-0.05152660076633374
2581,-0.062415033073877205
2582,-0.06948328193790329
2583,-0.06890501807375499
2584,-0.060601691560173324
2585,-0.048595762517070734
2586,-0.038598970010815414
2587,-0.03471504103898079
2588,-0.03768152157969111
2589,-0.04560054302273308
2590,-0.05600837849264264
2591,-0.0672713902621158
2592,-0.07831952463343804
2593,-0.087539736726177
2594,-0.09247691078278103
2595,-0.09105233418289035
2596,-0.08326639563002662
2597,-0.07159308634384817
2598,-0.05938188869596875
2599,-0.04857671196997212
2600,-0.03893982203065026
2601,-0.029650116812150448
2602,-0.02170726338847142
2603,-0.018420392412873854
2604,-0.022815176523506488
2605,-0.03388095171702768
2606,-0.04526853580820847
2607,-0.04840610059914352
2608,-0.03817465037836238
2609,-0.016717116448122796
2610,0.007808907372441606
2611,0.026590568053008697
2612,0.035337084994069914
2613,0.03543025744257367
2614,0.030922762695744593
2615,0.02470233904487253
2616,0.01722036533247251
2617,0.008191932625338382
2618,-0.0012196960961955443
2619,-0.008270638508298171
2620,-0.010630192263468712
2621,-0.008369281779573272
2622,-0.004033115342988795
2623,-0.0009695008218960862
2624,-0.0016374679283589553
2625,-0.007152859490421239
2626,-0.01771249301490447
2627,-0.0327569494020943
2628,-0.050535200718655006
2629,-0.06791094575398887
2630,-0.0812377646442438
2631,-0.08792368499288719
2632,-0.08741818527267708
2633,-0.08092423043054814
2634,-0.07050461285813156
2635,-0.05872822949196513
2636,-0.048963504767843086
2637,-0.04516308159136069
2638,-0.05023093785822233
2639,-0.06381969721856315
2640,-0.08170470030341694
2641,-0.09793666123879603
2642,-0.10839928927047651
2643,-0.11282531477633789
2644,-0.11362338474302713
2645,-0.11293697331267573
2646,-0.11104511175529061
2647,-0.10764372464819652
2648,-0.10426395482520362
2649,-0.1046175894045836
2650,-0.11177576319888591
2651,-0.12472226237299583
2652,-0.138058524635979
2653,-0.14583420702202826
2654,-0.14625013953165433
2655,-0.14271651133909297
2656,-0.14004075357720808
2657,-0.13926739317987283
2658,-0.13605328131471836
2659,-0.12385990718661953
2660,-0.09824798066881148
2661,-0.05744810651254022
2662,0.0013471358907656793
2663,0.08506651863447644
2664,0.2016118435971361
2665,0.35047206438736495
2666,0.5140773073166669
2667,0.6582523384140287
2668,0.7437731575693456
2669,0.742179491374351
2670,0.6456281588694477
2671,0.4658016120267397
2672,0.22582620688592037
2673,-0.04650022875914829
2674,-0.319859065601388
2675,-0.558487548413013
2676,-0.7262092619024639
2677,-0.7976824004860621
2678,-0.7705949472206084
2679,-0.6688088553018028
2680,-0.5318764226242385
2681,-0.3966654376608832
2682,-0.28303022333996436
2683,-0.19211945902289412
2684,-0.11603455267661338
2685,-0.049619317001202576
2686,0.004628592948035543
2687,0.04040618887032035
2688,0.05484354303390927
2689,0.052249612355470834
2690,0.04182356756424897
2691,0.03221849963662705
2692,0.027665750172433237
2693,0.027931462914717167
2694,0.030760062360752925
2695,0.03400204481716437
2696,0.03597948684900639
2697,0.03486461730230375
2698,0.028698343306487954
2699,0.01665176585352215
2700,0.0005111945814117166
2701,-0.015241537672939669
2702,-0.0254306040792761
2703,-0.02722861586703065
2704,-0.022118787476069216
2705,-0.015161868220742995
2706,-0.011829886560412114
2707,-0.014577839718917001
2708,-0.02169509306417519
2709,-0.029286081339557707
2710,-0.03468171294992933
2711,-0.03833891856035637
2712,-0.0426066442589234
2713,-0.04861451125108292
2714,-0.05437116944951019
2715,-0.0560993880984679
2716,-0.051728720523198365
2717,-0.04324566415367656
2718,-0.035515771489574716
2719,-0.03250002930883768
2720,-0.034314954152824456
2721,-0.037812001696952174
2722,-0.039965814762881385
2723,-0.040675259645693795
2724,-0.04225895104625732
2725,-0.046293625765410344
2726,-0.051140190933835254
2727,-0.05283408447269377
2728,-0.04865971086383511
2729,-0.040027323022047784
2730,-0.03187442668909721
2731,-0.02907635193871685
2732,-0.03305285169244461
2733,-0.041365986548623015
2734,-0.05020059555989993
2735,-0.05714334366404846
2736,-0.06190161178091468
2737,-0.06496899017212096
2738,-0.06617603136065767
2739,-0.06472647092022069
2740,-0.060388817877521005
2741,-0.05423726003282316
2742,-0.04802671993728562
2743,-0.04299176872882557
2744,-0.039534044801319654
2745,-0.038106625673905624
2746,-0.0399649581802769
2747,-0.04633506407787963
2748,-0.05632519382722598
2749,-0.06575386441206799
2750,-0.06881149553812238
2751,-0.06197689747245023
2752,-0.04714772822279133
2753,-0.031059290622871178
2754,-0.020979959891132247
2755,-0.019885591501888792
2756,-0.024888560820083325
2757,-0.03003034541125307
2758,-0.030973320310268802
2759,-0.027756521879366072
2760,-0.02367274881825333
2761,-0.021653643706197205
2762,-0.02140738681750204
2763,-0.019563481233770323
2764,-0.012408604120369364
2765,0.00116417960329676
2766,0.018691802481507154
2767,0.03557856623265249
2768,0.04763538329402188
2769,0.05300704533728268
2770,0.05258828220514559
2771,0.04914173741059603
2772,0.04591994569445157
2773,0.04551061001008752
2774,0.04922363628536511
2775,0.056998682544627435
2776,0.06766679476046555
2777,0.07939335089475197
2778,0.09016079370613307
2779,0.09817187607092817
2780,0.10207663420991964
2781,0.10099851206651331
2782,0.09447237655053234
2783,0.08251873997763054
2784,0.06598991702142969
2785,0.046987244352453716
2786,0.02880859328683153
2787,0.014969421264647854
2788,0.007498652576604746
2789,0.005511102863658978
2790,0.005224985837052283
2791,0.0017567717165330537
2792,-0.008281795795308333
2793,-0.025052882375317678
2794,-0.045710208630203905
2795,-0.06622509326404508
2796,-0.08340808030972184
2797,-0.09583725913739308
2798,-0.10347744898394408
2799,-0.10677178432779241
2800,-0.10611922896020629
2801,-0.10202126066321116
2802,-0.09551990924489542
2803,-0.08840099919374181
2804,-0.08292239348967595
2805,-0.08114404476862191
2806,-0.08408047068995045
2807,-0.09098262352860373
2808,-0.09916988441843433
2809,-0.1047819856803956
2810,-0.10437933605380671
2811,-0.09665335460024818
2812,-0.0831967872213719
2813,-0.0677593471011711
2814,-0.054424058358597205
2815,-0.045868772461280544
2816,-0.04269974970006015
2817,-0.04394060677187593
2818,-0.047949879444774364
2819,-0.05299267552445919
2820,-0.05731357526271901
2821,-0.05915471293128026
2822,-0.05715836049219754
2823,-0.05106412925277275
2824,-0.04213899880667733
2825,-0.032851080018673554
2826,-0.02585525006929418
2827,-0.022898259525120722
2828,-0.024305180868242265
2829,-0.029246862681375618
2830,-0.03641224332365477
2831,-0.04449628425151678
2832,-0.052218634850157805
2833,-0.05811583556232086
2834,-0.06060595687846646
2835,-0.0585516709755693
2836,-0.051987643398589745
2837,-0.042381346993360755
2838,-0.0321068978373954
2839,-0.023477361474295095
2840,-0.018049112056775153
2841,-0.016579801429952204
2842,-0.01930877638134846
2843,-0.02590946708512692
2844,-0.03495585730455779
2845,-0.043572103336141796
2846,-0.04813933602986395
2847,-0.046099785073843776
2848,-0.0377118357859504
2849,-0.026285917278114357
2850,-0.016469593080127055
2851,-0.011721636494147975
2852,-0.01278586084129139
2853,-0.018097020370532298
2854,-0.025434467286485497
2855,-0.03326684012101858
2856,-0.04082345327975094
2857,-0.04728488353118833
2858,-0.051257273506647175
2859,-0.05122981554002802
2860,-0.04662425287348375
2861,-0.03845778298691542
2862,-0.029055255446945816
2863,-0.021115505784334646
2864,-0.016864412365400382
2865,-0.017695025404792675
2866,-0.024093108773848244
2867,-0.03545024919229335
2868,-0.04972890407138025
2869,-0.06341923880710523
2870,-0.07228491814448548
2871,-0.07292176747007453
2872,-0.06449846281879415
2873,-0.049687102100231195
2874,-0.03401056918499399
2875,-0.02360493381142883
2876,-0.022373241249834506
2877,-0.030099954184061754
2878,-0.04275331352025798
2879,-0.05490231263935873
2880,-0.06269865090831851
2881,-0.06540232774920565
2882,-0.06453566997224251
2883,-0.06167695730637879
2884,-0.05700743583829192
2885,-0.04992154222901243
2886,-0.040938463092723615
2887,-0.03275344485728184
2888,-0.028983410770151694
2889,-0.03143798171642266
2890,-0.038404853968070966
2891,-0.04574357357042407
2892,-0.05003193414183824
2893,-0.0509991420596039
2894,-0.051023880456320225
2895,-0.05218629728932523
2896,-0.0537134652579146
2897,-0.052374477946946024
2898,-0.045651216657482466
2899,-0.03485517420075998
2900,-0.025254816459469736
2901,-0.02282540743632982
2902,-0.03011750427258324
2903,-0.044425433562830415
2904,-0.059473106186494706
2905,-0.06909583861505686
2906,-0.0702141454891116
2907,-0.06346035646487691
2908,-0.051835082170260505
2909,-0.03891661263420079
2910,-0.02776512554785152
2911,-0.02057471605361631
2912,-0.01852876405484282
2913,-0.02157386029592797
2914,-0.028350780104640764
2915,-0.03660433555793108
2916,-0.04399090784014849
2917,-0.048837108057086416
2918,-0.05048056684713864
2919,-0.049194651064709397
2920,-0.04592712076640672
2921,-0.04199297470520333
2922,-0.03869472230604622
2923,-0.03688916483691871
2924,-0.0367198873670765
2925,-0.037761963998158406
2926,-0.03952395195421293
2927,-0.041886218845885115
2928,-0.0450441653067834
2929,-0.048958116443969975
2930,-0.05280602316806543
2931,-0.05501215849099039
2932,-0.05399421173496547
2933,-0.04920281454496116
2934,-0.04177874954602745
2935,-0.03436377916776187
2936,-0.030069076872593387
2937,-0.031041175466982977
2938,-0.03730480044755343
2939,-0.046528707366312594
2940,-0.05499167664834395
2941,-0.05937278500267945
2942,-0.05838460235826615
2943,-0.05321901357260028
2944,-0.04650619067053992
2945,-0.040562970368473
2946,-0.03625341927520463
2947,-0.0332512575228264
2948,-0.03126947383030536
2949,-0.030977987391097986
2950,-0.033655043248098454
2951,-0.039839378870543896
2952,-0.04824164591184355
2953,-0.05600779579900189
2954,-0.06025324429179192
2955,-0.059680709258737204
2956,-0.05504832150521967
2957,-0.04826900069245036
2958,-0.04105953408945326
2959,-0.034323429281288315
2960,-0.02866220092156229
2961,-0.025294106114888
2962,-0.02619909691819542
2963,-0.032932448540465786
2964,-0.044798858198772176
2965,-0.05794430980172989
2966,-0.06658473878383223
2967,-0.06609335202544925
2968,-0.056041118687268035
2969,-0.04089992261952963
2970,-0.02757021461674651
2971,-0.021282690608718784
2972,-0.022819277669321278
2973,-0.029044091519921086
2974,-0.03602861372231031
2975,-0.04190947695382778
2976,-0.0470534788184384
2977,-0.0518206488219107
2978,-0.054637905195828396
2979,-0.05276116707269239
2980,-0.04521292855584936
2981,-0.03482058002941431
2982,-0.026830544831449803
2983,-0.02494026531077622
2984,-0.028435661868797486
2985,-0.0333491835249511
2986,-0.03663793373685329
2987,-0.039184692603094005
2988,-0.0443875159703883
2989,-0.053557360927002425
2990,-0.06288500333776043
2991,-0.06557965159110675
2992,-0.05775102365744579
2993,-0.0425992419190614
2994,-0.028653601308725955
2995,-0.023283062104787797
2996,-0.027233401143952757
2997,-0.03504195558981858
2998,-0.04063862118771579
2999,-0.04263362006089375
3000,-0.0443734085986789
3001,-0.049150168959843844
3002,-0.05569116511177214
3003,-0.05860927017733566
3004,-0.0534401876302502
3005,-0.04131370054685558
3006,-0.02867643288156302
3007,-0.02229211086025042
3008,-0.024183489570801808
3009,-0.031000424361180196
3010,-0.037912556899872454
3011,-0.042961254591808364
3012,-0.04780197452337938
3013,-0.054615476081039734
3014,-0.06269657666380024
3015,-0.06829033922502423
3016,-0.06785750539047705
3017,-0.0615972629305529
3018,-0.053896453803859073
3019,-0.05030566574942152
3020,-0.053708764683302414
3021,-0.06278231899135475
3022,-0.07356665970155402
3023,-0.08233660785378137
3024,-0.0872943053040558
3025,-0.08815047435337993
3026,-0.08469663839432348
3027,-0.07615929929504085
3028,-0.06209716634805519
3029,-0.04398713477216074
3030,-0.02587053847310958
3031,-0.013050752468659381
3032,-0.00930295965305109
3033,-0.014305274571346983
3034,-0.023156268840895368
3035,-0.02870022512733167
3036,-0.025534375463887225
3037,-0.013204248248217577
3038,0.0036750834819305285
3039,0.018645931823867957
3040,0.0277557577775535
3041,0.03175533482905914
3042,0.0344059454635747
3043,0.03830229364691748
3044,0.04183251074725161
3045,0.040110819200835056
3046,0.029334435277249035
3047,0.01085192772631088
3048,-0.008816753074342933
3049,-0.022409882511036868
3050,-0.027253978503303532
3051,-0.026959429661653978
3052,-0.027980471945922902
3053,-0.03402167900489575
3054,-0.04319330205345784
3055,-0.05035744354333205
3056,-0.0524093166344852
3057,-0.051552264149242695
3058,-0.05344539482339525
3059,-0.06182804444329415
3060,-0.0745473252374528
3061,-0.08475921861306311
3062,-0.08644339734162977
3063,-0.07946243380912411
3064,-0.06975794762382233
3065,-0.06457057106755724
3066,-0.0668971319342414
3067,-0.07389183811982201
3068,-0.08025633842226962
3069,-0.08326673861423817
3070,-0.08490199688543718
3071,-0.08945116563236608
3072,-0.09912965476069685
3073,-0.11180511713528027
3074,-0.12267915573609248
3075,-0.12803526452328295
3076,-0.12751492406100218
3077,-0.12320875137368875
3078,-0.11713294912106459
3079,-0.1100645748589202
3080,-0.10287839246917801
3081,-0.0984346713436983
3082,-0.1010417240045981
3083,-0.11286080531878653
3084,-0.13013642924115976
3085,-0.14314533827628606
3086,-0.14080155891647364
3087,-0.1164417305789382
3088,-0.06978624563041014
3089,-0.00336876789306078
3090,0.08285699020128817
3091,0.1926435603619397
3092,0.3276172523797034
3093,0.4783537786308041
3094,0.6200405230361331
3095,0.717696577463489
3096,0.7387581087544396
3097,0.6653951887691101
3098,0.49979501208036614
3099,0.26157988980681574
3100,-0.01822081764352767
3101,-0.3022354745623329
3102,-0.5507247385356422
3103,-0.7275869173764081
3104,-0.8097243118755786
3105,-0.7958684718939555
3106,-0.708033806159573
3107,-0.5821753117199364
3108,-0.45230063092350736
3109,-0.33763156054229093
3110,-0.24043039764417737
3111,-0.15418620353818902
3112,-0.07458375272084901
3113,-0.004883777516652929
3114,0.04695169138138515
3115,0.07523220858179472
3116,0.08114831062827707
3117,0.07184002223981426
3118,0.05586245836844529
3119,0.03933481292326564
3120,0.02528897767316668
3121,0.015308469834812396
3122,0.010845722490904375
3123,0.012751703893294695
3124,0.019867030422564186
3125,0.02858774262615183
3126,0.0343173407579659
3127,0.03387512133009271
3128,0.02705108165405489
3129,0.01624705087120018
3130,0.00467615565528403
3131,-0.0054503660779264915
3132,-0.013588388132634896
3133,-0.020271480511276162
3134,-0.02604777693611999
3135,-0.030836344202780832
3136,-0.03404077477413421
3137,-0.03511575780543319
3138,-0.03405225888025022
3139,-0.031489778598360114
3140,-0.028540416914868104
3141,-0.026546156526459905
3142,-0.026825140611395036
3143,-0.030272304711679375
3144,-0.03677558491973173
3145,-0.04477011690489327
3146,-0.051479146606166384
3147,-0.054088504492070325
3148,-0.05135888427503563
3149,-0.04460721153485739
3150,-0.037211684115387014
3151,-0.032801855300148376
3152,-0.033320017872262124
3153,-0.038281230772364984
3154,-0.04562454496755114
3155,-0.05329988331312485
3156,-0.06024712842723555
3157,-0.06610739117148076
3158,-0.07022341140124722
3159,-0.07113030719182782
3160,-0.06724878908993448
3161,-0.05833852534426629
3162,-0.04649179314333805
3163,-0.03570871991852749
3164,-0.030143453543853182
3165,-0.032072258786215876
3166,-0.040799918488008874
3167,-0.05306944127947932
3168,-0.06462125969180366
3169,-0.07197674513224284
3170,-0.07355785544128363
3171,-0.06975998544254106
3172,-0.062219317491725316
3173,-0.05290064139779163
3174,-0.043570856559315696
3175,-0.03577251945554591
3176,-0.030920165380236557
3177,-0.030042693595613585
3178,-0.03312628919331986
3179,-0.038605875334887574
3180,-0.04368894320891149
3181,-0.045604488851989866
3182,-0.04300855515942785
3183,-0.03648427635435904
3184,-0.027749425831324382
3185,-0.0182964558775962
3186,-0.008691369772233986
3187,0.0008981834648131536
3188,0.009617875193236296
3189,0.01558338397606495
3190,0.016916579636655188
3191,0.013429045222162966
3192,0.007452914806548206
3193,0.0029337687181942088
3194,0.0033608606145970527
3195,0.010069928306461761
3196,0.022050761757186024
3197,0.03706457925014152
3198,0.05289514504794483
3199,0.06777163452931138
3200,0.08005564569915816
3201,0.08804807899063834
3202,0.09050862963752386
3203,0.08754971960512056
3204,0.08098965467520622
3205,0.07363925896774577
3206,0.06794906515536625
3207,0.0649995912026607
3208,0.06444825441018777
3209,0.06517475020095338
3210,0.06587944563466627
3211,0.06521300544255396
3212,0.06170851982316633
3213,0.05404771453593368
3214,0.04173850037330962
3215,0.02564223959913626
3216,0.007724123518392364
3217,-0.00993796978096087
3218,-0.02611780531751476
3219,-0.04058868545860275
3220,-0.053432463268431644
3221,-0.06429385829499232
3222,-0.07239589017949724
3223,-0.07734364660041475
3224,-0.07992123999797297
3225,-0.08203798598656484
3226,-0.08572919675607735
3227,-0.09191948811217598
3228,-0.09979219863452474
3229,-0.10707853388114838
3230,-0.11099140999417056
3231,-0.10935931806375307
3232,-0.10164048388984762
3233,-0.08950952972378623
3234,-0.07657453892816599
3235,-0.06694657274283283
3236,-0.06313733183611339
3237,-0.06460177979739373
3238,-0.0681865534043573
3239,-0.07042437470223385
3240,-0.06998402163639128
3241,-0.06822794389043195
3242,-0.0673574361165982
3243,-0.06782187449910805
3244,-0.06745570900036926
3245,-0.06328678046326518
3246,-0.05444885285121928
3247,-0.04351203971730273
3248,-0.03494065490138923
3249,-0.03199516704829977
3250,-0.03472682171960779
3251,-0.040552893408928516
3252,-0.04648296168954712
3253,-0.05078896488064509
3254,-0.05289391662334614
3255,-0.05229083511198065
3256,-0.04820429680837858
3257,-0.040610574179289316
3258,-0.031436327695871444
3259,-0.02427005635671627
3260,-0.022319429083471495
3261,-0.026187182922919286
3262,-0.03340267436125558
3263,-0.04013546125143443
3264,-0.043619581084075036
3265,-0.0433485821814586
3266,-0.04039684589138951
3267,-0.03591772711737997
3268,-0.030360039253729564
3269,-0.02395124978284477
3270,-0.01765898923475388
3271,-0.013452998822754724
3272,-0.013456937953014423
3273,-0.018622520898578236
3274,-0.02792693915216176
3275,-0.03862944331167177
3276,-0.04738499247244221
3277,-0.05157866085706224
3278,-0.050247252717583284
3279,-0.044217840296154824
3280,-0.0354714920167482
3281,-0.02615374628397194
3282,-0.017891132037433186
3283,-0.011837621964955443
3284,-0.009186987549398225
3285,-0.011320184861844343
3286,-0.01900482567374236
3287,-0.031112104193019123
3288,-0.04419024321303042
3289,-0.05384868233746655
3290,-0.05731680526573338
3291,-0.055175540485313465
3292,-0.05064404808926941
3293,-0.04687957184822142
3294,-0.04465238683245927
3295,-0.04252105264424229
3296,-0.039270118992538905
3297,-0.036095663955248956
3298,-0.03616017090284964
3299,-0.041707582236242616
3300,-0.05145357062063434
3301,-0.06087574415636548
3302,-0.06531431981695814
3303,-0.06312463156981696
3304,-0.05617019804089311
3305,-0.047626901131521016
3306,-0.03960180859922159
3307,-0.0328698711244092
3308,-0.028424013618813273
3309,-0.02840995817318736
3310,-0.03473914055789417
3311,-0.046491951437105924
3312,-0.059027407790475966
3313,-0.06637028824166534
3314,-0.0651719475069275
3315,-0.05674099841731426
3316,-0.04532335102811794
3317,-0.03439421231628777
3318,-0.024584198763603217
3319,-0.015079876801907473
3320,-0.006713820230057975
3321,-0.0031828716511707253
3322,-0.008711120578110347
3323,-0.024109093210138228
3324,-0.04493919357933614
3325,-0.06367659443435973
3326,-0.07418503944779425
3327,-0.07492216570216911
3328,-0.06866239825883749
3329,-0.05962515449977161
3330,-0.050768848705409056
3331,-0.04321939039421722
3332,-0.03750576635679051
3333,-0.03476808294639437
3334,-0.036539235732653705
3335,-0.043304211580334345
3336,-0.05321622510528626
3337,-0.06222696120196514
3338,-0.06581399790898049
3339,-0.06137348538488239
3340,-0.04985739955959763
3341,-0.03556890474224548
3342,-0.024039526158837105
3343,-0.019140077295992416
3344,-0.021241353266028704
3345,-0.02766466472077697
3346,-0.035006199002246705
3347,-0.04141552602848392
3348,-0.046960025396787106
3349,-0.05197366708996412
3350,-0.05525136669396419
3351,-0.05418917586039278
3352,-0.04709221831405458
3353,-0.03558648281363491
3354,-0.02464493548088963
3355,-0.019737721868295168
3356,-0.02323852256863754
3357,-0.03298924368521716
3358,-0.044104225242974984
3359,-0.05238617306766476
3360,-0.05658861103409063
3361,-0.05805974671612368
3362,-0.05863301954917991
3363,-0.05883687464292765
3364,-0.05775200075667477
3365,-0.05419522276574762
3366,-0.04797239192631412
3367,-0.04029852133820301
3368,-0.03338592095773442
3369,-0.029652357876345375
3370,-0.03083716878837431
3371,-0.03712405173727569
3372,-0.04657655975202365
3373,-0.055463750964339406
3374,-0.059762465187240744
3375,-0.05723666825239172
3376,-0.04878919464109943
3377,-0.03806565307641939
3378,-0.029488637488873138
3379,-0.026029000703765272
3380,-0.028114283203579254
3381,-0.034109460817945254
3382,-0.04167141714818712
3383,-0.048893999262707426
3384,-0.05465395174914457
3385,-0.0583169272642117
3386,-0.05931869138342921
3387,-0.05700347583424491
3388,-0.05082080340789737
3389,-0.040821660067745
3390,-0.028277577182836983
3391,-0.01603051563232917
3392,-0.008031723532079944
3393,-0.007823952589389931
3394,-0.016528590991269156
3395,-0.031640573090068375
3396,-0.04778965102260284
3397,-0.05938697276500333
3398,-0.06357782998255299
3399,-0.06146289826271972
3400,-0.05671039823154103
3401,-0.052655083080706815
3402,-0.050146122993429146
3403,-0.04774210143678516
3404,-0.043877884037285944
3405,-0.03900530672787522
3406,-0.03579844573897552
3407,-0.037199718356549616
3408,-0.04390292264742765
3409,-0.05331646827705104
3410,-0.060841116516509086
3411,-0.06251831446798627
3412,-0.057192184640514065
3413,-0.046871921417493606
3414,-0.03536052943283998
3415,-0.0262858368453368
3416,-0.021743522025454765
3417,-0.022040711574226705
3418,-0.02623261138088752
3419,-0.03283274037621485
3420,-0.04027403850938108
3421,-0.047065108252757296
3422,-0.051813025924093516
3423,-0.05330982836983618
3424,-0.050794727659721026
3425,-0.04437650466072662
3426,-0.03543290199821041
3427,-0.026651119857294688
3428,-0.02139397343669363
3429,-0.02240136599868718
3430,-0.030356016269629443
3431,-0.04317624424264886
3432,-0.05667160219416144
3433,-0.06641162923143683
3434,-0.06981220805487987
3435,-0.06719636452390534
3436,-0.06121282166661546
3437,-0.05509054554470211
3438,-0.050957967685011415
3439,-0.04928626302633483
3440,-0.04957624557562487
3441,-0.05146395045767883
3442,-0.05521754857928734
3443,-0.06124377056761748
3444,-0.06912424186074574
3445,-0.07709495734161509
3446,-0.08248917377070289
3447,-0.08288508806713554
3448,-0.07721441887734032
3449,-0.06623613002311463
3450,-0.05230693501857925
3451,-0.038747639965598685
3452,-0.02904050573928025
3453,-0.025841818540569425
3454,-0.029817900818969637
3455,-0.03873475368170575
3456,-0.04761365192492435
3457,-0.050486145606951964
3458,-0.04323869824717366
3459,-0.025949774634122888
3460,-0.003038064361960351
3461,0.019146950591104703
3462,0.03577480358013907
3463,0.04558996757955963
3464,0.05014418404002893
3465,0.05106658599165531
3466,0.04792464217573667
3467,0.03875040897677544
3468,0.022890451072350333
3469,0.0035206779165608696
3470,-0.012898666019974766
3471,-0.020468807412224833
3472,-0.018224186335454688
3473,-0.011386871616136267
3474,-0.00811228328434337
3475,-0.013962763240418362
3476,-0.02829214863332199
3477,-0.045263783775939974
3478,-0.05851653252584954
3479,-0.06563671912655242
3480,-0.06895956312841248
3481,-0.07241801018710427
3482,-0.07741505041983908
3483,-0.08130459830128778
3484,-0.07967036678744502
3485,-0.07036909165635469
3486,-0.0559650938170483
3487,-0.04266268965528204
3488,-0.036672547428819355
3489,-0.040736586987242834
3490,-0.05304974795668789
3491,-0.06881561522385804
3492,-0.0829506637890002
3493,-0.0921790704635917
3494,-0.09569152815468662
3495,-0.09461377997974346
3496,-0.09098834053747464
3497,-0.08686526594620803
3498,-0.08383751829717827
3499,-0.08311389921007925
3500,-0.08589289315994533
3501,-0.09346589601405239
3502,-0.10655581888734574
3503,-0.12413083173922362
3504,-0.14279910204272736
3505,-0.15786796397088548
3506,-0.16583825266769117
3507,-0.1665022418112631
3508,-0.16262471961400682
3509,-0.15703680606306009
3510,-0.14939448015606444
3511,-0.13542410015567868
3512,-0.10929756865184398
3513,-0.06676153922878861
3514,-0.005906719951608859
3515,0.07488282696675203
3516,0.1786607823519617
3517,0.3075558741228077
3518,0.4562265732080142
3519,0.6059821894859159
3520,0.7256738114430881
3521,0.7810935913468415
3522,0.7480174818505705
3523,0.621039417872975
3524,0.4137439599756569
3525,0.15241884734535568
3526,-0.1307058563972932
3527,-0.4009769510600668
3528,-0.6233444701382342
3529,-0.7672866959449968
3530,-0.8157995130727932
3531,-0.7736360384959097
3532,-0.6675716321099654
3533,-0.5358583633269047
3534,-0.4119784696170081
3535,-0.3124445227216591
3536,-0.2355913446880318
3537,-0.17038891639000314
3538,-0.10780500538644794
3539,-0.046998498244502133
3540,0.006127291634242219
3541,0.04471135970343085
3542,0.06586882822332467
3543,0.07190645724707523
3544,0.06844608083491117
3545,0.061710423897221395
3546,0.056526053485782546
3547,0.05525030686081628
3548,0.05736828793102633
3549,0.05988180358646679
3550,0.058755673559236624
3551,0.05106338714131954
3552,0.03670358599274516
3553,0.01859348171396065
3554,0.0012248514606088123
3555,-0.011447969273012
3556,-0.01753959358261297
3557,-0.017560296541278126
3558,-0.0137632958867134
3559,-0.009128638005128028
3560,-0.006445857855514515
3561,-0.0076471116540176255
3562,-0.013401744497691503
3563,-0.022994621295704707
3564,-0.03450231854451157
3565,-0.045219598926402454
3566,-0.0522814310423725
3567,-0.05347496871086818
3568,-0.04817029282270954
3569,-0.03802282375137136
3570,-0.02685289472548096
3571,-0.01931733495081872
3572,-0.018761477841896003
3573,-0.025455813290896346
3574,-0.036472572364376996
3575,-0.04744521838055059
3576,-0.05504971861526903
3577,-0.05844073330379067
3578,-0.05870595225262635
3579,-0.05705212493499308
3580,-0.05348047356830223
3581,-0.04717697515101257
3582,-0.03817713697314798
3583,-0.028589299338583687
3584,-0.02198922322896461
3585,-0.021264436883090827
3586,-0.026649206362373713
3587,-0.03558143679961906
3588,-0.04443923086330413
3589,-0.05066264792627281
3590,-0.053646017093387545
3591,-0.054086729696022864
3592,-0.05283753207988469
3593,-0.050441641645910154
3594,-0.04749300228299799
3595,-0.04499813003383582
3596,-0.04405713611879547
3597,-0.045147263556979934
3598,-0.04787366642518633
3599,-0.05152033790561023
3600,-0.0557097026580461
3601,-0.06023855054836727
3602,-0.06412715671117376
3603,-0.06507263409307902
3604,-0.06041945697532962
3605,-0.049272680234809206
3606,-0.03393103736870676
3607,-0.019042730714735993
3608,-0.00881737242184062
3609,-0.004476504241037695
3610,-0.004019875671524821
3611,-0.004314230488651358
3612,-0.0034422030096880694
3613,-0.001202035171947128
3614,0.0023456494589243313
3615,0.008353075738918189
3616,0.01875247635042933
3617,0.03404800177629007
3618,0.051524299584487135
3619,0.06600071399065979
3620,0.07300702241731302
3621,0.07190637842845242
3622,0.06629666838215734
3623,0.06125937917376079
3624,0.0597107534570534
3625,0.0608396753002081
3626,0.06175456626937614
3627,0.06068451237143759
3628,0.05883012563654626
3629,0.05926798752655088
3630,0.06394881118294575
3631,0.07145715086911882
3632,0.07746621145269275
3633,0.07747868731278354
3634,0.06959523878226229
3635,0.05523873453464853
3636,0.037650809889021974
3637,0.019773563271424714
3638,0.003277957072576166
3639,-0.01092427542042761
3640,-0.021838974001225468
3641,-0.02849205742931011
3642,-0.03100761932902696
3643,-0.031439668017161415
3644,-0.03318006366787272
3645,-0.03907667733641819
3646,-0.04967287959649251
3647,-0.0629676424632676
3648,-0.07581233481359459
3649,-0.0857275850128791
3650,-0.09174810093354224
3651,-0.09394200142889704
3652,-0.09245236966913334
3653,-0.08718207484131797
3654,-0.07845320395824604
3655,-0.06793831378458523
3656,-0.05881492396143474
3657,-0.05467274610166731
3658,-0.05767657373191972
3659,-0.06710538491579118
3660,-0.07925253828749622
3661,-0.08890511590671575
3662,-0.0916911094427748
3663,-0.08603307090346632
3664,-0.0736362640075894
3665,-0.05832102402531778
3666,-0.04404487330496022
3667,-0.03340823851399281
3668,-0.027420597844736615
3669,-0.026221628882505836
3670,-0.029732099527547243
3671,-0.03748979965502116
3672,-0.04792723490717555
3673,-0.05807596668590033
3674,-0.06439743029588885
3675,-0.06439229800575749
3676,-0.05785230778814692
3677,-0.04685824951299961
3678,-0.03464642512376462
3679,-0.024267522770249978
3680,-0.017838129067842736
3681,-0.016409858067014206
3682,-0.019953969502084203
3683,-0.027205646290503135
3684,-0.0357211732038679
3685,-0.042631825124505106
3686,-0.04593936206918673
3687,-0.04545049326844134
3688,-0.04250712026723432
3689,-0.038669772635034516
3690,-0.03453530981510004
3691,-0.029823480483159893
3692,-0.024647010562551728
3693,-0.02060212803777319
3694,-0.0202922591183651
3695,-0.02531113350662504
3696,-0.03432058658914838
3697,-0.043095924413565384
3698,-0.046893406047880566
3699,-0.04347784882562561
3700,-0.03445215672424817
3701,-0.02386113577520526
3702,-0.015293850098475737
3703,-0.009906439774405949
3704,-0.006864252970864286
3705,-0.005479992788987507
3706,-0.0067983940426269195
3707,-0.012932423590812727
3708,-0.024609369112074987
3709,-0.03920038454604434
3710,-0.05130838231581136
3711,-0.05586574690930108
3712,-0.05145890554990851
3713,-0.04122516969952894
3714,-0.030564770876089296
3715,-0.023512295190590574
3716,-0.020690784400485523
3717,-0.02035510668566958
3718,-0.021295736729637284
3719,-0.024702032619993326
3720,-0.03302115664517723
3721,-0.04668096719752372
3722,-0.06178841328986115
3723,-0.07143096789010309
3724,-0.07017845457688085
3725,-0.0583497581460083
3726,-0.04235949658917675
3727,-0.030488392095038543
3728,-0.027269202622134142
3729,-0.03096085629282131
3730,-0.0360190315302928
3731,-0.03820719737974064
3732,-0.037805247096327904
3733,-0.03825480700633464
3734,-0.04183235595666014
3735,-0.046653040872128376
3736,-0.047971308822467036
3737,-0.0426241287871208
3738,-0.032440714757308795
3739,-0.023356227572929038
3740,-0.020930200105062705
3741,-0.026241279540947814
3742,-0.03567795165289951
3743,-0.044500317696841304
3744,-0.05069618776566813
3745,-0.055664929748160015
3746,-0.061439321935587904
3747,-0.06738963133371952
3748,-0.069688954836097
3749,-0.06415026245137678
3750,-0.049990453669846516
3751,-0.03134412912325332
3752,-0.015327237454530691
3753,-0.008161366693948267
3754,-0.012046949061988315
3755,-0.024522978451622837
3756,-0.040173085829032784
3757,-0.05329096295362228
3758,-0.060070520814916165
3759,-0.05955612381406088
3760,-0.05329219656037757
3761,-0.04410088512395141
3762,-0.03471729943367938
3763,-0.02702822407002992
3764,-0.022205476829843224
3765,-0.021270778082350547
3766,-0.025211162316467278
3767,-0.034210728541013355
3768,-0.046595257110543624
3769,-0.05869496159282463
3770,-0.06625511367899475
3771,-0.06664838091590976
3772,-0.060259828562646715
3773,-0.04997327709726146
3774,-0.039258545933635994
3775,-0.030473779619661738
3776,-0.024588781399793806
3777,-0.022036349259114345
3778,-0.02333493385036438
3779,-0.02857374859270064
3780,-0.03632430422286423
3781,-0.04346053772298167
3782,-0.04667127356864438
3783,-0.044718747827496914
3784,-0.03946004679530255
3785,-0.034475063977425904
3786,-0.03224030843373939
3787,-0.03224618457706872
3788,-0.03181798685952898
3789,-0.029069603495007014
3790,-0.025401160319827365
3791,-0.02511439258324459
3792,-0.03208443936792782
3793,-0.0460525433285809
3794,-0.06169900911808241
3795,-0.07157503165913066
3796,-0.07085886132884348
3797,-0.06036194130896116
3798,-0.0455848428205727
3799,-0.03278569234475423
3800,-0.02529919272762992
3801,-0.022822374149429697
3802,-0.02360817953085504
3803,-0.02700644020946831
3804,-0.03379030909482716
3805,-0.04410659373198108
3806,-0.05536837441995021
3807,-0.06260074059715376
3808,-0.06146329038599819
3809,-0.05156265349026411
3810,-0.03719519106151559
3811,-0.02477551920936069
3812,-0.018970860277035578
3813,-0.020498761170621986
3814,-0.026935456116227573
3815,-0.035311025188773784
3816,-0.04403856728445729
3817,-0.0527488364926237
3818,-0.06071637960063739
3819,-0.06579317289156535
3820,-0.0651390557028993
3821,-0.057297356838069594
3822,-0.04390094667002942
3823,-0.029509035176645715
3824,-0.019472899317561982
3825,-0.01715491610887389
3826,-0.022264107865382715
3827,-0.031308157615308266
3828,-0.03978703480654118
3829,-0.044678914489371564
3830,-0.045665471545380865
3831,-0.04446205478569107
3832,-0.0429416358316418
3833,-0.04154987260043533
3834,-0.03920774566200408
3835,-0.03469758300094385
3836,-0.02834177088932401
3837,-0.022536883235578516
3838,-0.020587782679389127
3839,-0.02459758215524769
3840,-0.0338930515057996
3841,-0.04508830325627328
3842,-0.05375416492954498
3843,-0.056622170003827035
3844,-0.05300892857195337
3845,-0.04477212165184873
3846,-0.03508757562651417
3847,-0.026980480915765645
3848,-0.022459427626200155
3849,-0.02244222742319479
3850,-0.027002757632939356
3851,-0.03537389175847307
3852,-0.045668982967416526
3853,-0.054888500027491405
3854,-0.05976800876438086
3855,-0.0582756051125313
3856,-0.05076365860760231
3857,-0.03981228485977512
3858,-0.028817367962410752
3859,-0.020466329160737942
3860,-0.016278561408950034
3861,-0.017221430399174186
3862,-0.024210083060840288
3863,-0.037409430242152465
3864,-0.054733008607665036
3865,-0.07128155296452691
3866,-0.08108664702851144
3867,-0.08048575295574711
3868,-0.07063726031320908
3869,-0.05700508471774407
3870,-0.04603552868723091
3871,-0.04156852622533066
3872,-0.043594487861466955
3873,-0.04975768279096888
3874,-0.05768537126488145
3875,-0.0659669204024445
3876,-0.07343906972356877
3877,-0.07829277482919869
3878,-0.0784847473696551
3879,-0.0732170552443971
3880,-0.06384842887150093
3881,-0.053093829196942235
3882,-0.043188500544018064
3883,-0.034799692297106624
3884,-0.027620105908866804
3885,-0.021706134849087635
3886,-0.017821396533534005
3887,-0.01624411780031911
3888,-0.015401359675360335
3889,-0.012160584626892465
3890,-0.003992036174266333
3891,0.008845911262492831
3892,0.02322681655049734
3893,0.03537334217818776
3894,0.043321235832419834
3895,0.04735414780169343
3896,0.048223780418912815
3897,0.04527285545886439
3898,0.03670254908392563
3899,0.021957757468893623
3900,0.003800504017201717
3901,-0.012391205190854942
3902,-0.02202138121601778
3903,-0.024568074582540993
3904,-0.023767710493738388
3905,-0.02437743531760824
3906,-0.02834008615673419
3907,-0.03378973826960462
3908,-0.037737426269939076
3909,-0.039803381037919736
3910,-0.0432654452969071
3911,-0.05210749404318145
3912,-0.06656399845660099
3913,-0.08135976349938218
3914,-0.08873561997148385
3915,-0.08417070278932098
3916,-0.07015718640866841
3917,-0.05480264858776158
3918,-0.0462836338677826
3919,-0.047575754534328
3920,-0.05551069423113893
3921,-0.06446473493723885
3922,-0.07119256450265508
3923,-0.07672265835184505
3924,-0.08412730595721171
3925,-0.09463394354082799
3926,-0.10575339834380372
3927,-0.11304000039042988
3928,-0.11382109798125825
3929,-0.10963292110348755
3930,-0.10535183212720435
3931,-0.10579641804205434
3932,-0.11250191880815677
3933,-0.12303509595095888
3934,-0.133136680989012
3935,-0.13986485024275389
3936,-0.14327798628513244
3937,-0.14538262498813764
3938,-0.14719261495262403
3939,-0.14626666347843334
3940,-0.13680594076696584
3941,-0.11233756444727686
3942,-0.06873688087543034
3943,-0.0049446760862958145
3944,0.07902596285376194
3945,0.18407125732081234
3946,0.3103917016839052
3947,0.4517424650675245
3948,0.5897400756121527
3949,0.6943657321833219
3950,0.7331626259803441
3951,0.6847232746049104
3952,0.5479048889048835
3953,0.3410122884382174
3954,0.09291783367571248
3955,-0.16616661957808077
3956,-0.4081263579644801
3957,-0.6056796513722926
3958,-0.7330165568911651
3959,-0.7728636076694392
3960,-0.7265608690710044
3961,-0.6179754552504784
3962,-0.4849723035003152
3963,-0.3619745480890148
3964,-0.26512811878967557
3965,-0.19021039394672917
3966,-0.12358162279150067
3967,-0.05669302243310756
3968,0.006861319976739606
3969,0.0554839173169326
3970,0.07955042860427339
3971,0.07858670890256743
3972,0.06108636643902958
3973,0.03896085891965265
3974,0.021776807739100415
3975,0.014172128876785185
3976,0.01624424587422362
3977,0.024971359617236497
3978,0.03555462312601713
3979,0.042897210083811255
3980,0.043417144555605997
3981,0.03640744680050499
3982,0.023889545807552925
3983,0.009011014947370203
3984,-0.005659144581037973
3985,-0.01860945189852241
3986,-0.028685301314704814
3987,-0.034467842086954345
3988,-0.03474292976280392
3989,-0.029708459469081776
3990,-0.021624909529627222
3991,-0.014075156761741432
3992,-0.010298307025219458
3993,-0.011819392457781795
3994,-0.01815920849266093
3995,-0.02742129683035636
3996,-0.037079108371867536
3997,-0.04460815413229071
3998,-0.048071442527309466
3999,-0.046720632152472706
4000,-0.041279586093213846
4001,-0.03353036241288827
4002,-0.02539351361849638
4003,-0.01828165173445946
4004,-0.01330707355053723
4005,-0.011965453686987735
4006,-0.01619276342986583
4007,-0.027146446242485606
4008,-0.043456478055791434
4009,-0.06066432757854568
4010,-0.07294297005862918
4011,-0.0762865238273279
4012,-0.07086541310687235
4013,-0.060667511298267196
4014,-0.050690215728672744
4015,-0.043947380985337584
4016,-0.040579493914057935
4017,-0.03936595398299952
4018,-0.03979387399901471
4019,-0.042550573279644344
4020,-0.04809564936286342
4021,-0.055027513054327744
4022,-0.06021794933730368
4023,-0.06088083706236151
4024,-0.056702000819719794
4025,-0.049987736044321704
4026,-0.043706951764292054
4027,-0.03936293508333838
4028,-0.03670450060966492
4029,-0.03527557081600308
4030,-0.03581039485946288
4031,-0.03965177263729576
4032,-0.046601725330418294
4033,-0.053567760827108374
4034,-0.05587435359892892
4035,-0.05050029142759621
4036,-0.03839609795336644
4037,-0.023681025879740955
4038,-0.010407997523520283
4039,0.00012551977548682703
4040,0.009160811882677923
4041,0.01791541485312997
4042,0.02551585441324291
4043,0.02963234259264884
4044,0.029165303360810482
4045,0.026182291037927304
4046,0.025015149604172112
4047,0.029218755951222725
4048,0.03913008649410169
4049,0.052077213999133204
4050,0.06470445894683946
4051,0.07505722427259243
4052,0.0827145195505325
4053,0.08748655062225394
4054,0.08859684738885
4055,0.0854655642870175
4056,0.07919760975402214
4057,0.0728675713537344
4058,0.06978077503149323
4059,0.07097169068831191
4060,0.07415613323190423
4061,0.07519752988939735
4062,0.0709604029526106
4063,0.061238951038834616
4064,0.048306617664820486
4065,0.034687280477476254
4066,0.021161348015924904
4067,0.006646674744670137
4068,-0.010106170354925028
4069,-0.02858403962252501
4070,-0.046054647563130845
4071,-0.05904025106944441
4072,-0.06562645681163612
4073,-0.06686040220117204
4074,-0.06618402470374851
4075,-0.06730600860806951
4076,-0.07204234649861851
4077,-0.07962289177338748
4078,-0.08781042782885012
4079,-0.09479285280046297
4080,-0.10027143524344548
4081,-0.10492214848597942
4082,-0.1088494105854893
4083,-0.11057014821821992
4084,-0.10763785608600968
4085,-0.09856362297317757
4086,-0.08446637314723118
4087,-0.06899494003432764
4088,-0.0564565736248479
4089,-0.04954625066240784
4090,-0.04831497168493511
4091,-0.05087279049249109
4092,-0.05489093393924152
4093,-0.058556808684482015
4094,-0.06051246329184205
4095,-0.05947688561325917
4096,-0.05449367309501528
4097,-0.04585387611322051
4098,-0.03572310571554131
4099,-0.027504872418885253
4100,-0.024081313025183508
4101,-0.026194467763644973
4102,-0.032219311028816866
4103,-0.039407047429951624
4104,-0.045472732864011656
4105,-0.04929716844403322
4106,-0.050520583442394976
4107,-0.048860532494897094
4108,-0.04406502903358618
4109,-0.036543335952484414
4110,-0.02787463991694676
4111,-0.020448315130424017
4112,-0.01634452487164307
4113,-0.01632618341741593
4114,-0.019732208561064057
4115,-0.02524171133849753
4116,-0.031724010718006394
4117,-0.038394503278639275
4118,-0.044236840920484
4119,-0.047446974565289415
4120,-0.04577943780595703
4121,-0.037952180845685704
4122,-0.025215004290671986
4123,-0.011684823445455201
4124,-0.0026784059273193906
4125,-0.0017677953195629893
4126,-0.008543998148757958
4127,-0.01890638781428214
4128,-0.02790911416617082
4129,-0.0330659894188354
4130,-0.03543458346591068
4131,-0.03757062643402598
4132,-0.0402440685937053
4133,-0.0411045225022581
4134,-0.036838245722024106
4135,-0.027035298888157186
4136,-0.016058872917004807
4137,-0.010714300891628063
4138,-0.015303715239669089
4139,-0.028236496778936682
4140,-0.04318166865649335
4141,-0.053750692095413055
4142,-0.05760642242767122
4143,-0.05664361331993517
4144,-0.053730286264292056
4145,-0.04967309423056569
4146,-0.04348421161409921
4147,-0.03534302092704923
4148,-0.02864481174350971
4149,-0.02832314851732748
4150,-0.036511501327198034
4151,-0.049677764988633244
4152,-0.060411010152411994
4153,-0.06279027624452896
4154,-0.05676477758681164
4155,-0.047671905882619846
4156,-0.04136868310659067
4157,-0.03939894512619313
4158,-0.038469782452008716
4159,-0.03445423929245313
4160,-0.02700795485922728
4161,-0.020488466403716758
4162,-0.020412200473480357
4163,-0.028743792988485548
4164,-0.04216517107919626
4165,-0.05456991793697238
4166,-0.061290388206992896
4167,-0.06143195171392708
4168,-0.05689217827970682
4169,-0.04977844732534417
4170,-0.04100459352097224
4171,-0.031122835944145853
4172,-0.021939419415726635
4173,-0.01671192309112144
4174,-0.018314614848715285
4175,-0.026933341963586127
4176,-0.03943440594452146
4177,-0.051065284523368774
4178,-0.058117705280070445
4179,-0.05950563708530801
4180,-0.05634635203121684
4181,-0.05036838871556058
4182,-0.04273124969506035
4183,-0.03414096979289902
4184,-0.02581453185188881
4185,-0.020091296635752678
4186,-0.019833402446254145
4187,-0.026788677400632652
4188,-0.03998417764745907
4189,-0.05537402358183463
4190,-0.06729182863601547
4191,-0.07112719276352739
4192,-0.06572880336895325
4193,-0.053998811853184864
4194,-0.04119255678332373
4195,-0.03198298742192937
4196,-0.02824907174699028
4197,-0.028987968151769242
4198,-0.0320731848384259
4199,-0.03615954229454696
4200,-0.04111534866911383
4201,-0.04686885245202155
4202,-0.05209043186167932
4203,-0.05425827608672289
4204,-0.05128179017089883
4205,-0.043320110037934095
4206,-0.03318358805810778
4207,-0.024921403132463053
4208,-0.021680686148039856
4209,-0.024345298058397843
4210,-0.03162042036827077
4211,-0.041076794702221316
4212,-0.05023287990526945
4213,-0.057165274178276285
4214,-0.06072474176685712
4215,-0.060598010328136144
4216,-0.05725743485573729
4217,-0.05172617124589031
4218,-0.0452311453036259
4219,-0.03895122075667009
4220,-0.03393498694146543
4221,-0.03102495893547382
4222,-0.03064806570784147
4223,-0.03263205284177935
4224,-0.03634645205733817
4225,-0.04113209817428019
4226,-0.04651465435137588
4227,-0.05179223508853298
4228,-0.055377265448536356
4229,-0.0549315291622262
4230,-0.04886895012903514
4231,-0.03833398956081511
4232,-0.027726774809637172
4233,-0.02261503701812321
4234,-0.026122012069167012
4235,-0.03657266891621889
4236,-0.04848075978045154
4237,-0.05622868697147636
4238,-0.05748114014714861
4239,-0.05369713464200382
4240,-0.04778871145314927
4241,-0.041456415173601144
4242,-0.03467265949950278
4243,-0.027390428580971654
4244,-0.0212940089502984
4245,-0.019484104587173673
4246,-0.02417805876529532
4247,-0.034534430500505885
4248,-0.0466380575168303
4249,-0.05574449367231062
4250,-0.059024201996675116
4251,-0.05685415238374522
4252,-0.052023305605557596
4253,-0.04767993749882965
4254,-0.04540266912813875
4255,-0.0444503814161776
4256,-0.042584314892632216
4257,-0.0381065063073777
4258,-0.03192776872842953
4259,-0.02798569033156368
4260,-0.030997156744996136
4261,-0.04252216088147493
4262,-0.05828339703018938
4263,-0.06955829731052793
4264,-0.06858156706474433
4265,-0.05429321809738914
4266,-0.03376118059470955
4267,-0.017653775712134508
4268,-0.013003515843198688
4269,-0.018931048394234668
4270,-0.02861415515871999
4271,-0.035520471363398906
4272,-0.03842094404122662
4273,-0.04106554654385554
4274,-0.04730945340867543
4275,-0.05644025138004337
4276,-0.06300327620412835
4277,-0.06120461228395527
4278,-0.049942052017445324
4279,-0.03416935058612458
4280,-0.02162339410860184
4281,-0.017763561600329106
4282,-0.022853883609667246
4283,-0.032937094732418515
4284,-0.04324773032862575
4285,-0.05109821653366341
4286,-0.05632303706871779
4287,-0.059669313824561906
4288,-0.061050896568655075
4289,-0.05931924547948122
4290,-0.05367791511277395
4291,-0.04542530479152711
4292,-0.038398300899074256
4293,-0.03742756601394513
4294,-0.045582269636120554
4295,-0.06196230693138413
4296,-0.08159549841405048
4297,-0.09769154755944891
4298,-0.10493986697989952
4299,-0.10182268553652873
4300,-0.09061223226329129
4301,-0.07535922756504165
4302,-0.059528178798420955
4303,-0.044954849988799145
4304,-0.03251181585640324
4305,-0.023367010275568936
4306,-0.019278749749617956
4307,-0.02135813322408666
4308,-0.02828369850648686
4309,-0.0357073027222637
4310,-0.03783328230883731
4311,-0.030450214264273582
4312,-0.013431044855595764
4313,0.009044047241202943
4314,0.030696962933640444
4315,0.04624554248315077
4316,0.053349343439152874
4317,0.052434322370354
4318,0.04511090647236969
4319,0.03282606526888111
4320,0.016856499497650772
4321,-0.0006934537563045772
4322,-0.016275446914059542
4323,-0.02578506192276623
4324,-0.026728321175404093
4325,-0.020170587012433003
4326,-0.010873913068575158
4327,-0.005217933103352302
4328,-0.008051736850719776
4329,-0.020362237236810334
4330,-0.03906950979764172
4331,-0.05886583461443
4332,-0.07481984633765479
4333,-0.08422767103942701
4334,-0.08691688777722306
4335,-0.08428405032466055
4336,-0.0780404714168699
4337,-0.06958212490727383
4338,-0.06023529145652365
4339,-0.051866119206328214
4340,-0.04701732447279726
4341,-0.048093182686661406
4342,-0.05593453003858832
4343,-0.0688123898829025
4344,-0.08282449262451994
4345,-0.09377968548022768
4346,-0.09947713028360025
4347,-0.10078046288601475
4348,-0.10062660878055393
4349,-0.10167791921664812
4350,-0.10447932503226334
4351,-0.10763199208948963
4352,-0.10976498066031423
4353,-0.11141626875982086
4354,-0.1149117626547636
4355,-0.12216157508549536
4356,-0.13238557962730788
4357,-0.14207262868349688
4358,-0.14746067741540256
4359,-0.14728098217235447
4360,-0.14299336589330464
4361,-0.13602715873027743
4362,-0.12457775505242964
4363,-0.10320372464202239
4364,-0.06584400052077116
4365,-0.009382977332636017
4366,0.06576921094158007
4367,0.15835743943069108
4368,0.26842818787334816
4369,0.39479901697686814
4370,0.5283052336265045
4371,0.6468039853030594
4372,0.7185386521128125
4373,0.714423019536532
4374,0.6218944566391428
4375,0.450600500943862
4376,0.2262047267990356
4377,-0.021935229093135087
4378,-0.26915021980825404
4379,-0.494770914597034
4380,-0.6767819342857642
4381,-0.7911370356944268
4382,-0.8202998465619145
4383,-0.7654629397766282
4384,-0.6512039446682343
4385,-0.5160435146355644
4386,-0.3937923640237353
4387,-0.2985988459062977
4388,-0.2239921303057652
4389,-0.1551982810005712
4390,-0.08409567968210932
4391,-0.015481542435690193
4392,0.03841745821743082
4393,0.06874380601438215
4394,0.07673104053831135
4395,0.07191835898186279
4396,0.06490882218322352
4397,0.061234242364159336
4398,0.060452412648768675
4399,0.05951854590386399
4400,0.05647883160187741
4401,0.051522348475626964
4402,0.045535069969394056
4403,0.03840091170450001
4404,0.028923363085078153
4405,0.01635201745723327
4406,0.0019993232741867773
4407,-0.010598409456999896
4408,-0.017371022227049934
4409,-0.016298424863072133
4410,-0.0092185497756133
4411,-0.0014834295622943132
4412,0.0007008165573373
4413,-0.0061388110344680995
4414,-0.020526201256107494
4415,-0.03688427911695097
4416,-0.049102230150544525
4417,-0.05436944266161473
4418,-0.05442373559207711
4419,-0.0532917142688781
4420,-0.053472774397113114
4421,-0.05388551433793677
4422,-0.051390571197632594
4423,-0.04448276855211723
4424,-0.03566313128852132
4425,-0.030070053102802998
4426,-0.031351804865869456
4427,-0.03842831932140643
4428,-0.04617291028819397
4429,-0.04957406227778706
4430,-0.0477531368786843
4431,-0.04429218410085119
4432,-0.04365477018494626
4433,-0.047010877016320084
4434,-0.05125172413403965
4435,-0.052001035410100885
4436,-0.04779851908388884
4437,-0.04167679834629637
4438,-0.03882095521065412
4439,-0.04247456082918766
4440,-0.051570655541557174
4441,-0.06176103066279306
4442,-0.06853556450506648
4443,-0.0697268837266575
4444,-0.06583225802169808
4445,-0.05875448829690842
4446,-0.050589868647332635
4447,-0.0433034984606097
4448,-0.0387754539475914
4449,-0.038367018266050434
4450,-0.0420628501954361
4451,-0.04815438506178184
4452,-0.05414807179550972
4453,-0.058332589047818004
4454,-0.06060852483475551
4455,-0.0617871262124062
4456,-0.06208262675183714
4457,-0.06040121612463978
4458,-0.05528718323896174
4459,-0.04669355064482203
4460,-0.036786195093623124
4461,-0.028786524530355503
4462,-0.024695160915234306
4463,-0.02384978333869833
4464,-0.023556663557452145
4465,-0.021170791005313345
4466,-0.01575800890452512
4467,-0.008010011730905793
4468,0.0011870718616258597
4469,0.011910198322733379
4470,0.0248890953435704
4471,0.040090129947044945
4472,0.0556701454440305
4473,0.06840851335455925
4474,0.07535633414415396
4475,0.07545457491168375
4476,0.07010072934252118
4477,0.06261265736731615
4478,0.05715424658249364
4479,0.05750973391511733
4480,0.0657249613487827
4481,0.08083563912870873
4482,0.09851236098381624
4483,0.11248010998741709
4484,0.11743798387315454
4485,0.11172358153112978
4486,0.09771214746053837
4487,0.0795636009031874
4488,0.06017430355635214
4489,0.03991965479485279
4490,0.018118764255054737
4491,-0.004433341113298746
4492,-0.024550325282731687
4493,-0.03846493820456541
4494,-0.04479349650927027
4495,-0.045915001448567874
4496,-0.04649182248923154
4497,-0.050479156211877776
4498,-0.05917211144497847
4499,-0.07156309287684848
4500,-0.08597540005813155
4501,-0.10098538818930071
4502,-0.11488682266420432
4503,-0.12489142385216193
4504,-0.12772539241180955
4505,-0.12174110957921658
4506,-0.1087671956477308
4507,-0.09374496635340726
4508,-0.08205196923035349
4509,-0.07650662501627822
4510,-0.07633140731053717
4511,-0.07858050400094935
4512,-0.08046944603726466
4513,-0.08061652425714995
4514,-0.0786294215680157
4515,-0.07414765507815413
4516,-0.06671164537631671
4517,-0.056601206376552055
4518,-0.0455311875369361
4519,-0.03617232632099507
4520,-0.03072795661747211
4521,-0.02982696336744865
4522,-0.03267844795398114
4523,-0.038137064478996584
4524,-0.04545486153068733
4525,-0.0539614776188586
4526,-0.062190398134492356
4527,-0.06766941626174278
4528,-0.067961037675598
4529,-0.06223401250752909
4530,-0.05202230805388081
4531,-0.040511496290569604
4532,-0.030962132107596137
4533,-0.02547096088523752
4534,-0.02470091100387471
4535,-0.028216839204505247
4536,-0.034724949182910025
4537,-0.04207683456765324
4538,-0.047561738280244716
4539,-0.048889857113725906
4540,-0.04542834795741328
4541,-0.03866459718321834
4542,-0.03132132146883734
4543,-0.025713978933622567
4544,-0.022655261111479495
4545,-0.02170023894303786
4546,-0.022250606885747072
4547,-0.024273206917215948
4548,-0.027903316072450984
4549,-0.032462397130354356
4550,-0.036120886742229276
4551,-0.03684717916354113
4552,-0.033981205069859854
4553,-0.0290450974006633
4554,-0.02497334046410364
4555,-0.024277114188389702
4556,-0.027534627377063196
4557,-0.033284709894811665
4558,-0.0392541747269153
4559,-0.043875547817145456
4560,-0.046980453371114825
4561,-0.049300703806303026
4562,-0.051320418280293253
4563,-0.05246152121634344
4564,-0.05131562132892012
4565,-0.04685452094540507
4566,-0.03974917413146832
4567,-0.03267050902010596
4568,-0.029051645109510665
4569,-0.030972366491247093
4570,-0.037692050370778316
4571,-0.04605503352732039
4572,-0.05256466649228962
4573,-0.05551245985775639
4574,-0.055480617244708534
4575,-0.053996974539824494
4576,-0.05180107293582073
4577,-0.04844093766445941
4578,-0.0434629440645964
4579,-0.037744206645089526
4580,-0.03334727706954093
4581,-0.03188911590843416
4582,-0.033129047067532426
4583,-0.035399979825884095
4584,-0.03757778337841339
4585,-0.04048727285118754
4586,-0.04599305505816431
4587,-0.054374115957359775
4588,-0.06260978478034906
4589,-0.06571357732701982
4590,-0.06047930630318572
4591,-0.04853495207088576
4592,-0.03588108415464181
4593,-0.029002108054456972
4594,-0.030564130788570072
4595,-0.038022680274349754
4596,-0.045965691094617026
4597,-0.050029185220797814
4598,-0.04931387508599118
4599,-0.045905578470264136
4600,-0.04258547258633601
4601,-0.040905569605792176
4602,-0.04088389746672107
4603,-0.041887807348832316
4604,-0.043477335343412124
4605,-0.04554105077157359
4606,-0.04804558473441655
4607,-0.05098846837684236
4608,-0.05455513875314461
4609,-0.05892783587944379
4610,-0.063505205617869
4611,-0.06622182163850679
4612,-0.06407583662938643
4613,-0.05511184126790521
4614,-0.040553327347002954
4615,-0.025101350946607096
4616,-0.014601167401239575
4617,-0.012539043798322352
4618,-0.018096134721706056
4619,-0.027354255680457774
4620,-0.0365281944348608
4621,-0.04429510795561643
4622,-0.051232600023555626
4623,-0.05729202094175381
4624,-0.06028290646172213
4625,-0.057365453539714506
4626,-0.04834828816645285
4627,-0.03735659625787762
4628,-0.030623157190459663
4629,-0.03185745906382663
4630,-0.03927656338103042
4631,-0.04716229730002543
4632,-0.050686034654418684
4633,-0.049639264580684475
4634,-0.04771754649102512
4635,-0.048245791627825024
4636,-0.050613845462467076
4637,-0.05091398842555389
4638,-0.046106804858307135
4639,-0.03758116884307869
4640,-0.030583230491488672
4641,-0.02999865605103933
4642,-0.03641502346831019
4643,-0.045969752410038596
4644,-0.05378351773694164
