,0
0,-0.0020308812121769093
1,-0.00787150827579199
2,-0.009399791286466178
3,-0.007261787637486287
4,-0.006595505596074974
5,-0.011369559614353729
6,-0.019337984957080653
7,-0.023168714943843687
8,-0.01722607017012317
9,-0.003535827419736052
10,0.009262867217229364
11,0.013565267211818909
12,0.009980221040273112
13,0.006955751952928864
14,0.012791669765472729
15,0.0274464770157307
16,0.042085026009704436
17,0.047082854680322514
18,0.04100690158331152
19,0.03194386112896474
20,0.029782676087812675
21,0.036795340049550124
22,0.04557636632458564
23,0.04630768115571017
24,0.03626620397732289
25,0.022343808224700855
26,0.01423297935953243
27,0.015077507098726788
28,0.018780540516971332
29,0.016472947878018524
30,0.005555901855470427
31,-0.007721975333936383
32,-0.01462277843230618
33,-0.01271469029140633
34,-0.008220279464091648
35,-0.009579211635015048
36,-0.018752714424943848
37,-0.02907725032038605
38,-0.03189286961414435
39,-0.0253468133191359
40,-0.016551049214842913
41,-0.014872536202387978
42,-0.022952192849581835
43,-0.034287852278106906
44,-0.03967808398051559
45,-0.03605897261609317
46,-0.029000599582638703
47,-0.026560141419281452
48,-0.03084002676793877
49,-0.035823498391894346
50,-0.03367299093240405
51,-0.023108360228645576
52,-0.011329108447960617
53,-0.00738188622425896
54,-0.013473416833043924
55,-0.022869182460162236
56,-0.02650815771223964
57,-0.021768741953768517
58,-0.01464761793909759
59,-0.013205442436297437
60,-0.018943796695731374
61,-0.024946712473895
62,-0.022852250973562103
63,-0.011708158039417951
64,0.00038513273398149087
65,0.003861834494293654
66,-0.002851721524004174
67,-0.011581827683537415
68,-0.012471163519533122
69,-0.0040743586356172205
70,0.0047042855798077755
71,0.0032006065131760884
72,-0.010060668843030023
73,-0.024971745222782567
74,-0.02882550044144721
75,-0.018300796831606837
76,-0.002835548701414451
77,0.004066809904549915
78,-0.002671484207576622
79,-0.015435121429631288
80,-0.021868211863848235
81,-0.017078517528081403
82,-0.008043661884913553
83,-0.006028890177677069
84,-0.01480072497789019
85,-0.02655932748842398
86,-0.02968497713262558
87,-0.020471572408101338
88,-0.006996616885465575
89,-0.0012055197088515792
90,-0.007171653868594459
91,-0.01733486986091268
92,-0.020437382755923474
93,-0.013044821521708013
94,-0.0029403429902701457
95,-0.000962046483966222
96,-0.009624484309757125
97,-0.020178104518851818
98,-0.021226724549629247
99,-0.010270940067531693
100,0.003509844580686693
101,0.00814826745854473
102,0.0005994016336166468
103,-0.010449596800201487
104,-0.013450032075783805
105,-0.005587283180432923
106,0.004554344050190191
107,0.005871160165528271
108,-0.0038698868701608105
109,-0.01567265126272019
110,-0.018379987122413496
111,-0.010001420775952983
112,0.00018280902447572822
113,0.0009481481581562962
114,-0.00944936476679623
115,-0.021271885839826532
116,-0.022853533252361606
117,-0.012255964312017774
118,0.0006087706433514808
119,0.0035933006474967357
120,-0.005786817401133638
121,-0.017923789583171687
122,-0.02057179822279772
123,-0.010893064853194719
124,0.001706248187740034
125,0.004660488712600384
126,-0.0056913314995493645
127,-0.020763286841952767
128,-0.02811641585895089
129,-0.023178079714974615
130,-0.012929822379787476
131,-0.008393744580821375
132,-0.013739790469877661
133,-0.022784133354855338
134,-0.025917321612549508
135,-0.02006992977076203
136,-0.011604659320915435
137,-0.00947639870659665
138,-0.01588926403366073
139,-0.024027890927145433
140,-0.025062712697465392
141,-0.017165763976770596
142,-0.007326352339590298
143,-0.004193567065219235
144,-0.009337631362942777
145,-0.01588382954647762
146,-0.015882683224358863
147,-0.0088040236955682
148,-0.0023402295471738506
149,-0.0045326477614513905
150,-0.01516322272590489
151,-0.025282449360426243
152,-0.025638032474524338
153,-0.01574478929246512
154,-0.004519958940476347
155,-0.0017165391387561047
156,-0.008559407226899345
157,-0.01683403468532199
158,-0.01730120404606892
159,-0.009042004649627044
160,-0.0004188830808111387
161,-0.0006977822946825148
162,-0.010688723330933028
163,-0.021754921261124657
164,-0.024225126782282724
165,-0.016888320417642266
166,-0.008146815568116583
167,-0.0076479007358039915
168,-0.016637575364160394
169,-0.026566257467203955
170,-0.027367844395143268
171,-0.017332577957192383
172,-0.004935910916238961
173,-0.0008552879760317821
174,-0.007944367436542516
175,-0.0188189262368176
176,-0.023198138065814833
177,-0.017687811339491842
178,-0.008531733691669105
179,-0.004961392028544456
180,-0.010010208302282407
181,-0.01792371852702708
182,-0.02049199236745867
183,-0.01565370344655247
184,-0.009546366770108118
185,-0.009925611111142638
186,-0.01772255798773082
187,-0.02551090853226419
188,-0.024719689090196246
189,-0.014476536294327883
190,-0.003063481090297889
191,-0.00020214984970203876
192,-0.007629586812916707
193,-0.017359123147826776
194,-0.019508291241198218
195,-0.011997804639278211
196,-0.00242557502494529
197,-0.0001883061181455107
198,-0.006793478296995958
199,-0.014283357419509205
200,-0.013570918937884799
201,-0.004297615043326555
202,0.0040531090416581796
203,0.0014131601352334734
204,-0.012283368743692638
205,-0.026060239969709076
206,-0.02805373206192377
207,-0.01718877125713119
208,-0.0047101682944598825
209,-0.0036057247665961228
210,-0.015979786979304713
211,-0.030784454298352516
212,-0.034384382009714276
213,-0.023830347491410497
214,-0.009906184817667845
215,-0.0069015406444955215
216,-0.01899579625521848
217,-0.03639527542352082
218,-0.04477219908443916
219,-0.038626279305520164
220,-0.025649266401052244
221,-0.018322341607765736
222,-0.02153442126759549
223,-0.028519212279889804
224,-0.02866260668883397
225,-0.018777154485764877
226,-0.00629332017288934
227,-0.0013651669408607863
228,-0.00621890472352148
229,-0.012693560189100592
230,-0.010400604597368645
231,0.0028689810547578827
232,0.018969474528600164
233,0.02742620199863762
234,0.02535475086503812
235,0.01934554440769061
236,0.01782559559821893
237,0.022082320736515452
238,0.02519163698835196
239,0.019694135815930446
240,0.005825224576207837
241,-0.008302805917820543
242,-0.014698519370844328
243,-0.013314296020630903
244,-0.01158299128584351
245,-0.016196966513496253
246,-0.025727322624029696
247,-0.03184747275890318
248,-0.028031323075282097
249,-0.016768854298504346
250,-0.007655691260434712
251,-0.007941103717200332
252,-0.014946596225816086
253,-0.018200544402639095
254,-0.009593069574558043
255,0.008200095101265353
256,0.023294753767316972
257,0.024819404368914416
258,0.01211910449252604
259,-0.005569665152173277
260,-0.018122256278840634
261,-0.02309933308354245
262,-0.025724752840522117
263,-0.03109507745578706
264,-0.03732123034780144
265,-0.03710996488652957
266,-0.02629239836416323
267,-0.010222929538868917
268,-0.0006912585460678612
269,-0.00552048867585418
270,-0.020825636159067892
271,-0.03390536611608676
272,-0.034562285545954904
273,-0.024241880941670832
274,-0.014212370715815138
275,-0.014516059824657042
276,-0.024378539099575422
277,-0.03331726874943374
278,-0.031708379374796064
279,-0.020355684504042126
280,-0.00971577009322629
281,-0.009688183310420324
282,-0.020078983536391377
283,-0.03096728343296888
284,-0.03233285401170226
285,-0.02337273431113284
286,-0.012659092964167395
287,-0.009551545950856138
288,-0.015599249264202857
289,-0.023983795711277206
290,-0.026670536738092866
291,-0.021667004940561566
292,-0.013629603995041841
293,-0.008297602059118066
294,-0.006945279242791596
295,-0.005800665416658048
296,0.00039772741819858997
297,0.015049759214106138
298,0.038886559911387314
299,0.07007070601699117
300,0.10311562286194453
301,0.1280284531189147
302,0.13322395931828854
303,0.11236539980532928
304,0.06942090727209373
305,0.0156296027000688
306,-0.04021686656406456
307,-0.0979005920084096
308,-0.1590988424080374
309,-0.21190265114321485
310,-0.22392642896628173
311,-0.15902352597085917
312,-0.011862629135306151
313,0.1674478494584163
314,0.28691146595645556
315,0.26530326785708
316,0.0901472532849348
317,-0.16393334924591624
318,-0.37551813194774
319,-0.4499278648690007
320,-0.3740284428831716
321,-0.21442045994715875
322,-0.06457993922595659
323,0.016462058592580715
324,0.02996215260335728
325,0.016418599454583533
326,0.013200210054651093
327,0.027689465381514858
328,0.04288029539408774
329,0.042387457898946844
330,0.02832925101086104
331,0.017231927440202896
332,0.021741834416061732
333,0.03786308440897321
334,0.049580586150277314
335,0.0449046107652763
336,0.027122199867031162
337,0.010942908951132457
338,0.008207938968217206
339,0.017231966907085002
340,0.025469204510851294
341,0.022139541575546623
342,0.008382243868891201
343,-0.004460203272064601
344,-0.006205120871970953
345,0.0023556159267117942
346,0.010478726641161982
347,0.008046669421360403
348,-0.004622240831924257
349,-0.017097332183331603
350,-0.018848771150106372
351,-0.009293100303446704
352,0.001678805974350911
353,0.003057605092650674
354,-0.007065795595588718
355,-0.02007902697203333
356,-0.025302056109738864
357,-0.01996666332225698
358,-0.011173748793313218
359,-0.008309889571776724
360,-0.013702681993898574
361,-0.020782166229819123
362,-0.021363340724579755
363,-0.014522070609214557
364,-0.007957886406044026
365,-0.010263892858381762
366,-0.021698768324785213
367,-0.032783666847395816
368,-0.03254844328425848
369,-0.01880883450940299
370,-0.0006881281980653815
371,0.009146322019051781
372,0.005361721976243858
373,-0.006051087724572304
374,-0.014032076711501373
375,-0.01267629466833011
376,-0.005776686280213247
377,-0.00191896616108764
378,-0.005544183954477676
379,-0.012915454610773503
380,-0.016602901290555035
381,-0.013480064428616805
382,-0.007929590720003647
383,-0.007101922669821844
384,-0.0132824785723307
385,-0.021335881450151133
386,-0.023903687796886716
387,-0.018992070823176353
388,-0.012058375119192914
389,-0.010330645790246798
390,-0.015148979215337885
391,-0.020301059000339725
392,-0.018265219824968197
393,-0.00808183873445895
394,0.003304472264618787
395,0.007847598465638239
396,0.004557935772521118
397,0.000615750946948069
398,0.004081074617545359
399,0.015494822482395964
400,0.027030799721157045
401,0.030313131453630224
402,0.025085063221457333
403,0.019767296372530184
404,0.02299396806961258
405,0.03447525322231933
406,0.0445620222521311
407,0.043388553078085125
408,0.03080878053099642
409,0.01724472048393587
410,0.014311998960653792
411,0.02410666378032009
412,0.03740734067125465
413,0.04239619521694051
414,0.03537898238690167
415,0.023315258828091736
416,0.016222995691197298
417,0.01736524631746049
418,0.020865091780673743
419,0.018593851639967414
420,0.008887970046255397
421,-0.00184338936733639
422,-0.006020026146865011
423,-0.0029785988585020696
424,0.00015067967324072264
425,-0.004324636709301374
426,-0.016739997538885613
427,-0.02956007669688095
428,-0.03478977863812273
429,-0.031770100016750714
430,-0.027462486550265355
431,-0.02899991813191876
432,-0.0361697294683795
433,-0.04157215957501253
434,-0.038368399134253155
435,-0.0277214132094945
436,-0.018199086497173736
437,-0.01748724220886542
438,-0.024649678632866413
439,-0.030851705442018325
440,-0.02808932861780936
441,-0.01734401255731491
442,-0.00792526787099364
443,-0.008414602717371522
444,-0.018066654812888716
445,-0.027271111038192096
446,-0.02680445608813568
447,-0.016820730215490146
448,-0.006641231958062491
449,-0.005457860659284446
450,-0.013155331020854876
451,-0.020467863301724835
452,-0.018437342911920777
453,-0.007750430559434189
454,0.001550955087523172
455,-2.1219678628598467e-05
456,-0.011627492948592113
457,-0.02238502716708781
458,-0.021803356734853716
459,-0.010259164527462013
460,0.0009602408045934028
461,0.00042286071899090604
462,-0.012209336555010077
463,-0.025505531956293178
464,-0.027009136040574814
465,-0.015099344024959029
466,-0.0005200295635242004
467,0.003843217391803881
468,-0.005022261186101686
469,-0.017989117163164155
470,-0.023133345762592284
471,-0.017244224262523485
472,-0.008241871715790548
473,-0.006525324490829652
474,-0.01426772383590204
475,-0.023451740787747262
476,-0.024404542762645618
477,-0.015958819090278284
478,-0.0068208029368806
479,-0.006727321195626524
480,-0.016371701048126797
481,-0.02637745790402516
482,-0.026497152476339228
483,-0.01587815147232991
484,-0.004073285908966396
485,-0.0016825137919278153
486,-0.009889036156176798
487,-0.01930976081390315
488,-0.019335032116975223
489,-0.008695070931908268
490,0.0032333938401953085
491,0.005656528370144051
492,-0.003057764529041946
493,-0.013933146522288284
494,-0.016411108911855758
495,-0.008757998727642281
496,0.0005440806268335273
497,0.00171103563884157
498,-0.0062123144462959265
499,-0.014311878379067895
500,-0.012973932928167991
501,-0.0020081074998540395
502,0.008623727600521106
503,0.008438631648936202
504,-0.0030963767286247322
505,-0.015784627617669543
506,-0.018549254704858072
507,-0.010200161327782458
508,-0.00041301496574946105
509,4.3694254930952046e-05
510,-0.009956651766139524
511,-0.020946880242701076
512,-0.022590279310278596
513,-0.014212061012338573
514,-0.005454767331118472
515,-0.00636863643029428
516,-0.016977325460426212
517,-0.026955147258312454
518,-0.025860911072208656
519,-0.013668751781640332
520,-0.0009645546102283219
521,0.0014437289277222914
522,-0.006909144099318594
523,-0.015981691493358208
524,-0.015539212126551695
525,-0.005483400307336907
526,0.004191015570875709
527,0.0036382048682788207
528,-0.006882702747160624
529,-0.017434179186951365
530,-0.01867417230247638
531,-0.011415999246128076
532,-0.00568659839408355
533,-0.010244671013665285
534,-0.023280434765194105
535,-0.033853895051868456
536,-0.03272262721394219
537,-0.021641167637388548
538,-0.011693472331203051
539,-0.012260936510995139
540,-0.021678765428802
541,-0.02896820856607161
542,-0.024936348852894513
543,-0.011558472389183226
544,-0.00027228067234399663
545,-0.0008525528278403019
546,-0.011860596351623193
547,-0.02204649571717728
548,-0.021241203934026426
549,-0.01001375384186624
550,0.001240794247704498
551,0.0026344342020581937
552,-0.005737951466666165
553,-0.014348742237526232
554,-0.013965706497893355
555,-0.004786990421250975
556,0.003942036073145435
557,0.0032155855676432917
558,-0.006860875306456933
559,-0.01732076394180685
560,-0.019292177497941224
561,-0.012699999784293078
562,-0.006138317220446153
563,-0.008132092900014735
564,-0.018492122538112638
565,-0.028328559029854317
566,-0.028722462683275947
567,-0.01950256424756365
568,-0.009441115415174948
569,-0.007618303843407018
570,-0.014447785739657642
571,-0.02128532101764599
572,-0.01913438876620762
573,-0.007907750320199563
574,0.0030347641554857446
575,0.0038631328470886362
576,-0.005935636775478358
577,-0.016739835591625684
578,-0.018067158337625608
579,-0.00900702338687629
580,0.0005874475909108039
581,-0.00032000388691932544
582,-0.012765191828554758
583,-0.026097702856655705
584,-0.02785158631114968
585,-0.015858365698665264
586,-0.0007928723790480716
587,0.003580375345283998
588,-0.006749676641921223
589,-0.022421877603840255
590,-0.029735831817027672
591,-0.023529247917855628
592,-0.011497941193074698
593,-0.006084719585236597
594,-0.012226013720162587
595,-0.02302826594728089
596,-0.027267638306309464
597,-0.020807157844308394
598,-0.010415785006179158
599,-0.006469175748197314
600,-0.012314609900546156
601,-0.02121308796019488
602,-0.02372820444572748
603,-0.017629103807936596
604,-0.009937657940094031
605,-0.009091109341171948
606,-0.015593381831484305
607,-0.02115845610282619
608,-0.01746788986401343
609,-0.005459959298816852
610,0.004786821492205822
611,0.003926794169801501
612,-0.006933918455628702
613,-0.01683621863700275
614,-0.015739631923952987
615,-0.00480752510171347
616,0.00434484918985496
617,0.001073345408453686
618,-0.013428410481578418
619,-0.026803185554863197
620,-0.027389964417326947
621,-0.01570500317842182
622,-0.0041592308924703995
623,-0.005150273784443908
624,-0.019135822198714944
625,-0.03431577755353328
626,-0.03811197985794263
627,-0.02910293062692263
628,-0.017828812367440692
629,-0.016019176687228215
630,-0.02513897227009345
631,-0.03549572669541286
632,-0.03639101497158999
633,-0.026839174315526
634,-0.016110492349442063
635,-0.013824945844447545
636,-0.019863142332100125
637,-0.024414733830596072
638,-0.018132453014464103
639,-0.0020960372670480254
640,0.012585039157272361
641,0.015351954730972731
642,0.006571775966229949
643,-0.0025816197137000204
644,-0.0007399879370062726
645,0.01283715305674377
646,0.02767364353694323
647,0.032129504860954394
648,0.02420809041612168
649,0.012729873719029648
650,0.008098995414800615
651,0.01202893034827961
652,0.01632789552939421
653,0.011648661725682581
654,-0.0027678562729824335
655,-0.01811552463494335
656,-0.024648531217066873
657,-0.021121854036299553
658,-0.015549356436231685
659,-0.016618646934383682
660,-0.024561931418121442
661,-0.030834635630934616
662,-0.027018314180762323
663,-0.013922861688181014
664,-0.0014769322390452365
665,0.0008163283866609427
666,-0.006536887801480352
667,-0.01313261582574428
668,-0.008749615674077348
669,0.006275051805991431
670,0.020561326331488057
671,0.02174350365799571
672,0.007511849764033028
673,-0.012755710302210994
674,-0.02690110135077255
675,-0.03046311700826554
676,-0.02876126686801661
677,-0.029431026413164307
678,-0.03377028023189795
679,-0.03591078878152769
680,-0.03025060531902561
681,-0.01881743090985015
682,-0.010359358927103421
683,-0.011770491678678493
684,-0.02073339004359935
685,-0.02751467595693262
686,-0.02452659886089654
687,-0.014114239578758438
688,-0.006516913627844855
689,-0.009746595945363947
690,-0.021376170934007455
691,-0.03054135667489183
692,-0.028411101970594106
693,-0.01694668793397076
694,-0.0073282753820004334
695,-0.009438107450680536
696,-0.022430767652221455
697,-0.0353427049139025
698,-0.0371011397347228
699,-0.026510455729013897
700,-0.013064962897560792
701,-0.008159304690972428
702,-0.01499513076094917
703,-0.02622719910761705
704,-0.030956988958810713
705,-0.024297280708243364
706,-0.010946863095300591
707,-0.00010325165693463468
708,0.0031934548651236143
709,0.0024945605566687318
710,0.0066377030641857635
711,0.022108804246252212
712,0.04781532620026543
713,0.07620979230975543
714,0.09880638704099046
715,0.11069334223324939
716,0.11055787270031969
717,0.09771842769447599
718,0.07055558623964378
719,0.02863211138613505
720,-0.023977358735545885
721,-0.07869755679689266
722,-0.126939604880281
723,-0.16455796155074456
724,-0.19045098554558224
725,-0.19931327271565485
726,-0.17651893593371884
727,-0.10428025827904838
728,0.021037330353306315
729,0.1731932185397954
730,0.2981505696025719
731,0.3385674899495694
732,0.2667726407342269
733,0.10302246842445267
734,-0.09472535703207768
735,-0.26215019944775386
736,-0.35869806795720244
737,-0.3778458360141759
738,-0.33661629824505823
739,-0.25863057399192624
740,-0.16488147532509287
741,-0.0740143644805647
742,-0.0034803142977953986
743,0.03521866303036923
744,0.043685217303550995
745,0.036775560426326764
746,0.03218038667680258
747,0.03731314509649894
748,0.04556430539127322
749,0.04554093798855825
750,0.03410819666446013
751,0.02021990958201156
752,0.015921285723512646
753,0.024000058832907355
754,0.035083424390921575
755,0.037138454748453786
756,0.027550126535143684
757,0.015400223555720037
758,0.011768493713085505
759,0.018196265339354284
760,0.025214557610454224
761,0.022359318644528278
762,0.009260227657506705
763,-0.003665747292553208
764,-0.00568428806521006
765,0.0032917095464614237
766,0.012436237582193853
767,0.010790385529008116
768,-0.0017351057835482974
769,-0.01419302983211369
770,-0.015466076817378473
771,-0.005355118573120231
772,0.0051055258252311764
773,0.0043873226806834505
774,-0.008341321203984474
775,-0.02249302685968095
776,-0.02633438250984311
777,-0.01806277009872592
778,-0.0069615152463443925
779,-0.003856276778726117
780,-0.010543060086013184
781,-0.018560352821784573
782,-0.018188751845347767
783,-0.008456272706729256
784,0.0018298622098098269
785,0.0028794766567435707
786,-0.006377787281891307
787,-0.017337396063324708
788,-0.020293963325517222
789,-0.013832237830002774
790,-0.005675413067637537
791,-0.00435728596392451
792,-0.0103388792688328
793,-0.015664270162484555
794,-0.012502225690892616
795,-0.0018000840457114524
796,0.0069672195754296685
797,0.005003013434943955
798,-0.0067953981123331795
799,-0.01823813061004259
800,-0.019590348649847558
801,-0.011130799048056078
802,-0.0029185086861553853
803,-0.004775735687326906
804,-0.016318528518561803
805,-0.02703073037883822
806,-0.02651847769721051
807,-0.014894988511906525
808,-0.002935200267368781
809,-0.0016797320052935325
810,-0.011670883208762316
811,-0.022470727112094666
812,-0.022964709512101916
813,-0.012239895830213548
814,-0.00025674465818044823
815,0.0022705602535172675
816,-0.005411385438464732
817,-0.013529075768428742
818,-0.011858676958084242
819,-0.00021196276665221014
820,0.011282633151974381
821,0.012370197790871607
822,0.0029976558290835007
823,-0.006663604985543432
824,-0.006468295743181543
825,0.003616380233934425
826,0.013782627594548125
827,0.014594193697082493
828,0.006599423156616518
829,-0.00048416041541036927
830,0.0019471726997824512
831,0.012370348641718317
832,0.02082371875786533
833,0.019636615219987386
834,0.012052846105136315
835,0.009548040086140464
836,0.02017767703732947
837,0.03968166944114296
838,0.05462350107083195
839,0.0548480750491407
840,0.04305901122982659
841,0.03198680230588584
842,0.031882646486986875
843,0.04068068518982003
844,0.04649989772332477
845,0.03987336504746414
846,0.023464910854785036
847,0.0096217567018466
848,0.008251150600757966
849,0.017067967644993288
850,0.023804070263640544
851,0.01808960669300192
852,0.0012808710010994812
853,-0.015237814563123406
854,-0.021275734839900064
855,-0.017371667845631388
856,-0.013467091887282113
857,-0.018484886105307453
858,-0.031411146163910414
859,-0.04258161692394537
860,-0.04348252393438376
861,-0.03503296924684449
862,-0.02620410812257962
863,-0.024745456412987803
864,-0.029615078263528757
865,-0.032697348169749625
866,-0.027797963638059184
867,-0.017524405294675277
868,-0.01089155419160013
869,-0.013992312752184592
870,-0.02322547018464619
871,-0.028167175421082102
872,-0.021580313490553293
873,-0.006816557691967665
874,0.004795967639686073
875,0.004308381264696821
876,-0.006578916922024238
877,-0.01721504504128838
878,-0.01800149971730519
879,-0.00915176185099157
880,-9.196118587465963e-06
881,0.0001303303014005921
882,-0.009276501174337308
883,-0.019988354509784763
884,-0.023234870715862187
885,-0.017951346457412025
886,-0.011057893084794209
887,-0.00991362898215715
888,-0.014758365077723021
889,-0.0187298263379198
890,-0.01529371566551465
891,-0.005440896172906776
892,0.002767122008514629
893,0.0020389252730365374
894,-0.006668287033810654
895,-0.014591256314787969
896,-0.01334116843355106
897,-0.002963024821986841
898,0.007989147266495435
899,0.010483398141010536
900,0.0033669315611214567
901,-0.006013248967048744
902,-0.009356458097255004
903,-0.005538499698909589
904,-0.0012774438326335594
905,-0.003827124258770903
906,-0.01321565452458141
907,-0.022002780476325763
908,-0.02289565402809896
909,-0.01647132109784286
910,-0.010934310952268315
911,-0.013803562743412788
912,-0.023773660640956273
913,-0.031211383196113766
914,-0.02731260494700673
915,-0.013118378474643018
916,0.0006912620911830036
917,0.0034485882457892508
918,-0.005567377395462074
919,-0.01659128207876026
920,-0.018815806438351214
921,-0.010599028710181185
922,-0.0004600287360014487
923,0.0019528268154664825
924,-0.004255742727675098
925,-0.010476700332484871
926,-0.00771010004699766
927,0.003751039087278497
928,0.014021366735706807
929,0.013214068379511525
930,0.0013679703770675142
931,-0.011312725075108202
932,-0.014259610001408362
933,-0.006657097139675363
934,0.002150823408338741
935,0.002209784476367379
936,-0.007249462332929431
937,-0.017549558543509702
938,-0.01980993689746405
939,-0.014023371512558395
940,-0.00863491355112808
941,-0.011200688876071774
942,-0.019972744419198427
943,-0.02534676204742895
944,-0.019914522631788292
945,-0.006815292397405198
946,0.002480957842937102
947,-0.0007907425863416546
948,-0.01368939313864752
949,-0.023766033502549563
950,-0.020674237855037657
951,-0.006047540065448077
952,0.007940181000297673
953,0.00994335349508955
954,-0.0002180951694812698
955,-0.01203371950039571
956,-0.01475096297161951
957,-0.007430625414926336
958,0.0009559016789724016
959,0.0009169729193592999
960,-0.008321422344859133
961,-0.018725161644962865
962,-0.02204261248146399
963,-0.018013348828990673
964,-0.013925739895106539
965,-0.016346350690021216
966,-0.02383617927637402
967,-0.028273767251907375
968,-0.02339400501804223
969,-0.011644645844349804
970,-0.0021712838377284734
971,-0.0018960517470499884
972,-0.008820990880690396
973,-0.014445532506203337
974,-0.012783853089530735
975,-0.006586988911919941
976,-0.004204628037048858
977,-0.010270116141027179
978,-0.020011455074079063
979,-0.023482418032791132
980,-0.01576620727276264
981,-0.0027306316338869905
982,0.003928157211250659
983,-0.002183405527400476
984,-0.01586339348574109
985,-0.02525918902369556
986,-0.023248418188435295
987,-0.013988628313856444
988,-0.008244666137743887
989,-0.012395104087569598
990,-0.02225233753459634
991,-0.02772430892864692
992,-0.023236916800684855
993,-0.013147207538155924
994,-0.006830041949336297
995,-0.008895486078094983
996,-0.0148598036330369
997,-0.01660088371572005
998,-0.01150698270127348
999,-0.0053792624408566855
1000,-0.005904884130498678
1001,-0.013713039536096693
1002,-0.020826761617242402
1003,-0.018628680076939904
1004,-0.007256523429179573
1005,0.0035824115483004417
1006,0.0037670421116255937
1007,-0.007122759335132695
1008,-0.01908684618896709
1009,-0.021391955458339662
1010,-0.013072391329194452
1011,-0.0036782431105754866
1012,-0.0035048231329719575
1013,-0.013200460708924562
1014,-0.023285977413881727
1015,-0.024013706170051614
1016,-0.015422062295318995
1017,-0.007226527515938157
1018,-0.008613757955125728
1019,-0.01844565912074011
1020,-0.026098878464785126
1021,-0.022319942826718477
1022,-0.009081644321953889
1023,0.0018102269537385951
1024,0.0002736547661680651
1025,-0.01188379049330596
1026,-0.02259404577798868
1027,-0.021537544167796026
1028,-0.010509891603080588
1029,-0.0015795294608535885
1030,-0.004724186144123111
1031,-0.01739028568699852
1032,-0.0266990100852411
1033,-0.022358826281980708
1034,-0.0074141726667072624
1035,0.004125806059702576
1036,0.0007185410797428977
1037,-0.015412569999010712
1038,-0.030328327737339393
1039,-0.03179668693524271
1040,-0.02086249756611143
1041,-0.010266748907390348
1042,-0.011542369706898628
1043,-0.023757511749731824
1044,-0.034957567232184586
1045,-0.034482787040563595
1046,-0.02355815685224016
1047,-0.013616520140948364
1048,-0.014401688560982947
1049,-0.024139086297462996
1050,-0.03167959020866727
1051,-0.028155592543854815
1052,-0.016039508368798343
1053,-0.006329156147625418
1054,-0.006876869287946877
1055,-0.014015498490085168
1056,-0.01628840554617032
1057,-0.006663379492287228
1058,0.00926536663308234
1059,0.017835066613426577
1060,0.010640747163184673
1061,-0.006390466447493612
1062,-0.01743170538938666
1063,-0.010957700347104402
1064,0.00956245805848156
1065,0.028553000686509497
1066,0.03205003369710727
1067,0.01944474983030888
1068,0.0026679572326633073
1069,-0.005696623812294208
1070,-0.0037054083875385337
1071,-0.000341720933550823
1072,-0.005370335995943017
1073,-0.019168842978988916
1074,-0.03233345960858372
1075,-0.03491786044309753
1076,-0.025900358955166885
1077,-0.013751386297123948
1078,-0.00803117018318102
1079,-0.010575870533850194
1080,-0.01469581959841106
1081,-0.012524492819279896
1082,-0.0027652446499431167
1083,0.008691191159367895
1084,0.015155048387325948
1085,0.015398196449932271
1086,0.01334293559364105
1087,0.01208494011791696
1088,0.009300049183978656
1089,-0.00044881197599091734
1090,-0.018594190152155587
1091,-0.038381268084183226
1092,-0.04892984641983733
1093,-0.04450949004357977
1094,-0.030198232587951318
1095,-0.017999366276691284
1096,-0.01656799144138817
1097,-0.024052634222021446
1098,-0.03075937117583339
1099,-0.028955002065679997
1100,-0.0202837206496704
1101,-0.013697646246076674
1102,-0.01613396996363431
1103,-0.025255970356679567
1104,-0.03148384709316395
1105,-0.02736516429151927
1106,-0.015094546113161252
1107,-0.004766434738849857
1108,-0.004965627564483719
1109,-0.01474992905432116
1110,-0.024723595941713958
1111,-0.026099436498997607
1112,-0.018964068652825954
1113,-0.011818328169156194
1114,-0.012981009036754683
1115,-0.022333066752406622
1116,-0.03148611990434261
1117,-0.032160619226972074
1118,-0.024434863332059985
1119,-0.016564044899482138
1120,-0.01638125284714196
1121,-0.022829076537815407
1122,-0.026401612277991836
1123,-0.018597220100596817
1124,-0.0011768519359072606
1125,0.014526089701015496
1126,0.018605440935762253
1127,0.01366398046523581
1128,0.014563687142722161
1129,0.035620318526727424
1130,0.07632040515605652
1131,0.11902126813700374
1132,0.14156412868454266
1133,0.13386176138852257
1134,0.10363777621372802
1135,0.06662943063856731
1136,0.031143789535838174
1137,-0.008185051815197384
1138,-0.06193169319686932
1139,-0.13145045122696097
1140,-0.20236464139399962
1141,-0.2513841643770433
1142,-0.25910483156371367
1143,-0.21752876320464004
1144,-0.12905674959190533
1145,-0.003690209267735207
1146,0.13864662741834016
1147,0.2636689808520589
1148,0.327138937045478
1149,0.2938975149427922
1150,0.16192221689236444
1151,-0.028212493483591852
1152,-0.21035555614712464
1153,-0.3273121367883916
1154,-0.35863278181564684
1155,-0.32247742574555943
1156,-0.25377618967477633
1157,-0.17917338369884261
1158,-0.10820778563154701
1159,-0.0424039741989833
1160,0.012504643806902983
1161,0.045789398159625655
1162,0.05217777353983462
1163,0.040336644544680375
1164,0.02826860501688405
1165,0.028766937896975195
1166,0.03912523159977725
1167,0.04552584843588788
1168,0.03787976063146966
1169,0.02041796205025609
1170,0.007652176460596644
1171,0.00995985006802895
1172,0.023262987107788242
1173,0.03299659136324426
1174,0.028301432230266932
1175,0.012387745095988986
1176,-0.0009762037088193462
1177,-0.0011259632226592762
1178,0.009248590655204546
1179,0.017199717995555877
1180,0.012638273005872985
1181,-0.001612478390893404
1182,-0.012690894209947921
1183,-0.010532540041176913
1184,0.0020660018464501158
1185,0.012073634845622102
1186,0.00893873027009659
1187,-0.005109937827072404
1188,-0.017277200690233
1189,-0.01674088381973729
1190,-0.005214495922781693
1191,0.00480399421481577
1192,0.002346283384389016
1193,-0.011240872414530215
1194,-0.023593888762040535
1195,-0.023394189833308317
1196,-0.011343986495576093
1197,0.0006531927117828993
1198,0.0011862036762262068
1199,-0.00964918389391683
1200,-0.02066756118075219
1201,-0.020848497183635913
1202,-0.010208466721742342
1203,0.00038624514755963586
1204,9.82835616118137e-05
1205,-0.011195695564152224
1206,-0.0229260117846898
1207,-0.024337232976951992
1208,-0.014932055677347915
1209,-0.004578250523277748
1210,-0.0034276502890883127
1211,-0.011865065795218652
1212,-0.020449529832018976
1213,-0.019674893872012864
1214,-0.009608915116629608
1215,0.00022457109583125614
1216,0.00045509702421083756
1217,-0.008771790218942673
1218,-0.018030978590365614
1219,-0.01809600544516953
1220,-0.009091214181898843
1221,-0.00021260604930155953
1222,-0.0004409331989189973
1223,-0.009634093783691193
1224,-0.01885673728860902
1225,-0.01945644940462442
1226,-0.01168397886775667
1227,-0.004259170887180516
1228,-0.005461187269482854
1229,-0.01478198667850076
1230,-0.023488873082348635
1231,-0.02341681373654838
1232,-0.015089027552661505
1233,-0.007048222887628754
1234,-0.007167286276372642
1235,-0.014712002014859872
1236,-0.021072008889051568
1237,-0.01833849864443037
1238,-0.007115872433160861
1239,0.004142084733698377
1240,0.007432210933686914
1241,0.0027635906697034106
1242,-0.00242625587463327
1243,-0.0010835624207389083
1244,0.006524780333537983
1245,0.013704696597592467
1246,0.014843603470719426
1247,0.011532011668015731
1248,0.010809725205250875
1249,0.017292776070584583
1250,0.02745209976476761
1251,0.032349359499348945
1252,0.026533513477699246
1253,0.014244469467996405
1254,0.006347858752386547
1255,0.010506624490723163
1256,0.023993819056859024
1257,0.03624619103918679
1258,0.03881138640503791
1259,0.033024073497265036
1260,0.027903392388329968
1261,0.030418526411191023
1262,0.03791125960701461
1263,0.0404185504871322
1264,0.030776477912570033
1265,0.012455045851293832
1266,-0.002919385460915212
1267,-0.006246928654129023
1268,0.0005440189099986502
1269,0.006615866219731563
1270,0.002965161724708251
1271,-0.008826336415172381
1272,-0.01855993706410609
1273,-0.018149801640716418
1274,-0.010285264053391571
1275,-0.006123258530685702
1276,-0.014085363864971586
1277,-0.030925431507554356
1278,-0.04420422810010724
1279,-0.04399726221903802
1280,-0.03233883357980871
1281,-0.02101578825502793
1282,-0.01990117496296858
1283,-0.027492730831515984
1284,-0.03310340482196681
1285,-0.028379227519710108
1286,-0.01633343555340342
1287,-0.008537180975725872
1288,-0.013139779717358899
1289,-0.02588730961137701
1290,-0.0335617772752803
1291,-0.026848687739335124
1292,-0.009957258795382007
1293,0.00280738398351552
1294,0.0005524618480470022
1295,-0.013639336011457653
1296,-0.025444546944491078
1297,-0.022822494294701352
1298,-0.007366840139721607
1299,0.007315922693195416
1300,0.008441947172410959
1301,-0.004303236126593451
1302,-0.01919667141408854
1303,-0.023989970081258447
1304,-0.017025885257018196
1305,-0.007477657117924868
1306,-0.005280071227767264
1307,-0.011280431299638655
1308,-0.01732195185518051
1309,-0.015606575954911779
1310,-0.007363337044965789
1311,-0.0018229338587621969
1312,-0.006553604831713709
1313,-0.019095714043021704
1314,-0.02860676270558897
1315,-0.026163963083460764
1316,-0.013583998057958149
1317,-0.0019314700810179326
1318,-0.0010394597565924603
1319,-0.010275810828988874
1320,-0.01958843141946982
1321,-0.019704734020395756
1322,-0.01131189458258532
1323,-0.00409066916392426
1324,-0.006605888831837631
1325,-0.017216155525693
1326,-0.025223694859517594
1327,-0.02131331213356958
1328,-0.006999159337445625
1329,0.006379530686713799
1330,0.008319658096150491
1331,-0.0008951839487238886
1332,-0.01071109864052314
1333,-0.01078870272605122
1334,-0.0011634222143715835
1335,0.007870008990217739
1336,0.005967737756612215
1337,-0.007035995145456331
1338,-0.020870848349986492
1339,-0.024625559379303795
1340,-0.01685021148202794
1341,-0.006164676313465983
1342,-0.0021840206555539445
1343,-0.006135461678974786
1344,-0.010530944906793054
1345,-0.00785554865126166
1346,0.0009538703779720184
1347,0.007138595704365283
1348,0.003311081410790343
1349,-0.008257014467724845
1350,-0.017005859965392178
1351,-0.014159760639363
1352,-0.0016120733392341834
1353,0.00935243762862207
1354,0.008512731279375872
1355,-0.003744674907976229
1356,-0.017038237394565746
1357,-0.02103773463871727
1358,-0.015035661587685815
1359,-0.00781079365650266
1360,-0.008297643581823342
1361,-0.016606519126799425
1362,-0.02430497210787418
1363,-0.02337664075363819
1364,-0.014558177193208352
1365,-0.00655092463453142
1366,-0.006990914616585596
1367,-0.014480162313788129
1368,-0.01990875895587641
1369,-0.01583208029798649
1370,-0.004400133626007392
1371,0.004331425111993707
1372,0.002219812455829919
1373,-0.008785723660066871
1374,-0.018376961125063318
1375,-0.01793272576486245
1376,-0.008896256482291287
1377,-0.0010879569824630115
1378,-0.0026327548360941316
1379,-0.01167641049930574
1380,-0.018359267197776516
1381,-0.01516853734835308
1382,-0.005145511164910087
1383,0.0006741871054774859
1384,-0.0055854216992807185
1385,-0.020017697895743362
1386,-0.02988817696316355
1387,-0.025821018863565894
1388,-0.011379321765129166
1389,-0.0002859384960587554
1390,-0.0035050895156610276
1391,-0.018574440526842685
1392,-0.031709807284339
1393,-0.03085023864049432
1394,-0.017041132240165558
1395,-0.0030984374580116467
1396,-0.0009808865301566298
1397,-0.010398957145576499
1398,-0.01984872882151818
1399,-0.018771428806361623
1400,-0.008398262780478699
1401,-0.00025603197921037044
1402,-0.0038967908659722625
1403,-0.01647518565674283
1404,-0.025067264910446797
1405,-0.01971452573285115
1406,-0.004083252240448401
1407,0.0073149276810193335
1408,0.003034290115014011
1409,-0.01390609373762299
1410,-0.028607274600277885
1411,-0.02860544255610424
1412,-0.01596271740567016
1413,-0.0051959051435153236
1414,-0.008958469351061728
1415,-0.025438105159731488
1416,-0.03979132179976752
1417,-0.03823512141114185
1418,-0.021128879485572093
1419,-0.0024918114111270435
1420,0.0033297565541422526
1421,-0.005207604740203847
1422,-0.016420392709396183
1423,-0.017563785811806034
1424,-0.0073195833096310154
1425,0.003548431518111511
1426,0.0035793489027949278
1427,-0.007579891364313741
1428,-0.01871783478404044
1429,-0.018290905623723836
1430,-0.006106593802206331
1431,0.006151414930453308
1432,0.006122650274192134
1433,-0.0072403858374754555
1434,-0.022542122123897394
1435,-0.026695748749305713
1436,-0.017103770702388048
1437,-0.0036393247309447372
1438,0.0011292043907935438
1439,-0.006284402295236106
1440,-0.017817705656620768
1441,-0.02257026654896544
1442,-0.017625443572400624
1443,-0.010246277603736729
1444,-0.009679635682712448
1445,-0.017254060959547814
1446,-0.02494096164054988
1447,-0.02374953621271026
1448,-0.013253825794019427
1449,-0.002406415184676027
1450,-0.0006940335655284432
1451,-0.008580085133593126
1452,-0.016995985447234765
1453,-0.016510407619850568
1454,-0.006954034734686707
1455,0.0022750218826367735
1456,0.0016167185285756894
1457,-0.009005399843595767
1458,-0.020089396267304396
1459,-0.02217235676735186
1460,-0.015444124669577654
1461,-0.009552793825156922
1462,-0.013680444721643342
1463,-0.026881903758480024
1464,-0.03856111927950036
1465,-0.03882295454426289
1466,-0.028433052603517073
1467,-0.01834169073997389
1468,-0.019039568844656796
1469,-0.03014735511054057
1470,-0.04048832514937301
1471,-0.038613658789970334
1472,-0.023560583270451782
1473,-0.005545083994934669
1474,0.003771908337535962
1475,0.001797607123423798
1476,-0.0036681600689538038
1477,-0.0029360221483530607
1478,0.006091263272592911
1479,0.016683390433154466
1480,0.020859722585272567
1481,0.017621287782478158
1482,0.013511621129944123
1483,0.015316969352184835
1484,0.022662711650991308
1485,0.028086452472230256
1486,0.0243777953238262
1487,0.011668748531022819
1488,-0.002761087693206963
1489,-0.011501453729145279
1490,-0.013632607754310385
1491,-0.014456613017869628
1492,-0.019037540965498725
1493,-0.0264401797145582
1494,-0.030540532523559157
1495,-0.02633444349926877
1496,-0.015062342869957262
1497,-0.0029145108401780768
1498,0.005063052621100559
1499,0.009207397483429698
1500,0.013066748009365473
1501,0.017340840750248956
1502,0.017025836216931677
1503,0.005824549537387445
1504,-0.015976397934989638
1505,-0.03852834677825198
1506,-0.04874947011184788
1507,-0.04121480118742579
1508,-0.023540466502194345
1509,-0.010522752745984859
1510,-0.011694831873073974
1511,-0.02350473109813451
1512,-0.03334489159006076
1513,-0.031617829456815835
1514,-0.020447515456006884
1515,-0.010959552906903772
1516,-0.012126536999565746
1517,-0.022221230540103352
1518,-0.031080192116760018
1519,-0.03054692470404235
1520,-0.022446036483825177
1521,-0.01618048391444299
1522,-0.01866438100265171
1523,-0.027028298802444867
1524,-0.031583836194293835
1525,-0.025981534389254376
1526,-0.01411131088481362
1527,-0.006583558098271405
1528,-0.010226545113590235
1529,-0.02116204443398935
1530,-0.028457517023773873
1531,-0.02473745440671539
1532,-0.013200042536208757
1533,-0.004154565322701723
1534,-0.00465797450993671
1535,-0.011530789133222644
1536,-0.014393803649265867
1537,-0.005304297037638069
1538,0.014674861634964217
1539,0.03795827831493405
1540,0.058438481958197994
1541,0.07603594063954298
1542,0.09301062614454095
1543,0.1065343434782357
1544,0.10654627943716763
1545,0.08265976688935936
1546,0.03406401041104948
1547,-0.0276900597315387
1548,-0.08657960624192323
1549,-0.13318498284447197
1550,-0.16736586753568372
1551,-0.18905130915408624
1552,-0.18684721714895847
1553,-0.1390462932235556
1554,-0.03157776024006233
1555,0.11977173759976815
1556,0.2637516676737618
1557,0.3351937282554519
1558,0.2923663061118469
1559,0.14397152425286147
1560,-0.05441426666532477
1561,-0.23195653707621383
1562,-0.339180163016203
1563,-0.3651424094931401
1564,-0.3284892221630495
1565,-0.2561292670070401
1566,-0.16882739518301948
1567,-0.08118539169418568
1568,-0.007764478098410327
1569,0.036958341141138704
1570,0.04708754879832931
1571,0.03251504844362001
1572,0.014458890787073068
1573,0.010565921520682439
1574,0.022319700114428697
1575,0.03646414699078442
1576,0.039076006534910716
1577,0.028824647440887016
1578,0.0170548433022248
1579,0.015509028659041881
1580,0.024504083742008527
1581,0.03329584242934326
1582,0.03165673767059547
1583,0.020440905144943414
1584,0.010383606580511332
1585,0.010700456878943745
1586,0.019428151620899246
1587,0.02540232755673829
1588,0.019683534741034105
1589,0.004637293369687953
1590,-0.008536564528295511
1591,-0.011124525768882069
1592,-0.005422270036169893
1593,-0.001856148621602652
1594,-0.007839390934570895
1595,-0.019881912805633215
1596,-0.027041529876572185
1597,-0.022181839704318362
1598,-0.009545879114663253
1599,-0.0008811332894777456
1600,-0.003918251712506439
1601,-0.014723298297045165
1602,-0.02158853632970363
1603,-0.016621995270593055
1604,-0.003561645865655368
1605,0.005866523672043843
1606,0.0033725964345421855
1607,-0.007970879916166358
1608,-0.016980231295529075
1609,-0.01537824498674268
1610,-0.005630138093672937
1611,0.001967274026257453
1612,-0.00025252779910823336
1613,-0.009876287683692489
1614,-0.01727631874063594
1615,-0.015626652507787282
1616,-0.00778676096380019
1617,-0.003092485079960422
1618,-0.007435332922060717
1619,-0.016899599804329476
1620,-0.0216583929880961
1621,-0.016332358352704725
1622,-0.006184845053542514
1623,-0.0024221456118230155
1624,-0.010819964678183927
1625,-0.024992970916561795
1626,-0.031528395513568286
1627,-0.02262750234524851
1628,-0.004170796175629557
1629,0.008922502679631725
1630,0.006078780026559771
1631,-0.009322086115871105
1632,-0.02322316910779274
1633,-0.023929079743425015
1634,-0.012529204704866265
1635,-0.0009995589399708874
1636,-0.00022712828886097274
1637,-0.009766806913747685
1638,-0.019087559914090724
1639,-0.01859500362167129
1640,-0.009219313107500564
1641,-0.0011066765898941882
1642,-0.0030061241060910186
1643,-0.013194568939550816
1644,-0.021074224589208487
1645,-0.017760351708998222
1646,-0.004964483699531562
1647,0.006740597155791334
1648,0.008485486892161328
1649,0.0018717890218634384
1650,-0.0028224682998549393
1651,0.00286227100735526
1652,0.016928611604898808
1653,0.02877315702859756
1654,0.029622586098084012
1655,0.021108964343984543
1656,0.013515548884016772
1657,0.01562648140394748
1658,0.0264269985629983
1659,0.0368190140049878
1660,0.039274936171215816
1661,0.03538486291447627
1662,0.03359914888169637
1663,0.03965557400093346
1664,0.049771354742233924
1665,0.053890739672855084
1666,0.04591319511079766
1667,0.030457168489090202
1668,0.018963151646131614
1669,0.018674894432129614
1670,0.02543701286599076
1671,0.027702196378033263
1672,0.018019527288853983
1673,0.0006715816397000966
1674,-0.012236683548080739
1675,-0.012531653663342187
1676,-0.004000331582024985
1677,0.0012961747940748406
1678,-0.005141367582519797
1679,-0.019928776122598628
1680,-0.031218353578523705
1681,-0.030473694762506685
1682,-0.020925024262552324
1683,-0.014306456930992367
1684,-0.019095748638759784
1685,-0.03193136183977213
1686,-0.04077418492837751
1687,-0.036768482035615085
1688,-0.023123299674220502
1689,-0.012226379641606324
1690,-0.01376342580892891
1691,-0.025434859800386393
1692,-0.035269201291961094
1693,-0.0331532745577968
1694,-0.020290620525177328
1695,-0.007564357435277882
1696,-0.004802156871288783
1697,-0.011707672299442865
1698,-0.019157736760318483
1699,-0.01899707372561152
1700,-0.012124620405339875
1701,-0.006820027947507386
1702,-0.00946032960513889
1703,-0.01750701590946932
1704,-0.02208107971390824
1705,-0.017373451401424208
1706,-0.007000796515151341
1707,-0.0005662697520773348
1708,-0.003852070654316356
1709,-0.012745775878835035
1710,-0.017262768204777425
1711,-0.011670008082730783
1712,-0.0003907016663224634
1713,0.006379954799396532
1714,0.0029017830097007704
1715,-0.006480372408840748
1716,-0.012031288740369035
1717,-0.008758093361643383
1718,-0.0014822626617133966
1719,0.0004414387989234521
1720,-0.006687100340713163
1721,-0.016489441205478954
1722,-0.018744638510877498
1723,-0.010170188803057752
1724,0.0013584339909580808
1725,0.003935247304247944
1726,-0.006581078238628676
1727,-0.021847607863057117
1728,-0.02848460571998796
1729,-0.020799155873738196
1730,-0.006437403309326999
1731,0.0007450306284251496
1732,-0.006085868461474572
1733,-0.020136060457080086
1734,-0.02744027035707387
1735,-0.020232402710007067
1736,-0.0043940877731651114
1737,0.006150516885077064
1738,0.002659835146951738
1739,-0.0102887656280774
1740,-0.019457463372703213
1741,-0.015744454652842042
1742,-0.002720051576361606
1743,0.007198039455514534
1744,0.004979705627145551
1745,-0.0063808406889549
1746,-0.015138388000394718
1747,-0.012564554777154159
1748,-0.001543478828465246
1749,0.0064206396646817295
1750,0.0027219040110052204
1751,-0.009749569027091622
1752,-0.01942823929392227
1753,-0.01747306002563047
1754,-0.006404748535562662
1755,0.0026041284783692572
1756,0.0010697089436276013
1757,-0.008182983191528829
1758,-0.013822883820095975
1759,-0.0075708813240055566
1760,0.006978488656779459
1761,0.017212200353108442
1762,0.013471839540542242
1763,-0.0015097452040144159
1764,-0.015004577625869445
1765,-0.016264737490401398
1766,-0.006459847272050637
1767,0.0029839610528550812
1768,0.00179846890146228
1769,-0.009266072503766105
1770,-0.01967170178744764
1771,-0.01985312016464505
1772,-0.010622591424535175
1773,-0.0019702189813397848
1774,-0.002771660034778964
1775,-0.011926641681641537
1776,-0.01977257948305007
1777,-0.018129595010835782
1778,-0.008695987550494893
1779,-0.0013492190442652191
1780,-0.004194160980268575
1781,-0.015462924510648507
1782,-0.025338832378774358
1783,-0.025668599853200323
1784,-0.017660817206143167
1785,-0.009938063984795208
1786,-0.009254507806847624
1787,-0.013607180465438497
1788,-0.014839864360473232
1789,-0.0079303114795263
1790,0.002853811502460747
1791,0.00763538693280989
1792,0.001023563234429409
1793,-0.011643330533999269
1794,-0.018657662461879533
1795,-0.013108168851129157
1796,1.0232682547877802e-05
1797,0.00799414840661247
1798,0.0022603503539310307
1799,-0.013434052234311758
1800,-0.026325380835890835
1801,-0.026436224556656892
1802,-0.01563583868327431
1803,-0.005457085263685375
1804,-0.005968027348945979
1805,-0.01644892591350883
1806,-0.02663218738218106
1807,-0.026932631311030745
1808,-0.01754352741641438
1809,-0.007704236924112071
1810,-0.00623624069002132
1811,-0.012897407077435905
1812,-0.019025620329433102
1813,-0.01659080602908127
1814,-0.006477544782423111
1815,0.002276112346223407
1816,0.0014720944019301413
1817,-0.008026240666240542
1818,-0.01703953162097534
1819,-0.017027659295031958
1820,-0.008337376562661458
1821,0.0004241947873165413
1822,0.0011616032628399017
1823,-0.0056658991404473415
1824,-0.011835035338763091
1825,-0.010141961055957755
1826,-0.0021853925888681933
1827,0.002942945386826141
1828,-0.0020214970998591445
1829,-0.014545063147776227
1830,-0.023975617751727497
1831,-0.021624458615494953
1832,-0.009423564143662418
1833,0.001565933416149045
1834,0.001605297748661306
1835,-0.008448428050223425
1836,-0.018169798102546056
1837,-0.017894075314921272
1838,-0.008140990191248993
1839,0.0011487332172489065
1840,0.0006626249890987032
1841,-0.009098980137822038
1842,-0.01867206584472554
1843,-0.019471458503254407
1844,-0.01249238621966401
1845,-0.006985528567527281
1846,-0.010534325212549373
1847,-0.020812852207204684
1848,-0.027618878094353108
1849,-0.02323520736587998
1850,-0.010544841498822548
1851,-0.0004924384149926767
1852,-0.0013165440197308498
1853,-0.01043612525831979
1854,-0.017268813059128564
1855,-0.014161444288582403
1856,-0.004308907560593039
1857,0.0014692065078355451
1858,-0.004093567532532956
1859,-0.016930812112981558
1860,-0.025295325830255136
1861,-0.0213706986504579
1862,-0.009280166803372715
1863,-0.0014305720077262224
1864,-0.006715430557412057
1865,-0.022151151153198566
1866,-0.03601770773531526
1867,-0.039127496069183164
1868,-0.032957117382696535
1869,-0.026843490989426254
1870,-0.02759141037521392
1871,-0.03234856321925899
1872,-0.031986589902169
1873,-0.021302901090497615
1874,-0.0053021006582453
1875,0.0051824222449966765
1876,0.004276618344959975
1877,-0.0027613237822421374
1878,-0.004565738738380376
1879,0.00484840311063189
1880,0.019647842952331178
1881,0.02753921499585142
1882,0.02191395666151417
1883,0.008758152780271915
1884,0.0012294928448593533
1885,0.0069835323148035
1886,0.02068601266276555
1887,0.02920184788218949
1888,0.02442937535967557
1889,0.011067121652022435
1890,0.0015425952144194036
1891,0.0031461917594110145
1892,0.010348347930444484
1893,0.010258810337967272
1894,-0.003979600539277262
1895,-0.025277454520303028
1896,-0.03844638125270143
1897,-0.034481725313499564
1898,-0.019351956777271938
1899,-0.008483513576203538
1900,-0.012097717000615685
1901,-0.025594655589344966
1902,-0.034270385692827574
1903,-0.027598624904295124
1904,-0.009032597004266018
1905,0.008033340762721884
1906,0.013620308180096786
1907,0.01017796914103004
1908,0.00832914433242481
1909,0.014158385140520178
1910,0.021610244563639212
1911,0.018357404683797818
1912,-0.0004914278585997344
1913,-0.025038336953445
1914,-0.037991450555244013
1915,-0.030512300239356936
1916,-0.011248649426673758
1917,0.000756289707557613
1918,-0.006801014620678782
1919,-0.028261203829467875
1920,-0.04527834821497594
1921,-0.04363655324847576
1922,-0.02586102002956027
1923,-0.008118174181141819
1924,-0.004892206801237991
1925,-0.016187120828310655
1926,-0.028963241011420535
1927,-0.030549557260378474
1928,-0.02057918689344914
1929,-0.01014941213559533
1930,-0.009810992333132974
1931,-0.018791837749694847
1932,-0.026159072634584085
1933,-0.022454375628381595
1934,-0.009881410014600758
1935,-0.0006490989328860089
1936,-0.004953278236325699
1937,-0.020516943438816056
1938,-0.034247294246398344
1939,-0.03465691652072478
1940,-0.02292700979094529
1941,-0.011590491275582804
1942,-0.011931710611240171
1943,-0.022518599082631777
1944,-0.0304610653482273
1945,-0.024466488559727016
1946,-0.006723100280212158
1947,0.008747231151941943
1948,0.010410644627619387
1949,0.0022988031817474724
1950,0.002222600357448464
1951,0.025550148161681947
1952,0.06937875668516644
1953,0.112369043834739
1954,0.13104958802114508
1955,0.11785005830203224
1956,0.0846245156418608
1957,0.049414754867508924
1958,0.019894890462149387
1959,-0.010892980983699464
1960,-0.053738753255393984
1961,-0.10908711454500641
1962,-0.1630055473064317
1963,-0.19541675203296005
1964,-0.19100945633828104
1965,-0.14339009484640286
1966,-0.05337538211341028
1967,0.0702832852934491
1968,0.2044319820479771
1969,0.30780390799556795
1970,0.33223866737944635
1971,0.24907012040191773
1972,0.07337473548645518
1973,-0.1357577234906478
1974,-0.30446825435495345
1975,-0.384087192084562
1976,-0.37298897728097824
1977,-0.3060158006628976
1978,-0.22356790262724846
1979,-0.14705701227953916
1980,-0.07786628816803332
1981,-0.013734372820966536
1982,0.03797894966899952
1983,0.06388461147904104
1984,0.05939261779795138
1985,0.037333477444713714
1986,0.019849361729556446
1987,0.020638818749670936
1988,0.03469559093350133
1989,0.04532061229712033
1990,0.041241371212452416
1991,0.027152396849853225
1992,0.01798095158532459
1993,0.023292116042260863
1994,0.03751223326541543
1995,0.04537275126011393
1996,0.03684721039752964
1997,0.0168321684229211
1998,0.00037739469538429406
1999,-0.0015106615082489184
2000,0.00838424711302235
2001,0.017231709676198605
2002,0.015091435570578645
2003,0.0041146502027636905
2004,-0.004668587082252453
2005,-0.003139107211126095
2006,0.0056426521551805105
2007,0.010826824870560128
2008,0.005061486606175849
2009,-0.007904134338535294
2010,-0.016927645711209614
2011,-0.014590525089456826
2012,-0.0044224694698716165
2013,0.002956469504485514
2014,0.0006555471301714392
2015,-0.00779982024374087
2016,-0.012619246234841173
2017,-0.008268741783485474
2018,0.0006015457634601421
2019,0.003978136533866226
2020,-0.002939749205280724
2021,-0.014414823129211066
2022,-0.01976119554568827
2023,-0.014247007250630309
2024,-0.004090358523528454
2025,-0.00022700863235610368
2026,-0.007032837660160399
2027,-0.017545604623335355
2028,-0.02032452339129085
2029,-0.011244426155549605
2030,0.0017592971506614598
2031,0.006155254353762107
2032,-0.0026330473366880766
2033,-0.016147550516715025
2034,-0.02076382937875776
2035,-0.011171462722395706
2036,0.00375838535369582
2037,0.00887965077367275
2038,-0.0027292761068045865
2039,-0.022513359486680803
2040,-0.03363984806670649
2041,-0.02617205286081234
2042,-0.006120035686321252
2043,0.009996467560040271
2044,0.009867385114448315
2045,-0.004276835489741252
2046,-0.0188723435285364
2047,-0.02202657653859755
2048,-0.01375406088273412
2049,-0.004277140887207091
2050,-0.003062746089339646
2051,-0.009834049822930955
2052,-0.016041702954382044
2053,-0.014465219104974888
2054,-0.006723411099328624
2055,-0.001157296450815437
2056,-0.0036896327266939272
2057,-0.01139638115002261
2058,-0.01550047588036366
2059,-0.010606361665295282
2060,-0.0004739873419144576
2061,0.005818515280949073
2062,0.0034917994543702067
2063,-0.0025193809767560717
2064,-0.0022357426862287502
2065,0.009039642206485902
2066,0.025210958587765356
2067,0.03463575241994765
2068,0.03131424328025063
2069,0.021010362005191414
2070,0.016031892277849437
2071,0.02353578765160398
2072,0.038718267954314045
2073,0.049553117948510576
2074,0.04841762716109619
2075,0.039194486444489265
2076,0.032965163494636504
2077,0.036725126515372936
2078,0.046414752320391564
2079,0.05117153636919
2080,0.04447022919110645
2081,0.030936924063154674
2082,0.02194964976779855
2083,0.02434530001677724
2084,0.03346880218089898
2085,0.03753441921819327
2086,0.029059782263766057
2087,0.01211518750448446
2088,-0.0017354997901664914
2089,-0.004751017720104368
2090,-0.00039600984584243994
2091,0.00045184266156666315
2092,-0.009375809439328298
2093,-0.02596673446662955
2094,-0.03802293550940074
2095,-0.03793273529182376
2096,-0.02920998114428736
2097,-0.02290331145839957
2098,-0.02654096312006117
2099,-0.036613615780462315
2100,-0.04211561449039103
2101,-0.03568266378265281
2102,-0.021259336047370764
2103,-0.010584635770643103
2104,-0.011843455144785998
2105,-0.02166410535871552
2106,-0.028434426642936828
2107,-0.023750096772495538
2108,-0.010719994827426662
2109,-0.0009007957572026693
2110,-0.0028735382381054157
2111,-0.013784157730430407
2112,-0.022249698232117178
2113,-0.019723271909454596
2114,-0.008960814187650261
2115,-0.00111809865417132
2116,-0.004400210878962268
2117,-0.015693431040761183
2118,-0.023644096443916338
2119,-0.020121263726626062
2120,-0.008494776234802413
2121,-0.00030761857947187777
2122,-0.0036285073259753184
2123,-0.014838217241305202
2124,-0.02220924649380768
2125,-0.017731020736435198
2126,-0.0052388760493965545
2127,0.0034181914880685297
2128,0.0003376899125554821
2129,-0.01045967039576921
2130,-0.017163169214653714
2131,-0.012268085137534057
2132,-0.0003545747798798526
2133,0.006428766006416576
2134,0.0007082675041459366
2135,-0.012418602514634964
2136,-0.020229477040774345
2137,-0.015050731701334405
2138,-0.0020928576243103066
2139,0.005482096023419285
2140,-0.0005197346111003752
2141,-0.015175053563233157
2142,-0.02511449546185856
2143,-0.021395107901239392
2144,-0.007933186271966172
2145,0.0026371003172580296
2146,0.001377335094518618
2147,-0.00857113778460054
2148,-0.015703379584602235
2149,-0.0119670029301047
2150,-0.000797026482182139
2151,0.006524425933730871
2152,0.002374631944039786
2153,-0.00939170647690568
2154,-0.01708423872400115
2155,-0.012636394913309302
2156,0.0004592061332187738
2157,0.01053515797334716
2158,0.009073035021473585
2159,-0.0011669718799977896
2160,-0.009112433241027153
2161,-0.006414331378617967
2162,0.00432207654658947
2163,0.012113259472598921
2164,0.008331630925992387
2165,-0.004965344263345
2166,-0.01714690562027156
2167,-0.01924909237967961
2168,-0.0121420050483096
2169,-0.004729995887611572
2170,-0.004374350399626686
2171,-0.009462751014937097
2172,-0.01170567903425079
2173,-0.005696702773015086
2174,0.004311713459083757
2175,0.00782331027845258
2176,-0.0012712003427835367
2177,-0.01752664065193739
2178,-0.027969512077400678
2179,-0.02405122729703501
2180,-0.010059642170130166
2181,0.0005089755521872899
2182,-0.0024500891202819267
2183,-0.016049232340658384
2184,-0.027127592078621275
2185,-0.024785263386563464
2186,-0.010718463408014831
2187,0.0025166632755980883
2188,0.0034649817321028365
2189,-0.007691681118745375
2190,-0.020003901865183214
2191,-0.02268668166136256
2192,-0.015094387768717117
2193,-0.006165991079125253
2194,-0.004589913353199209
2195,-0.010088222727980801
2196,-0.014583957765478016
2197,-0.011547720767704266
2198,-0.0033993740554111316
2199,0.0009273846017352705
2200,-0.0043003872296772435
2201,-0.014944939973183602
2202,-0.02066442844452592
2203,-0.015439307972472508
2204,-0.004112861786592087
2205,0.0021077496334401757
2206,-0.003024802210803899
2207,-0.014109468835538565
2208,-0.0191336427033691
2209,-0.011529195732678344
2210,0.0027888042236000167
2211,0.0107153601136214
2212,0.004639407759166399
2213,-0.009974970797988687
2214,-0.019759765441416246
2215,-0.016437053047465643
2216,-0.004867455987498128
2217,0.0018460844472735953
2218,-0.0045472334662088314
2219,-0.01903271366060242
2220,-0.02793568004481082
2221,-0.022123926242455974
2222,-0.005967227672996842
2223,0.006621897682279749
2224,0.00516112193536494
2225,-0.007947319691843067
2226,-0.020346993681900634
2227,-0.021760226540043504
2228,-0.013232752141585591
2229,-0.00491215127605555
2230,-0.005215020359206821
2231,-0.012517491954607291
2232,-0.017487287647089504
2233,-0.013217070758869052
2234,-0.002569122508537032
2235,0.004725201063892483
2236,0.0020566344005290968
2237,-0.007354020009806632
2238,-0.013940992073668775
2239,-0.011850534731411412
2240,-0.005132096171135131
2241,-0.0035156731147650997
2242,-0.011927849426885318
2243,-0.02452670074844731
2244,-0.02973145708152769
2245,-0.021646332657032617
2246,-0.006543280387878784
2247,0.0023934836091146295
2248,-0.002659269560310471
2249,-0.016704204836218997
2250,-0.02663774303475051
2251,-0.023691539233480524
2252,-0.011588978348463551
2253,-0.0025707206141714414
2254,-0.005296020774924012
2255,-0.01652395980868384
2256,-0.02465680975428688
2257,-0.021477970017625803
2258,-0.01035921777954437
2259,-0.002803307058522495
2260,-0.006842306611829781
2261,-0.01894108722187854
2262,-0.02755737693597486
2263,-0.02483921578415122
2264,-0.014721383334217472
2265,-0.009166572952686036
2266,-0.01610647669511723
2267,-0.03104180200852056
2268,-0.04080750236894458
2269,-0.03601150636123309
2270,-0.01999287622064467
2271,-0.005488395127508862
2272,-0.0023189112420940457
2273,-0.008280125891045181
2274,-0.01217990326323558
2275,-0.005787834041633151
2276,0.007484683798206838
2277,0.016059351812640593
2278,0.012386735065134703
2279,0.0014395951401009366
2280,-0.0034299191320833655
2281,0.006443924309647779
2282,0.02594488322876371
2283,0.04032077841159608
2284,0.038825906177680364
2285,0.024609096660960825
2286,0.011168005753892086
2287,0.008913982819652968
2288,0.015153571338866828
2289,0.017341665818960857
2290,0.00620743464462944
2291,-0.014474052047646986
2292,-0.031264445168493825
2293,-0.034158261425012854
2294,-0.026193907955236233
2295,-0.019915101661121246
2296,-0.024289834780731913
2297,-0.03533240410813683
2298,-0.039950610589198104
2299,-0.02919248176916109
2300,-0.007562279054594862
2301,0.010975885886308101
2302,0.01625951502657033
2303,0.011079386025479218
2304,0.0070773545386901265
2305,0.011767979689265592
2306,0.02014619604821314
2307,0.01970139524620553
2308,0.003921140759105187
2309,-0.01952920318365375
2310,-0.0346724835745214
2311,-0.031772032032759946
2312,-0.016329310257108473
2313,-0.0036502296861939576
2314,-0.004396072117205714
2315,-0.015380308541083746
2316,-0.024373576201389982
2317,-0.023458076762299333
2318,-0.01699645599196722
2319,-0.01613312361383648
2320,-0.02586252794840287
2321,-0.03852317915792909
2322,-0.040971759036820266
2323,-0.02836876470681819
2324,-0.010254449788252504
2325,-0.002105258110695288
2326,-0.010380725784947174
2327,-0.026046923379397565
2328,-0.03333624000814018
2329,-0.025208567769386618
2330,-0.010117861507566635
2331,-0.0033445774421292677
2332,-0.011657088526495905
2333,-0.02671615072789167
2334,-0.03369452705671046
2335,-0.026164645733980335
2336,-0.012105001430536305
2337,-0.0051401625433427755
2338,-0.010289794584622506
2339,-0.018993593857003277
2340,-0.018396241681469847
2341,-0.004942977871692664
2342,0.012263153655144243
2343,0.022220447656602423
2344,0.025661534828167132
2345,0.03643787592287143
2346,0.06744342470334069
2347,0.11404523328617149
2348,0.152073228283155
2349,0.154538642381933
2350,0.11323716562472702
2351,0.045652453274113505
2352,-0.019720254754390994
2353,-0.06667300367778914
2354,-0.10174601497924689
2355,-0.1416362754448715
2356,-0.1886739274621598
2357,-0.217702510320886
2358,-0.18929334616021595
2359,-0.08178819927331477
2360,0.08275017202443846
2361,0.24094029064270595
2362,0.32015183838332234
2363,0.27922223648033173
2364,0.13070768964507806
2365,-0.06836141028622084
2366,-0.24814854010593917
2367,-0.3581419530305996
2368,-0.3821483608079876
2369,-0.333696583755399
2370,-0.2417326338755299
2371,-0.13766040279459912
2372,-0.047697554125752634
2373,0.011640625625173167
2374,0.03681499873436256
2375,0.03729151435005381
2376,0.029545912362323706
2377,0.02687836261372044
2378,0.03195662961425547
2379,0.03806928838941018
2380,0.03775355230198936
2381,0.030673513853664715
2382,0.023487637094062444
2383,0.0224900586450155
2384,0.027005920398353308
2385,0.030454395489624423
2386,0.027755273995044134
2387,0.020987760356136687
2388,0.0170922308008312
2389,0.020002746213128746
2390,0.02576778522215734
2391,0.02624771979997701
2392,0.017818618463099734
2393,0.005848905956902345
2394,-0.00021973616670599276
2395,0.003470705420459032
2396,0.010795410505186065
2397,0.01148691611418651
2398,0.0016822314861463696
2399,-0.011567795703577698
2400,-0.01683590244867291
2401,-0.00975286138656523
2402,0.002099031477490267
2403,0.00608655967295119
2404,-0.003235314210142225
2405,-0.0185448744689688
2406,-0.02650398532684882
2407,-0.020421530413398954
2408,-0.006532939737263731
2409,0.0021884926564519234
2410,-0.0014459712929912932
2411,-0.01226778622027425
2412,-0.01842446054739761
2413,-0.01344612305033346
2414,-0.0026145817676314197
2415,0.0026190932345400574
2416,-0.0036036255882991135
2417,-0.015543274116485904
2418,-0.021684735217216613
2419,-0.01647131723730791
2420,-0.0060069162055862236
2421,-0.0018387573974853802
2422,-0.009028750853477133
2423,-0.020643603620745927
2424,-0.02445324157686997
2425,-0.01528769275020957
2426,-0.000598836514271195
2427,0.006594505633190688
2428,0.0005361591193454097
2429,-0.011486127575965923
2430,-0.016369481237874347
2431,-0.008400552698022375
2432,0.004733518246938776
2433,0.009296516743656936
2434,-0.0009039823856314792
2435,-0.01814387302618633
2436,-0.028059587392376455
2437,-0.023493582785489395
2438,-0.011255404001439354
2439,-0.0051035950296565834
2440,-0.0118926968000083
2441,-0.024624554956339632
2442,-0.02933100095538986
2443,-0.019018600692443814
2444,-0.0008829949604525068
2445,0.01039830309348215
2446,0.006781770359025803
2447,-0.005413831782436594
2448,-0.011675858708580261
2449,-0.00325912285487081
2450,0.014691546110849715
2451,0.02860710008425984
2452,0.029918966290478195
2453,0.02314789778539257
2454,0.020852486974212315
2455,0.03069860273360302
2456,0.04759400490121045
2457,0.058640495147584126
2458,0.05587943127346826
2459,0.04413948243995472
2460,0.0362436110954423
2461,0.040371200550604905
2462,0.052058702220108444
2463,0.05865056421959036
2464,0.05172565266421315
2465,0.03528423627147617
2466,0.021796861468337397
2467,0.020162766252061044
2468,0.027390792167897908
2469,0.03192073639358972
2470,0.025019690435546152
2471,0.008985108257728327
2472,-0.0056458136912725075
2473,-0.010743492619982649
2474,-0.008415752968520412
2475,-0.008442992880281119
2476,-0.018133172995565938
2477,-0.03475354985302327
2478,-0.047924171294893944
2479,-0.04946350019298375
2480,-0.04098845226730418
2481,-0.0320014531992974
2482,-0.030611432413204465
2483,-0.036092704522007225
2484,-0.040398139109237965
2485,-0.036790441781126754
2486,-0.026842431090043976
2487,-0.01888669085943854
2488,-0.019595859595694435
2489,-0.027182248834227114
2490,-0.03303348849803338
2491,-0.03016901587232586
2492,-0.020090179942566525
2493,-0.011170957691950964
2494,-0.010169451478535818
2495,-0.015371095784075955
2496,-0.018344130642024396
2497,-0.012690523245456367
2498,-0.0010221906068492422
2499,0.0070585375857426
2500,0.004267685496944498
2501,-0.006953074076196143
2502,-0.016517130521021543
2503,-0.01647209580081164
2504,-0.008806805156609188
2505,-0.0033108996891393506
2506,-0.007405362967640632
2507,-0.018146067743445037
2508,-0.02473736633570999
2509,-0.019403435451739764
2510,-0.005774514405171425
2511,0.0039642381602410645
2512,0.0007740658508847286
2513,-0.01219092162137516
2514,-0.02240275158663342
2515,-0.020126284881845632
2516,-0.007930930529502256
2517,0.0019932224064358158
2518,9.327794749329835e-05
2519,-0.011010331950594171
2520,-0.019325174870585216
2521,-0.01578304882890189
2522,-0.00353784748137015
2523,0.005212611308964742
2524,0.0016631082499239088
2525,-0.010592648283366854
2526,-0.01921875873342061
2527,-0.015767240266188358
2528,-0.004372686159503774
2529,0.0024528034060392005
2530,-0.0032670971942708738
2531,-0.016519971248909013
2532,-0.02407742832534438
2533,-0.01786917917500097
2534,-0.003505314351311381
2535,0.004797333512052526
2536,-0.001927413370553182
2537,-0.018378194187053686
2538,-0.02971062109484636
2539,-0.02541439289225912
2540,-0.008922098040389235
2541,0.006056810420322573
2542,0.008469302919567753
2543,-0.0005367282685582258
2544,-0.010155344997919282
2545,-0.011126407699225621
2546,-0.004128611468935999
2547,0.002429979243262685
2548,0.0019380622755314264
2549,-0.0038887595456712706
2550,-0.007945383660301002
2551,-0.006365936184371786
2552,-0.0031981503054910256
2553,-0.005927856637453751
2554,-0.016582250484543343
2555,-0.02809862994485137
2556,-0.030401664689441645
2557,-0.020512768541050594
2558,-0.0064395553373816404
2559,-0.0004286321546093238
2560,-0.0077186643240548265
2561,-0.021627023334393574
2562,-0.02981776972657159
2563,-0.025748597464305058
2564,-0.01429290887573628
2565,-0.006324341236204293
2566,-0.007890513378705664
2567,-0.014758765283225561
2568,-0.017536237071768386
2569,-0.01188813599840316
2570,-0.0033004074529051474
2571,-0.0014367080099609447
2572,-0.00979441520169665
2573,-0.02132514111465659
2574,-0.024843062407201775
2575,-0.01613310383122591
2576,-0.0026462539207701323
2577,0.0032417464940520373
2578,-0.003910211760003682
2579,-0.017262277953131844
2580,-0.02429937836397536
2581,-0.01906486195694168
2582,-0.007996656985333049
2583,-0.0035014865990628677
2584,-0.011493504282687483
2585,-0.025202448921009472
2586,-0.031494065369452554
2587,-0.023617592914115047
2588,-0.007877912988015386
2589,0.0023555566368795625
2590,-0.0005651273589464202
2591,-0.01153146581667973
2592,-0.018208077746095175
2593,-0.013488013324379822
2594,-0.0024416423829416024
2595,0.003071926750282277
2596,-0.00340670725920777
2597,-0.016252844277717345
2598,-0.023301853118869884
2599,-0.018043815261967057
2600,-0.00620583288178786
2601,-8.54127703451221e-05
2602,-0.006279671693549438
2603,-0.019075475907216238
2604,-0.02610143360902861
2605,-0.020587277302933825
2606,-0.008005992694089175
2607,-0.0005387289423639627
2608,-0.004983697790250807
2609,-0.016218681463773865
2610,-0.022664147251575104
2611,-0.018121110019014217
2612,-0.008003528361125188
2613,-0.0036938118889933056
2614,-0.010749506398447137
2615,-0.022912023737756672
2616,-0.028069013703705722
2617,-0.020315226802546424
2618,-0.006076782296875022
2619,0.0018923358314762873
2620,-0.003209231463555837
2621,-0.01575935062348742
2622,-0.023370265505267024
2623,-0.018998490191608684
2624,-0.007544508644948378
2625,-0.0005923001668277915
2626,-0.004761180256877643
2627,-0.015362591778633708
2628,-0.021547458777546023
2629,-0.017526775873612132
2630,-0.008422283161735796
2631,-0.004854576598525336
2632,-0.011844181713783807
2633,-0.023398370309684738
2634,-0.028420828615643358
2635,-0.02207673257983686
2636,-0.01108220863056383
2637,-0.0073521761988237545
2638,-0.016140673925774847
2639,-0.030509736971354524
2640,-0.03784399003624868
2641,-0.03216474422994364
2642,-0.020088500751274902
2643,-0.014397895224623466
2644,-0.021389382474489623
2645,-0.0343857079284353
2646,-0.03985423236306075
2647,-0.030270607356224208
2648,-0.01130387541150513
2649,0.0035082187751159866
2650,0.005250286215897508
2651,-0.002816030497360798
2652,-0.009563857392318914
2653,-0.007335140420000302
2654,0.0011677279062896465
2655,0.006946119576860499
2656,0.004953661326401335
2657,-0.0003685622492980104
2658,-1.66010319658721e-05
2659,0.00947283710537384
2660,0.021538866279998636
2661,0.025790321781114952
2662,0.018746650323750804
2663,0.007901650786450155
2664,0.004378738010243935
2665,0.011182284263467835
2666,0.019071577530704625
2667,0.014927860916822465
2668,-0.005033407144645289
2669,-0.03021021741012079
2670,-0.04422971556419954
2671,-0.03946791290076063
2672,-0.02371536788738198
2673,-0.012600555716181948
2674,-0.015046763310515661
2675,-0.02563837616535688
2676,-0.030862263066811325
2677,-0.02264542220302175
2678,-0.0057982518633145595
2679,0.007530507619743302
2680,0.010178091301336858
2681,0.006335727811075084
2682,0.00569475897543624
2683,0.011838830388120532
2684,0.01732612666588295
2685,0.011014290787171534
2686,-0.009580302259400167
2687,-0.03368843986300073
2688,-0.04581291126240353
2689,-0.03957417746570759
2690,-0.023447606588092536
2691,-0.01266559260574655
2692,-0.01506277457215327
2693,-0.02454309953401704
2694,-0.0282657703684869
2695,-0.020124073238548076
2696,-0.007048093609458361
2697,-0.002011513544217294
2698,-0.010920652581520052
2699,-0.02654037695132804
2700,-0.035438242443112396
2701,-0.030933257070815498
2702,-0.01922031645624065
2703,-0.0128410396038636
2704,-0.018274401095978325
2705,-0.029999566990702154
2706,-0.03659066559836417
2707,-0.03233100909651636
2708,-0.022621502960033103
2709,-0.01805550156347581
2710,-0.023482997391204026
2711,-0.03314061211945604
2712,-0.03651085455583321
2713,-0.02878684459021208
2714,-0.015510453536227714
2715,-0.0070780186620687515
2716,-0.008843386410615408
2717,-0.016479500452292524
2718,-0.020644635945693778
2719,-0.01590814719971039
2720,-0.005294014670400563
2721,0.0033739000331016243
2722,0.00526691684681864
2723,0.0031575911463058676
2724,0.00521794814028954
2725,0.018667847779502606
2726,0.04476735248172527
2727,0.07833540103609324
2728,0.11081028378479615
2729,0.13390164643050162
2730,0.14192719305926743
2731,0.13273577062431305
2732,0.10765566352858019
2733,0.07045062911541321
2734,0.025318865179793513
2735,-0.025094953015561795
2736,-0.08012992390440722
2737,-0.13930654926358899
2738,-0.19932666086705808
2739,-0.2518589654921301
2740,-0.2836090732855808
2741,-0.2791129022411024
2742,-0.22602689805533285
2743,-0.12208743744699366
2744,0.01854976942942615
2745,0.16370117127748068
2746,0.27019713399133194
2747,0.29947296147776925
2748,0.23539927841831854
2749,0.09443559024481607
2750,-0.07893129345211972
2751,-0.23020355657447164
2752,-0.3170767398117059
2753,-0.32452951595752916
2754,-0.2663896774678237
2755,-0.17473945832444426
2756,-0.08401537247293386
2757,-0.017557486279892138
2758,0.018263776749537497
2759,0.03120372484573282
2760,0.034328015034696444
2761,0.036699276519803765
2762,0.039158998555675034
2763,0.03736733164677328
2764,0.0288476033017376
2765,0.017495195314493422
2766,0.011202333787643447
2767,0.014656371275010412
2768,0.024290452127311922
2769,0.030774586318754845
2770,0.027309375430375198
2771,0.016041284077725242
2772,0.006260671419956454
2773,0.005796938383896366
2774,0.013734512825487927
2775,0.021454653967806016
2776,0.02093509752211138
2777,0.012149682319086051
2778,0.0024196308910531747
2779,-0.0013020904604259306
2780,0.0008056435963488668
2781,0.0024445473400454584
2782,-0.0013560929184726924
2783,-0.00840839697758568
2784,-0.011493036046243889
2785,-0.00637443108395827
2786,0.0027651087351290753
2787,0.006567700772459643
2788,-0.00038596535881138755
2789,-0.013719196733025388
2790,-0.022877204411470967
2791,-0.0210094431130387
2792,-0.011455799390013312
2793,-0.004360293372753915
2794,-0.006709286787456593
2795,-0.015659164073283806
2796,-0.021728026838787322
2797,-0.0185455530802901
2798,-0.009324342127296673
2799,-0.0035967952992013415
2800,-0.007598568954441718
2801,-0.018018919397879776
2802,-0.02532687655072203
2803,-0.023177808611691858
2804,-0.014382438249407884
2805,-0.007599575277573635
2806,-0.008396803424564551
2807,-0.013892555989459394
2808,-0.016270976460056194
2809,-0.011242570975701652
2810,-0.0025467381055134597
2811,0.0021064640407814188
2812,-0.0007503902251679898
2813,-0.006709236261674207
2814,-0.008340446609521192
2815,-0.0034767563961136958
2816,0.0018950006160393647
2817,-0.0004768179406461539
2818,-0.012191270472020548
2819,-0.025447082509487216
2820,-0.02971582821443859
2821,-0.02161298955891717
2822,-0.008300262296712685
2823,-0.0009303353408164877
2824,-0.004391119530372533
2825,-0.013238490386242734
2826,-0.017596520639442254
2827,-0.013020020313857936
2828,-0.00455531021688833
2829,-0.001175810700413851
2830,-0.0064176383974684495
2831,-0.014752390576568485
2832,-0.017344103604290752
2833,-0.011293406910034668
2834,-0.0028833502258698365
2835,-0.0013505364497728009
2836,-0.009324463500269548
2837,-0.01963564544521633
2838,-0.022002724814745807
2839,-0.013223547975414382
2840,-0.0007637320293825936
2841,0.0040813665009652115
2842,-0.0029643491239681225
2843,-0.014828289825190338
2844,-0.019635162125667335
2845,-0.011949814044973627
2846,0.0020823802948701877
2847,0.01064844424585185
2848,0.007525526321800322
2849,-0.002142220354716501
2850,-0.007003844699767693
2851,-0.00046974543736294136
2852,0.013145208248196816
2853,0.0230911185351875
2854,0.022696227017062896
2855,0.015612544428013544
2856,0.011852803718374282
2857,0.017737543289437656
2858,0.029721240434023504
2859,0.038068871608609195
2860,0.036577021651066334
2861,0.028649659219015126
2862,0.02377172804691604
2863,0.02798012499947865
2864,0.037821857061219856
2865,0.043736045474428276
2866,0.03940098532057652
2867,0.02771769917940456
2868,0.01756501500695133
2869,0.014748394524881532
2870,0.016352155623865185
2871,0.014183256042467235
2872,0.0037120289744487726
2873,-0.010734198992144638
2874,-0.019996394098217685
2875,-0.019342144967414494
2876,-0.013441999860224225
2877,-0.011733826418547554
2878,-0.01868035106747433
2879,-0.028911467115920048
2880,-0.032549624493610346
2881,-0.02562560321027109
2882,-0.014935014733506056
2883,-0.011914922453751555
2884,-0.02120385490758915
2885,-0.03532706034160857
2886,-0.04126627512410738
2887,-0.032872601329677995
2888,-0.0169559360667939
2889,-0.0068464921474651
2890,-0.009596890026095657
2891,-0.01944263971829249
2892,-0.024025836090322224
2893,-0.01714862169924758
2894,-0.0052087327625909945
2895,-0.0007444922300978853
2896,-0.009505969579925392
2897,-0.024120408570397097
2898,-0.03093185683653999
2899,-0.023375511923418916
2900,-0.008569500140271722
2901,-0.00046164688179512077
2902,-0.0062529554831394114
2903,-0.0195298332594568
2904,-0.0268363109702937
2905,-0.02102615263471684
2906,-0.00807240551482474
2907,-0.0007007604453657236
2908,-0.00545816349243107
2909,-0.016303758324099724
2910,-0.021079162857025744
2911,-0.014154973552685999
2912,-0.0023511236230759408
2913,0.0019058026092957385
2914,-0.0067217638621021765
2915,-0.02079498981512705
2916,-0.027243871789105284
2917,-0.02024316976246476
2918,-0.006919157167708916
2919,-0.0001567952480364619
2920,-0.005718754054287954
2921,-0.01660309322995547
2922,-0.020300492405249497
2923,-0.011638027690400581
2924,0.0017629200652611871
2925,0.007012340510023116
2926,-0.0010102205150466564
2927,-0.014237465468410216
2928,-0.019246827077623985
2929,-0.01071521013702995
2930,0.0029152375425387277
2931,0.00740766362603925
2932,-0.0033140519744200873
2933,-0.02091872648183186
2934,-0.030355023419797206
2935,-0.024048341287517292
2936,-0.008829133976754472
2937,0.0009964039313083554
2938,-0.002554508476002781
2939,-0.014002242979149598
2940,-0.020616200300706898
2941,-0.015398156455293344
2942,-0.003784319787391782
2943,0.002381605966836814
2944,-0.002820426054306118
2945,-0.013365535382781677
2946,-0.017606852554341128
2947,-0.010404465870202457
2948,0.0013411892669408653
2949,0.0054633325355211895
2950,-0.0031212510641058337
2951,-0.016895399799893417
2952,-0.022709247378773334
2953,-0.01447488735794741
2954,0.0008679369302261994
2955,0.009948707534822455
2956,0.005647043264007131
2957,-0.006460753991122949
2958,-0.013947871252706726
2959,-0.009700618951436323
2960,0.0015276721277787586
2961,0.008309106366860882
2962,0.0040164595348676675
2963,-0.006833494312525943
2964,-0.013426744135868992
2965,-0.009614744749011585
2966,-4.5997143231754894e-05
2967,0.004474396844292737
2968,-0.002373754943873073
2969,-0.016325788146442692
2970,-0.02679456646235078
2971,-0.02699559755383491
2972,-0.01982813423609072
2973,-0.013960280679529005
2974,-0.014530092001465886
2975,-0.018166501047172358
2976,-0.017372036760721535
2977,-0.009506582905954538
2978,-0.0007117536493920716
2979,-0.00022545722299432362
2980,-0.010567852212166426
2981,-0.02376892756849284
2982,-0.028106817522336344
2983,-0.019217547018453764
2984,-0.004624788287271215
2985,0.003124505331378589
2986,-0.001709015173870542
2987,-0.0128112800747567
2988,-0.01836034569440374
2989,-0.012880451936313089
2990,-0.0025677236588288995
2991,0.0012499411156330718
2992,-0.006111768813418568
2993,-0.0176960350078818
2994,-0.021917445867567595
2995,-0.014575850568335767
2996,-0.003559938414882107
2997,-0.00112977552675792
2998,-0.011290504211620552
2999,-0.02504796875446458
3000,-0.028717267665624595
3001,-0.017378015430848617
3002,-0.0001602103967161656
3003,0.008095759971099984
3004,0.0008260669278107521
3005,-0.01423289944997482
3006,-0.02276439354675789
3007,-0.017604869167588237
3008,-0.005016168501784905
3009,0.0023297281484504556
3010,-0.001780552457205454
3011,-0.011384364385403085
3012,-0.015231350301923038
3013,-0.008867120724630077
3014,0.0006275942283419243
3015,0.0020915876061301797
3016,-0.007797115339356664
3017,-0.020504444859822425
3018,-0.023883336358887175
3019,-0.014508188296710339
3020,-0.0015984968014551774
3021,0.0016739426531822163
3022,-0.00892898964512251
3023,-0.024355653846836484
3024,-0.03080558309002443
3025,-0.022839587604923474
3026,-0.008296624402991707
3027,-0.000406765251179636
3028,-0.005054213192358678
3029,-0.01568782257893371
3030,-0.02055913205764208
3031,-0.014726568659613151
3032,-0.004771783552931913
3033,-0.0017237446643211828
3034,-0.009560829868273744
3035,-0.020971984588047284
3036,-0.02461579103438921
3037,-0.01650333888746515
3038,-0.004013295848703947
3039,0.0014980246846857787
3040,-0.003962124456336416
3041,-0.01316480813213535
3042,-0.015193708016268253
3043,-0.006793831963362789
3044,0.003961053222416917
3045,0.005547675095418674
3046,-0.005312530722940681
3047,-0.01984623326168277
3048,-0.02531004187588753
3049,-0.017184802187609552
3050,-0.0035424789245587797
3051,0.0027277444637818053
3052,-0.0037509485461177106
3053,-0.015961081441405275
3054,-0.021672912010272466
3055,-0.0154665219144402
3056,-0.0037710522011218605
3057,0.0018212184774797845
3058,-0.003909180045340214
3059,-0.014928250331845524
3060,-0.020406615135063824
3061,-0.01585542651802808
3062,-0.007713407518494324
3063,-0.006806224035994854
3064,-0.01723222013028733
3065,-0.0317714555473158
3066,-0.03844299194002729
3067,-0.03184122997264448
3068,-0.01822136779679688
3069,-0.009460784886462252
3070,-0.011834566628679318
3071,-0.020424268026718893
3072,-0.024327408493641463
3073,-0.017362856924902213
3074,-0.0038921740909743266
3075,0.005593504682760859
3076,0.0045183097591803886
3077,-0.00384865185168016
3078,-0.009932072682164783
3079,-0.0069344573331445725
3080,0.0034607837323820077
3081,0.013825558653972095
3082,0.01871821599264594
3083,0.019381658276393474
3084,0.021017519887519376
3085,0.026062777636373373
3086,0.03084238310650437
3087,0.02917493376090198
3088,0.019074782070163908
3089,0.0053746497374458635
3090,-0.004678024297856791
3091,-0.008409692537792429
3092,-0.010003825746812437
3093,-0.015551184762288896
3094,-0.0259118219836573
3095,-0.03496099649737652
3096,-0.035445033523320985
3097,-0.026727869031435703
3098,-0.01633932108744153
3099,-0.013171740513820807
3100,-0.018678848484835836
3101,-0.024889716717195292
3102,-0.02166983359202023
3103,-0.006534131333107136
3104,0.012466647472839926
3105,0.023720868260243375
3106,0.022252377992956027
3107,0.01335856288080749
3108,0.0064023574844579816
3109,0.005204589057195251
3110,0.004757259244137954
3111,-0.0025200194871217137
3112,-0.017536098198003704
3113,-0.032033948932298814
3114,-0.03583700672412471
3115,-0.026844328146370895
3116,-0.01366132544464839
3117,-0.007839727456292772
3118,-0.01307257460104768
3119,-0.021948866025407243
3120,-0.023576735271919884
3121,-0.014637753165835777
3122,-0.0029275031819688633
3123,0.00021927578436288573
3124,-0.008788357698719221
3125,-0.02197490003304823
3126,-0.02731486253948372
3127,-0.020288537914131148
3128,-0.008166130207008543
3129,-0.002854907909211805
3130,-0.009393330128510069
3131,-0.021410378177880898
3132,-0.027911333518273136
3133,-0.02449572644341488
3134,-0.017705764524098125
3135,-0.018040325712667338
3136,-0.028541728883754683
3137,-0.040525028265134155
3138,-0.04122453859087162
3139,-0.026354289766696293
3140,-0.0053132747610560955
3141,0.006606301926830177
3142,0.0022062948750398883
3143,-0.010593808831196181
3144,-0.015748788391481
3145,-0.0039868878315827225
3146,0.018336909272911733
3147,0.03518800515341902
3148,0.03654156346730317
3149,0.02913819618755705
3150,0.03154920987063336
3151,0.057122616125158
3152,0.10000476394017899
3153,0.13729501476154443
3154,0.14603851705996845
3155,0.1202940730172822
3156,0.07349559445078296
3157,0.02485256347919218
3158,-0.017057309549420883
3159,-0.058534955015897824
3160,-0.11002182745715172
3161,-0.1716718692896101
3162,-0.22908573176241318
3163,-0.2622542229236803
3164,-0.2580203144223073
3165,-0.21453049135528834
3166,-0.1362873490538948
3167,-0.028993441652397707
3168,0.09739762192644537
3169,0.2204149436790936
3170,0.30384487928326953
3171,0.3116288635916779
3172,0.23009038602885348
3173,0.08091960203327483
3174,-0.0874585017315718
3175,-0.22503967870305264
3176,-0.30330854843996635
3177,-0.32072369102409626
3178,-0.29136098469090377
3179,-0.23083177087944345
3180,-0.151887900578899
3181,-0.06886538720803542
3182,-0.00013189236867368857
3183,0.038711189431154355
3184,0.0457251956842572
3185,0.035498713674514674
3186,0.028512651595914748
3187,0.03522460019145442
3188,0.04931396324140186
3189,0.056271970646483586
3190,0.04876485989068349
3191,0.033799463183688726
3192,0.025146164978701237
3193,0.029200633380087077
3194,0.038711216492115244
3195,0.040512284873889096
3196,0.029186768591987967
3197,0.012773971173011158
3198,0.004850123593294722
3199,0.011029800576361569
3200,0.023379763517822102
3201,0.02817530174525259
3202,0.01916243729456256
3203,0.003252339706627742
3204,-0.006674638346677142
3205,-0.004419782734177324
3206,0.003944740633458764
3207,0.006709791369932123
3208,-0.0016257442031997295
3209,-0.01516440643446795
3210,-0.022913745012741148
3211,-0.01983597830510157
3212,-0.011396967855696601
3213,-0.007269158799153293
3214,-0.010967969006518998
3215,-0.01624926681296174
3216,-0.014032096587185714
3217,-0.002671389463061523
3218,0.009233636147030806
3219,0.010839478048613366
3220,9.496595245719376e-05
3221,-0.01342513513934476
3222,-0.017219838006669867
3223,-0.007870987455871586
3224,0.005473837910625955
3225,0.009815918000802289
3226,0.0008727515045946454
3227,-0.012788566753301561
3228,-0.018158907865703046
3229,-0.010520605740093884
3230,0.001985457139180801
3231,0.006404500428830091
3232,-0.0023617749966705786
3233,-0.016743847539528837
3234,-0.02416057324047381
3235,-0.019370106234410312
3236,-0.009192477070647378
3237,-0.005051366368030726
3238,-0.011040858370188658
3239,-0.01967237024211056
3240,-0.01965435422524715
3241,-0.007861545183499553
3242,0.006676832767095627
3243,0.01103159442606216
3244,0.0008862850304847145
3245,-0.015019199419378388
3246,-0.022947260714774945
3247,-0.016893850863593653
3248,-0.0036871770146288054
3249,0.004214891215825873
3250,0.0008547164018598442
3251,-0.008072678495212319
3252,-0.011710870672964656
3253,-0.005284689163707273
3254,0.005178168228827165
3255,0.009053741136981163
3256,0.0017247704974307529
3257,-0.011012892148652515
3258,-0.0187718401105021
3259,-0.016399080926209113
3260,-0.007967819096977415
3261,-0.0014417530388526835
3262,-5.869334538771218e-05
3263,0.0005111325820150421
3264,0.0065203027490005425
3265,0.01826891754039545
3266,0.028598120670544534
3267,0.029718529917409836
3268,0.02155894879574405
3269,0.012909684965363499
3270,0.01366332322661501
3271,0.025453838472346335
3272,0.039914286838750875
3273,0.04652802026328973
3274,0.042649468481168594
3275,0.035969921115153645
3276,0.036893833815850874
3277,0.04808491836792042
3278,0.06132142428130971
3279,0.06487038873638501
3280,0.054459244737271935
3281,0.03737108813582868
3282,0.0257139333954645
3283,0.025283968006342143
3284,0.030652286865118762
3285,0.031052765752085234
3286,0.021177009395562395
3287,0.0062765738031391495
3288,-0.0033479144316676123
3289,-0.0028675570408989645
3290,0.002142014501348195
3291,0.0013990289534080926
3292,-0.00940674903573687
3293,-0.02379006352166098
3294,-0.030650720674575825
3295,-0.025525176845880678
3296,-0.015565135898250074
3297,-0.012844263537029305
3298,-0.02226812524543121
3299,-0.0361360874328468
3300,-0.04119639618399226
3301,-0.031668447612426986
3302,-0.015428431553831234
3303,-0.00690643347070218
3304,-0.01327314110809515
3305,-0.027358038789327563
3306,-0.0344135062910455
3307,-0.026309828977348765
3308,-0.009335259913070696
3309,0.002048882059233301
3310,-0.0006558786853945162
3311,-0.011909498760611845
3312,-0.018062549490227647
3313,-0.011322514514257365
3314,0.0022111484211525152
3315,0.008514343495105872
3316,-0.00027013085154884353
3317,-0.01761041606152828
3318,-0.028436727349989574
3319,-0.023364253160218548
3320,-0.007398202781740094
3321,0.005192108161437288
3322,0.004505237905099481
3323,-0.006269116413800028
3324,-0.015142834072179923
3325,-0.013670820190060304
3326,-0.004737997624970928
3327,0.0016022307853529377
3328,-0.0007435113334956908
3329,-0.007623409595876352
3330,-0.009553721464788171
3331,-0.002369453596309494
3332,0.00775205611485685
3333,0.010283394813658754
3334,0.001219449158209763
3335,-0.012426896144416312
3336,-0.01923852523946973
3337,-0.014458312977186649
3338,-0.004309182202828736
3339,0.0006918610241525591
3340,-0.0035461715184557058
3341,-0.010924592758015697
3342,-0.01207968813726161
3343,-0.00468704223522926
3344,0.00365657205334303
3345,0.003142616628175594
3346,-0.0077460036659423494
3347,-0.019822258519127355
3348,-0.021730464213687954
3349,-0.011182459947644647
3350,0.0023290264745248566
3351,0.006309596286274391
3352,-0.002839039640247896
3353,-0.016352601822535666
3354,-0.021445243893938266
3355,-0.01335613819083508
3356,0.0005086835992702409
3357,0.008114132390822492
3358,0.004401229237420748
3359,-0.004399713661505622
3360,-0.0076645126307810195
3361,-0.0012722434270424996
3362,0.008464667867369416
3363,0.011590065659284146
3364,0.004909268776830603
3365,-0.004675386001916508
3366,-0.007318749710758051
3367,-0.0005464858055732064
3368,0.007924561782838405
3369,0.007948647325814108
3370,-0.002478401430043023
3371,-0.01471003439794151
3372,-0.017860792488095405
3373,-0.009837346142856428
3374,0.00026234741349328693
3375,0.0011285691489099064
3376,-0.009213711708959408
3377,-0.020985937811760197
3378,-0.022100218390411805
3379,-0.010242452649160173
3380,0.004501424197013507
3381,0.009268938851146505
3382,0.0008353292595640698
3383,-0.011492628364130383
3384,-0.015306463721715353
3385,-0.007323798667865611
3386,0.003820359050684329
3387,0.006813531072078059
3388,-0.0006599461316435512
3389,-0.00977115283870782
3390,-0.010054783866833603
3391,-0.0007240740964839038
3392,0.007959790487305808
3393,0.00489395922546183
3394,-0.010308124057389683
3395,-0.026166234644006567
3396,-0.02998334344148258
3397,-0.01987261099680735
3398,-0.006342803241869777
3399,-0.001990751768187521
3400,-0.009547551456090392
3401,-0.019930299942904545
3402,-0.02185162616641308
3403,-0.013154799919963739
3404,-0.002645196888152999
3405,-0.0009065861790307293
3406,-0.009535901214834015
3407,-0.019556350897703613
3408,-0.020413840911842104
3409,-0.010442868118173469
3410,0.0015739561521861578
3411,0.005109399539163562
3412,-0.001937930079943266
3413,-0.011639534195223452
3414,-0.014327297599950408
3415,-0.008272408171899982
3416,-0.0010442144667841672
3417,-0.0013307663573506798
3418,-0.009625489159462132
3419,-0.017336845041513983
3420,-0.015419576156017627
3421,-0.003972923267366578
3422,0.006964790513722174
3423,0.006647759145700933
3424,-0.005868404197505388
3425,-0.020238086549007873
3426,-0.024104521809134374
3427,-0.014471112566889427
3428,-0.0003486118583647668
3429,0.005832596214180671
3430,-0.0001975560422143737
3431,-0.011010179278333341
3432,-0.015155203466484201
3433,-0.008395877020610783
3434,0.0024377560078200746
3435,0.006525766539664212
3436,-0.00011420540403000567
3437,-0.010765566531212814
3438,-0.014801668127933067
3439,-0.00825108056118314
3440,0.002365595883205218
3441,0.006622780320953389
3442,0.0005025136065295304
3443,-0.0098861629502385
3444,-0.014797461998003126
3445,-0.010895882453815852
3446,-0.004653146453755813
3447,-0.005596343757218104
3448,-0.016163829701357855
3449,-0.028462541467795074
3450,-0.03145848651075029
3451,-0.021745266395081654
3452,-0.007322485840295018
3453,-0.0004964929467257597
3454,-0.0065617121129239505
3455,-0.01902287380598433
3456,-0.025815483813427506
3457,-0.0204780163783875
3458,-0.007705621863716775
3459,0.0016266397489203108
3460,0.0007671951636696111
3461,-0.00721733000161834
3462,-0.013335333552264766
3463,-0.011703397339384393
3464,-0.004690389396812237
3465,0.0004109298959091769
3466,-0.0008597355355339832
3467,-0.006069826757343263
3468,-0.009354681753090711
3469,-0.008265759388701565
3470,-0.006505141737331915
3471,-0.009611005672276808
3472,-0.018279028680688703
3473,-0.02667693202796221
3474,-0.027966337376982214
3475,-0.021548984711851148
3476,-0.014346508159591705
3477,-0.01424421796825846
3478,-0.02194255390858521
3479,-0.02953168294775693
3480,-0.027712026945682686
3481,-0.014897966072467055
3482,0.0007870075536746237
3483,0.008880959171778904
3484,0.006360356146262858
3485,0.0003284227526237401
3486,0.0009544920150841847
3487,0.011562901881024365
3488,0.02557212087903504
3489,0.03317825165427483
3490,0.030995883588482667
3491,0.024985054648453915
3492,0.02382158299264824
3493,0.02956025780010215
3494,0.035208249791268596
3495,0.03180574048062851
3496,0.017851372488240654
3497,0.0013394726898242558
3498,-0.00794560716296086
3499,-0.008244551880830935
3500,-0.007667228643571374
3501,-0.015788311464526077
3502,-0.03312535211827848
3503,-0.04916589868765334
3504,-0.0514719934248888
3505,-0.03742958632110681
3506,-0.01727251036594507
3507,-0.005179342654479724
3508,-0.006677696771711888
3509,-0.014174654586533945
3510,-0.014671568774968134
3511,-0.002163716242863166
3512,0.016966022710160247
3513,0.030214574355195856
3514,0.03034563089099062
3515,0.02090118938214479
3516,0.011162405296416461
3517,0.006386109197170973
3518,0.003372682397448835
3519,-0.004537434557888095
3520,-0.018769039916747436
3521,-0.03253912221225651
3522,-0.036959306116093334
3523,-0.0300565109542726
3524,-0.019345832401631163
3525,-0.014994346674202451
3526,-0.0201677656350829
3527,-0.028158793786103274
3528,-0.029236648431726204
3529,-0.020463461624771473
3530,-0.008728114240441781
3531,-0.003990667932231595
3532,-0.00947824130128741
3533,-0.018580434988268037
3534,-0.02147702793825051
3535,-0.014845140032040401
3536,-0.005016183955783319
3537,-0.00157897210074895
3538,-0.007934769113526216
3539,-0.01819444969870905
3540,-0.023307398517434755
3541,-0.020074372157131426
3542,-0.01397300352151481
3543,-0.01310039640351621
3544,-0.019482058915870848
3545,-0.026560953489433596
3546,-0.02543876034378731
3547,-0.013734143547737209
3548,0.001633928258882303
3549,0.010481980412624641
3550,0.008515060056483378
3551,0.0011556593857502036
3552,-0.0010746573574070047
3553,0.009123535293696323
3554,0.03133134163361341
3555,0.059729783502568
3556,0.08839483390511435
3557,0.11357130197093446
3558,0.13127908282032866
3559,0.1344960270838172
3560,0.11505600349170245
3561,0.0700585912407235
3562,0.006606290106351512
3563,-0.06107176844276878
3564,-0.12079434756422744
3565,-0.16922153756766373
3566,-0.20837116468756678
3567,-0.23382658678135998
3568,-0.2268569681969061
3569,-0.16236625822134804
3570,-0.03146028723074236
3571,0.13816933865427783
3572,0.28403976077346044
3573,0.3381099096028396
3574,0.266559359838455
3575,0.09235125102868413
3576,-0.11629356381302355
3577,-0.28364356983540184
3578,-0.3640953841925405
3579,-0.35599640899249585
3580,-0.288167186030592
3581,-0.19537391941986704
3582,-0.10231926815281078
3583,-0.022765711939973274
3584,0.03440667615176901
3585,0.06332381687199377
3586,0.0653465987355458
3587,0.051862131881391924
3588,0.038911462504224725
3589,0.03646294772142039
3590,0.04221896320501842
3591,0.04622198977039864
3592,0.04180403617508591
3593,0.032019177298409376
3594,0.025506549563054308
3595,0.026735514255146774
3596,0.031225839688166845
3597,0.03075993230513125
3598,0.02281266586509592
3599,0.01386155585070073
3600,0.012726667010920737
3601,0.020778138163026556
3602,0.029452929775171267
3603,0.02814770616512672
3604,0.014775506249340334
3605,-0.0017291307676748887
3606,-0.009699689409103974
3607,-0.005704112446191409
3608,0.0026238712453536196
3609,0.004519025614893157
3610,-0.0033027314743658883
3611,-0.013877473531781554
3612,-0.017460058493232754
3613,-0.011325555102862693
3614,-0.0019915780402642346
3615,0.001979864487943104
3616,-0.0012343017871262935
3617,-0.00552683100643411
3618,-0.004239920106075835
3619,0.001987834662440706
3620,0.005488709963491962
3621,-9.917404428230248e-05
3622,-0.01220137816405549
3623,-0.02077639778596476
3624,-0.017975589039073557
3625,-0.006357059125414618
3626,0.0030003873287094873
3627,0.0011271939439258041
3628,-0.009843151120412987
3629,-0.018462632914323852
3630,-0.01513967147611025
3631,-0.0018393540037068099
3632,0.009375952336017741
3633,0.007815559925710107
3634,-0.005417195310896357
3635,-0.018265089121324497
3636,-0.019160292899481044
3637,-0.008088730175869996
3638,0.0033928697295406295
3639,0.003202468519218902
3640,-0.009783068990292604
3641,-0.024764588146455754
3642,-0.029333484108711356
3643,-0.021021212282920622
3644,-0.00906427160892376
3645,-0.004996239381125661
3646,-0.01146488071486073
3647,-0.020166862109449277
3648,-0.020678873084137902
3649,-0.01124314031341942
3650,-0.0007208248307020877
3651,0.0002798959360024618
3652,-0.009682499900665498
3653,-0.020860452756641792
3654,-0.021456615943821977
3655,-0.009150477367962274
3656,0.006324141919046903
3657,0.012316751962782847
3658,0.0054320674950216535
3659,-0.005066225862024484
3660,-0.006044078497536239
3661,0.006913563021215229
3662,0.02524006954701423
3663,0.035538794193874075
3664,0.03223061742051199
3665,0.022521197706060286
3666,0.019118399867160754
3667,0.028060285723047584
3668,0.04353163987968123
3669,0.0543300659699119
3670,0.0550331681084111
3671,0.05053497238504074
3672,0.04971477921109999
3673,0.05523116624106732
3674,0.0603223633225553
3675,0.056090618995960184
3676,0.041669680065319764
3677,0.026381826691113344
3678,0.021056537570294263
3679,0.026998982424231342
3680,0.03400118907509232
3681,0.029996877128137464
3682,0.013132329347706804
3683,-0.005818754931288234
3684,-0.013455913136822727
3685,-0.006568990825660818
3686,0.0048274969264736865
3687,0.0072935094828675846
3688,-0.0030491113836389637
3689,-0.01715186452550542
3690,-0.022514203971307784
3691,-0.015915729900028857
3692,-0.0066271296156137326
3693,-0.006926636374512814
3694,-0.01950854107317896
3695,-0.03447183291697484
3696,-0.03893129354692369
3697,-0.0296249885674921
3698,-0.015936492500956686
3699,-0.010427064599935412
3700,-0.016486937988255755
3701,-0.025475821343383803
3702,-0.026030564954673832
3703,-0.01593303357986321
3704,-0.0044547373276927
3705,-0.0028568696056329125
3706,-0.012780702818897562
3707,-0.024398869370825024
3708,-0.026271581105354394
3709,-0.016928466628146732
3710,-0.006362491758751235
3711,-0.005775841152564208
3712,-0.015850051695349275
3713,-0.0254740575890237
3714,-0.02249150927249792
3715,-0.005946035999753255
3716,0.01238522808789834
3717,0.01889571107953418
3718,0.010915832649179506
3719,-0.001143043385899656
3720,-0.004335283866612406
3721,0.00398687326106993
3722,0.013683961099269167
3723,0.012100168230155754
3724,-0.0030552142370542006
3725,-0.020919220654291762
3726,-0.02755119497862772
3727,-0.019037793076819885
3728,-0.004893052442899575
3729,0.0014006493480119833
3730,-0.004694159271744427
3731,-0.01500413493394288
3732,-0.017439454733045083
3733,-0.008366912566646737
3734,0.0037755968305330416
3735,0.007078482755348564
3736,-0.0017704939219243996
3737,-0.014078338059545123
3738,-0.017805716701808836
3739,-0.009610744945938936
3740,0.0017915386853658748
3741,0.00434801887814471
3742,-0.005215278492440074
3743,-0.017982640286198746
3744,-0.021596376379084858
3745,-0.012494300364861368
3746,0.0005351697774763557
3747,0.005031752550120061
3748,-0.002843093296594719
3749,-0.014607996232001642
3750,-0.017999767538984218
3751,-0.009200995692465685
3752,0.0034331926616857043
3753,0.0078091300169240005
3754,0.00018197425119683276
3755,-0.011231491565415724
3756,-0.014689055136195034
3757,-0.0068370870749896295
3758,0.003987131925112581
3759,0.00645916321805545
3760,-0.0018325338617210802
3761,-0.011493566230505122
3762,-0.010674775732198445
3763,0.0025310037498254704
3764,0.017230424205267963
3765,0.01972816471630041
3766,0.0068527495612111765
3767,-0.010537856563976586
3768,-0.017610902341427592
3769,-0.009613186473227842
3770,0.0037075897568181323
3771,0.007665207524425479
3772,-0.0030841185410947908
3773,-0.019410233252872347
3774,-0.026657778083546642
3775,-0.018881299971905477
3776,-0.004489976790622565
3777,0.002094545794262982
3778,-0.005501860583265362
3779,-0.019563496403692017
3780,-0.026009506519852982
3781,-0.01815309021879994
3782,-0.0030243434380967465
3783,0.005714115089925328
3784,0.0010386977139340962
3785,-0.01105482027072428
3786,-0.018045339814646698
3787,-0.013416792415746646
3788,-0.0026232072600187494
3789,0.003215731242430599
3790,-0.0008879660729738345
3791,-0.008733946005701617
3792,-0.009813960669187063
3793,-0.0009640661488230146
3794,0.00945700900640524
3795,0.009605190037771424
3796,-0.0034619951417442516
3797,-0.01977871395403151
3798,-0.025474513443525963
3799,-0.016258800396971057
3800,-0.0019283061229729544
3801,0.0029743110790770473
3802,-0.006572656297811889
3803,-0.020993099313608536
3804,-0.025472912354712392
3805,-0.014681492841085537
3806,0.0017175221039798269
3807,0.008355286098281942
3808,-0.0008300632903175547
3809,-0.016679415681125173
3810,-0.02384467081473899
3811,-0.015815331206686482
3812,-0.0011043376547006938
3813,0.00538278445984337
3814,-0.0029259640298026452
3815,-0.018032862022115778
3816,-0.025534547596154995
3817,-0.018753024935262708
3818,-0.004766234262248184
3819,0.0032520614154263557
3820,-0.0007914523500681806
3821,-0.010540404379735923
3822,-0.014583052427738167
3823,-0.008514948491063275
3824,0.0008392462642055035
3825,0.003103139518172056
3826,-0.004390823274122395
3827,-0.01362537474656099
3828,-0.014315859071080527
3829,-0.004929688917387609
3830,0.00524428713595393
3831,0.005345371487913961
3832,-0.00580981615665996
3833,-0.01801958586335011
3834,-0.019524882301159313
3835,-0.008702481923217601
3836,0.004042945350065314
3837,0.006168910463954128
3838,-0.0050135903374865076
3839,-0.019942807663063798
3840,-0.026154125056818252
3841,-0.02000791464205868
3842,-0.00935081128128078
3843,-0.004895959621496712
3844,-0.009300600339203057
3845,-0.014947478351275053
3846,-0.012463547879522703
3847,-0.001146172685719815
3848,0.009427831258750293
3849,0.00846189983619123
3850,-0.005203435329230907
3851,-0.02121418182680094
3852,-0.026828977012740896
3853,-0.01835314768210227
3854,-0.0040406059578851445
3855,0.003981553020004603
3856,0.0006658382214738328
3857,-0.008593109113415315
3858,-0.014776026678045407
3859,-0.014754630341493744
3860,-0.013769853719678857
3861,-0.01870924980509809
3862,-0.02957252256980452
3863,-0.038342080273117723
3864,-0.03677897379326986
3865,-0.02530061894775296
3866,-0.013638142549191407
3867,-0.012035933808535602
3868,-0.021334705638815843
3869,-0.03172619111886135
3870,-0.03167718713899163
3871,-0.018600848192007847
3872,-0.001101402309899128
3873,0.009213851332366088
3874,0.008312197850589745
3875,0.00257612112429567
3876,0.0015833899611072115
3877,0.008358495154512247
3878,0.016806247976382544
3879,0.01856928238861137
3880,0.012058167970161432
3881,0.00438084770231313
3882,0.004231441138767172
3883,0.012986306220908805
3884,0.023040886414849977
3885,0.02508439049200688
3886,0.0170121702169272
3887,0.005584591363174377
3888,-0.0006941816596277042
3889,-0.00015432918646561352
3890,0.0007343582695166248
3891,-0.0053713532403805156
3892,-0.018306485996831254
3893,-0.029586171549954604
3894,-0.030272838590087187
3895,-0.019829943898590684
3896,-0.007091570615572523
3897,-0.0021697316703094592
3898,-0.0070652406515693605
3899,-0.014055431660557062
3900,-0.013311666845991731
3901,-0.0022262001627723956
3902,0.012524709003548068
3903,0.021759813446814595
3904,0.022249358555103016
3905,0.018356904354447326
3906,0.015673906826583504
3907,0.013846066702116765
3908,0.006623396584050289
3909,-0.010504031560310063
3910,-0.03306439796580053
3911,-0.04901320764382189
3912,-0.048584928791449516
3913,-0.03350071762906827
3914,-0.016284041332191072
3915,-0.009631679857316371
3916,-0.015529232818206874
3917,-0.02437428245540615
3918,-0.024899884728727187
3919,-0.01526315183863175
3920,-0.004539861848140992
3921,-0.003290401036904716
3922,-0.012655948640029134
3923,-0.02293342265045259
3924,-0.023186631408317677
3925,-0.01239776427467692
3926,-0.0009460351630360979
3927,-0.0006669918749883394
3928,-0.013118356633899184
3929,-0.027647458038474126
3930,-0.031336997956054866
3931,-0.02123284067568283
3932,-0.007002978059596739
3933,-0.001605105418002884
3934,-0.009276545054710338
3935,-0.022511376312662024
3936,-0.030405128098715963
3937,-0.029326439342002027
3938,-0.024948063836100542
3939,-0.02410006520533288
3940,-0.02579620280466898
3941,-0.02162583839034686
3942,-0.005449137472613368
3943,0.018238429822426887
3944,0.03726252291100027
3945,0.044205186564515345
3946,0.045596536075693576
3947,0.057129847962673036
3948,0.08796010029006279
3949,0.1290207986807816
3950,0.15761814003093128
3951,0.15512718413713628
3952,0.12152319080910273
3953,0.07310842764434416
3954,0.025974921108001738
3955,-0.01844543510316765
3956,-0.07167871625574807
3957,-0.14230197669795713
3958,-0.22149136950937676
3959,-0.2837682092293453
3960,-0.30184255721971154
3961,-0.2620775920986895
3962,-0.16901962881423171
3963,-0.03996849597334415
3964,0.1007225763992053
3965,0.22214831690085285
3966,0.28777246337974594
3967,0.26605577409386627
3968,0.15011463418982982
3969,-0.02815350459529734
3970,-0.20579006402803368
3971,-0.31918964666640776
3972,-0.33810591436463827
3973,-0.2786824390555693
3974,-0.1864757956326319
3975,-0.10394624232053545
3976,-0.04773326038391125
3977,-0.010270082245285236
3978,0.021354069949191496
3979,0.04919495621582312
3980,0.0646160604977878
3981,0.061095807156773305
3982,0.044477167109091845
3983,0.029788718878981966
3984,0.02814551311100585
3985,0.03706654033515228
3986,0.04378046235266379
3987,0.03820270009145608
3988,0.023020446071528405
3989,0.01130648449920449
3990,0.014018957983771561
3991,0.02919962526753957
3992,0.0429850935832648
3993,0.041571768736868873
3994,0.023287959950399686
3995,-1.9877658772114292e-05
3996,-0.01328548832896087
3997,-0.01076781862532821
3998,0.000228621890883309
3999,0.007143869526487679
4000,0.0036911789473452854
4001,-0.005531957524234692
4002,-0.010931980574605094
4003,-0.007841244346672709
4004,-0.0006132256686727819
4005,0.0026842825913563975
4006,-0.0009811281529799386
4007,-0.006625707327499048
4008,-0.007053044282394567
4009,-0.0011959284362449561
4010,0.004031500040908862
4011,0.0007183416010243466
4012,-0.011244949009131058
4013,-0.022887595183755764
4014,-0.024299654263258752
4015,-0.014325558534420826
4016,-0.0019495483722506062
4017,0.002330917363102471
4018,-0.003360247656818716
4019,-0.010896824690095262
4020,-0.011012011322611698
4021,-0.0033522579197911065
4022,0.0027846822718852176
4023,-0.0018593925474767637
4024,-0.01612488083165429
4025,-0.028256553591663083
4026,-0.026763436182625076
4027,-0.01186502377545407
4028,0.003969385828029675
4029,0.007342466635136299
4030,-0.0036868415822671804
4031,-0.01816335045234573
4032,-0.023083030843258967
4033,-0.015857223450206383
4034,-0.0062514526956560885
4035,-0.006136235037210174
4036,-0.017379400723037293
4037,-0.029866393334635862
4038,-0.031462742416862324
4039,-0.019935213751635594
4040,-0.005075936607670455
4041,0.0009044776658391269
4042,-0.004887835522980374
4043,-0.013651889356897418
4044,-0.013948982842023772
4045,-0.0030628649549849585
4046,0.010456132454694657
4047,0.01525156009998479
4048,0.008023581797172663
4049,-0.0038330040560466882
4050,-0.009989069645197832
4051,-0.007231711444383067
4052,-0.0017855293736005933
4053,-0.001984279605055658
4054,-0.009136322789346334
4055,-0.01603794071651926
4056,-0.014577035649512168
4057,-0.00446812138242277
4058,0.006057640069548219
4059,0.008550079569775415
4060,0.003226116380546755
4061,-0.0008415063579552591
4062,0.005154789901038623
4063,0.020321906451398287
4064,0.03404990866697856
4065,0.03595577842834728
4066,0.026204780652517114
4067,0.01582193135342764
4068,0.0162739268933087
4069,0.02834653408209182
4070,0.041360996497540485
4071,0.04372275454355516
4072,0.03445792386841946
4073,0.02415379831645563
4074,0.02413070261911588
4075,0.0345618547841115
4076,0.043649545686657895
4077,0.03912901349752971
4078,0.020893656615894478
4079,0.0019869639802072413
4080,-0.0035123008558263303
4081,0.005925522336070658
4082,0.017660338650384508
4083,0.01705677107499208
4084,0.0016299500465963524
4085,-0.01674346339948914
4086,-0.02371654604864295
4087,-0.01665055561333398
4088,-0.0069886000455460645
4089,-0.008505691205376177
4090,-0.023224250086671925
4091,-0.03912067373351167
4092,-0.041963416300751885
4093,-0.029500210015698324
4094,-0.013866771380147462
4095,-0.009826890287537767
4096,-0.02050730838358132
4097,-0.034665602756698846
4098,-0.03798294845095549
4099,-0.027035391572418185
4100,-0.012203069401896395
4101,-0.0069835325352892545
4102,-0.014620432369063179
4103,-0.025306640383855383
4104,-0.02642134795254629
4105,-0.015321151742844364
4106,-0.0019574210196436556
4107,0.0010405039793198363
4108,-0.00922556652069859
4109,-0.023231503181604544
4110,-0.028389979371497884
4111,-0.02095917286681099
4112,-0.008883092588725296
4113,-0.003264953972167407
4114,-0.0073700622120020645
4115,-0.01407682081057487
4116,-0.013906347846766105
4117,-0.0051944695338068236
4118,0.003915595556211186
4119,0.003602281138357563
4120,-0.007549265816159469
4121,-0.020541821133366382
4122,-0.024082123103681158
4123,-0.01502127650303238
4124,-0.0012008530239027934
4125,0.0058029707709307005
4126,0.0009988101802517837
4127,-0.010213457910326958
4128,-0.017777553972491686
4129,-0.016291681498993085
4130,-0.009092277527611187
4131,-0.0039012061833822824
4132,-0.004995428155707418
4133,-0.00967515500841713
4134,-0.011972117591665467
4135,-0.009252591811055234
4136,-0.004861133091070922
4137,-0.00436444577752404
4138,-0.009536614869067286
4139,-0.016337322190581684
4140,-0.018868925873500156
4141,-0.015177401823835467
4142,-0.008997596717762929
4143,-0.0057938472867921495
4144,-0.007271034455057162
4145,-0.009988565007052717
4146,-0.009378816804253834
4147,-0.0048473056492771265
4148,-0.0005157436837100631
4149,-0.0007466150453794263
4150,-0.005157944007673239
4151,-0.00857558621801603
4152,-0.006328849472686887
4153,0.0004554437035479353
4154,0.005320036463797749
4155,0.002777108859180832
4156,-0.00569476388383275
4157,-0.012335917667366091
4158,-0.010430219430149443
4159,-0.0013141425770166718
4160,0.006168902290817301
4161,0.003874467566412744
4162,-0.007455576095070398
4163,-0.018253566355089575
4164,-0.018938275373750826
4165,-0.009263925985440555
4166,0.0010091266222711983
4167,0.0012011487634133364
4168,-0.009961459337328523
4169,-0.022857902528599566
4170,-0.026041852405227835
4171,-0.01725770471658544
4172,-0.005672132221987406
4173,-0.003007129137394259
4174,-0.012127406656250606
4175,-0.024238320618246077
4176,-0.027474320702901976
4177,-0.018462863395170354
4178,-0.005510079421745839
4179,-0.0003472885422847105
4180,-0.00669553646799852
4181,-0.01697961797680599
4182,-0.020292402863912894
4183,-0.013446461509940371
4184,-0.003972632109925795
4185,-0.0021891306529143624
4186,-0.010557036817037372
4187,-0.021195508744801604
4188,-0.023992497324691123
4189,-0.016878683714863355
4190,-0.007677918618123612
4191,-0.005708506962714128
4192,-0.011949556290729767
4193,-0.018091502855151168
4194,-0.015538303381848785
4195,-0.004954004867277412
4196,0.003828207169000447
4197,0.0018052063430581103
4198,-0.009484257209768704
4199,-0.01882935694978979
4200,-0.01642919423134128
4201,-0.004157689592232304
4202,0.005637768776735745
4203,0.002095185683540203
4204,-0.013158251655826531
4205,-0.02708465767393399
4206,-0.027668810872439886
4207,-0.015594526506114426
4208,-0.0035884408087560665
4209,-0.00393903576406907
4210,-0.016398304412274856
4211,-0.028365909226663724
4212,-0.027207282553561158
4213,-0.012661621913869638
4214,0.0027423834396900337
4215,0.005568899432151411
4216,-0.005971328288574227
4217,-0.020848571189077666
4218,-0.026176097889411797
4219,-0.01930683877537486
4220,-0.009353359478313696
4221,-0.007174497545391246
4222,-0.014242516964131698
4223,-0.021564381816693554
4224,-0.019462334021938133
4225,-0.008046877744266785
4226,0.002391268400120188
4227,0.0015806653959968486
4228,-0.010197166180303717
4229,-0.02194651391378119
4230,-0.022539097939841723
4231,-0.011621966065760447
4232,-6.872526538180459e-06
4233,0.0009030607287925036
4234,-0.009782736721799294
4235,-0.02174084928892652
4236,-0.023698771024319575
4237,-0.01435936971922842
4238,-0.0031607922031824933
4239,-0.0003511644332285569
4240,-0.006587053577952343
4241,-0.012624309255233924
4242,-0.00933438046500588
4243,0.002276708530311702
4244,0.011437128531287286
4245,0.008229484774910544
4246,-0.006165839608448593
4247,-0.02004616118548902
4248,-0.022262087970014992
4249,-0.012923640408571996
4250,-0.0031353735106924943
4251,-0.004015543314021279
4252,-0.015859843118594244
4253,-0.028106000459445828
4254,-0.03000113555228945
4255,-0.02131409670932905
4256,-0.012512274499102066
4257,-0.01432736435111353
4258,-0.027069176808237054
4259,-0.040154413211957576
4260,-0.042184185751257514
4261,-0.031650206623881676
4262,-0.017974556083448376
4263,-0.01219477640643628
4264,-0.016577870938173995
4265,-0.0231154609671471
4266,-0.02190369199275279
4267,-0.01086968423242345
4268,0.0025764944162306016
4269,0.009122809663672097
4270,0.0065360424142723635
4271,0.001263486202707016
4272,0.0015360196720248464
4273,0.00923343602418133
4274,0.018597157543414566
4275,0.022640891294730427
4276,0.020332089738501636
4277,0.01711830781515608
4278,0.01845977986506174
4279,0.02333659383405197
4280,0.024733097223960422
4281,0.01684159621176543
4282,0.0016236165274245134
4283,-0.01223615287047549
4284,-0.01731426989664061
4285,-0.014525988793638374
4286,-0.012106619110145374
4287,-0.01731356366413486
4288,-0.029030714522958218
4289,-0.03868668722924973
4290,-0.038626704623002175
4291,-0.029567896535123983
4292,-0.019635168822187125
4293,-0.015949992791165293
4294,-0.017323898152145623
4295,-0.015583899145355885
4296,-0.004353686354774732
4297,0.013532609203508197
4298,0.02761831818318102
4299,0.029102682540341186
4300,0.018745332715151747
4301,0.005617802154229761
4302,-0.001959225210857161
4303,-0.004136835338418741
4304,-0.008148859551458849
4305,-0.019322421801252845
4306,-0.03386178846429701
4307,-0.04122179459592762
4308,-0.03428286956959939
4309,-0.01739652127624003
4310,-0.003931313048134831
4311,-0.004946577355435181
4312,-0.019383493974955784
4313,-0.03505277833143447
4314,-0.039613157535594815
4315,-0.031324509530228535
4316,-0.019680249532034504
4317,-0.015743581379459255
4318,-0.021733686194299856
4319,-0.029784912412050057
4320,-0.030607495549594133
4321,-0.023086270621384183
4322,-0.015163209529076266
4323,-0.015269856765874786
4324,-0.023194753710568252
4325,-0.029922856779704774
4326,-0.026871989470007643
4327,-0.01514347008968639
4328,-0.0049462564060425
4329,-0.005124701144171465
4330,-0.013147651846209956
4331,-0.016240067385108352
4332,-0.0035508829794678523
4333,0.022295462842205745
4334,0.04637312374003434
4335,0.05549373788076617
4336,0.05208839306334785
4337,0.053798846865875494
4338,0.07758869644183816
4339,0.1222667864347709
4340,0.16583344074855977
4341,0.18097331135073305
4342,0.15538242574311853
4343,0.09919667970942696
4344,0.03378986411192875
4345,-0.02683844646504844
4346,-0.08490964370672717
4347,-0.15083686054477188
4348,-0.22699990801638367
4349,-0.29856900213936344
4350,-0.3389566116482092
4351,-0.32443034995894804
4352,-0.2466314907403514
4353,-0.11677719915372732
4354,0.036613448078143186
4355,0.17277089256313125
4356,0.24725392493091258
4357,0.22710842123179545
4358,0.10972784370906788
4359,-0.06672363384877389
4360,-0.2342442246052363
4361,-0.32706513084265665
4362,-0.3166674387419905
4363,-0.22544478127009945
4364,-0.1085318352941673
4365,-0.01714724578218075
4366,0.029478717044251125
4367,0.04489786966585572
4368,0.053272179481191784
4369,0.06598366291857627
4370,0.07620667401234865
4371,0.07212848874552749
4372,0.05292661731872186
4373,0.03148034306051844
4374,0.02240663355589386
4375,0.02835106692491817
4376,0.038174936632317344
4377,0.03829208922506852
4378,0.025693811510782344
4379,0.010228146236888575
4380,0.004584976046200561
4381,0.012119119149757716
4382,0.024064444711328303
4383,0.02817949163413356
4384,0.020051053651555475
4385,0.0063881635313054845
4386,-0.0021427245149506363
4387,-0.001041072280698875
4388,0.004648425794588044
4389,0.006285386068954627
4390,0.0004185856437144285
4391,-0.008323583991064393
4392,-0.012610630091384162
4393,-0.01012556511546699
4394,-0.005682619112138327
4395,-0.0058270768124689615
4396,-0.011752730536283765
4397,-0.017996040667812407
4398,-0.018295131677698882
4399,-0.012492177302692569
4400,-0.0071336477395465055
4401,-0.008838797083517995
4402,-0.017085430577575972
4403,-0.023990888367631615
4404,-0.02176520597355228
4405,-0.01061627107205379
4406,0.0009268488690843733
4407,0.003944033126677952
4408,-0.0023396736684264813
4409,-0.0099100717325349
4410,-0.01000487380860187
4411,-0.0019353043079318884
4412,0.006143183658829903
4413,0.0053898584421784145
4414,-0.004731373948132259
4415,-0.01568471507857678
4416,-0.018201511757070802
4417,-0.011430560733467106
4418,-0.003687804826403694
4419,-0.00398603363590656
4420,-0.01284934842117989
4421,-0.021727791631819073
4422,-0.021684842374869177
4423,-0.012593190417801358
4424,-0.003435828858480398
4425,-0.0032531162942641026
4426,-0.011835330663223346
4427,-0.019698550028892106
4428,-0.01759408180409057
4429,-0.00608069052710144
4430,0.004579927859884622
4431,0.0043256834287359915
4432,-0.006781549131277953
4433,-0.018542644683554932
4434,-0.020590029111899614
4435,-0.012397143507271802
4436,-0.0033352339797089953
4437,-0.0028049106938813585
4438,-0.01048331480471809
4439,-0.01660404749285485
4440,-0.012010961490632473
4441,0.0022306155571770155
4442,0.015517465709106715
4443,0.018155758275623164
4444,0.011097798008250111
4445,0.005070149073236175
4446,0.009800401171392553
4447,0.02406109873658703
4448,0.03657852753734943
4449,0.03708821429301072
4450,0.02666551758704913
4451,0.01705008132069545
4452,0.019473121507534514
4453,0.03382232205375453
4454,0.04866729183373808
4455,0.052073968176249284
4456,0.04270310840257793
4457,0.030584450393481143
4458,0.027121837811286523
4459,0.034252922889292436
4460,0.04319667586857391
4461,0.04361342561232379
4462,0.03386645659744769
4463,0.02229228893425763
4464,0.01849208601923369
4465,0.023516726449873272
4466,0.028746403713362262
4467,0.02451073415338765
4468,0.009822499229526167
4469,-0.006442603622354201
4470,-0.01405657281706729
4471,-0.0111809383870216
4472,-0.005724946000435312
4473,-0.0070927997875564796
4474,-0.016663137962158535
4475,-0.026564446631891867
4476,-0.027952449059691763
4477,-0.020397425782082493
4478,-0.01278436956060489
4479,-0.01461127890645313
4480,-0.02630150718548111
4481,-0.03831856803277535
4482,-0.04018092158343656
4483,-0.030552686073753315
4484,-0.01842716002328846
4485,-0.014283338942119639
4486,-0.02010756137033431
4487,-0.028210264376501128
4488,-0.029746813933780033
4489,-0.02394575649880775
4490,-0.018415303702966734
4491,-0.020259202562295568
4492,-0.027481426974215985
4493,-0.030126047672717544
4494,-0.020573519498054728
4495,-0.0025884114956928168
4496,0.010640091495054203
4497,0.008375813472401959
4498,-0.007194951261279428
4499,-0.02236021076804819
4500,-0.024190946866564464
4501,-0.012098196462481562
4502,0.0023379316281271533
4503,0.006798463936706352
4504,-0.00040169245636010567
4505,-0.009879600381402268
4506,-0.011493557685902921
4507,-0.004668067474567581
4508,0.0015711876653274864
4509,-0.0015038891874405698
4510,-0.012851986155056477
4511,-0.022338642001553437
4512,-0.02086304301112613
4513,-0.009664629967794429
4514,0.000608304012552895
4515,0.00019949767434515814
4516,-0.010296648349251775
4517,-0.02064374792919455
4518,-0.021046951477058085
4519,-0.011594757098362328
4520,-0.001809610031180671
4521,-0.0009350680404072395
4522,-0.008723429087680324
4523,-0.01587838418777754
4524,-0.013639044127118331
4525,-0.002877346472740215
4526,0.0064603710293258095
4527,0.005151545052483922
4528,-0.005929537648922664
4529,-0.016271345621698775
4530,-0.015813209372138252
4531,-0.004891320858148003
4532,0.00578693770610254
4533,0.005323062068611623
4534,-0.006830598822756536
4535,-0.02023778693093785
4536,-0.0234222257837978
4537,-0.01472794054578248
4538,-0.003545323092483033
4539,-0.0008236568337745393
4540,-0.008302611549153302
4541,-0.017053112228983598
4542,-0.01659522794892631
4543,-0.005366889093473247
4544,0.007877110072374509
4545,0.012919337347090387
4546,0.008068221563395614
4547,0.001200022584411011
4548,0.0010513348898414754
4549,0.007952100968092747
4550,0.013656420567678967
4551,0.01040763158950534
4552,-0.0003083018062269719
4553,-0.00866834044431869
4554,-0.006449545571018218
4555,0.004141050585482361
4556,0.012038365892163306
4557,0.008073722148381255
4558,-0.005805607195571097
4559,-0.018256762983404753
4560,-0.019658841060381037
4561,-0.011553293252655021
4562,-0.00492563216360215
4563,-0.009026721108708884
4564,-0.0219333747796741
4565,-0.03229804126095824
4566,-0.030521214829820554
4567,-0.01819607594761819
4568,-0.006487219784204194
4569,-0.005176381878176159
4570,-0.013288285662246263
4571,-0.020430327837026613
