,0
0,-0.004287415892373478
1,1.258547386708266e-05
2,0.0030136364765724717
3,0.006236119484671219
4,0.012419532090015568
5,0.02086580399056903
6,0.025738967070124515
7,0.0208869186862794
8,0.007246096420691206
9,-0.005364985359631868
10,-0.00569299955222345
11,0.008204812754889202
12,0.025516171129338766
13,0.0311381355683299
14,0.019115127696045488
15,-0.001524413357455596
16,-0.014565009298407372
17,-0.01113081635337602
18,0.0026724575371697558
19,0.01218501800462995
20,0.008317154365225128
21,-0.004405268457767811
22,-0.013521894967107055
23,-0.012045592721544852
24,-0.005967933718463708
25,-0.008215636486847524
26,-0.025053730575098583
27,-0.04864954746282887
28,-0.06361400270650606
29,-0.06162447019938266
30,-0.05018703036791983
31,-0.04703159669772842
32,-0.06516337299195726
33,-0.10215641901922207
34,-0.14297779363730995
35,-0.17309648591421378
36,-0.1899285269669079
37,-0.20337804625354833
38,-0.22663573222368397
39,-0.2660890331820337
40,-0.317756296164496
41,-0.37031712191869914
42,-0.40990624992781777
43,-0.42353414481118384
44,-0.40239553654844135
45,-0.3468053262436436
46,-0.2699870022186027
47,-0.19458349324775215
48,-0.13977853075079785
49,-0.10638317469332154
50,-0.07252506892832798
51,-0.0061456075584385254
52,0.11379548666424716
53,0.2843923569454465
54,0.48459593123288747
55,0.6928201438618392
56,0.8976766743181582
57,1.0898158781618044
58,1.2431655345714154
59,1.3082844576743105
60,1.2330471415024271
61,1.0007238955247213
62,0.6553422300815095
63,0.2894382459807098
64,-0.002008501308823695
65,-0.16971193498910034
66,-0.22624368142103776
67,-0.2220065865261972
68,-0.2041283252710417
69,-0.19121952711038404
70,-0.17852077430054342
71,-0.16002642777954107
72,-0.14241694119803633
73,-0.1386256465223468
74,-0.15144014222623148
75,-0.16698046218510892
76,-0.16621337899495126
77,-0.143171641712737
78,-0.11137281902389112
79,-0.09178938093674378
80,-0.09404865753840114
81,-0.10890385368802433
82,-0.11856581799978064
83,-0.11410300835348118
84,-0.10293152339566461
85,-0.09985797497127308
86,-0.11128335113645382
87,-0.12821088486454968
88,-0.13443017392312667
89,-0.12144472850783684
90,-0.09580939875234175
91,-0.07256060943460396
92,-0.06180750929796877
93,-0.061281987430223506
94,-0.0609200813017168
95,-0.0537337584054611
96,-0.04194771089092188
97,-0.03309352221974922
98,-0.031070365046297253
99,-0.03174558672829854
100,-0.027430671616633224
101,-0.01529804045388523
102,-0.0009061044902936876
103,0.006864648776474298
104,0.004411399395850241
105,-0.003046964593336924
106,-0.006475625086466901
107,-0.0015633965904270405
108,0.0076203417938862286
109,0.013249538135369577
110,0.011733654977448901
111,0.006933005677179295
112,0.00550485326636082
113,0.009440474645165264
114,0.013747948830160136
115,0.011840088128537998
116,0.002999610883893356
117,-0.006151426827796741
118,-0.008159817203240705
119,-0.002676290928383046
120,0.0027325402860268197
121,0.00036402431583835353
122,-0.008993115006361671
123,-0.01596770352729552
124,-0.012123841029398378
125,0.00010360883902689488
126,0.0077360976625859175
127,-0.001139093168350654
128,-0.025157968597533706
129,-0.049298287952651676
130,-0.05791107418348491
131,-0.04940145478963625
132,-0.03829422697878693
133,-0.04196843372116598
134,-0.06419273261220537
135,-0.09117173904666387
136,-0.10416647743554214
137,-0.09686463345024321
138,-0.0809899166013403
139,-0.07487598313092311
140,-0.08607187906586415
141,-0.10462901985389872
142,-0.1132003283415282
143,-0.10382988190825626
144,-0.08515426318233871
145,-0.07342183999156747
146,-0.07651188962766155
147,-0.08657433257373313
148,-0.08807838835137616
149,-0.07299784542012552
150,-0.048322990911882815
151,-0.02903302251792726
152,-0.023832475287807547
153,-0.02747894408491775
154,-0.02655720290440362
155,-0.012477217767527655
156,0.0109022459239111
157,0.0316782562811678
158,0.04122608341363707
159,0.04132458443208126
160,0.04094627210261796
161,0.0468652386987812
162,0.057583665283617906
163,0.06585273752940307
164,0.06626189404887986
165,0.05994783098620299
166,0.05228469270734262
167,0.04687264165051011
168,0.04245651641082576
169,0.03562142938129389
170,0.025711627842837363
171,0.016265467115402547
172,0.01138151955023453
173,0.011150158663539304
174,0.01136663948874099
175,0.008033508295224177
176,0.0017781591853405576
177,-0.002829389963891134
178,-0.0026112950028951355
179,-3.6504942443197404e-06
180,-0.0011150297302044575
181,-0.00900210799126596
182,-0.019127842593402666
183,-0.022523605651055226
184,-0.0145368528632037
185,-0.0007235755124574863
186,0.006731391199659489
187,-0.00023612523873739596
188,-0.017487413267967725
189,-0.03146206580012687
190,-0.031071025696565745
191,-0.017954218371123536
192,-0.005240059352749087
193,-0.005436426002355443
194,-0.01849301502280433
195,-0.03135658869578424
196,-0.02984264397840232
197,-0.012057936627713617
198,0.009096735157927142
199,0.016859033895923137
200,0.0051164656573791135
201,-0.016586630912967394
202,-0.031775719978350006
203,-0.031204045211325852
204,-0.019618125418534405
205,-0.00970596786512151
206,-0.009780464685619591
207,-0.016969050684691026
208,-0.02163792881011927
209,-0.01779058732673766
210,-0.008924987666849269
211,-0.0039781011553109485
212,-0.007987542547843538
213,-0.017013288613202254
214,-0.0221701344811786
215,-0.018393699906714932
216,-0.009094254948413729
217,-0.0023411124161764416
218,-0.002821096045257162
219,-0.007773573370876833
220,-0.010648259371719477
221,-0.008197743220293015
222,-0.003429200639932423
223,-0.0015414423139403183
224,-0.003581495241786668
225,-0.005005979036334627
226,-0.0009891850894941194
227,0.00721065213702435
228,0.012149047812479368
229,0.00733870049474121
230,-0.005331933135144851
231,-0.01598433589239237
232,-0.015558705758677693
233,-0.004842391496301557
234,0.005525656245076255
235,0.004887528571278924
236,-0.006878160118780621
237,-0.018590307097334093
238,-0.018197661133087795
239,-0.004746597864035378
240,0.009844293858309228
241,0.011483070965239296
242,-0.002768831701528287
243,-0.021534898268765375
244,-0.02947071882853823
245,-0.021494560721573706
246,-0.007363140979102558
247,-0.002183319679612261
248,-0.01193250073308287
249,-0.027847452284824544
250,-0.03495162864160224
251,-0.026369829473215464
252,-0.009668098172309094
253,0.0005805292974762741
254,-0.0035759120693771673
255,-0.01687118504357832
256,-0.02707102923538801
257,-0.0271056285031998
258,-0.02079861872417606
259,-0.01709421932108328
260,-0.019687178676613685
261,-0.02334970477466387
262,-0.020660467675196616
263,-0.011430811769438495
264,-0.004053676265532064
265,-0.006684347959712766
266,-0.01750914211301593
267,-0.025128529185669577
268,-0.019824657358493335
269,-0.0045521805545284955
270,0.006371911190159771
271,0.0009578875242772299
272,-0.017381317465945283
273,-0.030962921383742764
274,-0.0234243721069182
275,0.004497561818761929
276,0.03435482132249608
277,0.04586157768111107
278,0.0347521763195379
279,0.015972273781563108
280,0.00934903806439551
281,0.021365742856798105
282,0.03999457515354472
283,0.046768303434908
284,0.03400692965714803
285,0.01096795588107953
286,-0.005927707302377362
287,-0.008366542902518715
288,-0.0021295496751421858
289,0.0009100738317529767
290,-0.00437460650015203
291,-0.011793752483565772
292,-0.011466184614329581
293,-0.0010980743803185582
294,0.010873620234157173
295,0.013345459118445077
296,0.0034660254378850314
297,-0.010577969245145567
298,-0.017468825294624235
299,-0.013249353055977305
300,-0.004064831517542561
301,0.0010562244720888313
302,-0.0004265623156203855
303,-0.002700990047852915
304,0.0010663131638904554
305,0.01009770761749372
306,0.015443077019187651
307,0.008678492509206936
308,-0.008646377636036201
309,-0.024743432617550822
310,-0.027797699204471893
311,-0.01742956921562367
312,-0.006151066741765548
313,-0.008523849106998055
314,-0.02757126728847692
315,-0.0513663340279004
316,-0.06381387822245688
317,-0.06026534630924877
318,-0.05331701760294519
319,-0.0625361040857722
320,-0.09679393392483562
321,-0.14551421890241584
322,-0.18771435947556703
323,-0.21134855941620964
324,-0.22517583934492824
325,-0.2513118509430531
326,-0.3040749060857743
327,-0.37383871951510983
328,-0.43088632978791463
329,-0.44665164890441134
330,-0.41428757168458696
331,-0.3514493231989174
332,-0.28440136227212265
333,-0.22862567505421755
334,-0.18222837845614404
335,-0.13465860325589368
336,-0.07893305621538761
337,-0.014642218554305858
338,0.05893489275321552
339,0.14898484903165207
340,0.26556087350063473
341,0.41131893064422176
342,0.576191347758814
343,0.7433872828690489
344,0.8996546160626067
345,1.0366733062604512
346,1.1401863966647259
347,1.1796897309960095
348,1.1157938490292951
349,0.9271003404424971
350,0.6367667569638381
351,0.3131777545511557
352,0.03799398911944252
353,-0.13715163226214835
354,-0.21291357236588854
355,-0.2281203169944
356,-0.22414056844965669
357,-0.21841984736892955
358,-0.20582362912156735
359,-0.179410620974087
360,-0.14638116476306667
361,-0.12384118740028319
362,-0.12156285327031383
363,-0.1317159372921722
364,-0.13674809798986784
365,-0.12684854688827532
366,-0.10869950170422196
367,-0.0969697964677575
368,-0.09822176788745532
369,-0.10437817199608923
370,-0.10227836025987105
371,-0.08873095367128409
372,-0.07479653644489086
373,-0.0744847999465087
374,-0.08951299631370341
375,-0.10616091417349745
376,-0.10806061344745976
377,-0.09244357299532248
378,-0.07350913589311496
379,-0.06911589375347742
380,-0.08344562146831014
381,-0.10237891903597768
382,-0.10611611582016733
383,-0.08711578329093003
384,-0.056627072194231125
385,-0.03424010191549298
386,-0.030829272137495718
387,-0.040716551409993154
388,-0.04921557393656749
389,-0.046961600377271095
390,-0.03694428174895197
391,-0.028573228166465164
392,-0.026329059930234218
393,-0.025289104919273664
394,-0.017827839968100306
395,-0.003732718068419653
396,0.007668089041085596
397,0.006341406642902619
398,-0.007431930983027035
399,-0.021531418658428482
400,-0.02244657184959025
401,-0.00799746704579492
402,0.010201946581355778
403,0.017362196126340674
404,0.009211467726035545
405,-0.0044618650506544
406,-0.009856969197003275
407,-0.002938767195537427
408,0.0066220181802475395
409,0.005284612101168357
410,-0.010381989624404321
411,-0.029372167712376315
412,-0.036004623050716666
413,-0.024488403354866177
414,-0.004362939963741874
415,0.008239465690484386
416,0.0049609444766111205
417,-0.008378869409303687
418,-0.018778824755209894
419,-0.0188737776813631
420,-0.012962855954067293
421,-0.011130930589694773
422,-0.018385020282091703
423,-0.030141807935347265
424,-0.03813382556845113
425,-0.03974820321830785
426,-0.04049221915932026
427,-0.04696925935672738
428,-0.058214505955486384
429,-0.0653468307979741
430,-0.06080080409764119
431,-0.0478304955093488
432,-0.03972796558643613
433,-0.04813453346156214
434,-0.07122321974547213
435,-0.09368930531651094
436,-0.0996258098598898
437,-0.08678399838398876
438,-0.0688338063609436
439,-0.06323958322320432
440,-0.07585191533507757
441,-0.09633142405119118
442,-0.1081972270837454
443,-0.10363284108281198
444,-0.08925195197893246
445,-0.07825811690885534
446,-0.07749322431636066
447,-0.08205490168580448
448,-0.08187480887747936
449,-0.07262167860859067
450,-0.059570513251886184
451,-0.050965303437470064
452,-0.04843289010302359
453,-0.04482064029716702
454,-0.03176595788933632
455,-0.008946121404950269
456,0.014858474067083155
457,0.03014718755812302
458,0.03577871861868043
459,0.03913415909789542
460,0.04709961024011086
461,0.0574954666956413
462,0.0605245210439518
463,0.0494795155675758
464,0.02981764957181611
465,0.016477209974340414
466,0.02078438601671323
467,0.039191968236319825
468,0.05521518128309548
469,0.053604582482572924
470,0.033870176892637535
471,0.010523794620661216
472,-0.0001737240538587908
473,0.005484694898005896
474,0.016467672619287277
475,0.018356625564727988
476,0.0069324996686054895
477,-0.008819608158975428
478,-0.01637902780200618
479,-0.011940649719763734
480,-0.0033007080869881045
481,-0.0012119926300626803
482,-0.008423108803397908
483,-0.01740776435808008
484,-0.018641175251374074
485,-0.010649902947173214
486,-0.001548294025856929
487,-0.000629467168437488
488,-0.008710573631338075
489,-0.01715724896090244
490,-0.01668492345312229
491,-0.007071479703023569
492,0.0021652888423802793
493,0.0011205556305626677
494,-0.010247362667968659
495,-0.02130456417040852
496,-0.020622422636188645
497,-0.0072482380810987585
498,0.007606777213567934
499,0.010432675527262583
500,-0.002250379285139414
501,-0.020633891166455393
502,-0.03042831587839044
503,-0.025424324253928307
504,-0.012227259071171146
505,-0.0032920127595340775
506,-0.0054268162997595255
507,-0.014678025486264635
508,-0.021698299349328574
509,-0.021406785852085972
510,-0.017145836765090017
511,-0.015797481969051848
512,-0.019712689470840428
513,-0.02421783106297393
514,-0.023175069190612716
515,-0.016352571656884522
516,-0.010373653543089004
517,-0.011851122370884728
518,-0.019824689313290178
519,-0.0258020281841557
520,-0.022051368991228202
521,-0.01002318247302838
522,-3.671811263959951e-05
523,-0.0018047368865726629
524,-0.014723390416517325
525,-0.02762041100876589
526,-0.028721945874737496
527,-0.016577674076739747
528,-0.0014881091487902666
529,0.004038348406295499
530,-0.0032356516834044355
531,-0.014711501887796673
532,-0.01852599292328068
533,-0.010829167910757833
534,0.0010222011136438432
535,0.00607634894522944
536,0.0004448276212293714
537,-0.009413849839177667
538,-0.013643766967390409
539,-0.00888933345746001
540,-0.0011811339021235144
541,0.0008415878847080876
542,-0.0048291781397203914
543,-0.011520792309170923
544,-0.011222918997757613
545,-0.0036833383408500604
546,0.0025300651485210854
547,-0.0012445965638124708
548,-0.01382771521962843
549,-0.023660920519332572
550,-0.019363398115070055
551,-0.001658109259654574
552,0.015449198258380408
553,0.016606038386543245
554,-0.0003983374804472277
555,-0.02153157921940416
556,-0.028592648964960336
557,-0.015800278838834163
558,0.004583555441598194
559,0.013174599629582031
560,0.0010051311212450173
561,-0.022547495006312715
562,-0.0386031272306121
563,-0.03577268052852222
564,-0.019351530066620284
565,-0.004762462845401712
566,-0.002550603615289227
567,-0.009764668090330771
568,-0.015344689638195873
569,-0.012872029169212228
570,-0.007155980916903547
571,-0.008216315653905043
572,-0.0195768076993117
573,-0.03356211211694219
574,-0.03871698302870265
575,-0.03160927917414596
576,-0.020562460461344974
577,-0.0171815363269275
578,-0.02426204697211829
579,-0.03261215964617936
580,-0.030320570447224634
581,-0.015225879580729764
582,0.0021393861992308645
583,0.008410179328696362
584,0.0004572329073693316
585,-0.011273285089822054
586,-0.01253699819060761
587,0.0012979826860747175
588,0.02111464496874057
589,0.032858115482909636
590,0.030415217229693384
591,0.02018426450101934
592,0.013610741878356597
593,0.015814521879951415
594,0.021699922674646547
595,0.022768853600475293
596,0.016868430880029525
597,0.01044846426419015
598,0.011036868411651973
599,0.01805174315865573
600,0.02203456817013525
601,0.013834786851068502
602,-0.005164109471989172
603,-0.022365872416263005
604,-0.02439188516310154
605,-0.009220081585317562
606,0.011431931631815117
607,0.021934989555664232
608,0.01581843143568403
609,0.000258563539666756
610,-0.011533943702208293
611,-0.012285095967201544
612,-0.005827393829998438
613,-0.0015802087477962009
614,-0.004818544005335379
615,-0.012472871692354084
616,-0.017708137304251446
617,-0.01744439072371037
618,-0.014644380134670364
619,-0.013552510301246913
620,-0.01395416058526867
621,-0.011402527154315452
622,-0.003378897101114633
623,0.005783460341485809
624,0.007641441182598806
625,-0.0017751458780235342
626,-0.016441738160336124
627,-0.02468777684422173
628,-0.020373790962065548
629,-0.01014583298120595
630,-0.008851245627473695
631,-0.026503251646349396
632,-0.05891977277831008
633,-0.09126860216688143
634,-0.11154911071857906
635,-0.12136437367809595
636,-0.1338649021250169
637,-0.16115484729001422
638,-0.20350566955069915
639,-0.250457916820248
640,-0.2916927833770413
641,-0.32583226832971135
642,-0.35795678643459206
643,-0.3888567965324624
644,-0.40819187249755906
645,-0.4001664798148938
646,-0.35740862775775206
647,-0.2895954762571925
648,-0.21759513946373954
649,-0.1576276551010819
650,-0.10961028757213531
651,-0.05980407535767113
652,0.0058391324980030905
653,0.09097909431602941
654,0.19048550666331943
655,0.3009260461283395
656,0.42746736643782557
657,0.5786206825976288
658,0.7529147368825584
659,0.9301212130437976
660,1.0757513396491976
661,1.1555083474644559
662,1.1483209347824264
663,1.0498922437097076
664,0.8688926402049214
665,0.6238848340160486
666,0.3448712301529563
667,0.07431419487139945
668,-0.14067035007367235
669,-0.265866172949347
670,-0.2969681221979136
671,-0.2623292163435458
672,-0.2068896573444573
673,-0.16729203343542107
674,-0.15530947898694603
675,-0.15990574180786354
676,-0.16340272093121436
677,-0.15718036519249562
678,-0.14517690256202617
679,-0.1355828864715655
680,-0.13109424058369581
681,-0.1273758427424348
682,-0.11985350970572456
683,-0.11043137788422527
684,-0.10637784751021044
685,-0.1122806615685571
686,-0.12364632601819474
687,-0.12952560535689567
688,-0.1224972944138885
689,-0.10642752889822142
690,-0.09381996920177252
691,-0.09442140591091636
692,-0.10561678652496088
693,-0.11408674071648672
694,-0.10770439226085535
695,-0.0866436385835572
696,-0.0630725019520378
697,-0.0496353669905926
698,-0.04785461530764573
699,-0.04778458148963176
700,-0.03920681454015178
701,-0.023057804182484824
702,-0.011242466249302733
703,-0.014433153993000415
704,-0.0297959387978474
705,-0.04141314315710404
706,-0.0341460179013506
707,-0.008267448066365674
708,0.019339759530517576
709,0.029319201560735045
710,0.016646627426998527
711,-0.005341450938555399
712,-0.0173105443099686
713,-0.011077524199502491
714,0.004209985287976389
715,0.011955023933693642
716,0.0040844371428119105
717,-0.011981030918203408
718,-0.021213283475000372
719,-0.0153546116242861
720,7.51289833621745e-05
721,0.012066166616634412
722,0.012632314402236146
723,0.005186404492468987
724,-0.0006157235399951692
725,0.0006772135947717844
726,0.005426103693362922
727,0.005946582239731327
728,-0.0005645414247608649
729,-0.008904263856096285
730,-0.01169223558913028
731,-0.007700645923071528
732,-0.0035888222348558554
733,-0.00693932680555967
734,-0.017806614205407592
735,-0.027894905853912258
736,-0.028818746864388477
737,-0.021360302792569234
738,-0.01603537220949689
739,-0.023591754128708908
740,-0.04424658231035056
741,-0.0663222466531133
742,-0.0762583242557231
743,-0.07094848616209755
744,-0.06071980579383557
745,-0.059850766243682976
746,-0.07330178182510431
747,-0.09206502738528094
748,-0.10155326498025966
749,-0.09522574241815668
750,-0.08074731134375013
751,-0.07300747189891382
752,-0.08059754835173742
753,-0.09827525648352171
754,-0.11208620422961194
755,-0.11192023007095989
756,-0.0996747886600226
757,-0.0859037317979632
758,-0.07898141917699626
759,-0.07757117357104541
760,-0.07329776674113028
761,-0.060199906088408424
762,-0.04108909203486503
763,-0.02454063398205336
764,-0.01597584463241901
765,-0.012240863206605775
766,-0.0053096114420191805
767,0.008803472872853841
768,0.025339481121983802
769,0.03547211381785208
770,0.03577066809967262
771,0.03255492805559129
772,0.03606931449282026
773,0.04977372801599497
774,0.06553421159594902
775,0.07023590881078788
776,0.058141584191796686
777,0.037181180294441035
778,0.022646702329622466
779,0.023707064443883742
780,0.03525515931166944
781,0.042808673371562356
782,0.035922371875479246
783,0.01756522311694768
784,0.0008594204051006245
785,-0.003366750817155214
786,0.003769785063373241
787,0.011239078799186567
788,0.009239069623322615
789,-0.0016785069112096825
790,-0.012081760883505682
791,-0.013565681952126256
792,-0.006812482052655837
793,3.2086556839830286e-05
794,0.00033583396715872985
795,-0.004394677138631846
796,-0.007082747259277318
797,-0.003751480643350632
798,0.0013476090577565327
799,4.430122667206031e-05
800,-0.010306180537373016
801,-0.022477187996121438
802,-0.02550939654426182
803,-0.01577519162620471
804,-0.001675046067284538
805,0.0035242192704984373
806,-0.0056873261958110145
807,-0.021326308519549638
808,-0.02905826544355518
809,-0.021575904839168016
810,-0.005277875651044761
811,0.006167913084175609
812,0.004857283077850556
813,-0.004630869561302941
814,-0.01116255145261257
815,-0.009111395496782002
816,-0.003985257760392109
817,-0.005904179600757337
818,-0.017907579746410662
819,-0.03152294662694537
820,-0.03458553401139537
821,-0.02355608477287695
822,-0.007663206766361623
823,-0.000290255252452917
824,-0.006003838425570023
825,-0.01624685127042367
826,-0.018157561451779526
827,-0.007777475636404505
828,0.005601181532771566
829,0.008413443042454555
830,-0.003710591478363676
831,-0.02132123982963475
832,-0.029930550143395428
833,-0.023532244404523395
834,-0.009676370165211187
835,-0.00145683428115614
836,-0.00468570290626375
837,-0.012951816037007787
838,-0.015023397108918132
839,-0.0066581624438378706
840,0.0052178523754171004
841,0.00991646715974067
842,0.0040666978144796835
843,-0.005134675381898098
844,-0.007784091123423808
845,-0.0019750637108827745
846,0.003965510649585349
847,0.00035577671046074723
848,-0.012826425894096789
849,-0.024441106188373904
850,-0.022531252273870938
851,-0.00667758733724878
852,0.010185418117850918
853,0.013132430905471617
854,-0.0006365608031234521
855,-0.018619163589950218
856,-0.02431721595255181
857,-0.012599863550476348
858,0.0054739585976954705
859,0.013050669404157486
860,0.0032166057990792043
861,-0.014882147267527072
862,-0.02512488243729881
863,-0.019634620986732396
864,-0.005408933582360254
865,0.0035844837559581627
866,0.00043155242001802836
867,-0.008692926043013026
868,-0.01211059272637522
869,-0.005552439569000615
870,0.0031529193775953514
871,0.0024986712438642704
872,-0.009974718950192148
873,-0.02409551636220315
874,-0.026798398076691904
875,-0.015545392666405816
876,-0.0015963169982172935
877,0.0007416009316217251
878,-0.011488148094859246
879,-0.026306060572247655
880,-0.028043564506215892
881,-0.01272298443087461
882,0.007443262373753444
883,0.014967920395561713
884,0.003001250953456257
885,-0.018872450794455646
886,-0.034044008736528505
887,-0.03392686326422227
888,-0.024200831829557033
889,-0.01712613291441669
890,-0.018614531051967476
891,-0.023269740477877686
892,-0.0217661694935632
893,-0.01211072710218352
894,-0.0025968179697888113
895,-0.0031676448722812787
896,-0.01414685205057967
897,-0.02431259389501661
898,-0.020982540554857362
899,-0.002516065688482414
900,0.019208464902037904
901,0.02923742401771575
902,0.023193876283933455
903,0.011137580676693803
904,0.007918740480623482
905,0.019178724958017174
906,0.03620117602312153
907,0.04427261048463262
908,0.03640822045167444
909,0.019480500658628372
910,0.007318353733072984
911,0.007741445171319769
912,0.015884784857664112
913,0.019715026433030063
914,0.01191237635012539
915,-0.003385667737843809
916,-0.014999550111915455
917,-0.01541282481697814
918,-0.007260052638900182
919,0.0001743540096993863
920,0.0002441332559686505
921,-0.005430366069645585
922,-0.010091204412912088
923,-0.009713873189821028
924,-0.0070841238891527925
925,-0.007997966468018865
926,-0.014040375546933832
927,-0.020046679088448795
928,-0.019310734137593787
929,-0.01116771124933795
930,-0.002661760333269452
931,-0.0018991720763989024
932,-0.00949188708054248
933,-0.01703705924454625
934,-0.014860139864023297
935,-0.0017911364659157693
936,0.012808048252848349
937,0.017245887551670808
938,0.00827846340844123
939,-0.006007539947234408
940,-0.01410519860775743
941,-0.012082696816717402
942,-0.0068915274184333
943,-0.008884487805158894
944,-0.021255787902434896
945,-0.03718484454820373
946,-0.04757782410658135
947,-0.05135330643195682
948,-0.05740534966411645
949,-0.07581470650817443
950,-0.10717146517512988
951,-0.14136579935182536
952,-0.16787056820951096
953,-0.18745699239294217
954,-0.2128452679697878
955,-0.25614071580138714
956,-0.3142834287520778
957,-0.36679873022718124
958,-0.38926568096794234
959,-0.3712443221156452
960,-0.3230900790427464
961,-0.26637101972913424
962,-0.21748218314944048
963,-0.17913426873496907
964,-0.1452328747645549
965,-0.11105764511771704
966,-0.07652048963654964
967,-0.03939541425269715
968,0.012384764358375192
969,0.09830193288540089
970,0.2322412230416135
971,0.41031129774207836
972,0.6109978910842788
973,0.8068323839444622
974,0.9750701691041576
975,1.0968874445585106
976,1.1489352488624927
977,1.1022958940199739
978,0.9383492836912007
979,0.6722839674460193
980,0.36176400164781775
981,0.08616756689915483
982,-0.09368501163816445
983,-0.16639115425433648
984,-0.16786454749300056
985,-0.14916453706029825
986,-0.1412334578040667
987,-0.14359820391472916
988,-0.1409006575890011
989,-0.1268648235613003
990,-0.11211026577211639
991,-0.11116786537314369
992,-0.12519320970821152
993,-0.1395977518892439
994,-0.13892284978506747
995,-0.12302640303180698
996,-0.10758975111305452
997,-0.10840699489765625
998,-0.12550789928056166
999,-0.14306333973673407
1000,-0.14485809552600593
1001,-0.12966494031046444
1002,-0.11152717507108931
1003,-0.10542775412452077
1004,-0.11306601921820056
1005,-0.12244489085204477
1006,-0.12055547693361833
1007,-0.10570828771351604
1008,-0.08752795730601773
1009,-0.07589244331433011
1010,-0.07107319746699944
1011,-0.06508952944804702
1012,-0.05192884910686738
1013,-0.03506511482750223
1014,-0.024044991430280577
1015,-0.023881488179402097
1016,-0.028835268771093832
1017,-0.027667532767128127
1018,-0.015346148283363958
1019,0.0009041883602109169
1020,0.007935224591115507
1021,-0.00041076303588521773
1022,-0.016588442982026354
1023,-0.02584357794990797
1024,-0.01995785721636472
1025,-0.00497210161784316
1026,0.004725063577634043
1027,0.000364235772301539
1028,-0.012620995006126734
1029,-0.01969106212656553
1030,-0.011128774416108007
1031,0.008482622390540527
1032,0.024173240906121763
1033,0.02404998839045944
1034,0.00959553684853275
1035,-0.006531932410018532
1036,-0.012493215106211056
1037,-0.007402206324770708
1038,-0.0004534344016071084
1039,-0.0008986310618658547
1040,-0.009222605123272349
1041,-0.01781771823875919
1042,-0.019502540643691127
1043,-0.014644454123176963
1044,-0.009824870603724785
1045,-0.010176552473958607
1046,-0.013987578721016601
1047,-0.015325531420634595
1048,-0.011561229762514069
1049,-0.007290461568636394
1050,-0.010013970779927663
1051,-0.021952546343074898
1052,-0.036892562933475245
1053,-0.04594085278695944
1054,-0.04656834332906406
1055,-0.045387095984519066
1056,-0.051248651298251485
1057,-0.06543381103452481
1058,-0.07929742689126246
1059,-0.08253765353912322
1060,-0.07422482826567414
1061,-0.06518493710136615
1062,-0.06841573659126315
1063,-0.08625171361899753
1064,-0.10690076096816167
1065,-0.11440637634399715
1066,-0.10309652065901218
1067,-0.08289427758495063
1068,-0.07029692803790133
1069,-0.07338499109253635
1070,-0.08483917359516492
1071,-0.08925483770200582
1072,-0.07755340047524922
1073,-0.054942904248919414
1074,-0.0354635200444333
1075,-0.028941434156206473
1076,-0.03280430864094653
1077,-0.035782315861103135
1078,-0.02892784672033502
1079,-0.013046120538481198
1080,0.0038389788716849675
1081,0.015200070681265079
1082,0.02163880092161826
1083,0.02832637710158067
1084,0.03799386654379025
1085,0.04746692827562976
1086,0.05134589966322878
1087,0.04844420727314791
1088,0.04360501019181295
1089,0.04262640804478449
1090,0.04571061458619191
1091,0.046814435423847965
1092,0.04019152232757518
1093,0.027509185394876172
1094,0.017636896006695792
1095,0.018363295097203983
1096,0.027898735753696943
1097,0.03510245814576457
1098,0.029240329506328735
1099,0.010436012014786089
1100,-0.009451845553143505
1101,-0.01704977238374675
1102,-0.00955752933179416
1103,0.0027360265551235725
1104,0.006100761645679537
1105,-0.003833881566287218
1106,-0.018252031224598328
1107,-0.02387614519975019
1108,-0.01577961623951557
1109,-0.0019664333886671346
1110,0.004517417856402799
1111,-0.001938820320004636
1112,-0.014614287742934514
1113,-0.0216426264319482
1114,-0.01782632376895961
1115,-0.009243459113615949
1116,-0.006271055461698819
1117,-0.012393011479305223
1118,-0.020370350133820728
1119,-0.019800913762530417
1120,-0.008408567517267049
1121,0.004590949219277827
1122,0.00686909116435867
1123,-0.004935692379490073
1124,-0.021444511088740317
1125,-0.029042680688092567
1126,-0.022525136223745697
1127,-0.009613264027794121
1128,-0.0030541596232096253
1129,-0.008181132671354983
1130,-0.01811974697220406
1131,-0.021097392286311887
1132,-0.01235581315188655
1133,0.001155467825285628
1134,0.007701759615314654
1135,0.002143128278766975
1136,-0.009536585599457277
1137,-0.016693485311876363
1138,-0.014587069776631432
1139,-0.008357599258488852
1140,-0.006763309544188592
1141,-0.012519600703298921
1142,-0.019360705736894884
1143,-0.01882651133260261
1144,-0.009655881395144172
1145,0.000101550432852146
1146,0.0007460804918310701
1147,-0.009199333238916248
1148,-0.02096108624565711
1149,-0.02371726367263098
1150,-0.015178094262858956
1151,-0.004111062188851744
1152,-0.002106062510414325
1153,-0.012374493213597845
1154,-0.026359507966441237
1155,-0.03147927078474704
1156,-0.02268209045026785
1157,-0.00693866265672962
1158,0.0033586764226140285
1159,0.0016153113264948502
1160,-0.007673890595703079
1161,-0.014077788348141058
1162,-0.011322423203032228
1163,-0.0025206663824270063
1164,0.003984593385365294
1165,0.0033538521991812054
1166,-0.001394236108664455
1167,-0.0034791117453328423
1168,-0.00022632688898569322
1169,0.003739539583927281
1170,0.0014945315559053267
1171,-0.008058434120610728
1172,-0.017526697255155016
1173,-0.017202878363621225
1174,-0.00455372961683706
1175,0.012240096804311679
1176,0.02063142271663572
1177,0.01446617896810886
1178,-0.0007275442361403989
1179,-0.012838403418319386
1180,-0.013896426584621101
1181,-0.006499509834993721
1182,-0.00027376987703857337
1183,-0.002209369087270123
1184,-0.010311614596891686
1185,-0.01640903782775599
1186,-0.014848893177917445
1187,-0.008172738968270967
1188,-0.004167454675590397
1189,-0.007527420861372867
1190,-0.014850787787080056
1191,-0.018278748562010796
1192,-0.014143773779093288
1193,-0.00756293877622956
1194,-0.007705432125243319
1195,-0.01797046368910553
1196,-0.031033397090983728
1197,-0.034547042246665785
1198,-0.02285129998341273
1199,-0.0035270312427018607
1200,0.00815760089471469
1201,0.0024786750870264347
1202,-0.015945027287166944
1203,-0.032165982532310344
1204,-0.03418540233177105
1205,-0.023170772558007452
1206,-0.01122878815067176
1207,-0.0092716199434348
1208,-0.016885592849342677
1209,-0.02381032217241115
1210,-0.02100799319869455
1211,-0.009899899722276836
1212,-0.0004975843617155864
1213,-0.0006102790564365686
1214,-0.007453076892503501
1215,-0.010500846029169359
1216,-0.0027962291899137973
1217,0.011013135969741066
1218,0.01859883471288254
1219,0.012376293833967112
1220,-0.0020229084654265236
1221,-0.010190378857407117
1222,-0.002481488291230058
1223,0.016470420556529634
1224,0.03176516423135021
1225,0.03208868920393684
1226,0.020022744657701638
1227,0.00887380603396841
1228,0.009300055304575262
1229,0.01892525987966054
1230,0.02500935778316265
1231,0.01733264254271117
1232,-0.0014280371695215117
1233,-0.017812262268337622
1234,-0.019830265379244993
1235,-0.007411363354984374
1236,0.008563712544808505
1237,0.01682660938944676
1238,0.015134043833278045
1239,0.009896519363636187
1240,0.007734618191149308
1241,0.008450277863444464
1242,0.006501160311126091
1243,-0.001425543300085165
1244,-0.011551898066886144
1245,-0.016414534148797386
1246,-0.012864279755470352
1247,-0.005735852731185598
1248,-0.0027125082650776254
1249,-0.00551949632222513
1250,-0.007144304629158832
1251,0.0009605202841341748
1252,0.018350628659457635
1253,0.0329242187881289
1254,0.030392467746886608
1255,0.007979896265548883
1256,-0.020913890448339956
1257,-0.03683372779134065
1258,-0.03099296261873004
1259,-0.01343348358923288
1260,-0.004676322683821213
1261,-0.018081654619460475
1262,-0.048940778777577194
1263,-0.08012816984480672
1264,-0.09860691342130391
1265,-0.10702332141817306
1266,-0.11974533750023755
1267,-0.14798087773970958
1268,-0.18907469689884202
1269,-0.23046041924171878
1270,-0.2637159004587327
1271,-0.29380835952979
1272,-0.3333856067750094
1273,-0.38718741569517845
1274,-0.44208841303540825
1275,-0.47340690355635795
1276,-0.46265029043725536
1277,-0.4110008047442847
1278,-0.3369784547729522
1279,-0.2613076539514501
1280,-0.1926459402946888
1281,-0.12497506990721391
1282,-0.045523174211077044
1283,0.05619973059120127
1284,0.18501388149446008
1285,0.3406080468100071
1286,0.5166418172620846
1287,0.6979501990085677
1288,0.8615634376584647
1289,0.9854705431867328
1290,1.05978216077285
1291,1.0889735870544404
1292,1.0803025377517255
1293,1.0280769359035136
1294,0.9111338655148993
1295,0.7112126872715933
1296,0.4395484082015232
1297,0.14728131589637633
1298,-0.09447849523862115
1299,-0.2338561316384322
1300,-0.2676461507193604
1301,-0.2382340108145947
1302,-0.2011221622925377
1303,-0.18910033616315763
1304,-0.19945789150462595
1305,-0.20941376076821613
1306,-0.20193479987960838
1307,-0.17905729933874548
1308,-0.1547918252563363
1309,-0.1389048139425763
1310,-0.12874804393172967
1311,-0.11554561659529242
1312,-0.09646638418676086
1313,-0.07915886232621283
1314,-0.0743886211910224
1315,-0.08488059702875161
1316,-0.10194816929718553
1317,-0.11324215795244437
1318,-0.11377973652784491
1319,-0.1093930270910436
1320,-0.10946369978633103
1321,-0.11639303165133187
1322,-0.12235897322123572
1323,-0.11669852853820724
1324,-0.09683193344370447
1325,-0.07205490070748027
1326,-0.05617598261310673
1327,-0.055537413115670994
1328,-0.06343917655182998
1329,-0.066163565959818
1330,-0.055132511455590345
1331,-0.03418588912527184
1332,-0.015636611514154516
1333,-0.009134066914182223
1334,-0.013698859179164788
1335,-0.01983092854361826
1336,-0.018938738458745268
1337,-0.010812003896429214
1338,-0.002463452423805414
1339,-0.00040686886441675563
1340,-0.004530659575428272
1341,-0.009364101551740348
1342,-0.010556492345047245
1343,-0.009178456167697233
1344,-0.009286639192727958
1345,-0.011859139627125724
1346,-0.012409287807756455
1347,-0.005662684975821564
1348,0.007347396255546809
1349,0.017880752029823522
1350,0.016600643966774464
1351,0.0029523355566219343
1352,-0.01278667899149335
1353,-0.01791582253548557
1354,-0.008935494793722952
1355,0.004722546411218125
1356,0.008925313842434114
1357,-0.002365181758987288
1358,-0.021741132063401537
1359,-0.03542331308821434
1360,-0.035786154529041055
1361,-0.027256390755898686
1362,-0.020319179904139513
1363,-0.020260252113755293
1364,-0.02229594308897619
1365,-0.017883339289478977
1366,-0.005311525797148885
1367,0.006850525154662758
1368,0.007527536738692347
1369,-0.005540076647536695
1370,-0.022654709411375335
1371,-0.030932509693073623
1372,-0.02662835941300585
1373,-0.018764326907443167
1374,-0.020239819477627763
1375,-0.035027349521405335
1376,-0.05403740849190457
1377,-0.06374612911296489
1378,-0.05915867414430322
1379,-0.04853061279498468
1380,-0.04546022601748248
1381,-0.05622202361314195
1382,-0.07446608731608062
1383,-0.08781095034567676
1384,-0.08930804424874375
1385,-0.08266686136427279
1386,-0.0770345638743479
1387,-0.07756162111783758
1388,-0.08144832523355627
1389,-0.08270804824038885
1390,-0.07966322308864834
1391,-0.07676809901728143
1392,-0.07889053912406885
1393,-0.08453866424524384
1394,-0.08585280238774917
1395,-0.07609932397342682
1396,-0.05726888236593666
1397,-0.039698034557735226
1398,-0.03332323304544252
1399,-0.038619602433407806
1400,-0.04596923392642263
1401,-0.044286973686877076
1402,-0.030881385746024108
1403,-0.01337456064665391
1404,-0.0021476394294006533
1405,-0.0007593593187780222
1406,-0.003423165444383935
1407,-0.001501680819317221
1408,0.007802773965529186
1409,0.019220174126381495
1410,0.02555751553812112
1411,0.02563047640195564
1412,0.025658474266651014
1413,0.03254960694407319
1414,0.04594714128263236
1415,0.05746870529481855
1416,0.05846397398897817
1417,0.04881104093143748
1418,0.03770205416922012
1419,0.03498736430650365
1420,0.04119240502202755
1421,0.0462377973616547
1422,0.03882971948525395
1423,0.017962502375353892
1424,-0.00467340783522221
1425,-0.014346899279737469
1426,-0.006437865019622948
1427,0.009192945223506093
1428,0.01692647843354511
1429,0.009248419776799653
1430,-0.007053603382037438
1431,-0.017892742557779364
1432,-0.015161091505964586
1433,-0.003667996708511698
1434,0.004425402438818231
1435,0.0016710691675992583
1436,-0.008087956658440401
1437,-0.014721695726631255
1438,-0.012788003421755859
1439,-0.007064921847828166
1440,-0.007030215441961027
1441,-0.016119050729151527
1442,-0.027060823449524644
1443,-0.028510103315106963
1444,-0.0166295834364798
1445,6.76460678170343e-05
1446,0.007915770724911904
1447,0.0007271411417732062
1448,-0.014323934307223719
1449,-0.023355087818682903
1450,-0.018635752804432373
1451,-0.005386113639933974
1452,0.0037291731265556684
1453,0.0007240409367946059
1454,-0.010744639620044353
1455,-0.019825452617152274
1456,-0.019254614028334123
1457,-0.011594091005575747
1458,-0.005260620757811677
1459,-0.005230766529236592
1460,-0.00836726072518168
1461,-0.007963914286007425
1462,-0.002174511996781331
1463,0.003109080832400978
1464,0.0003964790537962304
1465,-0.010558822601125664
1466,-0.020850677114194156
1467,-0.020267910484557568
1468,-0.007573387722847451
1469,0.007168110182963194
1470,0.01115245138642284
1471,0.0004982790921784124
1472,-0.01609948524138006
1473,-0.025288437864079378
1474,-0.021030516006321956
1475,-0.009343065040245433
1476,-0.0016987394589019985
1477,-0.00393057420181452
1478,-0.01147421013221417
1479,-0.015095185620828622
1480,-0.010775678192718876
1481,-0.003620893386092584
1482,-0.002072478355080958
1483,-0.00868527823307829
1484,-0.017130301808527936
1485,-0.018594493444005204
1486,-0.01104068096631135
1487,-0.0017483849581009466
1488,-0.0002906389933567167
1489,-0.008837353042185293
1490,-0.019578496058490637
1491,-0.022110872255309204
1492,-0.013676886573737914
1493,-0.002112521330716457
1494,0.0016225592999929463
1495,-0.005780559880342474
1496,-0.016406194284869766
1497,-0.01838645912974743
1498,-0.007181500441134893
1499,0.009890980273545241
1500,0.020188312043653556
1501,0.017092749300723138
1502,0.005463310326745671
1503,-0.003689666855666837
1504,-0.0038173236353189104
1505,0.0015962463572874591
1506,0.003586869759153192
1507,-0.0025591724299858336
1508,-0.012287742704582752
1509,-0.01645722403197586
1510,-0.010902656687280812
1511,-0.0011285123538161332
1512,0.0027841876906050046
1513,-0.0038730620136687563
1514,-0.015597250241871925
1515,-0.02199795540047133
1516,-0.018194080309543077
1517,-0.009883395042759442
1518,-0.007703120506301788
1519,-0.016146019477043146
1520,-0.028077323050934522
1521,-0.03081842941154329
1522,-0.01846428865489322
1523,0.0014045843677946766
1524,0.01352590887569603
1525,0.008290775658701652
1526,-0.009761010369338198
1527,-0.026218948152082644
1528,-0.029684815055080756
1529,-0.021053552537091277
1530,-0.010805755034657532
1531,-0.007744810315325354
1532,-0.010700043386330616
1533,-0.011168120535556414
1534,-0.0034807879070414844
1535,0.008487761942430668
1536,0.015178141009677197
1537,0.011651656799319524
1538,0.0033407389858460864
1539,0.0008895868416989738
1540,0.009175282799132232
1541,0.021940563135887603
1542,0.027936860336236206
1543,0.02256641739598087
1544,0.013005814919721186
1545,0.01113600124748871
1546,0.02108583629042759
1547,0.03409098045007362
1548,0.036401852642841154
1549,0.022887240255716382
1550,0.002910251492973927
1551,-0.007705098291997866
1552,-0.0012307574516014865
1553,0.014783472189980256
1554,0.024592547982002437
1555,0.01881508560354085
1556,0.002668342469723939
1557,-0.009602912041972228
1558,-0.008323320181884801
1559,0.0030587117419318788
1560,0.012108897486919654
1561,0.009509745204160083
1562,-0.002759014901306762
1563,-0.014440998468959756
1564,-0.01728486997039299
1565,-0.012081780290188322
1566,-0.0061065061613390665
1567,-0.004666675907368633
1568,-0.006026973155655141
1569,-0.004707611490073374
1570,0.0010560270559740762
1571,0.00627200601358458
1572,0.0041695104871878035
1573,-0.006132409750230451
1574,-0.01786384708802189
1575,-0.023257898210942565
1576,-0.021937433464499334
1577,-0.021935348378459823
1578,-0.031646603504671814
1579,-0.05082079357015726
1580,-0.07042318556590166
1581,-0.08231176245619096
1582,-0.08896750547911247
1583,-0.10245492561170275
1584,-0.13245408255185048
1585,-0.17520775189426682
1586,-0.21570957509165714
1587,-0.24259198237502755
1588,-0.2611989703849202
1589,-0.29003686968843667
1590,-0.34123771006066517
1591,-0.4027093420770591
1592,-0.4409110798408558
1593,-0.4254739414338059
1594,-0.3556846727926295
1595,-0.26455423695804936
1596,-0.19442159149608582
1597,-0.16324670807003344
1598,-0.14991218819082844
1599,-0.11096535479609271
1600,-0.014171387555529588
1601,0.13966405278680968
1602,0.3235093889676729
1603,0.5102345639818332
1604,0.69200356759252
1605,0.8746720690200936
1606,1.0535403215835464
1607,1.1952994188306862
1608,1.2464166648128014
1609,1.1648344461331024
1610,0.9508379478466563
1611,0.652752125885581
1612,0.34325031620388147
1613,0.08441475869491771
1614,-0.0944136784151178
1615,-0.19547300544211504
1616,-0.2366246128246402
1617,-0.23701005181117174
1618,-0.2130951174032948
1619,-0.1809691603607747
1620,-0.1558908760033334
1621,-0.1464620316593791
1622,-0.14970569323932886
1623,-0.15420253766917408
1624,-0.15027113294308855
1625,-0.13812505187696122
1626,-0.12618844965074544
1627,-0.12148646889235704
1628,-0.12214040800965331
1629,-0.11978430062579318
1630,-0.10925161031143056
1631,-0.09506530996944607
1632,-0.08745561304413182
1633,-0.09170465507756176
1634,-0.10199517953727583
1635,-0.10664415320650963
1636,-0.09978892280589727
1637,-0.08750832470559411
1638,-0.0816635130152512
1639,-0.08732652759077351
1640,-0.0966340754875356
1641,-0.09580786678689769
1642,-0.0787913293920373
1643,-0.053916737369805914
1644,-0.0366021042703302
1645,-0.03491423973811173
1646,-0.04209174169350574
1647,-0.043425845375338196
1648,-0.030809607471614264
1649,-0.010743915899560029
1650,0.0019551839694811586
1651,-0.0014798667903995221
1652,-0.015290388740193665
1653,-0.024619033663238175
1654,-0.01934919630581301
1655,-0.0030572897639198314
1656,0.011024128617356617
1657,0.012499339953937545
1658,0.0026241404261759067
1659,-0.008298849112073736
1660,-0.01130531181527661
1661,-0.006357547589828855
1662,-0.0003937524189857512
1663,0.0009222860778278625
1664,-0.0012977415091882495
1665,-0.0016711813011724068
1666,0.0025034510092244696
1667,0.007855576501991375
1668,0.008809665910736515
1669,0.004244359580859894
1670,-0.0007054526743261146
1671,-0.00011728465344806025
1672,0.005670417072122786
1673,0.009357363383311714
1674,0.0038917349981617676
1675,-0.009446783663044512
1676,-0.020867887122401303
1677,-0.0210517427767428
1678,-0.010957747316128107
1679,-0.0023334931885993686
1680,-0.0073025818581087774
1681,-0.026339797245195536
1682,-0.04641282715916707
1683,-0.05200462995262614
1684,-0.03937567389476676
1685,-0.02073285948684213
1686,-0.013955922038410696
1687,-0.02700363161282509
1688,-0.05127511657334556
1689,-0.06993822368708083
1690,-0.07327817832511807
1691,-0.06672606092507569
1692,-0.06443856469713144
1693,-0.0750940809615381
1694,-0.093672599097796
1695,-0.10675316208497374
1696,-0.1056295327040568
1697,-0.09427376676633348
1698,-0.08472275284321021
1699,-0.08500512602075647
1700,-0.09176901195280893
1701,-0.09458723419375635
1702,-0.0870424558791951
1703,-0.0731371981564039
1704,-0.06271390027001296
1705,-0.060919048016027766
1706,-0.06270459677650003
1707,-0.05800521825384564
1708,-0.042184707009912316
1709,-0.020939787683560543
1710,-0.004566674229297184
1711,0.0025389338212748877
1712,0.006283973568647635
1713,0.016448436372314145
1714,0.03579760771644233
1715,0.0559252178758296
1716,0.06452396564026602
1717,0.05732507247283435
1718,0.0429625015224694
1719,0.035620900049499
1720,0.04217131377694881
1721,0.05598680246161705
1722,0.06333190301395744
1723,0.05622262353502927
1724,0.03957823397235846
1725,0.02613139327764603
1726,0.02432209221588965
1727,0.03085675381273987
1728,0.034707561046026125
1729,0.028125099583046605
1730,0.01375425140482837
1731,0.0012796558088023608
1732,-0.002452658867759647
1733,0.000276964477049332
1734,0.001378806505691396
1735,-0.004041490819168617
1736,-0.012532996513722404
1737,-0.016284590183837197
1738,-0.01189795803473755
1739,-0.004549616536712264
1740,-0.0028995971872462466
1741,-0.009828886780455555
1742,-0.018753342789666463
1743,-0.019857174665062358
1744,-0.010378034595983352
1745,0.0015546771815429419
1746,0.004049723667762959
1747,-0.006878322980397072
1748,-0.022550801851564398
1749,-0.028980530113965397
1750,-0.019834298668638513
1751,-0.002739391906643068
1752,0.007297014966164712
1753,0.0014019020017492644
1754,-0.015279475409688126
1755,-0.02853964337176846
1756,-0.027994619226848955
1757,-0.01577576245834215
1758,-0.0033532529979553548
1759,-0.0003014485404377058
1760,-0.0060794365886951765
1761,-0.01218410982298005
1762,-0.011518109708880155
1763,-0.005121306695769128
1764,0.00010730909379422698
1765,-0.0005284029448122381
1766,-0.0046122963995462105
1767,-0.005958253190017604
1768,-0.0022383653445235143
1769,0.0017230719204883657
1770,-0.001051907150345311
1771,-0.011513519593463042
1772,-0.02217981547190053
1773,-0.023796775125085667
1774,-0.014792951718177452
1775,-0.0037556934808490976
1776,-0.0017106104491739903
1777,-0.01130351384956884
1778,-0.023611124111883982
1779,-0.026219003054180248
1780,-0.015126814634271554
1781,0.0010423525382246184
1782,0.008851492301464455
1783,0.0025760893309072328
1784,-0.010524146668713007
1785,-0.017219769268501193
1786,-0.010818664233886333
1787,0.0028097374600619925
1788,0.011231810017019124
1789,0.0073661710112192195
1790,-0.004228111038574197
1791,-0.01236546213397971
1792,-0.010097249036626253
1793,-0.0006362797361969704
1794,0.006986171284373331
1795,0.0074270139090664
1796,0.0037738270389957194
1797,0.0030116094453411448
1798,0.007524787019358204
1799,0.011988089064522443
1800,0.009154973373210067
1801,-0.0015511186574948246
1802,-0.012050486851023893
1803,-0.013024116567033846
1804,-0.003620743592301656
1805,0.006630609314071969
1806,0.006406734444986302
1807,-0.00624067683894379
1808,-0.021207171817236272
1809,-0.025372360286032906
1810,-0.01512189132032474
1811,-0.0003251074198450097
1812,0.004401680802711096
1813,-0.006820235702671498
1814,-0.02556456341589248
1815,-0.03672422376611362
1816,-0.03215071277103969
1817,-0.017553543412681616
1818,-0.006487240365665217
1819,-0.007549893843446049
1820,-0.017075951342532092
1821,-0.023883528662879072
1822,-0.020850645213669045
1823,-0.011773782109634002
1824,-0.007044296891146545
1825,-0.012858320345935155
1826,-0.024850139798354723
1827,-0.03231486182995923
1828,-0.028541427566392212
1829,-0.01689561060257532
1830,-0.006862054206869908
1831,-0.004432153589566007
1832,-0.006689611422430944
1833,-0.0058323310103702754
1834,0.0019287843969859272
1835,0.012071433045697622
1836,0.01660306973721836
1837,0.012931117671066493
1838,0.007282044832380043
1839,0.008709877435690006
1840,0.019588410223592492
1841,0.032504758479925996
1842,0.03726419158134109
1843,0.03131457580277841
1844,0.02289626715657607
1845,0.023070008154774273
1846,0.0340157898720449
1847,0.04539210195362815
1848,0.04325699371086315
1849,0.023753948905038017
1850,-0.0015544316063944514
1851,-0.01456106105564645
1852,-0.006236946665345522
1853,0.015182720051564987
1854,0.03113179292244741
1855,0.028628902503046835
1856,0.010848254362187011
1857,-0.006881010497245635
1858,-0.011391056955942998
1859,-0.0029076510511075
1860,0.006657750092898603
1861,0.005790898192107895
1862,-0.00603148856810507
1863,-0.01878342707937454
1864,-0.021900379544458073
1865,-0.013671014448639704
1866,-0.0014676003132623114
1867,0.006153756730003339
1868,0.006864367600910448
1869,0.004466802401670922
1870,0.002639772037704001
1871,2.0393490719963206e-05
1872,-0.008033330454361052
1873,-0.023302338780318874
1874,-0.04130662584319933
1875,-0.05477400344692333
1876,-0.0606893775716448
1877,-0.06369529151079838
1878,-0.07222204346013654
1879,-0.09104508365360085
1880,-0.11746430995110035
1881,-0.14458020291318993
1882,-0.1681994469040554
1883,-0.19071236478094356
1884,-0.2186407583109467
1885,-0.2566130371558306
1886,-0.30321545714868986
1887,-0.351461018386861
1888,-0.39208286937590225
1889,-0.41632525745322657
1890,-0.41724009247949095
1891,-0.39111451705298106
1892,-0.33998816635491425
1893,-0.2730273227561528
1894,-0.20317617578650057
1895,-0.1389211309286713
1896,-0.07671437802940054
1897,-0.0015155182660624435
1898,0.10250500946316103
1899,0.23826245656106237
1900,0.3907863226513215
1901,0.5369847589021133
1902,0.6634517555788516
1903,0.7767258651802191
1904,0.8944977782464756
1905,1.0219521154412596
1906,1.1323018677535925
1907,1.1709252268832855
1908,1.085686864402656
1909,0.8643118821446869
1910,0.5511653040585953
1911,0.22897485771407095
1912,-0.023430034370493825
1913,-0.16868743893764637
1914,-0.2196671383679416
1915,-0.21790064222969457
1916,-0.20180345785467652
1917,-0.188356120045459
1918,-0.17659921555901678
1919,-0.16238686025856186
1920,-0.14782757432608085
1921,-0.1386202154874269
1922,-0.13622086892593566
1923,-0.135655125394321
1924,-0.1315527057372447
1925,-0.12489574387338923
1926,-0.12219520305300977
1927,-0.12767920330145993
1928,-0.13736242692050465
1929,-0.1421903481864119
1930,-0.1374872504766842
1931,-0.12854993444635285
1932,-0.12572539332206667
1933,-0.13336232753157326
1934,-0.14399711393793685
1935,-0.14436178810208028
1936,-0.12784302629657313
1937,-0.1011476826968768
1938,-0.07840930634717988
1939,-0.06841985977027204
1940,-0.06747386736081859
1941,-0.06455297847455517
1942,-0.053150646652338665
1943,-0.037587856742893215
1944,-0.02765573870103339
1945,-0.027553100633113448
1946,-0.030878896188843485
1947,-0.027029441675789842
1948,-0.012437319374303741
1949,0.005028327090106604
1950,0.013249218463608044
1951,0.007531163836468706
1952,-0.004956805520004344
1953,-0.012364848415457128
1954,-0.009586984800154253
1955,-0.002372861039518057
1956,-0.0002133029951693733
1957,-0.0056724900797961025
1958,-0.011456192278426855
1959,-0.008405861898876748
1960,0.003914080312776168
1961,0.015397627463248685
1962,0.014908669207644977
1963,0.0018527589292775272
1964,-0.012174999335992922
1965,-0.014102053659945456
1966,-0.0023601780808247944
1967,0.010835324796467937
1968,0.010820255974260829
1969,-0.005077386531268366
1970,-0.024043917064759873
1971,-0.029141989731571314
1972,-0.015156104014378714
1973,0.006059373802357231
1974,0.01600969666650492
1975,0.006176525987168986
1976,-0.014623540847445424
1977,-0.028840255961525098
1978,-0.02646694814617448
1979,-0.01372656586490359
1980,-0.006389300194574409
1981,-0.014549975266129176
1982,-0.033451745908037185
1983,-0.04871119002239485
1984,-0.05039791793096972
1985,-0.04227283082348344
1986,-0.037628540913006575
1987,-0.046233747866571
1988,-0.06512642582329572
1989,-0.081774031605449
1990,-0.08600060255600929
1991,-0.07901172825334397
1992,-0.07132578280935346
1993,-0.07245332160059181
1994,-0.08268648777695549
1995,-0.09435412059634163
1996,-0.10006851278213921
1997,-0.09902258984691545
1998,-0.0954637090553962
1999,-0.0922206801902025
2000,-0.08713276234111154
2001,-0.07637572448354066
2002,-0.06051823030984975
2003,-0.04576504858069156
2004,-0.03811239977903889
2005,-0.03642310909650897
2006,-0.03250523491019973
2007,-0.019297619098083918
2008,0.0007841287477513561
2009,0.01658216902594637
2010,0.018586719311746068
2011,0.00926784546164976
2012,0.0025069715707387637
2013,0.011352213920792619
2014,0.035129718560923166
2015,0.058574970104688075
2016,0.06477115825647495
2017,0.05040073707502223
2018,0.029089206429176777
2019,0.019466983461152575
2020,0.028828055471204622
2021,0.047307761036407416
2022,0.05751140823374798
2023,0.050163353677125086
2024,0.03129254546166744
2025,0.01515055623252222
2026,0.010640994306687423
2027,0.014389060428454663
2028,0.016118760546889935
2029,0.009751419702401813
2030,-0.0012132687698311723
2031,-0.008704573196137528
2032,-0.00926387050888675
2033,-0.00738229783968671
2034,-0.009729826367645224
2035,-0.016918484519173875
2036,-0.02206606344761227
2037,-0.018097470578711736
2038,-0.006166699046599895
2039,0.004099239503359562
2040,0.0036187171762011817
2041,-0.006629790673127972
2042,-0.015604414618927729
2043,-0.01260142568217915
2044,0.0016985086765855502
2045,0.014699564179747628
2046,0.01325366835858463
2047,-0.003457017142543351
2048,-0.022030929601137207
2049,-0.026436220544027937
2050,-0.01267685512724782
2051,0.007194000325457596
2052,0.015723815346331715
2053,0.0056542537872228595
2054,-0.01393995858809635
2055,-0.026468178235278434
2056,-0.02308040857549745
2057,-0.010060136313000716
2058,-0.0018787431423491552
2059,-0.0071439635223088625
2060,-0.021018240173681757
2061,-0.030815892853274622
2062,-0.02851502247756398
2063,-0.01767433826738736
2064,-0.008540717887941893
2065,-0.00720549387469872
2066,-0.01022389841959675
2067,-0.009816587024514236
2068,-0.0034709526314655233
2069,0.002724985239454048
2070,0.000777247227071543
2071,-0.009684735956546224
2072,-0.019630407421259936
2073,-0.019244334317545814
2074,-0.008408155634691777
2075,0.0021316282223567237
2076,0.0010298018014887346
2077,-0.011699421269437817
2078,-0.0232699685183188
2079,-0.01960426330604413
2080,0.0007568079435146863
2081,0.023789975706997805
2082,0.03155248062710339
2083,0.017886188347376025
2084,-0.006118294090023885
2085,-0.021842715563309426
2086,-0.019026741348585213
2087,-0.0034735249060756576
2088,0.009732621417952992
2089,0.010372649317831169
2090,0.0013327469832419975
2091,-0.005925457987277784
2092,-0.003281037335841355
2093,0.00645908344477723
2094,0.012965760058567912
2095,0.008586510935786194
2096,-0.00488211980398902
2097,-0.018916819041684605
2098,-0.026948697956538186
2099,-0.030042320968553977
2100,-0.034336918319468085
2101,-0.043648368457763397
2102,-0.05531494142556679
2103,-0.06357373257237378
2104,-0.0666318269499711
2105,-0.06961068558735382
2106,-0.07983085365228032
2107,-0.09906507513605084
2108,-0.12093069218048653
2109,-0.13661909654979437
2110,-0.143527727742085
2111,-0.14795205500241293
2112,-0.1586548903977385
2113,-0.17744571248191782
2114,-0.1963768963265139
2115,-0.20486574196451562
2116,-0.19995896775787328
2117,-0.18927076907345242
2118,-0.18296349171628218
2119,-0.18205391894962042
2120,-0.17448887235814792
2121,-0.14347731846635836
2122,-0.08109999586019882
2123,0.004702625214262577
2124,0.09551827553534126
2125,0.175046644966204
2126,0.23838702340835885
2127,0.29196975034644446
2128,0.3466792410534748
2129,0.410913964153588
2130,0.48751786858445606
2131,0.573713080979834
2132,0.6621257741475413
2133,0.7433687571647337
2134,0.8111692815900883
2135,0.867183800578139
2136,0.9190313624988762
2137,0.9684998625624002
2138,0.9970788448908554
2139,0.9633247040133968
2140,0.8210920246529175
2141,0.5507735141893149
2142,0.18148874957926223
2143,-0.2149431914652885
2144,-0.5573531574553955
2145,-0.7938557041101243
2146,-0.9197160257022996
2147,-0.9650606947082545
2148,-0.9658967968020725
2149,-0.941815184731218
2150,-0.894062095338998
2151,-0.818997676047553
2152,-0.721118566380615
2153,-0.6143603966700244
2154,-0.5133992142221363
2155,-0.4251764968420604
2156,-0.34836979359111286
2157,-0.2795570083655421
2158,-0.2188247088693679
2159,-0.16948242391544652
2160,-0.13319963695564072
2161,-0.10635810427818446
2162,-0.0818730979142222
2163,-0.05526036115467761
2164,-0.02955306287270847
2165,-0.014354696212743417
2166,-0.019078049825818795
2167,-0.04527233481390261
2168,-0.08397435909009833
2169,-0.12033888854274138
2170,-0.1421890389655921
2171,-0.1460314176291332
2172,-0.1361674451251305
2173,-0.11828818576785391
2174,-0.09355855919893283
2175,-0.05854809643901417
2176,-0.010854599936497083
2177,0.045168548423642665
2178,0.09842787318149068
2179,0.13739736907142963
2180,0.15735626737743608
2181,0.16229900730490385
2182,0.16021173746018647
2183,0.15639340656809841
2184,0.15078447085861962
2185,0.1408685735084029
2186,0.12624745277707394
2187,0.10989211763963949
2188,0.09512224274989772
2189,0.08208112741550824
2190,0.06790352855316947
2191,0.05060683547981047
2192,0.032495661061609046
2193,0.01910071633155097
2194,0.014206193153235423
2195,0.015692952825113238
2196,0.016421764090503742
2197,0.009644043174176848
2198,-0.0058451756562086735
2199,-0.025241621210155836
2200,-0.0419052777685915
2201,-0.052034442229838246
2202,-0.05588206841144078
2203,-0.05543991395419523
2204,-0.05189937035874998
2205,-0.04568819589851494
2206,-0.03836352914890181
2207,-0.03319359127479477
2208,-0.03272853175872946
2209,-0.03551669687430059
2210,-0.03597993351108417
2211,-0.028789542715541502
2212,-0.014220103700483714
2213,0.0009532330706620458
2214,0.008784913963454962
2215,0.007326590886422898
2216,0.0027653159064258354
2217,0.003947731986471343
2218,0.014104157355397693
2219,0.027807824028940224
2220,0.036523733516209536
2221,0.03760399829887044
2222,0.03767573226189917
2223,0.04646164071109369
2224,0.06666642432948851
2225,0.090119056756918
2226,0.10476114727932814
2227,0.10626812930958335
2228,0.10279963441039139
2229,0.10746813094849395
2230,0.12520818215679447
2231,0.14690978217521986
2232,0.1572560056794954
2233,0.14937233643250677
2234,0.13217991673690865
2235,0.12281345967966065
2236,0.1308109211621558
2237,0.149077626111569
2238,0.16045894446474906
2239,0.15380661104432153
2240,0.13419793072298986
2241,0.11758463558252913
2242,0.11522953383566802
2243,0.1231159624180575
2244,0.12649476734608694
2245,0.11485638981218232
2246,0.09251345791624296
2247,0.07447939778855883
2248,0.07183726170109897
2249,0.08097706847441416
2250,0.08706365482260459
2251,0.07808034290054378
2252,0.055666665787087975
2253,0.032506822173966526
2254,0.01940459532020667
2255,0.015059477890465092
2256,0.00839574432327652
2257,-0.009397252916184679
2258,-0.03542631113164324
2259,-0.05760746966445408
2260,-0.06637900460408874
2261,-0.06382399287921336
2262,-0.06126838207370259
2263,-0.06801048054990858
2264,-0.08246015263972696
2265,-0.09419912167630845
2266,-0.09442906057349387
2267,-0.08417760322596893
2268,-0.07241286296945315
2269,-0.06667432877327117
2270,-0.06616046394095458
2271,-0.06411473268492102
2272,-0.0563518945714519
2273,-0.046396921674691866
2274,-0.04156337749606001
2275,-0.04423019350572713
2276,-0.04803561353675348
2277,-0.04375227532368946
2278,-0.029220985464437035
2279,-0.012813836074912075
2280,-0.005997949021131597
2281,-0.011826104995952207
2282,-0.021035803952023313
2283,-0.020445117737281845
2284,-0.006043172695215804
2285,0.012104376602785034
2286,0.01856951202342695
2287,0.007087225270212395
2288,-0.01297060632463955
2289,-0.024681383244599266
2290,-0.018856580954715884
2291,-0.002189180290014128
2292,0.009334562559955406
2293,0.005381711958798907
2294,-0.009561936493922767
2295,-0.021155802129845393
2296,-0.019095401242810214
2297,-0.0065135235772814815
2298,0.003755243718431351
2299,0.0019276871617210224
2300,-0.009416408443464076
2301,-0.01812627533995686
2302,-0.014260006258743393
2303,0.0005156164256419086
2304,0.014456023530766873
2305,0.01619829861015547
2306,0.004218619879743879
2307,-0.01283655358734128
2308,-0.02411199099683337
2309,-0.024848528691698527
2310,-0.018109231137518344
2311,-0.010089517131386203
2312,-0.004776169466637337
2313,-0.00276658474732378
2314,-0.0036305321152078226
2315,-0.007604212158160631
2316,-0.014249015469023248
2317,-0.02030854153085882
2318,-0.02069951463018893
2319,-0.01311881426854727
2320,-0.0018651197149604254
2321,0.004088942323740982
2322,-0.0014654479670577294
2323,-0.015369738860729981
2324,-0.02616756517111142
2325,-0.023183035189038147
2326,-0.006150046935344442
2327,0.013510313160183762
2328,0.02169324502999144
2329,0.013428990911339738
2330,-0.0029858530326561323
2331,-0.013471404553534398
2332,-0.010695290455069912
2333,-0.00032871529079810525
2334,0.0046846495750879884
2335,-0.0034521135641178615
2336,-0.019817224258378105
2337,-0.03112143472185612
2338,-0.02793900195719977
2339,-0.013386488047937945
2340,-0.00016063453342930615
2341,0.0011833994345329829
2342,-0.00837561572973336
2343,-0.017988237916016767
2344,-0.01774459577487781
2345,-0.008069870462941846
2346,0.001215641559640444
2347,0.0008778400096776451
2348,-0.00872378200041122
2349,-0.018339188430048635
2350,-0.019144811118163872
2351,-0.011107402736046218
2352,-0.0021490140488950706
2353,0.0005404194453814499
2354,-0.0022761297499532774
2355,-0.003645207922627223
2356,0.0009473085864959192
2357,0.007579093935286647
2358,0.00736074064240497
2359,-0.003870248108827748
2360,-0.019841582012275566
2361,-0.028676241382207736
2362,-0.023988302641978987
2363,-0.011126896475027546
2364,-0.0019582829858253333
2365,-0.003178440172089094
2366,-0.009999636414008958
2367,-0.011828287304324501
2368,-0.00423714888384546
2369,0.005306409433296004
2370,0.0045044909717433385
2371,-0.010517125758505108
2372,-0.029352259242597125
2373,-0.03572596909678176
2374,-0.022845316303291226
2375,-0.0008057909225974462
2376,0.011779911269050435
2377,0.004585410005964472
2378,-0.01502562733090227
2379,-0.02905405282233106
2380,-0.025739315072782987
2381,-0.010199956833913854
2382,0.0011560146824966411
2383,-0.003199821837826136
2384,-0.01885370204463789
2385,-0.029966546235702357
2386,-0.024659877037221372
2387,-0.0062646691985934165
2388,0.010157053326808356
2389,0.012148505807264755
2390,0.0009602630738160808
2391,-0.010926880741523273
2392,-0.012647234835943285
2393,-0.005148220711596822
2394,0.0009468032652416541
2395,-0.0031167173220775033
2396,-0.015293117861580705
2397,-0.025197396535502986
2398,-0.024923652400609078
2399,-0.016941225545502557
2400,-0.011222224495199443
2401,-0.01495561540488859
2402,-0.02556869177532773
2403,-0.03395965065975151
2404,-0.03410270648406724
2405,-0.02875144517796291
2406,-0.025392918185265376
2407,-0.027097488830526553
2408,-0.028401838543905135
2409,-0.021046005678247395
2410,-0.0037676854157032754
2411,0.014403235531771993
2412,0.02158828639560442
2413,0.014354953926726805
2414,0.0015208455869160742
2415,-0.0037759390022043694
2416,0.0037406871346974974
2417,0.017000354624022343
2418,0.02422522369638738
2419,0.020993358761761238
2420,0.014530518109266338
2421,0.01584966124265551
2422,0.027737224781841388
2423,0.04101485240189578
2424,0.04332201805941559
2425,0.03190919206373427
2426,0.017439275433324505
2427,0.014340564463579158
2428,0.026617178488090813
2429,0.04298075089080501
2430,0.046573915702966345
2431,0.03053996172883406
2432,0.004817948756104501
2433,-0.012400672285612452
2434,-0.010746178966779926
2435,0.003542351551460395
2436,0.014004097891596165
2437,0.009241422652984225
2438,-0.00715420555351772
2439,-0.020805118370885976
2440,-0.02026169491908629
2441,-0.007118625011807218
2442,0.006454438627237802
2443,0.009485080380225734
2444,0.001547758311133871
2445,-0.00883917566057827
2446,-0.014137213486601748
2447,-0.015486325048977984
2448,-0.020584276061979906
2449,-0.03460705244045474
2450,-0.054202134669093016
2451,-0.07116605249759006
2452,-0.081981134592778
2453,-0.09281210270758794
2454,-0.1139419448660319
2455,-0.14877738571236937
2456,-0.18895800658450518
2457,-0.2216296244909433
2458,-0.24254372119805157
2459,-0.2618452770970694
2460,-0.2956691366041925
2461,-0.3503765824710898
2462,-0.4139314496274673
2463,-0.4626773821234743
2464,-0.4775692963008575
2465,-0.4556254730129915
2466,-0.4077857725191473
2467,-0.34739014143978175
2468,-0.2808185747321464
2469,-0.20696648975474852
2470,-0.12189396379823844
2471,-0.021089133126158562
2472,0.10210094256876864
2473,0.25579626504517966
2474,0.4420786601005618
2475,0.6478794006911781
2476,0.8455572494508493
2477,1.0071364395555489
2478,1.1209308846640131
2479,1.1929941477903419
2480,1.2286042079920623
2481,1.2107706441349568
2482,1.1009317913903098
2483,0.8694802660101548
2484,0.533980250570951
2485,0.16957336118900607
2486,-0.12479043453866831
2487,-0.28331860681825716
2488,-0.31041421914906486
2489,-0.2691007880602913
2490,-0.23152115079546376
2491,-0.231874354390242
2492,-0.25653671012619783
2493,-0.27199637675350197
2494,-0.2604108260344088
2495,-0.23158203936119
2496,-0.2063917720136103
2497,-0.19334413625458124
2498,-0.182513759953278
2499,-0.1604697027498213
2500,-0.12813638923102397
2501,-0.10209960673561198
2502,-0.09819053845164197
2503,-0.11466457855536423
2504,-0.13251402894632802
2505,-0.1329889848149941
2506,-0.11513890795775102
2507,-0.09611436569043073
2508,-0.0938078794399117
2509,-0.10857332712900797
2510,-0.12174038677705387
2511,-0.11268965156867881
2512,-0.07865156099354945
2513,-0.038699560226575405
2514,-0.017983530301983873
2515,-0.02637642485450076
2516,-0.05063530969328818
2517,-0.06664222409920073
2518,-0.06014975568744774
2519,-0.03740276117659447
2520,-0.017075729703289706
2521,-0.01226871923786805
2522,-0.01965542999652313
2523,-0.025015213093408876
2524,-0.018454645648088144
2525,-0.003989366900800009
2526,0.005400275291143829
2527,0.0015234950631414662
2528,-0.010486519195431091
2529,-0.017144831994930047
2530,-0.00978848788386594
2531,0.007177252212379075
2532,0.020732440761697182
2533,0.021476690693017657
2534,0.011513969767248531
2535,0.0009234163965954236
2536,-0.002619182767126127
2537,-0.0002614682784081991
2538,0.0013447898526633738
2539,-0.0015683889377097876
2540,-0.005912927057520873
2541,-0.006170144812369578
2542,-0.001701117384686102
2543,0.0017176467013697305
2544,-0.0017402329693225575
2545,-0.010620742704110332
2546,-0.016464802851193186
2547,-0.012360979664211125
2548,-0.0012002463519303409
2549,0.005535876360351985
2550,-0.001656672876744085
2551,-0.020434638199508474
2552,-0.03768057777230749
2553,-0.04138071897735597
2554,-0.03223834404115343
2555,-0.023539080626963776
2556,-0.02880867515170095
2557,-0.048772745086092924
2558,-0.070246331119577
2559,-0.07840232635599909
2560,-0.07096103537443155
2561,-0.06069985307144205
2562,-0.06359316382320221
2563,-0.08358776272933723
2564,-0.108415713558252
2565,-0.12057997981014504
2566,-0.11335492383533322
2567,-0.0968411708598003
2568,-0.08838035368605823
2569,-0.09626705307547927
2570,-0.1119453741261772
2571,-0.11791280882254378
2572,-0.10390566169580548
2573,-0.07633780502363381
2574,-0.052416642780894786
2575,-0.04465820319553283
2576,-0.050225084667608284
2577,-0.05463451728617001
2578,-0.04579390402642243
2579,-0.024930607521802248
2580,-0.004450702138949337
2581,0.004571804701956087
2582,0.0029408369365077004
2583,0.001992720893426634
2584,0.012174929332132873
2585,0.03290964920556983
2586,0.05338509898744429
2587,0.06299997161786952
2588,0.06095882771362873
2589,0.05587068969471759
2590,0.05640315557480865
2591,0.06273154163180146
2592,0.06717975998644508
2593,0.06280914113554686
2594,0.05075884754095649
2595,0.03885936775416883
2596,0.03336305241851792
2597,0.032750816254326916
2598,0.030128042610461824
2599,0.02142107654672574
2600,0.010322118934056814
2601,0.004404765567852223
2602,0.006444227683863195
2603,0.01048578437296345
2604,0.007492130684723977
2605,-0.004871019976905925
2606,-0.01873995799347831
2607,-0.023286847529306938
2608,-0.015911207589337468
2609,-0.005829921376042622
2610,-0.005625301880663401
2611,-0.018582434913168865
2612,-0.034554626387546486
2613,-0.03914020332482303
2614,-0.02766801418539063
2615,-0.01021548449702889
2616,-0.002312301633309962
2617,-0.010083968223937274
2618,-0.024354275324510476
2619,-0.02966745719043527
2620,-0.019549010820362585
2621,-0.0030500732461196133
2622,0.0039605407893774335
2623,-0.005640859188380131
2624,-0.02299626958617554
2625,-0.03149067570447289
2626,-0.02256274337867604
2627,-0.0038948209582435386
2628,0.007827298465633507
2629,0.002572974029489282
2630,-0.01385565253906625
2631,-0.02558070854204192
2632,-0.02152537768795415
2633,-0.005286418637245896
2634,0.008842060494526485
2635,0.009241624235326663
2636,-0.0031100540874325787
2637,-0.016897719045185867
2638,-0.021653266785050754
2639,-0.0166275637355268
2640,-0.009412012460040503
2641,-0.006956205982604595
2642,-0.008714496435136734
2643,-0.008563142811993999
2644,-0.0026202720903648526
2645,0.005865719386107771
2646,0.009882434023396097
2647,0.006555628565654477
2648,0.0008620228633206843
2649,0.0007423048722128378
2650,0.00839687349842836
2651,0.016992192089789842
2652,0.016821122415782163
2653,0.005196149813796428
2654,-0.009966409873097447
2655,-0.017022719144494932
2656,-0.011598304737124414
2657,-0.0008567247523087456
2658,0.0034671556962372688
2659,-0.0033716447982964433
2660,-0.014417318704967617
2661,-0.01799669098324611
2662,-0.00959659979111072
2663,0.003221389866466735
2664,0.007944276241938813
2665,-0.0006683723015282706
2666,-0.01542723997250035
2667,-0.02385787949431972
2668,-0.02059175300702041
2669,-0.012609364513556664
2670,-0.012013579055965583
2671,-0.02351473291354373
2672,-0.03921780552382472
2673,-0.04610218981291081
2674,-0.038886719269655486
2675,-0.0254692039718446
2676,-0.019390121095213896
2677,-0.02662691397468451
2678,-0.03969230573092283
2679,-0.04483427874150109
2680,-0.03523977420524798
2681,-0.01731010718974985
2682,-0.004031150946891849
2683,-0.002221090893919899
2684,-0.006333436706061681
2685,-0.004775924335677141
2686,0.007811100367757459
2687,0.024706173318704235
2688,0.03351974245728136
2689,0.02841498121959455
2690,0.015949118004061267
2691,0.008791882653033795
2692,0.013651282976570974
2693,0.025363829666225794
2694,0.032768355631639545
2695,0.030156748309852075
2696,0.022669643102492427
2697,0.020342991064638546
2698,0.02712351268175161
2699,0.036295240756950446
2700,0.03720793614796958
2701,0.02657985586852446
2702,0.012737298369040938
2703,0.008038405928195156
2704,0.016637273438579944
2705,0.02974066398704305
2706,0.0334216795526286
2707,0.02172860086602312
2708,0.002428917971628022
2709,-0.010292770189341625
2710,-0.00922559733349627
2711,-0.0006929957255570769
2712,0.002058759370834
2713,-0.007768185017048508
2714,-0.0233640703241385
2715,-0.03036795118739326
2716,-0.02044818465563467
2717,0.0004743550793313979
2718,0.01710680441266467
2719,0.018110906973382003
2720,0.005435918916916867
2721,-0.008698433508112785
2722,-0.013761008113433216
2723,-0.010289551534221134
2724,-0.00821741503848356
2725,-0.016541904109709456
2726,-0.03477355140443123
2727,-0.05426876499641802
2728,-0.06750972572193215
2729,-0.07568592568857342
2730,-0.08702077052382962
2731,-0.10786155215261849
2732,-0.13593562575014742
2733,-0.16295050661597843
2734,-0.18407789546124997
2735,-0.20448951808743146
2736,-0.23557793873371186
2737,-0.28362492583488075
2738,-0.3415158080203967
2739,-0.39169908613652027
2740,-0.4180657529513335
2741,-0.4160549589289072
2742,-0.39235933684957824
2743,-0.3559621788283881
2744,-0.3103324085610375
2745,-0.2541945933028239
2746,-0.18811642190992328
2747,-0.11734100174715811
2748,-0.045681438063564936
2749,0.03336316950179275
2750,0.13643160257900036
2751,0.27690076126469393
2752,0.44867286171308923
2753,0.6237197088995874
2754,0.7691839058174498
2755,0.870699333534192
2756,0.9399598924519165
2757,0.9970713734650845
2758,1.0421211156875665
2759,1.0431665440159277
2760,0.9555684825151537
2761,0.7596509709612174
2762,0.48534854784601444
2763,0.2015372034093536
2764,-0.023011203537941012
2765,-0.1566760554465313
2766,-0.21279161195440083
2767,-0.22690397812590193
2768,-0.22672701117949862
2769,-0.21972889295794742
2770,-0.20308929344820176
2771,-0.17968850128427238
2772,-0.161532746231069
2773,-0.15836173339037282
2774,-0.1658499210377965
2775,-0.16783991037115742
2776,-0.1515449488223118
2777,-0.12052037012753239
2778,-0.09211360317694753
2779,-0.08172556811103922
2780,-0.0892930543369636
2781,-0.10079670061782055
2782,-0.10245430204445788
2783,-0.09315846155197452
2784,-0.08348105370295902
2785,-0.08358346933186347
2786,-0.0930132759113105
2787,-0.10226932776080608
2788,-0.10327295545392032
2789,-0.09707953778106826
2790,-0.09103934472393174
2791,-0.08936983914525168
2792,-0.08800211541798046
2793,-0.07949754245027538
2794,-0.06253572574035196
2795,-0.045191370881734284
2796,-0.037680881009186026
2797,-0.04169217854191444
2798,-0.04765983529987815
2799,-0.04362836628325613
2800,-0.027357828956485
2801,-0.009436848960151744
2802,-0.003701105243741859
2803,-0.013903078033708001
2804,-0.029649844137207445
2805,-0.03583551215048521
2806,-0.026660624237204236
2807,-0.010784293755588413
2808,-0.0027099751066027534
2809,-0.00880305829370348
2810,-0.02140671474910604
2811,-0.026520351941017983
2812,-0.017367547586355433
2813,-0.0007092621690653947
2814,0.00991800805769245
2815,0.007123434392796619
2816,-0.003859511004709533
2817,-0.011061200994183104
2818,-0.007752913671877552
2819,0.0014437735272387147
2820,0.006051896802419283
2821,0.0008752088166258966
2822,-0.00868108326525907
2823,-0.012488211279698376
2824,-0.006695099446060454
2825,0.0015551400700030652
2826,0.000909411422147193
2827,-0.012326520677442426
2828,-0.029137205747346292
2829,-0.03517193968576947
2830,-0.024039999563229678
2831,-0.003920117024805561
2832,0.00909411249706682
2833,0.00498474675590568
2834,-0.011765495788544538
2835,-0.02693784304302354
2836,-0.02973018092115641
2837,-0.021866110269458984
2838,-0.01456658622919323
2839,-0.017115534392634295
2840,-0.02846516685304816
2841,-0.03964301943037524
2842,-0.04368652512751126
2843,-0.04258520688530072
2844,-0.04431824771623113
2845,-0.053563531338322194
2846,-0.06618440036729781
2847,-0.07350976923028442
2848,-0.07197772482693365
2849,-0.06776722289367451
2850,-0.07093654956550303
2851,-0.0845413599896245
2852,-0.09998664396731474
2853,-0.10419018486298072
2854,-0.09228249830640257
2855,-0.07339889143929462
2856,-0.06321369263284507
2857,-0.06966931580393455
2858,-0.0853496682450472
2859,-0.09399899954216967
2860,-0.08528181436230282
2861,-0.06396779518470075
2862,-0.04504887504167429
2863,-0.03971276161625041
2864,-0.04558784215966872
2865,-0.05012173243855915
2866,-0.04307995673596733
2867,-0.02570161052194582
2868,-0.00809821805399591
2869,0.0014679788994136707
2870,0.0040454123841732375
2871,0.006961744061574496
2872,0.014415550160652654
2873,0.022394083192007586
2874,0.0236303519833122
2875,0.01712167999489337
2876,0.011304136372908044
2877,0.01635550750336391
2878,0.03289920865297136
2879,0.0491705974918475
2880,0.05090286879672912
2881,0.03519381039770647
2882,0.014659098128013803
2883,0.006871695920602569
2884,0.01835741484338927
2885,0.038216168919178985
2886,0.04771448212593612
2887,0.0371246526078588
2888,0.014208669629484465
2889,-0.003293824503529176
2890,-0.0037596852132745474
2891,0.008724460024701144
2892,0.01956776429246998
2893,0.017746165627198628
2894,0.005007937700408749
2895,-0.007794964130009362
2896,-0.012317418394126164
2897,-0.01015243256886509
2898,-0.009189660232444987
2899,-0.013742799182654405
2900,-0.01942252795779096
2901,-0.01826688022417567
2902,-0.008517276558943208
2903,0.0017494970972976192
2904,0.001740719604604642
2905,-0.01086583287053498
2906,-0.02615764556012161
2907,-0.03025946756994339
2908,-0.018279294672211018
2909,0.0005639636287701169
2910,0.01099267586459828
2911,0.005566187582958189
2912,-0.0087668942917441
2913,-0.01772476074808104
2914,-0.01349272144080408
2915,-0.001869405867729434
2916,0.0040925276135609
2917,-0.002492782310850157
2918,-0.015273338025335852
2919,-0.02103527385606146
2920,-0.013192206976107422
2921,0.0011640324728680817
2922,0.007906626934240704
2923,-0.00022268175643177113
2924,-0.01632276244190202
2925,-0.026121190194027564
2926,-0.022238621638283808
2927,-0.011623544187120166
2928,-0.008424710879960252
2929,-0.019131785627975337
2930,-0.034899730100302895
2931,-0.039273885655258495
2932,-0.024356056630354055
2933,0.0002912072511744119
2934,0.015173736663706455
2935,0.008282133387892356
2936,-0.01384970906955671
2937,-0.03188705760937518
2938,-0.030897875831499284
2939,-0.013048928308932912
2940,0.00559878403644258
2941,0.010463968669688732
2942,0.0011876953055043062
2943,-0.009764355663453662
2944,-0.01022638214273306
2945,7.571243981930996e-05
2946,0.010337156724957507
2947,0.010138726244730296
2948,-0.00034580383654362484
2949,-0.011298843630843635
2950,-0.013685454909456187
2951,-0.008164192772155434
2952,-0.0035551526326913713
2953,-0.006886324094672708
2954,-0.015608854857078719
2955,-0.020163609170252672
2956,-0.014300170122582286
2957,-0.0024207139098878436
2958,0.003957638162281209
2959,-0.0024758992164967963
2960,-0.01694137241886442
2961,-0.02630553699316241
2962,-0.021265428266922355
2963,-0.005331709577009708
2964,0.008144488212913553
2965,0.008139447509011579
2966,-0.004295608227492341
2967,-0.017825210934463983
2968,-0.02196314929677468
2969,-0.016442223327531192
2970,-0.009932247626828178
2971,-0.01013192965622686
2972,-0.01579055201726738
2973,-0.018824650803907578
2974,-0.013983449361510336
2975,-0.005553052088364046
2976,-0.0036181391977611966
2977,-0.013380267610091482
2978,-0.028644742898575444
2979,-0.03678089650533253
2980,-0.030814875823337223
2981,-0.016634521159639294
2982,-0.007657042443270342
2983,-0.011707806314240482
2984,-0.022932764900378596
2985,-0.02700582850592443
2986,-0.014935010581352874
2987,0.007812830479470028
2988,0.02576067850609019
2989,0.027204572230457087
2990,0.014145843621119644
2991,-0.0008109337416511648
2992,-0.00693361012880706
2993,-0.004669859465891474
2994,-0.0029926625280543235
2995,-0.008305421694618665
2996,-0.016782283245361018
2997,-0.01810818363021406
2998,-0.006625538115212311
2999,0.011810505935793783
3000,0.02459509060138918
3001,0.024168859760812043
3002,0.014998813642766343
3003,0.008694788922204606
3004,0.012188948124856264
3005,0.02090896199485536
3006,0.023816457662789583
3007,0.015190325817174968
3008,0.0012109270509292123
3009,-0.005407884654751369
3010,0.0024544110032840797
3011,0.01935397998922951
3012,0.03223521621925653
3013,0.03232234434723468
3014,0.022351412816738775
3015,0.012490328151056941
3016,0.00961508625808449
3017,0.010912569199842313
3018,0.007948451099289237
3019,-0.0034784858417294265
3020,-0.0181477190649875
3021,-0.026337169174062796
3022,-0.023741783528840682
3023,-0.016001639265699565
3024,-0.012872735789250469
3025,-0.01775252553899765
3026,-0.023356037220517503
3027,-0.018488202841731735
3028,0.000291330903393196
3029,0.023651004618817584
3030,0.036621965324228574
3031,0.03164274876516383
3032,0.015275985766193115
3033,0.002139204006605484
3034,0.001711378732737884
3035,0.010418840108291394
3036,0.01620584260925007
3037,0.010714553556918319
3038,-0.0029736936558934354
3039,-0.014388373900040028
3040,-0.017027857790874592
3041,-0.015338887327416789
3042,-0.0202098186762386
3043,-0.03761844433968181
3044,-0.062154899191157895
3045,-0.0823279995014643
3046,-0.09258992751668405
3047,-0.09995013639649335
3048,-0.11818614153018046
3049,-0.1550177090424001
3050,-0.20476874657629518
3051,-0.2536363815957816
3052,-0.2920272504024621
3053,-0.3213315879097325
3054,-0.34835006400782664
3055,-0.3735801576435197
3056,-0.386373350219119
3057,-0.3732517574631159
3058,-0.33186590937968324
3059,-0.2762580887938043
3060,-0.22674910334797216
3061,-0.1928191374228333
3062,-0.16484499470313846
3063,-0.12260968008638709
3064,-0.052560692760919375
3065,0.04244870618262394
3066,0.14944323693905603
3067,0.2600238755296749
3068,0.3775702568502962
3069,0.5090677219553128
3070,0.6500736101626983
3071,0.779370703809372
3072,0.870845609108011
3073,0.912554397547922
3074,0.9144266532846432
3075,0.8958796775198732
3076,0.8640057701795216
3077,0.8032105986334457
3078,0.687686701511262
3079,0.5071599356695455
3080,0.2834441555859635
3081,0.06270309124328584
3082,-0.11073393356220734
3083,-0.21779436891224813
3084,-0.26788394043041985
3085,-0.28291692449837763
3086,-0.27877018902199635
3087,-0.2598665764439302
3088,-0.22775843696224862
3089,-0.1910819391708114
3090,-0.1647079196944515
3091,-0.1585424687144065
3092,-0.16781836747735315
3093,-0.17557747405420532
3094,-0.166042110518149
3095,-0.13695555507704962
3096,-0.10006761662029312
3097,-0.07022836057079858
3098,-0.05376021307839127
3099,-0.04630981641123991
3100,-0.04046657461172227
3101,-0.03427472836889907
3102,-0.03209754196446815
3103,-0.03799377498892862
3104,-0.049562013116592564
3105,-0.05927568816218531
3106,-0.06202154777230941
3107,-0.06067997495482936
3108,-0.06333331417636127
3109,-0.07435368066702891
3110,-0.08835967712047876
3111,-0.09377816029395628
3112,-0.08339419902424386
3113,-0.06196797130224665
3114,-0.043176796290209214
3115,-0.03808032890428288
3116,-0.04556018960601065
3117,-0.05365788762494224
3118,-0.050639992258658895
3119,-0.03550585024936674
3120,-0.018269460255677807
3121,-0.010134218269318153
3122,-0.013208528504952428
3123,-0.01950160520116455
3124,-0.019627692961505093
3125,-0.012174080292906512
3126,-0.004394833172114327
3127,-0.0039384315773787724
3128,-0.010492587254628179
3129,-0.01618828211930848
3130,-0.014361538533252904
3131,-0.007320505487305978
3132,-0.004488801730143023
3133,-0.012247879830727174
3134,-0.0258691351177772
3135,-0.03251029312570879
3136,-0.02326862359156547
3137,-0.0026667078156130735
3138,0.01427185344898271
3139,0.015270717510100312
3140,0.0019055926279151869
3141,-0.012190397211524956
3142,-0.014355603059300778
3143,-0.004564982437225633
3144,0.005421739888432491
3145,0.004184636107374717
3146,-0.008173200403245416
3147,-0.020658347542638934
3148,-0.022636487087779683
3149,-0.014026024829605716
3150,-0.004372206069791662
3151,-0.0024447841457659867
3152,-0.007581258060859554
3153,-0.01167083836296164
3154,-0.009146113381041761
3155,-0.0038403204450997925
3156,-0.005023327929018158
3157,-0.016680005804025858
3158,-0.03170115425805369
3159,-0.037915923457379236
3160,-0.030494330953070928
3161,-0.01805011273525052
3162,-0.015524962018067415
3163,-0.0301332220177541
3164,-0.05398030166958412
3165,-0.07083869654454297
3166,-0.07087354087496114
3167,-0.05938224746661848
3168,-0.05144841951859744
3169,-0.05795110112042584
3170,-0.07629826687170829
3171,-0.09408534817807043
3172,-0.10116721873311657
3173,-0.09805418649677838
3174,-0.09315832751311093
3175,-0.0929474069458996
3176,-0.09568807381790773
3177,-0.09486315536733425
3178,-0.08780108093932733
3179,-0.07964199009108727
3180,-0.07795330484321653
3181,-0.08353135283930693
3182,-0.08746040090481871
3183,-0.07848073543122049
3184,-0.05409993889452398
3185,-0.024447891202704845
3186,-0.00437909103811315
3187,-0.0006387461204362061
3188,-0.005993372540025572
3189,-0.005960525384043442
3190,0.007983533847310022
3191,0.03088632818621062
3192,0.04925428098755695
3193,0.05353916166580529
3194,0.046427033974518216
3195,0.03948472716672542
3196,0.04183747918927186
3197,0.05181494159600523
3198,0.059193383568918054
3199,0.05530382010949037
3200,0.04098392057253954
3201,0.024965435109233314
3202,0.014886790561447951
3203,0.010129853395163597
3204,0.003363975941825024
3205,-0.011336824933900366
3206,-0.032465787478153776
3207,-0.053342633895492916
3208,-0.07005645027494523
3209,-0.08643616265580324
3210,-0.11037725696702691
3211,-0.1449356178283776
3212,-0.18346517830624864
3213,-0.21447079595231247
3214,-0.23207305300531067
3215,-0.24181853103078949
3216,-0.25550989884479614
3217,-0.2792699600163169
3218,-0.3059294367920412
3219,-0.3191261866540674
3220,-0.3056162605517505
3221,-0.264688947975091
3222,-0.20651557441154206
3223,-0.14172490060743878
3224,-0.07230731842330593
3225,0.00813347169939986
3226,0.1061247559617134
3227,0.220624117113346
3228,0.34286856643209973
3229,0.4628605644445142
3230,0.5756697132036485
3231,0.6822172710728885
3232,0.7854004288823055
3233,0.8861899316542541
3234,0.9822112323289045
3235,1.0669609723151081
3236,1.1273212166613726
3237,1.141458804412285
3238,1.0828522710544912
3239,0.9330410288166496
3240,0.6969244036124957
3241,0.40854647471396577
3242,0.11975716208075401
3243,-0.12306740855048307
3244,-0.29878446007096593
3245,-0.41429262583892534
3246,-0.49028617211334763
3247,-0.542994812673222
3248,-0.5764294313103212
3249,-0.5887132176543478
3250,-0.5832268901219815
3251,-0.5722390334547378
3252,-0.5694239985137308
3253,-0.5791101537269856
3254,-0.5932224833081332
3255,-0.5992008619550179
3256,-0.591588522220458
3257,-0.5767059032849681
3258,-0.5665740947136484
3259,-0.5681434042835006
3260,-0.5775149979007165
3261,-0.583335079864221
3262,-0.5748326290957106
3263,-0.5465829770895344
3264,-0.4967864422673751
3265,-0.4232985458122731
3266,-0.323973382251317
3267,-0.20262118732729142
3268,-0.07446183777619443
3269,0.036635528825945216
3270,0.11007715610907493
3271,0.14133830754037924
3272,0.14464708799385126
3273,0.14201036665456196
3274,0.14667745110635372
3275,0.15451840968900726
3276,0.15047112888154782
3277,0.1242643994456728
3278,0.08152372586291595
3279,0.040584368216875284
3280,0.018206655392848645
3281,0.017183251797300327
3282,0.026577843679517224
3283,0.03332072437309097
3284,0.03359094987828787
3285,0.03353677537816035
3286,0.03997856549281843
3287,0.051620560727774524
3288,0.06014629857756579
3289,0.059756888413017954
3290,0.05447989117701452
3291,0.05465442910510505
3292,0.06549259521531131
3293,0.07966256067596633
3294,0.08263436550610453
3295,0.06669463979640425
3296,0.03995270243479218
3297,0.0205635336795228
3298,0.020623349561628708
3299,0.034820670970438866
3300,0.045029727773885544
3301,0.0369242289788496
3302,0.013024383503505686
3303,-0.010069511158461482
3304,-0.017299214028333683
3305,-0.008480546019736402
3306,0.0030964219999087845
3307,0.004551903685404151
3308,-0.004446636774803738
3309,-0.01307383427978356
3310,-0.011998249826708312
3311,-0.003747577381215159
3312,1.544587061143212e-05
3313,-0.008611094005161671
3314,-0.024224947550576366
3315,-0.03217327008931654
3316,-0.02264178118973808
3317,-0.0008633207187061513
3318,0.016931930042906784
3319,0.018270772782642736
3320,0.0058437596885828
3321,-0.005255626014494497
3322,-0.0016390614109875984
3323,0.016378380370304233
3324,0.03584810180097666
3325,0.04354296530103979
3326,0.037460446490862886
3327,0.02709105210241626
3328,0.023474557905422758
3329,0.02951775408395236
3330,0.0395875819213103
3331,0.04730994693613429
3332,0.05242702856332326
3333,0.05946569813711405
3334,0.07032008991757038
3335,0.079620042079113
3336,0.07885086169717465
3337,0.06566294828542442
3338,0.04862938166847335
3339,0.041536712951295164
3340,0.051616701006206786
3341,0.07266991034911016
3342,0.09000698520492127
3343,0.09311918101335862
3344,0.08456958708648613
3345,0.07702130769943002
3346,0.08138754472991455
3347,0.09721920442054174
3348,0.11395638902045878
3349,0.12117292579456816
3350,0.11767951767002745
3351,0.11112839777848912
3352,0.10943812987860975
3353,0.11317859003774318
3354,0.11642597081558717
3355,0.11452412866882747
3356,0.11006584454816265
3357,0.11045733700060414
3358,0.11944291588164643
3359,0.13160366322031378
3360,0.1361666172927652
3361,0.12701720498662689
3362,0.10914793627416108
3363,0.09481034135579999
3364,0.09259011530038269
3365,0.0996876097269905
3366,0.10477762060737131
3367,0.09869435530764639
3368,0.08273667066488455
3369,0.0668659027983997
3370,0.05993390158606274
3371,0.061603490016629396
3372,0.0635538045438814
3373,0.05821722585996691
3374,0.046066487989851856
3375,0.034393812142046516
3376,0.029360603300627945
3377,0.02978853343922165
3378,0.02903621214221143
3379,0.02272646544201875
3380,0.013942805565322056
3381,0.010131506069189347
3382,0.014667722629780305
3383,0.021905850103006864
3384,0.02137442275983434
3385,0.007570245364853021
3386,-0.014186913350707191
3387,-0.03192294746606613
3388,-0.03756441702350627
3389,-0.03386092522185291
3390,-0.03107864926857247
3391,-0.03684380262496016
3392,-0.04916033075707756
3393,-0.05928140454841478
3394,-0.06110737910242291
3395,-0.05722426122270286
3396,-0.055306583010540304
3397,-0.05879226347039276
3398,-0.062025939079656325
3399,-0.05573011531516365
3400,-0.037789723473643316
3401,-0.018035091305842816
3402,-0.010912204127948185
3403,-0.02201588066456884
3404,-0.04142855893992047
3405,-0.051180981372238636
3406,-0.04081242726617325
3407,-0.01682091127302591
3408,0.0029577116620767238
3409,0.005010528090408524
3410,-0.008563125012173725
3411,-0.023260060714399858
3412,-0.026215586100930353
3413,-0.017454005606317706
3414,-0.008052873549470839
3415,-0.00796276287159833
3416,-0.016033673657178935
3417,-0.02194470904104428
3418,-0.01746437587751709
3419,-0.005224668960036073
3420,0.003920770693823315
3421,0.0020661530495947374
3422,-0.007605696518476615
3423,-0.014081107450031707
3424,-0.009853638917334175
3425,0.0012487096855541735
3426,0.007808712373233067
3427,0.0024459005897057577
3428,-0.01043905229926348
3429,-0.018748982094429552
3430,-0.014639706877164064
3431,-0.0023575403833553774
3432,0.005990316544314699
3433,0.0025880673520467376
3434,-0.008202510101588126
3435,-0.01425106117527694
3436,-0.0080899010577773
3437,0.005060968186202071
3438,0.011887157693466934
3439,0.003914895887334631
3440,-0.013851606993381895
3441,-0.027133255627247093
3442,-0.025444922624910986
3443,-0.011489801627599147
3444,0.001903614946991062
3445,0.003896162823342048
3446,-0.00509168777265777
3447,-0.015444474885530305
3448,-0.018732811098975476
3449,-0.015488141045658311
3450,-0.01286726153423096
3451,-0.01552682903167576
3452,-0.019957418013232815
3453,-0.018521194043365316
3454,-0.008843424794755608
3455,0.0018327029028356616
3456,0.002776846869464151
3457,-0.009158577302736164
3458,-0.024810645580886997
3459,-0.02991315726353281
3460,-0.018085483001855293
3461,0.0026894119275395686
3462,0.016604096284086017
3463,0.0137885919747685
3464,-0.0014098945827512167
3465,-0.015134797041776428
3466,-0.016947018120237363
3467,-0.008687847274555705
3468,-0.0013257793804432602
3469,-0.003559728276787381
3470,-0.013593641819577427
3471,-0.021825384396073226
3472,-0.021144365544519497
3473,-0.014142397478569983
3474,-0.009994548310831474
3475,-0.014404147277295658
3476,-0.02309106488378307
3477,-0.025731454602997986
3478,-0.01661743281183467
3479,-0.0012862330937075922
3480,0.007889170020572843
3481,0.0032353031394921983
3482,-0.01074487973812789
3483,-0.02141548003496578
3484,-0.01984126869512769
3485,-0.009018103658879817
3486,-0.0005894987075523771
3487,-0.003387528166824325
3488,-0.015061831530210557
3489,-0.024850000542576516
3490,-0.024439572667741855
3491,-0.015953704495988173
3492,-0.009209246544762129
3493,-0.011319656967534397
3494,-0.01940053213598733
3495,-0.023841433385143294
3496,-0.018707993014218924
3497,-0.008433286729386898
3498,-0.0036418139526510915
3499,-0.010082781979955976
3500,-0.021947443430287338
3501,-0.02676768683208133
3502,-0.017535203064171594
3503,-0.00018500404849464743
3504,0.01120451946428842
3505,0.00721450822746432
3506,-0.008295189148008617
3507,-0.021975187155348484
3508,-0.023439989032003433
3509,-0.014399136462442615
3510,-0.005961956599357424
3511,-0.007231682259518704
3512,-0.01656578569664214
3513,-0.023817985479654274
3514,-0.020823055087290515
3515,-0.00944344974600735
3516,0.0006149778736971594
3517,0.0015236338303115876
3518,-0.005487944214569478
3519,-0.012540120567278393
3520,-0.014070091017133902
3521,-0.012636117922282595
3522,-0.015364007984984454
3523,-0.024871187953408338
3524,-0.03460454531924789
3525,-0.03423866769356479
3526,-0.020301521223289515
3527,-0.0012416195183925336
3528,0.00891325228605861
3529,0.002938989281413246
3530,-0.012873983206977573
3531,-0.024321424846553405
3532,-0.0220869090762355
3533,-0.00969418909071688
3534,0.0007133686753709925
3535,0.0003187028665405185
3536,-0.008407844882906858
3537,-0.015163378327472419
3538,-0.01270914995318088
3539,-0.004083996160137826
3540,0.0009191356749527187
3541,-0.003914725500921723
3542,-0.014771379441016065
3543,-0.021756825472179216
3544,-0.019051707698965446
3545,-0.010762415516374784
3546,-0.006439066623829705
3547,-0.010894278915872333
3548,-0.018903888555236097
3549,-0.020473982335553687
3550,-0.011506878066112627
3551,0.0010876222826652865
3552,0.005480986433604165
3553,-0.0034080231480574695
3554,-0.01824367210877183
3555,-0.025642382200301315
3556,-0.01883492044992593
3557,-0.00441961855505851
3558,0.0035827960748808746
3559,-0.003045188488023978
3560,-0.018795479597360408
3561,-0.029464040114669368
3562,-0.025416829454424115
3563,-0.01050106839460251
3564,0.001775976458148631
3565,0.0009795217842052438
3566,-0.010821552953996016
3567,-0.021702037551857206
3568,-0.021624301869429863
3569,-0.011715294877511372
3570,-0.0023305233393056835
3571,-0.002352881128474457
3572,-0.010601573743396726
3573,-0.01769736214683316
3574,-0.016034083699693516
3575,-0.007483250742495945
3576,-0.001082222666181985
3577,-0.003374871892713477
3578,-0.011584675004531936
3579,-0.01674114446923483
3580,-0.01343417199142414
3581,-0.005840794202371111
3582,-0.003422534285099999
3583,-0.01050835343246638
3584,-0.02070635587001193
3585,-0.0225301316566068
3586,-0.011114903046275788
3587,0.00584282303677272
3588,0.014534831815945337
3589,0.008118913083226037
3590,-0.006430813237250974
3591,-0.014887885339408545
3592,-0.00974136708243215
3593,0.002110085616520437
3594,0.0058448549028983846
3595,-0.006565018010772656
3596,-0.02770895051866805
3597,-0.04088296665711615
3598,-0.03545411284363597
3599,-0.016803148608978715
3600,-0.001307043008768707
3601,-0.001203348461884976
3602,-0.013829947805661868
3603,-0.025289772268575907
3604,-0.02450833560631747
3605,-0.013769388648992388
3606,-0.005689249571347147
3607,-0.01015488427821943
3608,-0.024479495356718492
3609,-0.03641692309336536
3610,-0.036592459773905066
3611,-0.02757276985624873
3612,-0.020488569124136168
3613,-0.022935659578701056
3614,-0.03076132982442035
3615,-0.032300659143891304
3616,-0.02079565649510256
3617,-0.002187468922315528
3618,0.010007797763538408
3619,0.007907170441805512
3620,-0.0027214890984361443
3621,-0.00797004881045235
3622,0.0003798983663034529
3623,0.01648762493844999
3624,0.026140744071090193
3625,0.021111929097605512
3626,0.007915109898241394
3627,0.0019226593636503713
3628,0.012194581880849032
3629,0.03177198234083645
3630,0.04322386143989917
3631,0.03460164530692093
3632,0.010843893932355901
3633,-0.010119585608695358
3634,-0.012905913046609176
3635,0.002525031982387386
3636,0.02216656569498085
3637,0.031233642780208654
3638,0.02651794817767074
3639,0.016864170888270545
3640,0.012802807219362541
3641,0.016371959133065377
3642,0.020744797188355264
3643,0.018705209654027354
3644,0.010342590666432687
3645,0.0020576333696912443
3646,-0.001312443228500386
3647,-0.0021263258504755833
3648,-0.006848798774050848
3649,-0.01742507674590682
3650,-0.02674424648607497
3651,-0.024077397943692028
3652,-0.006019420372672038
3653,0.01795549981408283
3654,0.031807788603283454
3655,0.026258487077964503
3656,0.007020203996167126
3657,-0.010000654497317294
3658,-0.012539028904453561
3659,-0.00243040918253337
3660,0.006624647346798232
3661,0.0016116154144461905
3662,-0.018604345429392863
3663,-0.04342913530854335
3664,-0.06122645676750685
3665,-0.07013285646923259
3666,-0.07904092558556547
3667,-0.09846055348407388
3668,-0.13046652141303774
3669,-0.167380772328209
3670,-0.20011568253588316
3671,-0.22772131648584712
3672,-0.2585327568850821
3673,-0.3013791434328924
3674,-0.35490458447548656
3675,-0.405134893802115
3676,-0.43406127099533415
3677,-0.4320653583728198
3678,-0.40365411867990875
3679,-0.36214821799511765
3680,-0.31872970136896606
3681,-0.27550073242127765
3682,-0.22732837854117777
3683,-0.16850016868681666
3684,-0.09641451511987617
3685,-0.009240581283749504
3686,0.09766912674633077
3687,0.22970812498629053
3688,0.3849368878659193
3689,0.5481771875920739
3690,0.6960245625562522
3691,0.8116223611545814
3692,0.8965919730205982
3693,0.9669311855838811
3694,1.0330384844084437
3695,1.0801965490224918
3696,1.0689587033961303
3697,0.9597578537124496
3698,0.7447400191929503
3699,0.4615244771825648
3700,0.17679341865498605
3701,-0.04856496394810714
3702,-0.18728697193592575
3703,-0.2488350499596287
3704,-0.2612124000397409
3705,-0.2500108433451532
3706,-0.2300929904291651
3707,-0.20982817533078868
3708,-0.1964927972549152
3709,-0.19446777049480812
3710,-0.19959460769513726
3711,-0.1993692480508324
3712,-0.18247773776329695
3713,-0.1497419937908232
3714,-0.11507722017666433
3715,-0.09418170418134439
3716,-0.09118724228719258
3717,-0.09609633865337672
3718,-0.09535311768563641
3719,-0.08487994692363456
3720,-0.07272174674017753
3721,-0.06930147435919753
3722,-0.07593847316521701
3723,-0.08367791060143623
3724,-0.08334380314828868
3725,-0.07580452874565932
3726,-0.07121715074802733
3727,-0.0777241829145296
3728,-0.09146501392617365
3729,-0.0988356277365508
3730,-0.0894357982202646
3731,-0.06687605251946101
3732,-0.04627883278464332
3733,-0.0404455837224946
3734,-0.04807206980744315
3735,-0.05552718186872771
3736,-0.05038208462872043
3737,-0.03340034972388273
3738,-0.017434918609659164
3739,-0.014693407307358086
3740,-0.0250604570915586
3741,-0.03663381849890875
3742,-0.037309886733852535
3743,-0.025683563753817508
3744,-0.010990950453896035
3745,-0.0032168064841230563
3746,-0.003958450281947303
3747,-0.006884471230081044
3748,-0.006133357631655004
3749,-0.002968462465853349
3750,-0.0035663352509499174
3751,-0.010798561197691634
3752,-0.01947702308725797
3753,-0.020787060794026046
3754,-0.011590512845108581
3755,0.0013395025317821678
3756,0.007187712370905161
3757,0.0016105136639590185
3758,-0.008745750176408409
3759,-0.012649537429118118
3760,-0.005526031529963079
3761,0.005688381395143684
3762,0.009179448780563985
3763,4.880778975043724e-05
3764,-0.014384730878406669
3765,-0.021227547874204437
3766,-0.014346375912734174
3767,-0.0004686168164413445
3768,0.006925130823628219
3769,0.0001225060618355112
3770,-0.0157876454656192
3771,-0.027882226800414613
3772,-0.027383278908551315
3773,-0.017242243370213458
3774,-0.00857014768760514
3775,-0.010003062106518454
3776,-0.02046196609392139
3777,-0.031748760504023484
3778,-0.037456979585286675
3779,-0.03883288321056949
3780,-0.042049667798593565
3781,-0.05053671969094913
3782,-0.060975479012591496
3783,-0.06733254639821185
3784,-0.06842815056394302
3785,-0.07042747367787727
3786,-0.08078390984557107
3787,-0.0994094957710335
3788,-0.11653401081541995
3789,-0.1205747505473562
3790,-0.10914835147192216
3791,-0.09241440463301484
3792,-0.08471217984199944
3793,-0.09174242581665397
3794,-0.10530791168610545
3795,-0.11083833197345519
3796,-0.10082058178591798
3797,-0.08149559255678064
3798,-0.06650185650186397
3799,-0.06360717984859918
3800,-0.06728520746765124
3801,-0.06424482632082576
3802,-0.04653868892063946
3803,-0.019605833785661587
3804,0.00247208258125855
3805,0.009918912766533056
3806,0.006042081647762856
3807,0.0036079230433370196
3808,0.012514315471592936
3809,0.030632213702899626
3810,0.04636489714476063
3811,0.050100954190046475
3812,0.04337811979280659
3813,0.037118274067221735
3814,0.04097171800339691
3815,0.054168277667743125
3816,0.06643283790353738
3817,0.06765120979757246
3818,0.05682851837046767
3819,0.04214553220234915
3820,0.03286595288838287
3821,0.03143811919783385
3822,0.033122024979337666
3823,0.03241318179259099
3824,0.028864108843580955
3825,0.026251038697997338
3826,0.02661313779633452
3827,0.026361713429817045
3828,0.01940362987566515
3829,0.004405478520972844
3830,-0.011748928647084027
3831,-0.018935629946566966
3832,-0.01316012569079866
3833,-0.0011267507060930856
3834,0.00514158676999492
3835,-0.0008880166332526607
3836,-0.014271215157458581
3837,-0.023422485450476455
3838,-0.021352928160898024
3839,-0.012460833750281404
3840,-0.00813178962772357
3841,-0.015279726737113076
3842,-0.029019734878990268
3843,-0.03685945312759739
3844,-0.030655092921502335
3845,-0.014890592109234435
3846,-0.0031438529626870806
3847,-0.005808117459730384
3848,-0.020489993940791866
3849,-0.0340288309715269
3850,-0.03421637708161836
3851,-0.02041479747227752
3852,-0.003617029640033294
3853,0.003556257587426911
3854,-0.0025297686349153234
3855,-0.014554277141415665
3856,-0.021654311308282093
3857,-0.01862416969963058
3858,-0.008762539327225725
3859,0.0008691005532022295
3860,0.005982117306242525
3861,0.007087695381400297
3862,0.00635076195774394
3863,0.003998318969626919
3864,-0.0013451802609765163
3865,-0.009197312928724659
3866,-0.015423951757959799
3867,-0.015195383571684293
3868,-0.00818120382811513
3869,-0.0002053405762819224
3870,0.0013949514776316159
3871,-0.005131324429122482
3872,-0.013518724057671693
3873,-0.014909906396796672
3874,-0.0065513358672206895
3875,0.004682966470930231
3876,0.007995618508343034
3877,-0.0012168964678060917
3878,-0.016412526999869725
3879,-0.025314860765114612
3880,-0.0211255722748902
3881,-0.009126375072225261
3882,-0.00219878929492591
3883,-0.00908921661062263
3884,-0.02619614478740814
3885,-0.04053970542613637
3886,-0.041215350711876195
3887,-0.028803383082237177
3888,-0.0142741203405259
3889,-0.008815969672558184
3890,-0.014262150825320279
3891,-0.022706272710355968
3892,-0.024864827368526406
3893,-0.018662237593236035
3894,-0.010011348725155016
3895,-0.00588771365538856
3896,-0.007253972025346341
3897,-0.008921395706473899
3898,-0.005920375562645148
3899,0.0007329511251091135
3900,0.005067512920380685
3901,0.0028109251137916572
3902,-0.0035493161949108846
3903,-0.006877104487392588
3904,-0.0026146147733369833
3905,0.006543914632548409
3906,0.013703983475150509
3907,0.015477205970286952
3908,0.01591781726617654
3909,0.02182800995516678
3910,0.033863688473323834
3911,0.043246022332844455
3912,0.03904116918371764
3913,0.019985515947636517
3914,-0.0012047119421786847
3915,-0.007124559025643148
3916,0.008555623190773177
3917,0.033610036279460194
3918,0.04644310924995057
3919,0.0349202275039019
3920,0.007875588627627328
3921,-0.01195987491662764
3922,-0.008001093923546877
3923,0.015166239891288777
3924,0.03563351923635264
3925,0.033538426445813334
3926,0.008360147161728032
3927,-0.02131859603930066
3928,-0.034639979598945214
3929,-0.025918873393931497
3930,-0.0071343633509036095
3931,0.0052747301230873815
3932,0.005490109537182864
3933,0.0009986211151236987
3934,0.001850898217896492
3935,0.008697158939958913
3936,0.012034448730612555
3937,0.002841341345386816
3938,-0.01702264113588034
3939,-0.035691108367707065
3940,-0.042577055640772674
3941,-0.038520244453110614
3942,-0.03465158144977361
3943,-0.041530017820479534
3944,-0.05981948436841273
3945,-0.0816194964833915
3946,-0.10016713946900405
3947,-0.11710358366965334
3948,-0.1396651426748734
3949,-0.1714002503907069
3950,-0.20719455966738098
3951,-0.23869914632059352
3952,-0.26452573173349886
3953,-0.2933659386700931
3954,-0.33469191561747086
3955,-0.38490133133370985
3956,-0.423199966833502
3957,-0.423811873094459
3958,-0.3758308915329576
3959,-0.29367983089463245
3960,-0.20816047856565278
3961,-0.14453135209727178
3962,-0.10510754985853149
3963,-0.06969659793275829
3964,-0.011891963678633622
3965,0.08326623528756447
3966,0.21383097722268807
3967,0.36887402280704684
3968,0.5391401645008018
3969,0.7189969625679071
3970,0.8982561101838904
3971,1.0532281129410554
3972,1.1479410119279079
3973,1.1477845806126359
3974,1.0371023058080335
3975,0.8288321283123545
3976,0.5604585112688925
3977,0.28018377603553357
3978,0.032183069790036926
3979,-0.1527539338495115
3980,-0.26078044857627103
3981,-0.29537183735725925
3982,-0.2754739438060325
3983,-0.22972491333082695
3984,-0.1860649321871997
3985,-0.16065111497139734
3986,-0.15308612184707945
3987,-0.1518840214575347
3988,-0.14625532035989836
3989,-0.13474839612033768
3990,-0.12393253779617502
3991,-0.11943486779668036
3992,-0.11878269840000201
3993,-0.11350310820148823
3994,-0.09840915297580144
3995,-0.07833607457473418
3996,-0.06475792423201218
3997,-0.06496176397657241
3998,-0.0745356260731559
3999,-0.08125223773226176
4000,-0.07712470850582537
4001,-0.06671600466643002
4002,-0.06289085713387604
4003,-0.07359128332782136
4004,-0.0926443813990448
4005,-0.10424635168473963
4006,-0.09742080382381048
4007,-0.07654930981727082
4008,-0.05745842453055368
4009,-0.05256314043501357
4010,-0.05943822632063367
4011,-0.06397315728852682
4012,-0.05493737880044857
4013,-0.035492389266949656
4014,-0.02020845579914477
4015,-0.020546621496696522
4016,-0.03325103713062351
4017,-0.0432304812778324
4018,-0.038142306177859915
4019,-0.020311272548169303
4020,-0.004284879678272511
4021,-0.0025200340662467364
4022,-0.013308648973166689
4023,-0.02268064447410109
4024,-0.018199491289862466
4025,-0.0010396620963596895
4026,0.015274691802241067
4027,0.017866427545816264
4028,0.006385595749084453
4029,-0.0074741001185725554
4030,-0.011661670391425967
4031,-0.004808084701334406
4032,0.0038712015648219586
4033,0.004813229809260709
4034,-0.0023435700887088663
4035,-0.009299774952141807
4036,-0.008443419551796765
4037,-0.0009154984346802381
4038,0.004862480202041537
4039,0.002275371788570848
4040,-0.006546133086932893
4041,-0.01321263267740731
4042,-0.012247944666946193
4043,-0.007145175159500748
4044,-0.006750855058305819
4045,-0.015612385696701678
4046,-0.028475408702513284
4047,-0.035096613397733484
4048,-0.030870859975632367
4049,-0.02237319934305203
4050,-0.02159781393123642
4051,-0.03404834715233337
4052,-0.05249120191467472
4053,-0.06312202757152452
4054,-0.058747242275508094
4055,-0.04628286128433995
4056,-0.04089496249585635
4057,-0.05188753886110773
4058,-0.07363334430632382
4059,-0.09033526952382702
4060,-0.09035690839319518
4061,-0.07676376207301042
4062,-0.06430409587020385
4063,-0.06585214460125638
4064,-0.08106200814078858
4065,-0.09748760911488627
4066,-0.10241685694552154
4067,-0.0938561788179794
4068,-0.08069211485976295
4069,-0.07298031561196108
4070,-0.07259423644261043
4071,-0.07321351186873393
4072,-0.0686377964181066
4073,-0.060020887863038885
4074,-0.05421196851799687
4075,-0.05506087424066042
4076,-0.05722011973275151
4077,-0.04969935544689606
4078,-0.026417747671476345
4079,0.006568812979154495
4080,0.03477103741810829
4081,0.04696988254918111
4082,0.044067588313401365
4083,0.03689366671743298
4084,0.03547877528651708
4085,0.04043998530488924
4086,0.04459341397017651
4087,0.04233440960486437
4088,0.03646259481028473
4089,0.035029580752913146
4090,0.04152492183758576
4091,0.04919152373392756
4092,0.04646201385982044
4093,0.028921793200966203
4094,0.005648113367111445
4095,-0.007520472040763013
4096,-0.0023331673996989668
4097,0.01364209550350282
4098,0.023506146767175797
4099,0.016690921583313475
4100,-0.0010977757018914556
4101,-0.013495855625001133
4102,-0.009498443400543226
4103,0.005621488976258091
4104,0.015266293697434048
4105,0.00763849545655408
4106,-0.012737413309767954
4107,-0.029469019834198404
4108,-0.030360314117812336
4109,-0.01916492050524094
4110,-0.011311749998206715
4111,-0.017849585227412958
4112,-0.03375631215545466
4113,-0.04260656350111718
4114,-0.03329235583423372
4115,-0.01217151452011798
4116,0.0019003178990243989
4117,-0.004549857312240176
4118,-0.026033810378793446
4119,-0.04234735831958088
4120,-0.03710755465072489
4121,-0.013139067920948036
4122,0.009933922686462735
4123,0.013659894058556256
4124,-0.0026313900153066374
4125,-0.021983614036787245
4126,-0.026069745636070743
4127,-0.011858231701503862
4128,0.0067701108828695546
4129,0.013129982479340798
4130,0.003442658441817349
4131,-0.010743490461705583
4132,-0.014925524137818377
4133,-0.006128070003924856
4134,0.004600603928664885
4135,0.0036244996278124502
4136,-0.011471786776316098
4137,-0.02914684025924077
4138,-0.0346328296680706
4139,-0.023623585998666118
4140,-0.005993561377653462
4141,0.0035062132297135782
4142,-0.0016121016907762785
4143,-0.01477723227777834
4144,-0.02359124154010942
4145,-0.021485547719608873
4146,-0.012828767525684827
4147,-0.007567546506719401
4148,-0.011481766683824637
4149,-0.021478105437315296
4150,-0.029568166326669726
4151,-0.03067606008895963
4152,-0.026534849927140787
4153,-0.02274181271236089
4154,-0.02296055699291042
4155,-0.02627284267549543
4156,-0.029458554860028557
4157,-0.03064796113843321
4158,-0.030065910656832076
4159,-0.027730541656035227
4160,-0.02186601340279427
4161,-0.01084700348803122
4162,0.0032071451130064373
4163,0.01395004151175458
4164,0.01545580940118797
4165,0.008153920708621159
4166,-0.00029856308410988134
4167,-0.0012540954363208668
4168,0.006859747266658555
4169,0.01666245963322388
4170,0.018744696023478807
4171,0.011238606447484967
4172,0.0025551842726728026
4173,0.003889281672726808
4174,0.018161066680880036
4175,0.03618883744136081
4176,0.04447035739672105
4177,0.037727444153937154
4178,0.024238907666592494
4179,0.018375113951107958
4180,0.026933318840368148
4181,0.04217713083150249
4182,0.04853365501181325
4183,0.0370424175215571
4184,0.014079749548607273
4185,-0.004008811352725178
4186,-0.005581862326241024
4187,0.005906485069799355
4188,0.015453084716733685
4189,0.010634955593300634
4190,-0.006871514925323064
4191,-0.023006643406534542
4192,-0.024449087638268502
4193,-0.010773890116493488
4194,0.0055042232032469825
4195,0.010569853275610323
4196,0.0013816907028160834
4197,-0.012954409208881964
4198,-0.0210753721454845
4199,-0.02044103775759237
4200,-0.01900299987131329
4201,-0.026564287356290045
4202,-0.04504797174280685
4203,-0.0674638425292668
4204,-0.08611590498874236
4205,-0.10108116397383966
4206,-0.11990833899084659
4207,-0.14885697860224825
4208,-0.1851172887610936
4209,-0.218752398154989
4210,-0.24302888585766033
4211,-0.2625707491697725
4212,-0.2900911008527337
4213,-0.3335004242210795
4214,-0.38515131561599103
4215,-0.4238226647717941
4216,-0.4286259481040652
4217,-0.3932792723359237
4218,-0.32925028132868644
4219,-0.25649107907740276
4220,-0.19062453071041802
4221,-0.13626543671427022
4222,-0.08846029777662348
4223,-0.03700728064210049
4224,0.031225940817010585
4225,0.13102615154784397
4226,0.2744000804730826
4227,0.4625183741314339
4228,0.6797994362059336
4229,0.8964909267764798
4230,1.0790834973292618
4231,1.2003969844229072
4232,1.2419120639354984
4233,1.189983642139428
4234,1.0353123612863873
4235,0.7820232267287652
4236,0.4605474795201587
4237,0.12963067924610877
4238,-0.14188861290748733
4239,-0.30598171455332746
4240,-0.35809321735486577
4241,-0.3343264359506842
4242,-0.28499160366050846
4243,-0.24458810248534624
4244,-0.2196512016127501
4245,-0.19952688658582868
4246,-0.1760917953687734
4247,-0.15350014413151
4248,-0.14132065943075034
4249,-0.14118463207981363
4250,-0.14236472891173763
4251,-0.13144122090220595
4252,-0.10629333861061986
4253,-0.07990180711511471
4254,-0.06930719242682896
4255,-0.0797164099278348
4256,-0.09888681209553196
4257,-0.10752255137311714
4258,-0.09639586182252236
4259,-0.07447963157688554
4260,-0.06061026380691857
4261,-0.0663701580467986
4262,-0.08583908267995799
4263,-0.10131396516438379
4264,-0.0993144805112491
4265,-0.08199638143624538
4266,-0.06385821614778513
4267,-0.0575558039589312
4268,-0.06250566469871083
4269,-0.06669195026185712
4270,-0.05921402487576967
4271,-0.04111076069813366
4272,-0.024232392204353005
4273,-0.019794026231598472
4274,-0.0280008758114511
4275,-0.03850870534127192
4276,-0.0405584494088099
4277,-0.03244358389479771
4278,-0.021401071946485294
4279,-0.015085540525838891
4280,-0.01401685193914636
4281,-0.012599081521256031
4282,-0.006806316689580047
4283,0.0004221023974083387
4284,0.002275900024497921
4285,-0.0036525904898108796
4286,-0.011260266525554261
4287,-0.011258513154076676
4288,-0.001051550281309314
4289,0.011237755248138765
4290,0.013682820748042043
4291,0.002321491177622599
4292,-0.013930468040723204
4293,-0.02079654313219212
4294,-0.011935571520174035
4295,0.004790280143123609
4296,0.01447716295714567
4297,0.00916259417650195
4298,-0.004829623157289166
4299,-0.013389114703873828
4300,-0.008724695046010355
4301,0.002677109591274403
4302,0.0061304852632908385
4303,-0.00687682523750401
4304,-0.029903625122471314
4305,-0.04696585486805585
4306,-0.047115563376445256
4307,-0.03438679996394183
4308,-0.02379227081885573
4309,-0.02737444756440268
4310,-0.04360508163088313
4311,-0.05989347777126816
4312,-0.06526473749648133
4313,-0.0607524714960018
4314,-0.057707707578025264
4315,-0.06614344567173183
4316,-0.08469982228954182
4317,-0.10183118208691597
4318,-0.10668533951126563
4319,-0.0989148434583294
4320,-0.08816835062545007
4321,-0.08437757139184028
4322,-0.08874625506412923
4323,-0.09404388076698804
4324,-0.0931145486993205
4325,-0.08639117653269651
4326,-0.08073111386656295
4327,-0.08121092605536068
4328,-0.08489706451123212
4329,-0.08343711123036279
4330,-0.07188905967379122
4331,-0.054385201561359314
4332,-0.04027660666090507
4333,-0.03437957886103484
4334,-0.031519974577603624
4335,-0.02160730133775647
4336,-0.0006154235542054978
4337,0.023825077391253197
4338,0.03872029936186903
4339,0.03840682945498493
4340,0.031000028491055348
4341,0.03134655632823492
4342,0.04646705393930509
4343,0.06755550746547825
4344,0.07704767649697339
4345,0.06488567513982768
4346,0.038744295629594055
4347,0.018094008048417154
4348,0.01709658947978368
4349,0.03208248521020984
4350,0.04529200608496854
4351,0.04137290005439419
4352,0.021230475982022642
4353,0.0005079727882174754
4354,-0.005437837545755434
4355,0.004334157194582935
4356,0.016222231015370986
4357,0.015522713668179007
4358,0.00033731060702461087
4359,-0.017060130560944436
4360,-0.022126515895160216
4361,-0.011542185582300742
4362,0.004264618015872285
4363,0.01121870864378191
4364,0.004183247016582883
4365,-0.009670970701921033
4366,-0.01891782131675365
4367,-0.01872738779598892
4368,-0.014096108212232814
4369,-0.013307500773158528
4370,-0.019087553864731426
4371,-0.02643238886067796
4372,-0.028615298451416766
4373,-0.024481805138178436
4374,-0.019324918403489735
4375,-0.018800048310316765
4376,-0.02271594290704993
4377,-0.025424925742007262
4378,-0.022253799559695288
4379,-0.014832973504975465
4380,-0.00936829546803553
4381,-0.009644400880137537
4382,-0.01254393295764724
4383,-0.011454838415127594
4384,-0.004344074121501186
4385,0.0024053854116069754
4386,-0.00044760675751365567
4387,-0.014795735214300847
4388,-0.03092749576073063
4389,-0.034880235866306536
4390,-0.021483183656348256
4391,-0.0004965572468508908
4392,0.011114051248161613
4393,0.004485688240158891
4394,-0.012560152007281156
4395,-0.02236206386553439
4396,-0.013890780762916406
4397,0.006507347812993389
4398,0.02050434931453919
4399,0.014594973696080432
4400,-0.0073564461281037385
4401,-0.02762410711806506
4402,-0.03085133096066834
4403,-0.01771976039934798
4404,-0.003402654857590045
4405,-0.0027238607798794508
4406,-0.01639966870429172
4407,-0.031245601789901285
4408,-0.03354282939819744
4409,-0.022287753984889275
4410,-0.009691681614964313
4411,-0.00900949484722744
4412,-0.021918487120965266
4413,-0.03756239089029398
4414,-0.04358165268732882
4415,-0.037851885650535
4416,-0.029518192986064
4417,-0.02892356906043621
4418,-0.03695467078910728
4419,-0.04441352843084189
4420,-0.041582281705248025
4421,-0.027939221389136508
4422,-0.012221363970337951
4423,-0.003178894320420963
4424,-0.0008964712107392546
4425,0.002263795180235931
4426,0.01226650775441541
4427,0.02573593661689296
4428,0.0325788178126665
4429,0.026685607575993437
4430,0.013617582813426152
4431,0.0066166447886402795
4432,0.014016011195375575
4433,0.030420232901184147
4434,0.041066572712515195
4435,0.03591580261260961
4436,0.01988092097971488
4437,0.008686768136098937
4438,0.013740551808738748
4439,0.030586366871692902
4440,0.04261033487863409
4441,0.03694258030246452
4442,0.01723321190431632
4443,0.0005360595675192423
4444,0.0009004019420167041
4445,0.015535080261300833
4446,0.0272757323271468
4447,0.02125328303848921
4448,-0.00043282261086611916
4449,-0.02051361602858104
4450,-0.02318331149230672
4451,-0.009250998391829045
4452,0.0050998264173701575
4453,0.004623930408358934
4454,-0.00987638907476616
4455,-0.022664717246571427
4456,-0.0192013055470402
4457,-0.0011359538224836319
4458,0.014742547613799305
4459,0.012449502669928947
4460,-0.008177294027693287
4461,-0.031916217196100154
4462,-0.043037037683204236
4463,-0.03965177553992488
4464,-0.03398813199751237
4465,-0.03962622831615141
4466,-0.05925663084290403
4467,-0.0846138230038985
4468,-0.1068896580334778
4469,-0.12559040478289524
4470,-0.14688714838505837
4471,-0.1747751955520116
4472,-0.2060700790630431
4473,-0.2352088999183366
4474,-0.26294448867938824
4475,-0.29771917875916093
4476,-0.3460143025303406
4477,-0.40055317488299486
4478,-0.4393322206195126
4479,-0.4390487158087737
4480,-0.3925243185106528
4481,-0.3150342445043737
4482,-0.23380136022111792
4483,-0.16939529197030312
4484,-0.1239056980410213
4485,-0.08360046906553029
4486,-0.030994512719769468
4487,0.045168630977959146
4488,0.1488368383583032
4489,0.28148795895573675
4490,0.4447667172301481
4491,0.6363585228620136
4492,0.8422782659913752
4493,1.0330653352931363
4494,1.1688754434265622
4495,1.2121097148588171
4496,1.1414655212407285
4497,0.9609957340546269
4498,0.7007637166104661
4499,0.40918470250309696
4500,0.13957150491532744
4501,-0.06510537769812119
4502,-0.1843087844214303
4503,-0.22418794417826343
4504,-0.211726642816067
4505,-0.18095744375298783
4506,-0.15775242097384334
4507,-0.150940347178405
4508,-0.15404739382091995
4509,-0.15539280313577364
4510,-0.14889907106104122
4511,-0.13794522785063282
4512,-0.13037828684393982
4513,-0.13009211326843534
4514,-0.13326292664180744
4515,-0.13275835912955894
4516,-0.12623442082800757
4517,-0.11947780251804563
4518,-0.12088542592559796
4519,-0.13196124280040983
4520,-0.1435772954699402
4521,-0.1429748212049273
4522,-0.1259068522376559
4523,-0.10223126593485049
4524,-0.08844302639430153
4525,-0.09299814321447919
4526,-0.10799192309247374
4527,-0.1156491618584802
4528,-0.10428000517004743
4529,-0.07896993709202345
4530,-0.056784439378347526
4531,-0.05084316127805241
4532,-0.05833310918435787
4533,-0.06384813403216597
4534,-0.054719339438766224
4535,-0.03345768310783717
4536,-0.01530664269190944
4537,-0.013396831788358047
4538,-0.025971832422421473
4539,-0.03799815179110208
4540,-0.03542638325864484
4541,-0.01822215952577316
4542,0.0002242671385550895
4543,0.0062865857738018584
4544,-0.0012043371797310848
4545,-0.010906058679497975
4546,-0.010986726867648438
4547,-0.0009041512541317694
4548,0.008700191467829419
4549,0.007480866249858848
4550,-0.003649314755448994
4551,-0.013281806290149316
4552,-0.011260886536209509
4553,0.0005187158265127965
4554,0.009409966125009333
4555,0.004478771774107278
4556,-0.012145905049117871
4557,-0.02654519438420941
4558,-0.026076800193165883
4559,-0.011621946385846411
4560,0.0030738900130211477
4561,0.0045314649453031645
4562,-0.007580377281823133
4563,-0.02041665584799314
4564,-0.02085336689647302
4565,-0.008689288300686658
4566,0.0028126814365022684
4567,-0.0003741091076464517
4568,-0.019465174366936514
4569,-0.04159345671169805
4570,-0.05197421811395705
4571,-0.047638225991026885
4572,-0.03959330785747265
4573,-0.041728808280351075
4574,-0.0575126351844473
4575,-0.07717077840018755
4576,-0.08742725406255987
4577,-0.08383063177256422
4578,-0.07392197521732245
4579,-0.06911291666496878
4580,-0.07406790948723083
4581,-0.08389200081595222
4582,-0.09076161193763946
4583,-0.09217906047137589
4584,-0.09228965966352859
4585,-0.09573970431239048
4586,-0.1014837727321333
4587,-0.10351903779596155
4588,-0.0976109045517609
4589,-0.0863963870282068
4590,-0.07698259574421812
4591,-0.07338625119680645
4592,-0.07201829357790462
4593,-0.06549159830644452
4594,-0.051185763169586326
4595,-0.03550412790482074
4596,-0.02865170953068815
4597,-0.03443533780700227
4598,-0.045224578736862225
4599,-0.04774143895878201
4600,-0.03481194577597666
4601,-0.011998855223392644
4602,0.007437805785905532
4603,0.014658872334836601
4604,0.012921983882733766
4605,0.01350854412477489
4606,0.02400705426381082
4607,0.04053816710508086
4608,0.051622404765249555
4609,0.0498347433617204
4610,0.03952184792613578
4611,0.03259505073691334
4612,0.03628969958136307
4613,0.045121042718386115
4614,0.04558327079909547
4615,0.029673576142214674
4616,0.0041879960061055755
4617,-0.013833596180294406
4618,-0.012016659849197675
4619,0.0058508402750135765
4620,0.022777632875762597
4621,0.023581539602093915
4622,0.008135455160240102
4623,-0.009353511845838307
4624,-0.014044124910233506
4625,-0.004028572752373645
4626,0.00882760101099344
4627,0.010909914464763915
4628,-0.00030293552909870696
4629,-0.014813923146966241
4630,-0.02072657363277316
4631,-0.01583431328012564
4632,-0.00877403484068169
4633,-0.009275030187963261
