,0
0,-0.03384802020294852
1,-0.03242252692352586
2,-0.03064985746840971
3,-0.028371736274431254
4,-0.02596396134548721
5,-0.024573433271357893
6,-0.025739077986976805
7,-0.030300484673812127
8,-0.03729692333561413
9,-0.04391106184112041
10,-0.046875730375393956
11,-0.0445445434494512
12,-0.038101619868327025
13,-0.030902411436813274
14,-0.026362128162273034
15,-0.02595906462420308
16,-0.028797232769546956
17,-0.032863521991063724
18,-0.036738534251075844
19,-0.04025530690744669
20,-0.043664561816779024
21,-0.04631029917353363
22,-0.04633959589129454
23,-0.042044906175542976
24,-0.033830465040847676
25,-0.024960025290896817
26,-0.020050856738449314
27,-0.02216838422687347
28,-0.030721755206932197
29,-0.04187847876325837
30,-0.05119150335082916
31,-0.05630373663006154
32,-0.05762685250523249
33,-0.05678257256633221
34,-0.05459305542234109
35,-0.05062740665606587
36,-0.04457839725659152
37,-0.037813121428837006
38,-0.033258927853916945
39,-0.03351521400863425
40,-0.03892393750766031
41,-0.04738662195606134
42,-0.05597037016614072
43,-0.06266823057347964
44,-0.06679832288944541
45,-0.06817839806112919
46,-0.06647884059840953
47,-0.06164247618089101
48,-0.05467656273722313
49,-0.04745221786717771
50,-0.04130472276238908
51,-0.035897356112226955
52,-0.02988079522275893
53,-0.02296950083615228
54,-0.017189714884167602
55,-0.015520083956778962
56,-0.01881309867051844
57,-0.024032997305610877
58,-0.02597256680126719
59,-0.02128336825740984
60,-0.011181533236947636
61,-0.0002503481835010758
62,0.00753199232807426
63,0.011747307372248324
64,0.01478908498857865
65,0.018478140149627228
66,0.02167023227099705
67,0.02127479079779116
68,0.015479463267612428
69,0.005752766377776758
70,-0.0043773712092664355
71,-0.012328161367920754
72,-0.018045203293602236
73,-0.022686166776893592
74,-0.026191373833277243
75,-0.02676460845855253
76,-0.0231425851491081
77,-0.017292471977348442
78,-0.014334336778187637
79,-0.019058498095993574
80,-0.03186494235145851
81,-0.047815837171684986
82,-0.05985598586177642
83,-0.06362782864645791
84,-0.06005384560042723
85,-0.0539552529727371
86,-0.05028424142450631
87,-0.05109941893857751
88,-0.05520392728832758
89,-0.05994226376274686
90,-0.06326257892917173
91,-0.06461147195579495
92,-0.0645676583678243
93,-0.06396741392532905
94,-0.06322323836600036
95,-0.062129511453063176
96,-0.06019848962048767
97,-0.05739909429012938
98,-0.054839347459431684
99,-0.05468988480832118
100,-0.05903039637780669
101,-0.06829560823870418
102,-0.08067621384319298
103,-0.09324723017777473
104,-0.10402021922869846
105,-0.11307150980381458
106,-0.121652849976086
107,-0.13020960931088882
108,-0.13747165684354312
109,-0.14177035954117218
110,-0.14331700559500665
111,-0.14486491266696255
112,-0.14953674877918458
113,-0.15742847372196236
114,-0.16399834389447857
115,-0.16165898802289658
116,-0.14298976702951133
117,-0.1027382520050838
118,-0.03762672459755273
119,0.054135101663952245
120,0.1711558106959508
121,0.3051839015525233
122,0.43883168846772697
123,0.5481468638770903
124,0.6098252150172897
125,0.608874561455012
126,0.542201397525486
127,0.4172701644777422
128,0.2489284445099908
129,0.05769023047435361
130,-0.13076751777987017
131,-0.28829151348792015
132,-0.3913851499893931
133,-0.4302472056875952
134,-0.4134956993256519
135,-0.36400587507450927
136,-0.30749176632483466
137,-0.2609426014122914
138,-0.22796879491153949
139,-0.2026572102052715
140,-0.17748498563641704
141,-0.14908522617733266
142,-0.11887505858475927
143,-0.09017897544710524
144,-0.06546711706881364
145,-0.045768419317908836
146,-0.03157794632852433
147,-0.023444740135034267
148,-0.021463446703207233
149,-0.024453320865159292
150,-0.02995512724907652
151,-0.035211116186181446
152,-0.03828387806113381
153,-0.038465442352251404
154,-0.03593482046295815
155,-0.031265056866300524
156,-0.025267222703074955
157,-0.01909535446402179
158,-0.014213721824165143
159,-0.01202036697758168
160,-0.013309140381017805
161,-0.017904550807426627
162,-0.024651825749610057
163,-0.03173923762054244
164,-0.037253994034685683
165,-0.039854494634668385
166,-0.039342277885098906
167,-0.036801055082377326
168,-0.0340710571101981
169,-0.03272953462039788
170,-0.0331915984831339
171,-0.03460393544971199
172,-0.03570004369537469
173,-0.03603247098042131
174,-0.03659244382035165
175,-0.03917485564049121
176,-0.044784166035690694
177,-0.05223498397111725
178,-0.058172137597840276
179,-0.0588312942804112
180,-0.052549383320789
181,-0.04129388837392155
182,-0.02997893971437715
183,-0.023829389479756193
184,-0.02547124364692057
185,-0.0336599654635832
186,-0.04438136705544448
187,-0.053375126714173826
188,-0.05825324890439065
189,-0.058948089272783874
190,-0.05665749728548937
191,-0.05252183923625095
192,-0.04715681506216578
193,-0.04115075821613238
194,-0.035718258876315315
195,-0.03266225571744401
196,-0.03353563104637821
197,-0.038651230283138285
198,-0.04671286433688694
199,-0.05532700722603568
200,-0.062030027248754886
201,-0.0652192321961523
202,-0.06457934615684252
203,-0.06096868239074038
204,-0.05597659677258699
205,-0.05139946375124501
206,-0.04878823554760353
207,-0.0491117722040313
208,-0.05252825824308209
209,-0.05829184890719006
210,-0.06490442141410221
211,-0.0706255228296348
212,-0.07425559039562779
213,-0.07578256833741603
214,-0.07635055133394023
215,-0.07736931062365052
216,-0.0793096002299039
217,-0.08120194148292459
218,-0.0814755660265167
219,-0.07964281793982403
220,-0.07737898142137206
221,-0.07777250958668583
222,-0.08297278436117687
223,-0.09198754888283786
224,-0.10055396432340992
225,-0.10348510077284438
226,-0.09788123518733163
227,-0.08483388238637442
228,-0.068439876024391
229,-0.05305885462058227
230,-0.04097535741483796
231,-0.032006413818483764
232,-0.02484143356458617
233,-0.018623977590677722
234,-0.013467640974691835
235,-0.009803896515055834
236,-0.007450728514252585
237,-0.00529127673369679
238,-0.0017470892820987199
239,0.004366888626980181
240,0.013090862690552211
241,0.02295745916887323
242,0.03120948368115021
243,0.034752096906735905
244,0.03167035331899028
245,0.02254560540791028
246,0.010530685815998538
247,-0.00022479714350109262
248,-0.006929020442409076
249,-0.00959090497217122
250,-0.01042430651730488
251,-0.011731390501632605
252,-0.014081198741294423
253,-0.016308575390295815
254,-0.017187181825039796
255,-0.017109954336378325
256,-0.018152489791266352
257,-0.02242890253379464
258,-0.03021010443480495
259,-0.03943382162880851
260,-0.046949498234202865
261,-0.05039094849384528
262,-0.049252126037520674
263,-0.044660119416928025
264,-0.038459229387942044
265,-0.03250115111704689
266,-0.028426251239707295
267,-0.02754652468796526
268,-0.03043937346682219
269,-0.03643801010996814
270,-0.04361990531658556
271,-0.04961311333077381
272,-0.05279977304588039
273,-0.05304318398824846
274,-0.051388421058299424
275,-0.04902663398883111
276,-0.04641939224928815
277,-0.043304913640290946
278,-0.039504492124831134
279,-0.0357153138242316
280,-0.03345594968171761
281,-0.03406062040782802
282,-0.037493716057220884
283,-0.042019781828282296
284,-0.045138011431855626
285,-0.045148820841137874
286,-0.0421429686073573
287,-0.03764405929586509
288,-0.03327840984080115
289,-0.029701693260141084
290,-0.02675687578977449
291,-0.024625180761008125
292,-0.024663748130415917
293,-0.028784021341665446
294,-0.03760424086311745
295,-0.04897926430844715
296,-0.05849586574117727
297,-0.061954116170925694
298,-0.05806282073569782
299,-0.04923046547841609
300,-0.03984969212877394
301,-0.03353796694988484
302,-0.031543422867108324
303,-0.03329350236331916
304,-0.03805344782284437
305,-0.04578562407209481
306,-0.05634818465794357
307,-0.06804854899929155
308,-0.07738090927457936
309,-0.08069354479492719
310,-0.07659321193158675
311,-0.0670003884598033
312,-0.055826750350537455
313,-0.04629978657072223
314,-0.0391156818756196
315,-0.03282370549885405
316,-0.025886929050870915
317,-0.018502374201629403
318,-0.012638599795973454
319,-0.010390198910449637
320,-0.012136018156257014
321,-0.01598762767717185
322,-0.018818875206195927
323,-0.01794402386129855
324,-0.012252786744950596
325,-0.0023132837320150156
326,0.010183241322610384
327,0.022987725664507196
328,0.03359098621726197
329,0.039467962482938615
330,0.03859078173606216
331,0.030217324526589047
332,0.015575479542714628
333,-0.002048497782710961
334,-0.018081068679619713
335,-0.028156911866737966
336,-0.029832433034276355
337,-0.023798648118730264
338,-0.013926474535958994
339,-0.005882651310023688
340,-0.004750515723937435
341,-0.012742119519050342
342,-0.028214656532404472
343,-0.046566116047515614
344,-0.062495112454214366
345,-0.07230749741279498
346,-0.07504124278353988
347,-0.07208830201454669
348,-0.06598715248526832
349,-0.059362319364924115
350,-0.054461369559937495
351,-0.0530005967641778
352,-0.0558374491792728
353,-0.06248315005925631
354,-0.07103194637347418
355,-0.0789777172725922
356,-0.08458852413987655
357,-0.08781458123733807
358,-0.08994935344119037
359,-0.092363639139668
360,-0.09553265728978241
361,-0.09927932099279638
362,-0.10384740759923078
363,-0.11043774406716114
364,-0.12033597314405889
365,-0.13335921253361568
366,-0.14734799056789302
367,-0.15954992303642124
368,-0.16868134583142058
369,-0.17541227618217986
370,-0.18040492374983244
371,-0.18168364392175004
372,-0.17418954480906637
373,-0.1523668619308443
374,-0.11334416901328714
375,-0.05733212908416216
376,0.015192370749282747
377,0.10583911411768876
378,0.2159412183676225
379,0.3397942023217261
380,0.45957017358026864
381,0.5486604308684262
382,0.583734455203024
383,0.5573797713744046
384,0.48103974750781237
385,0.37528299880387433
386,0.2553784486077601
387,0.12460932077263268
388,-0.01903747522136924
389,-0.16953576594903436
390,-0.306148959637674
391,-0.40113084725584236
392,-0.4365542212686446
393,-0.4164906193046485
394,-0.3643967711294502
395,-0.3079367008592664
396,-0.26340487903499976
397,-0.2309846631134872
398,-0.2020459954688785
399,-0.17012958783628923
400,-0.13621652230257564
401,-0.10582223948823273
402,-0.08290732534845341
403,-0.06693523722949021
404,-0.05477036093974684
405,-0.04412213074983999
406,-0.03471721455594465
407,-0.026824769314007575
408,-0.019786872772327338
409,-0.012648170444558649
410,-0.005997671018734845
411,-0.0024235616676995513
412,-0.004484237756335651
413,-0.012022079125516793
414,-0.02165014284569777
415,-0.0291588192967742
416,-0.03262563074704848
417,-0.03329557301882469
418,-0.03355799271630844
419,-0.0342182314348473
420,-0.03383374647832749
421,-0.030673795703976013
422,-0.025193408599830075
423,-0.02044742251185131
424,-0.019950663961080313
425,-0.024948003796803446
426,-0.03351271717828381
427,-0.04207768429469902
428,-0.04784115833636872
429,-0.0500175710771173
430,-0.04931637989297078
431,-0.046708240930298094
432,-0.04284938368061578
433,-0.03844209887212741
434,-0.034680770284430895
435,-0.03296651168014672
436,-0.03406736665538465
437,-0.03762683342104438
438,-0.04255180310662984
439,-0.04781051244114842
440,-0.05272516612514483
441,-0.0564938977973954
442,-0.05769889701498855
443,-0.05475177284603496
444,-0.04726099914327096
445,-0.03714170618001448
446,-0.028206828766514633
447,-0.0242124591125117
448,-0.026748293515497634
449,-0.0345774612032894
450,-0.0447952562625752
451,-0.05465874098586706
452,-0.06256494884722792
453,-0.06770412561470011
454,-0.06927750299573072
455,-0.0664833174160202
456,-0.0594794125750189
457,-0.05028958219760763
458,-0.04243379683777317
459,-0.03916625869277192
460,-0.04155482930047971
461,-0.04793501162248833
462,-0.0552043180893474
463,-0.060931618132325505
464,-0.06464068487949812
465,-0.06738349051612536
466,-0.07015490275995023
467,-0.07260406797266088
468,-0.07317055682017931
469,-0.0705447734792907
470,-0.0652317276950688
471,-0.05985902374339458
472,-0.05780952004948242
473,-0.06106755455536466
474,-0.0688474644105675
475,-0.07806794148734184
476,-0.08536646195976154
477,-0.08914913952967947
478,-0.09013250590326351
479,-0.09006658440026186
480,-0.08985667797073396
481,-0.08879844778968286
482,-0.08560231169316433
483,-0.08018505853826173
484,-0.07441480228168233
485,-0.07091380122151678
486,-0.07085984214582333
487,-0.07274830889704281
488,-0.07326837288038926
489,-0.0695401863747243
490,-0.06078185485321727
491,-0.048148056281675594
492,-0.03329572462510953
493,-0.01734709776313545
494,-0.0012400093394182615
495,0.013242514166760026
496,0.02334967815435867
497,0.02681499182699734
498,0.023768121922325938
499,0.017230890858388703
500,0.01145766411797211
501,0.009341741952037672
502,0.0109637711037079
503,0.01428012405468855
504,0.01703149256465008
505,0.018060676464984694
506,0.017116007478620986
507,0.013847859801557028
508,0.007411444093452529
509,-0.0027353815376555003
510,-0.01563777003193501
511,-0.02856599575243613
512,-0.038158016605738504
513,-0.04221843954385111
514,-0.04087690991730509
515,-0.03637728033071716
516,-0.03179209351082697
517,-0.02956106176166844
518,-0.030631746663759042
519,-0.03446311784396717
520,-0.03968178260078475
521,-0.04493611630341681
522,-0.049459744756581964
523,-0.05304237979267816
524,-0.055512405772663045
525,-0.0562483249282566
526,-0.05427842706694692
527,-0.0490418980832435
528,-0.041232189943501245
529,-0.032947788575266757
530,-0.026885140391611714
531,-0.025081615252292144
532,-0.02803579176884774
533,-0.03464688993445675
534,-0.0427815797497699
535,-0.05002291273434476
536,-0.054374514672544054
537,-0.05491270331846205
538,-0.05221964116138682
539,-0.04815501248329799
540,-0.044735085533149296
541,-0.04268917349561219
542,-0.040900206547068205
543,-0.03750768166545421
544,-0.03201951934892984
545,-0.026590434340776542
546,-0.0249967340296757
547,-0.029742152015098965
548,-0.03956448834307497
549,-0.04960539654956692
550,-0.05444254238132786
551,-0.05176546407877923
552,-0.04384159799022079
553,-0.03567674248859132
554,-0.03143133945220223
555,-0.031940884539899725
556,-0.03508072902165019
557,-0.038272705803626156
558,-0.04077966122945408
559,-0.04388275515975664
560,-0.04903772815559463
561,-0.05585465086733614
562,-0.06179540095841055
563,-0.06391064780664249
564,-0.06116233336010332
565,-0.05539157843441668
566,-0.05013809509023685
567,-0.04827537943959197
568,-0.050316092600997044
569,-0.05456994995857356
570,-0.05873989564754657
571,-0.061423770385449605
572,-0.06228945620513707
573,-0.061077013173347586
574,-0.05673908409295211
575,-0.04787207856505942
576,-0.03425963872568488
577,-0.018111988760884795
578,-0.0036485123127827893
579,0.004968651032472265
580,0.005911986244120555
581,0.0005406850564378556
582,-0.007627736044156239
583,-0.014833980018893769
584,-0.01845250245681411
585,-0.017214741221723773
586,-0.01081335309405499
587,0.0002193148698121628
588,0.014106393377373886
589,0.02750286821187141
590,0.03603349799917756
591,0.03581226968504676
592,0.025226392391818522
593,0.005978645679738389
594,-0.01721075358981612
595,-0.0381514220570625
596,-0.051367764445675076
597,-0.054102816812296686
598,-0.04736009514301083
599,-0.03547884781234964
600,-0.024302333386921067
601,-0.018706926669559403
602,-0.020688667753190247
603,-0.02896014072583566
604,-0.04015031376037876
605,-0.05077796097709211
606,-0.058808811401319896
607,-0.06401037532641729
608,-0.06715531237082972
609,-0.06883510679493691
610,-0.06881506327121567
611,-0.06641208975603252
612,-0.061572643875270006
613,-0.05569799637669562
614,-0.05134126118310979
615,-0.05078571847076056
616,-0.05457911316385425
617,-0.061331504962009516
618,-0.06904752557801162
619,-0.0767663580420956
620,-0.08484718689701072
621,-0.09355460258178727
622,-0.10152306238134548
623,-0.10612515365717134
624,-0.10591748661912753
625,-0.10286776651376821
626,-0.10171602653761178
627,-0.10642562577360117
628,-0.11684833529376709
629,-0.12899614160011874
630,-0.13891897055795055
631,-0.1463497336659391
632,-0.15416520533015374
633,-0.16389112929251354
634,-0.1718239273366693
635,-0.170072894160183
636,-0.15178930300077015
637,-0.11519456691249019
638,-0.06202645579928265
639,0.007813597076633592
640,0.09868869744311104
641,0.21410631440432454
642,0.3472861174441614
643,0.4764775492151266
644,0.5713076943235026
645,0.6068675848985997
646,0.574924171690494
647,0.48398419986551633
648,0.34999313075314753
649,0.18749443547284514
650,0.009212720662533796
651,-0.16775236160257292
652,-0.3186198017190168
653,-0.41761820730566623
654,-0.4514743562198351
655,-0.4284909951778078
656,-0.3744403409721395
657,-0.3173955074746245
658,-0.27287544451528484
659,-0.23990940829249227
660,-0.2089966989273922
661,-0.17353047099614324
662,-0.13513791065514652
663,-0.10037868210727828
664,-0.07401485145495196
665,-0.05571179886070797
666,-0.042258094110192976
667,-0.03175939892012161
668,-0.025119966090716758
669,-0.02371890665407963
670,-0.02627729289307955
671,-0.028490383498590996
672,-0.025991565203549
673,-0.017919391316079468
674,-0.007864488947995095
675,-0.0013970982586471127
676,-0.0022532987442615807
677,-0.010120070443746729
678,-0.021401072256574602
679,-0.031955672130903376
680,-0.03953055559804794
681,-0.04421492606467303
682,-0.04701626094512848
683,-0.048120886176030275
684,-0.04649709902763254
685,-0.04122457824491031
686,-0.033334240226986306
687,-0.026339095494923803
688,-0.02460002840200403
689,-0.030486724662445175
690,-0.04245237116207768
691,-0.05559168285675614
692,-0.06438152170776239
693,-0.06566346281061342
694,-0.05988056807556934
695,-0.05007437473701064
696,-0.03980968102818025
697,-0.03164024632888509
698,-0.02681348239209274
699,-0.025716727398790024
700,-0.0282167960432483
701,-0.033623715872950995
702,-0.0406606704953221
703,-0.047788618044765266
704,-0.0536844535336511
705,-0.057392338784589804
706,-0.058078979752611525
707,-0.054935545075170567
708,-0.04774928291419623
709,-0.037864414396142757
710,-0.02848966214319358
711,-0.023553372605979513
712,-0.02555074891412045
713,-0.033940932822419514
714,-0.0454561543900248
715,-0.05618978529623789
716,-0.06384433038861537
717,-0.0684267033726932
718,-0.07108889553867288
719,-0.07242280015587538
720,-0.07185862318182241
721,-0.06863661701088668
722,-0.06329120032496133
723,-0.05812755121916915
724,-0.056125816633661285
725,-0.059107516013465006
726,-0.06657748873135447
727,-0.07602162165662928
728,-0.08430565648354985
729,-0.08917485548464726
730,-0.09005458819778983
731,-0.08797850915627328
732,-0.08492589552216942
733,-0.08294407936616907
734,-0.08336748392056846
735,-0.08639598651655014
736,-0.09118847435049728
737,-0.09636246385630068
738,-0.10052407077342704
739,-0.10248755792011408
740,-0.10122373220317392
741,-0.09591142270875658
742,-0.08633404625237578
743,-0.07334565160541257
744,-0.058821507711610724
745,-0.04487181067453519
746,-0.03285042552828593
747,-0.023013092664772552
748,-0.015102322632774933
749,-0.009170855145600315
750,-0.0056508034312174075
751,-0.004477805369992757
752,-0.0042289299466109825
753,-0.002462432868629027
754,0.0026472539801840767
755,0.010693223251295608
756,0.01899063693308587
757,0.024335724968520413
758,0.02513865360571306
759,0.02213668394298584
760,0.017227382422743916
761,0.011690364234314198
762,0.005498053453263163
763,-0.0018160152135468267
764,-0.009848793061487983
765,-0.01703620075112658
766,-0.02167502269946634
767,-0.02318800197346909
768,-0.0224062857171025
769,-0.02076075760191486
770,-0.019381108053032628
771,-0.01900887650548099
772,-0.0205251027179498
773,-0.025081692355819973
774,-0.033267065281659916
775,-0.04396986891910627
776,-0.054241476100226144
777,-0.06069430281374784
778,-0.06150016269735133
779,-0.05736983751165209
780,-0.05075112850381929
781,-0.04407187815769502
782,-0.0386176901647492
783,-0.034836918635391706
784,-0.03334319502482706
785,-0.03519603044089535
786,-0.04089108963457397
787,-0.04901759541828577
788,-0.05616280468864053
789,-0.05864409792779662
790,-0.054918170233703274
791,-0.04671621660762418
792,-0.0379161932780717
793,-0.03205595690128194
794,-0.030485422113846444
795,-0.03245455253840054
796,-0.03663079562778451
797,-0.04234813012086805
798,-0.04940765402126826
799,-0.05689388752745824
800,-0.06256603718404602
801,-0.06381530302558344
802,-0.059522125437671554
803,-0.051096369551992295
804,-0.04165069838606231
805,-0.0340143966071083
806,-0.02937314708609078
807,-0.027610283790714077
808,-0.02864536262303881
809,-0.033066520103638794
810,-0.041208677521633263
811,-0.05167273925443884
812,-0.061142745623319894
813,-0.0662118576101958
814,-0.06583734834059013
815,-0.062155357662412994
816,-0.0587371118804218
817,-0.057744092473343875
818,-0.05851699088677291
819,-0.05880185474777433
820,-0.05732705337707186
821,-0.05520223353534902
822,-0.054799783809512004
823,-0.057214101679165165
824,-0.06072342213426233
825,-0.06169519899825228
826,-0.05712614808471611
827,-0.04665419105413739
828,-0.03256759523077915
829,-0.018198014324536715
830,-0.006274673304431962
831,0.0016237683707772661
832,0.004728821789003407
833,0.002840866334706556
834,-0.0032833470038622385
835,-0.011394351709237612
836,-0.01794994212721083
837,-0.019343519371563103
838,-0.013534724293796825
839,-0.0011213611528919283
840,0.01466252386677367
841,0.02888796863565219
842,0.036416448561871956
843,0.03362266451924756
844,0.020014628470453988
845,-0.0009237922898041883
846,-0.022512624962001567
847,-0.0375219773380175
848,-0.041651688621710745
849,-0.03582931522971167
850,-0.025675184724512023
851,-0.018237995054384056
852,-0.0180342704475625
853,-0.024979547031080726
854,-0.03543840733091851
855,-0.04535641741007268
856,-0.05303421834253397
857,-0.059615875126718516
858,-0.06727856015498307
859,-0.07683061886858
860,-0.08663988786714344
861,-0.09354512683892652
862,-0.0948530428901112
863,-0.08993355951940252
864,-0.08054306825734524
865,-0.07004081569989826
866,-0.06218839276203189
867,-0.060039734464949715
868,-0.06507156804670534
869,-0.07668069998728227
870,-0.0923553903454635
871,-0.1086865261144888
872,-0.12278107244335801
873,-0.13316591439628434
874,-0.1396205249368991
875,-0.1424033492744208
876,-0.14197337315714226
877,-0.13967742660704588
878,-0.13845941383103122
879,-0.14205035827434498
880,-0.15234154659910282
881,-0.1667580737884176
882,-0.17814713999225568
883,-0.17777602449258068
884,-0.1590691171847996
885,-0.11883000874769696
886,-0.05529168815760381
887,0.03388635524439997
888,0.1497404160023669
889,0.2861032429856203
890,0.424744054412475
891,0.5377483880915361
892,0.5981915490621422
893,0.5926935653173894
894,0.5266672853905737
895,0.41830924288343346
896,0.28652404812615917
897,0.14282097727421816
898,-0.00684919432451509
899,-0.15376094800267381
900,-0.28112340247937717
901,-0.36848339811060726
902,-0.403275383337714
903,-0.3899405776874932
904,-0.34854057866351335
905,-0.30333519361899697
906,-0.26973062138880605
907,-0.24868562280288242
908,-0.23117232706891083
909,-0.20767938293368998
910,-0.17518371437741959
911,-0.13759713163339707
912,-0.10139704058246451
913,-0.0711034817474301
914,-0.04789359161044348
915,-0.031175311271748128
916,-0.020667741350752965
917,-0.01689673249033205
918,-0.019977461955219145
919,-0.02813767789790723
920,-0.03750024865134387
921,-0.04349387706310376
922,-0.04298858541492187
923,-0.035769601504279276
924,-0.024473557816157485
925,-0.013140542359400428
926,-0.005344592625919135
927,-0.002941954486023967
928,-0.005877704735182789
929,-0.012759213786393003
930,-0.021599306817363374
931,-0.03035595840726595
932,-0.03727911392263333
933,-0.04120843154194173
934,-0.041820301836543866
935,-0.039688797339833354
936,-0.036100433517047004
937,-0.03271808257127636
938,-0.03119390220511873
939,-0.03271395352966473
940,-0.03748239816031343
941,-0.04440668032085565
942,-0.05139920151483622
943,-0.05638168675510788
944,-0.05840426355064857
945,-0.05797074565001682
946,-0.05621949187751018
947,-0.053678925577334266
948,-0.04983251361226824
949,-0.044023411434854304
950,-0.03686979958217561
951,-0.030706833494961817
952,-0.028384327466482877
953,-0.03131486427963191
954,-0.03843916028157095
955,-0.046959636711095556
956,-0.05410030553567827
957,-0.05836358396995604
958,-0.059486662420994305
959,-0.05767876257266234
960,-0.05326511358119769
961,-0.04708773399191317
962,-0.040899369987914005
963,-0.03686128197641591
964,-0.03628761766902047
965,-0.03879523753697836
966,-0.04280279207005057
967,-0.04699710572805635
968,-0.05133173642265787
969,-0.05652117828711161
970,-0.06252851448925993
971,-0.067670697065695
972,-0.06948574822377526
973,-0.06681358547114666
974,-0.06126279603775893
975,-0.05662662345749611
976,-0.056542956708248285
977,-0.06218147087351787
978,-0.07167255205730769
979,-0.08151448655410586
980,-0.0886824294738667
981,-0.0918834502867454
982,-0.09140478862617962
983,-0.08821990834383532
984,-0.08336784110218602
985,-0.07797805861841467
986,-0.07348622574526796
987,-0.0714269386025437
988,-0.07277159604363216
989,-0.07740062850327539
990,-0.08425474015606069
991,-0.09202271127425272
992,-0.0996284412926147
993,-0.10596587026981828
994,-0.10919720964083196
995,-0.10661728352496466
996,-0.09579118177946302
997,-0.07649271880141592
998,-0.05194305433397142
999,-0.028024139780520183
1000,-0.010564430827023708
1001,-0.0023411407348809792
1002,-0.0017868325170915295
1003,-0.004194901293221968
1004,-0.004480480870303359
1005,0.0003240466276788452
1006,0.010114689122270218
1007,0.022313309449501453
1008,0.033203370711167635
1009,0.03928744303587838
1010,0.03844059831866197
1011,0.030757692780977598
1012,0.01869896593333297
1013,0.006091949017698257
1014,-0.003775058390411058
1015,-0.009811037318879886
1016,-0.013261306693569811
1017,-0.016175816967566953
1018,-0.019519499589376106
1019,-0.02259648952140473
1020,-0.024218839153567536
1021,-0.024344205604676317
1022,-0.024452005922328705
1023,-0.02624564496369474
1024,-0.030042699929133193
1025,-0.034582392659276956
1026,-0.03849364246796143
1027,-0.041848398286846486
1028,-0.04603136728369433
1029,-0.05189817897226519
1030,-0.05810731453923952
1031,-0.06154159499018015
1032,-0.05971639350873473
1033,-0.05300132296109923
1034,-0.04451511312927399
1035,-0.03774961187190322
1036,-0.0341609176761524
1037,-0.032919013408638835
1038,-0.03276796720579287
1039,-0.033811645261493425
1040,-0.03721729623925832
1041,-0.04315128187710034
1042,-0.0493109470854013
1043,-0.051999637640352404
1044,-0.04912707443202233
1045,-0.042378400871617754
1046,-0.0363192559388877
1047,-0.03499312646315522
1048,-0.03892889472617085
1049,-0.04509917718701614
1050,-0.04963050131929898
1051,-0.0506452585905897
1052,-0.04881166145866955
1053,-0.045638867608017164
1054,-0.04170804198114853
1055,-0.036747057730773
1056,-0.031192979717091236
1057,-0.027136977231419994
1058,-0.027197102675098495
1059,-0.032208504695084156
1060,-0.04011728012951997
1061,-0.04742807345220716
1062,-0.051981252922594895
1063,-0.0543973708309256
1064,-0.05678793302401182
1065,-0.06006485313559454
1066,-0.06259955109087043
1067,-0.06162044660108969
1068,-0.05598291077416886
1069,-0.04760595920751944
1070,-0.040261230406577475
1071,-0.03700670976363665
1072,-0.038678793291453
1073,-0.044450464971008956
1074,-0.05319829965469246
1075,-0.06380269493380494
1076,-0.074136950282766
1077,-0.08044120609916569
1078,-0.0787026204501248
1079,-0.0674825025564602
1080,-0.04968040442451831
1081,-0.03126791074813582
1082,-0.017734245039408306
1083,-0.011160155055461318
1084,-0.010215314665690575
1085,-0.012551593966389865
1086,-0.0169132887186427
1087,-0.0229592535438112
1088,-0.029467762147573837
1089,-0.03338374465767051
1090,-0.031197109538860523
1091,-0.021526599623750534
1092,-0.006384816815018293
1093,0.01008244399808873
1094,0.024020030959224923
1095,0.033078228871773516
1096,0.035677090969204364
1097,0.029996714438023785
1098,0.014791752337393767
1099,-0.008086998635161774
1100,-0.03211670181663153
1101,-0.04808253394581671
1102,-0.04923114345611815
1103,-0.03599342781210656
1104,-0.01640771528130571
1105,-0.0015540215820464155
1106,0.00080229307656815
1107,-0.01007702856883718
1108,-0.028952713526693166
1109,-0.048866294745532654
1110,-0.06510538743192978
1111,-0.07638300146679187
1112,-0.08336223550749586
1113,-0.08655749562575424
1114,-0.08555809228433124
1115,-0.07997571879073863
1116,-0.07096676480384556
1117,-0.061734595765274354
1118,-0.05624487945725554
1119,-0.056846578201892844
1120,-0.06255767860753775
1121,-0.06957098040586136
1122,-0.07395815747052104
1123,-0.07464964996631034
1124,-0.07420762090072883
1125,-0.07653264586884082
1126,-0.08333650433718727
1127,-0.09253375324910754
1128,-0.10014287224058124
1129,-0.10403733613161104
1130,-0.10603004050948132
1131,-0.11028781455934306
1132,-0.11961465123032906
1133,-0.13317829406340295
1134,-0.14767059835647817
1135,-0.16032876449463662
1136,-0.17048527508390865
1137,-0.17820834262067303
1138,-0.1819634371012297
1139,-0.17821291360612762
1140,-0.16332826179523868
1141,-0.13515019756540858
1142,-0.09184411563612528
1143,-0.02940617785188758
1144,0.05799047268251564
1145,0.1726063539652007
1146,0.30606496388005255
1147,0.4373037976794225
1148,0.5390645406552002
1149,0.5890608440475621
1150,0.5776196667116572
1151,0.506995494994104
1152,0.38555603979675745
1153,0.224406450228959
1154,0.04000513885918634
1155,-0.14197596828694767
1156,-0.28976992470008567
1157,-0.3778903275105012
1158,-0.4009349636205267
1159,-0.3770383238347213
1160,-0.33635383826519294
1161,-0.3023453163176622
1162,-0.27991352246850415
1163,-0.25855525960740167
1164,-0.22614882851540902
1165,-0.1809541721710016
1166,-0.1326410111498013
1167,-0.09366466901029355
1168,-0.07004099337378594
1169,-0.059188548208492064
1170,-0.05476065096345431
1171,-0.05238311971955474
1172,-0.0510760568324107
1173,-0.05065938822273108
1174,-0.049363957370391086
1175,-0.044625090542210484
1176,-0.03584479776679494
1177,-0.025656141371824585
1178,-0.018067175851634365
1179,-0.015360184461256761
1180,-0.016846473217581686
1181,-0.020419020005749536
1182,-0.024891530982106447
1183,-0.030562149698234644
1184,-0.037663525041650214
1185,-0.04475982048008817
1186,-0.04914362079184205
1187,-0.04902532425388735
1188,-0.04531618504175057
1189,-0.04116857132485466
1190,-0.03966963247838924
1191,-0.041819888344039644
1192,-0.046473577235495646
1193,-0.051901036360438205
1194,-0.05717574915489096
1195,-0.06206085818387467
1196,-0.06581383393507492
1197,-0.06650277117403014
1198,-0.06190876082874518
1199,-0.05147170686591006
1200,-0.037601863462565534
1201,-0.02505403221640121
1202,-0.01856827578644442
1203,-0.02032752971740913
1204,-0.028922553053331204
1205,-0.040424566682281546
1206,-0.05071781273090582
1207,-0.057481485826270745
1208,-0.06061730495661778
1209,-0.06114213287026673
1210,-0.059683639330352055
1211,-0.0558936346325926
1212,-0.049211057084400836
1213,-0.04019635465445931
1214,-0.031143413450159217
1215,-0.02529198369705701
1216,-0.025155774648475397
1217,-0.031190224821462238
1218,-0.04166768669235592
1219,-0.053629521233741616
1220,-0.06410415696017066
1221,-0.0709377453667771
1222,-0.07319228651060666
1223,-0.0713617196163325
1224,-0.06738296060717455
1225,-0.0640921716262173
1226,-0.06400228519801454
1227,-0.06797001566279026
1228,-0.0747111732908549
1229,-0.08163461474915654
1230,-0.08642924202566789
1231,-0.0882321599794407
1232,-0.08763318995169367
1233,-0.0858076007338505
1234,-0.08369809304153786
1235,-0.08184865785623946
1236,-0.08068660834732805
1237,-0.08065922357903066
1238,-0.08200434980230595
1239,-0.08452276940966788
1240,-0.08776849427043101
1241,-0.09150999814836759
1242,-0.09583866170324253
1243,-0.10057068789243516
1244,-0.10442066547812258
1245,-0.10492561913739883
1246,-0.09960723227938406
1247,-0.08771896139346999
1248,-0.07120875060355983
1249,-0.05399253828541123
1250,-0.039942338148129475
1251,-0.031001295430028213
1252,-0.02666752482445913
1253,-0.024935817649006146
1254,-0.023710530475275098
1255,-0.021609809891646303
1256,-0.017905858096283808
1257,-0.012192427971691133
1258,-0.004427613583245898
1259,0.004674751230762031
1260,0.013524818213008091
1261,0.020242146227457385
1262,0.02359164149703291
1263,0.023403973505699678
1264,0.020040675878642507
1265,0.013491100222282813
1266,0.0032300195197646317
1267,-0.010699017409601741
1268,-0.02627738206720843
1269,-0.039379764272938315
1270,-0.04564041556398114
1271,-0.043215080143934215
1272,-0.03426206317201251
1273,-0.023805513578452717
1274,-0.01677874128349175
1275,-0.015541388562996769
1276,-0.019606452075315257
1277,-0.02723849348981961
1278,-0.0370059098573992
1279,-0.04779752873335783
1280,-0.057729049635868425
1281,-0.06373647051422046
1282,-0.06300319776830388
1283,-0.055317284319957756
1284,-0.044127628287184945
1285,-0.03493402893359982
1286,-0.03198716810849468
1287,-0.035854727428171924
1288,-0.04368605562828791
1289,-0.05166442851279872
1290,-0.057394972069170366
1291,-0.06040584375475018
1292,-0.06095556417809035
1293,-0.05888092951234511
1294,-0.053838471392659834
1295,-0.0465435445958416
1296,-0.039389145028277894
1297,-0.03539927052048843
1298,-0.03621822142004956
1299,-0.040939510309126514
1300,-0.04688662458985003
1301,-0.0516489137924075
1302,-0.05453933354815205
1303,-0.05628249223939717
1304,-0.05749378441839835
1305,-0.057632031586692015
1306,-0.05552489053605023
1307,-0.05090953317693151
1308,-0.04537028495838234
1309,-0.04162639081489309
1310,-0.041723719737150354
1311,-0.04572035913700251
1312,-0.051939472404509676
1313,-0.05836517612146295
1314,-0.06378699306656443
1315,-0.06776628344419197
1316,-0.06983212505426421
1317,-0.06910036553848786
1318,-0.06494960451319116
1319,-0.058107023098183025
1320,-0.050868866060138
1321,-0.045906754708354175
1322,-0.04449724142514184
1323,-0.045672032160190126
1324,-0.04704143232129192
1325,-0.046590998801192135
1326,-0.04396111662479144
1327,-0.040288325752156975
1328,-0.03700470331607851
1329,-0.0347893535269612
1330,-0.03347327851527216
1331,-0.032633034649676554
1332,-0.031986384359642094
1333,-0.03110981973563305
1334,-0.028938246538294233
1335,-0.02394587272966934
1336,-0.015310341760299601
1337,-0.004246356057528245
1338,0.005837047151707871
1339,0.010992214657504705
1340,0.009336177546357523
1341,0.002692457330787545
1342,-0.004216297734097657
1343,-0.006768975266463281
1344,-0.003616401073038653
1345,0.002329052136250894
1346,0.005913709073131648
1347,0.003327239350274149
1348,-0.0054136416495697455
1349,-0.016872750609020708
1350,-0.026977677744485173
1351,-0.03382340440441993
1352,-0.03830357243762536
1353,-0.04236233884195717
1354,-0.04670189129943949
1355,-0.050090571838018655
1356,-0.05079902751528878
1357,-0.04869838294397253
1358,-0.04601233446968079
1359,-0.0460281062692684
1360,-0.05090569989206143
1361,-0.06037052436853923
1362,-0.07208993218959542
1363,-0.08306067195832617
1364,-0.09081145246210678
1365,-0.09392031782715451
1366,-0.09222402715987255
1367,-0.08710588523905091
1368,-0.08153151552272134
1369,-0.07917426555648822
1370,-0.08270342718114548
1371,-0.09239132969657968
1372,-0.10626363618220466
1373,-0.12170034659783321
1374,-0.13697289759827058
1375,-0.15131331615004606
1376,-0.16381209244008746
1377,-0.17288652176882166
1378,-0.17744155205771556
1379,-0.17860079405642504
1380,-0.17955916059770435
1381,-0.18262094362088477
1382,-0.18566868153157398
1383,-0.1816889449837536
1384,-0.16248980057085877
1385,-0.12346134399217894
1386,-0.06475428649572226
1387,0.012177173940440416
1388,0.1082908811352519
1389,0.22524422046881085
1390,0.35783097669220376
1391,0.4874248035431171
1392,0.584790264621565
1393,0.6233447439761703
1394,0.5938104860680442
1395,0.5081766331221087
1396,0.38917102509002777
1397,0.2542646058235597
1398,0.10849594919540906
1399,-0.0476830334323578
1400,-0.20389704679667875
1401,-0.33431845275549066
1402,-0.40922265521608914
1403,-0.4156912613592589
1404,-0.36977695967699753
1405,-0.30842480476441747
1406,-0.2662237671855225
1407,-0.2547708587564172
1408,-0.2599512040251908
1409,-0.25739687938684513
1410,-0.2322508992522458
1411,-0.1878927630729024
1412,-0.1393350914504526
1413,-0.09977775211053984
1414,-0.07242398061093039
1415,-0.05262714501995598
1416,-0.03563012514046404
1417,-0.021533081071093314
1418,-0.013645777581650012
1419,-0.013429428049036813
1420,-0.01791142875799672
1421,-0.02204624627121901
1422,-0.023191040210125333
1423,-0.02299667467228265
1424,-0.024946232505219646
1425,-0.030178257755613856
1426,-0.035773515350866085
1427,-0.03714379304665409
1428,-0.032221718359116164
1429,-0.023553260755344425
1430,-0.01644939502075919
1431,-0.014958543493201382
1432,-0.019228664076923186
1433,-0.02632763220482926
1434,-0.03334549797631556
1435,-0.03966574280377261
1436,-0.046366397571436783
1437,-0.0536562198696411
1438,-0.05921807034662922
1439,-0.05945295759681643
1440,-0.0527406966211908
1441,-0.041707540109542786
1442,-0.03217147479760338
1443,-0.029342906907271312
1444,-0.03431871110747385
1445,-0.04367227618944994
1446,-0.052271372604819816
1447,-0.05681679076975338
1448,-0.057301366572906035
1449,-0.055694032161326915
1450,-0.053559411666782006
1451,-0.050882088224106975
1452,-0.04684775707600065
1453,-0.041419827822627694
1454,-0.03603367404620823
1455,-0.032837208479460145
1456,-0.03331927258739792
1457,-0.03752123129745061
1458,-0.044226983914685325
1459,-0.05161372422856694
1460,-0.057741635324953286
1461,-0.060843545987012373
1462,-0.05977969307784903
1463,-0.05472357459259937
1464,-0.04754505741077278
1465,-0.041276719036252976
1466,-0.03873972558804597
1467,-0.041212037473969745
1468,-0.04807647800490746
1469,-0.05756038660710074
1470,-0.067767415034653
1471,-0.0771147281899166
1472,-0.08409267535501674
1473,-0.08709429391408949
1474,-0.08500691268697859
1475,-0.07832187779906999
1476,-0.06967182127553535
1477,-0.0629136915376928
1478,-0.06109375472531825
1479,-0.06474863251260726
1480,-0.07188562732494555
1481,-0.07962865169284342
1482,-0.08611007971392091
1483,-0.0910519068394603
1484,-0.09476925725267903
1485,-0.09683792374715741
1486,-0.09593845609371021
1487,-0.09114288976146082
1488,-0.08335596510476688
1489,-0.07532019732666613
1490,-0.06990522912571054
1491,-0.06808809415261782
1492,-0.06842575591821576
1493,-0.06848283868302321
1494,-0.06686871888389473
1495,-0.06400886589667253
1496,-0.061040264462681904
1497,-0.05804047595076363
1498,-0.05340911284859093
1499,-0.04506686608569306
1500,-0.03239263735330426
1501,-0.017165127920820332
1502,-0.002740928093217323
1503,0.007763749655893496
1504,0.012877527488315431
1505,0.013017574889017206
1506,0.00989416059599432
1507,0.0057797401990801345
1508,0.0029108888055785565
1509,0.0028388628988612265
1510,0.005724235172654362
1511,0.010078857604074303
1512,0.013459881515768489
1513,0.013854256118163382
1514,0.010713871813168508
1515,0.00477633312443283
1516,-0.003066725820653839
1517,-0.012623432017251537
1518,-0.024015068329633807
1519,-0.03641591561821811
1520,-0.047334763664385264
1521,-0.05348523116027397
1522,-0.052795051986405425
1523,-0.0459420323615056
1524,-0.0361280640210855
1525,-0.027297361813965748
1526,-0.022234092749262264
1527,-0.02184240355384834
1528,-0.02569448168755585
1529,-0.032887766765596675
1530,-0.042306747671911726
1531,-0.052294526198287394
1532,-0.06048192876952714
1533,-0.06438356990431127
1534,-0.06257376737861914
1535,-0.05561391004179575
1536,-0.04598805542334307
1537,-0.03699689550629565
1538,-0.03127238875428791
1539,-0.029792352662309746
1540,-0.03189091565869062
1541,-0.036074886421448626
1542,-0.04094490392229591
1543,-0.04555245776599662
1544,-0.04910135957209914
1545,-0.050564780607231186
1546,-0.04891025105745305
1547,-0.043989366762658605
1548,-0.037295131783631176
1549,-0.0316222924253875
1550,-0.02953872151368081
1551,-0.03176547471890058
1552,-0.03684792743386195
1553,-0.042425117507476684
1554,-0.046919729117345745
1555,-0.05009181834381678
1556,-0.052110884150658364
1557,-0.05240242530296732
1558,-0.04978687848604305
1559,-0.04396479350947951
1560,-0.03672859997185969
1561,-0.03129453116345615
1562,-0.03002381745686137
1563,-0.032633781226560125
1564,-0.036734378853256436
1565,-0.0402437451298965
1566,-0.043246118388625514
1567,-0.04734142437304659
1568,-0.05315262121346567
1569,-0.05872086986849512
1570,-0.0607631919025247
1571,-0.0578108792152542
1572,-0.05210526642907291
1573,-0.048124044602787755
1574,-0.04888700502269248
1575,-0.053464766190565054
1576,-0.058026796523163435
1577,-0.05934027864472278
1578,-0.05729223155999652
1579,-0.05409546887681363
1580,-0.05123468793228506
1581,-0.04746715473441962
1582,-0.04005352120928994
1583,-0.02804399516422193
1584,-0.014275518226654287
1585,-0.003908590272432061
1586,-0.0006581564806555245
1587,-0.004069550325528232
1588,-0.010171126583060137
1589,-0.014686209955470752
1590,-0.01578574761885735
1591,-0.014120299045931255
1592,-0.010674837391741505
1593,-0.0050422649117657856
1594,0.003913166172089498
1595,0.015617417172227224
1596,0.02618791254281605
1597,0.029773696753567128
1598,0.022336939514096984
1599,0.005021637908707878
1600,-0.01575231847052573
1601,-0.03190993832995461
1602,-0.03860048037199983
1603,-0.03684360579757609
1604,-0.032105744947752854
1605,-0.030020577192880215
1606,-0.03254043887113904
1607,-0.03731359013792154
1608,-0.04045376275809199
1609,-0.040213007056515114
1610,-0.03850450055516409
1611,-0.039162499286964775
1612,-0.04461156818449913
1613,-0.05387952627542179
1614,-0.0635679471740696
1615,-0.07070111985152239
1616,-0.07475205283234095
1617,-0.07707589784263423
1618,-0.07858453707570992
1619,-0.07827198742616495
1620,-0.07436977173219693
1621,-0.06717826082669964
1622,-0.060630226617887986
1623,-0.06049306669398895
1624,-0.07022678844287472
1625,-0.08799732721512113
1626,-0.1076760307271102
1627,-0.12321435441429954
1628,-0.13269247269075868
1629,-0.13859336309687478
1630,-0.14435724121597646
1631,-0.15075055499722215
1632,-0.155643569717909
1633,-0.1572776962786998
1634,-0.1574246330210483
1635,-0.1607218911493738
1636,-0.17021004796697659
1637,-0.1830746453081524
1638,-0.19075397804349917
1639,-0.1835445927566631
1640,-0.15552676410786181
1641,-0.10544162161714851
1642,-0.033458670019763964
1643,0.06169727754375119
1644,0.18081865630869118
1645,0.3179989486135576
1646,0.45579654055252905
1647,0.5675092960336275
1648,0.626719491723511
1649,0.6180589355841319
1650,0.5420795539650163
1651,0.4121338022450912
1652,0.2474551553833124
1653,0.06837104396028604
1654,-0.10436563526172193
1655,-0.24932481265379858
1656,-0.3474496793149193
1657,-0.38857898677753105
1658,-0.3768122064609706
1659,-0.3296084835493601
1660,-0.27005600485496717
1661,-0.2170914257966025
1662,-0.17972372715376367
1663,-0.15768290267337598
1664,-0.14602228746645068
1665,-0.1393399725026435
1666,-0.13334907526487239
1667,-0.12472824181049336
1668,-0.1112962688524099
1669,-0.0930757516390093
1670,-0.07294499050324399
1671,-0.05552986248387425
1672,-0.04468053296958012
1673,-0.04135557703661458
1674,-0.04344168775650246
1675,-0.047377732401670807
1676,-0.05013008126133492
1677,-0.05020010922519247
1678,-0.04748317636484235
1679,-0.042671589667662484
1680,-0.03683552575266576
1681,-0.03124685181841775
1682,-0.027203418665709342
1683,-0.025768154708971293
1684,-0.027544441476315115
1685,-0.0325344115194742
1686,-0.03996179914885465
1687,-0.04806278338157966
1688,-0.0541987126894206
1689,-0.05570345857639778
1690,-0.05131702139533069
1691,-0.04229383004932367
1692,-0.03215704081883995
1693,-0.024955077111659354
1694,-0.023105121812109948
1695,-0.026344127261618097
1696,-0.032461869423636026
1697,-0.03906556032305458
1698,-0.04488860819611673
1699,-0.049739687656374265
1700,-0.05349599717368263
1701,-0.05535267892903077
1702,-0.05416059665386984
1703,-0.049559501011707224
1704,-0.042827627632208626
1705,-0.03660280126921493
1706,-0.03359425850899021
1707,-0.03519987680828254
1708,-0.04092744137799101
1709,-0.04882716731167697
1710,-0.05644831127431758
1711,-0.061677281018914405
1712,-0.06317172552527062
1713,-0.060516847621810595
1714,-0.05430837672866444
1715,-0.04613908925735824
1716,-0.03828342029481396
1717,-0.03300866939487898
1718,-0.03179195191600662
1719,-0.03491212220049171
1720,-0.04165380235581001
1721,-0.050866175510411754
1722,-0.06133531470628052
1723,-0.07168372823355057
1724,-0.08010356786195692
1725,-0.08455514096199346
1726,-0.0836953508974835
1727,-0.07799210194669723
1728,-0.07001977277858237
1729,-0.06339268030991087
1730,-0.06089499316078223
1731,-0.06312398370335241
1732,-0.0686123949378367
1733,-0.07518717601358496
1734,-0.08135091434912409
1735,-0.0866312876827578
1736,-0.09092820839626656
1737,-0.09380067449915458
1738,-0.09450757195506498
1739,-0.09268696364032855
1740,-0.08887278916371863
1741,-0.08430717139605126
1742,-0.08032314245214325
1743,-0.07795635158480452
1744,-0.07797257806609961
1745,-0.08081654795306466
1746,-0.08604430822598752
1747,-0.09165318010646759
1748,-0.09434154974133108
1749,-0.09114669382240376
1750,-0.08146416979728358
1751,-0.0676572718066418
1752,-0.05342711245050522
1753,-0.041163035177247086
1754,-0.03062832225358076
1755,-0.020222618749232528
1756,-0.00957785828609908
1757,-0.000804836078689099
1758,0.003110097405495794
1759,0.0014347963918037755
1760,-0.0027010903801040044
1761,-0.004076685137522046
1762,0.0007290593491199699
1763,0.010662401853763739
1764,0.02106942561696262
1765,0.027271573303761357
1766,0.02764844828231165
1767,0.02372006758427625
1768,0.017679408247874607
1769,0.010135560587243735
1770,0.0002964944803672551
1771,-0.0118791417915524
1772,-0.024112293726385334
1773,-0.032748937057091074
1774,-0.035520005999087154
1775,-0.03347020533975144
1776,-0.03013224971440167
1777,-0.028681660754432674
1778,-0.029739169978488668
1779,-0.03177550813938626
1780,-0.03345989380199506
1781,-0.03540192173297415
1782,-0.039438529704493575
1783,-0.04618224144537353
1784,-0.05339961745328519
1785,-0.05708212249737846
1786,-0.05449175849242012
1787,-0.04651783988516964
1788,-0.037229647815084865
1789,-0.03099756269836587
1790,-0.02963195096521077
1791,-0.031801643110106914
1792,-0.03487729805875282
1793,-0.03733922211313824
1794,-0.039713158852146976
1795,-0.04353792969271729
1796,-0.049538928502129764
1797,-0.05657760692148375
1798,-0.06205284336726644
1799,-0.06330435017641235
1800,-0.059113309993013036
1801,-0.05059827641145531
1802,-0.04113389291536529
1803,-0.035146406070075804
1804,-0.03602708864189923
1805,-0.04408164566744784
1806,-0.055882805943529006
1807,-0.06585703065419674
1808,-0.06941913387454396
1809,-0.0656079675115196
1810,-0.05731989702898437
1811,-0.049025799502084313
1812,-0.04384208586265467
1813,-0.042219498873526516
1814,-0.042935328323655514
1815,-0.04500913534348443
1816,-0.048550209721084855
1817,-0.05388052041494183
1818,-0.06013370517949948
1819,-0.06502495099133944
1820,-0.0661905461058509
1821,-0.06282429229037027
1822,-0.05604307965655719
1823,-0.04775725042101611
1824,-0.03933833572007289
1825,-0.03145192640584367
1826,-0.025001461949763725
1827,-0.021770455611657143
1828,-0.023569359526616585
1829,-0.030337774187089987
1830,-0.039023897353591956
1831,-0.044656389716922595
1832,-0.0431086557734392
1833,-0.03345676943806758
1834,-0.01812523633369846
1835,-0.0009521036356609753
1836,0.014960003964149558
1837,0.02784156084016466
1838,0.03630348868421766
1839,0.038465419517368885
1840,0.03264019765252306
1841,0.019244864555353125
1842,0.0019734447604938432
1843,-0.013454074228426014
1844,-0.022539303782678304
1845,-0.024798381799966192
1846,-0.02371463909968108
1847,-0.023757099373530245
1848,-0.026914981320298386
1849,-0.0316619632923106
1850,-0.03513229127439148
1851,-0.036423195848022644
1852,-0.0379288887264877
1853,-0.04339873526342993
1854,-0.054394317224917166
1855,-0.06829995641809067
1856,-0.07970271302192623
1857,-0.08404637995230313
1858,-0.08059538142345832
1859,-0.07248946433635495
1860,-0.06420255037065165
1861,-0.058715806807806914
1862,-0.05654848259014489
1863,-0.05689324216536327
1864,-0.05934507581819197
1865,-0.06455633155347171
1866,-0.07343562634988754
1867,-0.08586477018218118
1868,-0.10016977574732185
1869,-0.11375742947348744
1870,-0.12433981021731066
1871,-0.13086162739188417
1872,-0.13369707985904994
1873,-0.13432572355469774
1874,-0.13493890179998863
1875,-0.13813756602348254
1876,-0.14643636820370992
1877,-0.16122210235562964
1878,-0.1813548296873004
1879,-0.20235537724582642
1880,-0.21725792506276093
1881,-0.21917352590400163
1882,-0.20395963816715015
1883,-0.17069547858250078
1884,-0.11918223939376066
1885,-0.04672350784331297
1886,0.051750438657126585
1887,0.17809855791471516
1888,0.3229129609853695
1889,0.4620170273722256
1890,0.562999997231862
1891,0.5999673053489081
1892,0.5671257620895468
1893,0.48100342227684545
1894,0.3689640851513155
1895,0.25237934742804624
1896,0.13722091219218877
1897,0.018670755887794797
1898,-0.10541720331192267
1899,-0.22458482098996393
1900,-0.31816510091942474
1901,-0.3678159660251772
1902,-0.36948272734932597
1903,-0.33528452871808667
1904,-0.28493530910284876
1905,-0.23465369218353654
1906,-0.19195649370122747
1907,-0.1580456217364023
1908,-0.1328024635866104
1909,-0.11675905102997874
1910,-0.10924297697273913
1911,-0.10642536405644576
1912,-0.10265155547673385
1913,-0.09425934753904508
1914,-0.08203575150034782
1915,-0.0698020438216532
1916,-0.06064496835837851
1917,-0.054565649905580785
1918,-0.04952971829372575
1919,-0.0442508594880761
1920,-0.039512507567608116
1921,-0.03684109251601492
1922,-0.03640560087417029
1923,-0.03670898176304835
1924,-0.03637473951766031
1925,-0.03583704497211197
1926,-0.036858932894133056
1927,-0.040329096183538485
1928,-0.04481512402379005
1929,-0.047579415208655745
1930,-0.047060128065983156
1931,-0.04419969433947868
1932,-0.041258979954944444
1933,-0.03948574992130277
1934,-0.03820438662559981
1935,-0.03626149639344633
1936,-0.03411328685007145
1937,-0.03408260338108558
1938,-0.03827621856083718
1939,-0.04621346666803291
1940,-0.05463064258475754
1941,-0.05976362040990205
1942,-0.059966126188698864
1943,-0.05631283269345372
1944,-0.050969432258395245
1945,-0.045276064003313944
1946,-0.039481342533125255
1947,-0.034059758206012536
1948,-0.030774029088065258
1949,-0.03195202691221792
1950,-0.03842241569182432
1951,-0.04808678461380283
1952,-0.056653332692485785
1953,-0.060130533662025684
1954,-0.05717092715666988
1955,-0.04958609592199737
1956,-0.04091889606144439
1957,-0.034360643290611545
1958,-0.031466719636111334
1959,-0.032217429304704864
1960,-0.03592851949369369
1961,-0.0420831035196341
1962,-0.050430800006991496
1963,-0.060352289283257934
1964,-0.07011476942238741
1965,-0.07687900556122695
1966,-0.07789814824893553
1967,-0.07237838262511799
1968,-0.06262932943812792
1969,-0.05329247248774445
1970,-0.04878692788892217
1971,-0.050678711952236846
1972,-0.05699506766868574
1973,-0.06404341339919345
1974,-0.0692010225654144
1975,-0.07233715713207939
1976,-0.07484096807608054
1977,-0.0774710080171824
1978,-0.07926956770109392
1979,-0.07861060953300363
1980,-0.07525305590735334
1981,-0.07124488720079872
1982,-0.0696659172500978
1983,-0.07232566375877786
1984,-0.07851499575985724
1985,-0.08582837112764863
1986,-0.09209424880830515
1987,-0.09655788430406474
1988,-0.09943035447812787
1989,-0.10063229371264015
1990,-0.09926108820421617
1991,-0.0944040691567202
1992,-0.08645875789003363
1993,-0.07759530008686437
1994,-0.07082130217687663
1995,-0.06835372679760679
1996,-0.07047766097908675
1997,-0.07550934952548988
1998,-0.08060795470062211
1999,-0.08280712258065648
2000,-0.07986317229554551
2001,-0.07084145761168581
2002,-0.05640583665011526
2003,-0.038666255800556576
2004,-0.02052123199467233
2005,-0.004741510176861927
2006,0.006754967156685726
2007,0.013152574643681983
2008,0.014606902433929581
2009,0.012022803603971153
2010,0.006880797329831297
2011,0.0010055386316958192
2012,-0.003838334184932621
2013,-0.006412213437495243
2014,-0.006279232672554384
2015,-0.0037876463064287335
2016,8.231581405763924e-05
2017,0.0038317602689493576
2018,0.005602443505952508
2019,0.0036476883863130745
2020,-0.0028598506314817095
2021,-0.013157193979108993
2022,-0.025009525246232196
2023,-0.035772664454059605
2024,-0.043726085499007056
2025,-0.04865280730113957
2026,-0.05122515901912857
2027,-0.05183078384994448
2028,-0.050041728049063816
2029,-0.04537641692094893
2030,-0.03874125559756049
2031,-0.03310028663326221
2032,-0.03235232597701332
2033,-0.038853430594131044
2034,-0.05132225722459498
2035,-0.06485982513052609
2036,-0.0733882320394331
2037,-0.07302335638405111
2038,-0.0641563933516252
2039,-0.050935024060167956
2040,-0.03869773470651535
2041,-0.03125781972174778
2042,-0.029744672848958667
2043,-0.03326759521719085
2044,-0.04027014280132947
2045,-0.04924967056879973
2046,-0.05852581224691425
2047,-0.06586226586895635
2048,-0.06887380044491775
2049,-0.06622925109284444
2050,-0.058680670219426405
2051,-0.048923127540189335
2052,-0.040243633271223156
2053,-0.034916841893334424
2054,-0.03342562872687353
2055,-0.03481990055942237
2056,-0.0376775675579145
2057,-0.040923285916323465
2058,-0.04415680734685533
2059,-0.047567019412057945
2060,-0.051584713093522944
2061,-0.056349357325472596
2062,-0.06118671917676865
2063,-0.06454369969023269
2064,-0.06473799301670793
2065,-0.06124382710321471
2066,-0.0555486237967758
2067,-0.05067642285668786
2068,-0.049464509267402854
2069,-0.052795097253480486
2070,-0.05913900959767329
2071,-0.06571736880951455
2072,-0.07025702990937177
2073,-0.07193328978320114
2074,-0.07097265315144574
2075,-0.06763370652485251
2076,-0.06171363858773477
2077,-0.05302906588089365
2078,-0.04228405841534787
2079,-0.03137969762467402
2080,-0.02278088119791876
2081,-0.018385506970188974
2082,-0.018663741254316045
2083,-0.02250884786463299
2084,-0.027735362879061032
2085,-0.03192836167946196
2086,-0.03336961898451653
2087,-0.031753347302937746
2088,-0.02829879703952412
2089,-0.02496765034108083
2090,-0.023027367401434098
2091,-0.021871752726451074
2092,-0.019138120379571775
2093,-0.012378119688089443
2094,-0.0012983855886627323
2095,0.011098241536680587
2096,0.01957472268991981
2097,0.01951483823275174
2098,0.009815794590569181
2099,-0.0060867487522517465
2100,-0.02180132946074726
2101,-0.031274101868051477
2102,-0.03189466280486525
2103,-0.025719238832896757
2104,-0.018263224740622447
2105,-0.015635245761061164
2106,-0.021556511405429434
2107,-0.03572528109117841
2108,-0.05419801185237566
2109,-0.0714151357858353
2110,-0.08273109525890907
2111,-0.0861910067840134
2112,-0.08285359586713018
2113,-0.07581413762842681
2114,-0.06868712621500715
2115,-0.06434009062568455
2116,-0.06425591492168511
2117,-0.06846308138658075
2118,-0.07581825072619808
2119,-0.08449487345442291
2120,-0.09257442644427455
2121,-0.09856560946838996
2122,-0.10167157993378406
2123,-0.10183173228443565
2124,-0.09978855754661314
2125,-0.09730517410652463
2126,-0.09718032929927073
2127,-0.10244921515534021
2128,-0.11470669633250807
2129,-0.1325916568066971
2130,-0.1519607413556755
2131,-0.16821786897691987
2132,-0.1792355729705811
2133,-0.1862710799287582
2134,-0.1917060237436999
2135,-0.19541953216249477
2136,-0.19326256818851673
2137,-0.1793705285578126
2138,-0.1501974787236653
2139,-0.10606149434316686
2140,-0.04832081203393979
2141,0.024742424263975583
2142,0.11779480795460992
2143,0.23196274694328156
2144,0.35670323129164655
2145,0.4682951416194693
2146,0.5389397630190533
2147,0.5512334693978409
2148,0.5069960032571478
2149,0.4232104696148429
2150,0.31856548511836397
2151,0.2022187631549458
2152,0.07420190577891786
2153,-0.06393188704504504
2154,-0.19916101874843029
2155,-0.3081039782390357
2156,-0.36938511424127085
2157,-0.37717307961224655
2158,-0.34471640272428883
2159,-0.29538560627196275
2160,-0.24892557910352323
2161,-0.21334924873573097
2162,-0.18670074715040663
2163,-0.16438007833696916
2164,-0.14456575150342937
2165,-0.1281599772704971
2166,-0.11563930903131077
2167,-0.10532436356647024
2168,-0.09477327353488424
2169,-0.08314085326669407
2170,-0.07160644710832328
2171,-0.061576692122085774
2172,-0.052978715485966166
2173,-0.04467592193182744
2174,-0.03643386422323029
2175,-0.030007329413691403
2176,-0.027862895115063693
2177,-0.03069100180811992
2178,-0.036299135819024005
2179,-0.041169306618492496
2180,-0.0432805824621329
2181,-0.04349927340771188
2182,-0.044223796983643066
2183,-0.04663683617256599
2184,-0.04925184489548384
2185,-0.04919370162648062
2186,-0.04506018781636677
2187,-0.03871717607020394
2188,-0.03432129283560327
2189,-0.035315240962195266
2190,-0.04187675223562946
2191,-0.05084634372303534
2192,-0.05803008141542021
2193,-0.06089629019750422
2194,-0.05961991820155815
2195,-0.05604724076028893
2196,-0.051894510236486904
2197,-0.04784696526072045
2198,-0.04406466917764386
2199,-0.04117326144207052
2200,-0.0404760392933482
2201,-0.043068443777573795
2202,-0.04872317810026429
2203,-0.055657843271370244
2204,-0.061432450812707276
2205,-0.06419023048955305
2206,-0.06327928339440078
2207,-0.05904975504884186
2208,-0.05242598716844738
2209,-0.0448476285329093
2210,-0.03844234292882158
2211,-0.03573620280956745
2212,-0.03854499596251314
2213,-0.04664466867595771
2214,-0.05737595461743089
2215,-0.0667999784934458
2216,-0.07177563632513259
2217,-0.07151140154108651
2218,-0.06753695632555357
2219,-0.062310621444413655
2220,-0.0576896389772881
2221,-0.05438543625061919
2222,-0.052500041728657895
2223,-0.05229550141749882
2224,-0.054316570343811835
2225,-0.05878531923897633
2226,-0.06497737986727263
2227,-0.0713234348927825
2228,-0.07627693316050024
2229,-0.07925052439411782
2230,-0.08083469376716257
2231,-0.08212394278160223
2232,-0.0837257586871374
2233,-0.08527490645154079
2234,-0.08585291585382383
2235,-0.08498896319941301
2236,-0.08345336321508444
2237,-0.08316201101551632
2238,-0.08610071678966835
2239,-0.09287045904989003
2240,-0.10181664909793267
2241,-0.10946703938569238
2242,-0.11222193745639447
2243,-0.10835515007263867
2244,-0.09902460495520081
2245,-0.08754553257455791
2246,-0.07737646193796022
2247,-0.07022994989444856
2248,-0.06561473579962665
2249,-0.061937231466746887
2250,-0.05800741436009661
2251,-0.05356400217796325
2252,-0.048505307887422286
2253,-0.04188387643667897
2254,-0.032029218977763965
2255,-0.018021525016567085
2256,-0.0012269092817815174
2257,0.014728009584910417
2258,0.02585352723510225
2259,0.030117633539569675
2260,0.02827266496116405
2261,0.022627951248016767
2262,0.015104801239475546
2263,0.006462272673070618
2264,-0.0027740565228402464
2265,-0.01102921554472848
2266,-0.01582809282369735
2267,-0.015636560051604378
2268,-0.011693875729730054
2269,-0.007815043248061043
2270,-0.007930384878755711
2271,-0.013335673300039135
2272,-0.022042216294192375
2273,-0.030749333990563205
2274,-0.03757684962300355
2275,-0.043085917217972676
2276,-0.048838181857077834
2277,-0.05508837566043973
2278,-0.05992450252068059
2279,-0.06067374369246176
2280,-0.056235950607938845
2281,-0.048250997319853065
2282,-0.04020218728285327
2283,-0.035373393777055964
2284,-0.0352909582624323
2285,-0.03948187837194747
2286,-0.04615448670948001
2287,-0.0529941319978642
2288,-0.05776972505279764
2289,-0.05895874176620809
2290,-0.05641713312961723
2291,-0.05158746302464799
2292,-0.04674335991499726
2293,-0.0435709993589026
2294,-0.04218681323372278
2295,-0.04149474811191806
2296,-0.040599972567080506
2297,-0.039946901478588606
2298,-0.04104317211135943
2299,-0.04495184974711981
2300,-0.05091700286585668
2301,-0.05639602492189119
2302,-0.05853171446242619
2303,-0.055911161712445645
2304,-0.04936222537650607
2305,-0.041437007132219504
2306,-0.03516604485113475
2307,-0.032882585047005725
2308,-0.03552648809962104
2309,-0.042456662742107645
2310,-0.05174360971752707
2311,-0.060927720359263526
2312,-0.0680063568637236
2313,-0.0721158786500734
2314,-0.0734703121643802
2315,-0.0727100287426237
2316,-0.07035592020947315
2317,-0.06691476693971346
2318,-0.06339930638539851
2319,-0.061434286171686184
2320,-0.06244231799147404
2321,-0.06640355557571401
2322,-0.0713218376536123
2323,-0.07405428972531952
2324,-0.0719696386238313
2325,-0.06417898836388869
2326,-0.0515590544095461
2327,-0.03594124240506897
2328,-0.019459007657543888
2329,-0.004534028346403299
2330,0.006008388848747525
2331,0.009508587849815028
2332,0.004782777349234978
2333,-0.006754568719576592
2334,-0.021187288497740743
2335,-0.03350664538349912
2336,-0.03941725737223779
2337,-0.03654841887145484
2338,-0.024868238536290506
2339,-0.00674018456294838
2340,0.01318418123254476
2341,0.02874234673065707
2342,0.03424823228948762
2343,0.027175266561956013
2344,0.009839650666182866
2345,-0.01147989498365961
2346,-0.0298037255673603
2347,-0.040958982769070576
2348,-0.04490162332508993
2349,-0.044213304506200646
2350,-0.0414522388308123
2351,-0.03775666550693807
2352,-0.03359636528989511
2353,-0.030350399637947133
2354,-0.030625873479563574
2355,-0.03663493378183444
2356,-0.04808305277123007
2357,-0.06174022591083246
2358,-0.07340626658937058
2359,-0.08071649491939037
2360,-0.08435145929372874
2361,-0.08661049010588616
2362,-0.08872717391649944
2363,-0.08949200145866662
2364,-0.08655714188279452
2365,-0.07927460108018151
2366,-0.07037536126351354
2367,-0.06471021278125887
2368,-0.06589755275145634
2369,-0.0737012259304221
2370,-0.08443651314808781
2371,-0.09406165793283511
2372,-0.10122469913168283
2373,-0.10762090100139854
2374,-0.11554541208289834
2375,-0.12515046196551816
2376,-0.1341291427687803
2377,-0.14011629626297462
2378,-0.1433690312720548
2379,-0.14695354895780777
2380,-0.1540634096506147
2381,-0.16482198221472655
2382,-0.17523986601779737
2383,-0.17868251115629039
2384,-0.16782661741232294
2385,-0.13528891798265072
2386,-0.07365623095498253
2387,0.022529690636362412
2388,0.15179002910261535
2389,0.3005733863328639
2390,0.4430564013385926
2391,0.5485051258759702
2392,0.5930360232504202
2393,0.5685537860416789
2394,0.4833081389510331
2395,0.35481854395709334
2396,0.20142142434096816
2397,0.0386176219678602
2398,-0.1189232626475447
2399,-0.2543392939425694
2400,-0.3498507336407426
2401,-0.393162877964137
2402,-0.3844976977660545
2403,-0.3383851219397308
2404,-0.27796300374999117
2405,-0.22489850419798518
2406,-0.19086667057299284
2407,-0.17505606987451355
2408,-0.1680807368593779
2409,-0.15907613944950125
2410,-0.14170304920109852
2411,-0.11627553392896153
2412,-0.08787433553095614
2413,-0.06248801875410313
2414,-0.04387214024837023
2415,-0.03276369269375015
2416,-0.0281432460216195
2417,-0.028820170228700728
2418,-0.03379813391154079
2419,-0.04141923240200812
2420,-0.04869701821757241
2421,-0.05211835823039158
2422,-0.04961737579986915
2423,-0.04201445119280847
2424,-0.03249404520431272
2425,-0.02447753113001589
2426,-0.019741176961353583
2427,-0.018291575668984254
2428,-0.019687053417945202
2429,-0.024090928887791282
2430,-0.03180984536712872
2431,-0.0418710949252221
2432,-0.0513796313186564
2433,-0.056700928003986614
2434,-0.05567423078309696
2435,-0.04899173511023028
2436,-0.039643713204179594
2437,-0.031070271467917573
2438,-0.025606860331559345
2439,-0.024159763771871384
2440,-0.026699076815184117
2441,-0.032589761700100195
2442,-0.040434660704823
2443,-0.048020431239954864
2444,-0.05299078733854844
2445,-0.05399803564161364
2446,-0.05137111288292609
2447,-0.04667218636105977
2448,-0.04157474599334865
2449,-0.03712531262259458
2450,-0.03395192716178046
2451,-0.03290199002645622
2452,-0.035110025956763324
2453,-0.04114694705108714
2454,-0.04999908761688601
2455,-0.05899905647843322
2456,-0.06505763043749424
2457,-0.06636570510156944
2458,-0.06328197808146835
2459,-0.057801822701862786
2460,-0.052154671270648316
2461,-0.04766854061817583
2462,-0.04463758489175025
2463,-0.04299962273985129
2464,-0.04301539501856814
2465,-0.045285469529444684
2466,-0.050111451669496224
2467,-0.05680223053004876
2468,-0.06359522823521734
2469,-0.06839597686608812
2470,-0.06990206259418244
2471,-0.0683314936546056
2472,-0.06519995274672316
2473,-0.062275702896297185
2474,-0.0605004249609201
2475,-0.05974249721826597
2476,-0.05957781663426967
2477,-0.06035404441441608
2478,-0.06341918515796807
2479,-0.07004397999606274
2480,-0.07979843826596433
2481,-0.08987084916976139
2482,-0.09625870725968995
2483,-0.09624154493062262
2484,-0.09033620747758064
2485,-0.0821567139170624
2486,-0.07617233034547864
2487,-0.07499105533130503
2488,-0.0781137831063114
2489,-0.08286568275605283
2490,-0.08650358348595097
2491,-0.0877534159407978
2492,-0.08676624427654697
2493,-0.08392392386283465
2494,-0.07880142419835537
2495,-0.07025561475835744
2496,-0.05751250010278026
2497,-0.04127886735407221
2498,-0.023954727636314115
2499,-0.008779207935887972
2500,0.0015100485019032754
2501,0.005733816400027535
2502,0.004622731921899482
2503,0.0004983297302894136
2504,-0.0034799485430238543
2505,-0.004317671505973607
2506,-0.00028562688404643304
2507,0.008195962384323664
2508,0.01840026501526406
2509,0.02624857790274706
2510,0.028162917462878127
2511,0.022870810335366566
2512,0.012004788113611014
2513,-0.0009782044174039004
2514,-0.01283244486028224
2515,-0.022033455778035945
2516,-0.028707839447850297
2517,-0.03328835243928753
2518,-0.03533153958281254
2519,-0.033763021001299354
2520,-0.02840678045373618
2521,-0.02128122740908108
2522,-0.016154714334311204
2523,-0.016356251240561764
2524,-0.022499824653535803
2525,-0.032031759355242606
2526,-0.04103726620472306
2527,-0.04684426342388349
2528,-0.049350877441619714
2529,-0.05020023940386822
2530,-0.05079951464014985
2531,-0.051035257220145534
2532,-0.04970393474682266
2533,-0.04604943661226661
2534,-0.04089786668061328
2535,-0.036406582439522134
2536,-0.03474323083505243
2537,-0.0368299626689788
2538,-0.042008107540926036
2539,-0.04857137479173447
2540,-0.054527474881063034
2541,-0.058115635489912415
2542,-0.0581321694268327
2543,-0.054316397157922816
2544,-0.04772985947949017
2545,-0.04068568658234015
2546,-0.03591499436023607
2547,-0.03528824933348186
2548,-0.03893113142256295
2549,-0.04539052357206558
2550,-0.05268567543016288
2551,-0.0593585050326656
2552,-0.06471337356891906
2553,-0.06826735305128895
2554,-0.06922210117546164
2555,-0.06672655271005189
2556,-0.06082864079352175
2557,-0.05316435191869889
2558,-0.046489337214650955
2559,-0.043156107857731246
2560,-0.043668801893801415
2561,-0.04649776695109762
2562,-0.04929597246746418
2563,-0.050465515525914564
2564,-0.049789916910061294
2565,-0.04778947408415517
2566,-0.04466552667633222
2567,-0.040015782997497175
2568,-0.03363800653947953
2569,-0.026547774430798338
2570,-0.02099189419709635
2571,-0.01910329815649303
2572,-0.02113191351512743
2573,-0.024716533025869243
2574,-0.02594535569827152
2575,-0.0215984056365605
2576,-0.011089898715652125
2577,0.0031226733053500767
2578,0.016815930350369178
2579,0.0260722075430263
2580,0.02893036715398694
2581,0.02585261251975516
2582,0.019018974595209025
2583,0.01103917595326126
2584,0.003807034100567593
2585,-0.002025182918959673
2586,-0.006881199423042543
2587,-0.011668532110048428
2588,-0.01714411390352672
2589,-0.023520150012679188
2590,-0.030390746895622097
2591,-0.036917724262154415
2592,-0.042187434506678265
2593,-0.04565966107762602
2594,-0.04756899784191475
2595,-0.04903894687068473
2596,-0.05169706114031426
2597,-0.05684678592637896
2598,-0.06462260128865803
2599,-0.07370696520413637
2600,-0.0819044794257724
2601,-0.08729554230602384
2602,-0.08925516841365964
2603,-0.08868486288630664
2604,-0.08734879535146867
2605,-0.08683567756903146
2606,-0.0879195453954121
2607,-0.09076270703238959
2608,-0.09569934916542874
2609,-0.10376559688754254
2610,-0.11620869915445574
2611,-0.13303241181748476
2612,-0.15170100348791193
2613,-0.1674748965023063
2614,-0.17584713814526778
2615,-0.1756690806001728
2616,-0.17037452729786245
2617,-0.16567451269292344
2618,-0.16490589481318282
2619,-0.16558345548872244
2620,-0.16016780014164125
2621,-0.1405692999564359
2622,-0.10247018504715165
2623,-0.045693822767311036
2624,0.02905160973930907
2625,0.1225150391298645
2626,0.23413838148295843
2627,0.355434547790062
2628,0.46626612782876936
2629,0.5401880164168238
2630,0.5574825483678375
2631,0.5164692848204117
2632,0.4333096606525155
2633,0.3295598029032877
2634,0.21764805262265724
2635,0.09691742929667539
2636,-0.036326207758426245
2637,-0.17437250576574753
2638,-0.2936859889272728
2639,-0.36646437473349636
2640,-0.37966689136584375
2641,-0.3456236947056493
2642,-0.29487611514371703
2643,-0.25657374086796814
2644,-0.24160984139702188
2645,-0.24048587888643622
2646,-0.23527537773721405
2647,-0.21443957235074518
2648,-0.17915332527012306
2649,-0.1387296922624276
2650,-0.10175694302707278
2651,-0.07117154347713536
2652,-0.045900091587739056
2653,-0.025299836479687775
2654,-0.011185961105960113
2655,-0.005902878666433544
2656,-0.009191864927851904
2657,-0.0174036007078096
2658,-0.025819957906471267
2659,-0.031729205864924705
2660,-0.035416702789950495
2661,-0.03845129499494289
2662,-0.04118279342597457
2663,-0.04191205831616674
2664,-0.03849316699256596
2665,-0.030857249833825436
2666,-0.022081186215760912
2667,-0.016821771395995083
2668,-0.018157946863996924
2669,-0.025301212579576064
2670,-0.0340641624613091
2671,-0.039818956076906456
2672,-0.04065736658858805
2673,-0.03828442275116964
2674,-0.036060013585830164
2675,-0.03598784182254653
2676,-0.037272648922126214
2677,-0.037589597512662117
2678,-0.03575535643787793
2679,-0.033275211724008824
2680,-0.033337951630504875
2681,-0.038177812990767446
2682,-0.04714390586829425
2683,-0.05707519570671461
2684,-0.06448461062633698
2685,-0.06759628421526465
2686,-0.06669904577320816
2687,-0.06298398367085892
2688,-0.057316786873782236
2689,-0.05013313686554546
2690,-0.042287711913890774
2691,-0.035663509551024486
2692,-0.03261619531748257
2693,-0.03452301894131372
2694,-0.040622068653556026
2695,-0.0481353109440483
2696,-0.05363393942251395
2697,-0.05470566277062042
2698,-0.05093158094733093
2699,-0.04382684740518323
2700,-0.03604933065337249
2701,-0.030356240870695564
2702,-0.028623746244063233
2703,-0.03115974898513435
2704,-0.03664013609905199
2705,-0.04293045219562004
2706,-0.048517721327305946
2707,-0.05358279321405353
2708,-0.05968297339169705
2709,-0.06799782860314657
2710,-0.077474731226319
2711,-0.0846627949980943
2712,-0.08581926762902103
2713,-0.07983862301375852
2714,-0.06954870429153334
2715,-0.060083713042956094
2716,-0.05552508201617977
2717,-0.0565451142851921
2718,-0.06086704009108422
2719,-0.06576663659143658
2720,-0.07006812495047365
2721,-0.0738735845817212
2722,-0.07679802822106853
2723,-0.07712842234801501
2724,-0.07329637282903917
2725,-0.06634204886311794
2726,-0.06052361050503331
2727,-0.06070521649920972
2728,-0.06838380763955082
2729,-0.07995885674728638
2730,-0.08913343374369001
2731,-0.09157504830680617
2732,-0.08774684186979562
2733,-0.0814105240226841
2734,-0.07532671817754794
2735,-0.06833684248392637
2736,-0.05671946783186226
2737,-0.03863280489954758
2738,-0.01742025531712109
2739,-0.00043913164187341525
2740,0.0059226127985553215
2741,0.0009375611304440596
2742,-0.009937283125740137
2743,-0.018987553250840578
2744,-0.02125448557326407
2745,-0.016729524753112623
2746,-0.008603569552215005
2747,0.00018232586330617275
2748,0.008847218384114924
2749,0.017858449815345526
2750,0.026704484989500323
2751,0.03288305500142015
2752,0.033193015012042235
2753,0.02612872939896309
2754,0.01322326034518714
2755,-0.0017384598881917926
2756,-0.014847380616873997
2757,-0.023851593581837867
2758,-0.02856448102288317
2759,-0.030168335684155754
2760,-0.030319784608186198
2761,-0.03059177882140952
2762,-0.032136108125160656
2763,-0.035335199687502386
2764,-0.039610510037746335
2765,-0.043762793116755655
2766,-0.046808284313847204
2767,-0.04866729535430987
2768,-0.05004712193667668
2769,-0.05160599484492033
2770,-0.05323797519926802
2771,-0.054211394661491843
2772,-0.05396899451764539
2773,-0.052652008156945686
2774,-0.05072248405121938
2775,-0.04814987510443845
2776,-0.04427438134939979
2777,-0.0388128058047264
2778,-0.03308836177688384
2779,-0.029946781935526804
2780,-0.031845683255454324
2781,-0.03846529119781233
2782,-0.04605558862879139
2783,-0.04954815727531406
2784,-0.04609981610412167
2785,-0.037307221151020524
2786,-0.028224648457679257
2787,-0.023863394524087957
2788,-0.025886058794021227
2789,-0.03199387773834345
2790,-0.038250475843040546
2791,-0.04222464419409782
2792,-0.04432971142693751
2793,-0.046432688394572603
2794,-0.04921227930074172
2795,-0.05082345975893779
2796,-0.0482758114167415
2797,-0.0405100005087487
2798,-0.030492472590135083
2799,-0.024207343568255657
2800,-0.026871213776702988
2801,-0.03908573528249634
2802,-0.0559545649274412
2803,-0.07003041611225541
2804,-0.07599224900400617
2805,-0.07360530888148381
2806,-0.06692215855727282
2807,-0.06067118030281104
2808,-0.05685351476401898
2809,-0.05407068439062943
2810,-0.04963518144218128
2811,-0.042311573015174915
2812,-0.033406122109014294
2813,-0.025689465465738102
2814,-0.02149438272275442
2815,-0.021653976113977562
2816,-0.025749163443754705
2817,-0.03282174439985661
2818,-0.04155304466084897
2819,-0.049847081040313046
2820,-0.05465898766531728
2821,-0.05282035096934591
2822,-0.04266809453793
2823,-0.025425177931839765
2824,-0.005272591160322638
2825,0.012158084071355775
2826,0.02218710862572147
2827,0.023174589036730774
2828,0.017194277339032178
2829,0.008852210888075841
2830,0.0027808214229294178
2831,0.0011876038410089942
2832,0.0029701655941038315
2833,0.004984001899581287
2834,0.004515938450484703
2835,0.0010450980989443464
2836,-0.00407120719327665
2837,-0.009549453149567864
2838,-0.015821920809320617
2839,-0.024665758517074143
2840,-0.03703564579507353
2841,-0.05116987851798137
2842,-0.06299667189259306
2843,-0.06882615570593456
2844,-0.06813098931106465
2845,-0.06399211993657304
2846,-0.06080480071464602
2847,-0.06123987573451973
2848,-0.06499389744569671
2849,-0.07008060920551296
2850,-0.07507913854749658
2851,-0.08009483664364292
2852,-0.08573115292028805
2853,-0.0914735595330751
2854,-0.09543211470223929
2855,-0.09590064721460351
2856,-0.09325043088465844
2857,-0.09026072145205036
2858,-0.09047032043696808
2859,-0.09597041662329778
2860,-0.10643573629737366
2861,-0.11987488422388717
2862,-0.13404811638387507
2863,-0.14728076326901307
2864,-0.15846677747570104
2865,-0.16698955168388013
2866,-0.1729936457075589
2867,-0.17743882669194758
2868,-0.1811335870299235
2869,-0.18303985141170115
2870,-0.17934226329377828
2871,-0.16441981688594087
2872,-0.13298064686040684
2873,-0.08130663348577115
2874,-0.006687899478290594
2875,0.0931427445956709
2876,0.21769175594758455
2877,0.3583856907141473
2878,0.49472985683088405
2879,0.5977871257863064
2880,0.6419562949319102
2881,0.6181300551798522
2882,0.5378892207060462
2883,0.42417805997752134
2884,0.29519375576746026
2885,0.1550026031855489
2886,-0.0005896981977491981
2887,-0.1679534732294902
2888,-0.3246415587564728
2889,-0.43571488525588215
2890,-0.474828371671267
2891,-0.44373065708650405
2892,-0.37363636396414557
2893,-0.3061326053571669
2894,-0.2678122687786101
2895,-0.2574833089544757
2896,-0.25396194147562545
2897,-0.23597693617998333
2898,-0.19765456290278677
2899,-0.14914808212608666
2900,-0.10538542643540227
2901,-0.07448184113334119
2902,-0.05484097751192463
2903,-0.040597651404493285
2904,-0.028239556898459313
2905,-0.01833831429154989
2906,-0.012538175614128459
2907,-0.01041321575940099
2908,-0.009691210656532355
2909,-0.008942171328452238
2910,-0.00921423095120643
2911,-0.012657396272232281
2912,-0.01967499183463534
2913,-0.02768734000381217
2914,-0.03280489553805384
2915,-0.03276753564718751
2916,-0.028464260605723934
2917,-0.02295398728267343
2918,-0.019222717686509128
2919,-0.01865486940243355
2920,-0.021038675810065587
2921,-0.025421472473670857
2922,-0.030770309041356792
2923,-0.03612772431332787
2924,-0.04063899293760834
2925,-0.04373186628804028
2926,-0.04525553408898941
2927,-0.04532302291959053
2928,-0.04403932391842807
2929,-0.041561300994379456
2930,-0.0385463828832269
2931,-0.036422299835543626
2932,-0.03688917489890655
2933,-0.04082776093935037
2934,-0.04753189522477649
2935,-0.05501032538697103
2936,-0.06110950119312414
2937,-0.06444912470974593
2938,-0.06447683208926473
2939,-0.0609725382351697
2940,-0.05389243157223832
2941,-0.043894368483422236
2942,-0.03288331686059345
2943,-0.02367450155611453
2944,-0.018748859403058475
2945,-0.019105076989819343
2946,-0.02418506648440217
2947,-0.03273045380974246
2948,-0.043468164785310764
2949,-0.05486098998806838
2950,-0.06447011493063594
2951,-0.06923739895129145
2952,-0.06717496447158522
2953,-0.059264082524011816
2954,-0.04964338591247884
2955,-0.04340101271352223
2956,-0.04345306593910796
2957,-0.04897290427449244
2958,-0.05657099327251681
2959,-0.06304435500891148
2960,-0.06727096965387308
2961,-0.06985574632499611
2962,-0.0713620844112738
2963,-0.07119557045063094
2964,-0.06832371259176057
2965,-0.06301004420713749
2966,-0.057647783271326816
2967,-0.05563453212771391
2968,-0.05912537717880598
2969,-0.06756256606340877
2970,-0.0781450322503204
2971,-0.08767243641487114
2972,-0.09415472786038583
2973,-0.09709674102833585
2974,-0.09676192610465101
2975,-0.09354090143822318
2976,-0.08807956042628337
2977,-0.08171831747762796
2978,-0.07632554760057671
2979,-0.07329107674115118
2980,-0.07251317342276412
2981,-0.0724428369409591
2982,-0.07128858181172548
2983,-0.06828067045182551
2984,-0.06375055696988924
2985,-0.05796669766849136
2986,-0.05003673016909138
2987,-0.03828169816578311
2988,-0.02206401414411672
2989,-0.0034381116417486037
2990,0.013152972602626689
2991,0.023296403749437523
2992,0.025374132212987288
2993,0.021486402037673408
2994,0.01586152869183855
2995,0.012119261158391754
2996,0.011480072219591828
2997,0.012919316594911108
2998,0.01456862098257024
2999,0.014962417045068847
3000,0.013407069253016836
3001,0.009803929014420775
3002,0.004532199258730451
3003,-0.00155640876615959
3004,-0.007434225740215834
3005,-0.012570142341592054
3006,-0.017390047118077328
3007,-0.022873482705945563
3008,-0.02945282221537543
3009,-0.03622371553190364
3010,-0.04131896930013114
3011,-0.0431878011731157
3012,-0.04162104586979001
3013,-0.03766568203531637
3014,-0.032749492058851734
3015,-0.02806418046905439
3016,-0.024722405858777264
3017,-0.02407744792345359
3018,-0.027274304081062406
3019,-0.03407382653531564
3020,-0.042172898566065556
3021,-0.048146084367322706
3022,-0.04961756692810253
3023,-0.04686174962492897
3024,-0.042334412759932216
3025,-0.038527801963996064
3026,-0.03615898877981112
3027,-0.0343467619608091
3028,-0.03241046242153445
3029,-0.03128021916894225
3030,-0.03292857007189717
3031,-0.038290863199765934
3032,-0.04574257463451399
3033,-0.05173813179863589
3034,-0.05318124393425354
3035,-0.04950970079288668
3036,-0.042817472689901034
3037,-0.03613990218737034
3038,-0.03150857107834927
3039,-0.02926630110576835
3040,-0.0287876265780344
3041,-0.02958597926966348
3042,-0.031769231867199405
3043,-0.03564914682234109
3044,-0.041052001702162846
3045,-0.046936369657933956
3046,-0.05153369810820757
3047,-0.05291675906648641
3048,-0.049833712804804906
3049,-0.04257672215382756
3050,-0.03344137947744265
3051,-0.026242110136338
3052,-0.024743769538324877
3053,-0.030659251660287982
3054,-0.042416475261052175
3055,-0.05561633181477663
3056,-0.06505787416839598
3057,-0.06716704146763033
3058,-0.061435653919590466
3059,-0.05020344570323362
3060,-0.037194740183634986
3061,-0.025855882806793774
3062,-0.018378270679952787
3063,-0.015613027067409448
3064,-0.0174628082263156
3065,-0.023175717902951
3066,-0.03127741003554018
3067,-0.039359526378422306
3068,-0.044223848600744894
3069,-0.04273086482602874
3070,-0.033170973743140056
3071,-0.01641649153952894
3072,0.0040069194495559995
3073,0.023230340766930566
3074,0.03708626483911841
3075,0.04362881781498759
3076,0.04319287026012683
3077,0.037183829339297085
3078,0.02682004466606676
3079,0.01301768540980428
3080,-0.0025784049475205844
3081,-0.01672492423160815
3082,-0.025300638727937693
3083,-0.025655330701094572
3084,-0.018876097224200052
3085,-0.009860264886506752
3086,-0.004661736884041064
3087,-0.006900137620630681
3088,-0.015969708771865553
3089,-0.02833970968764494
3090,-0.040596410750547825
3091,-0.05146473911991186
3092,-0.061224685442297644
3093,-0.06958534813877493
3094,-0.07459258291288853
3095,-0.07398366274808382
3096,-0.0677147920037423
3097,-0.058950118035157095
3098,-0.052199873342481905
3099,-0.050192163251977645
3100,-0.05245299570817151
3101,-0.056887392476201296
3102,-0.06254527603984533
3103,-0.07049578116850536
3104,-0.08179001880618923
3105,-0.09480122121567236
3106,-0.10521027031000335
3107,-0.10927423848379439
3108,-0.1073827769653677
3109,-0.10419862850455697
3110,-0.10492570187158701
3111,-0.11122968505812683
3112,-0.12079941338540806
3113,-0.13077835958622652
3114,-0.14117159582838237
3115,-0.15431365301900662
3116,-0.1707748949673031
3117,-0.18614302543522257
3118,-0.19239776492355123
3119,-0.18262812552157323
3120,-0.1539932032589299
3121,-0.10563558304663001
3122,-0.03421597002658365
3123,0.06658122214325121
3124,0.1994513854599968
3125,0.3542718590642995
3126,0.5050921430046743
3127,0.6180458125994089
3128,0.6657028374668933
3129,0.6377137860067461
3130,0.5410457147151166
3131,0.3923244397947862
3132,0.21074214143746542
3133,0.01705905651792699
3134,-0.1640495687625158
3135,-0.30568385541060483
3136,-0.3876860362255862
3137,-0.4073275926207358
3138,-0.38197854478032794
3139,-0.33940368996979453
3140,-0.301735244085265
3141,-0.2748784595530061
3142,-0.25067261887665915
3143,-0.2185702201239883
3144,-0.17639904078715127
3145,-0.1319127840494042
3146,-0.09559275567589459
3147,-0.07228938166002691
3148,-0.058928442507623885
3149,-0.04908161526992768
3150,-0.039198093181037175
3151,-0.030812575675151853
3152,-0.02754570585218969
3153,-0.03043771649398332
3154,-0.03601644294931121
3155,-0.038492660415590615
3156,-0.03386560919327891
3157,-0.022581132188823946
3158,-0.009061683374466181
3159,0.0010615154702037772
3160,0.003914754651599503
3161,-0.001085899513498374
3162,-0.011499172826135233
3163,-0.023316029031620132
3164,-0.03272397097758153
3165,-0.03745219854283145
3166,-0.03727831187035818
3167,-0.0336482508329085
3168,-0.02874789504441148
3169,-0.02457533536194767
3170,-0.022421820241048877
3171,-0.022782881994862184
3172,-0.025449665434806083
3173,-0.02961253514861631
3174,-0.034073185834576934
3175,-0.03770944721640194
3176,-0.040032693694326965
3177,-0.04137183026048641
3178,-0.042380400535469126
3179,-0.04318985938134712
3180,-0.04301801987906205
3181,-0.040771638274672777
3182,-0.036258096221191194
3183,-0.03090239814742824
3184,-0.027152886332911557
3185,-0.026909416904015663
3186,-0.03026075322239912
3187,-0.035602213101802095
3188,-0.0409586714027959
3189,-0.04524700882827677
3190,-0.04835565219978185
3191,-0.050164496337281914
3192,-0.04973379282625281
3193,-0.04573527523577407
3194,-0.03791727587257418
3195,-0.02824669574003917
3196,-0.020484421237750364
3197,-0.01823851070440606
3198,-0.02282040798066344
3199,-0.032401492762848705
3200,-0.042985974929047766
3201,-0.050488518450041285
3202,-0.052652384204748666
3203,-0.04986024641045155
3204,-0.04461931844567379
3205,-0.04013758144380099
3206,-0.03875250526916785
3207,-0.04100746878089654
3208,-0.04584024004345405
3209,-0.05167439364239879
3210,-0.05755078124813236
3211,-0.06338458717303766
3212,-0.06919458731825365
3213,-0.07415053513480527
3214,-0.0765479405491554
3215,-0.07496251866113227
3216,-0.06961181755553777
3217,-0.06260736128616506
3218,-0.05677321112837863
3219,-0.05409540215533343
3220,-0.05519959034598939
3221,-0.060106047833678976
3222,-0.06905859424125116
3223,-0.08209310744213046
3224,-0.09750526734189599
3225,-0.11098896471460873
3226,-0.11708199477771743
3227,-0.11247823817526031
3228,-0.09864947763742116
3229,-0.08130108238434772
3230,-0.06671201484726791
3231,-0.05777590609584133
3232,-0.05291957824716172
3233,-0.04855332150145893
3234,-0.04259189159404206
3235,-0.03580021868094159
3236,-0.029990460446333002
3237,-0.02520825819974842
3238,-0.01897178566459408
3239,-0.008488922538649064
3240,0.006286944464548829
3241,0.021844140500818267
3242,0.033498569414820475
3243,0.03883215516947902
3244,0.03902342327474524
3245,0.036979573132876406
3246,0.03428053111541789
3247,0.030016043092127062
3248,0.022602781906628386
3249,0.012612364528038988
3250,0.0035633441129986495
3251,-0.00040646255680565043
3252,0.002000288846829106
3253,0.007819280649605909
3254,0.011791957282707396
3255,0.010037326676058504
3256,0.0023626903965159735
3257,-0.008419094004168131
3258,-0.01908928147819109
3259,-0.028056492385054095
3260,-0.03533537232369524
3261,-0.041122951091365524
3262,-0.04476154773569162
3263,-0.04512194304724332
3264,-0.04183440969532726
3265,-0.03602222962564933
3266,-0.029848173931625255
3267,-0.02537305499384781
3268,-0.023704812796777892
3269,-0.024890613169835603
3270,-0.028240411590255816
3271,-0.03259630546191787
3272,-0.03647880400457804
3273,-0.03838882617162276
3274,-0.037369210704415526
3275,-0.03349564750934576
3276,-0.02786596673494464
3277,-0.022061797447521306
3278,-0.01751980891860724
3279,-0.015252345417465086
3280,-0.01591525318039544
3281,-0.019850000665819933
3282,-0.026838309652506602
3283,-0.035745111799281956
3284,-0.04448390791356624
3285,-0.05053926228978028
3286,-0.05185142588534945
3287,-0.04763401877022154
3288,-0.03879790445022813
3289,-0.027865616385115692
3290,-0.01835467221241494
3291,-0.013655321756919098
3292,-0.015654305004929852
3293,-0.023721230081773514
3294,-0.03478167327918148
3295,-0.044703266578851444
3296,-0.050329144026168005
3297,-0.05092433120666764
3298,-0.04813226527505115
3299,-0.04459421703611757
3300,-0.042309260570586704
3301,-0.04184982527187081
3302,-0.042728383457937724
3303,-0.04430218520389534
3304,-0.04636358310175506
3305,-0.04905933905150296
3306,-0.05242635073528952
3307,-0.05603441686849675
3308,-0.0589478266303236
3309,-0.059891590900912596
3310,-0.057490934365184376
3311,-0.050642673512865416
3312,-0.03910406194022264
3313,-0.024097882904751424
3314,-0.008433387841305696
3315,0.004246091577712776
3316,0.010905633715230902
3317,0.01048354481753216
3318,0.004352923832334679
3319,-0.004380235867441582
3320,-0.012256006664332594
3321,-0.016681214108912535
3322,-0.01641683245941317
3323,-0.011348524313170065
3324,-0.0020108932997913546
3325,0.010624752884367136
3326,0.024926096652454037
3327,0.03823181357204168
3328,0.04692818547938966
3329,0.0474351142487017
3330,0.03796031227050177
3331,0.02009220476758558
3332,-0.0010400562174648444
3333,-0.01868242323828669
3334,-0.027675127644124057
3335,-0.02702199900844931
3336,-0.020033854032117535
3337,-0.011935653968852197
3338,-0.006738736312292394
3339,-0.005674086134701472
3340,-0.008033048643965354
3341,-0.013130630617375584
3342,-0.021268135906907248
3343,-0.03280941966861749
3344,-0.04655553040911849
3345,-0.05940741538848447
3346,-0.06801007676081666
3347,-0.07099707059338814
3348,-0.06975814810797196
3349,-0.06708281945830716
3350,-0.06511241493326568
3351,-0.06458389461276176
3352,-0.06580777636700406
3353,-0.06987212418460405
3354,-0.07834489621409094
3355,-0.09153042082097393
3356,-0.10717398716684692
3357,-0.12131800215575744
3358,-0.13088040132395584
3359,-0.13568952255547106
3360,-0.1381733075011003
3361,-0.14121442812344687
3362,-0.14637603157297985
3363,-0.1539668151372913
3364,-0.16413070413994285
3365,-0.17694667081976462
3366,-0.1908396222574205
3367,-0.2009577020652241
3368,-0.19975008979562608
3369,-0.17985868752898668
3370,-0.13686260446720788
3371,-0.06945384951139084
3372,0.022395838712447567
3373,0.13797436622676387
3374,0.2727171694365085
3375,0.41341786839002004
3376,0.5371221581460287
3377,0.6173674481747552
3378,0.635315359653966
3379,0.5882688674683381
3380,0.4892371391061354
3381,0.35816065562818056
3382,0.21205581999427983
3383,0.06158835586840876
3384,-0.0847779669097894
3385,-0.21493805350003642
3386,-0.3127101028551128
3387,-0.36442484062774133
3388,-0.3672850685399476
3389,-0.33230483236636854
3390,-0.2791047622565037
3391,-0.226365890866766
3392,-0.1846074809686145
3393,-0.1552578440856181
3394,-0.13477630398488327
3395,-0.11945580618289417
3396,-0.10746452327606612
3397,-0.09793415694157866
3398,-0.08932246779661769
3399,-0.07921295171117052
3400,-0.06588676260847309
3401,-0.050240506834505066
3402,-0.03620641176557152
3403,-0.02885314590811007
3404,-0.031048395607420298
3405,-0.04085689753957928
3406,-0.05176765435785651
3407,-0.05613608267439778
3408,-0.04984272267407066
3409,-0.03493604129319802
3410,-0.018231143163936744
3411,-0.006831145712296658
3412,-0.003923084601199214
3413,-0.007853331641758238
3414,-0.014641663448563835
3415,-0.02129852961973179
3416,-0.027072674858390135
3417,-0.03212201863397378
3418,-0.03563894623216995
3419,-0.03571424668133174
3420,-0.031136168420700373
3421,-0.02316862398884459
3422,-0.01532869583811805
3423,-0.011192119937970965
3424,-0.012161937303039463
3425,-0.017056413877324532
3426,-0.023552331558108312
3427,-0.029894192610149813
3428,-0.035384879798813065
3429,-0.03966270632996861
3430,-0.04198146362655052
3431,-0.04148277574454509
3432,-0.03820781512851931
3433,-0.03371560654646373
3434,-0.030507059694730783
3435,-0.030567343090270278
3436,-0.034134097801794806
3437,-0.0396134762761782
3438,-0.04467248367412602
3439,-0.047705377370010744
3440,-0.048668424315690816
3441,-0.048745287265237795
3442,-0.04910921586617376
3443,-0.049713252728444596
3444,-0.04912291673584629
3445,-0.04571810704585011
3446,-0.039473452055565225
3447,-0.032824310851561955
3448,-0.02959229843519473
3449,-0.032451921347725
3450,-0.040801090577089937
3451,-0.050843880443609955
3452,-0.058025611593180454
3453,-0.06000114883895208
3454,-0.05782092784785629
3455,-0.05452096811165871
3456,-0.05251077652826758
3457,-0.052077958665266766
3458,-0.05214047938078919
3459,-0.052221097192605925
3460,-0.05353150722727991
3461,-0.05802868448861223
3462,-0.06635046505729932
3463,-0.07666266942414894
3464,-0.08559734072382216
3465,-0.0904967854588728
3466,-0.09100346198360212
3467,-0.08873374506719285
3468,-0.08559095808030648
3469,-0.0824255869296221
3470,-0.07918466584591066
3471,-0.07607526159721
3472,-0.0742585226256553
3473,-0.07516595309167155
3474,-0.07904198333846772
3475,-0.0841965763573794
3476,-0.08780352151330542
3477,-0.08757355413775605
3478,-0.08279675722071617
3479,-0.07392477662950686
3480,-0.061357138439101525
3481,-0.0448887840704817
3482,-0.02455345797272436
3483,-0.0020680537704452465
3484,0.018726480702277185
3485,0.03328104094152462
3486,0.03881815170280474
3487,0.03605512859576206
3488,0.028863667871107695
3489,0.022123165732257408
3490,0.01927482243809025
3491,0.021062548224151323
3492,0.02588294893182666
3493,0.03108393167923535
3494,0.03424341126854796
3495,0.03388021716074452
3496,0.02959530349178476
3497,0.021869432549973172
3498,0.011704726645138842
3499,0.000268041612968984
3500,-0.011274612869493956
3501,-0.021645628491291008
3502,-0.029289602756715258
3503,-0.03260829599515361
3504,-0.030815298272133376
3505,-0.024961659181252028
3506,-0.018181127982520057
3507,-0.01450525923059369
3508,-0.016671806693650273
3509,-0.024350649929077102
3510,-0.03417941276120705
3511,-0.04177937345414079
3512,-0.04442151992701151
3513,-0.0424746980910452
3514,-0.038680093739287616
3515,-0.0359321383270431
3516,-0.03528788585785332
3517,-0.03559099553488407
3518,-0.03475839658264782
3519,-0.03157609423844636
3520,-0.026674840041289873
3521,-0.02215976415859367
3522,-0.020355788785831604
3523,-0.02255122916401312
3524,-0.028362335889685848
3525,-0.035846828826248345
3526,-0.04220473673063754
3527,-0.044853220370470535
3528,-0.0425953177588156
3529,-0.03640928617837008
3530,-0.029299117097894727
3531,-0.024987715510991795
3532,-0.02596329468892599
3533,-0.0320007186598025
3534,-0.040190140884216324
3535,-0.046612024062180235
3536,-0.04866264802443615
3537,-0.04650462539054749
3538,-0.04265315736297152
3539,-0.03999382336791676
3540,-0.03965825782574468
3541,-0.04032127002742891
3542,-0.03947247151070658
3543,-0.03574714094054901
3544,-0.0305446750683703
3545,-0.027596447626319236
3546,-0.03061326103734766
3547,-0.04058521625806717
3548,-0.054632970358711376
3549,-0.06725252479843313
3550,-0.07315016576603799
3551,-0.0698602405451735
3552,-0.05864978575973835
3553,-0.0434628077541414
3554,-0.028821389931054778
3555,-0.017925569094950335
3556,-0.011732626933442791
3557,-0.009139863271264988
3558,-0.007986784654136384
3559,-0.006405287501769392
3560,-0.003889487027030471
3561,-0.0014299761848181897
3562,-0.00047693900703583443
3563,-0.0013502314708500414
3564,-0.0023631266715701937
3565,-0.0006041281756593611
3566,0.005970222883753956
3567,0.016705284673715955
3568,0.0282186149163582
3569,0.036285237806179926
3570,0.03817076491557821
3571,0.03367222229490366
3572,0.02439696078688325
3573,0.01235754508796931
3574,-0.0007209181846423399
3575,-0.013093637750553895
3576,-0.02265454778759064
3577,-0.02753993708914071
3578,-0.027439427081476012
3579,-0.024308327242136316
3580,-0.02150205909968357
3581,-0.021815025749096342
3582,-0.025989145573444748
3583,-0.03281444913304665
3584,-0.040431889002986894
3585,-0.047440606674757135
3586,-0.05291483461691867
3587,-0.05582342402248398
3588,-0.055053431321314475
3589,-0.05046489635820945
3590,-0.04399085822281702
3591,-0.039341707103521195
3592,-0.04001397701737067
3593,-0.04699105400979339
3594,-0.05804978730269311
3595,-0.06932764749451145
3596,-0.0778817144858975
3597,-0.08317770278785545
3598,-0.08650784533517585
3599,-0.08922176737537765
3600,-0.09158882969425539
3601,-0.09327964024228316
3602,-0.09474238877987966
3603,-0.0978509141069489
3604,-0.10497049892116464
3605,-0.1172243927151332
3606,-0.13359003752308182
3607,-0.15163511913210134
3608,-0.1690356674420903
3609,-0.18423172772382365
3610,-0.1955625555315173
3611,-0.2000218813928144
3612,-0.19342075246713353
3613,-0.17232400054875852
3614,-0.13594330040612052
3615,-0.08567246921888998
3616,-0.022169541638127115
3617,0.057033625144461544
3618,0.155804041502687
3619,0.2732667221651258
3620,0.39770347369502923
3621,0.5065555927884138
3622,0.574675884163557
3623,0.5861858515585101
3624,0.5415420035397446
3625,0.45455916488022485
3626,0.34204076037804243
3627,0.21462896148856148
3628,0.07614910019877699
3629,-0.06892832792592263
3630,-0.20758516600453936
3631,-0.3181182643456354
3632,-0.37930607303677305
3633,-0.3824161181762904
3634,-0.3370602464894671
3635,-0.2666646728421444
3636,-0.1969981116658753
3637,-0.14548813865445923
3638,-0.11717329064578819
3639,-0.10760179914659761
3640,-0.10866215668044892
3641,-0.11304313418110021
3642,-0.11575255552141778
3643,-0.1138141711492229
3644,-0.1058715027744297
3645,-0.09230546584217061
3646,-0.07529538571105429
3647,-0.05814132214831842
3648,-0.043903581735135325
3649,-0.03409853149853333
3650,-0.028239627786071392
3651,-0.02450633729155704
3652,-0.021157911609722125
3653,-0.017833989586670443
3654,-0.015847514900292087
3655,-0.017118979744958643
3656,-0.022356553306897
3657,-0.029831613268335475
3658,-0.03590260097602722
3659,-0.037194677845352846
3660,-0.03292755320892684
3661,-0.025560668171067398
3662,-0.019156475802805793
3663,-0.016708561917423377
3664,-0.018527422653318696
3665,-0.022820783437061447
3666,-0.02768367521470116
3667,-0.03257235655159757
3668,-0.037998528457630576
3669,-0.0439730570526429
3670,-0.048934289975592515
3671,-0.05039706221856547
3672,-0.04687646697997157
3673,-0.03938916705608189
3674,-0.031161723677022843
3675,-0.025722409362967297
3676,-0.02487566821454099
3677,-0.0280240227871007
3678,-0.03307861575152847
3679,-0.03796683975353911
3680,-0.04153166319090869
3681,-0.04341759889851351
3682,-0.043478516825943114
3683,-0.04149122866993685
3684,-0.037446699305484166
3685,-0.03202844087279624
3686,-0.026698350114143468
3687,-0.023184342046269433
3688,-0.022684451139593144
3689,-0.025309902188867923
3690,-0.030078436430854866
3691,-0.03539000074422819
3692,-0.0396777588863086
3693,-0.04193781353459659
3694,-0.04198796818923793
3695,-0.040435912679837524
3696,-0.0384027234238116
3697,-0.037099897285877675
3698,-0.037424440957741625
3699,-0.03975463569834692
3700,-0.04401867491543156
3701,-0.049906347729309665
3702,-0.05697775774284647
3703,-0.06454671761145726
3704,-0.07151223610952302
3705,-0.07648338225996511
3706,-0.0783448322441755
3707,-0.07695191968855639
3708,-0.07336968800162269
3709,-0.06934253234162799
3710,-0.06634194693680243
3711,-0.0649663589179437
3712,-0.06516563420080826
3713,-0.06694639162871482
3714,-0.07069502163759803
3715,-0.07664159979639273
3716,-0.08397024395587493
3717,-0.09063816452215565
3718,-0.0943980045837852
3719,-0.09427927658318175
3720,-0.09114764763690421
3721,-0.08671734130265249
3722,-0.08191630739065915
3723,-0.07624828206232309
3724,-0.06886771495597246
3725,-0.06028667993168782
3726,-0.05279309871761804
3727,-0.048780596710633346
3728,-0.048309477196593315
3729,-0.048238932222554196
3730,-0.044046878997699296
3731,-0.03303169125602041
3732,-0.016265765444386123
3733,0.0022547505467821654
3734,0.018356090950612507
3735,0.02990461115887514
3736,0.03686717486296125
3737,0.03977794475827853
3738,0.03855834360963993
3739,0.03294114760911334
3740,0.02384819243249714
3741,0.013984586866624335
3742,0.0067086373350061426
3743,0.004014819215036885
3744,0.005381132625648426
3745,0.008411224116759848
3746,0.01055973690340348
3747,0.010417517126315019
3748,0.00772989846940046
3749,0.0026488506310498768
3750,-0.004708166288568049
3751,-0.013947422461904337
3752,-0.02388112064108501
3753,-0.032601783080545274
3754,-0.03828060425217836
3755,-0.04004536847633816
3756,-0.03823968218607698
3757,-0.034004987990368066
3758,-0.02870323870459876
3759,-0.02363641822974176
3760,-0.020019945259344463
3761,-0.018872435018136187
3762,-0.020695029078530304
3763,-0.02518804172913427
3764,-0.03129414574202515
3765,-0.037537826218098466
3766,-0.04238693003370633
3767,-0.04450604127171004
3768,-0.04306389762904738
3769,-0.038218051916279576
3770,-0.03147393969340284
3771,-0.02534551533307046
3772,-0.022155332467901172
3773,-0.022676730795032223
3774,-0.02574157557615609
3775,-0.029284698937585785
3776,-0.03201700206912242
3777,-0.03424174164525392
3778,-0.03704017926977951
3779,-0.0405935222999535
3780,-0.043314978253741726
3781,-0.0427959886893222
3782,-0.037887346809176936
3783,-0.030111625534865134
3784,-0.023106432371958148
3785,-0.020461098617489293
3786,-0.023609387991182916
3787,-0.031268084753626316
3788,-0.04055892962239556
3789,-0.04871347963276851
3790,-0.05413425982323291
3791,-0.056431791509682847
3792,-0.05593179543858194
3793,-0.05331445401857493
3794,-0.04959442353755384
3795,-0.046179053267782946
3796,-0.04467361694069785
3797,-0.04635281728782599
3798,-0.051485860969077306
3799,-0.05883982001807929
3800,-0.06571700431018809
3801,-0.06876892198820134
3802,-0.0654490975618646
3803,-0.055408479150855984
3804,-0.04086772708243438
3805,-0.025495436661434265
3806,-0.012423091117857478
3807,-0.0028390758398209115
3808,0.0037600824171895694
3809,0.008000165732485444
3810,0.009324215370075457
3811,0.00635507470876706
3812,-0.0012488459800694396
3813,-0.011169604783028309
3814,-0.018765591035732974
3815,-0.019450383742591736
3816,-0.011396304686297085
3817,0.003451730752030616
3818,0.02062257429598586
3819,0.03540665467126044
3820,0.044453992746950804
3821,0.04600355610076205
3822,0.0394663932528672
3823,0.025426866144598874
3824,0.006213772056831685
3825,-0.013869247911908245
3826,-0.029581099103813027
3827,-0.03688333505095254
3828,-0.03488998022277584
3829,-0.026275837556621807
3830,-0.015870682836000682
3831,-0.00841936181023297
3832,-0.00687534313581753
3833,-0.011935335586438946
3834,-0.02253327388431048
3835,-0.036553943855034035
3836,-0.051329411841138206
3837,-0.06404533514454099
3838,-0.07236476287014822
3839,-0.07522564685949193
3840,-0.07333108099503652
3841,-0.06887050195060504
3842,-0.06454216268666628
3843,-0.062488739001193526
3844,-0.06376449287712016
3845,-0.0684253527634768
3846,-0.0758402280800122
3847,-0.0848737224098067
3848,-0.09405026961542168
3849,-0.10202357508103167
3850,-0.10826915352539586
3851,-0.11335684353345143
3852,-0.11829169979566613
3853,-0.1233775323469058
3854,-0.12786161563763232
3855,-0.13109539119665337
3856,-0.13425638610595875
3857,-0.1405404862618665
3858,-0.15274221016570746
3859,-0.16975659657871645
3860,-0.18516860712343683
3861,-0.18965961950716442
3862,-0.1754260023949797
3863,-0.13871585847756698
3864,-0.07849624515135528
3865,0.006369518889880386
3866,0.11683156025297975
3867,0.24856276001658806
3868,0.38615706086675133
3869,0.5034302911076276
3870,0.5726322935487032
3871,0.5775150890160424
3872,0.5207787174838543
3873,0.420183829590584
3874,0.2967401441495503
3875,0.16468501478840647
3876,0.030650468651215332
3877,-0.09932407671793272
3878,-0.21328889188397784
3879,-0.2946943729838793
3880,-0.33107287406179225
3881,-0.3226565533506814
3882,-0.28351275629968675
3883,-0.23422777694679844
3884,-0.19180810869792836
3885,-0.16367119150005838
3886,-0.14828647451037816
3887,-0.1398488350204477
3888,-0.1326910717864201
3889,-0.12325101402233621
3890,-0.11022348177839866
3891,-0.09432030197738232
3892,-0.07796418635440078
3893,-0.0643142054959323
3894,-0.05554761271719403
3895,-0.0514917703279159
3896,-0.049847796074610845
3897,-0.04794389489187893
3898,-0.04451124138621935
3899,-0.03995415981238812
3900,-0.03507783375797863
3901,-0.029754976204400475
3902,-0.023032689665323805
3903,-0.014677578228271416
3904,-0.00659618971313445
3905,-0.002475179287933324
3906,-0.005503108310866078
3907,-0.01581561895871282
3908,-0.029745780599208446
3909,-0.041634925223468094
3910,-0.04697504926998531
3911,-0.04467521386165584
3912,-0.037047863993844105
3913,-0.02793476836368381
3914,-0.02064499300011584
3915,-0.017074365294318862
3916,-0.017999408491933513
3917,-0.023510097535602906
3918,-0.03281252210722395
3919,-0.043751755178291295
3920,-0.05305059071981457
3921,-0.05765231619821218
3922,-0.056324039425811864
3923,-0.050193242176873
3924,-0.04177201626562438
3925,-0.0334055134565191
3926,-0.02650637240234677
3927,-0.02195241560445956
3928,-0.020716702899764388
3929,-0.023631740210905625
3930,-0.030362056662016128
3931,-0.0388320647588615
3932,-0.04610762072970437
3933,-0.050205075484653895
3934,-0.05115323194329803
3935,-0.05024569366050965
3936,-0.048289276487619257
3937,-0.04479471762726707
3938,-0.039115897887727215
3939,-0.03237049960566386
3940,-0.027867859379640585
3941,-0.029068960756736463
3942,-0.03665274320961794
3943,-0.04746012407747004
3944,-0.056553870573131666
3945,-0.060735366348144755
3946,-0.06043953655404391
3947,-0.05844829371783104
3948,-0.05687644375632327
3949,-0.05544120563107116
3950,-0.05260705040021703
3951,-0.0482403433573091
3952,-0.04486662560327602
3953,-0.04602261382142464
3954,-0.05312843202338875
3955,-0.06385705309471248
3956,-0.07362111358449175
3957,-0.07887364501895508
3958,-0.07927731316974841
3959,-0.07698616149993376
3960,-0.07407430786915996
3961,-0.07079873088261579
3962,-0.06634200327750049
3963,-0.06105237387357308
3964,-0.05761081584971452
3965,-0.05957414164821516
3966,-0.06836862037857575
3967,-0.08147731847574892
3968,-0.09363846221705756
3969,-0.10020049864901476
3970,-0.09986458832751263
3971,-0.09465203711333292
3972,-0.08744315983203538
3973,-0.07948672610443767
3974,-0.07003274695807296
3975,-0.058073019443283504
3976,-0.04422429108325182
3977,-0.030860260645065286
3978,-0.02046002705073194
3979,-0.013867752610718018
3980,-0.010084814872647875
3981,-0.007553658263230347
3982,-0.005425874297116266
3983,-0.0035263495924789173
3984,-0.0013168397968162109
3985,0.002627011354311934
3986,0.009623315459692576
3987,0.019118312022652878
3988,0.028022109936071384
3989,0.03224311573816101
3990,0.02946903981816374
3991,0.020913474450289474
3992,0.010510299896811475
3993,0.0022390064755613403
3994,-0.0021660399500589783
3995,-0.0033943043687007534
3996,-0.0029473376010422003
3997,-0.0016137758845941423
3998,0.0004874304144986811
3999,0.0026531189909186938
4000,0.00284557626339105
4001,-0.0013530863249940285
4002,-0.010729000345521378
4003,-0.023297185492807085
4004,-0.03532264071100844
4005,-0.043788164676387326
4006,-0.04817737525717675
4007,-0.050032723391093194
4008,-0.050827972022300855
4009,-0.05028310535727641
4010,-0.04680469218555215
4011,-0.03965837971121848
4012,-0.030740510895057326
4013,-0.02408009620483967
4014,-0.023243934898008602
4015,-0.028743181902829776
4016,-0.03758297231901378
4017,-0.04526324274192847
4018,-0.04854052133111454
4019,-0.04685732470381827
4020,-0.041732986990519166
4021,-0.0351578351568828
4022,-0.028554472462123878
4023,-0.022904982778198316
4024,-0.019341365380887827
4025,-0.019158929692171124
4026,-0.023020237678231276
4027,-0.030109636101540407
4028,-0.03815067264964196
4029,-0.044437394951743335
4030,-0.04716532256569603
4031,-0.04616666084721091
4032,-0.04269080115428673
4033,-0.03854426049673264
4034,-0.03519395823007121
4035,-0.03330285283036662
4036,-0.03285590411760974
4037,-0.0337164982787116
4038,-0.036171278803601506
4039,-0.040921850228517104
4040,-0.04830791957657103
4041,-0.05726588002143721
4042,-0.06506314985857777
4043,-0.06849719495075948
4044,-0.0660132001390443
4045,-0.05909636266949335
4046,-0.05154204860711175
4047,-0.046890036366846924
4048,-0.04601675381122715
4049,-0.046912195218198935
4050,-0.04678057103658465
4051,-0.04447168876522706
4052,-0.04096131343474534
4053,-0.03754487731556029
4054,-0.03374110994540015
4055,-0.027269710908642053
4056,-0.016400492631371964
4057,-0.0024625659648340468
4058,0.010104077298667954
4059,0.01655325300896418
4060,0.015158315657101445
4061,0.008171495462083692
4062,-0.00025761968587866425
4063,-0.007062613220593913
4064,-0.011351764122964606
4065,-0.012963442671168963
4066,-0.010574662925425155
4067,-0.001970905818437176
4068,0.013224061526465297
4069,0.030937304908425223
4070,0.04324179123062784
4071,0.04265900669000007
4072,0.02725492958177072
4073,0.0025211936961208
4074,-0.021647116252586633
4075,-0.036785422493346924
4076,-0.04036308730557987
4077,-0.03607557458388064
4078,-0.03034755984013199
4079,-0.02802312631863034
4080,-0.03018689015630549
4081,-0.034931356833201636
4082,-0.03968422962761275
4083,-0.04308558600697857
4084,-0.045392074564160285
4085,-0.04775857693579006
4086,-0.051330726345456476
4087,-0.05671244902817182
4088,-0.06374928038535577
4089,-0.07140320135719513
4090,-0.0778167109985897
4091,-0.08091741632663606
4092,-0.07961501406282989
4093,-0.07494204200417982
4094,-0.07011328580588577
4095,-0.06902190592449785
4096,-0.07393453211944788
4097,-0.0840531958220616
4098,-0.09618992523105824
4099,-0.10715303661675028
4100,-0.11592517627653326
4101,-0.1238101328269478
4102,-0.13254539413444522
4103,-0.14229969642758977
4104,-0.1515619553262304
4105,-0.15894043578422565
4106,-0.1647683102048035
4107,-0.17045080612603192
4108,-0.1758575073906069
4109,-0.17735167993440215
4110,-0.16865717448400044
4111,-0.14385128391680196
4112,-0.0994427951822544
4113,-0.03361059632572682
4114,0.055579108667199374
4115,0.1689792204378029
4116,0.30082045007597386
4117,0.433103626488838
4118,0.5370027078113624
4119,0.5840931800845524
4120,0.5614565336149183
4121,0.4794096876256052
4122,0.36479461787524325
4123,0.24403811347614923
4124,0.128958977288915
4125,0.016310345117437584
4126,-0.0995867674888789
4127,-0.21300500633430652
4128,-0.30450676041485386
4129,-0.3526113939587523
4130,-0.34962094520448184
4131,-0.3083360001951615
4132,-0.2543446531955358
4133,-0.21045925045820846
4134,-0.18536868511657859
4135,-0.1737341594519466
4136,-0.16506725686568477
4137,-0.15268820151746149
4138,-0.13621447812705323
4139,-0.11803981229419327
4140,-0.09918385632435447
4141,-0.07885829618809098
4142,-0.05724926946267614
4143,-0.037604658123647536
4144,-0.024799779472792473
4145,-0.02149917107482048
4146,-0.02564919996971815
4147,-0.03182395598610231
4148,-0.035276389486924506
4149,-0.035044079669370884
4150,-0.03345429624786417
4151,-0.032809990758155896
4152,-0.032625697054240045
4153,-0.0301250127450456
4154,-0.023487922724390074
4155,-0.014612989867978463
4156,-0.008509597456443661
4157,-0.009559328082900055
4158,-0.017875975067594408
4159,-0.029039961680807413
4160,-0.037501501248491734
4161,-0.0406824502918926
4162,-0.04026955132085768
4163,-0.039833145012237905
4164,-0.04121163710025259
4165,-0.043015045608630585
4166,-0.04240488806341703
4167,-0.03821681929109581
4168,-0.0324241397461907
4169,-0.02871072175148786
4170,-0.029632498123631605
4171,-0.03490387813262964
4172,-0.04199555707048741
4173,-0.04806836338094575
4174,-0.05141513059998244
4175,-0.05156646181070669
4176,-0.048693654539490115
4177,-0.043341699600168294
4178,-0.036683333144906904
4179,-0.030599304841480317
4180,-0.02702339346449729
4181,-0.0269126274643557
4182,-0.02977206847919984
4183,-0.034195101897775054
4184,-0.038889702948310484
4185,-0.043236229050650665
4186,-0.046988302930638
4187,-0.04964052353871979
4188,-0.05028487989576453
4189,-0.04821942465660917
4190,-0.04379245842988155
4191,-0.038725488104286
4192,-0.03558463802606812
4193,-0.0366765674639513
4194,-0.04294451716701976
4195,-0.053376070769907594
4196,-0.06521276390278838
4197,-0.07497336825666888
4198,-0.07992690816199022
4199,-0.07928857073214529
4200,-0.07441340917414199
4201,-0.06784493338553545
4202,-0.06190101713495647
4203,-0.0578210193670165
4204,-0.05595942498749483
4205,-0.05654146119142946
4206,-0.060028052118940176
4207,-0.0666405893854197
4208,-0.07555185680034152
4209,-0.08466981748801347
4210,-0.09140255722218049
4211,-0.09387555715992345
4212,-0.09171020392185256
4213,-0.08595634115236057
4214,-0.07849600845988547
4215,-0.07144265770428374
4216,-0.06668743520688315
4217,-0.06540820839957977
4218,-0.06752983621545078
4219,-0.07153350446626364
4220,-0.07499904473063007
4221,-0.0756631462740756
4222,-0.07222483454187928
4223,-0.06434356021070778
4224,-0.05213021926181852
4225,-0.03598161192424157
4226,-0.017141095317863002
4227,0.0016859829413227627
4228,0.0167617046859605
4229,0.025034153088451912
4230,0.02600420358747689
4231,0.022148154002188725
4232,0.017399781297146852
4233,0.014850827639754758
4234,0.015425006717935369
4235,0.018258737058833616
4236,0.0219638811480272
4237,0.025421738592911573
4238,0.027650052661422838
4239,0.027466804008454113
4240,0.023806927799730933
4241,0.016572506127220967
4242,0.007039487985982326
4243,-0.0028290016789332675
4244,-0.01163398673465141
4245,-0.019152392382881106
4246,-0.02575104197095506
4247,-0.03133430775155946
4248,-0.03505563193169578
4249,-0.03615648298296261
4250,-0.035013468777935
4251,-0.03320244891809662
4252,-0.032436354410578766
4253,-0.03344116295474661
4254,-0.03586166653740545
4255,-0.03911566405689164
4256,-0.043068397483808044
4257,-0.04767181312350523
4258,-0.05201712444257579
4259,-0.05410965286882338
4260,-0.05204686725434933
4261,-0.045742878423058964
4262,-0.03752720672687659
4263,-0.030814137605697442
4264,-0.0278208316569654
4265,-0.028258961915431976
4266,-0.03007514837005307
4267,-0.03147062308723919
4268,-0.032342837743857274
4269,-0.03394195162810877
4270,-0.037228916513718555
4271,-0.04154396821244823
4272,-0.0447874715699831
4273,-0.04490151731035427
4274,-0.041382594534090364
4275,-0.03570695075165658
4276,-0.030555708568954766
4277,-0.028550294888203313
4278,-0.03122101319748006
4279,-0.03842965831764557
4280,-0.0481765156043902
4281,-0.05691617870747649
4282,-0.06071475430079842
4283,-0.05719460101699369
4284,-0.04732137285163475
4285,-0.03558540489836706
4286,-0.027859148295645033
4287,-0.027947436728980098
4288,-0.03520170135826288
4289,-0.04514148904470319
4290,-0.05281929311066396
4291,-0.056372119777488634
4292,-0.05788035410320081
4293,-0.06081623803265758
4294,-0.06629636539929104
4295,-0.07147153408000123
4296,-0.07157234137490112
4297,-0.06388713631845161
4298,-0.05018245654450729
4299,-0.03544146922063317
4300,-0.024095045997549906
4301,-0.017125070929999583
4302,-0.012484221645702544
4303,-0.008100466907222978
4304,-0.004346049944032166
4305,-0.0035266521734823217
4306,-0.006997423293776916
4307,-0.01293503986465817
4308,-0.01718627200494631
4309,-0.016549997789472387
4310,-0.011360607373988254
4311,-0.004834465892523074
4312,0.00019592034593612757
4313,0.003907527192099037
4314,0.008782939069869673
4315,0.016192115472644604
4316,0.02371393606614896
4317,0.026162539472487915
4318,0.019795436974433006
4319,0.005991622723573556
4320,-0.009082784466324201
4321,-0.018763654689688762
4322,-0.02051590963714294
4323,-0.017045896460458808
4324,-0.013316549122948955
4325,-0.012515311636493293
4326,-0.0146043503500261
4327,-0.018216283528232437
4328,-0.023297431776028873
4329,-0.0313835352666039
4330,-0.04314549008455167
4331,-0.05598450563946501
4332,-0.06471157671803744
4333,-0.06534577162351057
4334,-0.05875854405190584
4335,-0.05063331629685641
4336,-0.04741543896981762
4337,-0.05160661445709811
4338,-0.06039944423371309
4339,-0.06862894268444751
4340,-0.07318505924435353
4341,-0.0749441381943616
4342,-0.0768264958796275
4343,-0.08024327794385239
4344,-0.0835215311700786
4345,-0.08379239373783179
4346,-0.08042917227161125
4347,-0.07664255280033319
4348,-0.07755888407332012
4349,-0.08633430883523849
4350,-0.10163544022411053
4351,-0.118628983532543
4352,-0.13260792016106127
4353,-0.1421859731508901
4354,-0.1494442922058135
4355,-0.15706154793094734
4356,-0.1650330070086032
4357,-0.16989375015880737
4358,-0.1670845181885131
4359,-0.15412741296974897
4360,-0.13128846202168293
4361,-0.0986001627769821
4362,-0.05191481302941967
4363,0.017369090066970176
4364,0.11652562557698617
4365,0.24261602815055772
4366,0.3774444946419378
4367,0.4918540579233207
4368,0.5581844099625506
4369,0.5629367356887174
4370,0.5108301025396984
4371,0.41787099988384857
4372,0.2997144757306438
4373,0.16501407383309602
4374,0.018501791798303177
4375,-0.13049276206271204
4376,-0.2634122089294416
4377,-0.3575641518165656
4378,-0.39791726941356087
4379,-0.3863308281169308
4380,-0.34076290909996276
4381,-0.28503175668992475
4382,-0.23679562919382519
4383,-0.20178782682525015
4384,-0.17649810851925665
4385,-0.15506964315175106
4386,-0.13440427485813733
4387,-0.11472334348685603
4388,-0.09722743657405966
4389,-0.08211784803326737
4390,-0.06857366701465861
4391,-0.055839182269318166
4392,-0.043842343878806075
4393,-0.03286999128164244
4394,-0.023065486040805418
4395,-0.01452648219105748
4396,-0.007851021515658266
4397,-0.004345708600608348
4398,-0.005434299931091574
4399,-0.01160230058390076
4400,-0.02162713541782074
4401,-0.032613647075955994
4402,-0.04087975109230445
4403,-0.04339907064138207
4404,-0.039277842157609086
4405,-0.030517529752273193
4406,-0.021349654111206463
4407,-0.016115853738283493
4408,-0.016808199322320333
4409,-0.022008504382321558
4410,-0.028187657911112326
4411,-0.032479298935878156
4412,-0.03469226051227575
4413,-0.03686683846052085
4414,-0.04082411530403658
4415,-0.04598983541793351
4416,-0.049530186782365565
4417,-0.04868708522285291
4418,-0.04317702041464444
4419,-0.035539697817184225
4420,-0.029296570881903506
4421,-0.026716833489990245
4422,-0.028041999720223594
4423,-0.03233025092445927
4424,-0.03852648303527004
4425,-0.04553167749020064
4426,-0.05157156738592597
4427,-0.054214879430815814
4428,-0.05171095096328407
4429,-0.044633745254209156
4430,-0.03606423912005337
4431,-0.02972538648389407
4432,-0.027510020667308652
4433,-0.028595768783096814
4434,-0.030916466214860883
4435,-0.03349011939662405
4436,-0.03726224411097469
4437,-0.04360683492308608
4438,-0.05200115534732738
4439,-0.059307487594857156
4440,-0.06163107626211417
4441,-0.05728711947835271
4442,-0.04833318559387573
4443,-0.03938346100803219
4444,-0.034755253606061916
4445,-0.03623029191479407
4446,-0.0428594803049861
4447,-0.052335780742438116
4448,-0.062372064420377425
4449,-0.07108920839361627
4450,-0.07677146782036062
4451,-0.07797055842742497
4452,-0.07428110169249556
4453,-0.06704780867408536
4454,-0.059062744546589316
4455,-0.05323620119107738
4456,-0.051279397648231986
4457,-0.05345668886222342
4458,-0.059379181871949266
4459,-0.0687493815001328
4460,-0.08107556666361926
4461,-0.09460553887876708
4462,-0.10582347168679405
4463,-0.11060379093699056
4464,-0.10661289533668951
4465,-0.09517174026172107
4466,-0.08091232927231681
4467,-0.06920989758028576
4468,-0.06316110315414702
4469,-0.06224665932166367
4470,-0.06344614272002641
4471,-0.063656693155029
4472,-0.06142961156126206
4473,-0.056900944687736606
4474,-0.05048732739414603
4475,-0.04191068715301225
4476,-0.030580465355082978
4477,-0.016880690708174113
4478,-0.002907096918923606
4479,0.00835654164048458
4480,0.014932936207019359
4481,0.017180929226747653
4482,0.017287700215922484
4483,0.017293468431162532
4484,0.017442614992845655
4485,0.016440328669177925
4486,0.01340209388332805
4487,0.009548769094034619
4488,0.007763443648696528
4489,0.01010607080882326
4490,0.015482078904734582
4491,0.019794198750214195
4492,0.0187623334377809
4493,0.011106291984890132
4494,-0.0006457237587871357
4495,-0.012332164145334352
4496,-0.021233816594335563
4497,-0.027301695484656878
4498,-0.03176198311568922
4499,-0.03492590663222498
4500,-0.035650555063749874
4501,-0.03297130614480112
4502,-0.028014485697334317
4503,-0.023935652565611344
4504,-0.023685957395044026
4505,-0.027717957365948363
4506,-0.03387130372266327
4507,-0.03948824856498616
4508,-0.04358767111065129
4509,-0.046977844822907025
4510,-0.05041855810360558
4511,-0.05298595267668271
4512,-0.05251674339678225
4513,-0.04774689012029712
4514,-0.0399218898496383
4515,-0.032168625880394985
4516,-0.02721580391354292
4517,-0.025705345707822437
4518,-0.026635796190239605
4519,-0.029199016450381414
4520,-0.0338312293030789
4521,-0.04121408488943148
4522,-0.05026647287542533
4523,-0.05744612360594981
4524,-0.0585593836210289
4525,-0.05183239487022636
4526,-0.03963815991644078
4527,-0.02733117125732332
4528,-0.020085356900511376
4529,-0.02017498442456509
4530,-0.02648397448439402
4531,-0.03601270156926993
4532,-0.04573729595083943
4533,-0.05347911728556075
4534,-0.05779632326689078
4535,-0.05779083312769822
4536,-0.05338159446193241
4537,-0.045688872098578664
4538,-0.03685302710453088
4539,-0.029202995037531723
4540,-0.02442341677937014
4541,-0.023347443942062226
4542,-0.026262301508153275
4543,-0.03305642670833123
4544,-0.04285182787487807
4545,-0.05359906645964964
4546,-0.062447380121723496
4547,-0.06703118905370528
4548,-0.06678492913702475
4549,-0.06314991008170669
4550,-0.058443298508010805
4551,-0.05435152195432398
4552,-0.05127389925502503
4553,-0.04881811484632722
4554,-0.04662691710520995
4555,-0.0445707801230628
4556,-0.04225905276947946
4557,-0.038717652614333686
4558,-0.03291661764894076
4559,-0.024785806059300565
4560,-0.01564427161042434
4561,-0.007466640323619413
4562,-0.0016298118556063153
4563,0.0016368090425775276
4564,0.002650495630032351
4565,0.001404708710040399
4566,-0.0023241434391988057
4567,-0.007779873176741323
4568,-0.012312596737311707
4569,-0.012255231730517683
4570,-0.005481782023227237
4571,0.006340889373119448
4572,0.017976671197406695
4573,0.023565689575342306
4574,0.02019478806523908
4575,0.009413344638440173
4576,-0.004258395290555177
4577,-0.0163606376501167
4578,-0.02465810033060571
4579,-0.029219126302529746
4580,-0.03113904172151787
4581,-0.03146393094853661
4582,-0.03105993897219539
4583,-0.03089208673576482
4584,-0.03186568655842335
4585,-0.03421264145240066
4586,-0.03723184727636039
4587,-0.03995366091033721
4588,-0.04223109334483862
4589,-0.04511411661797036
4590,-0.04996266663571837
4591,-0.05703892602229856
4592,-0.06492779817749073
4593,-0.07138182217008521
4594,-0.07482940841140372
4595,-0.07521364232197486
4596,-0.07358840602611723
4597,-0.07113651289760503
4598,-0.06868699320114549
4599,-0.06704807164483367
4600,-0.06746679136559028
4601,-0.07140617213390818
4602,-0.07967377850768084
4603,-0.09173440772583108
4604,-0.1058810780507626
4605,-0.1200504272427907
4606,-0.1325128779780354
4607,-0.14205806708612692
4608,-0.14805560889979935
4609,-0.1508406628148019
4610,-0.1520820146974799
4611,-0.15419420648881055
4612,-0.15850399129839257
4613,-0.16336278360143194
4614,-0.16400679365978377
4615,-0.15461030745600968
4616,-0.13075316005948653
4617,-0.08991636935165616
4618,-0.029787379171811585
4619,0.05284019368429724
4620,0.15943775029740212
4621,0.2838490930285111
4622,0.40816179682681475
4623,0.5059624820541291
4624,0.5533550752247833
4625,0.5409641556917241
4626,0.4778044111234141
4627,0.3835240334761525
4628,0.27498088201884496
4629,0.15807194465119567
4630,0.03130336882938202
4631,-0.10278573697448518
4632,-0.22942782029398198
4633,-0.3251691284646805
4634,-0.371393973774251
4635,-0.36711564996987084
4636,-0.3304983473721089
4637,-0.28762032684179095
4638,-0.2570017927328436
4639,-0.24108741007523313
4640,-0.2296037433632242
4641,-0.2104170991140334
4642,-0.17888641577240144
