,0
0,-0.006995257508609352
1,-0.001065777870143805
2,0.004420892395100748
3,0.009758398151007552
4,0.015725551130254367
5,0.02241019481781637
6,0.028265748368583386
7,0.03059340049466197
8,0.0274446651653139
9,0.019495711567535257
10,0.010112531083303317
11,0.0031275797537536286
12,-0.0001281477934566063
13,-0.001997431508256941
14,-0.006502042364458808
15,-0.015495774659655463
16,-0.026267739353085105
17,-0.03315552871711561
18,-0.03239234612828901
19,-0.0261567101218896
20,-0.02178481540665818
21,-0.025986482538499164
22,-0.03862942030934391
23,-0.05177955070103034
24,-0.055541635301501135
25,-0.04609435201087699
26,-0.02885877485467376
27,-0.013772906764672545
28,-0.006869310166644497
29,-0.005971696239580844
30,-0.0045162795947390685
31,0.0004369160801349643
32,0.0042943832158786905
33,-0.0004545025912536529
34,-0.015356902108833186
35,-0.032035204151958
36,-0.03814371244666127
37,-0.0285357314779303
38,-0.011150236232849612
39,-0.0013461672893938085
40,-0.009051447315480753
41,-0.030061852186262353
42,-0.04931295383868588
43,-0.05317337794909343
44,-0.03993258138442257
45,-0.019880054844880316
46,-0.006090581714944987
47,-0.00476301098253365
48,-0.01286700954263851
49,-0.023108256744522073
50,-0.03004956052802703
51,-0.03217133345158891
52,-0.03032595718826503
53,-0.026529923530302667
54,-0.02481807903221337
55,-0.03145670494449161
56,-0.05127869111685066
57,-0.08162019903594225
58,-0.10998629467471614
59,-0.12000422567916595
60,-0.10273259473222311
61,-0.06421640235615994
62,-0.022190762507604964
63,0.005988996896497206
64,0.014307663907816005
65,0.009264887465035093
66,0.001713637264632387
67,-0.0020574372612499675
68,-0.002067707017568308
69,0.00046960172009617067
70,0.007754928107592039
71,0.02352944989582171
72,0.046784532432346135
73,0.06892915430513126
74,0.07930501604732818
75,0.07491924609575631
76,0.06466256227589078
77,0.062497862540547316
78,0.07464055125163546
79,0.0923410823272672
80,0.09763355972087498
81,0.07783462573188535
82,0.036419861324010996
83,-0.009110538649835225
84,-0.04034267411562313
85,-0.05065206951271937
86,-0.047196413333816536
87,-0.041937839299497987
88,-0.04089655019997526
89,-0.041268186412402055
90,-0.03775486873588682
91,-0.03071531324182633
92,-0.027619558028569524
93,-0.036305595547471016
94,-0.056640780664379976
95,-0.07876048624381263
96,-0.08991028523558689
97,-0.08401520855086358
98,-0.06571008036926128
99,-0.045629414066657846
100,-0.03145609504585187
101,-0.022656992090165723
102,-0.013184168667541138
103,0.0008008796984251558
104,0.015494373801390342
105,0.021469717078917958
106,0.011671131491699703
107,-0.011447323911014799
108,-0.036006291650245256
109,-0.0485205837012663
110,-0.04357756580575688
111,-0.02782391759202016
112,-0.01509414036991907
113,-0.016382482304830685
114,-0.03219825262863844
115,-0.05271357951120549
116,-0.06499207097085971
117,-0.061551874753454264
118,-0.04436611122383039
119,-0.022566269475614333
120,-0.006596317211021163
121,-0.002872137315870063
122,-0.011186958941562061
123,-0.024966267507381762
124,-0.03401618243645212
125,-0.029649444241560765
126,-0.01080582423657821
127,0.012778572891300565
128,0.02471745821056299
129,0.013253153427329932
130,-0.017642882965102136
131,-0.047393431527595294
132,-0.051742175121637944
133,-0.021172553134236424
134,0.030128384209398392
135,0.07339908917554522
136,0.08597237938598365
137,0.06642381135984453
138,0.03175981095185702
139,0.0003314158710196139
140,-0.023327795171756857
141,-0.04861924775915
142,-0.08610437514292477
143,-0.1358911125094901
144,-0.18803796883920165
145,-0.2318928895003043
146,-0.2622663906305423
147,-0.27605613886220937
148,-0.26630254716690194
149,-0.2252966399700832
150,-0.157331643682047
151,-0.08663610119727119
152,-0.045553158462383864
153,-0.04659830940777877
154,-0.06242442655224279
155,-0.03715449807571113
156,0.07294600241935806
157,0.26002352216292823
158,0.46058231834606456
159,0.5934527504438931
160,0.6112073349174363
161,0.5253783722079468
162,0.388828657898631
163,0.2543298264468789
164,0.14475887730399545
165,0.05478103537463033
166,-0.026223211703715766
167,-0.09616117274394757
168,-0.14277237771769552
169,-0.15919214539132745
170,-0.1532668971447087
171,-0.14077786041428747
172,-0.13103946026075303
173,-0.12081559983830595
174,-0.10249196819642531
175,-0.07681380145887454
176,-0.055926906711848745
177,-0.05307696300121742
178,-0.06942366974204711
179,-0.09143668344094873
180,-0.10170627968597129
181,-0.0929488672380437
182,-0.07245041460109955
183,-0.05392443958714422
184,-0.045487785376779936
185,-0.044847142626323985
186,-0.04454185012938639
187,-0.04027862767472458
188,-0.0336732161706279
189,-0.027824762894369148
190,-0.021998969672873504
191,-0.012136818297963186
192,0.0030772256163662495
193,0.01757879604976057
194,0.020931146780707573
195,0.007486377749133395
196,-0.016667827232453348
197,-0.03627433124996356
198,-0.03788588282964639
199,-0.020261183874755714
200,0.004709596152262754
201,0.021314698488571968
202,0.021625147356517865
203,0.009966233617487424
204,-0.002479623325196392
205,-0.007250076013125295
206,-0.004045678627335731
207,0.0014395115495164654
208,0.003700249890917833
209,0.0013588562393226245
210,-0.003871746458318992
211,-0.010505978048658802
212,-0.01844121595199071
213,-0.026763277214871192
214,-0.03139006537304534
215,-0.02642204259891636
216,-0.009237883150783301
217,0.015064138647986714
218,0.03470028560413849
219,0.03817529361203584
220,0.022362736364145378
221,-0.004580118188040879
222,-0.027951865140870225
223,-0.035570743123826465
224,-0.024756141513307954
225,-0.002747530818040517
226,0.018898533329326613
227,0.03139646717254322
228,0.03260571627352861
229,0.02614001956023491
230,0.017680187862763964
231,0.011675253890703327
232,0.01018143897666051
233,0.013325006646365874
234,0.01988474717531121
235,0.027315287903713487
236,0.03193169419601362
237,0.03029904737971771
238,0.021679291302500237
239,0.009834235408115035
240,0.0022023321967739487
241,0.006039199813052325
242,0.023482517554534718
243,0.048812482227795696
244,0.07025885051165753
245,0.07597416007109178
246,0.060978124615235496
247,0.030840573164823276
248,-0.000563319516150739
249,-0.018462957387733778
250,-0.015680879844238264
251,0.0029656118052520546
252,0.023357871509676168
253,0.03051475015570943
254,0.01759964460670822
255,-0.010241696205373255
256,-0.03958377215646297
257,-0.057251453994711266
258,-0.057832949669082374
259,-0.04546474887577655
260,-0.029604852141479863
261,-0.018688401794116502
262,-0.016289567910648402
263,-0.021501595754134635
264,-0.03155224050257033
265,-0.043479047755331804
266,-0.053744854519260046
267,-0.05761050567454092
268,-0.05073030980382346
269,-0.032932526891882696
270,-0.010912077155298648
271,0.003876159300622649
272,0.002283343079704864
273,-0.015196209288459704
274,-0.03711611732152925
275,-0.048195106859821785
276,-0.040388425828792346
277,-0.01935284313089343
278,-0.0005437574826469261
279,0.0026865275436789558
280,-0.01029464088471519
281,-0.026865069922413803
282,-0.031427042596252244
283,-0.018148525840336487
284,0.004393278496452424
285,0.02037973340713546
286,0.019381624820773463
287,0.0036828722125331298
288,-0.015370080119069145
289,-0.02778450982299057
290,-0.032301498746093116
291,-0.03456862059118852
292,-0.0390238136135488
293,-0.043182525090486125
294,-0.04012822483682886
295,-0.026570609465057217
296,-0.008221069254140078
297,0.0031833987593896745
298,-0.0011684586873990082
299,-0.020210647807658653
300,-0.04395714350106875
301,-0.06093247621467596
302,-0.06527724925582716
303,-0.058138042661072434
304,-0.04400346720948803
305,-0.026951560455038073
306,-0.010362890838690589
307,0.0012467906583692044
308,0.002351322859319927
309,-0.009849751150674338
310,-0.031269353393380474
311,-0.051333126310710894
312,-0.059300430128392416
313,-0.052069582146639454
314,-0.036817591769467445
315,-0.025733431087393933
316,-0.026854331445723547
317,-0.038490710077636735
318,-0.051659426858922095
319,-0.05798900885795028
320,-0.05592384844633102
321,-0.049915981628547164
322,-0.043976583981923514
323,-0.03635170235155266
324,-0.02108539365183283
325,0.004503687382891918
326,0.03374027428289639
327,0.052906450064738667
328,0.051576486000958544
329,0.03251468612399021
330,0.011655602921862407
331,0.006589119496263046
332,0.022331499474024026
333,0.04651281176350271
334,0.05873040388311215
335,0.04673299218769025
336,0.01605126301438811
337,-0.014718744189054167
338,-0.028489347288533542
339,-0.021683479057770103
340,-0.00446664039211166
341,0.009210687427569132
342,0.012081468786338458
343,0.006294344989019545
344,-0.001563263181930719
345,-0.006700346809448309
346,-0.008179149064026057
347,-0.007176248901935826
348,-0.005415991948670658
349,-0.005674549949064467
350,-0.012076605558633942
351,-0.027420361207811265
352,-0.048920618822930084
353,-0.06739272324845223
354,-0.0728027810612982
355,-0.06252480279209746
356,-0.04457470867427478
357,-0.03174631285650833
358,-0.031166495287486995
359,-0.03875314158170002
360,-0.043870260302976825
361,-0.03977670495799926
362,-0.02979843078834215
363,-0.023340089102219137
364,-0.025891629569192536
365,-0.03312314433208509
366,-0.035065973722287834
367,-0.026321111143588413
368,-0.012198967204209911
369,-0.004609636460995263
370,-0.011461438681019315
371,-0.029538051486093963
372,-0.04739715232176717
373,-0.05531339919807788
374,-0.05293788564125575
375,-0.04801484234621127
376,-0.04818812646100226
377,-0.05410512027375719
378,-0.06003899003978409
379,-0.06055158095916445
380,-0.05604471055766239
381,-0.051706433262085696
382,-0.051298855645491796
383,-0.05241127682534696
384,-0.04821909780393377
385,-0.03421772323586687
386,-0.013396508018966876
387,0.005271983156483541
388,0.013797898418868523
389,0.01124210659846895
390,0.0034938435566276467
391,-0.002641690634014965
392,-0.0052091931643966985
393,-0.00733521193923512
394,-0.012109997358920582
395,-0.017598206925328812
396,-0.0173993376458096
397,-0.006775256149994809
398,0.011328335329580629
399,0.026588649697649853
400,0.028776916583461945
401,0.016569244904115217
402,-3.432191612473892e-05
403,-0.006531715997304465
404,0.004930215422140055
405,0.028989216943374897
406,0.050578811254674706
407,0.05580948984013165
408,0.04142120096158046
409,0.015311719149313764
410,-0.011690517372288056
411,-0.035257339977701405
412,-0.06001515799719933
413,-0.0934211350777011
414,-0.13716562277429836
415,-0.18399583238324502
416,-0.22233462004526577
417,-0.24380283367291383
418,-0.24680298301003548
419,-0.23422696147571007
420,-0.20961682174640997
421,-0.1769347414655124
422,-0.14362426816510163
423,-0.12110524894016608
424,-0.118083187981776
425,-0.12989965082821903
426,-0.13383833836576403
427,-0.09805468942913724
428,-0.0011169202805213878
429,0.15083923265882251
430,0.32228798474505865
431,0.4640994177926306
432,0.5367601461273871
433,0.526667522854509
434,0.447544544897591
435,0.329516525833048
436,0.2045342398310409
437,0.09570562479006214
438,0.013247934513458133
439,-0.04393629732201558
440,-0.08320370988329512
441,-0.11204835460640375
442,-0.13380774956260716
443,-0.14755215374947828
444,-0.1517350605528553
445,-0.1478549148364946
446,-0.1401251989348113
447,-0.13119254506917516
448,-0.11865579519182547
449,-0.09720709855996826
450,-0.06561950161235527
451,-0.031855248095729344
452,-0.009933968847642444
453,-0.009622735811116813
454,-0.027645533030126505
455,-0.04897288592630375
456,-0.05806956038855654
457,-0.05064916473724301
458,-0.03563364820177233
459,-0.025851013591264755
460,-0.02629301947461332
461,-0.030703229220751315
462,-0.029081577480529527
463,-0.01832924830345941
464,-0.005620612826426012
465,-0.0014477346802209546
466,-0.00928590710158421
467,-0.02185914806570726
468,-0.027441479318301175
469,-0.02012876699881288
470,-0.004646254409969309
471,0.008188499131577629
472,0.010544853576723492
473,0.0029100118109278996
474,-0.008170312428247166
475,-0.016430449734295124
476,-0.01984907983488709
477,-0.019499471751105866
478,-0.01629846237132712
479,-0.010217740921517272
480,-0.0026254093121894765
481,0.0020836710048089766
482,-0.0009160065965244768
483,-0.011637874417814623
484,-0.023120504881379098
485,-0.026058112341979883
486,-0.01707170086701769
487,-0.00277733556775476
488,0.005160283492988207
489,0.00024222859800487363
490,-0.012835492080495612
491,-0.02241785001879337
492,-0.02070101277530429
493,-0.010761742102766434
494,-0.002851829259876964
495,-0.003554666523516474
496,-0.008737869184128891
497,-0.007756903735608259
498,0.0048837739673101965
499,0.022144344341978518
500,0.02946888361042229
501,0.018259078991231505
502,-0.004986863541528274
503,-0.023259395871123113
504,-0.02387476470578529
505,-0.00996804571769179
506,0.002395155998726314
507,-0.0006773168287460868
508,-0.01730183898062196
509,-0.03039289960599183
510,-0.022263834770752937
511,0.009663275666494487
512,0.049922897663511455
513,0.07717898774864701
514,0.08053731987538056
515,0.0660355059305848
516,0.04887657223936
517,0.03973674746212712
518,0.03774213115374606
519,0.03522109194112149
520,0.027896145783179165
521,0.01975713784961304
522,0.01812687205378912
523,0.024667218807900418
524,0.032086415002652566
525,0.030390701486127034
526,0.016787855771398456
527,-0.000531634861474744
528,-0.008793790740550193
529,-0.001610379437715781
530,0.015391815040580693
531,0.029183733469873255
532,0.029774682599996015
533,0.017249938864135325
534,-3.18704903870628e-05
535,-0.013269069521669369
536,-0.019490551357799944
537,-0.02136161639553537
538,-0.022350557475815984
539,-0.023046704995523436
540,-0.022162163160580915
541,-0.020228134032607682
542,-0.021113469474826556
543,-0.029048775132052326
544,-0.04393673820249207
545,-0.05997349792890008
546,-0.06959659437166468
547,-0.06945872217824395
548,-0.06282528486038107
549,-0.055956802607195474
550,-0.05179655322980363
551,-0.04711162955369803
552,-0.03619841236048854
553,-0.017934721255851816
554,0.0007515407808029353
555,0.009206673686404267
556,0.0022495549038450344
557,-0.01382028998755087
558,-0.02455477877006313
559,-0.018303731673311216
560,0.004020552985403915
561,0.028859169117726097
562,0.04018535841323735
563,0.031715888840134654
564,0.011087405483990986
565,-0.0071346806089511525
566,-0.013183307483583918
567,-0.008501945852330885
568,-0.0021816107750090973
569,-0.0018786384371389066
570,-0.00796375343052315
571,-0.015493558454702698
572,-0.02058925330674847
573,-0.02401462498950728
574,-0.02859792760106372
575,-0.03417539934461944
576,-0.03639714732016097
577,-0.03128031794118354
578,-0.02069900636609858
579,-0.01238759422309834
580,-0.013491776103227023
581,-0.02365532682621712
582,-0.03469235154941762
583,-0.03764543235957505
584,-0.03067793704892112
585,-0.020307933004484198
586,-0.015006905642220212
587,-0.017583841180106266
588,-0.023620209892488423
589,-0.02684535208742137
590,-0.025446816249253323
591,-0.022922204367472478
592,-0.02327312641640707
593,-0.026335192869345568
594,-0.02848163470769704
595,-0.027642066673586964
596,-0.026556511677101702
597,-0.030044908271441868
598,-0.03889849634897556
599,-0.047308160664123425
600,-0.04752506175728956
601,-0.03774292124857141
602,-0.025136632541004626
603,-0.020262039439184837
604,-0.027644808083778078
605,-0.04157229096581683
606,-0.05130404229855154
607,-0.050725405607983776
608,-0.04312091547761489
609,-0.036696147569565504
610,-0.035749908445333746
611,-0.03658649222945635
612,-0.032142594873773966
613,-0.02019782279396477
614,-0.006347958506330874
615,0.0015446054186596867
616,0.0016907755917626582
617,0.0006661190922298867
618,0.006952240157384137
619,0.0221481933956985
620,0.03891199928932729
621,0.04795696552674984
622,0.0471091707674476
623,0.043140207691813544
624,0.044358799912735225
625,0.051485061974982586
626,0.05634635816304581
627,0.050147277751902836
628,0.033202857759616136
629,0.016111834857779235
630,0.010550319253326279
631,0.018177210997302677
632,0.028314078995046107
633,0.026848279496642154
634,0.008209044941236164
635,-0.02042881754422706
636,-0.04593589392652511
637,-0.059961358072532916
638,-0.06359696150051805
639,-0.06274396765065748
640,-0.06027317190138845
641,-0.05358351954859585
642,-0.039753432975395964
643,-0.02206881166565812
644,-0.01003559098581118
645,-0.011735933908401372
646,-0.02564772873174916
647,-0.04035097592108839
648,-0.043363209646889694
649,-0.03157547309340482
650,-0.01391258796961935
651,-0.003767123993397961
652,-0.007943997349806626
653,-0.021756466036248603
654,-0.03404708908163677
655,-0.03696276920062268
656,-0.03157300171299331
657,-0.024971777001954854
658,-0.022636233184500407
659,-0.023780057337307196
660,-0.02382579652417608
661,-0.020821949616442504
662,-0.018844460313932387
663,-0.024670660557544702
664,-0.04090482327306202
665,-0.06241055544038522
666,-0.079766179124659
667,-0.08662328885716128
668,-0.08405323564471653
669,-0.07794451710977518
670,-0.0723245461813374
671,-0.06539338308024395
672,-0.052209189576813725
673,-0.03119769386773418
674,-0.007724457760340499
675,0.009187203326974404
676,0.014108320865703327
677,0.009567105362124795
678,0.003459643459143675
679,0.0021682843712983214
680,0.0059643811853466264
681,0.01059042413553292
682,0.012577740290306415
683,0.012427560951066358
684,0.012650197914535883
685,0.013559768294696314
686,0.0122306231108122
687,0.006364925217046042
688,-0.0010995151559683792
689,-0.002442400462731155
690,0.008396778237676872
691,0.029085700138814962
692,0.04890465379375057
693,0.056570869485938244
694,0.049253061961362386
695,0.034445970226191704
696,0.022819969764935492
697,0.018746086313574113
698,0.017448022983839736
699,0.011174405168318701
700,-0.002278302852560979
701,-0.017819785886914356
702,-0.03026868544610207
703,-0.04298974362170567
704,-0.06795433113888064
705,-0.11514396245830118
706,-0.18034392398452545
707,-0.24355093330439334
708,-0.2813727528215303
709,-0.2836259779019786
710,-0.2595354633783512
711,-0.22790308652058788
712,-0.20050510668672483
713,-0.1745386022756084
714,-0.14119993156749475
715,-0.1012069657775667
716,-0.07009152015893977
717,-0.0651079285086004
718,-0.0840597034029289
719,-0.09666915982512211
720,-0.06028822666207034
721,0.0494892791654926
722,0.21732141882101147
723,0.3937573034357027
724,0.5241767775235187
725,0.5786135695678295
726,0.5609652125163846
727,0.49481499468558354
728,0.40208726711892145
729,0.2933666647597533
730,0.17439445072381032
731,0.05704854058096986
732,-0.039555299580801895
733,-0.10014273771497789
734,-0.1252110975552167
735,-0.13105343349429663
736,-0.13679530854845023
737,-0.15002492696451833
738,-0.16371346866080336
739,-0.16606971592857112
740,-0.15301831843194746
741,-0.13162911363656232
742,-0.11257871836321161
743,-0.10034093812465085
744,-0.09095863079447711
745,-0.07864586841078144
746,-0.06340898511790369
747,-0.05143725227763773
748,-0.048067034443384574
749,-0.05101992356980315
750,-0.051306062293284396
751,-0.04125018047985417
752,-0.02179375305318972
753,-0.0019024511826639281
754,0.009295615922789742
755,0.010018333681631512
756,0.0060330210944477825
757,0.0039906755411285594
758,0.004897661138386494
759,0.004077150690513058
760,-0.0028954999638619184
761,-0.014745958038796844
762,-0.025133946320532112
763,-0.028465322029961382
764,-0.02471398967278521
765,-0.018407577992499095
766,-0.013283627202415448
767,-0.008726131876717325
768,-0.0020383204375104746
769,0.005997342145633777
770,0.008948107948357206
771,-0.0004011039140348746
772,-0.02196721883457313
773,-0.04521155546191535
774,-0.05532120083208513
775,-0.04445510835189989
776,-0.018430320419952552
777,0.007315691088748466
778,0.01928300768326943
779,0.015193328311201203
780,0.0035357187464362793
781,-0.0051606724889617225
782,-0.006820400307569496
783,-0.004835373146974645
784,-0.004161129529014441
785,-0.005501837875394163
786,-0.005534108097419001
787,-0.0021662394739434838
788,0.0016028896412652867
789,5.148025806903014e-06
790,-0.009064936265693609
791,-0.020353504085486238
792,-0.024733100328754545
793,-0.017083626879658014
794,-0.001098913760881403
795,0.013709566361041307
796,0.0200316740136549
797,0.018242281519698353
798,0.014474358070234098
799,0.013747434714080652
800,0.015203136920383798
801,0.013876050474999818
802,0.0065530618460780485
803,-0.00468756331534655
804,-0.014784100536888216
805,-0.02093180491052741
806,-0.024774972434215937
807,-0.029112970950853877
808,-0.032973489443504964
809,-0.031064425539017636
810,-0.01907953974162439
811,0.00028194143558324175
812,0.017315589294613506
813,0.022515106354120608
814,0.014790494367584603
815,0.002855028904517152
816,-0.0019664817142855257
817,0.0048541471103836775
818,0.01796254288280162
819,0.027904583906754106
820,0.02995258062453174
821,0.027520189699099615
822,0.02728843836876129
823,0.03136359730252308
824,0.034547761872214464
825,0.029532147824964237
826,0.014846301131494353
827,-0.0023956287054278914
828,-0.011847475546837337
829,-0.008426156781938584
830,0.003951962146173579
831,0.01657474849159744
832,0.02364652125422556
833,0.02604248277421047
834,0.027985282372018812
835,0.030749421950291067
836,0.030361966125837546
837,0.02197289215990143
838,0.0064808476829629445
839,-0.0077247869313378965
840,-0.010554877184393407
841,0.0012171454238350402
842,0.02045546316692464
843,0.034674756614817455
844,0.03527201905378238
845,0.02294592136706504
846,0.005046027356524891
847,-0.011832767039044869
848,-0.026615351343231355
849,-0.0416630001590661
850,-0.05675845260441431
851,-0.06604471549434979
852,-0.06174264284222855
853,-0.04148900025720541
854,-0.012185638283601197
855,0.013731401692723208
856,0.026638747915640894
857,0.025486698857161573
858,0.016374264896902448
859,0.006089999212844527
860,-0.0029468333873744245
861,-0.012065086605362534
862,-0.021856457238244354
863,-0.029403685147854956
864,-0.030547603179907123
865,-0.02479404504378635
866,-0.017310431923150016
867,-0.015222589407219222
868,-0.021313024142164648
869,-0.031189375573164903
870,-0.0368838222497849
871,-0.0336570082849965
872,-0.023674225753236005
873,-0.013316653055232665
874,-0.007105403914282785
875,-0.004340321106763729
876,-0.0015059086934042843
877,0.0025619623504701938
878,0.00459770371730487
879,0.00043025174498717675
880,-0.00950152237640647
881,-0.01878319181970397
882,-0.0200219484888105
883,-0.011791806382981196
884,-0.0005753623808028273
885,0.004753302157159928
886,0.000979535905496016
887,-0.006678738379059586
888,-0.010043001308687512
889,-0.006531059877021196
890,-0.0022631626148668814
891,-0.00623172809941525
892,-0.020884620515755487
893,-0.038406039549443174
894,-0.046824225384241566
895,-0.040566552259003824
896,-0.025500151439715554
897,-0.013559759154873017
898,-0.012046535534512204
899,-0.017833209843994426
900,-0.02185995065984835
901,-0.01913076006397498
902,-0.013993234398443938
903,-0.015282599849777312
904,-0.02623729347848455
905,-0.03961017630083807
906,-0.0434302507285277
907,-0.032205511430980535
908,-0.012629553041175301
909,0.002056932875398584
910,0.003849291383580066
911,-0.0034018131605554574
912,-0.008870641928962995
913,-0.00622012969244399
914,-0.000262226152027219
915,-0.0021366556603065294
916,-0.017618126557167827
917,-0.03997241291436866
918,-0.05448807935851889
919,-0.050665228766237004
920,-0.0308754832812334
921,-0.007873704595223185
922,0.005920046627355489
923,0.007242631960968542
924,0.0015354880358920925
925,-0.0047515303653271005
926,-0.010526454636905217
927,-0.018970369050665768
928,-0.031218374977612227
929,-0.042464767722420735
930,-0.04528210969197402
931,-0.03703035241949626
932,-0.023609258472567243
933,-0.015262212863770788
934,-0.018114223357491795
935,-0.029466490498267082
936,-0.041167654099460785
937,-0.0474067496316585
938,-0.049085899403133626
939,-0.05070469551749098
940,-0.05352135893016672
941,-0.05264395832815784
942,-0.041635335057296344
943,-0.020252436549954216
944,0.0028155115680929287
945,0.015878167332040498
946,0.014010166582222996
947,0.0036492350337024265
948,-0.0025170261231976594
949,0.004057463598472302
950,0.02141885415746818
951,0.04016250574344306
952,0.05234288429239169
953,0.057462698475981434
954,0.06021338248357376
955,0.06318762970009054
956,0.06279473354749031
957,0.0530324299567044
958,0.033262341601043625
959,0.011474955427578485
960,-0.001266859456040604
961,-0.00045798362546487035
962,0.007585092463659663
963,0.011467593670593322
964,0.005259133066100906
965,-0.006415408840274157
966,-0.013850050811638679
967,-0.01289875036346163
968,-0.009982387795685709
969,-0.01603095164103968
970,-0.03498140515379344
971,-0.05818974460694811
972,-0.07064232196984317
973,-0.06344139880566166
974,-0.04097400162585923
975,-0.016426587469365986
976,-0.0005369308114105955
977,0.005531292358039871
978,0.00725665809134035
979,0.008286495077901586
980,0.006079443350570568
981,-0.0038416401899343325
982,-0.02021269260649217
983,-0.03399431553650829
984,-0.035110362563209936
985,-0.02168525048865804
986,-0.0025442234885941573
987,0.009704915203251663
988,0.008465533094900508
989,-0.0031699500474071454
990,-0.017316526487814964
991,-0.028795050745602686
992,-0.03761699861895701
993,-0.045170475801793834
994,-0.049880168664616815
995,-0.048224263049742117
996,-0.04026632787198113
997,-0.03293136751641183
998,-0.03591895815369488
999,-0.052954641694550525
1000,-0.0767706640622186
1001,-0.09343457005963604
1002,-0.09280915875434831
1003,-0.07586488781784675
1004,-0.05248332441284255
1005,-0.032452224096144844
1006,-0.018528199872494856
1007,-0.007674928489291239
1008,0.002096779484814712
1009,0.007498803094093318
1010,0.003415756381538626
1011,-0.009500083377098737
1012,-0.021707669614843488
1013,-0.02080843222433061
1014,-0.002124837148015624
1015,0.02608189359993676
1016,0.048328231065330476
1017,0.05398916954616525
1018,0.04500334714680598
1019,0.03243165872774971
1020,0.025565876681717354
1021,0.024172068896749624
1022,0.021046697673388917
1023,0.011688913996012996
1024,0.0007901159464887388
1025,-0.0014822719955334134
1026,0.010055005443135777
1027,0.029062379865950005
1028,0.04221106060264411
1029,0.04093105784921347
1030,0.028974398825711605
1031,0.018157808694131417
1032,0.016330168231006262
1033,0.019592640385243484
1034,0.016755972202387885
1035,0.0015810902746317248
1036,-0.020038502377967976
1037,-0.036197996429139546
1038,-0.04301985384145443
1039,-0.05208888152651581
1040,-0.08197085724538626
1041,-0.1399148642181518
1042,-0.21064619005435903
1043,-0.2641276535543859
1044,-0.27711546881939886
1045,-0.2501498948032164
1046,-0.20519077960155607
1047,-0.16657624910945387
1048,-0.14299194766526074
1049,-0.12636984640609417
1050,-0.10675415295014616
1051,-0.08651104383617626
1052,-0.078161559559041
1053,-0.08695760103233142
1054,-0.09581105732464712
1055,-0.06993826421790696
1056,0.01897154513872265
1057,0.1679886417824498
1058,0.3387596090319651
1059,0.4784048243352343
1060,0.5493774156816809
1061,0.5459431432531333
1062,0.4877819649322639
1063,0.40045598567295554
1064,0.30075713514203795
1065,0.19642645520615792
1066,0.09454116472017862
1067,0.006081717584739033
1068,-0.05894121485409064
1069,-0.09960211702062868
1070,-0.1252309724224227
1071,-0.14698815299713885
1072,-0.1677256998377452
1073,-0.18023737134120502
1074,-0.17563132281739813
1075,-0.15339499456624717
1076,-0.12322882301325389
1077,-0.09722812485522915
1078,-0.08057775249540555
1079,-0.0698577237126293
1080,-0.05975139195186989
1081,-0.05027272056679204
1082,-0.04654433555847933
1083,-0.05150673907179451
1084,-0.05982213715855085
1085,-0.06034880707341347
1086,-0.045742552139173685
1087,-0.020044609746128483
1088,0.0034977549356559542
1089,0.012886942432761873
1090,0.006664511140655839
1091,-0.00622136930115191
1092,-0.015166656505426247
1093,-0.01653697677703906
1094,-0.014286617628873136
1095,-0.01315030459641062
1096,-0.01235981327357398
1097,-0.006761444365285051
1098,0.005995002675554953
1099,0.020294923730652
1100,0.0257734440277142
1101,0.016600127681014713
1102,-0.002230468464486157
1103,-0.018396754525360035
1104,-0.022894571881569854
1105,-0.01784805134749979
1106,-0.01379961105279465
1107,-0.01884813315017932
1108,-0.030096975854640586
1109,-0.035896668524758264
1110,-0.02697845127645946
1111,-0.005821204265242795
1112,0.01487087884213964
1113,0.02323404372694013
1114,0.01829871765401024
1115,0.009571330613875061
1116,0.006991192319038525
1117,0.011418910719840405
1118,0.01492402116281038
1119,0.010057746261256615
1120,-0.0017653882042071637
1121,-0.011545412712428694
1122,-0.012291656914094451
1123,-0.006829296168049389
1124,-0.005350141793596604
1125,-0.014768891168959191
1126,-0.030675723519109188
1127,-0.04052880247306101
1128,-0.03555510374746404
1129,-0.019766976074922376
1130,-0.006851452302030738
1131,-0.007440546807331571
1132,-0.01889458724440804
1133,-0.02758900993051777
1134,-0.021703034123851012
1135,-0.0023532916942423767
1136,0.017464749764930114
1137,0.024893465534321542
1138,0.018569264240230414
1139,0.008731659880422038
1140,0.006652479222405241
1141,0.014104719989544285
1142,0.02292224344652606
1143,0.024308185336399925
1144,0.01802332821930295
1145,0.012261782343432408
1146,0.014782721397985598
1147,0.024623544521767828
1148,0.032779066923032354
1149,0.030927140531118814
1150,0.01927814974735327
1151,0.005906212756458947
1152,-0.0012051421142938242
1153,-0.0010057706038205222
1154,0.0015414093994280801
1155,0.0023281611284442037
1156,0.0029556114346734404
1157,0.008166735034908392
1158,0.018822548954176736
1159,0.028581570928988602
1160,0.02879686345068827
1161,0.017317988157624937
1162,0.0021297958379661286
1163,-0.004667627949466503
1164,0.0025574641157892803
1165,0.017860787116048875
1166,0.029198825922837596
1167,0.029422697151830778
1168,0.02230680848570639
1169,0.017910004195931042
1170,0.021936772771822627
1171,0.029583737176305136
1172,0.029930197953000892
1173,0.016613886821182443
1174,-0.005582541786576684
1175,-0.02460548815520197
1176,-0.0317069412215673
1177,-0.02861620512731909
1178,-0.024713964741855447
1179,-0.027390153222371427
1180,-0.03517221259470506
1181,-0.04010110517203843
1182,-0.0364957849188434
1183,-0.027025913748036784
1184,-0.020005647881058082
1185,-0.020875731284127483
1186,-0.026771912584532848
1187,-0.029877746644704002
1188,-0.026149125259076762
1189,-0.020242733705865303
1190,-0.0210931813098397
1191,-0.03215084387040976
1192,-0.04620350450477445
1193,-0.05072173845564976
1194,-0.03935608503948579
1195,-0.018684000577550347
1196,-0.003277996577637431
1197,-0.003150849851441498
1198,-0.015086092247296571
1199,-0.025934363717035582
1200,-0.02476969612454903
1201,-0.012540199171253475
1202,-0.00040106643403403685
1203,0.0012635920727991992
1204,-0.007509033874947658
1205,-0.01688433490560709
1206,-0.01700962277549705
1207,-0.007288458577211727
1208,0.0034889602275946594
1209,0.005687363277215651
1210,-0.002499576644521553
1211,-0.014209507156660304
1212,-0.0208415894618194
1213,-0.019475441044332943
1214,-0.013942574437048607
1215,-0.00966277813313247
1216,-0.008368998979094662
1217,-0.008034834250968632
1218,-0.0071475686941924466
1219,-0.00777031724699959
1220,-0.013504829822421242
1221,-0.024472764943041927
1222,-0.03517462013749864
1223,-0.03841222257488015
1224,-0.03202775051171552
1225,-0.02174415316154825
1226,-0.01672301103131931
1227,-0.02151427085868423
1228,-0.031867850971424486
1229,-0.03849199441304846
1230,-0.03539893900199263
1231,-0.0251365263048239
1232,-0.01616160989852987
1233,-0.015013984794981469
1234,-0.02069404702299442
1235,-0.026286949688622857
1236,-0.0258601269173164
1237,-0.019839094824465366
1238,-0.0139605464645388
1239,-0.013391154757583092
1240,-0.01815803097331161
1241,-0.024259718186578107
1242,-0.02874169885932201
1243,-0.032951900184216794
1244,-0.040321173092650896
1245,-0.05111239508463947
1246,-0.060228206632659875
1247,-0.06131112049514226
1248,-0.053638336292948736
1249,-0.04460767901586796
1250,-0.04417450940979798
1251,-0.05546167884438744
1252,-0.07028053198105513
1253,-0.07458758279915784
1254,-0.059912211018424325
1255,-0.030872879564214965
1256,-0.0018986128594089945
1257,0.014234429844861795
1258,0.016119018929357257
1259,0.013408592500141937
1260,0.017319348274240257
1261,0.03087869137318927
1262,0.047513187862454
1263,0.058372227356970535
1264,0.06067950258430904
1265,0.05904007631266402
1266,0.05906476870357287
1267,0.060432661578675814
1268,0.056921907886118506
1269,0.0436278780744954
1270,0.023883743126828665
1271,0.008156893610574263
1272,0.004987784267287147
1273,0.012343760156416866
1274,0.018179531519284777
1275,0.010597424131054134
1276,-0.011386050473179924
1277,-0.036602275914976584
1278,-0.05149388153449497
1279,-0.051914726554765374
1280,-0.045899874093120165
1281,-0.044890579124233734
1282,-0.052042985367628275
1283,-0.05914135810773597
1284,-0.05525871648017176
1285,-0.03867983282079447
1286,-0.020136900872817647
1287,-0.013695498929524659
1288,-0.023711981792362165
1289,-0.04034087789776429
1290,-0.04803836220321517
1291,-0.03916281637504848
1292,-0.02009795938084346
1293,-0.0047101191995729845
1294,-0.0019743213246455485
1295,-0.009528084571452308
1296,-0.018328860376811563
1297,-0.02253064465771605
1298,-0.024255207961586152
1299,-0.029096416363066906
1300,-0.03813065328594957
1301,-0.04558281876966566
1302,-0.04489057449966991
1303,-0.03667135595488302
1304,-0.02976839120417586
1305,-0.03358921192088335
1306,-0.04907839200266485
1307,-0.06742608935537533
1308,-0.0780607889874734
1309,-0.07816932188690645
1310,-0.07433804535073572
1311,-0.07468285136742742
1312,-0.07935401468298746
1313,-0.07909818517519429
1314,-0.06376715623731787
1315,-0.03287171758752554
1316,0.0019524876225821969
1317,0.025196484229215756
1318,0.029112539373283303
1319,0.018507742404828283
1320,0.005179687804017787
1321,-0.0019947260460604554
1322,-0.0021602791003261903
1323,0.0005925890583427847
1324,0.003498934571582554
1325,0.00727904890501427
1326,0.012550909622701754
1327,0.015978138741387253
1328,0.012176587115929243
1329,0.0005328837445751843
1330,-0.010658607795987629
1331,-0.008980973627510856
1332,0.011162645983812369
1333,0.04172393629135365
1334,0.06602417468635674
1335,0.0721784117208349
1336,0.06265537340315191
1337,0.050678342370454835
1338,0.046819484103947887
1339,0.04899182153198892
1340,0.0457458030370155
1341,0.029148566894853352
1342,0.0033925039827128137
1343,-0.020482589174627315
1344,-0.03854275172485837
1345,-0.06124816456100468
1346,-0.10454108025069188
1347,-0.1719301534990471
1348,-0.24544290254649168
1349,-0.2961761798289584
1350,-0.3063548966166032
1351,-0.2829338068317243
1352,-0.25023221573284427
1353,-0.22896941224501738
1354,-0.22162284715045955
1355,-0.2166408383712444
1356,-0.2043602993194027
1357,-0.1858968823807291
1358,-0.1649533467001057
1359,-0.13247275268027842
1360,-0.064069131184933
1361,0.06143637616819823
1362,0.2365900813143838
1363,0.4177673257623905
1364,0.5467726532749612
1365,0.5867804699692083
1366,0.5438138935058264
1367,0.4567247187182475
1368,0.36558367641140804
1369,0.2857806037147005
1370,0.2076983628398058
1371,0.11772439932008337
1372,0.01846441429060204
1373,-0.0701975443084632
1374,-0.1277314031497337
1375,-0.14974542294120868
1376,-0.14934783724797696
1377,-0.1436427263865442
1378,-0.1396227895926653
1379,-0.13248722828451934
1380,-0.11604992997173813
1381,-0.0932898679610995
1382,-0.0760439638617435
1383,-0.07431342256679718
1384,-0.08593959048430111
1385,-0.09691528740060096
1386,-0.09248597334554345
1387,-0.06933041232502485
1388,-0.038369619246586384
1389,-0.016195086571171382
1390,-0.012713514276279848
1391,-0.02504201637514491
1392,-0.04155832672043817
1393,-0.05138871558710584
1394,-0.05106094336035087
1395,-0.04391955410019835
1396,-0.034818964937160135
1397,-0.02603259017498274
1398,-0.01765464223488894
1399,-0.010435247999013514
1400,-0.006641198364779591
1401,-0.007381849331599014
1402,-0.009533062477656291
1403,-0.006623162823981336
1404,0.00583906546290896
1405,0.025206460472293454
1406,0.04209487539282057
1407,0.04688699689852582
1408,0.0369831715101201
1409,0.018450417890239552
1410,0.0008280242826880467
1411,-0.009916280033632985
1412,-0.01406731934656661
1413,-0.015077035093327973
1414,-0.01500824176914206
1415,-0.013530274519457732
1416,-0.010818940482430237
1417,-0.010006003578565537
1418,-0.015352315157872089
1419,-0.027495850143539335
1420,-0.041098808873655024
1421,-0.04828619457499968
1422,-0.04517913747568826
1423,-0.0351136170271254
1424,-0.02509345865438705
1425,-0.018880197558047967
1426,-0.013725530846935348
1427,-0.004131340489066878
1428,0.011243467437621467
1429,0.02678599967037148
1430,0.03437646377660594
1431,0.03078210507786014
1432,0.02062957074222001
1433,0.012034498534666482
1434,0.009318441194277844
1435,0.009971302124174942
1436,0.008492455709496482
1437,0.0028074806282738438
1438,-0.0032992454054215593
1439,-0.0038796614036991158
1440,0.0034273402074122042
1441,0.015309991069443786
1442,0.02590425435217896
1443,0.03141292002644988
1444,0.031608929575053596
1445,0.027507948269548062
1446,0.018674930383916124
1447,0.0036977800434758955
1448,-0.016418401807212712
1449,-0.03562404093785916
1450,-0.04427331613002831
1451,-0.03435524607544177
1452,-0.00493635203084859
1453,0.03598978084603274
1454,0.07455006467853122
1455,0.09725912267456555
1456,0.09719250443697183
1457,0.07690067473887315
1458,0.04653282721970138
1459,0.018217218746785127
1460,8.105464682773254e-05
1461,-0.006407154576739637
1462,-0.004643496829820558
1463,0.0008720181912734411
1464,0.006553902605629422
1465,0.008998089494699522
1466,0.004349087721482254
1467,-0.009071739113174875
1468,-0.026181490487144812
1469,-0.03443791364596367
1470,-0.021278067562453457
1471,0.01406918264389333
1472,0.05497437843106707
1473,0.07577830826725512
1474,0.05994913716374383
1475,0.013439795333775264
1476,-0.039030761000735714
1477,-0.07251809040781101
1478,-0.07936118331673817
1479,-0.07062417230574083
1480,-0.0615808480575718
1481,-0.05634088066505227
1482,-0.04673127440703913
1483,-0.025524497761382905
1484,0.0008203601888815701
1485,0.0143806318621065
1486,0.002038452481002929
1487,-0.03000992554876946
1488,-0.058545904391687026
1489,-0.061622776864991485
1490,-0.03672659168025989
1491,-0.0027055119208758433
1492,0.015679475240173518
1493,0.0065735533866632615
1494,-0.0222047178193149
1495,-0.05167741556085258
1496,-0.06572880265334494
1497,-0.05888608943412897
1498,-0.03478480621896092
1499,-0.0010735285674465596
1500,0.0331430146839101
1501,0.05755761120740313
1502,0.06300727446982729
1503,0.04710446012739062
1504,0.018059123825508946
1505,-0.009263292398088614
1506,-0.023939116039742737
1507,-0.02720732609193753
1508,-0.029798382702223108
1509,-0.03982495807237073
1510,-0.052684315937407106
1511,-0.05374593759001946
1512,-0.03265476381069897
1513,0.003996331282595051
1514,0.034758397108985054
1515,0.04001727777468658
1516,0.01880758700637738
1517,-0.010035542226544129
1518,-0.024374571477448242
1519,-0.01845495132970318
1520,-0.0077640974333211005
1521,-0.014213430436816287
1522,-0.044806860092367576
1523,-0.08320592307872982
1524,-0.1022133536421002
1525,-0.08652698785352167
1526,-0.04606733304691226
1527,-0.008643906129763948
1528,0.0013475980941159934
1529,-0.01977776873729243
1530,-0.05495792827195417
1531,-0.0814633706992598
1532,-0.08707130684086112
1533,-0.07470938052756007
1534,-0.0547017445232621
1535,-0.03423162027514122
1536,-0.013858766309905615
1537,0.0076781335718785
1538,0.02735810522628318
1539,0.03768654080947852
1540,0.032739602602895906
1541,0.014229171516657077
1542,-0.008546876468712588
1543,-0.02500589856533989
1544,-0.03026226056072736
1545,-0.02705555520479981
1546,-0.021796238698029068
1547,-0.018854766482582684
1548,-0.0179108161624938
1549,-0.015785644480673662
1550,-0.010375733717204277
1551,-0.0032559130955786787
1552,0.000769051144291431
1553,-0.0033917942853817847
1554,-0.017410100528859704
1555,-0.03697666549711684
1556,-0.05212332324212719
1557,-0.05140048285749599
1558,-0.028775128093786143
1559,0.010674940832983072
1560,0.05109744521155321
1561,0.07391406162456203
1562,0.06935427647739664
1563,0.043340276359726926
1564,0.013918096703670321
1565,-0.0008561812715382499
1566,0.005297231152938895
1567,0.024243930631317252
1568,0.041302454105844696
1569,0.04643045378289493
1570,0.039439492129935486
1571,0.02600935580686127
1572,0.009775126955345798
1573,-0.011143019067490462
1574,-0.03975701193114691
1575,-0.07268770836514973
1576,-0.09778207763256738
1577,-0.1007974960701256
1578,-0.07671819504139281
1579,-0.03635380770746964
1580,-0.0017735386738880988
1581,0.00741193583077422
1582,-0.01241158832067275
1583,-0.04538591202205487
1584,-0.06596823387736517
1585,-0.05596822623058455
1586,-0.01744090709272747
1587,0.027668311781350912
1588,0.05148889482065802
1589,0.038667556752486384
1590,-0.0033917349677148514
1591,-0.049759469959378924
1592,-0.07500505362049774
1593,-0.0698298523167287
1594,-0.045662936103467895
1595,-0.02482277260254461
1596,-0.02443445770275093
1597,-0.0458848004454315
1598,-0.07601306976632487
1599,-0.09701462526796355
1600,-0.09696683666899017
1601,-0.07490603703366852
1602,-0.03977715879104762
1603,-0.005838914163710267
1604,0.013261840124995226
1605,0.010546425712729264
1606,-0.01025836919343405
1607,-0.03611054267770813
1608,-0.05266929597157896
1609,-0.05432939942738567
1610,-0.0477864768781653
1611,-0.044479140707307865
1612,-0.04735815922091394
1613,-0.044537874268061085
1614,-0.018045326246444927
1615,0.03786650707729201
1616,0.10514097862450694
1617,0.1497764824843485
1618,0.1453959562648533
1619,0.0939348230975103
1620,0.02572375016080264
1621,-0.021978748205573932
1622,-0.03087729628348425
1623,-0.011491568733575928
1624,0.009451341034840044
1625,0.011918948128666243
1626,-0.003420225859777997
1627,-0.019865901923217584
1628,-0.02161679471789759
1629,-0.0078100214582114405
1630,0.006761201515156517
1631,0.002631940317284707
1632,-0.03160968614629968
1633,-0.09370210462029391
1634,-0.17068834145744896
1635,-0.24583602689565937
1636,-0.304282658097059
1637,-0.3357106914877469
1638,-0.33550184329056904
1639,-0.3058829099207587
1640,-0.25648701413712777
1641,-0.20231135898499444
1642,-0.15801122421548464
1643,-0.1302351317769288
1644,-0.11213344461518544
1645,-0.08426130238755764
1646,-0.023253840885334137
1647,0.0848980242167943
1648,0.2338112030212828
1649,0.3948737735661333
1650,0.5271893274302486
1651,0.595006467425869
1652,0.5832694079408014
1653,0.5025210379761309
1654,0.3808975096824312
1655,0.2491419232724193
1656,0.1284778418614975
1657,0.027827001295171776
1658,-0.05100303274321093
1659,-0.1072996673805681
1660,-0.14055717154308067
1661,-0.1540006209870985
1662,-0.15634530824575127
1663,-0.15717954806435386
1664,-0.15881760168260994
1665,-0.15316562892439667
1666,-0.1291542510507529
1667,-0.08603766094400953
1668,-0.04004597014428474
1669,-0.015565917516337199
1670,-0.025815964443025863
1671,-0.05958864675473474
1672,-0.08779903758138786
1673,-0.08672943749210735
1674,-0.058578843769668265
1675,-0.03020589313106601
1676,-0.02942658288355749
1677,-0.05899555576068401
1678,-0.0919275847700792
1679,-0.09360198581851331
1680,-0.05198323527720049
1681,0.010588508829705419
1682,0.0545869032363227
1683,0.054538266292838665
1684,0.01757563633432815
1685,-0.025252112855888353
1686,-0.04523399113600382
1687,-0.03620493649403807
1688,-0.013172140388175164
1689,0.005358301460774316
1690,0.012702097511265529
1691,0.013840407215564334
1692,0.013714110629809326
1693,0.008837685481141909
1694,-0.008190746992599253
1695,-0.036617226838073995
1696,-0.06202987419595664
1697,-0.06538830608172683
1698,-0.039761034717336045
1699,0.000726237716407274
1700,0.02922116277161368
1701,0.026059883724872165
1702,-0.005880572225023728
1703,-0.043012107503969554
1704,-0.05856408032709688
1705,-0.04192728181395622
1706,-0.0052580792466047355
1707,0.02653695549022591
1708,0.033696095612434376
1709,0.013952271090231668
1710,-0.018321219424950786
1711,-0.04341064154994777
1712,-0.048613967145109405
1713,-0.03359795500218413
1714,-0.00744281158524512
1715,0.018066053081665874
1716,0.03360560526242793
1717,0.0342034132645495
1718,0.019572202140389093
1719,-0.00535924670989601
1720,-0.030562813858980457
1721,-0.04396939432083048
1722,-0.037642048833361356
1723,-0.013363395272583487
1724,0.017286584679609605
1725,0.03962483106533696
1726,0.04487054743982861
1727,0.03470390884536372
1728,0.018331786384733165
1729,0.005404383127971641
1730,0.0010500272002216544
1731,0.006068609871620585
1732,0.019630237145673496
1733,0.03986440628710028
1734,0.061501582887595774
1735,0.07471890364505625
1736,0.06936625166724765
1737,0.04299746883633759
1738,0.00558772010624561
1739,-0.024920618403047927
1740,-0.03421246548627135
1741,-0.021244452711083293
1742,0.0020743830170968794
1743,0.020543969812411484
1744,0.026078354963561763
1745,0.020536644827338704
1746,0.010472640216131406
1747,0.0005114505261169192
1748,-0.00828506819296183
1749,-0.015337921073533054
1750,-0.018245150193775136
1751,-0.014954424467330363
1752,-0.007828315865013227
1753,-0.0037895664689766638
1754,-0.0086441873406938
1755,-0.020639577834593872
1756,-0.030422380879411508
1757,-0.028806349600190604
1758,-0.015642200912701666
1759,-0.001094327238509744
1760,0.0026426739907855533
1761,-0.008002286742167344
1762,-0.024731936586409917
1763,-0.0346438221291442
1764,-0.03144993698328284
1765,-0.020588183816632046
1766,-0.01391682879431972
1767,-0.019104138851931775
1768,-0.03320413694775035
1769,-0.04563828879220637
1770,-0.047305719658582934
1771,-0.03764307476380839
1772,-0.02407149392768588
1773,-0.015326278957759766
1774,-0.015038299079100734
1775,-0.02066854702593683
1776,-0.027395320084802447
1777,-0.03226978365889012
1778,-0.03466328326920821
1779,-0.033553407816141176
1780,-0.025811910649266523
1781,-0.008665190952223168
1782,0.01525370735509751
1783,0.035649924566025545
1784,0.039167622450043085
1785,0.01892396141432915
1786,-0.01837667971065684
1787,-0.05455850252329497
1788,-0.07117609312882422
1789,-0.06186467083915039
1790,-0.03624464628818713
1791,-0.012253988099679026
1792,-0.0031232666061668333
1793,-0.009340387349457795
1794,-0.02126398000166009
1795,-0.02882578341326656
1796,-0.029308230855444563
1797,-0.027096821906246217
1798,-0.027308091249067835
1799,-0.03047373434283355
1800,-0.03329237073834117
1801,-0.033613126633699475
1802,-0.033488577789853494
1803,-0.03661374292264295
1804,-0.042903438152796035
1805,-0.046468184974440524
1806,-0.04004321138845731
1807,-0.02220847155475961
1808,-0.0004055005606243933
1809,0.013654266627157451
1810,0.012509594541667567
1811,-0.0019410157881620338
1812,-0.020827204614696032
1813,-0.03544936943627387
1814,-0.04266825137313508
1815,-0.044615054669866185
1816,-0.044598713372762
1817,-0.044106201347193376
1818,-0.043390302355014225
1819,-0.04352468409551345
1820,-0.046289024827132375
1821,-0.05141151756934129
1822,-0.054712781774162125
1823,-0.050599881676003725
1824,-0.03769592831507612
1825,-0.022079575231810762
1826,-0.01381633953832773
1827,-0.01878612849766326
1828,-0.03309402250683499
1829,-0.04577452236222302
1830,-0.0478897463688167
1831,-0.0397199282451685
1832,-0.029190130687560746
1833,-0.02305754917586192
1834,-0.019640014864412962
1835,-0.010601011879876967
1836,0.009626159089329643
1837,0.03611663518583902
1838,0.055639293744804544
1839,0.05749278847641283
1840,0.04308181196294915
1841,0.0250986521868131
1842,0.016856031227298746
1843,0.02156205418156356
1844,0.03114762060288142
1845,0.034933859864189315
1846,0.029220643706643665
1847,0.01875800165831875
1848,0.009779779018423286
1849,0.0027731515836321996
1850,-0.007157822507598507
1851,-0.023003225348353792
1852,-0.03998872230969126
1853,-0.04823738781146329
1854,-0.042040314494368215
1855,-0.02643507997691937
1856,-0.013871833760646827
1857,-0.01349424569870443
1858,-0.023189491895907702
1859,-0.03219859214018067
1860,-0.03184769601558876
1861,-0.02397455728893865
1862,-0.018869293873673622
1863,-0.024852383315827106
1864,-0.03978479539440061
1865,-0.052801942719849844
1866,-0.05446374612993539
1867,-0.04535687081552604
1868,-0.034936991346529764
1869,-0.03212049084957373
1870,-0.03709137608005133
1871,-0.042222430459429805
1872,-0.0407405873283047
1873,-0.034153341751731146
1874,-0.03095821058583706
1875,-0.038040907004207744
1876,-0.053451360017791036
1877,-0.06776659472032162
1878,-0.07267118677113155
1879,-0.068328347082842
1880,-0.062477707922717854
1881,-0.06242935067473848
1882,-0.06797378992029293
1883,-0.0720223756652445
1884,-0.0679538725450457
1885,-0.056081000353271133
1886,-0.04282159322602304
1887,-0.0337230912712714
1888,-0.027759879694985265
1889,-0.018972918213752805
1890,-0.003887033916920298
1891,0.013079072842035194
1892,0.022372710438249486
1893,0.018261859765391554
1894,0.005343466879358303
1895,-0.004351835890744985
1896,-0.0017462873849622314
1897,0.01093615798686116
1898,0.022075184262153665
1899,0.0215370664513036
1900,0.010476445378344641
1901,0.000593268828291769
1902,0.0032197640580311645
1903,0.018460432715469495
1904,0.03481803120426615
1905,0.039782656347259644
1906,0.031228697598162103
1907,0.018621213036679803
1908,0.013019615063638227
1909,0.01593236812941095
1910,0.018152471586226314
1911,0.00954641612949607
1912,-0.01046944867706967
1913,-0.032836238060797794
1914,-0.04948536883957004
1915,-0.06357744948472366
1916,-0.0879688161063387
1917,-0.13221836385268831
1918,-0.1904705199496044
1919,-0.24253072736208042
1920,-0.26800737630993265
1921,-0.26083272560464543
1922,-0.23137691606404362
1923,-0.1956762403429994
1924,-0.16332717675908767
1925,-0.13517893796934266
1926,-0.1101226083886366
1927,-0.09014793702607565
1928,-0.07565123914978988
1929,-0.05584869587813648
1930,-0.007717315321904063
1931,0.08949346460612345
1932,0.2334317679579866
1933,0.3904317928527495
1934,0.5106161423864026
1935,0.5570134863562932
1936,0.526203783243397
1937,0.4446062837384104
1938,0.34532546010569104
1939,0.2463482075598578
1940,0.14750463292691374
1941,0.04498521554131999
1942,-0.05360954441244793
1943,-0.12927601624432297
1944,-0.16620245891615776
1945,-0.16605402362980418
1946,-0.1478484140209145
1947,-0.13355038554931914
1948,-0.13273133626656888
1949,-0.13944162891832465
1950,-0.14211230961414018
1951,-0.13552065370803812
1952,-0.12365792297440167
1953,-0.11269639490894345
1954,-0.10308534722518424
1955,-0.08955178771153771
1956,-0.06858785935835744
1957,-0.04481361042901623
1958,-0.028741299130779264
1959,-0.027481808658106472
1960,-0.03747283333927301
1961,-0.04671606225733249
1962,-0.044864970674810434
1963,-0.03185504744362384
1964,-0.017104510993068207
1965,-0.010281488293473511
1966,-0.012510673931004128
1967,-0.01615123655207873
1968,-0.012838567200562659
1969,-0.0016514810714020759
1970,0.010438580040978931
1971,0.015800546072321273
1972,0.013484965414208527
1973,0.009322385869813009
1974,0.009020136754807364
1975,0.01170403093816976
1976,0.010838207133599497
1977,0.0017175584883510385
1978,-0.012338794377477473
1979,-0.02198567529719513
1980,-0.02064152725500369
1981,-0.011392234022779151
1982,-0.0046841325668098704
1983,-0.008497331082640565
1984,-0.020462918602913927
1985,-0.02989367329780822
1986,-0.028053071333736822
1987,-0.016670121347050468
1988,-0.006195624348818814
1989,-0.005398393097719773
1990,-0.012643675069970304
1991,-0.017697184982134722
1992,-0.012408335900490654
1993,0.00045221378221074163
1994,0.009358013778932266
1995,0.005447786479793668
1996,-0.008009498162210589
1997,-0.017765410034154012
1998,-0.012741390429344131
1999,0.005388876979237038
2000,0.023463937250537116
2001,0.028837883318916558
2002,0.02065500677148055
2003,0.009738811773980414
2004,0.007561413966831184
2005,0.015231594678694397
2006,0.02307779414728038
2007,0.020785105806537276
2008,0.0077826783199385335
2009,-0.006305596963106614
2010,-0.011235747130936911
2011,-0.005951747938365585
2012,0.0010969918272305357
2013,0.0011579975551569875
2014,-0.0055664247414780295
2015,-0.009951698330637335
2016,-0.003196074728445262
2017,0.014007582779608809
2018,0.031515995057269576
2019,0.038930674877609414
2020,0.034868814387926134
2021,0.027332674372158867
2022,0.025163254694889337
2023,0.02935919750918899
2024,0.03293351009479269
2025,0.029187948894428724
2026,0.019690942758136397
2027,0.01349457050109731
2028,0.01801239474416339
2029,0.030631291864506364
2030,0.03981393332147516
2031,0.03527213188265188
2032,0.017706892414422498
2033,-0.0013540500577367645
2034,-0.009756666219727247
2035,-0.005438487188918045
2036,0.002420144803304762
2037,0.0027336572146407314
2038,-0.006776626546745513
2039,-0.01778976657871943
2040,-0.020021187444749462
2041,-0.011656602406802215
2042,-0.0013506150258909676
2043,4.1253806799689766e-05
2044,-0.010223679495091637
2045,-0.024450804356609443
2046,-0.032142330209045854
2047,-0.0297765763895236
2048,-0.02315424422448912
2049,-0.020547465724080463
2050,-0.02417887046622799
2051,-0.02885939155513194
2052,-0.028757718339897105
2053,-0.024561377833197895
2054,-0.022905684828975516
2055,-0.028385699981651732
2056,-0.036866652572097314
2057,-0.038077758055583916
2058,-0.025904180121569753
2059,-0.0061233510819168535
2060,0.007099297071555424
2061,0.0037438677745659146
2062,-0.012213579635777329
2063,-0.025571276656529612
2064,-0.02335267293954009
2065,-0.006507569738261087
2066,0.011173030927253708
2067,0.015795372684888554
2068,0.005531354390513706
2069,-0.009133572721912092
2070,-0.01654326782426871
2071,-0.014859991996447212
2072,-0.012098576244100231
2073,-0.015916460333558202
2074,-0.02434627189761058
2075,-0.02746281531805977
2076,-0.018418282630617185
2077,-0.002257120836919356
2078,0.007189157611276822
2079,-1.747591377093162e-05
2080,-0.020020728649211037
2081,-0.03809079683898045
2082,-0.04187845721995951
2083,-0.03226322199316095
2084,-0.021409339406250723
2085,-0.020300928900582535
2086,-0.02831897337836599
2087,-0.03505246425489992
2088,-0.03198417384509922
2089,-0.021716267544783154
2090,-0.015130160322576
2091,-0.019500450591015794
2092,-0.03015397151756405
2093,-0.034834668915326134
2094,-0.02679247287703173
2095,-0.013135003063463446
2096,-0.009123120127606495
2097,-0.023125891188734243
2098,-0.046903777743660766
2099,-0.06147395859768385
2100,-0.053911660383403524
2101,-0.029541739599447683
2102,-0.007903806579914942
2103,-0.006026685235716897
2104,-0.024336427613722175
2105,-0.047686941203466504
2106,-0.0595712502501517
2107,-0.05566984335151366
2108,-0.04472033606734452
2109,-0.03771137800251319
2110,-0.03733210233760632
2111,-0.037928262365060736
2112,-0.03446268831920367
2113,-0.029656706766235948
2114,-0.03106977749801735
2115,-0.04125645987063177
2116,-0.0521359460247768
2117,-0.05077280682758356
2118,-0.031820050653210516
2119,-0.004273006339998645
2120,0.014975513392253713
2121,0.015514130616751786
2122,0.0024317549592582804
2123,-0.008500234776886781
2124,-0.004902360527318694
2125,0.012032685276045844
2126,0.03027264494804136
2127,0.0390732391854063
2128,0.038385346566560515
2129,0.03688181564370675
2130,0.041548709547024595
2131,0.049858110760931315
2132,0.05234960658491537
2133,0.04264659202101829
2134,0.024519098879685466
2135,0.008804512540841913
2136,0.0032763156051648866
2137,0.005492777027293942
2138,0.00550534864674872
2139,-0.004496872689745607
2140,-0.023101664740514553
2141,-0.041653028883062014
2142,-0.05260823433672758
2143,-0.05555779751601424
2144,-0.055198159497806404
2145,-0.0542044255719694
2146,-0.04926433023938839
2147,-0.03507051247162094
2148,-0.012397221304750263
2149,0.00855506933461226
2150,0.014301801549489797
2151,-0.0008628943558230224
2152,-0.028876597013712035
2153,-0.0529711655180642
2154,-0.059890465620257516
2155,-0.04893609731609974
2156,-0.030573756719546985
2157,-0.01685017954311318
2158,-0.012760377139478087
2159,-0.01566861533014194
2160,-0.021418697743610778
2161,-0.029490802314038528
2162,-0.041588521629153614
2163,-0.05593185364754278
2164,-0.06485401282384315
2165,-0.06022160083629857
2166,-0.042566488562379115
2167,-0.0245221794900989
2168,-0.023222769272312625
2169,-0.04656364416624189
2170,-0.08493001247682964
2171,-0.11629130185143371
2172,-0.12129948645171348
2173,-0.0963984593125658
2174,-0.0548338635387799
2175,-0.01594913853161461
2176,0.007501114757771438
2177,0.014290979891832636
2178,0.01051480867502676
2179,0.002788143976002566
2180,-0.004404879966386473
2181,-0.0070019271253893706
2182,-0.0004619893464179502
2183,0.01686568043840964
2184,0.039179275754624744
2185,0.05398833820183413
2186,0.050331261067586175
2187,0.02836097688668004
2188,0.0010986916442703404
2189,-0.014583497274451145
2190,-0.010548767625562158
2191,0.007502074785120603
2192,0.02665952922247692
2193,0.038344297482956265
2194,0.0436236750914151
2195,0.04799688702841387
2196,0.05229881618560041
2197,0.05011338638143279
2198,0.03470697678660725
2199,0.0077858615589010685
2200,-0.020159327083296222
2201,-0.039489285662319976
2202,-0.05162037872735195
2203,-0.06883919984983054
2204,-0.10281399655679985
2205,-0.15248072930066991
2206,-0.20309431125125338
2207,-0.23745586652271056
2208,-0.2485409798511986
2209,-0.2419569562668591
2210,-0.22744585143180454
2211,-0.20957569136558687
2212,-0.18736495533566638
2213,-0.16154501715409914
2214,-0.1387070946101725
2215,-0.1245331167182616
2216,-0.11130099685315432
2217,-0.0741585203088032
2218,0.014780841331222356
2219,0.1621097485108155
2220,0.33840096496883443
2221,0.4880334963122511
2222,0.5593721681584136
2223,0.5340990461034798
2224,0.43464761173273253
2225,0.3059197891114987
2226,0.18690834873643147
2227,0.09339729191549223
2228,0.02122609931236351
2229,-0.03793499206077146
2230,-0.0845723770763991
2231,-0.1126129849857489
2232,-0.1196192519761266
2233,-0.11356720822158864
2234,-0.10844199472392717
2235,-0.11265346275316859
2236,-0.12172221944094086
2237,-0.12285218148388434
2238,-0.10767422478368038
2239,-0.08139977031811509
2240,-0.0595683740904515
2241,-0.05495496509709168
2242,-0.06646394761476694
2243,-0.08021471529062119
2244,-0.08183675138059257
2245,-0.06863755545806335
2246,-0.05056267055380645
2247,-0.03955187756538854
2248,-0.037846815963046454
2249,-0.036531049637743465
2250,-0.02541605152991976
2251,-0.0042433389927106265
2252,0.016055501177778042
2253,0.02342819311805755
2254,0.016247695227418046
2255,0.004947108201221954
2256,0.002029338150879355
2257,0.010092100349755221
2258,0.019434997197746422
2259,0.01752401672182316
2260,0.001227020670716367
2261,-0.019741228620250593
2262,-0.031198624354723124
2263,-0.02667461670204825
2264,-0.012282135988172859
2265,-0.0005114633236297933
2266,0.0005746380926919534
2267,-0.007189592280177732
2268,-0.015923787807052926
2269,-0.019912988699887554
2270,-0.01992247132281944
2271,-0.020230100613894582
2272,-0.022557725401920765
2273,-0.023762319912856357
2274,-0.019687221585493526
2275,-0.010858882372611893
2276,-0.0036054800386580025
2277,-0.004736854408108679
2278,-0.0145821020829681
2279,-0.025303757938786597
2280,-0.026768342144504034
2281,-0.015155587748357702
2282,0.003338804690446919
2283,0.017145736494835688
2284,0.018347417446129166
2285,0.00836169778546103
2286,-0.004163899018942752
2287,-0.010624950210794435
2288,-0.008112625084377234
2289,0.0008947565604221224
2290,0.012907930900079197
2291,0.026377842805154508
2292,0.04025017418215816
2293,0.05080387512682661
2294,0.051897343625364925
2295,0.04003709017558474
2296,0.019627399799360352
2297,0.0021287389180773214
2298,-0.0018503577520152814
2299,0.008830818198464936
2300,0.02461251267393616
2301,0.03316089081848967
2302,0.02961758962379804
2303,0.019933434093426683
2304,0.014501114366709703
2305,0.018446406038677587
2306,0.02781087550640279
2307,0.03470984572299316
2308,0.035649412125295835
2309,0.0344577744686896
2310,0.03724882882068601
2311,0.04515278873560839
2312,0.05264665199165997
2313,0.05320747255785588
2314,0.04621059702133107
2315,0.03766030774596045
2316,0.03382537636320501
2317,0.03436869558012492
2318,0.032270342327188395
2319,0.020939704370843602
2320,0.001443216018165551
2321,-0.017592772332237685
2322,-0.027627183223668327
2323,-0.02802361108892756
2324,-0.026322658539843342
2325,-0.03057307923040878
2326,-0.041137875651077196
2327,-0.05000278187566995
2328,-0.04840073989801688
2329,-0.03552879518211637
2330,-0.020035937271619356
2331,-0.01281952402957992
2332,-0.017845281310032948
2333,-0.029398665346668962
2334,-0.03790833007450906
2335,-0.03841912979980357
2336,-0.03367766617277237
2337,-0.02946643680109808
2338,-0.027546949189197874
2339,-0.02372789505058838
2340,-0.013126556070189895
2341,0.0028528192151089106
2342,0.015367653808100503
2343,0.014795136547697617
2344,-0.0005881362683950388
2345,-0.022023255460814985
2346,-0.03644704764945143
2347,-0.03610378419976533
2348,-0.023364227336036283
2349,-0.007262022670651688
2350,0.004223486709221382
2351,0.009024498152853234
2352,0.009656137151164272
2353,0.008638475749040184
2354,0.005973604857382851
2355,0.0006612610673383866
2356,-0.006563369298137048
2357,-0.013041214381445534
2358,-0.016770066852978875
2359,-0.01836269611242007
2360,-0.01967906671042967
2361,-0.02066490463718656
2362,-0.01862445110606769
2363,-0.011711038363865528
2364,-0.0031404982380072648
2365,-0.0006096935047666892
2366,-0.009773374955336513
2367,-0.02748847734902439
2368,-0.04239010060632903
2369,-0.0440949309476688
2370,-0.033323368332342576
2371,-0.022741624569654367
2372,-0.02606452137188092
2373,-0.044431676464258815
2374,-0.06307412805876106
2375,-0.06287563502681534
2376,-0.03757727987035227
2377,-0.0011086309561112407
2378,0.022465859281103166
2379,0.018305380169619412
2380,-0.007428209759389022
2381,-0.03372502044885309
2382,-0.04303587173139242
2383,-0.035163906799142754
2384,-0.02477655417618202
2385,-0.026079214672026542
2386,-0.039788207696874
2387,-0.05435770619012548
2388,-0.058973839786388316
2389,-0.054471490671013756
2390,-0.051095272819654564
2391,-0.05584381169490754
2392,-0.06298546890436585
2393,-0.05825503890528279
2394,-0.03326908876530171
2395,0.0041384713567093785
2396,0.03462658736315079
2397,0.043577397111582934
2398,0.03384608403349629
2399,0.022935312116179524
2400,0.027114093818589223
2401,0.047232656385072874
2402,0.06911056734629886
2403,0.07739871886283324
2404,0.06932318035690355
2405,0.055536506768896744
2406,0.04817921661935402
2407,0.048446486647064774
2408,0.04584962733192438
2409,0.029559591983918464
2410,0.00048382077662915534
2411,-0.027729345934618534
2412,-0.039772869051576905
2413,-0.031528867339743166
2414,-0.013156266837328751
2415,-0.00034300465247188213
2416,-0.002249797938170289
2417,-0.016559542518733553
2418,-0.03433464779371767
2419,-0.04830462529471115
2420,-0.05645978468086178
2421,-0.05915379070115124
2422,-0.055043062747377164
2423,-0.04168602343008325
2424,-0.020440699841144917
2425,0.0005407626513467341
2426,0.010338434703203548
2427,0.004186324312121786
2428,-0.010845838785503836
2429,-0.019802712296284823
2430,-0.011382757882673112
2431,0.012286956619385328
2432,0.03613422548602947
2433,0.042874743886660356
2434,0.025450887164352516
2435,-0.008435198942458587
2436,-0.04236943477973337
2437,-0.062122484959889666
2438,-0.06298881561107622
2439,-0.04961334877055047
2440,-0.030925980916931405
2441,-0.015456921820759705
2442,-0.009635992215077086
2443,-0.01754167352165896
2444,-0.039571368104766746
2445,-0.0702629145109654
2446,-0.0983606402289241
2447,-0.11142558195467495
2448,-0.10309644895263131
2449,-0.07765410409311307
2450,-0.04768604125612094
2451,-0.025945054961588457
2452,-0.0173813628451226
2453,-0.01733314116002703
2454,-0.016841899532225948
2455,-0.010376514704916415
2456,0.0002390081033822218
2457,0.008215711027751
2458,0.007746973761570315
2459,-0.0015295625876313164
2460,-0.014456871671542845
2461,-0.023661087745643274
2462,-0.023250910790775386
2463,-0.010994104627936135
2464,0.01095907363224939
2465,0.03628741684549508
2466,0.056141440421070506
2467,0.06290154147490441
2468,0.054786496453940105
2469,0.037813940850921754
2470,0.022367502780879588
2471,0.015948249737622353
2472,0.01780822089490612
2473,0.02035707514893806
2474,0.016230797430796324
2475,0.004232567097435284
2476,-0.011824120287362818
2477,-0.03002359732857684
2478,-0.055035861346563186
2479,-0.09413272808950159
2480,-0.1472054058048766
2481,-0.2011113454608035
2482,-0.23610155904631797
2483,-0.24051523775317837
2484,-0.22058372849724117
2485,-0.19533037156820643
2486,-0.18037245651481976
2487,-0.1756389909899158
2488,-0.16877442299697465
2489,-0.15050712936430233
2490,-0.12565910813266057
2491,-0.10708560844910897
2492,-0.09719282009845184
2493,-0.07593823488599183
2494,-0.010415695874547307
2495,0.11848815973714438
2496,0.29415659356844465
2497,0.46691916832703284
2498,0.5811031302318999
2499,0.6059719096817968
2500,0.547840771798636
2501,0.43763203948141555
2502,0.3080337147604341
2503,0.1795654509087386
2504,0.06258944761841116
2505,-0.03375808977796481
2506,-0.09902015364541034
2507,-0.12855022455328166
2508,-0.13111558557982184
2509,-0.12611872843490735
2510,-0.13024348068195096
2511,-0.14500525846924484
2512,-0.15714124240073596
2513,-0.15215209126638068
2514,-0.12880967359724088
2515,-0.10124058136216868
2516,-0.0865972833267093
2517,-0.08965055797848781
2518,-0.09845463100820966
2519,-0.09504248275356322
2520,-0.07145037529401359
2521,-0.03676475393867477
2522,-0.009276717792691753
2523,-0.0012313948774876243
2524,-0.009811628682998529
2525,-0.021658646408469845
2526,-0.025718926377744283
2527,-0.02217531389191591
2528,-0.019789259161068377
2529,-0.02529846516742653
2530,-0.03570095658990512
2531,-0.0408026207551421
2532,-0.033121467811723745
2533,-0.015265267816202379
2534,0.0022345546455951352
2535,0.010153632185632235
2536,0.0077773083756984725
2537,0.0015560798136688488
2538,-0.0025258763098590475
2539,-0.004628591876448814
2540,-0.009206757360154015
2541,-0.018281411463354227
2542,-0.02759720407542226
2543,-0.030181239203417205
2544,-0.023713340074680237
2545,-0.013725756389619268
2546,-0.008704144132779385
2547,-0.011608327421431686
2548,-0.01644319025384926
2549,-0.01383966624104846
2550,-0.0006307336827478568
2551,0.015892282856190373
2552,0.023524266184346915
2553,0.015603515986416487
2554,-0.003282624183957537
2555,-0.021531042075648238
2556,-0.030514262332430042
2557,-0.030930573435886066
2558,-0.029938421051407947
2559,-0.03247899477162154
2560,-0.03559754538416997
2561,-0.03134141700470832
2562,-0.015280314621281006
2563,0.007809048439435843
2564,0.026804097674381595
2565,0.0331302829495565
2566,0.027430528189240837
2567,0.017935406099763723
2568,0.012376227803820717
2569,0.011309056386867728
2570,0.009122958071734003
2571,0.0013965843867376805
2572,-0.008982009068349353
2573,-0.013338069721246189
2574,-0.005253462806300813
2575,0.012609835025221804
2576,0.029848641354231778
2577,0.03711251829423179
2578,0.03438135133565654
2579,0.030921431821629545
2580,0.03673001900329159
2581,0.05319120246047876
2582,0.07136831795762374
2583,0.07923595794505486
2584,0.07107081270761828
2585,0.05080471475246176
2586,0.027371253016380617
2587,0.007509511379289615
2588,-0.007129235474416339
2589,-0.017195710281904086
2590,-0.02193248416440607
2591,-0.019572629828310525
2592,-0.011324412161391944
2593,-0.003453947650454982
2594,-0.0034326405249539473
2595,-0.012775480062967103
2596,-0.02386733525174021
2597,-0.02519936974022
2598,-0.011293845280915598
2599,0.011664052867175962
2600,0.03012405789204175
2601,0.03391821017376482
2602,0.023899696145542652
2603,0.009877794311712245
2604,0.0013658625129149388
2605,2.8376431080587988e-05
2606,0.00033954839166091275
2607,-0.0033935063682796075
2608,-0.011335722267433703
2609,-0.01920971288116431
2610,-0.024074292313165994
2611,-0.027866954214975138
2612,-0.03455101495428439
2613,-0.04399788795692093
2614,-0.049774704090757696
2615,-0.044368360204568656
2616,-0.02752838196834976
2617,-0.009309780370818166
2618,-0.003558224913005393
2619,-0.016480096704955566
2620,-0.04021564307501503
2621,-0.057702925656590846
2622,-0.05547825764319167
2623,-0.03396914843478546
2624,-0.006745002709563762
2625,0.010463632349956599
2626,0.011590644562525338
2627,0.0032050724756434714
2628,-0.003038937218509018
2629,-0.001064851458502296
2630,0.0053336377512210615
2631,0.007615193118319607
2632,0.0013553469766756801
2633,-0.009746219036220891
2634,-0.018058960997834696
2635,-0.019697879292539112
2636,-0.017925790355631945
2637,-0.019203148031799365
2638,-0.026272901343626504
2639,-0.03540536204678418
2640,-0.04036501508918931
2641,-0.038676524139688084
2642,-0.03359985248137565
2643,-0.030001890660258414
2644,-0.028888279024696737
2645,-0.02672640893803995
2646,-0.020370039082453807
2647,-0.012063368686063756
2648,-0.008541939382590805
2649,-0.014413021742233627
2650,-0.026429339518052892
2651,-0.03504330501147908
2652,-0.032579318241878756
2653,-0.020484323941368558
2654,-0.008505444157875082
2655,-0.006189375414353182
2656,-0.014471622353304198
2657,-0.025088559675351736
2658,-0.028155639702815316
2659,-0.020707790353636582
2660,-0.008453100728223115
2661,0.0003333992749330624
2662,0.0025698781676486556
2663,0.0024950355353397587
2664,0.006573534940702164
2665,0.01634058364962285
2666,0.02593662660138537
2667,0.026508198088623182
2668,0.013500828980333723
2669,-0.009373211506493288
2670,-0.032555656212532244
2671,-0.047195211642926574
2672,-0.05065133642773925
2673,-0.04717808297474492
2674,-0.044006387462338176
2675,-0.046211273238631646
2676,-0.05395967390083844
2677,-0.06341849349193741
2678,-0.069904688972225
2679,-0.07073230511517195
2680,-0.06608495078259026
2681,-0.05802850669624373
2682,-0.04896339583950479
2683,-0.04068059560754097
2684,-0.03422425314075063
2685,-0.030043271179552605
2686,-0.028004480556674604
2687,-0.027353524181353294
2688,-0.026884065190939298
2689,-0.025230893293878478
2690,-0.020947732139671014
2691,-0.012415915897970888
2692,0.0017452140374535465
2693,0.021282184933198882
2694,0.04275252197764142
2695,0.05980016807773319
2696,0.06647036105456364
2697,0.061942096020091444
2698,0.052636429933071195
2699,0.04864401723999019
2700,0.055991430718246735
2701,0.07070935249942173
2702,0.08037308040558108
2703,0.0729907332057254
2704,0.046478946815171986
2705,0.010748794665461296
2706,-0.019607005534914478
2707,-0.035903135211761084
2708,-0.040301693843356266
2709,-0.04147196562285511
2710,-0.04580479612405271
2711,-0.052597472247911614
2712,-0.05701542519982423
2713,-0.05663990103145053
2714,-0.05415071814431638
2715,-0.05337099488515784
2716,-0.053460358265450106
2717,-0.04836647586378295
2718,-0.0330707756762986
2719,-0.01046210295692139
2720,0.008828618974259517
2721,0.014533385438130068
2722,0.005374702550283839
2723,-0.010302163804478882
2724,-0.02269332358185642
2725,-0.029393422714542948
2726,-0.036003390409321295
2727,-0.04798674237453361
2728,-0.06253570419747603
2729,-0.06959977869271011
2730,-0.06189923436342746
2731,-0.04397373830426661
2732,-0.030317063188275768
2733,-0.033050442009607786
2734,-0.05036113583601596
2735,-0.0671677136814134
2736,-0.06834944430687895
2737,-0.05281486777972845
2738,-0.035339880824707764
2739,-0.03402002155445684
2740,-0.054237075855548204
2741,-0.08316981459596069
2742,-0.0994364104973757
2743,-0.0893788924523799
2744,-0.05651755224381417
2745,-0.01749621090639445
2746,0.010614240675123239
2747,0.0208453871015272
2748,0.01763790188459003
2749,0.010416442105358099
2750,0.006200965651305381
2751,0.0065438532838544596
2752,0.009056471918388865
2753,0.010573311891829546
2754,0.009528344449986223
2755,0.007048680820190762
2756,0.006826344686850587
2757,0.01322172676475578
2758,0.02758058514938885
2759,0.045039315376226075
2760,0.0555144092796029
2761,0.050154799803746083
2762,0.029242011723709972
2763,0.00445414803441906
2764,-0.008184674735543492
2765,-0.0003068617498185348
2766,0.021598745595718893
2767,0.0404072408833656
2768,0.040910112668219284
2769,0.020121334683787767
2770,-0.01317611649515636
2771,-0.048178124020786695
2772,-0.0812399409122883
2773,-0.11595719407554525
2774,-0.1552109937960586
2775,-0.1943501972357108
2776,-0.22309699235113742
2777,-0.2342770403811157
2778,-0.23011220957673495
2779,-0.2193944364592379
2780,-0.20868942886808411
2781,-0.19723139833039366
2782,-0.18106586935183375
2783,-0.16130368471949247
2784,-0.14566061400180333
2785,-0.13880250036162045
2786,-0.12984788721008644
2787,-0.09142268036335864
2788,0.0037378823039887453
2789,0.15901073622937625
2790,0.3423905709870997
2791,0.4989966667114434
2792,0.580441666459141
2793,0.5701855386388384
2794,0.48735601196884276
2795,0.36885676819785906
2796,0.24579135398756868
2797,0.13196728574078978
2798,0.02947747086154346
2799,-0.05858829010614293
2800,-0.12239966457673777
2801,-0.15178051892798403
2802,-0.1472981873058973
2803,-0.12405997368640272
2804,-0.1033052457830678
2805,-0.09842029717544623
2806,-0.10724394587771285
2807,-0.11690737027205331
2808,-0.11636493251520671
2809,-0.10536490414277436
2810,-0.09251018301050759
2811,-0.08540624515660193
2812,-0.08299426587729017
2813,-0.07747826811718672
2814,-0.0635008777202293
2815,-0.04490147913061325
2816,-0.03175437789614172
2817,-0.030289085222803765
2818,-0.03595223078509602
2819,-0.03730790323553972
2820,-0.027690482852382462
2821,-0.013088860706734054
2822,-0.007550584291206893
2823,-0.01944966612810113
2824,-0.04164069760379843
2825,-0.05579867293612379
2826,-0.04800024670905248
2827,-0.021434738571714684
2828,0.005787334979850391
2829,0.01597009499935248
2830,0.006223386528740413
2831,-0.011059176237948207
2832,-0.02112992134501794
2833,-0.020124636419508946
2834,-0.016035171816087542
2835,-0.017618671060807743
2836,-0.023490083622887917
2837,-0.022988421961569708
2838,-0.008010240427213135
2839,0.01644124215807649
2840,0.03423358386620404
2841,0.03151996584399224
2842,0.009201059553175392
2843,-0.01718102465197753
2844,-0.02993824281916019
2845,-0.02277730012121799
2846,-0.003933182906196138
2847,0.012346355870751873
2848,0.01706306155799848
2849,0.010798709426714303
2850,-0.0005352894291939534
2851,-0.012182485419766919
2852,-0.02256815666670458
2853,-0.03054927284463131
2854,-0.03307848989821115
2855,-0.02730029765966607
2856,-0.015072683512237145
2857,-0.004074183751567123
2858,-0.002547949986233345
2859,-0.011565112271077645
2860,-0.02228419019727658
2861,-0.02191163928022008
2862,-0.004138717600051977
2863,0.02475659279768136
2864,0.04968063978757732
2865,0.05757058647688895
2866,0.04657713338227848
2867,0.026474137812474104
2868,0.010683115145583493
2869,0.006915805953133912
2870,0.013646785925784336
2871,0.02390274831537456
2872,0.031751908667296894
2873,0.03567071996103231
2874,0.03698887242577878
2875,0.036468827022439455
2876,0.03314898758323989
2877,0.026362792657427164
2878,0.018067688852594663
2879,0.01227156208300656
2880,0.011671133567975039
2881,0.014972604549315425
2882,0.018031647130105095
2883,0.01804953127806154
2884,0.01657190740969314
2885,0.017799643681923542
2886,0.023373767464241177
2887,0.028821692186343
2888,0.025934826555861917
2889,0.00986239932331219
2890,-0.015266637958801182
2891,-0.03780265938874237
2892,-0.04664889055578875
2893,-0.039361801671734885
2894,-0.023351439150947697
2895,-0.00926347694537127
2896,-0.002536809152439622
2897,-0.0005388497346602895
2898,0.002698223566308052
2899,0.009182194638761673
2900,0.014269583699937232
2901,0.011057289925218086
2902,-0.002544854192751172
2903,-0.020961704660483357
2904,-0.035094200475127194
2905,-0.03958505778469154
2906,-0.03654332917336597
2907,-0.03261263813799299
2908,-0.032549494896289416
2909,-0.03545337071295901
2910,-0.03683675679352326
2911,-0.03396913396666862
2912,-0.02899824471620987
2913,-0.026866970382830355
2914,-0.030275571996309487
2915,-0.036709742285909265
2916,-0.04034119088856551
2917,-0.036838467366479756
2918,-0.026550468746487213
2919,-0.013474244100068408
2920,-0.0016530506816848512
2921,0.007175745448129857
2922,0.012756666122015982
2923,0.014102005202375374
2924,0.009157508675193517
2925,-0.0027021931040144636
2926,-0.01798278611193578
2927,-0.029682921030294677
2928,-0.03165853466323085
2929,-0.02321713059424112
2930,-0.009711524443690047
2931,0.0015628917921635837
2932,0.006490313128498477
2933,0.005794087781096349
2934,0.0023496848968999296
2935,-0.0024336599544322593
2936,-0.009202928325133895
2937,-0.017988876328410907
2938,-0.025956425022328956
2939,-0.02898498719560116
2940,-0.026089200097390717
2941,-0.021882419770670604
2942,-0.02351053175773422
2943,-0.03400336075269236
2944,-0.04825625925447677
2945,-0.05611839587958169
2946,-0.05051976896860408
2947,-0.033525316850047934
2948,-0.014827634981052275
2949,-0.004128950260624244
2950,-0.004399456656840503
2951,-0.011738542367265573
2952,-0.020895430833930827
2953,-0.030203457998127632
2954,-0.0409999776332102
2955,-0.05293310740422258
2956,-0.06115218010507538
2957,-0.05937854254323355
2958,-0.046336568540445745
2959,-0.02886923742179548
2960,-0.017803460521570218
2961,-0.019692504242234118
2962,-0.03182923977931273
2963,-0.04499810017863975
2964,-0.0511752470324447
2965,-0.04900676527957713
2966,-0.04262892167694792
2967,-0.03622708681274933
2968,-0.030580354333297626
2969,-0.024895315069798984
2970,-0.02087456634235351
2971,-0.02318887071284316
2972,-0.03453094749192978
2973,-0.05009242767493631
2974,-0.058287631771840875
2975,-0.049042685846001674
2976,-0.02302560242063681
2977,0.0070265729160925595
2978,0.025253899591818417
2979,0.02477057739907417
2980,0.012406431924423967
2981,0.001942548054868361
2982,0.002073312691021227
2983,0.009966556336280257
2984,0.01579142345738692
2985,0.013239370957438913
2986,0.005757291674597673
2987,0.0028337115704809845
2988,0.01046695998688435
2989,0.025300465828861023
2990,0.03785358486725222
2991,0.04116980162901378
2992,0.03619072190597502
2993,0.02899690148278742
2994,0.02351754372991204
2995,0.01768754877594083
2996,0.006994538300594086
2997,-0.008732261572644184
2998,-0.023099197822041187
2999,-0.028618372683387648
3000,-0.024697510910979374
3001,-0.01966992630793324
3002,-0.023814126028141223
3003,-0.03937855304537721
3004,-0.05727075725105249
3005,-0.06427480357588952
3006,-0.05465822603177417
3007,-0.035452953493919526
3008,-0.02024690101466855
3009,-0.017033379800523767
3010,-0.02142566600705189
3011,-0.021708069027136
3012,-0.011093131575124138
3013,0.004423612103795384
3014,0.010381863778198754
3015,-0.0031422234860058636
3016,-0.0315980024747589
3017,-0.05833537838582149
3018,-0.0675029980442092
3019,-0.05624594216495796
3020,-0.03578841287956365
3021,-0.021136411181616233
3022,-0.019109668056647378
3023,-0.02509904847378555
3024,-0.03015052634556812
3025,-0.030390086385709635
3026,-0.029508067738187465
3027,-0.032775281494128214
3028,-0.0397894560920193
3029,-0.04408529055197679
3030,-0.04016468345083925
3031,-0.030380401382668475
3032,-0.023947970345382777
3033,-0.02847665500207114
3034,-0.042454470681248316
3035,-0.05657727625335211
3036,-0.06289151126275624
3037,-0.062459137581532084
3038,-0.06340469060070761
3039,-0.07103548858726459
3040,-0.08033861003900061
3041,-0.07939375197440188
3042,-0.06129375170133658
3043,-0.03288743748565256
3044,-0.010807089489434693
3045,-0.007348677259755814
3046,-0.01911776942879938
3047,-0.0294547424918527
3048,-0.022902767383879495
3049,0.0014070742412190585
3050,0.029528649094840292
3051,0.04524913635041038
3052,0.043302755591620765
3053,0.03135875397049963
3054,0.02035717558878781
3055,0.013849990589942527
3056,0.006929411384015054
3057,-0.005216866791484683
3058,-0.0190465884971228
3059,-0.023995336642859223
3060,-0.012485380981862753
3061,0.011468113637265215
3062,0.03398009292260973
3063,0.04214907501392105
3064,0.03400888191866727
3065,0.018650030128944152
3066,0.007137539867230549
3067,0.003176418347673222
3068,0.0016643904012939867
3069,-0.005101693988261393
3070,-0.020859595900498778
3071,-0.04467332998793887
3072,-0.07505900901026563
3073,-0.11268557920165609
3074,-0.15769431892392957
3075,-0.20466484731936307
3076,-0.24193708675883113
3077,-0.2579586157413979
3078,-0.24961164905375832
3079,-0.22446870704480593
3080,-0.19439404335741517
3081,-0.16661218597654848
3082,-0.1411275619639823
3083,-0.11671303024182114
3084,-0.09801408492529941
3085,-0.09396984930600752
3086,-0.10628889553744453
3087,-0.11842484234589812
3088,-0.09825911072961127
3089,-0.01710279221541037
3090,0.1276768089650224
3091,0.3047543549104905
3092,0.46360402466287676
3093,0.5617087807277772
3094,0.5841315846593222
3095,0.5425954630000267
3096,0.4588694308890194
3097,0.34922206550402474
3098,0.22260107734748474
3099,0.08996306622012223
3100,-0.0289975158669736
3101,-0.111928189722546
3102,-0.1486796203505804
3103,-0.15047833517657783
3104,-0.14292949834936977
3105,-0.14719235734721747
3106,-0.16507021809827097
3107,-0.18067844359964846
3108,-0.17658075262173162
3109,-0.14964728614626288
3110,-0.11299021766993839
3111,-0.08367334455705885
3112,-0.06866158445706955
3113,-0.06193378445402169
3114,-0.054101274568881405
3115,-0.043796929782793016
3116,-0.03902626585780581
3117,-0.04721919560282048
3118,-0.0643778995260863
3119,-0.0751091532301989
3120,-0.06502778788816183
3121,-0.03477033255960821
3122,-0.002337119556665654
3123,0.009656247128305848
3124,-0.00819930273636427
3125,-0.04409064208694142
3126,-0.07353798029093794
3127,-0.07741337926826668
3128,-0.054833069172634474
3129,-0.021394586718186098
3130,0.004204326144406372
3131,0.013270365601131233
3132,0.010030283325286417
3133,0.0043405657124667395
3134,0.0024631571039399804
3135,0.0039084727107327934
3136,0.005142117626462033
3137,0.00454856712382203
3138,0.003315884498091958
3139,0.002448217445474182
3140,0.0004499114901127737
3141,-0.005121195876476245
3142,-0.0140595916359498
3143,-0.022474506360752967
3144,-0.02618052549213446
3145,-0.025167473397284444
3146,-0.024039170510846364
3147,-0.02732998135993242
3148,-0.03433164455204961
3149,-0.03917852841447733
3150,-0.03674649462756198
3151,-0.028534278339870666
3152,-0.0219946666000831
3153,-0.023107222893925337
3154,-0.029261892127448362
3155,-0.030129942385926325
3156,-0.01684946140754484
3157,0.008600469559022257
3158,0.033025418102565963
3159,0.041901346415928756
3160,0.031134647184207605
3161,0.010233881530544515
3162,-0.005866551023154463
3163,-0.00880754458987952
3164,-0.0019677166161519728
3165,0.005041005411180497
3166,0.006320133446227085
3167,0.004250474278058041
3168,0.004866690704133295
3169,0.009599247449296555
3170,0.012363134635130847
3171,0.005284084212800423
3172,-0.012542986889065869
3173,-0.03208794966765466
3174,-0.040526214335018906
3175,-0.03113381632810799
3176,-0.008197784220130053
3177,0.016930054247938097
3178,0.034457844493070974
3179,0.041781071752518335
3180,0.042257226962853896
3181,0.03997586646739623
3182,0.03628238797515165
3183,0.030738072992430216
3184,0.02408488426782361
3185,0.01909962653636052
3186,0.018244313586383606
3187,0.020948410583879064
3188,0.023785723076430874
3189,0.023478650943514874
3190,0.019489681225855225
3191,0.013536479198671045
3192,0.006985799903324425
3193,-0.0004354688418408094
3194,-0.00879382158023198
3195,-0.015212972413481816
3196,-0.014344088629462865
3197,-0.003173792637241989
3198,0.013861680979309624
3199,0.025318640879118722
3200,0.020347075991285206
3201,-0.0019434664501165972
3202,-0.029729854362102535
3203,-0.04602322017764375
3204,-0.04133095864233802
3205,-0.021122016646699708
3206,-0.0015524919119058143
3207,0.0032298050466318335
3208,-0.008432775991494577
3209,-0.026126266880197906
3210,-0.037710516552240295
3211,-0.03991051159636228
3212,-0.03964285197567577
3213,-0.04541123904909297
3214,-0.0573908648622903
3215,-0.06590825414900156
3216,-0.059970399084544594
3217,-0.03793824918459303
3218,-0.010360008435042065
3219,0.007771140611257594
3220,0.00842461108478832
3221,-0.004334648486262539
3222,-0.01930179921429604
3223,-0.027821624616992027
3224,-0.029295198796100545
3225,-0.028510210440380823
3226,-0.028892070914040946
3227,-0.029068581992905847
3228,-0.02585750294730993
3229,-0.019722390419540874
3230,-0.0161680560240458
3231,-0.020913382736591882
3232,-0.03338668675806525
3233,-0.04527773978644503
3234,-0.046291989234447974
3235,-0.03235923158574143
3236,-0.009056323105095535
3237,0.012700707753636992
3238,0.0246925694513135
3239,0.02612068031074157
3240,0.021533310337679194
3241,0.014989425049751785
3242,0.0066712402836434466
3243,-0.004919908609998196
3244,-0.01815452556201559
3245,-0.026787066466409812
3246,-0.024451729643809178
3247,-0.01138915166800809
3248,0.0034870051309430806
3249,0.008400594685459443
3250,-0.0018220274549680402
3251,-0.020991832732751278
3252,-0.03629230771515361
3253,-0.03882197693933644
3254,-0.030671333528429386
3255,-0.022120604342844765
3256,-0.021587538246919447
3257,-0.027811971370821822
3258,-0.03175730819618991
3259,-0.026438985057598775
3260,-0.015084573870591415
3261,-0.009327069788859754
3262,-0.01857372154868714
3263,-0.04035367186104273
3264,-0.060921102978345756
3265,-0.06599911139427328
3266,-0.05217879478174771
3267,-0.029020446237886535
3268,-0.01061317640473827
3269,-0.004741106676502521
3270,-0.009053226571857401
3271,-0.01615392150885555
3272,-0.021183184181790722
3273,-0.02435996494047802
3274,-0.027411471264750617
3275,-0.02944921984190936
3276,-0.02768633246816621
3277,-0.02208522308293212
3278,-0.017901203806781382
3279,-0.022034547270692553
3280,-0.036124883431279495
3281,-0.0536478572885402
3282,-0.06479258040097952
3283,-0.06489649882628477
3284,-0.05813314410333649
3285,-0.052635774479886294
3286,-0.05196439076650948
3287,-0.05172397024956256
3288,-0.04490731812264949
3289,-0.030351971525839586
3290,-0.01513439746368752
3291,-0.007783429959447765
3292,-0.008908714247661341
3293,-0.009148946773447842
3294,0.0025536885563886965
3295,0.027818590607793046
3296,0.0557491237018713
3297,0.07144879860492767
3298,0.06849349135881533
3299,0.05378072600643789
3300,0.040461020467622955
3301,0.03604882443541012
3302,0.03712173982611122
3303,0.035116561771637966
3304,0.026625507019982245
3305,0.01737471593437648
3306,0.01581126718232112
3307,0.02300822122208793
3308,0.02951858215635608
3309,0.02294845533882317
3310,-0.0007043675033920598
3311,-0.032755423067575874
3312,-0.05860995609575307
3313,-0.06907819771061513
3314,-0.065815891425695
3315,-0.05681859599082073
3316,-0.04773455935403241
3317,-0.03813452755610044
3318,-0.025756419356257186
3319,-0.012899042164339868
3320,-0.006931581076674485
3321,-0.013524908219509059
3322,-0.029550526637750842
3323,-0.04367870990341402
3324,-0.04517023814802683
3325,-0.032891025271809884
3326,-0.015973436559286538
3327,-0.005558296163278426
3328,-0.005606329979227189
3329,-0.011280957853421677
3330,-0.015563202541287699
3331,-0.016702212446333763
3332,-0.018931445363319727
3333,-0.02638291700678324
3334,-0.03726859439242518
3335,-0.044812844310139294
3336,-0.04401246833931097
3337,-0.03703199463968098
3338,-0.03146439346009711
3339,-0.03316949676320974
3340,-0.041032924244405015
3341,-0.04893535318765618
3342,-0.05272735275773648
3343,-0.054869804788088075
3344,-0.06184522534700626
3345,-0.07684361466877832
3346,-0.09501699412056
3347,-0.10607337687244918
3348,-0.10188756492384676
3349,-0.08225207818804425
3350,-0.05409385358155646
3351,-0.02580264677437452
3352,-0.002346611346812199
3353,0.015014187547303659
3354,0.0258420158726414
3355,0.02886210450865334
3356,0.02378595455246641
3357,0.014257057315904617
3358,0.007612155692549796
3359,0.01013355469552427
3360,0.021443066204109944
3361,0.03350445066025222
3362,0.03615203156930436
3363,0.025174741490668624
3364,0.006224551199823651
3365,-0.009032683450876397
3366,-0.011617182397142127
3367,-0.00171489660172801
3368,0.01228491863100782
3369,0.021121639153788785
3370,0.021998095014821143
3371,0.01979934034352474
3372,0.02156039689753936
3373,0.02941956483480847
3374,0.038418785196572915
3375,0.04095198712260044
3376,0.03351639193564307
3377,0.01925361607755417
3378,0.0036674257449317185
3379,-0.012511677164665221
3380,-0.03611850409100479
3381,-0.07626042629721792
3382,-0.1346667833851592
3383,-0.20020926832073638
3384,-0.25343166281871576
3385,-0.2784866508038758
3386,-0.27302317934094117
3387,-0.24784641832858592
3388,-0.21702138508797303
3389,-0.18766727814794187
3390,-0.1587490403403527
3391,-0.1291014046806251
3392,-0.10510819509259775
3393,-0.09786166696702112
3394,-0.10991310897874523
3395,-0.12366441067048989
3396,-0.10497330593963838
3397,-0.0235594564267501
3398,0.12374978895705997
3399,0.30553767787234065
3400,0.471127891373177
3401,0.5776085128311235
3402,0.6086979140595872
3403,0.5738317397331423
3404,0.492975488351898
3405,0.3828476121573037
3406,0.25505619068685603
3407,0.12275141978394352
3408,0.004188815236892629
3409,-0.08334016642856301
3410,-0.1338085215774392
3411,-0.15585241181252374
3412,-0.16465075087527625
3413,-0.1694112583071866
3414,-0.16817157174868674
3415,-0.15429739535051046
3416,-0.12744838705967476
3417,-0.09771115793985158
3418,-0.07887609423907846
3419,-0.07768131118544534
3420,-0.08931710509163314
3421,-0.10268278963907296
3422,-0.10938064548168648
3423,-0.10786620979523076
3424,-0.1003467768067873
3425,-0.08768771172997705
3426,-0.06866730139289581
3427,-0.043959363945396956
3428,-0.019297739792001493
3429,-0.0029853474097075667
3430,0.0006734414289617748
3431,-0.0045315746638153916
3432,-0.00966126704031443
3433,-0.008229914900246478
3434,-0.0013929925839375238
3435,0.003983168327508854
3436,0.0021610611275090725
3437,-0.006366280422718987
3438,-0.015915852454041687
3439,-0.020958182628575593
3440,-0.02013779221122012
3441,-0.015505594040593075
3442,-0.00884060637138889
3443,0.00029413349220295225
3444,0.01257984411358734
3445,0.02559341552331598
3446,0.033414971101556105
3447,0.03049729446127675
3448,0.016502500761374356
3449,-0.0025243625500112644
3450,-0.01795432834225618
3451,-0.024066003001410298
3452,-0.020654741027638437
3453,-0.011270166359802436
3454,0.00027461527228649107
3455,0.01146209468387121
3456,0.019874734247620676
3457,0.021822535598869323
3458,0.013601212554008304
3459,-0.005008740356330376
3460,-0.028535323183484285
3461,-0.047964811468611604
3462,-0.05635538370050908
3463,-0.05340071643844044
3464,-0.04488953829135829
3465,-0.03740849963099623
3466,-0.032943747361132536
3467,-0.02814747818818953
3468,-0.018738691687314693
3469,-0.00475324825865771
3470,0.008434185729075684
3471,0.014470189164374389
3472,0.011878306279125813
3473,0.0059846962258143285
3474,0.004860503885340829
3475,0.012500299825988135
3476,0.024967327644502796
3477,0.03284764911211194
3478,0.02820862359224076
3479,0.010727975539108226
3480,-0.011499189517770379
3481,-0.02679037931886778
3482,-0.026726783072610345
3483,-0.010602568966606081
3484,0.014669062811375404
3485,0.03831508963289184
3486,0.05070773197092595
3487,0.047444927128773406
3488,0.031211252687009056
3489,0.010734359464568174
3490,-0.003185150939396803
3491,-0.003223219346926894
3492,0.010265386573590943
3493,0.029407044741084125
3494,0.0438556941825376
3495,0.04751235481760686
3496,0.041926440785377245
3497,0.033722363918733414
3498,0.028374603406485743
3499,0.02593504494569427
3500,0.022579646873085325
3501,0.016293322193822395
3502,0.010758028095111408
3503,0.012886149416807812
3504,0.025595804846197525
3505,0.04265174961083669
3506,0.05136867540469946
3507,0.042067364956881646
3508,0.01656126164255123
3509,-0.01198921796611883
3510,-0.028364684618485347
3511,-0.026248138377116013
3512,-0.011874402133203043
3513,0.0022034289088830056
3514,0.007284477909462744
3515,0.003785723001659868
3516,-0.002111925266631387
3517,-0.006071885933529325
3518,-0.009689176045506624
3519,-0.017455925737189036
3520,-0.03035689340170768
3521,-0.04310229196778416
3522,-0.04812654292844797
3523,-0.04251457278150785
3524,-0.030961047929546
3525,-0.021731082165319555
3526,-0.019475341683132252
3527,-0.021793572378338788
3528,-0.022655561003796038
3529,-0.019007628471575746
3530,-0.013884035245513082
3531,-0.013040719385571066
3532,-0.01872597702878733
3533,-0.027033114571054024
3534,-0.031540141256166734
3535,-0.02949797964636723
3536,-0.024249194503751976
3537,-0.02144029255579454
3538,-0.022940680971296028
3539,-0.024716942072312266
3540,-0.020880550418330555
3541,-0.009869418549626984
3542,0.0033988385248479407
3543,0.01147459631506411
3544,0.010458021711090101
3545,0.002402530806836949
3546,-0.007720791309590193
3547,-0.016697243267454094
3548,-0.024329575402167822
3549,-0.030456266093408707
3550,-0.03192838013629997
3551,-0.024037897509156955
3552,-0.005913134737457962
3553,0.015657031303574317
3554,0.029031455499386655
3555,0.02609838326703528
3556,0.009224181247562113
3557,-0.009896773153040356
3558,-0.019285251259895907
3559,-0.01616738730162757
3560,-0.008701354887445277
3561,-0.008416104262804504
3562,-0.02001834803881379
3563,-0.037469181202094984
3564,-0.0495180764475141
3565,-0.049446144408565165
3566,-0.0402706854858802
3567,-0.03114049713199376
3568,-0.028806771508623867
3569,-0.0322974796245762
3570,-0.035438950115067994
3571,-0.03413134792171445
3572,-0.030762377965092357
3573,-0.031204501581658703
3574,-0.037523985165821824
3575,-0.0442481824914145
3576,-0.042868926464217263
3577,-0.030933364676271925
3578,-0.016688859458163022
3579,-0.01356275211131431
3580,-0.028278352622794285
3581,-0.05324595831432921
3582,-0.07102456775132762
3583,-0.06804384749722553
3584,-0.045983705719987014
3585,-0.020673882990564343
3586,-0.0092190737870153
3587,-0.016502093689473165
3588,-0.0326073185520027
3589,-0.04266406211813036
3590,-0.03952073445965181
3591,-0.02780836116205984
3592,-0.016752656358846423
3593,-0.009847768317827865
3594,-0.001900505190848289
3595,0.013984350014642145
3596,0.03708682954832241
3597,0.057380175006594605
3598,0.063761171751503
3599,0.05451446507562404
3600,0.03985274448872293
3601,0.03376366735501372
3602,0.04239036927321954
3603,0.05922119558484293
3604,0.07087236162989266
3605,0.06774589302100109
3606,0.05026322908515041
3607,0.026416608865035524
3608,0.004466346224586282
3609,-0.012059200736996645
3610,-0.023680870588224677
3611,-0.03135615206263236
3612,-0.03480247732163995
3613,-0.03424442993490724
3614,-0.032573494322541294
3615,-0.0343654920959104
3616,-0.0419818472062011
3617,-0.05267331458978669
3618,-0.06002899025950737
3619,-0.058831556625324556
3620,-0.04895257184915719
3621,-0.034931997953367336
3622,-0.022161732294536482
3623,-0.013603834210194676
3624,-0.009734603133157573
3625,-0.010568941988435672
3626,-0.016525617664585407
3627,-0.02678737613571398
3628,-0.03740837835077793
3629,-0.04245329428749631
3630,-0.038402626317848486
3631,-0.02801789947592335
3632,-0.019377776367900633
3633,-0.01996294666103175
3634,-0.0306347503610715
3635,-0.04502001705197742
3636,-0.05508817678161654
3637,-0.05790722124024168
3638,-0.057363863421081636
3639,-0.059395418760434436
3640,-0.06551819453066698
3641,-0.07105606799733977
3642,-0.06979915501334692
3643,-0.06038849495983849
3644,-0.04792468047470302
3645,-0.039042622847255876
3646,-0.035355304336116326
3647,-0.03203605372240011
3648,-0.02328495717104926
3649,-0.009331435894812532
3650,0.0023793166520555227
3651,0.003733344318889403
3652,-0.005659585637373911
3653,-0.016539833927437422
3654,-0.017115980232400498
3655,-0.003149240942574285
3656,0.018258312491239388
3657,0.03478982404827423
3658,0.03931311989542276
3659,0.034951275992249814
3660,0.03047438092716073
3661,0.031052701926014812
3662,0.03370958632398257
3663,0.0317584775082006
3664,0.023182833259558944
3665,0.013804051347690138
3666,0.011512838059636224
3667,0.017388117818787963
3668,0.02326375308651193
3669,0.018959458963854044
3670,0.0021421234614165253
3671,-0.019638243393877212
3672,-0.03755788388182151
3673,-0.05217363190375003
3674,-0.07429726045743837
3675,-0.11357304441508882
3676,-0.1654337686990206
3677,-0.2104825509979079
3678,-0.22916690542477827
3679,-0.21901540973866607
3680,-0.19753251161783128
3681,-0.186601701279884
3682,-0.1924106975495842
3683,-0.20033335994489632
3684,-0.19029254687992458
3685,-0.1576030090764591
3686,-0.11766325954870846
3687,-0.08803423029466644
3688,-0.06468706044318867
3689,-0.017525645180899833
3690,0.08604129073124445
3691,0.24755752458309807
3692,0.4240489756250687
3693,0.5493295580366706
3694,0.5751984209250768
3695,0.5004913657479695
3696,0.3665691556014832
3697,0.22604311275487243
3698,0.11177026780049776
3699,0.028550054086038012
3700,-0.03274607433172062
3701,-0.07738696027873658
3702,-0.10251727183536233
3703,-0.10649197602523774
3704,-0.09782605685918011
3705,-0.09206432115356303
3706,-0.09924597592926995
3707,-0.11520105475250078
3708,-0.12600790746405321
3709,-0.12137902639747075
3710,-0.10386533912606531
3711,-0.08537666365526217
3712,-0.07535399403054877
3713,-0.07276170599195227
3714,-0.06937151433947125
3715,-0.05997572170578459
3716,-0.048431254818927356
3717,-0.043305507234865676
3718,-0.04793226311373995
3719,-0.05548363440868613
3720,-0.05449745443526202
3721,-0.03963655957614263
3722,-0.017118853722176926
3723,0.0005180944670433623
3724,0.005249430801791306
3725,-0.00029527071125746757
3726,-0.006746828789240898
3727,-0.007444077332093006
3728,-0.003911840770248789
3729,-0.002474341595639083
3730,-0.006307099868201773
3731,-0.011629900702535757
3732,-0.012057115112735231
3733,-0.006359308263847937
3734,-0.0011211314648735837
3735,-0.004898426822145719
3736,-0.01929745676417151
3737,-0.035930885609400595
3738,-0.04275409298589442
3739,-0.03417917758881221
3740,-0.015614332357817451
3741,0.0016162195533679868
3742,0.009905368652048626
3743,0.010486500363325584
3744,0.009830254741051512
3745,0.011755815351551416
3746,0.013539587967938521
3747,0.009724433942202803
3748,-0.0007963867000526708
3749,-0.012218431837464171
3750,-0.01683554582639812
3751,-0.012691430020654438
3752,-0.005918431368677774
3753,-0.004937758930686664
3754,-0.0119506763880981
3755,-0.020223363286888098
3756,-0.020264891376474622
3757,-0.00922703297488613
3758,0.005650597560778778
3759,0.013288266135902872
3760,0.00909359512224642
3761,-0.0004765907027707071
3762,-0.003770775877567858
3763,0.005017516992879377
3764,0.020017558028214498
3765,0.028792714821830018
3766,0.023877011925595777
3767,0.01002537355616865
3768,0.0002840165427798571
3769,0.004332889964374186
3770,0.019742247049685448
3771,0.034086532381595466
3772,0.03585421662342984
3773,0.02417479300636615
3774,0.008828831238617305
3775,0.001175845024741668
3776,0.004735723076182736
3777,0.013758589934041443
3778,0.02008232465704866
3779,0.020912763316825338
3780,0.020074649921479313
3781,0.022338284867937354
3782,0.027337695304966908
3783,0.029600580268474085
3784,0.02463050598213366
3785,0.014628700310373145
3786,0.00768585111340887
3787,0.010778701600624094
3788,0.023140192099847256
3789,0.036374189001761675
3790,0.04130734787656895
3791,0.03527988352897263
3792,0.023408967979161734
3793,0.01325764555704679
3794,0.008409984032161134
3795,0.006875770771968482
3796,0.004963220591803473
3797,0.0018085818639004768
3798,-0.00039727795053267766
3799,-0.0003745703313699938
3800,-0.0009677302763346449
3801,-0.007256576844579807
3802,-0.020789075589931188
3803,-0.035928413809380555
3804,-0.04300914110921154
3805,-0.036431065032469664
3806,-0.020382357645395657
3807,-0.0063192332648419666
3808,-0.003780674737031982
3809,-0.012582094412317037
3810,-0.023485912163975303
3811,-0.026695650033127426
3812,-0.020286365644622988
3813,-0.010947865472624965
3814,-0.0069062244704319025
3815,-0.010264758870281592
3816,-0.01609431804174108
3817,-0.01853290974305881
3818,-0.01716688073365498
3819,-0.017058574358461077
3820,-0.022642508466769587
3821,-0.03212949865978698
3822,-0.03842744164306733
3823,-0.035697263275078106
3824,-0.02479413232844991
3825,-0.012113801866344955
3826,-0.0033325152446630635
3827,0.0012264054535600704
3828,0.004888382966496671
3829,0.00894026157613046
3830,0.009783565082044608
3831,0.0027005084542440585
3832,-0.011455509338796032
3833,-0.02420433894286757
3834,-0.025412869342678925
3835,-0.012443484127909792
3836,0.006255805188254927
3837,0.01710091826442196
3838,0.011916110850576119
3839,-0.00620977570400938
3840,-0.02653929588526973
3841,-0.0397403315527369
3842,-0.04384808539586686
3843,-0.04252110811637777
3844,-0.038920267457372495
3845,-0.03236709932965405
3846,-0.021083541394356135
3847,-0.007219304098989634
3848,0.002332789697486015
3849,0.001287096048266928
3850,-0.009550925638779514
3851,-0.021661578437343672
3852,-0.025624260628264908
3853,-0.019416397734336656
3854,-0.010267427470120861
3855,-0.007990864736174497
3856,-0.015881096414352876
3857,-0.02774869499608589
3858,-0.03390366039857377
3859,-0.03034053931937432
3860,-0.022293734519976387
3861,-0.018758594358816574
3862,-0.02333268440023339
3863,-0.030373203820881566
3864,-0.030409371502955355
3865,-0.01977972805544128
3866,-0.005189046243539569
3867,0.0015117279323425394
3868,-0.00619567568302891
3869,-0.023379921299033237
3870,-0.03764504527452646
3871,-0.0397022161997047
3872,-0.031049496095231187
3873,-0.022104622046119893
3874,-0.022934641917640344
3875,-0.03516791839795089
3876,-0.051919663856254905
3877,-0.0647072427768159
3878,-0.07013628769927827
3879,-0.070347632599047
3880,-0.0680797077318063
3881,-0.0625192726862143
3882,-0.05061350230084559
3883,-0.03210967951296048
3884,-0.012225953684329025
3885,0.0017595626661247603
3886,0.00705370126643712
3887,0.008246696714705147
3888,0.013076702382610116
3889,0.02484217003788517
3890,0.038979941306323145
3891,0.047421763988047344
3892,0.0465353073701111
3893,0.04070216763645539
3894,0.037890285469856955
3895,0.041707762269309695
3896,0.048062420069954565
3897,0.049830353842605715
3898,0.04458503722721463
3899,0.037105462355479346
3900,0.033735485517998584
3901,0.034394958914782794
3902,0.031067003224554027
3903,0.015359170506462096
3904,-0.011793480612987897
3905,-0.03831758669768775
3906,-0.050097368353093884
3907,-0.043278967728893614
3908,-0.028224623336013673
3909,-0.020808632344612596
3910,-0.02857589077198682
3911,-0.04440409311978001
3912,-0.053572861534789434
3913,-0.04769724191513118
3914,-0.03255925398648288
3915,-0.0225996122260472
3916,-0.027330392538957218
3917,-0.042410589248872005
3918,-0.05360418833603249
3919,-0.049732889753115204
3920,-0.03254297044682404
3921,-0.014695529230613964
3922,-0.008402630798572674
3923,-0.01562558858158585
3924,-0.028447381094524594
3925,-0.037973910111151754
3926,-0.04220337157665553
3927,-0.04531927967190303
3928,-0.05030815695479049
3929,-0.05380580335429268
3930,-0.04943902721048793
3931,-0.03643223637057603
3932,-0.023847799006129343
3933,-0.02451343287865296
3934,-0.043171405694786724
3935,-0.07012805670411669
3936,-0.08744381174432736
3937,-0.08306000706718636
3938,-0.06041226385656431
3939,-0.03488073171811133
3940,-0.020470285121130652
3941,-0.01891250349653815
3942,-0.020590479864927694
3943,-0.015262747411301748
3944,-0.0017243622894691955
3945,0.012394299576821356
3946,0.019190473359010925
3947,0.01798769418380778
3948,0.014460294233704995
3949,0.013391286596954117
3950,0.013573937031642221
3951,0.010438785215294868
3952,0.003136591466898626
3953,-0.002296903520989605
3954,0.002064413540996801
3955,0.017571726797124286
3956,0.03591612664056575
3957,0.04515278408644763
3958,0.03943168928908673
3959,0.023327458085723972
3960,0.00706532445092879
3961,-0.002307128392694332
3962,-0.005573916204646044
3963,-0.008700006497001051
3964,-0.01714670252734153
3965,-0.033289474495501466
3966,-0.05815126621648401
3967,-0.09319420386143423
3968,-0.1383088560145843
3969,-0.18771827253080664
3970,-0.22941624895519414
3971,-0.2509151946303265
3972,-0.24721432799720822
3973,-0.2237116496435207
3974,-0.19129219159980032
3975,-0.15853908893403146
3976,-0.12855082558477535
3977,-0.1022055748118865
3978,-0.08197480441708253
3979,-0.06945361723848942
3980,-0.05749642069798257
3981,-0.026291825801768618
3982,0.0480073065025058
3983,0.17454592358176446
3984,0.3329463613071998
3985,0.47670357272556485
3986,0.5560111027284911
3987,0.5453484218505112
3988,0.45638627123039277
3989,0.32765263672461054
3990,0.19989264534278772
3991,0.0956057506482918
3992,0.015637982033081234
3993,-0.04912304794209031
3994,-0.10387782374872793
3995,-0.1454739073050266
3996,-0.16835557617621782
3997,-0.1724826783178522
3998,-0.16473405354273782
3999,-0.153202876947837
4000,-0.14111278420767454
4001,-0.12677823138118416
4002,-0.10908275314791296
4003,-0.091881461069355
4004,-0.08187158234063563
4005,-0.08162891424078225
4006,-0.08523600541806167
4007,-0.08205307354017485
4008,-0.06615246336908709
4009,-0.042642241494192504
4010,-0.02416234747626213
4011,-0.019836588763200193
4012,-0.026473897374030934
4013,-0.030404180467072217
4014,-0.018915414976350416
4015,0.008537111795275373
4016,0.039126239241965115
4017,0.056356568160476884
4018,0.05212599147576391
4019,0.031145136639385257
4020,0.00515513645246119
4021,-0.016621247147967352
4022,-0.03210133132663509
4023,-0.04323946920374634
4024,-0.05012605322321749
4025,-0.0492361358955458
4026,-0.037649691740887635
4027,-0.0184080996989587
4028,-0.0007558902395063561
4029,0.005907360973608457
4030,-0.0008065253345248191
4031,-0.014486296629057887
4032,-0.02511317450742988
4033,-0.026562890351311864
4034,-0.02005360868603325
4035,-0.011363416105710268
4036,-0.005369030728066359
4037,-0.0032126201147491457
4038,-0.0038889860107261653
4039,-0.00721528785237463
4040,-0.014040020549886175
4041,-0.023188683943311434
4042,-0.029039159420216114
4043,-0.02385355442261098
4044,-0.0043333798581258924
4045,0.02322605981172797
4046,0.044910333970585394
4047,0.04824412445688819
4048,0.03159139955971356
4049,0.005931131217910827
4050,-0.0130061939534226
4051,-0.016093593603561534
4052,-0.006454842861662967
4053,0.00483483774350927
4054,0.00864011566931511
4055,0.00441570079375949
4056,-0.0016297202882962426
4057,-0.003991750127112614
4058,-0.0031487105853689654
4059,-0.0036327080908972347
4060,-0.00743618593781392
4061,-0.010132178521597958
4062,-0.004368142373784068
4063,0.012242457617748094
4064,0.03276389588873017
4065,0.04519390406920388
4066,0.0422164544311862
4067,0.02768560346990256
4068,0.013642053180298612
4069,0.010286823194191205
4070,0.01789242788310388
4071,0.027808244628584007
4072,0.031174517076999225
4073,0.02684747084148171
4074,0.021159950232430585
4075,0.020330103572932436
4076,0.023540629143765115
4077,0.023863166674754202
4078,0.016152439472722845
4079,0.003787427986140089
4080,-0.003021037302844966
4081,0.003616200532021685
4082,0.021209995142955726
4083,0.03785271652768432
4084,0.04171278362012198
4085,0.03052713159727871
4086,0.012646286987136894
4087,-0.0007588682299596796
4088,-0.004634218606693334
4089,-0.0020892051820499595
4090,0.0011254605698885777
4091,0.002985856768750933
4092,0.005638121229946604
4093,0.010136441503712672
4094,0.012166297703502194
4095,0.004496189480480169
4096,-0.015522678945689854
4097,-0.0411430972418375
4098,-0.05991027317143766
4099,-0.0633687657665192
4100,-0.053968738633988655
4101,-0.04257824130525101
4102,-0.03882482118983832
4103,-0.04322766878887138
4104,-0.04811023416587277
4105,-0.04569778391592977
4106,-0.03521746952465768
4107,-0.022577603616447874
4108,-0.01405514539444456
4109,-0.011096452966488382
4110,-0.011224895894090352
4111,-0.012895139408583636
4112,-0.017879889407608707
4113,-0.027995363621514734
4114,-0.039989865634915106
4115,-0.045304380946625665
4116,-0.03660043233307045
4117,-0.015301499931691977
4118,0.007771445382624582
4119,0.02038109492158669
4120,0.018552311921088534
4121,0.008884783782605831
4122,0.0013717345863487505
4123,-0.0001089148129767959
4124,-0.00021586905481281145
4125,-0.005323211953790173
4126,-0.014853616450019487
4127,-0.020256140617132292
4128,-0.013390772722345817
4129,0.003842335785712834
4130,0.018806557352409117
4131,0.018236958339831535
4132,0.0003079256614752224
4133,-0.02274293083575953
4134,-0.03443028331007436
4135,-0.027739415177433037
4136,-0.010517001192322867
4137,0.0020303750875506057
4138,0.000541857133585287
4139,-0.011590237731515442
4140,-0.023220309952033134
4141,-0.026724915233123668
4142,-0.024522228749551903
4143,-0.02504918138553381
4144,-0.03287978137281662
4145,-0.043187999707001046
4146,-0.046204546124231416
4147,-0.03732952147405093
4148,-0.02287658698526092
4149,-0.015477023324100697
4150,-0.023020642079698346
4151,-0.041239237486374605
4152,-0.056782885418888526
4153,-0.05805625671560638
4154,-0.044201744682959454
4155,-0.024711550005624822
4156,-0.010919927641503197
4157,-0.007636007727365137
4158,-0.012042337335564039
4159,-0.019350583700124532
4160,-0.028343268696380257
4161,-0.04096085257178282
4162,-0.05704365602506374
4163,-0.07083001276033704
4164,-0.07410368865743237
4165,-0.06369498108235709
4166,-0.045827116672454024
4167,-0.03217329452659874
4168,-0.030414767072163194
4169,-0.03775420406449417
4170,-0.04343918856745823
4171,-0.037999098858461686
4172,-0.020684055225346616
4173,0.001412547510574851
4174,0.020867871230239157
4175,0.036133063835870886
4176,0.05032069250378561
4177,0.06446853095052148
4178,0.07317371332386305
4179,0.06829003461456201
4180,0.04798506249495979
4181,0.022206112151797318
4182,0.007977388493763029
4183,0.017096249230530387
4184,0.04619538583369172
4185,0.07775144831463698
4186,0.0915871279627411
4187,0.07788581159960159
4188,0.04213709572434005
4189,-0.00031805430495675593
4190,-0.03437497953397835
4191,-0.05212272049102357
4192,-0.053563314520987115
4193,-0.043731489767003986
4194,-0.030153440558943805
4195,-0.021395276543754376
4196,-0.024563919078076982
4197,-0.040919536132728265
4198,-0.06273459432128832
4199,-0.07593144004146557
4200,-0.06891011986621262
4201,-0.041613975467042624
4202,-0.006956105498372447
4203,0.017679431765576452
4204,0.022484430214653836
4205,0.010921813344076962
4206,-0.005351546497308609
4207,-0.01709511645009573
4208,-0.023737326680583558
4209,-0.030254248046573742
4210,-0.039174003233667806
4211,-0.04677371619303864
4212,-0.047547752625749964
4213,-0.04172521788780538
4214,-0.0368791000402944
4215,-0.040762290855598696
4216,-0.052323265813961434
4217,-0.06091103572586646
4218,-0.056034606830591166
4219,-0.038915874478394806
4220,-0.02396768503458232
4221,-0.027235708532781108
4222,-0.05161276394113877
4223,-0.08262189825465753
4224,-0.09928546243103348
4225,-0.09061563605742551
4226,-0.06306253808012817
4227,-0.032937264989756354
4228,-0.01193101301534346
4229,0.00035222628163633076
4230,0.010833716117031624
4231,0.02171238388657767
4232,0.026181429441117336
4233,0.015856597057255846
4234,-0.008101655442653713
4235,-0.03253617527859722
4236,-0.042179751469107636
4237,-0.03266031161475544
4238,-0.01367403053635879
4239,0.0010557712186931123
4240,0.007068437209286026
4241,0.012273704732265456
4242,0.02669060985261737
4243,0.04940865704811617
4244,0.06660988753277827
4245,0.0635881555355837
4246,0.03940030638356479
4247,0.009541026053986497
4248,-0.006637494791767872
4249,-0.002268132817906967
4250,0.011988609793211459
4251,0.01821655820394167
4252,0.006346618045815554
4253,-0.02002849827534839
4254,-0.05100898587516441
4255,-0.08165659241429661
4256,-0.11519384099838786
4257,-0.15581713700826932
4258,-0.20002691230828495
4259,-0.23634957345928967
4260,-0.25372025559341915
4261,-0.2495430893097928
4262,-0.22951254706820728
4263,-0.2008613559290171
4264,-0.1675942108378689
4265,-0.1326268973552551
4266,-0.10204370486757891
4267,-0.08276429457673408
4268,-0.07245002130435288
4269,-0.05182618601070641
4270,0.008592213046573791
4271,0.12742132365353231
4272,0.29228545484555685
4273,0.458818060323116
4274,0.5728036898711213
4275,0.600274734291
4276,0.5435800514604979
4277,0.43325570348230286
4278,0.3050569323084228
4279,0.18141838821902367
4280,0.06937835422806747
4281,-0.028995001708602617
4282,-0.10727048900043641
4283,-0.15582420728934904
4284,-0.17088697788436835
4285,-0.16109304978107442
4286,-0.14415488146490804
4287,-0.13587964988275963
4288,-0.14051617482178225
4289,-0.14984777294651497
4290,-0.15096873806249766
4291,-0.13619316306844845
4292,-0.10791278596260229
4293,-0.07589867350630847
4294,-0.050193275929331344
4295,-0.03521928773188937
4296,-0.02888333539252387
4297,-0.02624288534135582
4298,-0.024031465429725
4299,-0.022313820205550533
4300,-0.022525572208055573
4301,-0.02449772220981599
4302,-0.02579153488779344
4303,-0.024098591777935288
4304,-0.020076800448864836
4305,-0.017260572210855755
4306,-0.018583227447716358
4307,-0.022792218024834464
4308,-0.02466012161891097
4309,-0.0194019560578978
4310,-0.007407549966532721
4311,0.005279971279331456
4312,0.011436358935486586
4313,0.008102416527156257
4314,-0.0017758219704186483
4315,-0.0124786900179505
4316,-0.019924139227056083
4317,-0.023270495377415514
4318,-0.023182369808901548
4319,-0.01983578534842223
4320,-0.01343338096778181
4321,-0.0063302458498252535
4322,-0.003249482782578414
4323,-0.007814903645049035
4324,-0.01811303623223983
4325,-0.026199763262896608
4326,-0.02342213327778471
4327,-0.007708583667483402
4328,0.013648147135469364
4329,0.028692209482572333
4330,0.02935293610215234
4331,0.016732554369159665
4332,-0.0009637039741346937
4333,-0.015349284402252528
4334,-0.023193421689617327
4335,-0.025988806167210554
4336,-0.025481700501963727
4337,-0.020592524473291733
4338,-0.009180761886877584
4339,0.007333197799738157
4340,0.02186924709980353
4341,0.02541583399847567
4342,0.014247342722757544
4343,-0.00558340731720726
4344,-0.02104354083586816
4345,-0.02085244703418497
4346,-0.0036778483702992583
4347,0.020577379789197943
4348,0.037506841799069886
4349,0.037962619778288034
4350,0.023788034075900272
4351,0.0058174146746674425
4352,-0.003752204779522421
4353,0.0011248276869851642
4354,0.01771804522730179
4355,0.03743846529388438
4356,0.05130512647447826
4357,0.0543199325644138
4358,0.04701614592024988
4359,0.034554208462521586
4360,0.024383025900706595
4361,0.023089997043270485
4362,0.03308575500253868
4363,0.050595983765558725
4364,0.06676970391549955
4365,0.07222562459389006
4366,0.06266033165592472
4367,0.04167641340279267
4368,0.018588534140831267
4369,0.002668760233406638
4370,-0.002058685270112556
4371,0.0018980173243408466
4372,0.008201715922128516
4373,0.010688337414755004
4374,0.005993101962842598
4375,-0.005833933046434909
4376,-0.021821622596512907
4377,-0.03708038174027278
4378,-0.0466615966949504
4379,-0.04828867086914425
4380,-0.044371543556035745
4381,-0.04103651984227335
4382,-0.04384334015625125
4383,-0.05313371365176495
4384,-0.06314393415412617
4385,-0.06623993260254019
4386,-0.05902939381561864
4387,-0.04509889269802899
4388,-0.03196803489397976
4389,-0.025064696775371535
4390,-0.024134571393871082
4391,-0.02497289966466838
4392,-0.02420616782385401
4393,-0.022132456430845313
4394,-0.020954084806791708
4395,-0.020677795035024954
4396,-0.017514555346257857
4397,-0.007164354316526681
4398,0.009755376107337472
4399,0.02565958126480005
4400,0.03035705690930537
4401,0.019084857905776898
4402,-0.0024154621883746754
4403,-0.02068948705612602
4404,-0.02389144959729958
4405,-0.010653649840270826
4406,0.008624897492053541
4407,0.019407074700638467
4408,0.013755893785669167
4409,-0.004185867784799133
4410,-0.02206113686226778
4411,-0.028989333311925172
4412,-0.023060444405684413
4413,-0.010991412430776844
4414,-0.001293348614716545
4415,0.002419735381049878
4416,0.0023586386210618076
4417,0.0020451946115379797
4418,0.001687580649708022
4419,-0.0018132565317048122
4420,-0.010670438662071877
4421,-0.022625629010959228
4422,-0.031981260603125755
4423,-0.03440749527754218
4424,-0.030842871130277907
4425,-0.026753514932977646
4426,-0.02751400358945455
4427,-0.0341145262144787
4428,-0.04267558156953917
4429,-0.047630756986580924
4430,-0.045678475391665266
4431,-0.03783886423824647
4432,-0.028978542843544237
4433,-0.025557960648115732
4434,-0.03244519378312925
4435,-0.04971520699497046
4436,-0.07119927371801014
4437,-0.08683772406529477
4438,-0.088809986311873
4439,-0.07770533891977069
4440,-0.06328479877014048
4441,-0.05760681588535004
4442,-0.06480995580862775
4443,-0.07593720254198219
4444,-0.07426102356422196
4445,-0.048145395750408354
4446,-0.0015745692924545723
4447,0.04655387987077719
4448,0.07469917661511874
4449,0.07359553376402732
4450,0.05261379745426302
4451,0.03283441125377988
4452,0.032052096415198426
4453,0.052645088931802295
4454,0.08072098978851591
4455,0.09656527939783403
4456,0.08852770858014283
4457,0.06055805590357634
4458,0.028595471987615327
4459,0.009073830413582234
4460,0.00813083434376632
4461,0.01898986582329445
4462,0.028461414331564207
4463,0.02672460669779058
4464,0.012823944532590465
4465,-0.0072310142203880715
4466,-0.026428081401250678
4467,-0.04082756279574416
4468,-0.04905610671767163
4469,-0.04989247561985018
4470,-0.042307755391039606
4471,-0.028570156316403392
4472,-0.01616492402889695
4473,-0.014255240474794456
4474,-0.026092906354041368
4475,-0.04437711768244283
4476,-0.05539110666606112
4477,-0.04978051796342311
4478,-0.03065650973889871
4479,-0.011140014680012255
4480,-0.0030879342405726417
4481,-0.007419887909525322
4482,-0.015212726666534471
4483,-0.018201776949180768
4484,-0.017832730761621073
4485,-0.023365831587655907
4486,-0.040796949324701834
4487,-0.06423864921263836
4488,-0.07950434038686859
4489,-0.07733514514623156
4490,-0.06327488745039754
4491,-0.05358602139658627
4492,-0.06007609080268966
4493,-0.07809234260339087
4494,-0.08963121065360025
4495,-0.07927656788822289
4496,-0.04826817853087624
4497,-0.01361620695038239
4498,0.006661652418144829
4499,0.008165853068215096
4500,0.0013283194955662138
4501,-0.0007222902862000224
4502,0.005043175781797566
4503,0.010472382846922135
4504,0.006859500867398371
4505,-0.004463309081237295
4506,-0.012775779188988414
4507,-0.009152410952394803
4508,0.0035687488891858344
4509,0.0127917991986384
4510,0.008875850863645698
4511,-0.0038083035257856844
4512,-0.008944036464620053
4513,0.007327256599294136
4514,0.04243254468937603
4515,0.07690400048868487
4516,0.08868684768053871
4517,0.07028704711935616
4518,0.034163266739176495
4519,0.0019047291008326664
4520,-0.013429362932423857
4521,-0.016984866139183586
4522,-0.026316153141421723
4523,-0.0559451915053195
4524,-0.10570995381983493
4525,-0.1619893384987423
4526,-0.20904413411102435
4527,-0.2392762754707533
4528,-0.25365883867366
4529,-0.2541631853562517
4530,-0.23822210596182675
4531,-0.2027544411341992
4532,-0.15410368167266755
4533,-0.11160957242953162
4534,-0.09628398774589511
4535,-0.11045366799890069
4536,-0.1261573063749188
4537,-0.09676480147328154
4538,0.011887563063164783
4539,0.19267233104544407
4540,0.39381519981355956
4541,0.545820969401168
4542,0.6001504174492187
4543,0.552476357306984
4544,0.436478965866971
4545,0.2972114903220433
4546,0.16635872597380316
4547,0.055445123076329386
4548,-0.034742673827280295
4549,-0.10261927608583293
4550,-0.14354933970558048
4551,-0.15597502300134802
4552,-0.1464913072305482
4553,-0.12721332605647417
4554,-0.10811445164921857
4555,-0.09230236238047908
4556,-0.07840214427457659
4557,-0.06632735899808204
4558,-0.059518183072245934
4559,-0.06125293822777707
4560,-0.06951832254279823
4561,-0.07665507198445777
4562,-0.07495266218632528
4563,-0.0630947363117626
4564,-0.04736146535203833
4565,-0.03652294635637561
4566,-0.03509594363785115
4567,-0.040556046612512026
4568,-0.04595654623593448
4569,-0.04482452745264649
4570,-0.03442866757430427
4571,-0.016246328136544363
4572,0.005010762632682444
4573,0.022668826379704327
4574,0.030179543214799553
4575,0.024579867782899882
4576,0.009611840183655082
4577,-0.004896226653321747
4578,-0.008785621845386827
4579,0.0009585871743801443
4580,0.017284235281027398
4581,0.028030244455683966
4582,0.025188970056187004
4583,0.010531247124988211
4584,-0.007335763249079065
4585,-0.02132240812700619
4586,-0.031177110494411818
4587,-0.040512658969595675
4588,-0.04916366343919207
4589,-0.05001068903661757
4590,-0.035256647752029496
4591,-0.006842799743818512
4592,0.02022835115224248
4593,0.02742999721487712
4594,0.008336734350445255
4595,-0.023822681857560868
4596,-0.04493528415624516
4597,-0.03876018316891387
4598,-0.009714413499628803
4599,0.02141404014477697
4600,0.03479040572049545
4601,0.026564753415549848
4602,0.00923570427166137
4603,-0.001155762463269181
4604,0.001782638340042225
4605,0.012468034313676518
4606,0.02151732499474907
4607,0.024556625958170895
4608,0.02332078846536597
4609,0.02025920200258917
4610,0.014581009161847248
4611,0.004668331213448888
4612,-0.006774850873110861
4613,-0.012419170684748702
4614,-0.006989759140770279
4615,0.005778021647741894
4616,0.01457562300140009
4617,0.010911861437584502
4618,-0.0011731742437281365
4619,-0.006799363807241896
4620,0.00634198491092887
4621,0.03476957253000117
4622,0.05955874119657663
4623,0.06170579222839203
4624,0.039422597591307576
4625,0.011273808048420552
4626,0.0012781297609533668
4627,0.018607093070646688
4628,0.04987210019956553
4629,0.07090150662236794
