,0
0,-0.020083158653749447
1,-0.027217494806297926
2,-0.034807717565686604
3,-0.04266535732055861
4,-0.05022479646646126
5,-0.057426702020249513
6,-0.06495236609443954
7,-0.07309564041833087
8,-0.0802377468652044
9,-0.0828552961774516
10,-0.07786592002743595
11,-0.06565979467713196
12,-0.050840681423311225
13,-0.039262301384360564
14,-0.033382000236463205
15,-0.030039625181453776
16,-0.023102068743557976
17,-0.009066447860925211
18,0.009338791681302857
19,0.02507945422960036
20,0.032803604038476736
21,0.03347117894829272
22,0.03324345822856893
23,0.037584028000568384
24,0.04613413227414541
25,0.05324567989322623
26,0.053582240676804144
27,0.047243817812710934
28,0.03938861099188721
29,0.03487806398624818
30,0.03350374705476471
31,0.030722648425113762
32,0.0230924489888186
33,0.012609446342321952
34,0.005141647063953586
35,0.004279054524910551
36,0.00695003378307755
37,0.005737114458405722
38,-0.003885533552482968
39,-0.018469658589865504
40,-0.02906824114995344
41,-0.029372694753916767
42,-0.021830046687172956
43,-0.015669878194451647
44,-0.018448000586360598
45,-0.029045738910512486
46,-0.03880425543085838
47,-0.0397339650362679
48,-0.03197293782068883
49,-0.02342408123688825
50,-0.022035936295616357
51,-0.02821409352964236
52,-0.03461545488816414
53,-0.033397838737775104
54,-0.023861322106728096
55,-0.013164007243560207
56,-0.009546602165621105
57,-0.01465574632031173
58,-0.02226101733856262
59,-0.024390069160347312
60,-0.01883563862327984
61,-0.010901178156411706
62,-0.008000382750408305
63,-0.01256561110621359
64,-0.020047886389317624
65,-0.023566700064818286
66,-0.020342841436732317
67,-0.013711365920911853
68,-0.009274182627632523
69,-0.009549131832275022
70,-0.012473767865995213
71,-0.014645779393887625
72,-0.015194879371626398
73,-0.015950465762314257
74,-0.018110848708739538
75,-0.019769132807960957
76,-0.017702975796168363
77,-0.01174190269863902
78,-0.006501148948825378
79,-0.007597801446847691
80,-0.015571331096338145
81,-0.024034639236035604
82,-0.024969091197298204
83,-0.016693513534124703
84,-0.006508249933732134
85,-0.004570639559352548
86,-0.014209627879719267
87,-0.027994415046779936
88,-0.03386611594348145
89,-0.02600685927410573
90,-0.010279778532716949
91,0.0009866288506488313
92,-5.987734807201463e-06
93,-0.010071025484497304
94,-0.0189259702655586
95,-0.019239955571334053
96,-0.013001888512918263
97,-0.008425764128606251
98,-0.011088707153592864
99,-0.018410919623462037
100,-0.022771790360823687
101,-0.019661824358646995
102,-0.012355224723404048
103,-0.008429389450889908
104,-0.011906738531517963
105,-0.019185717408262977
106,-0.022909576122894116
107,-0.019732335200003386
108,-0.013965404184044922
109,-0.013320801821148915
110,-0.0210450731673341
111,-0.03244276523496505
112,-0.03937610668648146
113,-0.03826987760969292
114,-0.033591033059092
115,-0.0333063087216474
116,-0.04088343618116419
117,-0.05186096333843554
118,-0.05836663367888512
119,-0.05688914435729081
120,-0.051294226782458915
121,-0.0479681345227658
122,-0.04819667714013627
123,-0.04604401656212251
124,-0.03460464845533444
125,-0.014719879303807887
126,0.003053537543145933
127,0.006489813313474983
128,-0.00682346298352348
129,-0.025335855805648795
130,-0.03152187377182803
131,-0.015839642377204585
132,0.0153183910727877
133,0.044719986704508295
134,0.0581063321679785
135,0.054895745132775266
136,0.04700007490852646
137,0.04758019158869037
138,0.06002671010827393
139,0.0764218741077167
140,0.08575492022285
141,0.08374636419487821
142,0.07564452819456832
143,0.07044716760773026
144,0.07259509252580937
145,0.0785103379230663
146,0.08006086620709989
147,0.07081447036309779
148,0.049545777600986676
149,0.019296206402831216
150,-0.01528271633634807
151,-0.04905765252985722
152,-0.0759904375455917
153,-0.08986022072991738
154,-0.08762391591162477
155,-0.07302741131237932
156,-0.0561429643462044
157,-0.047413242195935915
158,-0.05021425341953557
159,-0.05836835166267962
160,-0.06137024413410003
161,-0.05325892520084867
162,-0.03752465569898676
163,-0.023836425250611387
164,-0.019740725909936415
165,-0.024900716824707698
166,-0.03277142619447827
167,-0.037531454771750385
168,-0.03945935998363222
169,-0.04399400614093045
170,-0.05605890994090708
171,-0.07548433870693291
172,-0.09764507178925362
173,-0.11799318107167901
174,-0.1356851679876861
175,-0.1531477885641893
176,-0.17292001786358235
177,-0.19555771980815057
178,-0.22054774386395484
179,-0.24848691907771603
180,-0.28135376482133445
181,-0.31987403532524666
182,-0.36020252252556395
183,-0.3930303802540732
184,-0.4061274717041382
185,-0.3886025041248874
186,-0.33433056495547137
187,-0.24323580750075932
188,-0.12068206504416702
189,0.02423384000008185
190,0.18086846388965355
191,0.33904463457678535
192,0.48998941250039296
193,0.6257046049038164
194,0.737560320704255
195,0.8158911962051896
196,0.8517544277924591
197,0.8400855511651353
198,0.7821284914345867
199,0.6855985198691378
200,0.5628361904176038
201,0.42826244422187904
202,0.2959058730500218
203,0.1768742670731533
204,0.07695279139265661
205,-0.004296290737528139
206,-0.07149947251738377
207,-0.12916825369468024
208,-0.1782393813874682
209,-0.2163958249560603
210,-0.24175945244650077
211,-0.256172783241287
212,-0.2646054456748492
213,-0.27123809482778327
214,-0.27633346288176935
215,-0.27715113133286273
216,-0.27169726336754174
217,-0.26096902637046127
218,-0.24719573910705198
219,-0.23043082405651383
220,-0.20808926547733625
221,-0.17873853703826292
222,-0.146084500996091
223,-0.11793446094743323
224,-0.0999475414530181
225,-0.09011438868306088
226,-0.08016432208085202
227,-0.06341682289324052
228,-0.04161441704742014
229,-0.02361323985656705
230,-0.01674560531222659
231,-0.019303789626367168
232,-0.021847618904304988
233,-0.016278041509657337
234,-0.003652726892039832
235,0.0071718571025410184
236,0.008732672853662075
237,0.002635416191972405
238,-0.0021493118882958376
239,0.001330558431681526
240,0.010546944656673721
241,0.015702071280091205
242,0.009584962320902064
243,-0.0047630641954438105
244,-0.01635910162264482
245,-0.016492878791855452
246,-0.006964594950559448
247,0.0015843632979966014
248,-0.00046582441832469356
249,-0.013135004814660024
250,-0.027449690048135918
251,-0.03410052856981739
252,-0.03155617209448103
253,-0.026218809728483936
254,-0.025349762333253874
255,-0.030281114451007115
256,-0.036381945905121935
257,-0.0389666786989733
258,-0.0384530683754372
259,-0.039384021043658304
260,-0.04469139906447883
261,-0.051640249764359256
262,-0.0540764245524245
263,-0.04889768118316412
264,-0.04004494035984203
265,-0.035568934939570106
266,-0.040257330325429885
267,-0.05093882425224225
268,-0.05919114267241318
269,-0.05902668826129717
270,-0.05223900103616115
271,-0.04630663618998755
272,-0.04695178421628193
273,-0.052615807786967214
274,-0.05619815380842
275,-0.052270458395971164
276,-0.04259274147364224
277,-0.03439755431741789
278,-0.03301054775266603
279,-0.03603329567223723
280,-0.0349760522022176
281,-0.02310338295217318
282,-0.0021817623751467017
283,0.01832637015651902
284,0.029054465144911272
285,0.028428365514916586
286,0.023354441392753677
287,0.0225919205385252
288,0.029184073006439486
289,0.03879359225796855
290,0.044852007452505394
291,0.04501794187176594
292,0.04269413511284338
293,0.042673346913698826
294,0.04583354510545121
295,0.048377669808711846
296,0.046114487897261046
297,0.03903059144405432
298,0.031297306912832175
299,0.02683741905728938
300,0.025309756080334214
301,0.02285178446698823
302,0.01672265919832325
303,0.008668506459804274
304,0.003090523907622375
305,0.00175442717011053
306,0.0008616933525075672
307,-0.005749944435830008
308,-0.019906731159723322
309,-0.03571825473617247
310,-0.043668861524998624
311,-0.03905325088012025
312,-0.026900530404200564
313,-0.01832801941583436
314,-0.02120776326116263
315,-0.03351163844541315
316,-0.04533673777951245
317,-0.04759125951048001
318,-0.0393183619784045
319,-0.02730695094254297
320,-0.019137569460620552
321,-0.016744617588243915
322,-0.016359715648598082
323,-0.013953893409642478
324,-0.009976724972152086
325,-0.00849436205088425
326,-0.012068759215507922
327,-0.01825912121510661
328,-0.021771171561232806
329,-0.020075794392204565
330,-0.01636951869732289
331,-0.01634640796724337
332,-0.021839638336275308
333,-0.028088272014483173
334,-0.028058444400958723
335,-0.01996181590395587
336,-0.010279415064241251
337,-0.008505407774765945
338,-0.018026119973222066
339,-0.031948955238655326
340,-0.038529540189370784
341,-0.031701725966082936
342,-0.01689240850282587
343,-0.006295892310572663
344,-0.007665842538165999
345,-0.017076749979604587
346,-0.02266074550043055
347,-0.016028599171829333
348,-0.000665383889669639
349,0.010752769469258234
350,0.007799580966543132
351,-0.008104433863677877
352,-0.024823949428656615
353,-0.03017463773915196
354,-0.022117429906049632
355,-0.009279807992619191
356,-0.0020380601365633964
357,-0.0032022138589844385
358,-0.00708081976007526
359,-0.006963635932174402
360,-0.0027384154058316956
361,-0.000708569727972013
362,-0.006101246588339881
363,-0.01649194372624368
364,-0.02343791121960278
365,-0.020954188673152126
366,-0.012049750122865237
367,-0.006199478542073859
368,-0.009901605247817954
369,-0.01988873860367327
370,-0.026253301023778826
371,-0.022708037935729786
372,-0.01358334161575326
373,-0.010033679708800565
374,-0.018793642208522504
375,-0.034770885801289154
376,-0.04540458464153894
377,-0.04299021582708845
378,-0.03277599056609139
379,-0.028346054782777134
380,-0.03833887719059982
381,-0.05747619411845667
382,-0.07100784405340638
383,-0.06852453750510587
384,-0.053666453664535305
385,-0.04012373671107779
386,-0.03785575393228019
387,-0.0432397048232702
388,-0.043053609077557634
389,-0.02845488274495279
390,-0.005049505143423191
391,0.011203771461956665
392,0.008681820043681902
393,-0.008608885515084465
394,-0.023948464740339397
395,-0.022293049371586358
396,-0.00269546834497676
397,0.02238191988539351
398,0.039344300307792526
399,0.045244192427032114
400,0.04835626032358162
401,0.05813678590715664
402,0.07506273227480584
403,0.09011230652092106
404,0.09375520417583402
405,0.0852872341244775
406,0.07359960981426397
407,0.06903129291562267
408,0.074152459593636
409,0.08165854199152728
410,0.08052854257814263
411,0.06440840909108866
412,0.03526060855888942
413,0.0005295945624590693
414,-0.032269275645026546
415,-0.05865549215052521
416,-0.07669890945870769
417,-0.08542741169536293
418,-0.08480434195394239
419,-0.07708316856955563
420,-0.06707331138394532
421,-0.05980460307613969
422,-0.05714378977213326
423,-0.056605696830549584
424,-0.053866207881694515
425,-0.04691671657202168
426,-0.03803043503247253
427,-0.0316814094202084
428,-0.03046450654036699
429,-0.03306261337758054
430,-0.03631007326915851
431,-0.03925238275521588
432,-0.04490260726418452
433,-0.05751358210598541
434,-0.07776855158730248
435,-0.10083669378119266
436,-0.11991415434259699
437,-0.13252651679709826
438,-0.14362893065745252
439,-0.16196369768403696
440,-0.1924416144742135
441,-0.23157028581366507
442,-0.2705944049526522
443,-0.3036460252753814
444,-0.33273606155491425
445,-0.3636958440871114
446,-0.39587628052594837
447,-0.41548115683035847
448,-0.40042596654462603
449,-0.3344007432984664
450,-0.21860006774837543
451,-0.07061007559940101
452,0.08882227501476264
453,0.249133864179838
454,0.4110807424160339
455,0.574913156023811
456,0.7275614163859601
457,0.842291429096195
458,0.8927348400407349
459,0.8695637667372823
460,0.7855425728896108
461,0.6655949300249411
462,0.5319947678474813
463,0.39765540540715205
464,0.27057562659629564
465,0.16064166746449574
466,0.0786247206794555
467,0.027389688007421753
468,-0.004331344743459767
469,-0.03638708269010501
470,-0.08263333405166384
471,-0.1403622354882838
472,-0.1940379708722485
473,-0.2300334428241407
474,-0.24825591110020254
475,-0.25974629858179876
476,-0.2734852820234792
477,-0.2863860126705008
478,-0.28685569650123033
479,-0.2681159812924204
480,-0.2372700998379965
481,-0.21033480015917064
482,-0.19776935558226022
483,-0.1948332650956161
484,-0.18646827203745653
485,-0.16204899974464632
486,-0.12567818176726395
487,-0.09221834351436146
488,-0.07323700153197563
489,-0.06660987532851481
490,-0.05954662811332126
491,-0.041621241737941836
492,-0.015036313266787563
493,0.007443627773795381
494,0.014400294859383052
495,0.00600786132026156
496,-0.0066049631094801985
497,-0.011456540966765865
498,-0.005398164818364767
499,0.00511696241672013
500,0.011639678612206952
501,0.011589423036460073
502,0.009075712881598407
503,0.008974430763032115
504,0.011065000688155604
505,0.010301552416177112
506,0.0026157880004022962
507,-0.01000971046653474
508,-0.020567806751652932
509,-0.023250482071129785
510,-0.018724061623528472
511,-0.013273913463180877
512,-0.012730777692468501
513,-0.017200031849821898
514,-0.021699717321737214
515,-0.021855551280232987
516,-0.018773420662136366
517,-0.018116396826071857
518,-0.02431835854008447
519,-0.0358214598543973
520,-0.04622048789981279
521,-0.05022459218424398
522,-0.04845296755777155
523,-0.0462751583773104
524,-0.048017850095500136
525,-0.0526242573035116
526,-0.05529406821298136
527,-0.05327551741046385
528,-0.04944335634344755
529,-0.04948969035227068
530,-0.055413129630128885
531,-0.06234404523969871
532,-0.06270439477458375
533,-0.05401639256203525
534,-0.04227864573356572
535,-0.03672544499774885
536,-0.040531338016116907
537,-0.04677569209647068
538,-0.04442028239946377
539,-0.029174049914993158
540,-0.008698676759583444
541,0.003519405540246779
542,0.00043617149557999106
543,-0.011645808717800115
544,-0.018331204028201632
545,-0.009881147640685088
546,0.010378824110042244
547,0.029698511244950758
548,0.03782988423006286
549,0.03578805032170776
550,0.0334333932491457
551,0.03886757503419837
552,0.05035059448031266
553,0.058479466652210974
554,0.055967333575664
555,0.04496861314674986
556,0.03469730761232492
557,0.032005773069400334
558,0.034587036724398515
559,0.03364078088364815
560,0.023214170964595396
561,0.006722809564674521
562,-0.005976306355201606
563,-0.008111486073254905
564,-0.0026787232186753023
565,0.00036183710485718397
566,-0.006336812623913416
567,-0.020499420636860423
568,-0.032554034014892055
569,-0.03490246541452441
570,-0.029043296933306977
571,-0.02370773063449761
572,-0.026041245522276567
573,-0.03459654025953449
574,-0.040967141273498944
575,-0.03831526402564851
576,-0.028312878753338742
577,-0.019678544343026592
578,-0.01981078122218705
579,-0.02775695007269946
580,-0.0353344614817153
581,-0.03514199427907645
582,-0.027492540060894945
583,-0.019552804667239528
584,-0.017837167266262773
585,-0.021781918097454847
586,-0.024861395307867122
587,-0.021927842823579662
588,-0.015051223501218012
589,-0.011631192861174105
590,-0.016508040206881687
591,-0.0261576790681358
592,-0.031247459646379778
593,-0.025479540109055433
594,-0.012104533168172203
595,-0.0014667041665429785
596,-0.0016696920058071301
597,-0.011286601704218774
598,-0.021099154033703355
599,-0.023001967447081897
600,-0.01727242902321086
601,-0.011292094410087128
602,-0.01151034931129732
603,-0.017086913344842077
604,-0.02153979137881703
605,-0.020193461769047336
606,-0.015209454550558563
607,-0.012758723418637914
608,-0.015509051028439592
609,-0.01888832737250682
610,-0.015754496425474204
611,-0.00496236071541048
612,0.00548011603562636
613,0.004976977381471516
614,-0.009134408814819344
615,-0.027662937164101432
616,-0.036922357911365104
617,-0.030948092886677096
618,-0.016937710447275364
619,-0.008503031497581678
620,-0.013103327827265338
621,-0.025715577942837964
622,-0.03463212052163446
623,-0.03331720561621439
624,-0.026418290867311296
625,-0.024132521507467627
626,-0.030994879967289415
627,-0.040791487175044744
628,-0.04300091953277479
629,-0.03429292995099509
630,-0.02321201323394185
631,-0.02280700494459928
632,-0.03806675442106514
633,-0.06044750909869839
634,-0.0750180389513898
635,-0.07346107861709034
636,-0.060533610372142506
637,-0.04814070958168208
638,-0.043339049055265366
639,-0.04227965810082988
640,-0.03579671287932851
641,-0.020491177177673202
642,-0.0036425786925209044
643,0.003417693692295989
644,-0.002941527889962067
645,-0.013645628270317987
646,-0.014145129191049079
647,0.0026349969825519948
648,0.029949416702065065
649,0.05362362537303482
650,0.06507999179897116
651,0.0685050723203147
652,0.07536636524408152
653,0.09179090771183955
654,0.1113012569889831
655,0.12025332408866757
656,0.11094514142601017
657,0.08970234014627058
658,0.0717751624547899
659,0.06739842246767536
660,0.07195706690739156
661,0.06962530427601966
662,0.04740978887160925
663,0.006931638652618581
664,-0.03652039453234553
665,-0.06637861993441926
666,-0.07717990146924392
667,-0.07626966454097991
668,-0.07461906230714928
669,-0.0764151750791548
670,-0.0771441352260137
671,-0.07076715869742053
672,-0.05769477365109313
673,-0.045234144372616844
674,-0.04046871857682589
675,-0.043355113230652054
676,-0.047288509384500105
677,-0.04638025600745795
678,-0.041697154353676776
679,-0.0399474626178223
680,-0.046137240632036364
681,-0.058096976495315866
682,-0.06882491007008226
683,-0.07433567726192598
684,-0.07874387522023427
685,-0.09092400268529899
686,-0.11570741475619147
687,-0.1484014813222983
688,-0.17841803237182013
689,-0.19889195111589242
690,-0.2132375106297277
691,-0.23246147466626602
692,-0.2657200014543529
693,-0.31247718204282515
694,-0.36230642946930536
695,-0.4008790638764247
696,-0.4158440151125303
697,-0.39846647098368837
698,-0.34270385363769895
699,-0.24594399741973855
700,-0.11224543722077888
701,0.04595305161846803
702,0.21167549004663994
703,0.37112703129356844
704,0.5183804495238786
705,0.6518951383290637
706,0.765802140548725
707,0.8452102238260217
708,0.8720881759973939
709,0.8381517770570273
710,0.7533321864012512
711,0.6411663749094796
712,0.524027120142851
713,0.4106785624142111
714,0.2967607104000417
715,0.1768847931832625
716,0.05628183694529495
717,-0.04934946093591344
718,-0.1256797178985018
719,-0.17189908336206874
720,-0.20146011785592327
721,-0.23044139856173337
722,-0.26410981203406536
723,-0.29377998013511075
724,-0.30639211628058594
725,-0.29761881055945055
726,-0.2764915524920435
727,-0.25773793655903676
728,-0.24930072723493288
729,-0.24649566455746655
730,-0.23770064489727677
731,-0.21581579669692627
732,-0.1848308566593516
733,-0.15584165049599363
734,-0.1367604983178977
735,-0.12553466874431096
736,-0.11301656525158929
737,-0.09242978506975401
738,-0.06630941709689252
739,-0.04438718370888222
740,-0.03452774800058787
741,-0.03531959745275995
742,-0.037247106808714174
743,-0.031236022662842335
744,-0.016530019472240302
745,-0.0007212999626838906
746,0.007684878234219301
747,0.006884567854347381
748,0.0025523659501230376
749,0.0016617719285109394
750,0.005828412962247588
751,0.01058863518267204
752,0.010715708542594203
753,0.005698729075260525
754,-0.0001832209919112015
755,-0.002810637508335718
756,-0.002598439193544447
757,-0.0035993430398740915
758,-0.00850866213950209
759,-0.015224674901230393
760,-0.018913991796568698
761,-0.01747663931271868
762,-0.014414978882712096
763,-0.015664410875550733
764,-0.023382135591759577
765,-0.03320643049700954
766,-0.03819416863321598
767,-0.035736689313165926
768,-0.03039763821881178
769,-0.02949334446855476
770,-0.03561135213172724
771,-0.043635587511026974
772,-0.04558977662546865
773,-0.03879387336605283
774,-0.029263255837290905
775,-0.026692662527284475
776,-0.03556186132646001
777,-0.05082945587715507
778,-0.06239400907149777
779,-0.06409907050857823
780,-0.058714827620165215
781,-0.05428410868965047
782,-0.055625004920701424
783,-0.05944695855262587
784,-0.05792216743555414
785,-0.04718408434031505
786,-0.03226437441130865
787,-0.0233032415759032
788,-0.02631916049480908
789,-0.037246783238345765
790,-0.04505968940393959
791,-0.041279119460985114
792,-0.027140125182573294
793,-0.011890566616777974
794,-0.00402550749435103
795,-0.003778162328271606
796,-0.0037623424157117824
797,0.003216558413455823
798,0.01688419519879452
799,0.02966632899258799
800,0.03388634022408446
801,0.028908158013960017
802,0.021499830904447077
803,0.019458694996283527
804,0.024918749571772883
805,0.0335896921215602
806,0.03994690590518153
807,0.04255961193366686
808,0.04412370821123908
809,0.04670723803627099
810,0.04790421703439776
811,0.0425903002193638
812,0.028817212898991237
813,0.011537562374182282
814,-0.0004435851242045385
815,-0.002093762852258656
816,0.002895185773639973
817,0.005040383456856352
818,-0.0023633982092938826
819,-0.016943265151204794
820,-0.02927113711804801
821,-0.03147411735869518
822,-0.024397280710207348
823,-0.016592875654215557
824,-0.016146991779109388
825,-0.02314013693916307
826,-0.02988716782230943
827,-0.02865681051828724
828,-0.019448825861079707
829,-0.010369590005020433
830,-0.010180245259462806
831,-0.01999840832929136
832,-0.0319427282789218
833,-0.03602850953770995
834,-0.028987170868703692
835,-0.016996410708672124
836,-0.01000937143903181
837,-0.01303632082778092
838,-0.022271967465489827
839,-0.029225709901105186
840,-0.028626187658738193
841,-0.022723006581166022
842,-0.01838732330736496
843,-0.020266331875495706
844,-0.026641540215487373
845,-0.03160069604255096
846,-0.030907816279405434
847,-0.025659416060943244
848,-0.020440556895104794
849,-0.0183358327662838
850,-0.018079248697131425
851,-0.016066957732156953
852,-0.010767233992970963
853,-0.004681690814804584
854,-0.0018192726173992943
855,-0.003538199383536079
856,-0.007323307934583403
857,-0.009767928832819885
858,-0.0103239117081383
859,-0.01147870136343327
860,-0.015054132989247716
861,-0.01894015242109697
862,-0.018504643583433573
863,-0.011831057483441286
864,-0.003187991616694069
865,-0.00022533728293793191
866,-0.0067984688882646565
867,-0.018501455358919096
868,-0.026051092066491033
869,-0.02391177659454712
870,-0.015756423518687057
871,-0.0109114074942113
872,-0.014861545780152183
873,-0.023283022110876416
874,-0.026032732183302605
875,-0.01759212755638872
876,-0.0035511942912690273
877,0.00383552676487354
878,-0.0028059914228915914
879,-0.018560074979316693
880,-0.03050477755093974
881,-0.02982247520275603
882,-0.02002981779395316
883,-0.013311145502278241
884,-0.01861613499020789
885,-0.03322983765830413
886,-0.045929766022344866
887,-0.048271336380550395
888,-0.042610679211618305
889,-0.039022235813016795
890,-0.044534516210018936
891,-0.05567574849473962
892,-0.061727487974825836
893,-0.05521640855523579
894,-0.039099729110465525
895,-0.023756488824835012
896,-0.017241624060636365
897,-0.018678356683578742
898,-0.020892945821586465
899,-0.018709068122499766
900,-0.0138352707865661
901,-0.01144681289420853
902,-0.01270328314060023
903,-0.011828944937187703
904,-0.001425140834559105
905,0.019336747145869054
906,0.04249014996213206
907,0.057974172373936504
908,0.06290210492917084
909,0.06400275221238118
910,0.07048646896526997
911,0.0843413266415076
912,0.09793563068237235
913,0.10160162639010367
914,0.0936623467074622
915,0.08250591290848065
916,0.07801234843627712
917,0.08048550882542604
918,0.0783897091160934
919,0.05813171471344683
920,0.017389996441144296
921,-0.03053426624914158
922,-0.06601541393795106
923,-0.07819792018680123
924,-0.07261299204385452
925,-0.06482878191274044
926,-0.06627108616393582
927,-0.07509123233685087
928,-0.07979785898032427
929,-0.07145224129276784
930,-0.052726460639028506
931,-0.0356784515664285
932,-0.030888035423970853
933,-0.038360782008717495
934,-0.0484130309453091
935,-0.05118665544182868
936,-0.045684351269166604
937,-0.04022219070821992
938,-0.04448007499975975
939,-0.060881689979407565
940,-0.08306815965163658
941,-0.1022660879911354
942,-0.11520390911127792
943,-0.12635389156167515
944,-0.1429748971737805
945,-0.1680770332214722
946,-0.1979839615853354
947,-0.2265700534060398
948,-0.25195048499362355
949,-0.2790487119863314
950,-0.31497718164427785
951,-0.360412252895987
952,-0.4038913299980752
953,-0.4241967908242774
954,-0.40010589469986013
955,-0.32126860166752924
956,-0.19297918172339631
957,-0.031944117211562914
958,0.14332186179506504
959,0.3200298637905696
960,0.49113104889941006
961,0.6488379316026955
962,0.7785281617490625
963,0.8600698477868374
964,0.8774388710774077
965,0.8298479054963288
966,0.7351181330916936
967,0.6213657608478516
968,0.512196206523065
969,0.415890688295052
970,0.3259657953763163
971,0.23156799314870138
972,0.12891943156251917
973,0.025236535901607772
974,-0.06662214680822587
975,-0.1372707148861392
976,-0.1862893718578357
977,-0.22077215692381383
978,-0.24929376935189385
979,-0.2762958868851848
980,-0.3003268996044358
981,-0.31619586622700036
982,-0.3188512775905723
983,-0.3066219977384267
984,-0.2824412109559814
985,-0.25273717158607967
986,-0.2245755798295352
987,-0.20245456231538755
988,-0.18650720342707042
989,-0.17318171541938582
990,-0.15791686689843265
991,-0.13803638806999016
992,-0.11411190091273794
993,-0.08928136158045932
994,-0.06731818564581715
995,-0.050679456698366585
996,-0.0394086951018848
997,-0.03128951181465785
998,-0.023274513447747128
999,-0.013627927384258548
1000,-0.0034314739121566753
1001,0.0040221874608066385
1002,0.0060594524388492025
1003,0.003605992214410981
1004,0.0013799270686094256
1005,0.004337927412612919
1006,0.013006502259387848
1007,0.02210278034139261
1008,0.02445940729698871
1009,0.017338701992846546
1010,0.005395534669897964
1011,-0.0029354213458723907
1012,-0.0028066166034520813
1013,0.0026515653298704615
1014,0.005281718774334303
1015,-0.00028731596720390834
1016,-0.011316911209866533
1017,-0.019412906018910187
1018,-0.01867057944132191
1019,-0.01174413778755827
1020,-0.0077790454993087715
1021,-0.013875764237251476
1022,-0.028136718045994435
1023,-0.04107192649995238
1024,-0.04422795044181421
1025,-0.03792388522246966
1026,-0.03074972867195317
1027,-0.03135745684293386
1028,-0.040453347587612036
1029,-0.05060935778568062
1030,-0.053848582967401554
1031,-0.04943750030806324
1032,-0.04427883770167401
1033,-0.04569782951908396
1034,-0.05389226409493259
1035,-0.061518112891939106
1036,-0.060729651423325266
1037,-0.05067406430695884
1038,-0.03818267614030003
1039,-0.03128370094790861
1040,-0.03216637074858495
1041,-0.03639267943369963
1042,-0.03854920791984567
1043,-0.03803762248701968
1044,-0.038903833446530464
1045,-0.0441203847038995
1046,-0.050708662012817304
1047,-0.05130353362896587
1048,-0.0410243464814871
1049,-0.02278699562962657
1050,-0.005437854363578673
1051,0.0038415608055510316
1052,0.005636418830660775
1053,0.007054112727275083
1054,0.014460360677650993
1055,0.02735368907291201
1056,0.03925244540945824
1057,0.04443745254664745
1058,0.04366586032677469
1059,0.043178002602658416
1060,0.04811722254851441
1061,0.057028787970784624
1062,0.06294390059043634
1063,0.05997449548874632
1064,0.04893640104061249
1065,0.036559599176986264
1066,0.029161570555141132
1067,0.02696452269404329
1068,0.0244235093495417
1069,0.0160005886497643
1070,0.0016757131330520363
1071,-0.012975145278216116
1072,-0.021879713443419824
1073,-0.023641972679571403
1074,-0.022011816064778218
1075,-0.021727175831339995
1076,-0.02418293708170601
1077,-0.02706506911879712
1078,-0.027730272237083704
1079,-0.026337558018103405
1080,-0.025345197580246975
1081,-0.026145659064980523
1082,-0.026843016903331643
1083,-0.02402449023116102
1084,-0.01698386490258085
1085,-0.00983378676713216
1086,-0.008652132638743227
1087,-0.015797962555322273
1088,-0.02682937180942678
1089,-0.033493980030004436
1090,-0.03060636478427657
1091,-0.02066954023457557
1092,-0.011848732746172975
1093,-0.010947408077052391
1094,-0.017699144456959495
1095,-0.025479369362338536
1096,-0.027543490598786136
1097,-0.022828166823978837
1098,-0.01603863556256444
1099,-0.012421875049649186
1100,-0.012685691259786115
1101,-0.013045374624113603
1102,-0.009986909851058493
1103,-0.004540998280162068
1104,-0.0015080370307827395
1105,-0.004434899724695664
1106,-0.011658344634553237
1107,-0.017684785884516933
1108,-0.018594713760277645
1109,-0.015837684815288598
1110,-0.014337628845973192
1111,-0.01680717328311035
1112,-0.020367876885929337
1113,-0.01939959768495318
1114,-0.01196836327433527
1115,-0.002999940492037507
1116,-0.0002513758409275979
1117,-0.006549103750562296
1118,-0.016160635093280824
1119,-0.019621277712224786
1120,-0.012908995692897652
1121,-0.001965791493646024
1122,0.0024400095638959854
1123,-0.0049117703377156065
1124,-0.018092035550416836
1125,-0.02504225614045655
1126,-0.018822819790877098
1127,-0.004376704451321553
1128,0.005844392118682933
1129,0.0033330076595858796
1130,-0.008885366236679128
1131,-0.019670216791082204
1132,-0.020564002494626824
1133,-0.013295687694919508
1134,-0.006945215732051221
1135,-0.008236624231777385
1136,-0.015126756529495036
1137,-0.0200371658927185
1138,-0.01884602750765039
1139,-0.015774600352191318
1140,-0.018764533038482304
1141,-0.030168749384061774
1142,-0.042840518190594035
1143,-0.04636617671912386
1144,-0.03762393733625688
1145,-0.024978302836718633
1146,-0.021428307471003057
1147,-0.03296739926364914
1148,-0.05322551062808284
1149,-0.06929386208227256
1150,-0.07275354205481727
1151,-0.06528214351195072
1152,-0.054247336157579186
1153,-0.0439661709902929
1154,-0.032238357383985464
1155,-0.015521353241194965
1156,0.00356598016063617
1157,0.015598896136625282
1158,0.01264570597503063
1159,-0.002283059223091745
1160,-0.014788860836259087
1161,-0.009732730303751064
1162,0.01584038230168576
1163,0.04934742514084704
1164,0.07254924182350608
1165,0.07635455638610118
1166,0.06762404239066194
1167,0.06217012042152848
1168,0.07047204287763892
1169,0.0889023588533659
1170,0.10392890014441133
1171,0.10490223222864126
1172,0.09351219965093645
1173,0.08143204763321821
1174,0.07862796377967994
1175,0.08321285908801082
1176,0.08212563923993396
1177,0.062088383857440976
1178,0.02126420452051453
1179,-0.028270561250614674
1180,-0.06890661876744687
1181,-0.08933155316755753
1182,-0.09036173451439308
1183,-0.08136768699328151
1184,-0.07189312447356441
1185,-0.06591997668731295
1186,-0.06230176965080654
1187,-0.05884553205661448
1188,-0.05518498276751931
1189,-0.05230524079619661
1190,-0.05062265685031296
1191,-0.04953612545829271
1192,-0.048874801690485206
1193,-0.0500462969440216
1194,-0.05504975381544652
1195,-0.0642663428885287
1196,-0.07568543711712608
1197,-0.08679415497614373
1198,-0.09729402405981137
1199,-0.10962039506499349
1200,-0.12642851793382753
1201,-0.14752905026558416
1202,-0.16961662820913354
1203,-0.18947643824453153
1204,-0.20778809254128014
1205,-0.22973763955064924
1206,-0.26130593712741523
1207,-0.30381860471832595
1208,-0.35080543621119464
1209,-0.38938948544314744
1210,-0.40512371044780693
1211,-0.3870779174693354
1212,-0.3303184164801177
1213,-0.23506685555406215
1214,-0.1041777006491104
1215,0.05831659605369754
1216,0.24574586963648934
1217,0.4451960922059063
1218,0.635209154183317
1219,0.7886149483130879
1220,0.8811806994705453
1221,0.9018585910222693
1222,0.8578208493164633
1223,0.7701618407347215
1224,0.6627085291858072
1225,0.5515214910080586
1226,0.44180674315846985
1227,0.33270995580016316
1228,0.2243710058254385
1229,0.12097050002793039
1230,0.028314526322209425
1231,-0.05028440388258809
1232,-0.1153671376857291
1233,-0.16920602669840795
1234,-0.21318659021967504
1235,-0.2475109461596454
1236,-0.272773577417169
1237,-0.29069337588870214
1238,-0.30261678376324475
1239,-0.3075644751847497
1240,-0.3026513083927095
1241,-0.2862219225716359
1242,-0.2607590944986428
1243,-0.23236602944279297
1244,-0.20691609009023704
1245,-0.1863512481483091
1246,-0.1684562248102675
1247,-0.14992254819911757
1248,-0.12941845564947846
1249,-0.10789141126092618
1250,-0.08662856512225817
1251,-0.06590620267476056
1252,-0.04589833065508748
1253,-0.02841902809377292
1254,-0.016751379082550755
1255,-0.0129147407576918
1256,-0.014933830927362236
1257,-0.01728291933953263
1258,-0.014733679599201169
1259,-0.006311317911001324
1260,0.004276777725019442
1261,0.012044818860328167
1262,0.014642482092538116
1263,0.01323361067864618
1264,0.010103807508038572
1265,0.0060523804462745325
1266,0.0004571964478674289
1267,-0.006411434789685538
1268,-0.01199726631778978
1269,-0.013224596357072238
1270,-0.009953529177605617
1271,-0.006224620149881023
1272,-0.007178262060182626
1273,-0.014042893808814166
1274,-0.02217638528534745
1275,-0.024749247559020728
1276,-0.019190698111902868
1277,-0.010316627640767136
1278,-0.006652975840174569
1279,-0.012817084725134927
1280,-0.02492753903516134
1281,-0.03365433373953623
1282,-0.0325446020196387
1283,-0.024136136152365296
1284,-0.0181078619062666
1285,-0.022930596422498808
1286,-0.038494192898027926
1287,-0.05630991970037664
1288,-0.06689903041169312
1289,-0.06746650510124388
1290,-0.06303165698353728
1291,-0.06060807509006724
1292,-0.06248954825571586
1293,-0.06502574723196927
1294,-0.06342551412039282
1295,-0.05712964017749782
1296,-0.050128784716725286
1297,-0.046207375779810475
1298,-0.044521824632962
1299,-0.040494286177737225
1300,-0.031186415813084768
1301,-0.019279117651286107
1302,-0.010983131877281036
1303,-0.009603690882612276
1304,-0.011427927096867102
1305,-0.008679978319275812
1306,0.002886223797673274
1307,0.019323251658035015
1308,0.031853930898785444
1309,0.03538082094424407
1310,0.03373823740310666
1311,0.03608312580655482
1312,0.04753427303442604
1313,0.06320551474233067
1314,0.07187981079695531
1315,0.06626271267079899
1316,0.05010631741786821
1317,0.035203615851666197
1318,0.03088688352775691
1319,0.03589415010977059
1320,0.04021561361165682
1321,0.03496139201230376
1322,0.020710523223454076
1323,0.006513268822952703
1324,0.0008962552459147325
1325,0.0038121249368765478
1326,0.007184077643967881
1327,0.0030692271690046474
1328,-0.008837881895785885
1329,-0.02154566163885001
1330,-0.028061721780907982
1331,-0.027963957392657803
1332,-0.026748506255058955
1333,-0.029123814628476737
1334,-0.033605812218397126
1335,-0.03420396397634071
1336,-0.027414005428119607
1337,-0.017028265511092596
1338,-0.011368251954197944
1339,-0.0153564197791428
1340,-0.025381665608810673
1341,-0.03240001228140116
1342,-0.030517357689995424
1343,-0.022645622541550912
1344,-0.01751455173992829
1345,-0.020841337050453823
1346,-0.029365404507471757
1347,-0.033781758707483414
1348,-0.027869348791472022
1349,-0.014905144476221537
1350,-0.004961628370299202
1351,-0.0055360144124320075
1352,-0.014508758436927227
1353,-0.022250057750303642
1354,-0.02087456249208722
1355,-0.011751566785976726
1356,-0.004080021760901846
1357,-0.00594925025768715
1358,-0.016485483360651858
1359,-0.026558837140826633
1360,-0.02728257593322164
1361,-0.01816339190521623
1362,-0.007264342625248135
1363,-0.0034720718835895966
1364,-0.008396915454880395
1365,-0.0155192759124868
1366,-0.01705294323453043
1367,-0.01163992329493645
1368,-0.00544943742475342
1369,-0.005847730616802746
1370,-0.014003553404182061
1371,-0.023646324123776985
1372,-0.027036914657956043
1373,-0.02218767661697812
1374,-0.014329067906243484
1375,-0.01044578027222717
1376,-0.01252284664422263
1377,-0.01620361189748489
1378,-0.015923980360045092
1379,-0.01101144655654714
1380,-0.006376782638259776
1381,-0.007117877424065857
1382,-0.012750747785637577
1383,-0.01727125097540589
1384,-0.015236714847639748
1385,-0.007679132187681428
1386,-0.001575806439037558
1387,-0.003094463038437441
1388,-0.011338101439997316
1389,-0.019061864920906856
1390,-0.019858612486922195
1391,-0.014635590350761115
1392,-0.010745493365171666
1393,-0.014524888430671663
1394,-0.024763197600544865
1395,-0.03378062018088579
1396,-0.03506734444748341
1397,-0.029701103231364705
1398,-0.024996746778442498
1399,-0.026866367988097495
1400,-0.03390751827775062
1401,-0.03942332948644747
1402,-0.039170527697344984
1403,-0.03638529622395548
1404,-0.038283600560918556
1405,-0.04731410188358265
1406,-0.05655124716248452
1407,-0.05502213308307669
1408,-0.03862167464345293
1409,-0.015821899691387625
1410,-0.0016321726446053143
1411,-0.004577413802628683
1412,-0.01875484264488928
1413,-0.028757099466766856
1414,-0.02316485865519284
1415,-0.004083167072355032
1416,0.016036120322742257
1417,0.026834389809134884
1418,0.02953557090341306
1419,0.03448052494726414
1420,0.049614197768536046
1421,0.07163984736075668
1422,0.08864759454906224
1423,0.0914851284794018
1424,0.08254158115894741
1425,0.07339789926333029
1426,0.07392272683233694
1427,0.08359791849051423
1428,0.09310972876883558
1429,0.09370593388308451
1430,0.084390454055905
1431,0.0700827252745829
1432,0.053835574471971
1433,0.03246940953960336
1434,0.000989046554053209
1435,-0.03879952722245518
1436,-0.07533080287553283
1437,-0.09459341129562929
1438,-0.09169473757208982
1439,-0.07557856229490684
1440,-0.06179647778022261
1441,-0.05962212890379133
1442,-0.06530988170280873
1443,-0.06742925931726632
1444,-0.05871722303992276
1445,-0.04301387579646147
1446,-0.03110499367813017
1447,-0.03021149491804316
1448,-0.03766194900285449
1449,-0.0446070783484002
1450,-0.04553881944877128
1451,-0.04392772626216226
1452,-0.04854140516539562
1453,-0.06436063592296826
1454,-0.08718646911673357
1455,-0.10724011308466805
1456,-0.1183082555117605
1457,-0.12377243015806033
1458,-0.1339142325025691
1459,-0.15703248519564553
1460,-0.19247637638560583
1461,-0.2317571532730335
1462,-0.2664608128245063
1463,-0.2955098039401327
1464,-0.3248292269110119
1465,-0.3591892156300873
1466,-0.39314840685136154
1467,-0.4094368052837953
1468,-0.38731722166612287
1469,-0.3150576722093424
1470,-0.19675513798867567
1471,-0.04811087912280136
1472,0.11486927224124834
1473,0.2839653086387421
1474,0.4561868801510035
1475,0.6233038037727002
1476,0.7646427791460582
1477,0.8525999548839316
1478,0.8688889742150006
1479,0.8184652588224992
1480,0.728192748173011
1481,0.6297058410294515
1482,0.5398429756618368
1483,0.45449752149923156
1484,0.3599735603348052
1485,0.25057763324387483
1486,0.13642640221842356
1487,0.03545474815976579
1488,-0.04151688205413813
1489,-0.09822293204112548
1490,-0.14682913046282722
1491,-0.19546488543947899
1492,-0.241714427432498
1493,-0.2771201654085481
1494,-0.2965096860181198
1495,-0.30224721000572663
1496,-0.30017479802652336
1497,-0.2930583735968075
1498,-0.2791328229658373
1499,-0.256743034271416
1500,-0.22901773208444032
1501,-0.20278089495838492
1502,-0.1827448310439153
1503,-0.16747635549047732
1504,-0.15162460829728064
1505,-0.13190468500666291
1506,-0.11028038783099238
1507,-0.09111744163894131
1508,-0.07589324865173855
1509,-0.061655103994198907
1510,-0.044966702357429306
1511,-0.02668023128986921
1512,-0.011796292748185503
1513,-0.004218176791954435
1514,-0.0021917200395492244
1515,0.0001679267293393476
1516,0.00646958665633565
1517,0.01364844212165989
1518,0.014799426212779295
1519,0.006839818470500338
1520,-0.004980164668112721
1521,-0.011034253539943396
1522,-0.006473950032097093
1523,0.0034663734121293376
1524,0.007813508388235782
1525,0.00024352903538352438
1526,-0.01437498523412554
1527,-0.023888107692936193
1528,-0.019910324082900083
1529,-0.005748212196086101
1530,0.006298333991975922
1531,0.00580831308544796
1532,-0.006769564372152346
1533,-0.021148860211295997
1534,-0.026940542455364064
1535,-0.022831679445228074
1536,-0.0169014403994962
1537,-0.018364857062482906
1538,-0.028898535801540757
1539,-0.04153508660511637
1540,-0.0475459353441442
1541,-0.04432842383934855
1542,-0.03700708624891939
1543,-0.03299682731053319
1544,-0.03539484183708165
1545,-0.041439043590009716
1546,-0.04661429626659001
1547,-0.049412912387969146
1548,-0.05180865379384128
1549,-0.055628826857377994
1550,-0.05947803720138162
1551,-0.05995649389970291
1552,-0.05583121024755133
1553,-0.05024950118542475
1554,-0.04803789867225139
1555,-0.050584300964406664
1556,-0.05381711671065653
1557,-0.05187305327555781
1558,-0.04302446239176587
1559,-0.031690503930341285
1560,-0.024078906950463008
1561,-0.02163444963648548
1562,-0.01913123528618097
1563,-0.009859684740166711
1564,0.0069232507414837
1565,0.023887506788636225
1566,0.031594061117242334
1567,0.02726586467056595
1568,0.017922566221714717
1569,0.014489369350751468
1570,0.022103915056748333
1571,0.03567077041669223
1572,0.04488749450463872
1573,0.043996680919264355
1574,0.03700700553820046
1575,0.03345215222334936
1576,0.03881063373568969
1577,0.04881764390334046
1578,0.05316700244056885
1579,0.045108523260232056
1580,0.027813176757243877
1581,0.011488711363896904
1582,0.0040764496699711855
1583,0.004440129685351473
1584,0.004441373664910257
1585,-0.0023591403721644334
1586,-0.014035096103562416
1587,-0.022242866204436263
1588,-0.020815557514392166
1589,-0.01238341840136609
1590,-0.0062510836976450304
1591,-0.009415473964731032
1592,-0.019575336421480585
1593,-0.027254769350763555
1594,-0.025223126729038273
1595,-0.015989899054036062
1596,-0.009760529228762844
1597,-0.01453756727027013
1598,-0.027969638717437028
1599,-0.039119370164689485
1600,-0.03870251624663299
1601,-0.027927294771695074
1602,-0.017255458577490366
1603,-0.016214815153892986
1604,-0.024207761513438744
1605,-0.03132523519890061
1606,-0.028339684911597968
1607,-0.016019096219482734
1608,-0.00460838742341252
1609,-0.004031457656825977
1610,-0.01443222093522826
1611,-0.02618468429773467
1612,-0.02911164977678724
1613,-0.021775770061261312
1614,-0.01201775402949366
1615,-0.008782148959316716
1616,-0.013658877149269284
1617,-0.020283533825244164
1618,-0.021504969792528205
1619,-0.016604089349745096
1620,-0.011359853259620783
1621,-0.011437644232640626
1622,-0.016319546121431182
1623,-0.020039690730303705
1624,-0.017669722201447552
1625,-0.010568793453644153
1626,-0.0049099277131667615
1627,-0.005151104687864576
1628,-0.009401609732534837
1629,-0.01159855725542276
1630,-0.008239121706146305
1631,-0.0025623215557057364
1632,-0.001583966241157264
1633,-0.008746006481829476
1634,-0.019647976917755515
1635,-0.025510091457149293
1636,-0.021362532940656105
1637,-0.01106775302440664
1638,-0.004107165208145948
1639,-0.00694837409099999
1640,-0.01709017218646514
1641,-0.02539670878255412
1642,-0.024473243464777167
1643,-0.015189739700030677
1644,-0.005401595141741249
1645,-0.002436737827496478
1646,-0.0066820868010070995
1647,-0.0121582921317425
1648,-0.012986448539576765
1649,-0.009095136125581951
1650,-0.0057104662098894105
1651,-0.007627498053624388
1652,-0.014362077689443526
1653,-0.02101468208984452
1654,-0.02359277449982839
1655,-0.023008613006360163
1656,-0.02359760725185551
1657,-0.02794757584794715
1658,-0.0337833775179298
1659,-0.03643458125094042
1660,-0.03434173444859314
1661,-0.0315651590086342
1662,-0.034177432400552855
1663,-0.04386872000577316
1664,-0.055343622725040044
1665,-0.06054655601033992
1666,-0.055844156849841925
1667,-0.04510666803668492
1668,-0.035618116117559384
1669,-0.03099415854384749
1670,-0.02836273482842492
1671,-0.022650961968822228
1672,-0.013317853828397237
1673,-0.006061295436272005
1674,-0.007077625611960367
1675,-0.015421351438803646
1676,-0.02165502306433159
1677,-0.015171589903201938
1678,0.006200146171892677
1679,0.03358587275251289
1680,0.054436055162804434
1681,0.06323934628649766
1682,0.06546793501461098
1683,0.07100306464645474
1684,0.08350040488295743
1685,0.09623506219685124
1686,0.09873584037647493
1687,0.08787220031882345
1688,0.07236742769451332
1689,0.06572252070523871
1690,0.07364132046971816
1691,0.08761402473692458
1692,0.09092852810467318
1693,0.07205650689012887
1694,0.03373383405911145
1695,-0.009801237295525192
1696,-0.04417117524941441
1697,-0.06435975268074223
1698,-0.07465717941998681
1699,-0.08089159684732941
1700,-0.08367414244132763
1701,-0.07927331983336772
1702,-0.06628829594321184
1703,-0.050214272944777476
1704,-0.04030923470856129
1705,-0.04136992073784017
1706,-0.048713344846416956
1707,-0.051961770093514235
1708,-0.044641763766408965
1709,-0.030592229516957135
1710,-0.020839661005884746
1711,-0.023612451443509028
1712,-0.03687187303224874
1713,-0.05051380066693417
1714,-0.056195175398672075
1715,-0.05537411144749185
1716,-0.05782923559247049
1717,-0.07214161212155307
1718,-0.09745622150810831
1719,-0.1245687265562033
1720,-0.14516679353350104
1721,-0.15998496943855986
1722,-0.17780395232985013
1723,-0.20652851510864362
1724,-0.245571677059419
1725,-0.28715382939560896
1726,-0.32442910203721154
1727,-0.3567666469592302
1728,-0.3854674959234304
1729,-0.40413801341555616
1730,-0.3952752478238747
1731,-0.3396134591574055
1732,-0.23143765229397173
1733,-0.08511469973505707
1734,0.07496438734236291
1735,0.23253882433883244
1736,0.38791916255627645
1737,0.5473482719211415
1738,0.7032207040590481
1739,0.8261403053868793
1740,0.8801337475103203
1741,0.849846439886283
1742,0.7550327932746204
1743,0.6375346137162687
1744,0.5310257819231006
1745,0.440200955171013
1746,0.3474269214536341
1747,0.2389479532644484
1748,0.1244658822077187
1749,0.031033930098471177
1750,-0.022326441216949364
1751,-0.04400528050981947
1752,-0.06389442594924563
1753,-0.10749587503040792
1754,-0.17432406768270875
1755,-0.2401254220931703
1756,-0.2794458638746923
1757,-0.28665769193580765
1758,-0.27692056864239706
1759,-0.268933362966794
1760,-0.2679566285554297
1761,-0.26491044291279353
1762,-0.249817046317441
1763,-0.22399615591654726
1764,-0.198528439429495
1765,-0.1819082963356557
1766,-0.17091672569995672
1767,-0.15454649757271322
1768,-0.12656837003217608
1769,-0.09323512475435258
1770,-0.06784885347071998
1771,-0.0576383547448359
1772,-0.05635853688881483
1773,-0.050265439511765875
1774,-0.031692753371894256
1775,-0.006888732687198617
1776,0.00957664504454473
1777,0.008468808613666038
1778,-0.00539177160184214
1779,-0.017406904982922692
1780,-0.01614984525501333
1781,-0.0028186379044577736
1782,0.011135819691094746
1783,0.015210023649260175
1784,0.00902928828113806
1785,0.001359989520555419
1786,0.000834473042999656
1787,0.007784101406183305
1788,0.014730619961961669
1789,0.014291271774213948
1790,0.006311350618776518
1791,-0.002587438506812765
1792,-0.006044377308160265
1793,-0.004262495086272912
1794,-0.0034365396422590044
1795,-0.009250693376257273
1796,-0.021136549631629503
1797,-0.03285310676196708
1798,-0.03844671474936932
1799,-0.037473547737720096
1800,-0.0345429439585877
1801,-0.034207076617595505
1802,-0.03672364624749818
1803,-0.03881885620939396
1804,-0.03806990472967681
1805,-0.03582846375672635
1806,-0.03550149456731656
1807,-0.03828175515940722
1808,-0.04132583155308538
1809,-0.04075110772835398
1810,-0.03643197160889076
1811,-0.03322768460381611
1812,-0.03668623436061995
1813,-0.047108960721258836
1814,-0.05806629707730945
1815,-0.06146857192690805
1816,-0.054836761843287965
1817,-0.04390053685316492
1818,-0.03777825539890074
1819,-0.040963344340795974
1820,-0.04946105006991131
1821,-0.05461610399982417
1822,-0.051011203367109334
1823,-0.04108626335530107
1824,-0.03233191868417676
1825,-0.029945089158889975
1826,-0.032006393120953144
1827,-0.03166319611464976
1828,-0.02404309489178044
1829,-0.011166321460843556
1830,-0.0001655835153483627
1831,0.0033984464198876696
1832,0.0006809948950200524
1833,-0.0016935023785311497
1834,0.002097829307931648
1835,0.011914757419245156
1836,0.02245457417051175
1837,0.028887619181424858
1838,0.03147932186560546
1839,0.03456993912089708
1840,0.04117953038188859
1841,0.04907569862567359
1842,0.052660651467052594
1843,0.048908396270288264
1844,0.041090686819064276
1845,0.03598899191954057
1846,0.03698449262856942
1847,0.04005890588881343
1848,0.03727737278636588
1849,0.024832142717192043
1850,0.00767894153330285
1851,-0.00435836653416791
1852,-0.005771660135910938
1853,-0.0009350982617388839
1854,-0.00017607537576831106
1855,-0.009665562888953726
1856,-0.024859256366791108
1857,-0.03423919922851763
1858,-0.030234865025980277
1859,-0.01696387304703284
1860,-0.007107757260678296
1861,-0.01052736237363188
1862,-0.02524616335020194
1863,-0.03931855898957291
1864,-0.04178282193110616
1865,-0.032325932727097474
1866,-0.02072264029542351
1867,-0.017045367138461318
1868,-0.022337121849530246
1869,-0.028539173869755408
1870,-0.027147293679411467
1871,-0.017686887082344165
1872,-0.007783026359327266
1873,-0.0052958874377147715
1874,-0.010770336800226396
1875,-0.017638354878345506
1876,-0.01941357989020534
1877,-0.016105361032905684
1878,-0.013319888486666522
1879,-0.015434568061130971
1880,-0.020440877348638566
1881,-0.02211874870804558
1882,-0.01725570019529281
1883,-0.010056177039309432
1884,-0.008612436444392677
1885,-0.016607691191491764
1886,-0.028706622655934027
1887,-0.034753065784427425
1888,-0.029130259673205882
1889,-0.01626424047815256
1890,-0.00677855202174719
1891,-0.007841058983390808
1892,-0.016861571147662516
1893,-0.024391422376508445
1894,-0.02318019533420758
1895,-0.014624095001009503
1896,-0.006737325280677791
1897,-0.006156396447576134
1898,-0.012189098393418595
1899,-0.01835778631908368
1900,-0.019214032131703793
1901,-0.015249915358248621
1902,-0.01124089978032294
1903,-0.010392225027927093
1904,-0.010863168028719733
1905,-0.008406568460562175
1906,-0.0021145591099381708
1907,0.0032661854295948124
1908,0.0015288786350537674
1909,-0.008181111531303357
1910,-0.019090434386062213
1911,-0.022145572379212282
1912,-0.014453186543252245
1913,-0.002693788580098168
1914,0.002302429443652923
1915,-0.004728533659042033
1916,-0.018415596185657742
1917,-0.02726503407231983
1918,-0.02385641271452069
1919,-0.011467377398839068
1920,-0.00110835099997647
1921,-0.00177668601751724
1922,-0.012864360402842268
1923,-0.025392718085410486
1924,-0.030418582596159933
1925,-0.026549304166603904
1926,-0.019938635606112472
1927,-0.01764557283357856
1928,-0.021318874645902177
1929,-0.027067078842969515
1930,-0.0306678555858573
1931,-0.03202533605604247
1932,-0.034242803911931
1933,-0.03894956689638632
1934,-0.04370182292029125
1935,-0.04479400042123041
1936,-0.04236328049404111
1937,-0.04144963205490866
1938,-0.04667254510621141
1939,-0.05556450268304698
1940,-0.058324956852722626
1941,-0.046077222767094674
1942,-0.02068380397487902
1943,0.003889751496680479
1944,0.011713651477742087
1945,-0.001438532014705285
1946,-0.023246570622196813
1947,-0.03398849700663908
1948,-0.02227238870988909
1949,0.006235975369798817
1950,0.034484539851500164
1951,0.04861157439950073
1952,0.0483657862452523
1953,0.044863803600108915
1954,0.04908661713563728
1955,0.06235903833098874
1956,0.0769243882160546
1957,0.08452173577248714
1958,0.0838467248000331
1959,0.08020007221990642
1960,0.07906796193910633
1961,0.08091262510036898
1962,0.08198701003999315
1963,0.07900540913490087
1964,0.07176698553146774
1965,0.06101613456803117
1966,0.04491820491613656
1967,0.019492742055791584
1968,-0.016170535419272013
1969,-0.055202319760210644
1970,-0.08483740018188335
1971,-0.09495337202153105
1972,-0.08625104003804519
1973,-0.07028484417116719
1974,-0.06046728178067627
1975,-0.061519464607781627
1976,-0.06660746820701707
1977,-0.06462865751350946
1978,-0.05094120355575233
1979,-0.0317920308605948
1980,-0.0186361869183215
1981,-0.01789943519264875
1982,-0.0257750367230393
1983,-0.03266824153445187
1984,-0.03271548919669395
1985,-0.029151551027044864
1986,-0.030536431588498596
1987,-0.041815141970836855
1988,-0.0591619537118086
1989,-0.07373015899763143
1990,-0.08056926236870246
1991,-0.08382843704768256
1992,-0.09305321725546101
1993,-0.11425257796763505
1994,-0.1445941420335136
1995,-0.17586143696226875
1996,-0.20294707813707827
1997,-0.22865862002854961
1998,-0.2600274812446405
1999,-0.30000482763855607
2000,-0.3428765460249415
2001,-0.37747205867233224
2002,-0.39406706687266196
2003,-0.38765037873708186
2004,-0.35524218695923604
2005,-0.2923072768968481
2006,-0.19440895183790227
2007,-0.06356348923389504
2008,0.0880824572314148
2009,0.24315082903359936
2010,0.38920821450410653
2011,0.5239056300790466
2012,0.6486416246015594
2013,0.7563603970951943
2014,0.8269052370852243
2015,0.8375604809741619
2016,0.7814266313166374
2017,0.6768722624141891
2018,0.5578504233704387
2019,0.452072998233779
2020,0.36547955976227575
2021,0.28575586011651927
2022,0.20011439307807027
2023,0.1099936268368796
2024,0.02954274077131755
2025,-0.028996906443896346
2026,-0.06772697963358724
2027,-0.10129051674439407
2028,-0.14325746337276962
2029,-0.19418440925365832
2030,-0.2422257806686939
2031,-0.27455775900633494
2032,-0.2881159607405466
2033,-0.2901244553893974
2034,-0.2894520940944832
2035,-0.28810454452345563
2036,-0.28074321980446215
2037,-0.26160947872624474
2038,-0.23145017966394033
2039,-0.19796833384119827
2040,-0.1699933774952292
2041,-0.15110902495338538
2042,-0.13814884368795594
2043,-0.12503804197887025
2044,-0.10798093473961212
2045,-0.08768430229168638
2046,-0.06760597575837007
2047,-0.05064858778606211
2048,-0.037399133774760125
2049,-0.026934976791206284
2050,-0.018671352627999363
2051,-0.013028251539668429
2052,-0.010248864024903367
2053,-0.00886164871466014
2054,-0.00588704510605371
2055,0.0007730914225070604
2056,0.009782975624289772
2057,0.016450960809888105
2058,0.016177093379482192
2059,0.0087053212749706
2060,-0.0007669210212459842
2061,-0.0052578482490443015
2062,-0.001765988673800084
2063,0.005895371488167284
2064,0.010025030425803388
2065,0.005458207248428012
2066,-0.006109475275259823
2067,-0.01774891252439475
2068,-0.023322409744983886
2069,-0.022349649663512945
2070,-0.01941482492636245
2071,-0.019131342912685576
2072,-0.02185518120208755
2073,-0.024277239183711122
2074,-0.023869113653849538
2075,-0.02218664384625829
2076,-0.02334024118897591
2077,-0.029197672525833832
2078,-0.036605116989353
2079,-0.04005382245351709
2080,-0.03747705929403808
2081,-0.03315227619155646
2082,-0.034141225183558874
2083,-0.0432211461940261
2084,-0.055305367905936195
2085,-0.061469557366491276
2086,-0.05729250669496892
2087,-0.04753370296201279
2088,-0.0421828950486315
2089,-0.04713306165158965
2090,-0.05825112175702811
2091,-0.06480303775201646
2092,-0.05939158616974359
2093,-0.0451591252341641
2094,-0.03331962594896395
2095,-0.033109619163811214
2096,-0.043416337089053514
2097,-0.05377686653947196
2098,-0.05365638506201529
2099,-0.04133722288588593
2100,-0.02451456712419616
2101,-0.012771541352486234
2102,-0.009505666477349422
2103,-0.010619523068748951
2104,-0.010139131922687849
2105,-0.006305140364510249
2106,-0.0020418702517795134
2107,-0.00016251652683652056
2108,0.0007702938186485669
2109,0.005078371963760018
2110,0.01457949881736829
2111,0.025368137297522096
2112,0.03090683340747049
2113,0.028776401117914664
2114,0.02404305144635962
2115,0.025085005921345646
2116,0.03530146073507562
2117,0.04878083834175416
2118,0.054732811879958695
2119,0.04712315239487125
2120,0.030599335727753987
2121,0.016891191739704235
2122,0.01470700429700819
2123,0.022326745236897882
2124,0.029642032871177157
2125,0.02757662818988471
2126,0.01602993959585182
2127,0.003137439845169826
2128,-0.0029758505755551126
2129,-0.0017854396935656975
2130,-0.00017163101763719812
2131,-0.005114730878572839
2132,-0.01677093649340123
2133,-0.028648432800507165
2134,-0.034270090929592434
2135,-0.033292769781104625
2136,-0.030942197492686146
2137,-0.03173597838657294
2138,-0.0344122175473061
2139,-0.033608882340838336
2140,-0.026558644837292172
2141,-0.01746786962498444
2142,-0.014337291845418137
2143,-0.020863977547729
2144,-0.03166660152179443
2145,-0.036334985598438355
2146,-0.029071605751734918
2147,-0.014674515437234087
2148,-0.004657500448595756
2149,-0.006783236006652413
2150,-0.01791060389782484
2151,-0.027088924380770766
2152,-0.025967611218886813
2153,-0.016486367755567916
2154,-0.008513793332214492
2155,-0.009969054844500114
2156,-0.019226820657916293
2157,-0.027121293963415727
2158,-0.026229725317364262
2159,-0.018015588469264515
2160,-0.010857045757106429
2161,-0.011318261875998957
2162,-0.017713762208277008
2163,-0.022390786638767802
2164,-0.02007562520668606
2165,-0.013467418798207505
2166,-0.010269426728119289
2167,-0.014822794800684914
2168,-0.023157628905312554
2169,-0.02677625877891226
2170,-0.021430345896685347
2171,-0.011861231485908414
2172,-0.007431068903841415
2173,-0.012818891776127942
2174,-0.023094595117560644
2175,-0.028241668382953472
2176,-0.022785684095753503
2177,-0.011055917853842469
2178,-0.0029183677101306243
2179,-0.004249284882582768
2180,-0.011544404008186435
2181,-0.015826241909773144
2182,-0.011747201554363228
2183,-0.0027698750158451062
2184,0.0025582008603701684
2185,-0.0007634343003509649
2186,-0.009409551772198883
2187,-0.015439070196733075
2188,-0.014448039439235373
2189,-0.009731009769311688
2190,-0.008291898812269764
2191,-0.013022284391366183
2192,-0.019340381667704826
2193,-0.019972615684079875
2194,-0.013052766095911935
2195,-0.005032390221791492
2196,-0.004938458851289793
2197,-0.015331909737687157
2198,-0.029011931321822032
2199,-0.03516475980620472
2200,-0.02938174982849498
2201,-0.017936695481702104
2202,-0.012043763044319512
2203,-0.01744428193678217
2204,-0.029223568705557097
2205,-0.036764786880610065
2206,-0.0340308405848852
2207,-0.025331911504406435
2208,-0.021189415552945443
2209,-0.028423242355887147
2210,-0.04392655703663879
2211,-0.057740418516616765
2212,-0.0619946320715398
2213,-0.05694903943067604
2214,-0.04876732976652647
2215,-0.04210391790741752
2216,-0.035543987779462105
2217,-0.024563641653328434
2218,-0.00857177422185231
2219,0.00590381076052412
2220,0.010046247105272535
2221,0.001412197735952493
2222,-0.01222527548601483
2223,-0.01836132748222359
2224,-0.010109669104493674
2225,0.008088640017290132
2226,0.024880390208743424
2227,0.03254674282013852
2228,0.03380663252048037
2229,0.03847051236650943
2230,0.05318089035701822
2231,0.0741201660079116
2232,0.08980987644277033
2233,0.09152371236303494
2234,0.08151676953194092
2235,0.07122346861984076
2236,0.07095839971354698
2237,0.08056728970733837
2238,0.08948347419103622
2239,0.08583432084903411
2240,0.06606877895151558
2241,0.03666161335145195
2242,0.007330095093756252
2243,-0.0169857548585967
2244,-0.037812751589737625
2245,-0.057940903333297114
2246,-0.0757514541883905
2247,-0.08549076379068565
2248,-0.08322128128898997
2249,-0.07193599959060373
2250,-0.060031516791354
2251,-0.05424836674178669
2252,-0.054094186996369385
2253,-0.05345043428718044
2254,-0.04776108637346742
2255,-0.039408296915324895
2256,-0.03565877650278372
2257,-0.04122348900144387
2258,-0.05316520419316539
2259,-0.06363386813976221
2260,-0.06785831005355178
2261,-0.0692257074450073
2262,-0.0760604191968943
2263,-0.09322349513825726
2264,-0.11716538515781111
2265,-0.139696005191718
2266,-0.15671915497818212
2267,-0.17280922079986077
2268,-0.1966173349788654
2269,-0.23171519875349877
2270,-0.2725771087144725
2271,-0.3102047082290813
2272,-0.3413706013218062
2273,-0.3707075691730566
2274,-0.40170644825826024
2275,-0.4249099880346806
2276,-0.4165240825704263
2277,-0.3520493758292179
2278,-0.22475751865895016
2279,-0.0525141905827441
2280,0.13408981509367246
2281,0.31220224004484565
2282,0.4773045647805986
2283,0.6346174764818869
2284,0.7804749297335846
2285,0.8928936316798376
2286,0.942117389906387
2287,0.9127139205412226
2288,0.8172438046969386
2289,0.6888052892707348
2290,0.5589393396973151
2291,0.44017017058222163
2292,0.32704717965987296
2293,0.2118162390352788
2294,0.09809234832503633
2295,-0.0002349826733978658
2296,-0.07208235222245608
2297,-0.11999590584950592
2298,-0.15779771588633154
2299,-0.19784693155690575
2300,-0.24066089098031682
2301,-0.2764407166403105
2302,-0.29585888592904447
2303,-0.29889742766314653
2304,-0.29360771011075215
2305,-0.28734455329786146
2306,-0.2801415467154577
2307,-0.2667315736424084
2308,-0.24429069418511895
2309,-0.21722794620834113
2310,-0.19382618127590662
2311,-0.1782289986057302
2312,-0.16614194333299284
2313,-0.1488801408043842
2314,-0.12200819373818611
2315,-0.09020280386716062
2316,-0.06359056200730687
2317,-0.04900079040637004
2318,-0.04434591849094234
2319,-0.04121159666150181
2320,-0.03288558675408351
2321,-0.020068642143323098
2322,-0.009053582939381126
2323,-0.004601824764725656
2324,-0.004823054707341621
2325,-0.003201393083909103
2326,0.004309645173436186
2327,0.014374854675011872
2328,0.01879234390095257
2329,0.012359560442923705
2330,-0.0014769807675822028
2331,-0.012921951052845333
2332,-0.014257075231475215
2333,-0.006569767088900875
2334,0.0015632862914587862
2335,0.0021478810586508584
2336,-0.005113456245222961
2337,-0.013326660119224894
2338,-0.015706093869618094
2339,-0.012283955612149781
2340,-0.009437830655570007
2341,-0.01292722849086336
2342,-0.021618578401025046
2343,-0.028329276027596863
2344,-0.027038277596315965
2345,-0.019290999014663666
2346,-0.013353343455373843
2347,-0.016780038865419167
2348,-0.029487988513884313
2349,-0.04387519141850389
2350,-0.051674766767592306
2351,-0.05089837553588722
2352,-0.046508151675109716
2353,-0.044797576446494264
2354,-0.04742010226570825
2355,-0.05081015686540051
2356,-0.05094074010710735
2357,-0.04801258636445377
2358,-0.046104928381481225
2359,-0.048350033865264236
2360,-0.052991830888245425
2361,-0.054791687063484945
2362,-0.05058789863945947
2363,-0.04323834876672396
2364,-0.039486090910324484
2365,-0.04335326324529747
2366,-0.051454880191975305
2367,-0.05518841182671079
2368,-0.04824202255301954
2369,-0.03253574409836678
2370,-0.016870490854483493
2371,-0.009303841751384503
2372,-0.010220959372668526
2373,-0.012483673098214236
2374,-0.008399799127147951
2375,0.0031325581639846736
2376,0.015994640175401233
2377,0.023115296019286885
2378,0.023455441846829093
2379,0.022981683718178277
2380,0.028801206152793954
2381,0.042189867594049774
2382,0.05715086593575747
2383,0.06567410135048496
2384,0.06448967084725948
2385,0.05700338485401494
2386,0.049109659698725446
2387,0.043528685337419645
2388,0.03831432761269557
2389,0.030492494829445736
2390,0.020424073289373443
2391,0.011971970555596758
2392,0.00827900102996456
2393,0.00785792412403133
2394,0.005528505551958869
2395,-0.002398403235530604
2396,-0.014014266931122272
2397,-0.02332340326607383
2398,-0.026187681028966722
2399,-0.02469639596160646
2400,-0.025190152844472728
2401,-0.03152885521558389
2402,-0.04033203138540237
2403,-0.04341893056439129
2404,-0.03567468663214
2405,-0.020887117380780598
2406,-0.00954901941244412
2407,-0.010110392427905514
2408,-0.02155360771258564
2409,-0.034186135639679364
2410,-0.03799192532315195
2411,-0.03092334340450669
2412,-0.0197569116382673
2413,-0.01323687824627375
2414,-0.014302322859924249
2415,-0.01855845466678157
2416,-0.019760382099495922
2417,-0.016358947753133995
2418,-0.012590556386720679
2419,-0.013416050544523044
2420,-0.01882145345222948
2421,-0.023436178207550097
2422,-0.02186446595836855
2423,-0.01428971996270424
2424,-0.006651637199538412
2425,-0.005172054056046033
2426,-0.010647173693869407
2427,-0.018085222104365195
2428,-0.02186557686679626
2429,-0.021111676595645043
2430,-0.01990364306321464
2431,-0.022313084028220034
2432,-0.02755779901302401
2433,-0.030439174067046687
2434,-0.026751548658752858
2435,-0.018097853374774632
2436,-0.01093216292076505
2437,-0.010442643397328928
2438,-0.01530519832568229
2439,-0.01878712798436584
2440,-0.015460617159821367
2441,-0.006994595384500176
2442,-0.0010493462672083646
2443,-0.003945463608225915
2444,-0.014095370324916591
2445,-0.02280669681867125
2446,-0.022078535598878863
2447,-0.012106098855790844
2448,-0.0012336618108066896
2449,0.001757625537768692
2450,-0.004275924701180352
2451,-0.012118844918065471
2452,-0.013444621757436713
2453,-0.006932899581282805
2454,0.0006179762694312062
2455,0.0011252558036299286
2456,-0.006844213514364516
2457,-0.016840802357730136
2458,-0.021035503177176035
2459,-0.0178155383532829
2460,-0.012900667837027544
2461,-0.013078630023607502
2462,-0.01912180770213995
2463,-0.02515560859363488
2464,-0.02505051976706538
2465,-0.019181636591115898
2466,-0.014524719189608872
2467,-0.01789253447883555
2468,-0.02914817116242672
2469,-0.041270288181223684
2470,-0.04717270741176503
2471,-0.0463477198260024
2472,-0.04467738345275704
2473,-0.047789473314802586
2474,-0.054877122171876916
2475,-0.05928807814244642
2476,-0.05516577562824262
2477,-0.043287555188823164
2478,-0.030255985968619257
2479,-0.022152377668362713
2480,-0.019348753774681406
2481,-0.017643684882755275
2482,-0.014001043062528223
2483,-0.010284966955149088
2484,-0.01068343370382317
2485,-0.01555619939917987
2486,-0.018701083925376723
2487,-0.011806043957789156
2488,0.00770953711402438
2489,0.033298523064683595
2490,0.05423695914234318
2491,0.064620125261492
2492,0.06786942223935138
2493,0.07238807964069649
2494,0.08261359055444642
2495,0.09425928987799717
2496,0.09845238111793311
2497,0.0907248073707011
2498,0.07598201628266033
2499,0.06440174864953253
2500,0.06196796447168361
2501,0.06454477733855113
2502,0.06110058608547077
2503,0.04317997851634908
2504,0.012121622364377738
2505,-0.02208815177881636
2506,-0.04868347837425428
2507,-0.06340978286295856
2508,-0.0693554265189303
2509,-0.07193726820787619
2510,-0.07369069686896146
2511,-0.0735833199917747
2512,-0.07031289615820889
2513,-0.06511659848911433
2514,-0.06080393615407605
2515,-0.058336099591688007
2516,-0.05520119262433553
2517,-0.04795204932482361
2518,-0.03660799191593313
2519,-0.026181200337043894
2520,-0.023144195745483806
2521,-0.029806052315441582
2522,-0.04206800626521061
2523,-0.05309966512320042
2524,-0.05974411051599679
2525,-0.06555868709904773
2526,-0.07740761145028435
2527,-0.09874034942830473
2528,-0.12606136901472598
2529,-0.1521391974159425
2530,-0.17292563216571927
2531,-0.19142543267722298
2532,-0.21471685445471758
2533,-0.24714054787905332
2534,-0.28642946719468243
2535,-0.32623973713474763
2536,-0.361481725471342
2537,-0.3896468825773987
2538,-0.40593076820581575
2539,-0.397930077566919
2540,-0.3481574030529625
2541,-0.24559984839056237
2542,-0.09718769716914086
2543,0.07264141414212175
2544,0.23656415414430157
2545,0.3816563062128262
2546,0.5135321531473847
2547,0.6426026409101369
2548,0.7648440486896391
2549,0.8560466507116087
2550,0.8869073084366359
2551,0.8465279255855792
2552,0.7528411068335986
2553,0.6397096651799195
2554,0.5319266709599817
2555,0.4305912651186691
2556,0.321316387010932
2557,0.19599103974341114
2558,0.06639863775035246
2559,-0.04326401556700753
2560,-0.11696584108224585
2561,-0.16006049259994987
2562,-0.1925858994271378
2563,-0.22987752188626745
2564,-0.2695900812821673
2565,-0.29693160396750473
2566,-0.30157183876906923
2567,-0.2888460480633371
2568,-0.2746841894263745
2569,-0.2703483128442514
2570,-0.272575078779291
2571,-0.268294292815124
2572,-0.2482361922712876
2573,-0.21566398510791834
2574,-0.1824742124580948
2575,-0.15783172289630437
2576,-0.14104704114454447
2577,-0.12483191252290667
2578,-0.10417945364135095
2579,-0.08125938991622214
2580,-0.062031465371853015
2581,-0.04927750645877196
2582,-0.039908524972780905
2583,-0.02907828164336273
2584,-0.016114742017468174
2585,-0.005575673573683484
2586,-0.002245831941041004
2587,-0.005464870992736903
2588,-0.008912693664347531
2589,-0.006316512238699801
2590,0.002536684890307035
2591,0.011444607467345966
2592,0.013484519689507393
2593,0.007322864927803336
2594,-0.0017327885306548567
2595,-0.00667805579881856
2596,-0.004929452476520869
2597,-4.4384531267950274e-05
2598,0.0020880240582608583
2599,-0.0014077845071830929
2600,-0.008493053141721968
2601,-0.0150058041088034
2602,-0.018843476880792794
2603,-0.021282025059533718
2604,-0.02447883493571408
2605,-0.028243333742705205
2606,-0.029820630935725394
2607,-0.02710531803621609
2608,-0.021846316596281584
2609,-0.019082876280735878
2610,-0.022794034934443853
2611,-0.03186186970610605
2612,-0.04061744348272517
2613,-0.04393029732855023
2614,-0.0421059134259138
2615,-0.04060913282913364
2616,-0.044491672919888536
2617,-0.05281805607876764
2618,-0.05884761121303253
2619,-0.056341860476715355
2620,-0.04613732803366398
2621,-0.0363224286694252
2622,-0.03522615421325269
2623,-0.04354874753573355
2624,-0.053285223463249286
2625,-0.054913639294464724
2626,-0.04633314753370024
2627,-0.03502974836695461
2628,-0.03116054385438792
2629,-0.037913575834311916
2630,-0.04825607151268854
2631,-0.051220314554082345
2632,-0.04182547809739996
2633,-0.025301610310964607
2634,-0.01178384139084106
2635,-0.0067512370692569094
2636,-0.006396087198768528
2637,-0.0021328573082273457
2638,0.010453207209480455
2639,0.027067449572423383
2640,0.03889181657579542
2641,0.04118003838483024
2642,0.037714562234617055
2643,0.03679781353887279
2644,0.04285078972808751
2645,0.05197589972667814
2646,0.055853938387204045
2647,0.050079062214771236
2648,0.038647116233764864
2649,0.03010073224794433
2650,0.02907051493799365
2651,0.031552346181347765
2652,0.02869810662262176
2653,0.015606293231598645
2654,-0.003358226179575958
2655,-0.017964267625595557
2656,-0.02115613278375443
2657,-0.01525030690263219
2658,-0.009514543919850824
2659,-0.011551834623681435
2660,-0.020684077509519706
2661,-0.029388101038489253
2662,-0.03098788349377721
2663,-0.025932961779825306
2664,-0.020714792776122197
2665,-0.020905966089685347
2666,-0.02552570959410414
2667,-0.028356523876500637
2668,-0.024698274952224535
2669,-0.016571060178904307
2670,-0.011016284648442842
2671,-0.013160435962763166
2672,-0.020999481091359774
2673,-0.02714250967478821
2674,-0.025812050769858427
2675,-0.01823029400857607
2676,-0.011234529551608998
2677,-0.010710453242463905
2678,-0.016384416271516558
2679,-0.0228335811166291
2680,-0.02519483334743189
2681,-0.023550921575866697
2682,-0.021773482855281794
2683,-0.022574741819527927
2684,-0.02435167626423676
2685,-0.023207939556960457
2686,-0.017797975526183316
2687,-0.011507912898074214
2688,-0.009311907538846292
2689,-0.01244695727299851
2690,-0.01665526771426262
2691,-0.0162405021191169
2692,-0.010061484188527217
2693,-0.003226161638001731
2694,-0.0023336184881884076
2695,-0.008711999278405939
2696,-0.016496913818437
2697,-0.01789834625564981
2698,-0.010847813965184822
2699,-0.0015191927820073828
2700,0.0010987829406718923
2701,-0.006316468212811972
2702,-0.017999157042958965
2703,-0.024223442652770225
2704,-0.02028936906759394
2705,-0.010826493296203474
2706,-0.005233918466680438
2707,-0.00858715046541281
2708,-0.016800701100485687
2709,-0.02080379360004779
2710,-0.015718411540392635
2711,-0.006009547674501913
2712,-0.0013335286925250532
2713,-0.006895446660251459
2714,-0.017754116918237542
2715,-0.023012540590722046
2716,-0.01631572446815332
2717,-0.002669901329957547
2718,0.005302740952297458
2719,-0.0013714968775033602
2720,-0.019624883368953634
2721,-0.036801578623256115
2722,-0.04184435725634362
2723,-0.034876303223926305
2724,-0.026354293363724343
2725,-0.026829602719325107
2726,-0.03714735848372702
2727,-0.04827676699689463
2728,-0.05059537743799896
2729,-0.043424596117757376
2730,-0.03556005998691959
2731,-0.03636740879284833
2732,-0.046120308221857656
2733,-0.05494002628211743
2734,-0.051470368786060226
2735,-0.03327211938109018
2736,-0.009453021755445172
2737,0.006653977513889277
2738,0.0080183855588538
2739,-0.0014336844727814602
2740,-0.011233206290324017
2741,-0.012964120371292562
2742,-0.0053483035670207745
2743,0.0075330573744143104
2744,0.021629523237597675
2745,0.03615911822142015
2746,0.05221235275044513
2747,0.06931167903837154
2748,0.08418964913539183
2749,0.09313485830475168
2750,0.095272083204284
2751,0.09329207854237327
2752,0.09099964052563209
2753,0.09029368727370327
2754,0.09039694099360124
2755,0.08938478580887083
2756,0.08561629122516233
2757,0.07731854041739798
2758,0.0614753732581038
2759,0.03475353800624568
2760,-0.002823038624000709
2761,-0.044548403365759257
2762,-0.07840767052424047
2763,-0.09394953277389197
2764,-0.08988412167625698
2765,-0.0756207677463317
2766,-0.06436805518813196
2767,-0.06291945179733928
2768,-0.0668714986058164
2769,-0.06575437527196679
2770,-0.0536983549702742
2771,-0.03591577390822415
2772,-0.024805876867598886
2773,-0.029045299921224725
2774,-0.04577235142656591
2775,-0.06331675005520179
2776,-0.07206530216827661
2777,-0.07325447523897917
2778,-0.07733222283484953
2779,-0.09347786933232934
2780,-0.12042082222757378
2781,-0.1475119558398389
2782,-0.16509236282695405
2783,-0.17414773927042446
2784,-0.1858802244887825
2785,-0.21155417527458292
2786,-0.25222918154650437
2787,-0.2977465411354977
2788,-0.3350460242480312
2789,-0.35699715567435986
2790,-0.363274568768233
2791,-0.3536804305383764
2792,-0.32229554232609536
2793,-0.25960448313896267
2794,-0.1607531154709309
2795,-0.031081212681397897
2796,0.1172595900468716
2797,0.27405984915466053
2798,0.43529400252555916
2799,0.5973160406850642
2800,0.7466127781245797
2801,0.8570622581094174
2802,0.9008258361966045
2803,0.8658908538466166
2804,0.7656446840376567
2805,0.6316809923529116
2806,0.4953000119346777
2807,0.3725316920459287
2808,0.2633626887202085
2809,0.16259199031772323
2810,0.07020467289260601
2811,-0.008133744383155974
2812,-0.06867539365809303
2813,-0.11549473224759918
2814,-0.15769012055455517
2815,-0.20071938130970723
2816,-0.2410576001626959
2817,-0.2698415992631869
2818,-0.28180256037241647
2819,-0.2804312164897019
2820,-0.2743531265895738
2821,-0.26893300215688004
2822,-0.2618314503552129
2823,-0.24693370972603634
2824,-0.22234506691195932
2825,-0.19396042672229863
2826,-0.170664572290326
2827,-0.15583423732051024
2828,-0.14378565535492113
2829,-0.12512700794727896
2830,-0.09622196138373135
2831,-0.0637350354089792
2832,-0.039670606567805626
2833,-0.031208493250138643
2834,-0.03452856580710534
2835,-0.038149725161910945
2836,-0.0326348681334173
2837,-0.017950644688155673
2838,-0.0022908009106368645
2839,0.005890766486865881
2840,0.005045840180985858
2841,0.0007253255192273106
2842,-0.0005017953603198307
2843,0.0028949276427632257
2844,0.006940392648659711
2845,0.006993634070143969
2846,0.0025948636138638454
2847,-0.002439528304823787
2848,-0.004294910781324903
2849,-0.0030643598386909223
2850,-0.0022446102677435246
2851,-0.004590560473876914
2852,-0.008927089525620298
2853,-0.011427165178511693
2854,-0.010035025109759631
2855,-0.0072092782924435845
2856,-0.0077384838590394646
2857,-0.01357046444549206
2858,-0.021065979273802028
2859,-0.024029990898887788
2860,-0.02003405504227946
2861,-0.013742954093589145
2862,-0.013345779345566706
2863,-0.022861907683382365
2864,-0.0375978779911279
2865,-0.047604936493929904
2866,-0.04649111740451772
2867,-0.03747264546827837
2868,-0.030683541125099294
2869,-0.03389105707315236
2870,-0.04524478019574867
2871,-0.055071619006663644
2872,-0.05521447204922306
2873,-0.04704452355284665
2874,-0.0403091301394792
2875,-0.043690204902270005
2876,-0.05605280733897271
2877,-0.06692530629476473
2878,-0.06600024419849605
2879,-0.05274524729285786
2880,-0.03700491642826342
2881,-0.030011816595374167
2882,-0.03427391207337192
2883,-0.04168921643418516
2884,-0.0412768413342985
2885,-0.028955966896821606
2886,-0.010394513173410344
2887,0.004978712146223443
2888,0.012409684963682839
2889,0.014775750660939021
2890,0.018232556735767298
2891,0.025840721274120446
2892,0.035568175507772595
2893,0.043725647018919955
2894,0.049202196629958866
2895,0.05372710826016204
2896,0.05841514295599941
2897,0.06120068041487592
2898,0.058628232001471464
2899,0.050237285105747445
2900,0.04039518646653762
2901,0.03483988364083446
2902,0.0349904125569559
2903,0.035995234596205926
2904,0.031089974420029337
2905,0.018355815440004378
2906,0.0031231598497394077
2907,-0.006722146279401861
2908,-0.008186186899649363
2909,-0.006011914616463165
2910,-0.007889368543541192
2911,-0.016567565122557824
2912,-0.026696691575263165
2913,-0.02978746797441367
2914,-0.02268931616619659
2915,-0.011304375938896119
2916,-0.005647410953560621
2917,-0.010716587103078873
2918,-0.021847901060090158
2919,-0.029086643434888863
2920,-0.026507926485914383
2921,-0.01763722851598426
2922,-0.011827331769277152
2923,-0.015114728866192292
2924,-0.02436091266881115
2925,-0.030286766943556635
2926,-0.02642653064746185
2927,-0.015356625416505329
2928,-0.00624764375464448
2929,-0.0061852505124351635
2930,-0.013656193679739966
2931,-0.020385317867711628
2932,-0.019574145785183725
2933,-0.012471098991276769
2934,-0.006968075958975306
2935,-0.009726145096417633
2936,-0.01953302688302575
2937,-0.0282507482994393
2938,-0.028307720577357524
2939,-0.01950785695677445
2940,-0.00885211957982792
2941,-0.003932279512761845
2942,-0.006430282716872387
2943,-0.011673524696138509
2944,-0.013996994242401624
2945,-0.012176303029992815
2946,-0.009697414260914397
2947,-0.010217884125486815
2948,-0.013370309646913709
2949,-0.015300858775381829
2950,-0.013105944787954736
2951,-0.008220159968400424
2952,-0.0050501873327757334
2953,-0.006305941470005412
2954,-0.01004910158656783
2955,-0.011683011382060609
2956,-0.008838481193882222
2957,-0.003952472889868354
2958,-0.0017029967953003742
2959,-0.003950365273881797
2960,-0.007642410950072329
2961,-0.008144782816478102
2962,-0.004630878777001246
2963,-0.0016564969962835714
2964,-0.004763326281725053
2965,-0.014305513774823668
2966,-0.024037029112966082
2967,-0.02652780233826452
2968,-0.020426928874424013
2969,-0.01221383167377085
2970,-0.010208457836335163
2971,-0.016427587330152062
2972,-0.02445085315226963
2973,-0.025811570717801886
2974,-0.018875347187487068
2975,-0.011306857725747835
2976,-0.013259191760434424
2977,-0.02762885077481286
2978,-0.04689259137626042
2979,-0.05974350555035115
2980,-0.06104008018184834
2981,-0.05522727316535505
2982,-0.04998741750259213
2983,-0.046965761245310225
2984,-0.03967921823722369
2985,-0.021443595600825045
2986,0.004626331625396243
2987,0.024688164219341252
2988,0.025116026975347254
2989,0.005921654015669322
2990,-0.016573639870762213
2991,-0.02187938950136526
2992,-0.0023165413354025773
2993,0.030520113335408505
2994,0.056119050821637054
2995,0.0630601556934717
2996,0.05822630027073203
2997,0.05887941860950902
2998,0.07533757416232784
2999,0.1008010963259012
3000,0.1179372573150215
3001,0.11569344267225273
3002,0.09992853153789583
3003,0.08737890025109957
3004,0.08858962320008709
3005,0.09628426665786871
3006,0.09075584538039805
3007,0.057824649176064
3008,0.002953702118165922
3009,-0.051483842715284334
3010,-0.08337252784103755
3011,-0.08716930706892156
3012,-0.07552894458926807
3013,-0.06621352938045638
3014,-0.0671079581443962
3015,-0.07240353916604556
3016,-0.07148152211265812
3017,-0.06043170478422403
3018,-0.04522135470058704
3019,-0.034961226589009686
3020,-0.033352657957127635
3021,-0.03693346321952225
3022,-0.040702178342865145
3023,-0.04407658850137629
3024,-0.050666397853423945
3025,-0.06274266680920687
3026,-0.0772291350420579
3027,-0.08820247254930053
3028,-0.0934992369081106
3029,-0.09819676560922716
3030,-0.11071546478195118
3031,-0.13498067121471724
3032,-0.16641319406585764
3033,-0.19594522509957293
3034,-0.21840253879229166
3035,-0.23735149936501193
3036,-0.26192540852903695
3037,-0.29854347798051517
3038,-0.34454419014228244
3039,-0.38816441814361397
3040,-0.4134240274319967
3041,-0.40537677998638466
3042,-0.3531142570580293
3043,-0.2515286780197197
3044,-0.10357649415965547
3045,0.07788315861355016
3046,0.27178836705269405
3047,0.45539466298076436
3048,0.6122463179111812
3049,0.7357239560688229
3050,0.8253114526913037
3051,0.8790850254425656
3052,0.8896708416419604
3053,0.8481393657117656
3054,0.7531562844949522
3055,0.6175468657595908
3056,0.4659559873163025
3057,0.32428227117032526
3058,0.2080992706295604
3059,0.11797997679177807
3060,0.0441961015431628
3061,-0.0236644138330808
3062,-0.08952582449086555
3063,-0.15047576298472987
3064,-0.20168900871780224
3065,-0.24125345311266502
3066,-0.2707150694942484
3067,-0.2918305949575395
3068,-0.30369925406323023
3069,-0.30373784944828996
3070,-0.2916587658614708
3071,-0.2720552876347986
3072,-0.25217799272199803
3073,-0.23635121464091083
3074,-0.22241191104752722
3075,-0.2041998850699635
3076,-0.1782705961015637
3077,-0.14833878146585278
3078,-0.12260777849412967
3079,-0.1060808055753295
3080,-0.09541672829259498
3081,-0.08195167489477025
3082,-0.060472888883936204
3083,-0.03509939946407707
3084,-0.0159161266111251
3085,-0.009138387968896721
3086,-0.010531469926561895
3087,-0.00913933828715876
3088,0.001823997640906009
3089,0.01769549663919437
3090,0.026443907173517515
3091,0.020652424321881455
3092,0.005640043267026756
3093,-0.004764213284402913
3094,-0.0011969264332860278
3095,0.0121005536197474
3096,0.021230516320967535
3097,0.016187117722271827
3098,0.0008671917933721794
3099,-0.010431010827575379
3100,-0.0068881402459673065
3101,0.007958772063129251
3102,0.018988393680739332
3103,0.01344101421945293
3104,-0.007175093344610393
3105,-0.028401164785437083
3106,-0.03588552224195294
3107,-0.02775323652112014
3108,-0.015027086352838608
3109,-0.010551528882888676
3110,-0.017522245291994275
3111,-0.028246184482850684
3112,-0.03324936523837029
3113,-0.03098271849357622
3114,-0.028596557764569264
3115,-0.033714304072601474
3116,-0.04605909261261198
3117,-0.0574611255745781
3118,-0.059999996689352915
3119,-0.05387977316984108
3120,-0.047138190176776874
3121,-0.047625383347013946
3122,-0.05533295699201819
3123,-0.06258595275913617
3124,-0.061661102814166785
3125,-0.05213998443738233
3126,-0.040865047549071776
3127,-0.03492427522963785
3128,-0.034943879314078566
3129,-0.03534098496512852
3130,-0.030920642551033675
3131,-0.022750115021260377
3132,-0.017114028572629066
3133,-0.018593033149091023
3134,-0.02450831161449764
3135,-0.026762826686682006
3136,-0.019602128815454093
3137,-0.005576281619964629
3138,0.006550791642748858
3139,0.010264867494945814
3140,0.007902583814669413
3141,0.008663847358335329
3142,0.01963569304134523
3143,0.03843637046008716
3144,0.054754248015734634
3145,0.059509765904492806
3146,0.05293368243699571
3147,0.04386601487130522
3148,0.04109342700495832
3149,0.04520665878114094
3150,0.048767783087641806
3151,0.044300364975090836
3152,0.031993585088979426
3153,0.01952924602328714
3154,0.014422001402688477
3155,0.01665942070102543
3156,0.01894236116742685
3157,0.014129897665468991
3158,0.002389898551124621
3159,-0.008951662745288715
3160,-0.012505531340121862
3161,-0.007755913101139792
3162,-0.0012122030585034879
3163,-5.214430319562549e-05
3164,-0.0057672680909336554
3165,-0.013810088746298998
3166,-0.018908852272879084
3167,-0.020203318415127625
3168,-0.02109594060056517
3169,-0.024545154106401488
3170,-0.029213409667113423
3171,-0.030680033471170452
3172,-0.026352905979198916
3173,-0.01872635660419107
3174,-0.013367668793853565
3175,-0.013569844565888965
3176,-0.017152845832574856
3177,-0.01874952628836564
3178,-0.015307173707653884
3179,-0.009244880977734626
3180,-0.0060981235915098615
3181,-0.0090835958302314
3182,-0.01609152489346904
3183,-0.022041315314110643
3184,-0.023997944422815862
3185,-0.02366070515023249
3186,-0.024685213470661216
3187,-0.027835376473012763
3188,-0.029390915256558355
3189,-0.024893652887982252
3190,-0.014530210806172502
3191,-0.004274836033353711
3192,-0.0009117315769146886
3193,-0.005434932437206842
3194,-0.011546107173606629
3195,-0.01137484190484756
3196,-0.0033353475508134814
3197,0.005607822505740328
3198,0.006043992760717536
3199,-0.004725820619218404
3200,-0.019178817285385036
3201,-0.025487500929157594
3202,-0.01782426495235925
3203,-0.0016795203308426275
3204,0.01075434322828905
3205,0.010964033668173712
3206,0.0008802506923117177
3207,-0.009795988039334501
3208,-0.012710702922041746
3209,-0.0077695111621657416
3210,-0.0018687502427385196
3211,-0.001519785243595332
3212,-0.00692691796477869
3213,-0.01292783786287053
3214,-0.01501252092159822
3215,-0.013786456819407312
3216,-0.013411221013301566
3217,-0.016163372185264573
3218,-0.019326102142377247
3219,-0.018001992036315778
3220,-0.01095499738805809
3221,-0.003107613122601095
3222,-0.0015854200775189742
3223,-0.008948413656147198
3224,-0.020473389973691074
3225,-0.0285172101329679
3226,-0.02980699996003292
3227,-0.02831559043422979
3228,-0.030684076831705563
3229,-0.03880986735525696
3230,-0.047400449172983014
3231,-0.04942816821868612
3232,-0.044123685650763377
3233,-0.03891292262931212
3234,-0.04234075631480977
3235,-0.0543811016021163
3236,-0.064164723863603
3237,-0.05872975745049502
3238,-0.03552934341402139
3239,-0.006737635845714482
3240,0.009840000003399164
3241,0.005970258742533665
3242,-0.009364100031812005
3243,-0.017277727760367956
3244,-0.005079823212248414
3245,0.023247906159719466
3246,0.05153171437489505
3247,0.06637569295236807
3248,0.06855646387437267
3249,0.0704639077363641
3250,0.08262274338037778
3251,0.10263797788738344
3252,0.11729474887648955
3253,0.11563496073939353
3254,0.10012424611262868
3255,0.08482191725713478
3256,0.08199755987800217
3257,0.08983195109843922
3258,0.0929883723519763
3259,0.07581607169213914
3260,0.036217743113800986
3261,-0.012223013294629007
3262,-0.05126937985114512
3263,-0.07178988419295389
3264,-0.07812607025098875
3265,-0.08044585183869199
3266,-0.08366961189156377
3267,-0.08386628347584357
3268,-0.07479471380700284
3269,-0.057015683066055915
3270,-0.03977727690525991
3271,-0.033521319204662614
3272,-0.04048855139137888
3273,-0.052889235787851235
3274,-0.06056914598458208
3275,-0.06063766449578173
3276,-0.059597742011609244
3277,-0.06605863009830583
3278,-0.08158589556863953
3279,-0.09912061226496965
3280,-0.11068434310657249
3281,-0.11645636386064219
3282,-0.12558271096045912
3283,-0.14731625410735932
3284,-0.18121539788019847
3285,-0.21674016460223855
3286,-0.24347774573115738
3287,-0.2621114166471171
3288,-0.28446325254981497
3289,-0.3210429328675486
3290,-0.36711802459054726
3291,-0.40084301133012556
3292,-0.3962795085150392
3293,-0.34014388297914383
3294,-0.2375334804739054
3295,-0.10256640286239847
3296,0.0554575235137451
3297,0.2356889399238215
3298,0.4353010406654909
3299,0.6362359339252643
3300,0.8044177873786444
3301,0.9052204934770882
3302,0.9230188633888453
3303,0.8681104246214275
3304,0.7658415245664838
3305,0.6390244694676056
3306,0.49964700909483273
3307,0.35495133616540075
3308,0.2177370960402295
3309,0.10691589278707597
3310,0.03564602640363444
3311,-0.0011858704249615853
3312,-0.02605875333132912
3313,-0.06296330626268021
3314,-0.11987808844659956
3315,-0.18490041254915357
3316,-0.23858414634471653
3317,-0.2702385126141578
3318,-0.28355498242519733
3319,-0.28852456860126763
3320,-0.289876872843729
3321,-0.28407782389115416
3322,-0.2665401835183508
3323,-0.23975681540353097
3324,-0.21288224802638683
3325,-0.19326471501101658
3326,-0.1793827524751278
3327,-0.1630473923681929
3328,-0.138646092114749
3329,-0.10961442697276735
3330,-0.08526291148757062
3331,-0.07128514702350844
3332,-0.06390474028077107
3333,-0.053803747227705825
3334,-0.035827795899237416
3335,-0.01454028024720459
3336,1.890882114079901e-05
3337,0.002092531615920887
3338,-0.0042189901594772705
3339,-0.00890809836004463
3340,-0.005397623762997358
3341,0.003920667840973531
3342,0.011002057982577085
3343,0.010556995228794643
3344,0.005108082384910281
3345,0.002005124838587188
3346,0.005762219615878363
3347,0.013413224173511082
3348,0.017270926104257588
3349,0.012177408155704304
3350,0.000252694345779519
3351,-0.011090917995674701
3352,-0.015609605152320686
3353,-0.013044504162292702
3354,-0.008293763761962104
3355,-0.0064883486635036675
3356,-0.008982590740545249
3357,-0.013642006657493674
3358,-0.01820930992277059
3359,-0.022715308385602873
3360,-0.028466661328763576
3361,-0.03514107429103603
3362,-0.03967577877983307
3363,-0.038716320369226315
3364,-0.0324119238618411
3365,-0.025483168040903593
3366,-0.023856955723127824
3367,-0.029593633826468905
3368,-0.03890455133138682
3369,-0.045462550812325184
3370,-0.04618329061160637
3371,-0.04403504337886644
3372,-0.0449916789852333
3373,-0.05180782503429954
3374,-0.06058408108871932
3375,-0.06372375264627367
3376,-0.05684148677311283
3377,-0.04317758732204095
3378,-0.03113806735521889
3379,-0.02701038185228824
3380,-0.029618527063457446
3381,-0.03199957952731167
3382,-0.028507182879464524
3383,-0.020444113061273535
3384,-0.01464689252876103
3385,-0.01628857432519994
3386,-0.02294171745549567
3387,-0.02592542364797912
3388,-0.017977914166575532
3389,-8.539307797168012e-05
3390,0.019038794139423568
3391,0.03036564667420176
3392,0.031892119559240456
3393,0.029223165096550558
3394,0.029375631937430147
3395,0.03420216747619935
3396,0.0397272564269553
3397,0.04140513579575283
3398,0.03935787678009893
3399,0.03802930945620679
3400,0.04081815955632638
3401,0.04565726577086321
3402,0.04653867425750517
3403,0.03965814729638569
3404,0.027789844703013464
3405,0.0180759660256063
3406,0.015140043627810266
3407,0.016415328911647983
3408,0.014589382243322246
3409,0.004968649849544015
3410,-0.009489652226704113
3411,-0.020564515100907624
3412,-0.02236533174712564
3413,-0.016776575639564466
3414,-0.011528872594529855
3415,-0.012906893809615318
3416,-0.020212072756445494
3417,-0.027108843274204916
3418,-0.02809189446247346
3419,-0.023497445332080737
3420,-0.01838672119641256
3421,-0.017006221693495045
3422,-0.01876943437319777
3423,-0.019676867351554186
3424,-0.01720563084095391
3425,-0.013194481739619802
3426,-0.011648428857508365
3427,-0.013974896827642793
3428,-0.016976649722932623
3429,-0.016015397863935247
3430,-0.010204195784405758
3431,-0.004130216075650054
3432,-0.003978026000029352
3433,-0.01162936354966513
3434,-0.0225347931966571
3435,-0.029573387390575696
3436,-0.029278181070187217
3437,-0.02451105603282302
3438,-0.02117187851835916
3439,-0.022320837167121375
3440,-0.025469824646722677
3441,-0.02551187075304969
3442,-0.02016348929327871
3443,-0.012432730573327297
3444,-0.007727405298356296
3445,-0.008589744489202904
3446,-0.012329269626240267
3447,-0.013832254848372874
3448,-0.010632850846969695
3449,-0.005152624528407493
3450,-0.0019848328865165964
3451,-0.003162260752942944
3452,-0.006349038598146572
3453,-0.007785860721382112
3454,-0.006764761475509281
3455,-0.006656586357039804
3456,-0.01103623702763452
3457,-0.01878928252410104
3458,-0.023679333679886932
3459,-0.01970133864365628
3460,-0.007495939236961469
3461,0.004702345097165534
3462,0.0073915815953876085
3463,-0.0018367395754767756
3464,-0.01564428494667403
3465,-0.022877402008861604
3466,-0.018026406031968645
3467,-0.005691811202207532
3468,0.003954972916868061
3469,0.004370415273617203
3470,-0.0021082561022284486
3471,-0.0076216340912978655
3472,-0.007092831062775707
3473,-0.00317942265072538
3474,-0.0031078558887496404
3475,-0.010784304886075489
3476,-0.02227071479532839
3477,-0.029305680050942647
3478,-0.027447653319578103
3479,-0.020706730137932894
3480,-0.01793122321573859
3481,-0.0243699288593749
3482,-0.036635245735641635
3483,-0.04596812348654674
3484,-0.04656109878276156
3485,-0.040810555207756324
3486,-0.0365330068265531
3487,-0.039138459639682655
3488,-0.04654223410901568
3489,-0.05156024487628629
3490,-0.048942124202763566
3491,-0.03981761153713251
3492,-0.02946948663995562
3493,-0.021501589699446166
3494,-0.015047694581991067
3495,-0.007926214474252492
3496,-0.001668986084774241
3497,-0.0018129514872333827
3498,-0.011853072401684496
3499,-0.02678587940277904
3500,-0.03400284719675534
3501,-0.022670655355440793
3502,0.006221526128103945
3503,0.039012277295855796
3504,0.05977825689849002
3505,0.06335230373441325
3506,0.059133387119239995
3507,0.06191259590433036
3508,0.07798151194459524
3509,0.09936621425460063
3510,0.11151096197886859
3511,0.1070663414259552
3512,0.09266023251732926
3513,0.08221822533034472
3514,0.08320576403895238
3515,0.08888247799247066
3516,0.08394504631940491
3517,0.058337016704841003
3518,0.016517955823289077
3519,-0.025990118637857496
3520,-0.0550573194537559
3521,-0.06781773326632828
3522,-0.07167656423253824
3523,-0.07486979459070887
3524,-0.07851886100057154
3525,-0.07754956750429491
3526,-0.06837277484573502
3527,-0.054570340589841886
3528,-0.04442487060870026
3529,-0.042931036357710485
3530,-0.04678385694016787
3531,-0.047826069913321605
3532,-0.041714779515416606
3533,-0.03306047475305231
3534,-0.03163584623781693
3535,-0.04313771945511941
3536,-0.06351096917497967
3537,-0.08245887455314689
3538,-0.09281544451025113
3539,-0.09681018533645308
3540,-0.10342827624357175
3541,-0.11977953733443367
3542,-0.14496238210051873
3543,-0.17201616092501248
3544,-0.19541421882591087
3545,-0.21641635824081856
3546,-0.24129575366822467
3547,-0.2747008211396005
3548,-0.31462409605258757
3549,-0.35280406606570575
3550,-0.37852385804369
3551,-0.3813664544793235
3552,-0.3516946633266561
3553,-0.28183647757851205
3554,-0.17038773005403668
3555,-0.02684982299856589
3556,0.12954812234851834
3557,0.2791089308491565
3558,0.41276583839612
3559,0.5346751880479068
3560,0.6522071662274347
3561,0.761266770708676
3562,0.8409490995415858
3563,0.8644381485894712
3564,0.818323279108452
3565,0.7139576949414781
3566,0.5808203265203474
3567,0.44760371985773145
3568,0.32718348899957217
3569,0.2170184862471667
3570,0.11171782317364978
3571,0.013960987177655563
3572,-0.06658964555460986
3573,-0.1236265752720011
3574,-0.16178257525636044
3575,-0.19302128660398887
3576,-0.22543902587796794
3577,-0.2560020365318466
3578,-0.27463287818900767
3579,-0.27545564292923747
3580,-0.26382427587279966
3581,-0.25209367803704474
3582,-0.2483518809801333
3583,-0.24921857626410332
3584,-0.243692947474496
3585,-0.2242198931961768
3586,-0.19428097094217225
3587,-0.16536443146838542
3588,-0.14641936943117134
3589,-0.1359275055291479
3590,-0.12401500145016667
3591,-0.10241871768343229
3592,-0.07279310656151523
3593,-0.045555467478867274
3594,-0.030413121849451004
3595,-0.027457932431827696
3596,-0.027111210483081752
3597,-0.018936247583187266
3598,-0.0011405010349302739
3599,0.01795647758799597
3600,0.02767317092969953
3601,0.02457227386560648
3602,0.015000095424683897
3603,0.00848005505157986
3604,0.008600939116299845
3605,0.01030110240061659
3606,0.006071176200167993
3607,-0.0052592031276614895
3608,-0.016163546292191425
3609,-0.01725356877200881
3610,-0.006877835956886982
3611,0.0060553545404605
3612,0.009338786854349069
3613,-0.0016003430729431005
3614,-0.01930308351453133
3615,-0.030688810273603578
3616,-0.028450034794851385
3617,-0.01699178887849242
3618,-0.0077057337069193705
3619,-0.008369636642068183
3620,-0.016687535632428835
3621,-0.023645323379797717
3622,-0.02288410154736837
3623,-0.01684541410639218
3624,-0.013998720149764454
3625,-0.020241137765216615
3626,-0.03297963651293243
3627,-0.04347487987374988
3628,-0.044932223016439204
3629,-0.03851027336023833
3630,-0.03177468671366866
3631,-0.03150707990056306
3632,-0.037907859232881744
3633,-0.04538823671188469
3634,-0.0485266123844428
3635,-0.04699929515387456
3636,-0.044843977958209186
3637,-0.04537854430927326
3638,-0.047370305359635954
3639,-0.04647267865814024
3640,-0.040319824054023054
3641,-0.03180182411912255
3642,-0.02686482221454278
3643,-0.028832970876694782
3644,-0.03497078718823746
3645,-0.03893334940826511
3646,-0.03685698321326576
3647,-0.031033492575731663
3648,-0.027344605046473784
3649,-0.028854758611537495
3650,-0.03199997707635831
3651,-0.02948436441641205
3652,-0.017395289089581406
3653,0.0003550134147838897
3654,0.014859784568111246
3655,0.01996452185971155
3656,0.017698787974322325
3657,0.016212485284109793
3658,0.02213775817004996
3659,0.034584441565072226
3660,0.046318574133623135
3661,0.05072607269748258
3662,0.04773289381198416
3663,0.043164402882115455
3664,0.042604904034494184
3665,0.04605750914638748
3666,0.04851748911508284
3667,0.04540983219178347
3668,0.037068563022379306
3669,0.027801413096554956
3670,0.020948010947983257
3671,0.01549400474165533
3672,0.007938821803291252
3673,-0.0027219785364546297
3674,-0.012606471081761291
3675,-0.01625025037965078
3676,-0.0125267489797372
3677,-0.00686402054659065
3678,-0.006806016928743382
3679,-0.014789233285106727
3680,-0.02531071917453237
3681,-0.02975839483233344
3682,-0.02463260417140718
3683,-0.015209222904101085
3684,-0.01081219472983868
3685,-0.015996919778798756
3686,-0.02612652130998309
3687,-0.03175858932697119
3688,-0.027737523067166845
3689,-0.018213830424434946
3690,-0.012658473651350973
3691,-0.01666263278715626
3692,-0.02641624470928368
3693,-0.03223163588199762
3694,-0.027736079168474804
3695,-0.015918576290647496
3696,-0.0063353252266418626
3697,-0.006322547668571928
3698,-0.014658769642441453
3699,-0.023432925989030594
3700,-0.025783114987474584
3701,-0.021744866299428435
3702,-0.01685815799193689
3703,-0.01567600775006281
3704,-0.017200196176569517
3705,-0.016773626053983366
3706,-0.01195386775026034
3707,-0.00576464324858169
3708,-0.0036930247861786314
3709,-0.007627028792419194
3710,-0.01335534034886035
3711,-0.01459955464310001
3712,-0.00958810192924971
3713,-0.003240613266000553
3714,-0.0023590687445816678
3715,-0.008497167651824233
3716,-0.015861272505134836
3717,-0.01671784226125713
3718,-0.009138149984095355
3719,0.0007038645374643324
3720,0.004222230205734972
3721,-0.0013266902895433647
3722,-0.010138717896173547
3723,-0.013441212730621765
3724,-0.007949413527478634
3725,0.0010259308016302726
3726,0.0047576367905920874
3727,-0.0005944643832027534
3728,-0.010616928060934304
3729,-0.017236954502698482
3730,-0.0164806344670504
3731,-0.011751055867051548
3732,-0.009716954688405745
3733,-0.013276484107352252
3734,-0.018716167897729036
3735,-0.019716046784160425
3736,-0.013966272760168444
3737,-0.005736804689611466
3738,-0.0019568595475215177
3739,-0.005781046090781508
3740,-0.013876386958373746
3741,-0.01978887036921391
3742,-0.019836161251800564
3743,-0.015843942425294542
3744,-0.012497147456987257
3745,-0.012409068408563359
3746,-0.013955893916921501
3747,-0.01382192591511622
3748,-0.011361899230620445
3749,-0.010110805617962898
3750,-0.014676423642766456
3751,-0.025901828458893012
3752,-0.03907151520413764
3753,-0.04724755944334505
3754,-0.04705112555233759
3755,-0.04174787400396155
3756,-0.0386499543025846
3757,-0.04277785231530612
3758,-0.05211416490557431
3759,-0.05862067621366201
3760,-0.05440299883167059
3761,-0.03807102572708432
3762,-0.016166407395535758
3763,0.0013690593672006693
3764,0.007903504045555643
3765,0.003808282991130209
3766,-0.0050908516341322835
3767,-0.012106767779281066
3768,-0.013254842867860231
3769,-0.0076926651196968
3770,0.003706554484603996
3771,0.019199655131459166
3772,0.03585354702228223
3773,0.04977919109362168
3774,0.0583139670424457
3775,0.06270612090761196
3776,0.06796456294403178
3777,0.07855311597784859
3778,0.09318549876454714
3779,0.10420560139025437
3780,0.10356940285377311
3781,0.09076085627477587
3782,0.07476908368668746
3783,0.06677456802513229
3784,0.06913745995671092
3785,0.07108324386812184
3786,0.056544336340381945
3787,0.018538225771790574
3788,-0.03252231271021744
3789,-0.0748325892039628
3790,-0.09128062980051949
3791,-0.08209385950578814
3792,-0.06328324717830827
3793,-0.05265406255675517
3794,-0.05594363981084413
3795,-0.06479619709305164
3796,-0.06693130351847172
3797,-0.0579658448443363
3798,-0.04401192558780499
3799,-0.034005948311862454
3800,-0.03063379524617771
3801,-0.029109825365357993
3802,-0.02422076825646351
3803,-0.017391296003111976
3804,-0.015870359669844243
3805,-0.024805842548699063
3806,-0.04076386374479965
3807,-0.05400273626541584
3808,-0.05777001842145122
3809,-0.055379717162459145
3810,-0.05767813856798676
3811,-0.07302303792204737
3812,-0.09950647052768413
3813,-0.12708132221191715
3814,-0.14746440780080022
3815,-0.16198474832001997
3816,-0.17970504511086452
3817,-0.20801131801865697
3818,-0.24541848872357624
3819,-0.2838040370610844
3820,-0.31716230503356146
3821,-0.3467502447161906
3822,-0.376022097829786
3823,-0.3999163962952297
3824,-0.40041025091527405
3825,-0.3554602152592873
3826,-0.25527914687267106
3827,-0.11130808842016249
3828,0.05131710081230516
3829,0.21168037558457692
3830,0.3647322857767437
3831,0.5153813653104456
3832,0.6608779794474716
3833,0.7798726550694002
3834,0.8414383925785349
3835,0.8283245109971387
3836,0.7536597053108326
3837,0.6544241677457978
3838,0.5655160074053194
3839,0.49624649922227626
3840,0.42936622241883404
3841,0.3424602011473333
3842,0.23163149993363166
3843,0.11634929239434488
3844,0.022613528193649146
3845,-0.03859866376060855
3846,-0.07780141596299861
3847,-0.11423944818848064
3848,-0.15780218537137372
3849,-0.20271775017145321
3850,-0.23685124966938126
3851,-0.25510352871426567
3852,-0.2631472055089203
3853,-0.26935410439998075
3854,-0.27513578173033393
3855,-0.2743607977744753
3856,-0.2616885031917945
3857,-0.23988316998972473
3858,-0.21779196634589332
3859,-0.20132412273113634
3860,-0.18755162143225168
3861,-0.16859070044046837
3862,-0.14116771802924527
3863,-0.11143624570526292
3864,-0.08952734996098756
3865,-0.07926029762541563
3866,-0.07381294316237128
3867,-0.062226096260496674
3868,-0.04047552869248171
3869,-0.015975455717610727
3870,-0.0008045189462088915
3871,-0.00018206471390814355
3872,-0.007474349976672479
3873,-0.010586416892375827
3874,-0.0034574438386176815
3875,0.008490913579965126
3876,0.014080721362509542
3877,0.00756423623872994
3878,-0.0055508918883770565
3879,-0.013503985812833444
3880,-0.009178335623339771
3881,0.0034605777741578405
3882,0.013247862609190586
3883,0.012079072021984197
3884,0.0018746112358240924
3885,-0.007918035132166917
3886,-0.009419416361300517
3887,-0.0032648258671304064
3888,0.002782234717447143
3889,0.001606392290940728
3890,-0.0068103347473137486
3891,-0.01613776050353073
3892,-0.020276342368070938
3893,-0.01897969497464924
3894,-0.01721135738891709
3895,-0.019453283187274885
3896,-0.025095309095907667
3897,-0.02955698072076639
3898,-0.029673944035569288
3899,-0.02746705915892278
3900,-0.028181016330592543
3901,-0.03455115155062525
3902,-0.04334903338221238
3903,-0.048089480714693864
3904,-0.04546545754276328
3905,-0.03904490266025791
3906,-0.03625171824504852
3907,-0.04132908495668082
3908,-0.051165558291976936
3909,-0.058221849081849575
3910,-0.05780289784013711
3911,-0.05251561078779788
3912,-0.04943103109595512
3913,-0.0526983567754982
3914,-0.058978899378528196
3915,-0.06039587426327525
3916,-0.0522644348954721
3917,-0.03801252832952552
3918,-0.026312621863605404
3919,-0.023044709493522882
3920,-0.025839763832028514
3921,-0.02652063192808656
3922,-0.019102263126000257
3923,-0.005627308293223965
3924,0.005743864141318058
3925,0.00844179817008994
3926,0.003531088185267637
3927,-0.0015585727114141002
3928,-5.375569760506847e-05
3929,0.008368697656349467
3930,0.01840186557077463
3931,0.025155654075943792
3932,0.028982506459553817
3933,0.034253713955188884
3934,0.043687890486466124
3935,0.0544122978417302
3936,0.06004555728415788
3937,0.05678173442326867
3938,0.04725994006282282
3939,0.03821132976701744
3940,0.03419225003595243
3941,0.033661993845790564
3942,0.031233418664350147
3943,0.023636180386097726
3944,0.013224126328743962
3945,0.005485827336103348
3946,0.003243665716902138
3947,0.003647519541053557
3948,0.001170660882276544
3949,-0.006434693950600317
3950,-0.015446280891234829
3951,-0.019753542812003963
3952,-0.017290826915507845
3953,-0.012773436697430366
3954,-0.013644677052714918
3955,-0.022871020184701198
3956,-0.03555940800946554
3957,-0.04290711783375571
3958,-0.039991726937928115
3959,-0.030144722174481147
3960,-0.021807384437938126
3961,-0.02084079353956092
3962,-0.025488936961460183
3963,-0.02858078493367235
3964,-0.02467814761524247
3965,-0.015320538305750746
3966,-0.007533084179012335
3967,-0.0072589104989720325
3968,-0.014063333249544183
3969,-0.0219574260352749
3970,-0.02516916969314711
3971,-0.02308926021282123
3972,-0.019800131891901655
3973,-0.01916625947424585
3974,-0.020777044899686833
3975,-0.020856364755032452
3976,-0.016935130582920434
3977,-0.011130798880536318
3978,-0.008359570075919757
3979,-0.01120102638901706
3980,-0.01683722260905979
3981,-0.01954270300878009
3982,-0.016451527845195445
3983,-0.010688689584935537
3984,-0.00837952659469502
3985,-0.01230910138957986
3986,-0.018711215751091918
3987,-0.02077711816022875
3988,-0.01563051224030795
3989,-0.007658424988075412
3990,-0.004438190618136826
3991,-0.009002325950781999
3992,-0.016275390791800515
3993,-0.01772942353847181
3994,-0.010065954578120425
3995,0.0007353935992560317
3996,0.00454259915667864
3997,-0.003103240645389514
3998,-0.015984307444542906
3999,-0.022337115808243324
4000,-0.015720710904807998
4001,-0.0014004482866687318
4002,0.008048319559313667
4003,0.0040800350443979515
4004,-0.010042505902181934
4005,-0.02228902527791784
4006,-0.02286475519278311
4007,-0.012947906870646755
4008,-0.0032274022695829513
4009,-0.003922383017937117
4010,-0.015710107739776456
4011,-0.029712744658989057
4012,-0.035971063931335076
4013,-0.032141314869491344
4014,-0.0245699143831835
4015,-0.02152076598799878
4016,-0.025550941628107643
4017,-0.032131626118963176
4018,-0.03506221882691029
4019,-0.032769653289120196
4020,-0.02936889805708073
4021,-0.03005848266338762
4022,-0.035981932651541745
4023,-0.043632807924991884
4024,-0.04872722322556697
4025,-0.04986818261326651
4026,-0.048074089561014784
4027,-0.043317081010580086
4028,-0.03293060618348873
4029,-0.01481301006504581
4030,0.0074205868856798505
4031,0.02354791927516116
4032,0.023061754750242996
4033,0.004354124732939763
4034,-0.02166182086805172
4035,-0.038014370814588874
4036,-0.03380682424843853
4037,-0.011955154957341691
4038,0.014170387321481917
4039,0.032196546803241764
4040,0.04015452244651736
4041,0.045845328816608785
4042,0.05756591160765527
4043,0.07538241297856244
4044,0.0910695535943614
4045,0.09623510047781483
4046,0.09043800774879063
4047,0.08154238632519634
4048,0.0782916891988217
4049,0.08236790186181736
4050,0.08715049448804917
4051,0.08361959451352183
4052,0.06736913456716173
4053,0.04063535721518058
4054,0.008904680187484519
4055,-0.023221640032348615
4056,-0.05271970261859445
4057,-0.0760718379182488
4058,-0.0885699680666241
4059,-0.08728569481210743
4060,-0.07503155525961999
4061,-0.06035406845007823
4062,-0.05201274023207605
4063,-0.05226250501699562
4064,-0.05530097014541034
4065,-0.05282936933256116
4066,-0.041862038281083036
4067,-0.027538917222255453
4068,-0.018373446842838526
4069,-0.018633301285589855
4070,-0.0252005681233216
4071,-0.031643039391738
4072,-0.0350136703472927
4073,-0.038379068401905685
4074,-0.04674555959317734
4075,-0.06101950691295175
4076,-0.07665551115448738
4077,-0.08860450268409933
4078,-0.09733904409329112
4079,-0.10932309566384671
4080,-0.13094185691662236
4081,-0.1618540743959511
4082,-0.19470958579074837
4083,-0.22196757933116165
4084,-0.24333430009000306
4085,-0.26640715706990403
4086,-0.29943799413086947
4087,-0.3424577598038485
4088,-0.38429925849501784
4089,-0.4075156813274332
4090,-0.3966342185333795
4091,-0.3437211921255483
4092,-0.24919196868987228
4093,-0.12013302941059298
4094,0.03129367624890893
4095,0.18963096011729907
4096,0.3398167395581795
4097,0.472205868155937
4098,0.5850696656479547
4099,0.6811909823368969
4100,0.7602054668337537
4101,0.813214909947579
4102,0.8254084647059485
4103,0.78578908729639
4104,0.6965207273558425
4105,0.5741913282186246
4106,0.44183340460161646
4107,0.31791966027569474
4108,0.21027895631722304
4109,0.1179754811117052
4110,0.03761063133229016
4111,-0.031999080013804415
4112,-0.08988462314098439
4113,-0.13600165971002104
4114,-0.1732984276780736
4115,-0.2064076218768567
4116,-0.23805874266808466
4117,-0.26642794349474663
4118,-0.2859328603655145
4119,-0.29127220569843276
4120,-0.28188888901869774
4121,-0.2633871904370788
4122,-0.24439998349792247
4123,-0.23085196277802714
4124,-0.2219708663459971
4125,-0.21148854171092762
4126,-0.19339860849204085
4127,-0.16755886935727055
4128,-0.140170550193416
4129,-0.11851455347716282
4130,-0.10463370768715008
4131,-0.09384688909303295
4132,-0.07955922744482613
4133,-0.05979433403267342
4134,-0.039136744942365076
4135,-0.02424288768528394
4136,-0.01744451772291382
4137,-0.014832683072177472
4138,-0.010610545240740895
4139,-0.0030881111788416404
4140,0.003933710054487557
4141,0.005755491775241908
4142,0.0023746963510607195
4143,-0.0010174242379196227
4144,0.0006311345935594622
4145,0.0066425233999625605
4146,0.010877806581143927
4147,0.007985754003280266
4148,-0.0006639168102281876
4149,-0.007714175766340763
4150,-0.006928344972400207
4151,0.00029871201089206223
4152,0.005768626597786362
4153,0.0022178386859787037
4154,-0.009479983576259045
4155,-0.020820915557399067
4156,-0.02359534364049681
4157,-0.017629773445513294
4158,-0.01086806297806063
4159,-0.011767164962788831
4160,-0.021390033916812504
4161,-0.03268198578707618
4162,-0.037284687875144426
4163,-0.03306114678671691
4164,-0.025272395863446276
4165,-0.020935865497056016
4166,-0.022452232149653174
4167,-0.026651528994868234
4168,-0.02938238033049411
4169,-0.030167127882805154
4170,-0.031972444912144
4171,-0.036852585731356705
4172,-0.042781104605723576
4173,-0.0455192409669131
4174,-0.043586357799467
4175,-0.040673854310811774
4176,-0.042347550333631995
4177,-0.05007528735423851
4178,-0.05887534773965124
4179,-0.06151696894927838
4180,-0.055471619512011155
4181,-0.04567465350193019
4182,-0.040064108999885745
4183,-0.04206586652487789
4184,-0.047417779571542806
4185,-0.048569582671769015
4186,-0.04237509179043895
4187,-0.033409217136069716
4188,-0.029465325737478412
4189,-0.03353742098341658
4190,-0.040216654485726394
4191,-0.04027854084269879
4192,-0.029279306671151285
4193,-0.01195561422386163
4194,0.0019074144699819519
4195,0.0063806571848499674
4196,0.004735694811180744
4197,0.006211892500501966
4198,0.017225901981865892
4199,0.035198444699314844
4200,0.05065440753598877
4201,0.05554956795856135
4202,0.050158972294756646
4203,0.04244081881205664
4204,0.04082239106566246
4205,0.047134875462055095
4206,0.055758077547404875
4207,0.05900225759495055
4208,0.05332125216913605
4209,0.04103094201531946
4210,0.027089403707430154
4211,0.014978406576013655
4212,0.005563414618629706
4213,-0.001161533075565822
4214,-0.004657421858792546
4215,-0.004899938359289296
4216,-0.004334366128703849
4217,-0.007342414953267803
4218,-0.016415598184898225
4219,-0.028554323492971462
4220,-0.03639864858471196
4221,-0.03436205832053222
4222,-0.024473202858673306
4223,-0.015772321742362733
4224,-0.016723369539836865
4225,-0.027190378615759264
4226,-0.037853001885674184
4227,-0.038428637726313955
4228,-0.0275059471000862
4229,-0.014594587898806176
4230,-0.011863200395452212
4231,-0.022823938685252447
4232,-0.0385251293884426
4233,-0.0451256684265087
4234,-0.03613139790409917
4235,-0.01811335298809868
4236,-0.004729866187921239
4237,-0.004695775836697203
4238,-0.014756416218391702
4239,-0.02374235827528472
4240,-0.023347851785258493
4241,-0.01535062547418898
4242,-0.008925814838780313
4243,-0.011321073360961725
4244,-0.0211068239701532
4245,-0.030112335101679592
4246,-0.031514109151465734
4247,-0.02592551366552944
4248,-0.019890407657406867
4249,-0.018903837480172103
4250,-0.022187105737029346
4251,-0.024175259595094884
4252,-0.020720878090255003
4253,-0.013474753074672295
4254,-0.008108350779851801
4255,-0.008463463758241713
4256,-0.0127636207847325
4257,-0.015728354772777117
4258,-0.014287324649659403
4259,-0.010892447660649474
4260,-0.010904544067243158
4261,-0.01665664952687992
4262,-0.024345616998096634
4263,-0.027209223779985164
4264,-0.02210034890467719
4265,-0.012925791815053055
4266,-0.007270719586608724
4267,-0.009239052646668574
4268,-0.015485614260144089
4269,-0.018510799936089284
4270,-0.014177750904595846
4271,-0.0060639769805460346
4272,-0.0021473452001061276
4273,-0.006841618517780459
4274,-0.01618886955105799
4275,-0.0211837631068256
4276,-0.01630014646857323
4277,-0.005030427587116053
4278,0.0030505332778589258
4279,0.0010017514702814854
4280,-0.009338902834021761
4281,-0.01962109841090791
4282,-0.02324054399329146
4283,-0.021352403092649436
4284,-0.02081818383808682
4285,-0.026460984410856415
4286,-0.03570138067829143
4287,-0.04109890359434397
4288,-0.03816108001662097
4289,-0.030353325974831823
4290,-0.026099320880135852
4291,-0.030766443713896648
4292,-0.04174919753467485
4293,-0.05152639565685861
4294,-0.05531589534594658
4295,-0.05523363920576422
4296,-0.0566221084158231
4297,-0.060613005453249456
4298,-0.061268693600401936
4299,-0.05113184563199098
4300,-0.030073846405827564
4301,-0.008137489911570872
4302,0.001697616068883358
4303,-0.005009477050106001
4304,-0.019138848744033987
4305,-0.024809056381390138
4306,-0.012540005197102065
4307,0.012827541595322185
4308,0.036581443768759436
4309,0.04697731098957296
4310,0.04498656186914441
4311,0.04243371827131797
4312,0.0505892102450601
4313,0.06974304139333405
4314,0.08904327040554105
4315,0.09637373785894035
4316,0.08910300844215223
4317,0.07612533681044165
4318,0.06970833476418643
4319,0.07465063788731227
4320,0.08415929016719609
4321,0.08547947602762368
4322,0.06985583825076382
4323,0.03841446540189766
4324,5.5379529314956814e-05
4325,-0.0353962389732085
4326,-0.062372882070486454
4327,-0.07971394639024984
4328,-0.08781582718960108
4329,-0.08701729267195508
4330,-0.07877628492513404
4331,-0.0671743336019587
4332,-0.05760821020467419
4333,-0.052953477623183545
4334,-0.05106889267920564
4335,-0.04693105551035809
4336,-0.038069608216576956
4337,-0.028049837961363927
4338,-0.0240010459382237
4339,-0.0299215919406452
4340,-0.04212234906404946
4341,-0.05173455583341505
4342,-0.05259989560336945
4343,-0.0473461442182914
4344,-0.045646379662740266
4345,-0.05582348584669959
4346,-0.07740455310917835
4347,-0.10164591370160797
4348,-0.11971320362493484
4349,-0.13093585075616312
4350,-0.14333418041210974
4351,-0.16585579917147647
4352,-0.19971940455808773
4353,-0.23730115974356222
4354,-0.26983139798598715
4355,-0.29636623113603744
4356,-0.3245593014776597
4357,-0.36110131808866797
4358,-0.39994946610961796
4359,-0.41993328952719355
4360,-0.39594908585008604
4361,-0.31569546058153586
4362,-0.18794278398865483
4363,-0.034916307906540614
4364,0.12460426749789676
4365,0.28606060032049074
4366,0.45356324470933956
4367,0.6231646181267287
4368,0.7716884409149504
4369,0.8641798851537418
4370,0.8763770789269834
4371,0.8138081146189501
4372,0.7103042588500224
4373,0.6057358297026793
4374,0.5206406975611843
4375,0.44792303465020467
4376,0.366714216716924
4377,0.26468453318167395
4378,0.14943944290763717
4379,0.04122333789641636
4380,-0.04387074797946483
4381,-0.10437184585310762
4382,-0.1501086474303775
4383,-0.1911215532906559
4384,-0.2302157766124882
4385,-0.26427315406642105
4386,-0.28983916246769104
4387,-0.30582464829601924
4388,-0.3117437030171286
4389,-0.3059819838371122
4390,-0.2878965533238842
4391,-0.26153936279156653
4392,-0.23538482129123128
4393,-0.21637795224253134
4394,-0.2036867913414867
4395,-0.18926589979630826
4396,-0.1658535849724648
4397,-0.13486752205892025
4398,-0.10591019770600875
4399,-0.08777167873547842
4400,-0.07972046612030208
4401,-0.07204035408943028
4402,-0.05562895073894226
4403,-0.031238781090174653
4404,-0.00913154879282626
4405,0.0005723140240575368
4406,-0.0026205150614015474
4407,-0.009364745885825476
4408,-0.009334136696454148
4409,-0.00023920837959172424
4410,0.011425294447507261
4411,0.01768298097964283
4412,0.016494621065678998
4413,0.012169561050701093
4414,0.009469837577220617
4415,0.008435929236150722
4416,0.005413266133309938
4417,-0.0014799369196614538
4418,-0.009104233396227457
4419,-0.012295911448577961
4420,-0.009980485922453292
4421,-0.0074391557223642945
4422,-0.011536664901055734
4423,-0.02327779579360047
4424,-0.03543961767973085
4425,-0.038415579583576324
4426,-0.029196956990837457
4427,-0.014868795943601017
4428,-0.006897152697505915
4429,-0.011241045689359002
4430,-0.023423376978637268
4431,-0.03308466009311027
4432,-0.03362471225609398
4433,-0.02787446011876924
4434,-0.02472363026869314
4435,-0.0302961250841378
4436,-0.042244651191777456
4437,-0.05239987089296502
4438,-0.054820975435078106
4439,-0.051265459937471905
4440,-0.04893742561069749
4441,-0.05305610243727731
4442,-0.061705318470047565
4443,-0.0679072664272306
4444,-0.06661725096380748
4445,-0.05958648340851125
4446,-0.053356121339376596
4447,-0.05255002691035604
4448,-0.05522155562176041
4449,-0.054837083775304524
4450,-0.04685034498505328
4451,-0.03335887820154036
4452,-0.021356743523987233
4453,-0.016442042263671477
4454,-0.018154467801565863
4455,-0.021242650228311667
4456,-0.021156765042872807
4457,-0.01801573654186551
4458,-0.015171998469330027
4459,-0.014235141127391908
4460,-0.01211653793916468
4461,-0.0035599013793439676
4462,0.013133194912898272
4463,0.0330277007351613
4464,0.04764756751340116
4465,0.05175337315944753
4466,0.047568035803215586
4467,0.042468260696196886
4468,0.04229193174485607
4469,0.04648435912506063
4470,0.04940698148801429
4471,0.046182776229752975
4472,0.03727204530001703
4473,0.027533723454904166
4474,0.021118673272132057
4475,0.017550026596161623
4476,0.01287348720438103
4477,0.004446314729614059
4478,-0.0057778024809500665
4479,-0.012978502373877406
4480,-0.014463853173368168
4481,-0.012708431498885203
4482,-0.013126063687537827
4483,-0.018673452899370734
4484,-0.02675925048658683
4485,-0.03174621297949112
4486,-0.030679948061481194
4487,-0.026467768081439004
4488,-0.025128419398386975
4489,-0.029667097711895754
4490,-0.0366684369619996
4491,-0.039189775092462076
4492,-0.033351154868420094
4493,-0.022274807412115457
4494,-0.013500922795719994
4495,-0.012313024297889797
4496,-0.017340153546429746
4497,-0.02250050676240504
4498,-0.023136605875484904
4499,-0.020227273357295877
4500,-0.01869462876690659
4501,-0.021803279840535792
4502,-0.027458141719229615
4503,-0.03012576520363871
4504,-0.026359722353427033
4505,-0.018326232707781213
4506,-0.011829485807406226
4507,-0.01088242607515394
4508,-0.014228906792508728
4509,-0.017104481602895967
4510,-0.016206864256780088
4511,-0.01276294440569431
4512,-0.010754691121174068
4513,-0.012431359801619211
4514,-0.01593759734848886
4515,-0.017499651787529137
4516,-0.015693527687017816
4517,-0.013050206152998789
4518,-0.01307525949618568
4519,-0.015795275338342768
4520,-0.016873609568372173
4521,-0.01188433505367061
4522,-0.001781477787665487
4523,0.006312279097232509
4524,0.00476465909458368
4525,-0.007168082021612739
4526,-0.021351819973212022
4527,-0.026878706490383632
4528,-0.019383699850290426
4529,-0.005183655604912733
4530,0.003902295513478074
4531,0.000763283174156873
4532,-0.01087355304211928
4533,-0.020015715840834676
4534,-0.018493324827622715
4535,-0.008363184688952315
4536,0.0001172700877956419
4537,-0.002022985758910201
4538,-0.014345636308464341
4539,-0.027653188035608955
4540,-0.03252169306116019
4541,-0.027533653017928945
4542,-0.019617664658842696
4543,-0.016657472590170933
4544,-0.019885080417217395
4545,-0.02344470445684755
4546,-0.021186881234789776
4547,-0.013544765583503673
4548,-0.007396604927267286
4549,-0.009034109940410949
4550,-0.01747670567717405
4551,-0.025175059518662748
4552,-0.025701587472112562
4553,-0.020744244263409057
4554,-0.01904621811040893
4555,-0.02782236772256956
4556,-0.04491870400106007
4557,-0.059719936631707965
4558,-0.06246856526141978
4559,-0.05326580654525193
4560,-0.04195315566351425
4561,-0.038700564928470044
4562,-0.044210536930697646
4563,-0.049057721156097425
4564,-0.0430075620704479
4565,-0.025475113974818685
4566,-0.007000460078500652
4567,-8.167887522708564e-05
4568,-0.007831784041382761
4569,-0.021005056202136958
4570,-0.026044960289584616
4571,-0.016573473472977218
4572,0.002122459467911623
4573,0.019120182960447454
4574,0.028122240056073826
4575,0.0323050551328493
4576,0.03989188917941098
4577,0.05543183059871999
4578,0.07519361080176087
4579,0.0904450016242622
4580,0.0948640212899997
4581,0.08920982680641694
4582,0.07987798099138632
4583,0.07374667051564095
4584,0.07404359876623982
4585,0.07952260978952197
4586,0.08571232523117824
4587,0.08631580732016603
4588,0.07481963912749749
4589,0.04750251184418871
4590,0.007165721294771148
4591,-0.03580840422343823
4592,-0.06795598267005216
4593,-0.08104505231156253
4594,-0.07787865963337501
4595,-0.07000957173185629
4596,-0.06834634913722228
4597,-0.07431795486372952
4598,-0.07941378360314069
4599,-0.0736990869467195
4600,-0.055710057316966606
4601,-0.034711748345297666
4602,-0.023217220386444852
4603,-0.026567731466151167
4604,-0.038959775315130236
4605,-0.04924068420683384
4606,-0.0508806469314466
4607,-0.047072588865310946
4608,-0.04684943174682378
4609,-0.05646819934546772
4610,-0.07421971154054047
4611,-0.09300136491809888
4612,-0.1075183062934741
4613,-0.1190201713313564
4614,-0.13341984791740205
4615,-0.15520671575435968
4616,-0.18335736681226428
4617,-0.2130810517931419
4618,-0.24128638977710454
4619,-0.2699026361935576
4620,-0.30314352381219567
4621,-0.3406225933613564
4622,-0.37257709918371457
4623,-0.382322098055875
4624,-0.3552163223633894
4625,-0.2877262457074212
4626,-0.18947923138598344
4627,-0.07634452720555363
4628,0.04036168467093476
4629,0.16014494031571147
4630,0.2899880665943287
4631,0.43385220368716393
4632,0.5833039858252489
4633,0.7168751405063017
4634,0.8090433337146105
4635,0.8424327382405501
4636,0.8148958360418554
4637,0.737809350611739
4638,0.6287551844000783
4639,0.5047940910256381
4640,0.37980562615869756
