,0
0,-0.020760119057808432
1,-0.025042736186785357
2,-0.025896221582738903
3,-0.023646723498709204
4,-0.022178514534551726
5,-0.024794674139559776
6,-0.03024439081581056
7,-0.033179457696494385
8,-0.029106282932435855
9,-0.01924217450206519
10,-0.010241245381403474
11,-0.008407959388501737
12,-0.013588574415676038
13,-0.01886061909607338
14,-0.01696414024028821
15,-0.0077192312877790645
16,0.0009164974620342703
17,-0.00015834907934417957
18,-0.012343245338179567
19,-0.02720699834735365
20,-0.033645414532096414
21,-0.02791248001183584
22,-0.016950258455779323
23,-0.01161708284324663
24,-0.01623527186613074
25,-0.02467273237437144
26,-0.026888890728560617
27,-0.019477326520378695
28,-0.00957531913241647
29,-0.007977709849651484
30,-0.018144089592091472
31,-0.03214752657750045
32,-0.03789295393491821
33,-0.03067589628815106
34,-0.01765222981532953
35,-0.010723569167832996
36,-0.014894255275384185
37,-0.023721233185653376
38,-0.02636854578244495
39,-0.01906007981799615
40,-0.009216770007031482
41,-0.00791221669187659
42,-0.01817143551174214
43,-0.03106748349238525
44,-0.033932851471300846
45,-0.022826308769184886
46,-0.0068849441589702125
47,1.5024399070955464e-06
48,-0.007730106365097187
49,-0.02218895153348726
50,-0.029831144853775707
51,-0.02451784083264539
52,-0.013070223230035389
53,-0.008031728353457801
54,-0.014968304554856217
55,-0.026940322705203603
56,-0.03157609059061943
57,-0.02364327091891473
58,-0.01055693956646905
59,-0.005257438622667302
60,-0.013411897203246797
61,-0.02758005811573587
62,-0.03421769542414839
63,-0.026799953693489108
64,-0.01227979759293567
65,-0.004515343315741119
66,-0.010958946953011023
67,-0.025470553935316657
68,-0.034210075928537684
69,-0.028920418078543297
70,-0.014793692490987468
71,-0.005380841738337555
72,-0.009516985902696867
73,-0.02288321855528673
74,-0.032276627944804404
75,-0.028388737153344622
76,-0.0147690531973538
77,-0.004432817487049554
78,-0.007483720262503888
79,-0.021629355873014594
80,-0.034482018450548116
81,-0.03515071156678205
82,-0.023935532933354722
83,-0.011180113284437585
84,-0.0070201846678208946
85,-0.012313337409427076
86,-0.01927097007500445
87,-0.0203694916636271
88,-0.016072283909047885
89,-0.013626990124641265
90,-0.018636889565318705
91,-0.02849945814356247
92,-0.03468750876706028
93,-0.03154130191181411
94,-0.022395510065599478
95,-0.016553817071496058
96,-0.020084852260341325
97,-0.029870380683079904
98,-0.03705560711613175
99,-0.03633470038935777
100,-0.031385289790596634
101,-0.030685002777146024
102,-0.037985003104038045
103,-0.04749170937925207
104,-0.049158082744540914
105,-0.03898882695980964
106,-0.023734556943365945
107,-0.014741743327744646
108,-0.016786285603449455
109,-0.02315539702396295
110,-0.022250230427382115
111,-0.009377198121607415
112,0.008083311416395976
113,0.017556667203069892
114,0.013603462631093105
115,0.0034898816559107964
116,0.0003244162513640189
117,0.010347074160108643
118,0.02676973320907372
119,0.03618114076785289
120,0.03129879285409959
121,0.017801768118423503
122,0.008873944136990126
123,0.01292225067383979
124,0.026149418823044307
125,0.03655860689076453
126,0.034963914106726376
127,0.022435313258050395
128,0.007801960956449038
129,-0.0013396193917888737
130,-0.004951068847654665
131,-0.008549707241215272
132,-0.01585604203001971
133,-0.02412561314359835
134,-0.02697590472789973
135,-0.021614377179424778
136,-0.012792344945188047
137,-0.009052435068586542
138,-0.01465531184525462
139,-0.025217029969962772
140,-0.031813713358447314
141,-0.030029267880723992
142,-0.025126742122332804
143,-0.027728246953458217
144,-0.04355340970341828
145,-0.06716621361385514
146,-0.08654612032058795
147,-0.09483914159062189
148,-0.09782052207804126
149,-0.10883754887383446
150,-0.13524360578468714
151,-0.1698059764250782
152,-0.19688443808499817
153,-0.20858156516146203
154,-0.21478895460894037
155,-0.2356484510789346
156,-0.282459219774147
157,-0.3460952255131661
158,-0.40574421796524984
159,-0.4496323364163218
160,-0.4847896634848309
161,-0.5220523205372685
162,-0.5487665495446784
163,-0.5185442064847021
164,-0.3748771895518559
165,-0.09270213877702357
166,0.29855636617988507
167,0.7320583898228634
168,1.1439693075183928
169,1.4969675629023866
170,1.7644157547475197
171,1.8968121020787114
172,1.8173051378403957
173,1.4691386752248001
174,0.8833012993457791
175,0.20252443353417882
176,-0.37527649656120754
177,-0.703744337714394
178,-0.7671399633922973
179,-0.6716676389075327
180,-0.5587962883906771
181,-0.5109551421066316
182,-0.5192132886419162
183,-0.5247021414928331
184,-0.4851641061673091
185,-0.4072432483613866
186,-0.326610909782411
187,-0.26733385627733536
188,-0.22352473259963537
189,-0.17590827406514575
190,-0.1191220443432005
191,-0.06887485553959828
192,-0.04360597934465356
193,-0.042998421806346686
194,-0.047085504165159525
195,-0.03610893633934366
196,-0.009430075809264492
197,0.01590214000699949
198,0.0241352503866734
199,0.016787167284526512
200,0.009588965661263103
201,0.014984350538525905
202,0.02926374917167142
203,0.037406542327234685
204,0.029678281241184705
205,0.012208042539046787
206,0.0007813228441694058
207,0.004751313699050799
208,0.017801145649960527
209,0.024724991228502656
210,0.016899332992434624
211,0.0006796693982011022
212,-0.009351820590103681
213,-0.004969111108684643
214,0.008023963040509754
215,0.016225772362904504
216,0.012059231218742288
217,0.0005116096197847345
218,-0.007114700251259697
219,-0.00539673961382682
220,-0.00015107407136896582
221,-0.0015763106044826803
222,-0.012522883461236204
223,-0.02430966425007318
224,-0.02484217687923478
225,-0.011161951062160865
226,0.006288013417933188
227,0.012494635544018667
228,0.0016999749327603732
229,-0.017050154483132657
230,-0.02813568199601789
231,-0.023663077819499598
232,-0.010316797053956092
233,-0.002440128657251005
234,-0.008208302818732631
235,-0.02216637216291696
236,-0.030984029687084344
237,-0.026459243967063478
238,-0.013073402051285104
239,-0.003095772672163939
240,-0.004502331607422081
241,-0.013720741542405525
242,-0.020032254060974947
243,-0.016767968269774666
244,-0.007903606143381153
245,-0.003594479456091932
246,-0.009437321276281517
247,-0.020474449178529988
248,-0.02603247478526541
249,-0.02048997761745104
250,-0.009086942042969488
251,-0.0028895840308365895
252,-0.00793060508892994
253,-0.019386923123228074
254,-0.026595486677286596
255,-0.023840390943716455
256,-0.016067218380373626
257,-0.013775048175936163
258,-0.02219652682316766
259,-0.035641349777642606
260,-0.04278226396501237
261,-0.03776984316322476
262,-0.026200018788099397
263,-0.019954338873134487
264,-0.025845577309693526
265,-0.03907097098671626
266,-0.04776651846842615
267,-0.04416408977799234
268,-0.031576632294412786
269,-0.020708155726930615
270,-0.019236252733727314
271,-0.024936509408617333
272,-0.02876911489419722
273,-0.024379264155878225
274,-0.01432240490476141
275,-0.006945343273698453
276,-0.00739819466368612
277,-0.012091933104815798
278,-0.012282959388147916
279,-0.0031175665123804397
280,0.011146095220401869
281,0.02123978832486072
282,0.02239417389718474
283,0.019723386302238535
284,0.02384311804563813
285,0.04073104147859366
286,0.06570612323993069
287,0.0875816548919429
288,0.09916651372257132
289,0.10402082529564484
290,0.1129246795001749
291,0.1334780298811722
292,0.16288162306459958
293,0.19075077631733595
294,0.20894644189143732
295,0.2186085172468965
296,0.22754346843153048
297,0.24086353073285743
298,0.2545566666552403
299,0.25868247683248813
300,0.24710557092462815
301,0.22393311305594155
302,0.1999851855686462
303,0.18262231981953608
304,0.16903813560010358
305,0.149756571634591
306,0.11881740847264978
307,0.0803225462106707
308,0.044646109441857
309,0.018148334621474232
310,-0.003003345170615631
311,-0.02834376150106208
312,-0.062327687434065554
313,-0.09836095896111335
314,-0.1241855847556077
315,-0.1336418614412858
316,-0.13299264234777686
317,-0.13503684338841657
318,-0.146422073991683
319,-0.16070164414097166
320,-0.16435393932111386
321,-0.1502102382318371
322,-0.12518751642510223
323,-0.10457869005655904
324,-0.09828407113339221
325,-0.10229792408734786
326,-0.10358681476490654
327,-0.0933180642898501
328,-0.07529821949284501
329,-0.061465669432472
330,-0.05929664141196658
331,-0.06399410519905524
332,-0.06337364951166286
333,-0.050482611362471466
334,-0.03114317009780416
335,-0.018663511090447307
336,-0.020836882529506252
337,-0.03214202149844045
338,-0.03895971138065528
339,-0.03271053393650834
340,-0.01796352133468962
341,-0.007577063796911771
342,-0.009796946079474685
343,-0.020151016824244798
344,-0.026113251249800705
345,-0.019764184028878595
346,-0.005757552074310265
347,0.003338867072669123
348,-0.0003784991582988996
349,-0.012256814876776875
350,-0.019782812279639614
351,-0.015174233632273168
352,-0.003261318618808365
353,0.003275355225978088
354,-0.00337378692711508
355,-0.018142154080735544
356,-0.02785148496410158
357,-0.02412073257178047
358,-0.01165378770328582
359,-0.0036486404206879717
360,-0.008788435221545836
361,-0.022609277694102703
362,-0.03174156445945517
363,-0.026864604126326692
364,-0.011715588585429856
365,0.0005167910016780509
366,-0.0003193615525745718
367,-0.012206686763136883
368,-0.02375724137171017
369,-0.025600583497221305
370,-0.01883120670992562
371,-0.0125024168703646
372,-0.013470985055664384
373,-0.019405412985008752
374,-0.022014911147999514
375,-0.016687234037332632
376,-0.008070515286216298
377,-0.0055085724712427425
378,-0.013004847968349522
379,-0.024310312387192747
380,-0.02859648914823277
381,-0.021222309367200702
382,-0.008644912452766933
383,-0.002292935577509171
384,-0.00742391728227427
385,-0.018175155798675745
386,-0.02380802911267149
387,-0.019784985926492152
388,-0.012366325473658107
389,-0.011970934332727563
390,-0.02201293751993404
391,-0.034667410497704096
392,-0.0381475992512041
393,-0.028443887855495717
394,-0.013789389551565981
395,-0.007168556822650449
396,-0.014013940588457535
397,-0.02708669964723787
398,-0.03356763566977917
399,-0.027464170663948826
400,-0.01528972962443366
401,-0.009595104347353601
402,-0.016756385222428498
403,-0.030876801271025364
404,-0.03954457528142456
405,-0.03563990160455953
406,-0.023709297325078503
407,-0.01499389568619248
408,-0.01634666056185409
409,-0.02403020146785738
410,-0.02826642470791011
411,-0.02365799681732702
412,-0.014886768905856614
413,-0.011966919795581286
414,-0.019847239119604294
415,-0.03284826299747695
416,-0.03965246491717088
417,-0.03408212072895605
418,-0.02109788037681394
419,-0.01209201338218497
420,-0.014055223138193199
421,-0.023179472912464305
422,-0.029022474594882608
423,-0.024939187728101678
424,-0.014428759589356535
425,-0.007302500969933141
426,-0.009790438254286358
427,-0.01861036740284651
428,-0.024781789262896127
429,-0.022997564450494442
430,-0.016830029414537873
431,-0.014515646186314141
432,-0.0198720289156152
433,-0.027942292979929985
434,-0.030038160693762386
435,-0.023029287239509227
436,-0.01315534875528817
437,-0.010132644932954838
438,-0.017341265896840947
439,-0.028119343734146936
440,-0.032168295055391954
441,-0.02579704331409323
442,-0.015672575025019893
443,-0.012161238727095987
444,-0.01885509847425628
445,-0.028848188591694232
446,-0.031641838455893495
447,-0.023860544111862413
448,-0.013009065704225291
449,-0.010343244649545412
450,-0.019783510439294587
451,-0.033827483328949505
452,-0.04056713547573879
453,-0.03496911042445783
454,-0.023394706277285866
455,-0.017036908876430577
456,-0.020862424152388162
457,-0.028972698386579503
458,-0.030835829409124833
459,-0.02206960383072985
460,-0.009037231572530807
461,-0.0027375129933748313
462,-0.008076852603749343
463,-0.019108406960510006
464,-0.02485784550058872
465,-0.019927039506157398
466,-0.009481448797991756
467,-0.0038970165324712512
468,-0.008530863237746301
469,-0.01871113022211341
470,-0.024678500525738018
471,-0.02133497989071576
472,-0.01307774038485918
473,-0.009108184395277996
474,-0.014138401475016472
475,-0.02383809923595992
476,-0.02940444940097818
477,-0.02643406450529918
478,-0.01910137949216778
479,-0.015576864666512053
480,-0.01954665004099622
481,-0.026557470962080006
482,-0.028864526457021627
483,-0.023700649735827833
484,-0.016357539382023
485,-0.014784430663672483
486,-0.02117392782558663
487,-0.02926007588346318
488,-0.030371213910804024
489,-0.02231565515673736
490,-0.01204555258717123
491,-0.009098006425572739
492,-0.016124200150304874
493,-0.02600446760774521
494,-0.028703531999076135
495,-0.021292024525894612
496,-0.011161023983997747
497,-0.008970155859205506
498,-0.018025494025883312
499,-0.03053321765343807
500,-0.03465211063383743
501,-0.025738060769875754
502,-0.010961170078168391
503,-0.002789213887488216
504,-0.0075605996310759965
505,-0.020049928942032787
506,-0.0290257831485145
507,-0.02814575403734739
508,-0.02155598643759469
509,-0.01901661035052213
510,-0.025738566222376948
511,-0.03714723757691868
512,-0.04365087209247598
513,-0.04044264808959569
514,-0.03242066099747065
515,-0.029280697337507967
516,-0.03567116312549086
517,-0.0462025010413431
518,-0.05027980756843204
519,-0.04205333566687876
520,-0.025834135639058755
521,-0.011882946474900248
522,-0.006899978315450235
523,-0.008495275193407942
524,-0.008670676402983198
525,-0.00233094682600782
526,0.007899504045975102
527,0.015160383324626311
528,0.016114978860066437
529,0.014632728217608634
530,0.01739432731872049
531,0.02598832725915031
532,0.034034464437776316
533,0.03297831015599402
534,0.02119511893689708
535,0.007062542689800604
536,0.0021009239905108
537,0.010117820270292212
538,0.02280699105605251
539,0.026596050129518097
540,0.014820616081948962
541,-0.006105132855849488
542,-0.02243227231851804
543,-0.02537780509173872
544,-0.01837676188642215
545,-0.012625234961544433
546,-0.015641057971895862
547,-0.024228741219330996
548,-0.028595325347564884
549,-0.02308647474356213
550,-0.012441564764079744
551,-0.007225175813443788
552,-0.013284967771391081
553,-0.026195710273493426
554,-0.03636244691079215
555,-0.039280830280829085
556,-0.04010961267807714
557,-0.047847185842683757
558,-0.0655234536456468
559,-0.08702500922491295
560,-0.10389796990408376
561,-0.11456071070756559
562,-0.12574776968116205
563,-0.14468061096297727
564,-0.17090676998247675
565,-0.19722949833471584
566,-0.21885600004150166
567,-0.2402829653626516
568,-0.2716457946321894
569,-0.31822496654966415
570,-0.37491487473813595
571,-0.4317735536290972
572,-0.4830896072434725
573,-0.526798905052619
574,-0.5517153491200513
575,-0.5263840864915833
576,-0.406354393211938
577,-0.16015478415332096
578,0.2059714141296611
579,0.6461028120497094
580,1.095915172717839
581,1.4950898536844044
582,1.7898886656849333
583,1.9207700397434389
584,1.8229942770975454
585,1.4599835688249572
586,0.8724927605498376
587,0.19721902874061542
588,-0.3789077373937452
589,-0.7115724500018565
590,-0.7762995650593844
591,-0.6713085064202673
592,-0.5423155239949455
593,-0.4860820814599234
594,-0.503357704379912
595,-0.5281600518619514
596,-0.49856193423943973
597,-0.40717960172953627
598,-0.2961803908490243
599,-0.21286674337149014
600,-0.1711417502279885
601,-0.15004637316591707
602,-0.12242784256765554
603,-0.08191974866238379
604,-0.04429419592453764
605,-0.027053337306228727
606,-0.03040021886523785
607,-0.03752513843269119
608,-0.031329349941451465
609,-0.009815848527001758
610,0.0139659359521156
611,0.025511658335038195
612,0.022042233090936107
613,0.013500514650269602
614,0.011998004463140501
615,0.020554348062446038
616,0.031293193781675915
617,0.0336998879369166
618,0.024546910303426945
619,0.010433103336739911
620,0.0012769153006576752
621,0.0013380611037767012
622,0.006097044589205477
623,0.007462352155206571
624,0.0019639284801931216
625,-0.005981202219707703
626,-0.008734661811917156
627,-0.0033388613226744916
628,0.005204629617247012
629,0.008671689778831721
630,0.0038475554561395054
631,-0.003942506848950278
632,-0.00584271770669838
633,0.001550509014624718
634,0.012060585119777482
635,0.015142388608095018
636,0.00586875288619918
637,-0.009857613666126017
638,-0.020206377318694447
639,-0.01814051128406506
640,-0.007878125478490148
641,-0.0008786357720928237
642,-0.005103873840210272
643,-0.017768242208123074
644,-0.028403174814290243
645,-0.029059250780197814
646,-0.02161509812580025
647,-0.015175713691634798
648,-0.016432650037051036
649,-0.022814153385409867
650,-0.025356422859022974
651,-0.01835986017366261
652,-0.005941125550468137
653,0.0014063789137087187
654,-0.0029240931815205837
655,-0.014787357997326854
656,-0.022907017705684717
657,-0.019705711322829132
658,-0.008762697444121652
659,-0.0014585846792522096
660,-0.005981259368536987
661,-0.019450555445552763
662,-0.030876863971575977
663,-0.031950818703253656
664,-0.024919510950630337
665,-0.019775193281825677
666,-0.023724081902079277
667,-0.03366344314476587
668,-0.039359347788502155
669,-0.0341922097224979
670,-0.022581043030715182
671,-0.016367999857621225
672,-0.023460443272213104
673,-0.03988587376359824
674,-0.05319641005546029
675,-0.053994962726104906
676,-0.04434867207629961
677,-0.03498252239404049
678,-0.03427132324192872
679,-0.040062093294199484
680,-0.04231409015886476
681,-0.033599896906879034
682,-0.016703243603362124
683,-0.0016731474273788912
684,0.004520854297876102
685,0.005102674057767525
686,0.010109797620017544
687,0.025990390120639206
688,0.048814193512905946
689,0.06805645750017578
690,0.0771551410502443
691,0.08015449533265803
692,0.08773066639709738
693,0.10667112156620659
694,0.13346685101968275
695,0.158378633938011
696,0.1755796192112289
697,0.18878001918104884
698,0.20646745709958003
699,0.23171426083497884
700,0.257287510063029
701,0.2715137159475794
702,0.2692864824075128
703,0.2570655360811853
704,0.24650425992974412
705,0.24276143237481748
706,0.2390797051143303
707,0.22316521780052767
708,0.1892409347501199
709,0.14402213410624298
710,0.10088788909297558
711,0.06813343694390833
712,0.04278679279270621
713,0.015610967685186276
714,-0.01832110260090043
715,-0.054345519883210264
716,-0.08325511664099856
717,-0.10097818637858501
718,-0.11258206183714731
719,-0.1264098326784884
720,-0.14456467564402503
721,-0.1598732639974073
722,-0.16282824600825346
723,-0.15162621337034524
724,-0.13497360187249946
725,-0.12446741719171502
726,-0.12391375966410743
727,-0.12620233898215855
728,-0.12090899408967004
729,-0.10506420953122839
730,-0.0863021016793292
731,-0.0752011476936244
732,-0.07449489919591223
733,-0.07608305424237352
734,-0.06907562877245807
735,-0.05104444392998893
736,-0.031240926270361326
737,-0.022263806781393378
738,-0.02800728329973137
739,-0.03953934658247042
740,-0.04304030289928128
741,-0.03235285275216769
742,-0.014299864823260042
743,-0.0019301315236881073
744,-0.002386653401181195
745,-0.010975383743303941
746,-0.016677300035321155
747,-0.013186419304599371
748,-0.004516200193816462
749,-2.6522954100677114e-05
750,-0.004371550121423287
751,-0.01271516801770522
752,-0.015931778930596344
753,-0.010252993004889736
754,-0.0013375631762975967
755,0.001482469546797116
756,-0.005091403391007308
757,-0.014678401811921489
758,-0.017540825323882483
759,-0.010569645191349484
760,-0.00071054319400263
761,0.0018952884581684036
762,-0.0056868152651332205
763,-0.015815227515715805
764,-0.017643872160746386
765,-0.008111314200151574
766,0.004481629974330604
767,0.008192486330858586
768,-0.0009012530462998907
769,-0.014598124439611254
770,-0.020277310608966776
771,-0.013055419857173449
772,-0.0005431664537221977
773,0.004500185180799963
774,-0.003511444176614065
775,-0.017683745469983553
776,-0.025439858969060678
777,-0.020648842617868216
778,-0.009175539280840733
779,-0.0025678822274921593
780,-0.006378646440016546
781,-0.01486608048874518
782,-0.017341723838342066
783,-0.009688105130818827
784,0.0007297648697973044
785,0.0020325018813431308
786,-0.009987212795635766
787,-0.026632468408683864
788,-0.03366560748705816
789,-0.024586631223994567
790,-0.007109533121126671
791,0.0035876598186833863
792,-0.0013723614155522782
793,-0.016741356643462383
794,-0.028517679684841247
795,-0.027163589451012844
796,-0.016000780848972135
797,-0.007064853519026204
798,-0.008927612299060115
799,-0.018549358708167017
800,-0.024905203293747263
801,-0.020418781665808853
802,-0.00871298907450792
803,-0.0010883723247896025
804,-0.005381244956762777
805,-0.018264803572675632
806,-0.028469754306367123
807,-0.02758511350630688
808,-0.01780751661612355
809,-0.009272203858910673
810,-0.009936893214188475
811,-0.018098574263299385
812,-0.024665885324992486
813,-0.022520287110697562
814,-0.013496650968453604
815,-0.0062528120191155875
816,-0.007532500719219796
817,-0.01571718079639687
818,-0.022906805635509245
819,-0.02303207191856814
820,-0.01759492322535352
821,-0.013375100971703528
822,-0.014814208810087976
823,-0.019180313455852287
824,-0.019588018441626845
825,-0.012697546052552921
826,-0.00294896457107819
827,0.0013478452919153537
828,-0.003674019408087392
829,-0.013225129136495317
830,-0.01833175665560017
831,-0.014771316355714272
832,-0.007460332765706919
833,-0.005579252450998961
834,-0.01303176181301653
835,-0.023836225741268664
836,-0.027458291453874448
837,-0.01920617667526029
838,-0.005441462240640007
839,0.0018858994653420732
840,-0.0035833142176246585
841,-0.016525624335681707
842,-0.024972609389844556
843,-0.021658153106322423
844,-0.01061083106976791
845,-0.00261914481925948
846,-0.004271395235328796
847,-0.01166922690813228
848,-0.015127795036821979
849,-0.009927423851934278
850,-0.0018602707562142397
851,-0.0015017873201821476
852,-0.01277078615586661
853,-0.027603670580102636
854,-0.032807375931402594
855,-0.02286075990587877
856,-0.005979378588522055
857,0.0030359623380054844
858,-0.003360740285515443
859,-0.018334444626869367
860,-0.02732044612348671
861,-0.02203860327448813
862,-0.008189368965384337
863,0.0005947972838077968
864,-0.0036427366670152336
865,-0.015605978316614994
866,-0.022601255116375972
867,-0.01768337935182968
868,-0.0066849177191361745
869,-0.002024091556860212
870,-0.009664870244736532
871,-0.022605463987014365
872,-0.027684590120402787
873,-0.01894897656824284
874,-0.004027289407111188
875,0.0031448125375740273
876,-0.0038325307713127114
877,-0.017254018566226166
878,-0.02276067471817353
879,-0.013609085814704084
880,0.0023470612343341572
881,0.00999460611609081
882,0.0015639521282054389
883,-0.015738832067528685
884,-0.026519170358629593
885,-0.021809164462105943
886,-0.0073976057300493055
887,0.0020010929628765176
888,-0.003112128379259378
889,-0.018221163685062124
890,-0.029494359370245693
891,-0.027024756388204056
892,-0.013755711505489349
893,-0.0019312707256586765
894,-0.0011685011500598083
895,-0.00997432602607846
896,-0.018512499414919288
897,-0.01911657692314596
898,-0.013743727199587667
899,-0.01118085898158954
900,-0.01732882857815984
901,-0.028686119639064728
902,-0.035659045190835126
903,-0.03228559753223369
904,-0.022483643543675214
905,-0.016406168282704334
906,-0.020366045237534935
907,-0.030261811096373162
908,-0.03511001454470457
909,-0.027439748836738977
910,-0.010575948298412595
911,0.004208020721488983
912,0.00795038186459553
913,0.0019049926566952777
914,-0.004251719414114507
915,-0.0018288779792956387
916,0.009105526112770141
917,0.02083807793486513
918,0.026285934841861
919,0.025787331847457524
920,0.02571854656399421
921,0.03089513985596956
922,0.03908440195966752
923,0.04348912180892299
924,0.04039023348596872
925,0.033447540925105476
926,0.029643485747050675
927,0.03102407991146211
928,0.03144594286474085
929,0.02266032158428339
930,0.003942348005635313
931,-0.015138723200152918
932,-0.022791931352815948
933,-0.01652932163745402
934,-0.006342094638217078
935,-0.005561818288522232
936,-0.01802281097792354
937,-0.03443208462381124
938,-0.04188768571978861
939,-0.03710097092764225
940,-0.029928945767957515
941,-0.03366604004205452
942,-0.052113784978529046
943,-0.07658704156244578
944,-0.0954546680317831
945,-0.1057727603753627
946,-0.11485837723310356
947,-0.13086096672706568
948,-0.15321196573610768
949,-0.17350172738650577
950,-0.18552915713705995
951,-0.19323040033612937
952,-0.20792353014638748
953,-0.2383462630223818
954,-0.2844535488950072
955,-0.3404700722511632
956,-0.4009700622696875
957,-0.459910224938101
958,-0.5016085671298549
959,-0.49432400257460996
960,-0.39729464299886486
961,-0.17959204836167825
962,0.16241150613037963
963,0.5997972150070643
964,1.0758840897057502
965,1.5115343936998742
966,1.8097117521757067
967,1.8715253990955572
968,1.6342493456624188
969,1.1188554773299244
970,0.4508692658813806
971,-0.17697805198778221
972,-0.5926491015061378
973,-0.7312615584039865
974,-0.6597693298745122
975,-0.5206101876957369
976,-0.43496258746134453
977,-0.43520688353316683
978,-0.4698952991486971
979,-0.4661481577622365
980,-0.39335257679699215
981,-0.27998805582927855
982,-0.18022021959577586
983,-0.12712924613826432
984,-0.11288823324769573
985,-0.106147032826469
986,-0.08414259373654706
987,-0.04949747731253593
988,-0.020901186976645905
989,-0.011464863019278527
990,-0.016470260805894674
991,-0.01982679283058896
992,-0.010261521855417326
993,0.008995493545448189
994,0.025018848150162937
995,0.028337372841001882
996,0.02147410435712846
997,0.015500601028449247
998,0.018859789819245604
999,0.029466862514026106
1000,0.03731200389927246
1001,0.03456692856143052
1002,0.023230974801751243
1003,0.01301056213776472
1004,0.011693885514694788
1005,0.01755413311818819
1006,0.02126561293610188
1007,0.01541032099314555
1008,0.0021013801479184513
1009,-0.008911495375342493
1010,-0.00977743077389466
1011,-0.0021425972881136705
1012,0.004827420232983428
1013,0.0039131083351073796
1014,-0.0029419105929760357
1015,-0.007082498784335922
1016,-0.0026773619796243947
1017,0.006670844605928204
1018,0.0113367201536771
1019,0.00580913347578859
1020,-0.004929384309727562
1021,-0.009705228136724035
1022,-0.0022092848506202337
1023,0.012222543289931005
1024,0.021120606150721116
1025,0.01649025801328647
1026,0.0021929032830434745
1027,-0.010066080677555576
1028,-0.012024256661700221
1029,-0.0062169965990843574
1030,-0.0023470485861444594
1031,-0.006726625664247836
1032,-0.01569795932507386
1033,-0.01969552110951139
1034,-0.013660201164469483
1035,-0.0029695830572591727
1036,0.0014543255336266234
1037,-0.005835807047792678
1038,-0.018798861090826464
1039,-0.025277716474989734
1040,-0.018804330447441956
1041,-0.005250667670089834
1042,0.002452173689379818
1043,-0.0033616657642701296
1044,-0.017657053134159623
1045,-0.027462135261098544
1046,-0.024285069403359644
1047,-0.01215191218509511
1048,-0.0035012112426027796
1049,-0.007025370163432627
1050,-0.019361538079318986
1051,-0.02865171499606592
1052,-0.0263070540553344
1053,-0.015350092809712362
1054,-0.007248051753156027
1055,-0.010560521078700265
1056,-0.022665748719041073
1057,-0.03254949361169434
1058,-0.03159215926966293
1059,-0.021542876594965135
1060,-0.011998784383774167
1061,-0.010339620709174002
1062,-0.01444387727150235
1063,-0.015372393350143513
1064,-0.006958658052956677
1065,0.007652703375879624
1066,0.01916064381370256
1067,0.021620502613924474
1068,0.018551715012696587
1069,0.01945268360037111
1070,0.03034931818674791
1071,0.048023711984992466
1072,0.06372017542898999
1073,0.07240817186065363
1074,0.07803136977099152
1075,0.08933375164209306
1076,0.11056551891419954
1077,0.13670690826847215
1078,0.15830248484180495
1079,0.1711192798415154
1080,0.18067400124452215
1081,0.19661681636565448
1082,0.22221353746654643
1083,0.2494388449568073
1084,0.2650000935000389
1085,0.261892987254155
1086,0.2454375071344828
1087,0.2278931677833601
1088,0.21679399361124307
1089,0.20825589109898818
1090,0.191635133119317
1091,0.16080379780479603
1092,0.1208779084604154
1093,0.08380899624274127
1094,0.0572852957038619
1095,0.03796139026446352
1096,0.01566321355026399
1097,-0.015718268374976786
1098,-0.05153857113485169
1099,-0.08054327538993346
1100,-0.09562669960270886
1101,-0.10041988658541207
1102,-0.10517703388418924
1103,-0.11621076773036274
1104,-0.12959452163045007
1105,-0.13549742215944494
1106,-0.12872476965647273
1107,-0.11469551258611098
1108,-0.10464013738527612
1109,-0.10471630191938458
1110,-0.11000889247311685
1111,-0.1095975785938767
1112,-0.09775145727263665
1113,-0.08002783731422078
1114,-0.06802672538840224
1115,-0.06790204088655419
1116,-0.07408802392274588
1117,-0.07460906840283824
1118,-0.06281107265983314
1119,-0.04390360274447732
1120,-0.029827884942291136
1121,-0.027575127465806044
1122,-0.032570952717147265
1123,-0.03362844681603503
1124,-0.02439875285278175
1125,-0.009808823465612612
1126,-0.0010800629896449002
1127,-0.0043853639666042755
1128,-0.0145201448473521
1129,-0.019872889769283014
1130,-0.013687999427298994
1131,-0.0004494076725127626
1132,0.008770946310985718
1133,0.007150788267384928
1134,-0.0016527216786767157
1135,-0.0077884945740857815
1136,-0.005343585596087725
1137,0.0019510454775418318
1138,0.004935883909064597
1139,-0.001422087591066295
1140,-0.012885365149438648
1141,-0.02023245806293547
1142,-0.018400706132353152
1143,-0.011189415616719978
1144,-0.006952581345228713
1145,-0.009884792432342013
1146,-0.01582782020531957
1147,-0.016784564022472945
1148,-0.009462983086190063
1149,0.0008698331031354411
1150,0.005199541934851215
1151,-0.00047169634325711757
1152,-0.011083258673783836
1153,-0.017222211565490593
1154,-0.014009262232931825
1155,-0.0055311547683126235
1156,-0.0005891565322303535
1157,-0.004017576361297175
1158,-0.012073690901008521
1159,-0.016318775520813338
1160,-0.012062981328874105
1161,-0.003021738153467478
1162,0.0023724902939236316
1163,-0.0006925638178719125
1164,-0.008702320722969595
1165,-0.013413569578759985
1166,-0.01017490642732765
1167,-0.002641728803200574
1168,0.0009109992389730239
1169,-0.003921550029143645
1170,-0.012918593353021986
1171,-0.017189893030001287
1172,-0.012135072880103358
1173,-0.0024928312470680744
1174,0.0018122354040030174
1175,-0.0047543187454871785
1176,-0.017681372764310824
1177,-0.02639837999750602
1178,-0.024204065850161494
1179,-0.01450715231101236
1180,-0.007287598235904383
1181,-0.009296898358881686
1182,-0.017672059223365698
1183,-0.023178608578579046
1184,-0.019665952266414696
1185,-0.010170752584716279
1186,-0.0036096073456383247
1187,-0.005586940742114841
1188,-0.012781490401614474
1189,-0.01664373274235468
1190,-0.012554567531772254
1191,-0.00495073144783106
1192,-0.003008599638916278
1193,-0.01116358988614842
1194,-0.024148085956520692
1195,-0.03178323543693597
1196,-0.028895755533108528
1197,-0.02043208852931597
1198,-0.01653216482756819
1199,-0.022351454511442045
1200,-0.03273467430000658
1201,-0.037095756620958945
1202,-0.029764791232165674
1203,-0.015661956309648714
1204,-0.005781493577145765
1205,-0.006973279229217186
1206,-0.01597814811011876
1207,-0.02329198047443925
1208,-0.022685436285998332
1209,-0.01680033442828753
1210,-0.013445554064090037
1211,-0.01669092703564017
1212,-0.02208765997469953
1213,-0.02111446332375235
1214,-0.01050642895523876
1215,0.003069480171788738
1216,0.008192750764526786
1217,-0.0007844326379588596
1218,-0.017901498890346045
1219,-0.030295847937452946
1220,-0.029329246060970253
1221,-0.01787450589904034
1222,-0.007135536613145218
1223,-0.006252350320609406
1224,-0.014542136242054646
1225,-0.023312538195123265
1226,-0.0248170620693889
1227,-0.019324807814987147
1228,-0.013714777211832369
1229,-0.013720819022251975
1230,-0.018106572599202373
1231,-0.02061826669826871
1232,-0.017294644177370252
1233,-0.011181663753930406
1234,-0.009331250085453583
1235,-0.015147305200858104
1236,-0.024168895158603695
1237,-0.02798654703253915
1238,-0.02258539027203928
1239,-0.012639568934015799
1240,-0.007165808214988483
1241,-0.010675583009060154
1242,-0.018683201541536486
1243,-0.02221390312794927
1244,-0.01691988363796091
1245,-0.007647099397599631
1246,-0.00372182307291193
1247,-0.0095356515979458
1248,-0.019883180161971672
1249,-0.024936497356792073
1250,-0.020127158324320812
1251,-0.01110333852741124
1252,-0.00855979150780822
1253,-0.017712401065371947
1254,-0.03270198731605421
1255,-0.041674120098982005
1256,-0.03793043370637121
1257,-0.026445697049844712
1258,-0.019293993045120653
1259,-0.024189506870360908
1260,-0.037129320750461436
1261,-0.046317775411198615
1262,-0.04366373561561851
1263,-0.03268416806127354
1264,-0.024981963390610137
1265,-0.02855410674269598
1266,-0.0393248518751287
1267,-0.044429881512849545
1268,-0.03444715222363975
1269,-0.01288772118170967
1270,0.006407871042382599
1271,0.0117997838211281
1272,0.004495429941079996
1273,-0.0028288640774092365
1274,0.001912508791506519
1275,0.019015202974203678
1276,0.037186830524703104
1277,0.04453286140614075
1278,0.03939310377752517
1279,0.030697832611728124
1280,0.02820030060269143
1281,0.032871198777425656
1282,0.03701403440366304
1283,0.03329949127946229
1284,0.02273463354812354
1285,0.013051744576434344
1286,0.00947103992811477
1287,0.008172849739339311
1288,0.0001107664048346042
1289,-0.018368960374910624
1290,-0.0395086831037446
1291,-0.050021487450388244
1292,-0.043838520931474445
1293,-0.028866341894323657
1294,-0.020217055733837717
1295,-0.025992040598943576
1296,-0.03974268425284701
1297,-0.04747818459140919
1298,-0.04239491198858078
1299,-0.03234096489041563
1300,-0.03218005163591004
1301,-0.048747654927028705
1302,-0.07398953938363764
1303,-0.0935612141253454
1304,-0.10192732931495863
1305,-0.10787672577071356
1306,-0.12434746358282713
1307,-0.15343295967215886
1308,-0.18322959837562197
1309,-0.20085570134556008
1310,-0.2080790196178246
1311,-0.22202884711980964
1312,-0.2588285989457523
1313,-0.31694029873853746
1314,-0.37855345177575206
1315,-0.4281949575463909
1316,-0.46759611243643484
1317,-0.5075692565464207
1318,-0.5419252250788646
1319,-0.5307732662786195
1320,-0.41570041740183544
1321,-0.15924450220667008
1322,0.22458759934836267
1323,0.675545180399564
1324,1.1208200412204266
1325,1.5027812137756913
1326,1.7757006040761714
1327,1.884185706312337
1328,1.762016000153865
1329,1.3728383815080694
1330,0.7663890354170355
1331,0.09369582825680156
1332,-0.45165278842658596
1333,-0.7365984608197637
1334,-0.7614077211429786
1335,-0.6447540646176473
1336,-0.5321697661783422
1337,-0.4995738122685247
1338,-0.5233379138735021
1339,-0.5292534717348201
1340,-0.46873435768692806
1341,-0.35657229349939373
1342,-0.24718136729480333
1343,-0.18188463235025087
1344,-0.1584385246936756
1345,-0.14487918002434688
1346,-0.11622469684909298
1347,-0.07602046964454642
1348,-0.04579762963754179
1349,-0.03865408747102575
1350,-0.045526582869013565
1351,-0.045905784023510816
1352,-0.0291460582646414
1353,-0.003923610117227454
1354,0.012256067271917677
1355,0.011139889022032784
1356,0.0009693169350485833
1357,-0.0030872883333595462
1358,0.005595884615793443
1359,0.019265965422391583
1360,0.024394816572355614
1361,0.015257466950073816
1362,-0.0008953823474840547
1363,-0.011320320206675514
1364,-0.009830962298027653
1365,-0.0016866494445103002
1366,0.00267844228917929
1367,-0.0018034930685147193
1368,-0.010448124649768823
1369,-0.014376303238068591
1370,-0.009942183824255938
1371,-0.002485093173837589
1372,-0.0008135466204422873
1373,-0.008112939293492119
1374,-0.01845331422020053
1375,-0.022454490216878287
1376,-0.01654513972633499
1377,-0.006620141682203878
1378,-0.00236997796289566
1379,-0.007790832739785571
1380,-0.017275838368507802
1381,-0.021282409138941874
1382,-0.01606816964153084
1383,-0.007774768846603495
1384,-0.006545888170918465
1385,-0.016250721572727132
1386,-0.029998594292734874
1387,-0.0362127351779378
1388,-0.029677033683345684
1389,-0.01683225985437408
1390,-0.009927579366045578
1391,-0.01543882475176186
1392,-0.027907273527756585
1393,-0.03525602030372954
1394,-0.030513356935901632
1395,-0.0185634671883434
1396,-0.011330226374405953
1397,-0.016100070445962476
1398,-0.02843718645639235
1399,-0.03664249043904742
1400,-0.03332663310095698
1401,-0.022631373737449736
1402,-0.01595325549448218
1403,-0.020466468634255608
1404,-0.03193934406418954
1405,-0.03906569788722992
1406,-0.03498839973314739
1407,-0.024414824789329954
1408,-0.019077174893516173
1409,-0.02599605938353173
1410,-0.04032623386511152
1411,-0.050049931665400185
1412,-0.04787464207890711
1413,-0.03837195651114078
1414,-0.03313031145143526
1415,-0.038808214515149014
1416,-0.0502295205552708
1417,-0.05562132532896033
1418,-0.04874872053298197
1419,-0.03556147279517319
1420,-0.028399565661102036
1421,-0.03344312596653272
1422,-0.0441330045655359
1423,-0.04744927515840612
1424,-0.03696518722408218
1425,-0.019587279991928098
1426,-0.009053208474109412
1427,-0.01250498398469559
1428,-0.023461017365992827
1429,-0.02816318268740445
1430,-0.018916264557934933
1431,-0.0011064663970362645
1432,0.012951457754532287
1433,0.016889199053110426
1434,0.01673944532850682
1435,0.02446857659620614
1436,0.04528606653817235
1437,0.07179388790493846
1438,0.09111751550359484
1439,0.09795587294825178
1440,0.10036007470139502
1441,0.11222031277071229
1442,0.13972540276093712
1443,0.17513042932223838
1444,0.2039445893150536
1445,0.21836471004887203
1446,0.22368864029135674
1447,0.23155548686483318
1448,0.24700814263215473
1449,0.26243778564400233
1450,0.2644864165463027
1451,0.2470012524227437
1452,0.21710967870519898
1453,0.18836495808018952
1454,0.16779076345485514
1455,0.14969908005364435
1456,0.12238272589980512
1457,0.08094504328445337
1458,0.03339084672170971
1459,-0.006226891533134269
1460,-0.030921247459528355
1461,-0.04713466198751617
1462,-0.06789632382783148
1463,-0.099358250111662
1464,-0.13395654832615278
1465,-0.15708423314446868
1466,-0.16094133969040952
1467,-0.15211106245741768
1468,-0.14543451788496073
1469,-0.15007282395311458
1470,-0.1612319744072096
1471,-0.1654629305738049
1472,-0.15421473463739
1473,-0.13238690701577366
1474,-0.1137030303592928
1475,-0.107691570425577
1476,-0.11110893916776955
1477,-0.11196546257365181
1478,-0.10175742846012024
1479,-0.08360788284396906
1480,-0.06848092711995764
1481,-0.06374262938347089
1482,-0.06585535187241652
1483,-0.06449023565548552
1484,-0.0535950260966592
1485,-0.03794136668624545
1486,-0.02842517862299856
1487,-0.030943660473899737
1488,-0.04023120066604115
1489,-0.044977808492048306
1490,-0.03908403741886864
1491,-0.02768696813665495
1492,-0.021888858971475536
1493,-0.027522111365264827
1494,-0.03925590574175063
1495,-0.045917779049128346
1496,-0.04160929419355549
1497,-0.0314199391706053
1498,-0.02603422516829278
1499,-0.030699944138820524
1500,-0.039673559773042474
1501,-0.04177692669593017
1502,-0.03160949277656815
1503,-0.015303913548856168
1504,-0.005066105582978563
1505,-0.0077670436681417585
1506,-0.01867808106324771
1507,-0.026383837575944584
1508,-0.02398708318489281
1509,-0.01563990755687484
1510,-0.012085745484427006
1511,-0.019673012705818997
1512,-0.03367255233182771
1513,-0.042510107684885876
1514,-0.03884880853916314
1515,-0.026727014848872115
1516,-0.01773507138610414
1517,-0.019859090841568536
1518,-0.029799484077198665
1519,-0.036274671921777885
1520,-0.031179146040282477
1521,-0.01778344109933105
1522,-0.007946377521197031
1523,-0.010932356008824484
1524,-0.02459770625725012
1525,-0.03745168214374443
1526,-0.03956080187008227
1527,-0.031711092206578376
1528,-0.024032598832001206
1529,-0.025656549105614834
1530,-0.035709383913534024
1531,-0.044457721253523555
1532,-0.04324359510591372
1533,-0.03314895676243331
1534,-0.023758385224183134
1535,-0.023438387172062758
1536,-0.03106361282126423
1537,-0.03752681549469457
1538,-0.035346427230765656
1539,-0.026455607422772292
1540,-0.02019495951190964
1541,-0.023624458668082222
1542,-0.03416256584127046
1543,-0.04214379467647914
1544,-0.040643583659204494
1545,-0.03240706346118366
1546,-0.02672030018236942
1547,-0.029518260489485866
1548,-0.03711260894273774
1549,-0.040211634672153544
1550,-0.03412803908777514
1551,-0.024399632945656446
1552,-0.021578542825111575
1553,-0.03021157736959356
1554,-0.043414281639107155
1555,-0.049090639673880145
1556,-0.04195783644596231
1557,-0.029245901789792556
1558,-0.0239625591285416
1559,-0.03212387587748576
1560,-0.046688839626285075
1561,-0.054446076349016964
1562,-0.04911020433467048
1563,-0.03749290472605221
1564,-0.032447238229200495
1565,-0.03961088432861071
1566,-0.051360624289020856
1567,-0.05426055286254805
1568,-0.04269468209435489
1569,-0.024998903776037376
1570,-0.015762790053924797
1571,-0.021768512653852434
1572,-0.0354550541803348
1573,-0.04238471589433177
1574,-0.035339145584369416
1575,-0.021183626098542525
1576,-0.013895134762942987
1577,-0.02081320508797194
1578,-0.03565553599940635
1579,-0.044898102135143655
1580,-0.04090090245573745
1581,-0.028821860347138666
1582,-0.020907573754067932
1583,-0.024309062051562535
1584,-0.03459318269657183
1585,-0.040957798363389995
1586,-0.03738290556446931
1587,-0.028395077021550284
1588,-0.023995776661942487
1589,-0.029304845532208412
1590,-0.03949217685659491
1591,-0.04488160642062308
1592,-0.04077847750902189
1593,-0.03203854062356926
1594,-0.027961093550814546
1595,-0.032879658430954396
1596,-0.041964547466245714
1597,-0.04628975371876433
1598,-0.04185965049301349
1599,-0.0334618388039757
1600,-0.029598782681755476
1601,-0.033778050169639036
1602,-0.04101310174352042
1603,-0.043011787999250754
1604,-0.036713271203218115
1605,-0.027478372428646914
1606,-0.023693975823523988
1607,-0.02829080724575234
1608,-0.0358463666412144
1609,-0.038291196842184363
1610,-0.03342100597966549
1611,-0.027396075031119117
1612,-0.02839616492127391
1613,-0.03768998433069125
1614,-0.04734784593167457
1615,-0.04742336762765187
1616,-0.03585501966056051
1617,-0.021218535999008362
1618,-0.01519701724866032
1619,-0.021770429163004593
1620,-0.033590708683688734
1621,-0.039164433663875196
1622,-0.03391240677907033
1623,-0.024338789357978848
1624,-0.02130605490603834
1625,-0.029141883088259345
1626,-0.041371104518241164
1627,-0.047225805277763835
1628,-0.04235259774137605
1629,-0.03300417778828241
1630,-0.029572181535421987
1631,-0.036001951572835186
1632,-0.04574725752583958
1633,-0.04837417623023455
1634,-0.040263700856604606
1635,-0.02872248371560076
1636,-0.0252940195510319
1637,-0.034715349375007906
1638,-0.05025459475048746
1639,-0.059913623140859934
1640,-0.05743859662956395
1641,-0.04758316668560145
1642,-0.0408617430091681
1643,-0.04323732036487496
1644,-0.05079986480256581
1645,-0.054234696822791056
1646,-0.048214913875975596
1647,-0.03633107992637377
1648,-0.026990377966688267
1649,-0.024794908114639858
1650,-0.026178241859012435
1651,-0.023508726802866548
1652,-0.013264068709780957
1653,9.942315511986656e-05
1654,0.008468708512472528
1655,0.008160622428014526
1656,0.003585595704687158
1657,0.0028035692358248585
1658,0.009465768910822356
1659,0.01925013078698035
1660,0.024317173931282732
1661,0.021162122576973537
1662,0.013779934487289251
1663,0.008880730152126346
1664,0.00817915724074865
1665,0.0060419038391134015
1666,-0.004566455134191252
1667,-0.02364542719325199
1668,-0.04218839395307151
1669,-0.049545514372995376
1670,-0.043414342180642246
1671,-0.0324759647727911
1672,-0.028554283357857653
1673,-0.03569631541903015
1674,-0.047045571713395996
1675,-0.05278603872801822
1676,-0.05108600368551006
1677,-0.05056238050466941
1678,-0.06132815562934281
1679,-0.08376675181650303
1680,-0.10711092385904203
1681,-0.1200176461950968
1682,-0.12249263678426746
1683,-0.12640694829892943
1684,-0.1434135834375394
1685,-0.1726254523699371
1686,-0.20136112794417338
1687,-0.21881787550380363
1688,-0.22850072537297345
1689,-0.24590073629968623
1690,-0.2833362747324367
1691,-0.3378655915591763
1692,-0.39518254379958606
1693,-0.4447802352391682
1694,-0.4882716377928846
1695,-0.5290693654753841
1696,-0.5522429903574166
1697,-0.5165304750901042
1698,-0.3710642118515262
1699,-0.08600204131570524
1700,0.3269147572997989
1701,0.8170150502506222
1702,1.3110731056528881
1703,1.724974630980877
1704,1.9671122699059063
1705,1.9504029384577002
1706,1.6282004181174283
1707,1.0408426479400963
1708,0.33213321935097684
1709,-0.2968824595832955
1710,-0.6831241654179281
1711,-0.785257997506162
1712,-0.6942299845650088
1713,-0.5606584883188728
1714,-0.4931023700482653
1715,-0.5020070307693902
1716,-0.5237333753380924
1717,-0.49344771759159467
1718,-0.4015847293049785
1719,-0.2920909266522731
1720,-0.21560562415316076
1721,-0.18623696873861584
1722,-0.17862892893091836
1723,-0.1600178129454311
1724,-0.12176108485024587
1725,-0.08169450157271532
1726,-0.06059514932754434
1727,-0.05975296658041207
1728,-0.061350335969498314
1729,-0.04823296336908481
1730,-0.021241602374959083
1731,0.0028142248296852313
1732,0.008821637652357491
1733,-0.0018715597699848125
1734,-0.013662500128252639
1735,-0.012449353978361406
1736,0.0011367539962967989
1737,0.013460549378410503
1738,0.011951844002990025
1739,-0.002562639991456994
1740,-0.01684707304699888
1741,-0.018033405785204334
1742,-0.005733332233799694
1743,0.007804646768181831
1744,0.009266496083417074
1745,-0.0034798004034983392
1746,-0.019779484316369424
1747,-0.026408700525347474
1748,-0.019867144388890458
1749,-0.009325394255001878
1750,-0.007708656419498175
1751,-0.019447454366523217
1752,-0.03635751831534562
1753,-0.045329131821928166
1754,-0.04042587801105482
1755,-0.028028146436464528
1756,-0.020429609278004135
1757,-0.02425275531025451
1758,-0.034750245286180634
1759,-0.04114145436456204
1760,-0.03744512665790709
1761,-0.028160051324486093
1762,-0.02344312517808357
1763,-0.028815758448852223
1764,-0.039689294325049994
1765,-0.04606212565597135
1766,-0.04258843235560235
1767,-0.0339274464312562
1768,-0.030055480183068025
1769,-0.036264633190207854
1770,-0.04786957222403886
1771,-0.054924225190210424
1772,-0.052227109340320994
1773,-0.04458447138487369
1774,-0.04202887315550498
1775,-0.04974830931761245
1776,-0.06279462883684453
1777,-0.0708577369261068
1778,-0.06829183673331642
1779,-0.05932651461329745
1780,-0.053309985170411134
1781,-0.05496813339546987
1782,-0.05972775103207159
1783,-0.05893196821423496
1784,-0.049523554618249775
1785,-0.03799242921135955
1786,-0.03412730699764335
1787,-0.04067899144240397
1788,-0.049608512559932434
1789,-0.04923047416382596
1790,-0.0355003046537169
1791,-0.016165669335600708
1792,-0.003358098356325491
1793,-0.001761809090912061
1794,-0.004114520728940192
1795,0.0013733719912847598
1796,0.01901585589682877
1797,0.041107044426035244
1798,0.0555273334814185
1799,0.058045415274098046
1800,0.05707097978157687
1801,0.06601824551462425
1802,0.09068485384358851
1803,0.12394595746231186
1804,0.152786483774762
1805,0.1705527082991406
1806,0.18235923186012182
1807,0.19860341024842554
1808,0.22337542022639706
1809,0.2494231887146773
1810,0.26457352064475803
1811,0.26304783177268976
1812,0.2503782907254316
1813,0.23717897493790618
1814,0.22817137479401944
1815,0.21750011695163765
1816,0.19500637587175712
1817,0.15717968561546306
1818,0.11183554430593425
1819,0.07173250066481741
1820,0.04323423060359451
1821,0.02103873002068744
1822,-0.005863785451133805
1823,-0.04275341605195819
1824,-0.08335149429186045
1825,-0.11526641848874555
1826,-0.1314580029486226
1827,-0.13662668192344274
1828,-0.14234854239588624
1829,-0.1556899680133585
1830,-0.17236692758400612
1831,-0.18109287319377626
1832,-0.17485501747301269
1833,-0.15808571828161955
1834,-0.14270270321394404
1835,-0.13690860654084142
1836,-0.13776874355817162
1837,-0.1348580878046544
1838,-0.12128986840458425
1839,-0.101064899941636
1840,-0.08531676666958571
1841,-0.0811657095889677
1842,-0.08442879957179841
1843,-0.08369583319856397
1844,-0.07185104144779367
1845,-0.053454133717801236
1846,-0.040368691859302655
1847,-0.039849235348759074
1848,-0.047088577219094374
1849,-0.049938693652231414
1850,-0.04124977471777831
1851,-0.026374426906504857
1852,-0.0180300815432669
1853,-0.02344410939441216
1854,-0.036700700010615324
1855,-0.04420760835299676
1856,-0.03803832061026042
1857,-0.023828493491916035
1858,-0.015209571880966838
1859,-0.020254803836661124
1860,-0.03350403122217642
1861,-0.0415686417472937
1862,-0.03663371532236737
1863,-0.0241986046295833
1864,-0.017248325443686416
1865,-0.0228383835376271
1866,-0.034808517743058216
1867,-0.0401138786311795
1868,-0.03235145264474475
1869,-0.01861328557832724
1870,-0.012479993362790164
1871,-0.020099086418904767
1872,-0.033532927954070084
1873,-0.038424355841804654
1874,-0.028559358802959116
1875,-0.012684531029792945
1876,-0.006401649931586799
1877,-0.016826533009671123
1878,-0.03513992654348129
1879,-0.04462017239472513
1880,-0.03656149075517625
1881,-0.01864347638276259
1882,-0.0076062641625905736
1883,-0.013357028856236873
1884,-0.02988586047287649
1885,-0.04157812147885569
1886,-0.03846749371856448
1887,-0.025475800953482772
1888,-0.01690850978617152
1889,-0.022048464620785847
1890,-0.036186384519467804
1891,-0.04567364253139733
1892,-0.041575585797934814
1893,-0.02822012930872493
1894,-0.018390546984519876
1895,-0.020371106916131785
1896,-0.02999027148324514
1897,-0.03546466594822566
1898,-0.029835606721379356
1899,-0.018255272777001973
1900,-0.012768026333822954
1901,-0.01994993196028967
1902,-0.03395821842820515
1903,-0.04204104272436838
1904,-0.037006139877054076
1905,-0.024191633288567587
1906,-0.016044484536639834
1907,-0.01981735833170444
1908,-0.03067945660329225
1909,-0.03698510522535779
1910,-0.03223888893961774
1911,-0.021695165756033086
1912,-0.017046226666692667
1913,-0.02462149895433275
1914,-0.03892035541535231
1915,-0.04784377010625556
1916,-0.044302186815528645
1917,-0.032695910725755756
1918,-0.024118588410249085
1919,-0.02543300165368128
1920,-0.033214321179475856
1921,-0.03826406230357904
1922,-0.03557772686360891
1923,-0.02933702199247186
1924,-0.027934975715227826
1925,-0.034474758271861375
1926,-0.04285955865755606
1927,-0.04375663484297812
1928,-0.03441269267380529
1929,-0.022136568101252113
1930,-0.017583230532021814
1931,-0.02438233221735346
1932,-0.03552934334521193
1933,-0.04026127334926581
1934,-0.03458513270922534
1935,-0.024913956557856394
1936,-0.021216588610167165
1937,-0.026714706246695367
1938,-0.03467990964594205
1939,-0.03565415267207033
1940,-0.02770390918058594
1941,-0.019029309494926552
1942,-0.01988017389057318
1943,-0.03170465641744046
1944,-0.04464720584720958
1945,-0.046462265546943785
1946,-0.034466987175071115
1947,-0.0187630052087425
1948,-0.013216545141866938
1949,-0.02262516394639797
1950,-0.03835818471797328
1951,-0.0466365405448103
1952,-0.04140728747255919
1953,-0.0294178906946898
1954,-0.022842978985687788
1955,-0.02700815630882677
1956,-0.0354055381792687
1957,-0.03679969389603874
1958,-0.027161103565526132
1959,-0.014376388109997109
1960,-0.010873014153062745
1961,-0.02132044166365425
1962,-0.037536118414790126
1963,-0.045736085573753985
1964,-0.03922095396742172
1965,-0.024325049855955155
1966,-0.014084656209419824
1967,-0.01599833212161619
1968,-0.02574126301550994
1969,-0.03251733026969142
1970,-0.030197183758140886
1971,-0.022975531405958156
1972,-0.02018903607799151
1973,-0.02602061472288547
1974,-0.03486198362273354
1975,-0.03712514753343911
1976,-0.029473252203917097
1977,-0.018828140222298215
1978,-0.01581218689872023
1979,-0.024097798041470775
1980,-0.0364494995519133
1981,-0.04160253737964949
1982,-0.035196809812661496
1983,-0.0238457280300691
1984,-0.01831147187058695
1985,-0.022743723622359418
1986,-0.03089039295155975
1987,-0.033062671528026555
1988,-0.026630603378138325
1989,-0.019134688475130973
1990,-0.020564811735371433
1991,-0.03250138332761726
1992,-0.045315701092867686
1993,-0.04677380800118505
1994,-0.033914551174281646
1995,-0.016486898132652212
1996,-0.008279419713004603
1997,-0.014505403183904428
1998,-0.02733339869923991
1999,-0.0337568302426312
2000,-0.028034680859421856
2001,-0.016655047599681054
2002,-0.01129389343588726
2003,-0.017043859405294327
2004,-0.02762457283564731
2005,-0.032109079412968346
2006,-0.026176321014392413
2007,-0.016503122954096283
2008,-0.013922165842324252
2009,-0.02229638672629062
2010,-0.0343624209493428
2011,-0.038803477121960014
2012,-0.03154231345810176
2013,-0.01997437644570801
2014,-0.015864034174134487
2015,-0.023915066069678734
2016,-0.037324755529441686
2017,-0.04465005680423024
2018,-0.04104913230484607
2019,-0.032687663100107664
2020,-0.030068052307290413
2021,-0.03719940936549604
2022,-0.04762204221814893
2023,-0.0512265407118672
2024,-0.04477529313209603
2025,-0.035279794679164214
2026,-0.032743919230923214
2027,-0.039739023265056836
2028,-0.04859186177794264
2029,-0.0491665605325209
2030,-0.03926474918661838
2031,-0.026851968789040864
2032,-0.02167879242492645
2033,-0.024906377593349745
2034,-0.027638002229863113
2035,-0.02021594279086532
2036,-0.0028889479038144966
2037,0.013364910838960815
2038,0.017274488588301933
2039,0.008733357220133627
2040,-0.0004951248173973651
2041,0.0019039216803157235
2042,0.01638748128251867
2043,0.030521283998006413
2044,0.030791518803787547
2045,0.01593917450321468
2046,-0.0013206505323154448
2047,-0.006151081920025153
2048,0.004309842292546469
2049,0.018229377736850988
2050,0.02034105115501543
2051,0.006251879250179707
2052,-0.01393557203758553
2053,-0.0258206724248385
2054,-0.02438597117395997
2055,-0.017741474817207052
2056,-0.017692942228981177
2057,-0.027077440841891752
2058,-0.03683814800395168
2059,-0.035746533340564504
2060,-0.022725525483914426
2061,-0.008991364833988172
2062,-0.0075466052549830005
2063,-0.020522366688743188
2064,-0.03726210953847046
2065,-0.04524815073025777
2066,-0.04284989536577029
2067,-0.040880883183115516
2068,-0.05134050282930979
2069,-0.07494106766784973
2070,-0.10037255980288368
2071,-0.1161081711953312
2072,-0.1224043154763089
2073,-0.130857957975506
2074,-0.15202893163828385
2075,-0.18445658339289314
2076,-0.21706678292280024
2077,-0.24250908647676847
2078,-0.2667537542207151
2079,-0.30384824689337
2080,-0.3607961133267471
2081,-0.4287342329071797
2082,-0.4900662459077755
2083,-0.5332691342011763
2084,-0.5574806348648562
2085,-0.5595962808682383
2086,-0.5173324745381678
2087,-0.38981339287557276
2088,-0.14182969575046683
2089,0.22665260552475058
2090,0.6718838275379008
2091,1.125801055245521
2092,1.523698505602636
2093,1.81404226932494
2094,1.9471909486344452
2095,1.8678875409715718
2096,1.537406866497436
2097,0.9792220604091784
2098,0.30737196096434205
2099,-0.30222831447496584
2100,-0.6940000731594621
2101,-0.8154611266765024
2102,-0.738675913631235
2103,-0.6025970270865271
2104,-0.519592558368674
2105,-0.5151396504411487
2106,-0.5388124307531779
2107,-0.5259593593095335
2108,-0.4538294663042834
2109,-0.35037034578051307
2110,-0.2598928009469679
2111,-0.20405511744761579
2112,-0.17208186993901708
2113,-0.1414846676315329
2114,-0.10338401857910731
2115,-0.06794459246359504
2116,-0.04895311720699534
2117,-0.04670440840947934
2118,-0.04692867976110064
2119,-0.03522220965887926
2120,-0.011120203133212488
2121,0.012191300143924326
2122,0.021319272417316598
2123,0.015443586671944407
2124,0.006289788819570007
2125,0.006204079267178035
2126,0.016435197233477375
2127,0.026746332094403254
2128,0.026119785804712893
2129,0.01382245365460704
2130,0.00019899838341502817
2131,-0.003327849228316618
2132,0.004737812479130121
2133,0.0145702005205833
2134,0.014577270240819715
2135,0.002728424555963196
2136,-0.011286589515052963
2137,-0.015274609575815837
2138,-0.006365364394759083
2139,0.005991077086387217
2140,0.008916853454062658
2141,-0.001568477017670376
2142,-0.016735867993443086
2143,-0.023655581122695512
2144,-0.017801576954631318
2145,-0.007379723386934394
2146,-0.005024898707586732
2147,-0.014998287140436698
2148,-0.02863841387848977
2149,-0.0327902853216569
2150,-0.0230106159908049
2151,-0.008367088743292488
2152,-0.0027881031205922247
2153,-0.011303362938020957
2154,-0.02483365229428456
2155,-0.028939547582785663
2156,-0.018114701613863974
2157,-0.0015293484221290225
2158,0.005605646450104019
2159,-0.003281611220926688
2160,-0.01977473397980769
2161,-0.028673159762862218
2162,-0.02265339867260221
2163,-0.008990055403124985
2164,-0.0018948589577375476
2165,-0.008297250261650985
2166,-0.021263689078760528
2167,-0.027452150682965408
2168,-0.020905073844875218
2169,-0.009214113329987488
2170,-0.005856975892269469
2171,-0.016446842114759372
2172,-0.03275175957833289
2173,-0.04054241062599373
2174,-0.03348164848557223
2175,-0.019250587838075008
2176,-0.011883301337751484
2177,-0.018016365315772456
2178,-0.03072199291172579
2179,-0.03690752329467391
2180,-0.030707192138584465
2181,-0.01941052921399959
2182,-0.0160538936324189
2183,-0.02617931118142137
2184,-0.04206563524429533
2185,-0.050228825910501415
2186,-0.044720968119048916
2187,-0.03296645303060958
2188,-0.028303392050716893
2189,-0.03663310734180777
2190,-0.05045950334226846
2191,-0.05627765111320032
2192,-0.04800068946600175
2193,-0.03306156942204284
2194,-0.02503277942882507
2195,-0.029996230322968227
2196,-0.04022043365680013
2197,-0.04161964481748648
2198,-0.027856540739243135
2199,-0.007210897177940859
2200,0.004781017902777219
2201,3.211306571624002e-05
2202,-0.014217442846002952
2203,-0.022002178535654567
2204,-0.01334276191062472
2205,0.007119473752619975
2206,0.025702316120386835
2207,0.03366347564005899
2208,0.03565553031195731
2209,0.044416692219763944
2210,0.06725265952210013
2211,0.09804044662891631
2212,0.1229139853855305
2213,0.13403348292520084
2214,0.1376317916670341
2215,0.14810301147170718
2216,0.17375113447048587
2217,0.20816785584542957
2218,0.23573147370412417
2219,0.24583668049575125
2220,0.24195210409948428
2221,0.23685391516498827
2222,0.2390964946456757
2223,0.244303016296107
2224,0.23981717661845647
2225,0.2178310477188235
2226,0.18373286470726874
2227,0.15134654250588175
2228,0.1298788058383148
2229,0.11556966091714971
2230,0.09620383077853928
2231,0.06379251554466728
2232,0.022762897876924863
2233,-0.014283188289249798
2234,-0.03869903883379945
2235,-0.053587536236365765
2236,-0.06968050970501344
2237,-0.09378847148992288
2238,-0.12159321578895063
2239,-0.14189655099185
2240,-0.14777158824479544
2241,-0.14324677790545443
2242,-0.13893166520746197
2243,-0.141309146953905
2244,-0.14670694720786012
2245,-0.14593996266111645
2246,-0.13457225781320012
2247,-0.1180330714069892
2248,-0.10624205567009476
2249,-0.1033289397581612
2250,-0.10321449358428539
2251,-0.09588173003487617
2252,-0.07813368742178484
2253,-0.057805316871288766
2254,-0.04681545534068933
2255,-0.049711590994125074
2256,-0.05907077107425086
2257,-0.06242710889789821
2258,-0.053961419080208156
2259,-0.039486276739270285
2260,-0.030002046500013216
2261,-0.030492878675082727
2262,-0.035240136889150474
2263,-0.03419863208039337
2264,-0.02377050316290889
2265,-0.010926722336091772
2266,-0.006422129073194338
2267,-0.013910902199014506
2268,-0.025942598047871822
2269,-0.03094518109451018
2270,-0.024322438840063222
2271,-0.012709139575410568
2272,-0.007261653847963689
2273,-0.012720787185228125
2274,-0.023043985050156875
2275,-0.027730369897283967
2276,-0.022326175341637795
2277,-0.012605722066488717
2278,-0.008429126410953787
2279,-0.013650301612824475
2280,-0.02230319900277633
2281,-0.024856962451502193
2282,-0.018133937875783362
2283,-0.00877128710313145
2284,-0.006603719823560112
2285,-0.014551099149483928
2286,-0.025267013690947616
2287,-0.028170706627206336
2288,-0.020059170357328023
2289,-0.008683946564149518
2290,-0.005438106315384834
2291,-0.01410460991802179
2292,-0.02676608911575311
2293,-0.031174107331994237
2294,-0.022625412665819467
2295,-0.008758274404777892
2296,-0.0024014992003051757
2297,-0.00926849201974016
2298,-0.022458028457052612
2299,-0.029189335949366495
2300,-0.023240249969461925
2301,-0.01091726546069953
2302,-0.004706795917057418
2303,-0.01089395667274286
2304,-0.02340259862926665
2305,-0.029942385066188328
2306,-0.024310272662764858
2307,-0.012555963980189672
2308,-0.00685121058842795
2309,-0.013225713310959047
2310,-0.025514208262500553
2311,-0.03164109256469769
2312,-0.0259279002043433
2313,-0.014952819178080157
2314,-0.01090606756146422
2315,-0.019022972497178547
2316,-0.03182666200917254
2317,-0.036261067028258445
2318,-0.026861958178406045
2319,-0.011834382382327972
2320,-0.0056882985731236
2321,-0.015331355882946606
2322,-0.03311790893743503
2323,-0.043716519604123774
2324,-0.038273914315456424
2325,-0.0223477877756454
2326,-0.010239221469802618
2327,-0.011504520604397689
2328,-0.022678279048398267
2329,-0.031732358378800944
2330,-0.030268432131056122
2331,-0.021288205634524736
2332,-0.015330367331004728
2333,-0.019470309379929926
2334,-0.03040110894800007
2335,-0.03818187284089587
2336,-0.03633402301128888
2337,-0.027873564789839007
2338,-0.02145769256399038
2339,-0.022082241877324525
2340,-0.02615311368980841
2341,-0.025945838282642793
2342,-0.018591536562725122
2343,-0.009979839125784058
2344,-0.009199611920243423
2345,-0.018983379346734847
2346,-0.03199468480849453
2347,-0.037139186363667476
2348,-0.029997790265197735
2349,-0.017134945862983385
2350,-0.009912308141293536
2351,-0.013776580767787455
2352,-0.023487022922143105
2353,-0.02885796100183802
2354,-0.025139606213486126
2355,-0.017577952829038186
2356,-0.015606652832721673
2357,-0.022644072827124974
2358,-0.03201293573567647
2359,-0.033387998140450785
2360,-0.02344543072546946
2361,-0.009866623078177022
2362,-0.004294251694629241
2363,-0.010978424400601712
2364,-0.02247947084394107
2365,-0.027005460872756265
2366,-0.020300128101372182
2367,-0.01014948748500744
2368,-0.008681198083997168
2369,-0.01987406518091004
2370,-0.03483896374165946
2371,-0.0400255065578917
2372,-0.0306113570611086
2373,-0.015777266364492393
2374,-0.010205475711268269
2375,-0.019730337068107125
2376,-0.0351913909985197
2377,-0.040860121109883685
2378,-0.029602425258332954
2379,-0.010131306242323234
2380,0.0008410237121072206
2381,-0.005843327004272984
2382,-0.023400521238018012
2383,-0.03578725386964891
2384,-0.032784420290839944
2385,-0.018914441978821746
2386,-0.008009315025406114
2387,-0.009401108062162006
2388,-0.019569842626535473
2389,-0.02707076643422438
2390,-0.02500708112158538
2391,-0.017953682998071367
2392,-0.016348383802533752
2393,-0.024518280537541837
2394,-0.03517419691850521
2395,-0.03652855137100265
2396,-0.024967489181288653
2397,-0.010025828554985749
2398,-0.005839102293183912
2399,-0.017025277147412685
2400,-0.03314779937344741
2401,-0.03794201135157654
2402,-0.024928225749174398
2403,-0.004297990503634622
2404,0.006008108327483618
2405,-0.0031092939538345022
2406,-0.02338399090421322
2407,-0.036900787546522304
2408,-0.03273083816675093
2409,-0.016698466526849212
2410,-0.00520174123109826
2411,-0.009317022806880682
2412,-0.02451525401944203
2413,-0.03557857609404471
2414,-0.03153900605821638
2415,-0.016051373966694007
2416,-0.003457244951041043
2417,-0.004830419397460539
2418,-0.01772893840477688
2419,-0.029271157053103722
2420,-0.028939150387271816
2421,-0.01830984472462753
2422,-0.008506442202934904
2423,-0.008561408175756695
2424,-0.01662509035663052
2425,-0.02258615579347257
2426,-0.01895467161599419
2427,-0.008707128374474463
2428,-0.002224330882115738
2429,-0.00670100035307696
2430,-0.018955145777572326
2431,-0.028870908647450393
2432,-0.029732470232352114
2433,-0.024740799581104672
2434,-0.02311134969506442
2435,-0.030001511418679013
2436,-0.040882819633372626
2437,-0.04627688371713813
2438,-0.04187694262681042
2439,-0.033315708602666125
2440,-0.030326372711620524
2441,-0.03622065751844765
2442,-0.04382914685531015
2443,-0.042611275048350335
2444,-0.029930112792250455
2445,-0.01465727125175913
2446,-0.008737367998325496
2447,-0.01483777982765453
2448,-0.022870417669440923
2449,-0.019703979255742975
2450,-0.002900255241188366
2451,0.015488368608761047
2452,0.019727794144922713
2453,0.005896076225709708
2454,-0.013165616791725662
2455,-0.018944405870626624
2456,-0.004304191255498845
2457,0.019727425349479313
2458,0.03406189772023632
2459,0.02901878231838565
2460,0.012631777778954939
2461,0.002197260930476299
2462,0.007564984849205607
2463,0.02226973895683074
2464,0.03056654804057096
2465,0.02293648979996229
2466,0.004853039979792913
2467,-0.0092435184622223
2468,-0.01021951816895172
2469,-0.0025932791425328484
2470,0.0008260320920602782
2471,-0.007832058416332513
2472,-0.023596776421092456
2473,-0.03357111441537369
2474,-0.02948602070133255
2475,-0.015572010947947797
2476,-0.004384125005833821
2477,-0.004979070902781627
2478,-0.01492665093619239
2479,-0.023562674819622535
2480,-0.02298933515508013
2481,-0.016106782229722297
2482,-0.01402178944705718
2483,-0.02534787769448211
2484,-0.04758198447796819
2485,-0.06885664960410562
2486,-0.07871838378660498
2487,-0.0780293110423954
2488,-0.07856084777973792
2489,-0.092197686679451
2490,-0.11957374402169024
2491,-0.14912298318443026
2492,-0.16820610809448294
2493,-0.176250358892993
2494,-0.1869225097999067
2495,-0.2160732897690405
2496,-0.26627767117156503
2497,-0.32348616063054547
2498,-0.3705066581794353
2499,-0.4047430055721999
2500,-0.44093821356158336
2501,-0.4922909255321855
2502,-0.5451107490586296
2503,-0.5519591938172628
2504,-0.45423841175163937
2505,-0.21865394527735238
2506,0.1417403083179829
2507,0.5773575251232408
2508,1.0291544958434788
2509,1.4443038995334296
2510,1.7674346809260804
2511,1.9259273848707994
2512,1.8413288862809902
2513,1.4760712038403205
2514,0.8839981114315086
2515,0.2155433910725591
2516,-0.34316115392410323
2517,-0.6638992693196835
2518,-0.7376463546421687
2519,-0.6599936566582247
2520,-0.5553736302478461
2521,-0.49953443672994446
2522,-0.4937582235566199
2523,-0.49654047779579374
2524,-0.4735615119961813
2525,-0.42222894734191707
2526,-0.3599109083284338
2527,-0.2993537432038364
2528,-0.23938050115949416
2529,-0.17573619215520103
2530,-0.11419750184693785
2531,-0.0687818037041312
2532,-0.04748023945564549
2533,-0.04269079165644106
2534,-0.03772470714651717
2535,-0.02246597727876003
2536,-0.0014450035366006869
2537,0.013523462400798242
2538,0.017125823444716495
2539,0.01560430719706244
2540,0.018484837318438675
2541,0.02722088429633124
2542,0.033768473147816745
2543,0.030410783229928642
2544,0.0194360700544888
2545,0.011552183296798765
2546,0.01455525859165643
2547,0.02465848562282269
2548,0.03013301786857062
2549,0.02360759822083661
2550,0.009960836319755905
2551,0.0013252172572309363
2552,0.004369952340604509
2553,0.013230718069289122
2554,0.015577843572820651
2555,0.005587021346004887
2556,-0.009643790680587568
2557,-0.01694918575688447
2558,-0.010300038625340688
2559,0.003053363913491551
2560,0.009697818629430135
2561,0.0032267144161874407
2562,-0.009707565202842165
2563,-0.01629674134974292
2564,-0.01028932937764322
2565,0.002160865171176999
2566,0.008966444838062245
2567,0.003986009118182145
2568,-0.007631365741846719
2569,-0.015525235995003035
2570,-0.014871388431705958
2571,-0.010659942689243019
2572,-0.011422395386831409
2573,-0.019335007378223128
2574,-0.02727807529555905
2575,-0.026102586619672897
2576,-0.014660094872066275
2577,-0.002079049635156286
2578,0.000489304581441988
2579,-0.009309781531722435
2580,-0.022462161474615286
2581,-0.027045357561126183
2582,-0.019564735350630563
2583,-0.008081071945495273
2584,-0.00409939704242461
2585,-0.011252955843281572
2586,-0.02191448236405564
2587,-0.02495397178725562
2588,-0.01683002515432327
2589,-0.005009270333374194
2590,-0.0004656083660183974
2591,-0.006915452475821255
2592,-0.017589496554298315
2593,-0.022624269697986817
2594,-0.01938471061539612
2595,-0.015080000437879128
2596,-0.018921581032904103
2597,-0.0318539249466254
2598,-0.04459239846685159
2599,-0.04641583251155209
2600,-0.03611298644210727
2601,-0.023896863184299184
2602,-0.021866908045221675
2603,-0.03214597641416384
2604,-0.04452130507089508
2605,-0.04627604294984128
2606,-0.03477878162811969
2607,-0.02038497123222889
2608,-0.016534314131346445
2609,-0.026553570984860365
2610,-0.04009700535522013
2611,-0.04283687630255297
2612,-0.030039053890171127
2613,-0.01082403853768424
2614,0.0009473897712432571
2615,0.00011149145085292533
2616,-0.005225700233446906
2617,-0.002275968868098004
2618,0.013440469881009704
2619,0.03371031874180273
2620,0.04614245717146488
2621,0.04694198536232563
2622,0.04506051354236433
2623,0.05349703898102046
2624,0.07640866076767068
2625,0.10492453881330394
2626,0.1259029188875756
2627,0.13494834772434883
2628,0.14069956241777848
2629,0.15602955278360822
2630,0.18481467515850367
2631,0.21739997154354762
2632,0.239338672014411
2633,0.24485413841065526
2634,0.24176338507107106
2635,0.24300323022624903
2636,0.25313740226703013
2637,0.2632198841932334
2638,0.25918450569777435
2639,0.23558725075189296
2640,0.20119475688531618
2641,0.170864609404687
2642,0.15159547692211106
2643,0.13633801433227138
2644,0.11154764732702503
2645,0.07102191148665404
2646,0.022494764845394737
2647,-0.019330499821421092
2648,-0.0463040089679952
2649,-0.06358833734228195
2650,-0.08318047575003024
2651,-0.11087346567624831
2652,-0.13976446942538479
2653,-0.15681456398784244
2654,-0.15593517577015537
2655,-0.14454568830626402
2656,-0.13696721542113316
2657,-0.14101337387677587
2658,-0.15085921143406378
2659,-0.15310798925668762
2660,-0.14005310714978686
2661,-0.11718868705476984
2662,-0.09781422361907777
2663,-0.0902843352981815
2664,-0.09052105791348453
2665,-0.08697395976585386
2666,-0.0728085006791282
2667,-0.053046939219693265
2668,-0.03957533175494023
2669,-0.039093029084237986
2670,-0.04610911732875951
2671,-0.04805900231448018
2672,-0.03757101487118562
2673,-0.019799889078007133
2674,-0.007567479312458794
2675,-0.009015630916919733
2676,-0.019792461913790575
2677,-0.027320086001982487
2678,-0.0228970359368934
2679,-0.009855785302653549
2680,-4.424295335297285e-06
2681,-0.0020478504417957176
2682,-0.013328855062915713
2683,-0.022707207005358256
2684,-0.02140667656993991
2685,-0.011089633258522542
2686,-0.0015368551871711446
2687,-0.0007259489981303519
2688,-0.00737196981812977
2689,-0.013084595244776114
2690,-0.011442104996698142
2691,-0.004510465625450495
2692,-0.00030760579461605516
2693,-0.004147580843148455
2694,-0.012984467109491712
2695,-0.018589740410306473
2696,-0.016157494101142332
2697,-0.009299623476093564
2698,-0.006162868459142268
2699,-0.010673442283635768
2700,-0.01810297785085118
2701,-0.019807340063463456
2702,-0.012465338921732124
2703,-0.00222464268121496
2704,0.0009172111432621911
2705,-0.0067939757053740385
2706,-0.018484588442871694
2707,-0.02278802188606628
2708,-0.014823488443841234
2709,-0.0012382906789596185
2710,0.00588101628394906
2711,0.000497557211372396
2712,-0.01165605037548531
2713,-0.01873517082561149
2714,-0.014267133089449793
2715,-0.0031959445143807303
2716,0.003349277473087534
2717,-0.0007975698269323352
2718,-0.010953659465210819
2719,-0.01677763229652379
2720,-0.013168314474563987
2721,-0.005718325978045843
2722,-0.005032341595043084
2723,-0.015507073288068586
2724,-0.02995573008635535
2725,-0.035826839039002564
2726,-0.027213850327085818
2727,-0.010883912775375804
2728,-0.00022876422131454092
2729,-0.002854489227374558
2730,-0.013812228287998541
2731,-0.020969438110815582
2732,-0.017128902431236444
2733,-0.00695482258676335
2734,-0.0019995970140879223
2735,-0.00891512166086516
2736,-0.02259802362153454
2737,-0.03102489887687429
2738,-0.026928204443165696
2739,-0.014778827302233549
2740,-0.006315190403400275
2741,-0.009204808534010001
2742,-0.020032672755312828
2743,-0.028250765291284168
2744,-0.02675918452347688
2745,-0.018442184970289443
2746,-0.012432939595639108
2747,-0.014385088094339114
2748,-0.020885000947249967
2749,-0.023558000221082537
2750,-0.018293459821806253
2751,-0.009787880976229318
2752,-0.00659098816846285
2753,-0.011828735016692838
2754,-0.01942313530341474
2755,-0.02007088924025331
2756,-0.011112791279558188
2757,-0.00012967660926876392
2758,0.00181354248552498
2759,-0.00908408964645082
2760,-0.025217544653305567
2761,-0.0342854782110593
2762,-0.030427682377124968
2763,-0.01903390463210829
2764,-0.01078680223069547
2765,-0.0111231664767374
2766,-0.015616303862037068
2767,-0.015592116225666456
2768,-0.007932531930787091
2769,0.0010824346461541909
2770,0.0018682240777365658
2771,-0.008587158031488979
2772,-0.023083342333470175
2773,-0.03060936053765476
2774,-0.02658388771183443
2775,-0.016932769823894557
2776,-0.012112915478551095
2777,-0.017039764244331016
2778,-0.026710755334248465
2779,-0.031509277824766105
2780,-0.026660019445001685
2781,-0.01650400451444311
2782,-0.009711208023640599
2783,-0.010590471152074083
2784,-0.015269059099312702
2785,-0.01630779485709026
2786,-0.010734631812789927
2787,-0.003180322885692326
2788,-0.0009759078354479758
2789,-0.006364852987256907
2790,-0.013961207254383122
2791,-0.016230339824123082
2792,-0.011490845958457395
2793,-0.006147239535173415
2794,-0.008516093460840674
2795,-0.02015244666055757
2796,-0.03342092250833064
2797,-0.03813909107107061
2798,-0.031142649769939693
2799,-0.01949474454103852
2800,-0.014066424489141565
2801,-0.019580240504392103
2802,-0.03069242106714227
2803,-0.03775335536938613
2804,-0.03634242253119228
2805,-0.03102274488209613
2806,-0.029701285611989592
2807,-0.034574213724992545
2808,-0.039176120253842414
2809,-0.034836514272968605
2810,-0.020084741044711113
2811,-0.00321663752377462
2812,0.005046131316807645
2813,0.00175022916770429
2814,-0.005489305684130676
2815,-0.006091579151581702
2816,0.0030105323815662853
2817,0.01463114749223406
2818,0.019207063611588235
2819,0.015256683212900603
2820,0.011478626209824238
2821,0.01789224601605542
2822,0.03478180847372701
2823,0.050948484664415206
2824,0.05373458911118152
2825,0.041292852803515495
2826,0.024802078976604462
2827,0.017958153539550468
2828,0.023756383821396276
2829,0.03160055931896463
2830,0.02781484803981818
2831,0.009379478692660918
2832,-0.012642733807858138
2833,-0.02347348946464031
2834,-0.018669171814728828
2835,-0.00809294658888859
2836,-0.005995715316265001
2837,-0.017063977838381126
2838,-0.03212744854174142
2839,-0.037522952182522454
2840,-0.028661034700972705
2841,-0.014486436064331176
2842,-0.008824425042332232
2843,-0.01749593272363017
2844,-0.03375279343034651
2845,-0.04584151410371742
2846,-0.04858051505451173
2847,-0.047614954988744476
2848,-0.05303466643830283
2849,-0.06954316598354146
2850,-0.09283373007324394
2851,-0.11467930627122942
2852,-0.1306203220357834
2853,-0.14272275904835954
2854,-0.15602044285861816
2855,-0.17359623251582462
2856,-0.1953617006384333
2857,-0.22056350567665703
2858,-0.250211533665565
2859,-0.28682089664970306
2860,-0.3324986888897648
2861,-0.38750123924140645
2862,-0.44904264802812405
2863,-0.5083975228962898
2864,-0.5465501523472832
2865,-0.5326031699115976
2866,-0.42951357850115246
2867,-0.2068547932321019
2868,0.14502604196995159
2869,0.6052469087096368
2870,1.1185713943571631
2871,1.5970287453090606
2872,1.930240052366952
2873,2.0114030044024584
2874,1.7795146641442072
2875,1.2613192439767063
2876,0.583171261081362
2877,-0.06840638766802272
2878,-0.5266159752140982
2879,-0.7206059639517078
2880,-0.6990386003073674
2881,-0.5849408896831214
2882,-0.4935590473847191
2883,-0.4697805201712676
2884,-0.483557265288933
2885,-0.4762394999114359
2886,-0.41525418284609317
2887,-0.3158287473063186
2888,-0.22084861386359794
2889,-0.1634255829201793
2890,-0.1448213057431984
2891,-0.14137403808214344
2892,-0.12847624795336765
2893,-0.09913807873130152
2894,-0.06418812378793787
2895,-0.03852808422004038
2896,-0.02758712834375406
2897,-0.024580946003649528
2898,-0.01840063896060435
2899,-0.0038055258815563827
2900,0.014611091636770148
2901,0.02709744575158641
2902,0.027514222178704258
2903,0.018801596084579146
2904,0.010652050125821244
2905,0.011297942759243788
2906,0.020356243166434723
2907,0.029099204220841925
2908,0.028289712324512786
2909,0.016836974352344145
2910,0.003302320756877286
2911,-0.001543998754375486
2912,0.005433033356948442
2913,0.01666477913125576
2914,0.02070631113205149
2915,0.012729218143375812
2916,-0.0012065770391711595
2917,-0.01014391884023096
2918,-0.00864612665544021
2919,-0.001535472024417084
2920,0.0015198215789106414
2921,-0.0040057090979938705
2922,-0.013004187704435524
2923,-0.016245272326128594
2924,-0.010274701643100282
2925,-0.0015583189767933337
2926,-0.00040313928328664854
2927,-0.010483228609619933
2928,-0.02443676040532053
2929,-0.030240196505276873
2930,-0.0224823114294409
2931,-0.007686776808077205
2932,0.0015546358459638493
2933,-0.001899925530069524
2934,-0.01353642990403887
2935,-0.02205414011898361
2936,-0.020372281856825516
2937,-0.012079636829818968
2938,-0.007328319087960879
2939,-0.012558350191450345
2940,-0.02427545418360948
2941,-0.032801771975430216
2942,-0.031946226840461285
2943,-0.024853085251520583
2944,-0.020392678753425427
2945,-0.024041650743376226
2946,-0.032579666075983976
2947,-0.03781247474753775
2948,-0.03525135138866696
2949,-0.02871253215117911
2950,-0.026139292411705085
2951,-0.031078871732347267
2952,-0.03877629720768575
2953,-0.041100249573471775
2954,-0.035321012732579024
2955,-0.027571297761553818
2956,-0.027062255198447203
2957,-0.03659318931905407
2958,-0.04894825547238732
2959,-0.05312232514762963
2960,-0.04449266022084782
2961,-0.028945867057753795
2962,-0.016850644167420555
2963,-0.01286464849736696
2964,-0.011752936380668221
2965,-0.004376891701563232
2966,0.012265527422983848
2967,0.031272296580965656
2968,0.04245700463144185
2969,0.04294761222792753
2970,0.041078186070508574
2971,0.04929876430290803
2972,0.07270646549193167
2973,0.10433191536344852
2974,0.13186031056633585
2975,0.14927817450655387
2976,0.1620653100480266
2977,0.18088924417197688
2978,0.21011572426106429
2979,0.24259476014157738
2980,0.26596971616226206
2981,0.2742832364417047
2982,0.27329459820815627
2983,0.27407340594421803
2984,0.2810920783192493
2985,0.2866685956015523
2986,0.2775425302764156
2987,0.24747460627842738
2988,0.2037298765411266
2989,0.16111698068248656
2990,0.12925374115842125
2991,0.10517405205731364
2992,0.07803173660923729
2993,0.04086322321761655
2994,-0.002236133699630636
2995,-0.04023438864786183
2996,-0.06594829430000251
2997,-0.08245794382700665
2998,-0.09889758385869592
2999,-0.12028632203708353
3000,-0.14201108448134614
3001,-0.15462261743434697
3002,-0.15391680450332437
3003,-0.14579058836704092
3004,-0.14068138580514855
3005,-0.14310862522198098
3006,-0.1470133848319945
3007,-0.14189226383240144
3008,-0.1238192450336993
3009,-0.100337995199199
3010,-0.08411939084256542
3011,-0.08138666709898161
3012,-0.08635207623171276
3013,-0.08705227783520808
3014,-0.07682244462623147
3015,-0.06024331442498228
3016,-0.047997076675754244
3017,-0.04601859076852105
3018,-0.04976869694815374
3019,-0.04912920014167655
3020,-0.038783205656560626
3021,-0.02360952846651892
3022,-0.013768882921680383
3023,-0.01451238378278812
3024,-0.02094773145693511
3025,-0.022960389813243325
3026,-0.015335236784234627
3027,-0.0029924576128425025
3028,0.003826615364685228
3029,-0.0004021713007494761
3030,-0.011158774466546496
3031,-0.0184276326375846
3032,-0.01647062871578363
3033,-0.009091398417361035
3034,-0.005290311292082316
3035,-0.009842958960171327
3036,-0.018339576358738306
3037,-0.021656181459926427
3038,-0.015318836890874642
3039,-0.004303527658670023
3040,0.0016075896333306605
3041,-0.002677318539253624
3042,-0.012667531518436484
3043,-0.018845350321582938
3044,-0.016048189386483717
3045,-0.008252130609537132
3046,-0.004033246626875528
3047,-0.007464841950999118
3048,-0.013876001098208728
3049,-0.014946891087729373
3050,-0.00797347651670808
3051,0.0003978892204766836
3052,0.00029258358843658257
3053,-0.011159031464629255
3054,-0.025825806338928614
3055,-0.03138212910580181
3056,-0.02278771622236283
3057,-0.007339746919439012
3058,0.0018652185811192366
3059,-0.0020072311830713167
3060,-0.01348846499022725
3061,-0.02053526122026849
3062,-0.016324422594150213
3063,-0.005581851453729428
3064,0.0005457258062830913
3065,-0.00429169697612752
3066,-0.015567023450337742
3067,-0.022762938424403852
3068,-0.019964547256761722
3069,-0.01133704189805415
3070,-0.006166053040192626
3071,-0.008941875844554952
3072,-0.014960830167699446
3073,-0.01599340483089766
3074,-0.009895118509897362
3075,-0.0037317944756726446
3076,-0.006666227498693009
3077,-0.01973033601836839
3078,-0.0333593718377099
3079,-0.03598438915498393
3080,-0.025534539316589527
3081,-0.012146704860562282
3082,-0.008749959214986995
3083,-0.018401466700280755
3084,-0.030979688949450846
3085,-0.032959441995913816
3086,-0.021005254787045825
3087,-0.005941419094513408
3088,-0.0027505637540448363
3089,-0.015954107751905998
3090,-0.03457934437172985
3091,-0.04193329132451497
3092,-0.031133706584672398
3093,-0.011644602429921689
3094,-0.0005531831729867602
3095,-0.006857416389631431
3096,-0.02359436326138782
3097,-0.0349784933591258
3098,-0.031366066662005726
3099,-0.017692018055097854
3100,-0.007749472908034749
3101,-0.010468455259379946
3102,-0.021721508689288016
3103,-0.029238178633820715
3104,-0.0251644107519413
3105,-0.01359872587872122
3106,-0.005911035512906232
3107,-0.009002917313915351
3108,-0.018499787964107804
3109,-0.02356742133421305
3110,-0.018207449428646348
3111,-0.007468626073123565
3112,-0.0023273207256861417
3113,-0.008515611941568576
3114,-0.020649703317958117
3115,-0.027586768284221047
3116,-0.023570229291651146
3117,-0.013891893447335001
3118,-0.009358178670837321
3119,-0.015173808626067138
3120,-0.025534564717402557
3121,-0.029502310735504397
3122,-0.022326247028623014
3123,-0.01073857302565482
3124,-0.006644586162366754
3125,-0.015266533599709751
3126,-0.02956210833925465
3127,-0.03673166065759632
3128,-0.030660317083757806
3129,-0.018070782198888583
3130,-0.012148769514868202
3131,-0.019689840401442622
3132,-0.034303044048796305
3133,-0.0423931407638258
3134,-0.036154324740587315
3135,-0.020928625206432898
3136,-0.009829328845465314
3137,-0.01104058493451113
3138,-0.020309040013191185
3139,-0.025832978804721726
3140,-0.02037703787749321
3141,-0.008375249733828414
3142,-0.0010439014572006218
3143,-0.00472304533155234
3144,-0.01444863385431066
3145,-0.019288881042544455
3146,-0.013874608892708057
3147,-0.004182109508276479
3148,-0.0015183512763358904
3149,-0.010802135887678293
3150,-0.025182951221840277
3151,-0.03263522548913079
3152,-0.02790958384305511
3153,-0.01767272804330134
3154,-0.013573796492904822
3155,-0.02031819640485364
3156,-0.03095742336151716
3157,-0.03421112356425467
3158,-0.02626896054080499
3159,-0.014876599332587774
3160,-0.011417544696350984
3161,-0.019092885617784227
3162,-0.029438027957522216
3163,-0.030956493610219613
3164,-0.021166206793052034
3165,-0.00963376576541274
3166,-0.008560264694763146
3167,-0.020176341256544054
3168,-0.033727765238333735
3169,-0.035472722661047264
3170,-0.022126421792829976
3171,-0.0045442054134697
3172,0.002166070841938307
3173,-0.007291841291421463
3174,-0.023606021849832154
3175,-0.03178358877015426
3176,-0.025115609350473828
3177,-0.010944848948044001
3178,-0.0031846359031473927
3179,-0.009214380773386013
3180,-0.023678523305546862
3181,-0.03451111279721217
3182,-0.034653000703315756
3183,-0.027982425411120823
3184,-0.02430298712973325
3185,-0.029117060502516584
3186,-0.03857511620803734
3187,-0.04423090082073399
3188,-0.042196520895291245
3189,-0.03707630171239545
3190,-0.036664181766672924
3191,-0.042972598888494
3192,-0.04903650875909384
3193,-0.045209267912877285
3194,-0.029036512598612216
3195,-0.008862745996963114
3196,0.002869227641869021
3197,0.0006699324125856131
3198,-0.008991840488087027
3199,-0.013573127297299347
3200,-0.0057773246863146105
3201,0.010263530038860161
3202,0.023517281061349454
3203,0.026599550988777646
3204,0.022088553980387785
3205,0.018833309065689575
3206,0.02245943523463178
3207,0.029821023811575094
3208,0.032806293159481054
3209,0.027188772444526096
3210,0.01708097554026065
3211,0.010285603512782807
3212,0.009557355126532642
3213,0.009308893060925551
3214,0.001674093049293714
3215,-0.014242011016467082
3216,-0.029977559416579952
3217,-0.0354279563703321
3218,-0.029157887130877604
3219,-0.020495798624607937
3220,-0.02068434283145963
3221,-0.031803675733722364
3222,-0.044929564838718
3223,-0.04970590192638699
3224,-0.0455839385824916
3225,-0.04299072074153165
3226,-0.05304858445565889
3227,-0.07646324825611817
3228,-0.10310148579901379
3229,-0.12250053590196328
3230,-0.1340736108738353
3231,-0.146408101751665
3232,-0.16703890067836258
3233,-0.19428109863389137
3234,-0.2199752446861003
3235,-0.23955617169477011
3236,-0.25779575783224384
3237,-0.2839780517960492
3238,-0.3227258181106144
3239,-0.37140500029107015
3240,-0.4260367172363805
3241,-0.4855117827569204
3242,-0.5441408546453852
3243,-0.5770805620818296
3244,-0.5361891156485946
3245,-0.3686721953730072
3246,-0.049708529312853515
3247,0.39571348236864745
3248,0.8991183180122788
3249,1.3755042663267125
3250,1.7466454243364904
3251,1.946069242617015
3252,1.9167736263645485
3253,1.6248022369071384
3254,1.0931280778589572
3255,0.42786716090087296
3256,-0.20092886234868965
3257,-0.6309464568100649
3258,-0.7908114559671651
3259,-0.7340064285282739
3260,-0.5945855336800284
3261,-0.49571949903706286
3262,-0.47857763588415325
3263,-0.5000816026737166
3264,-0.49085635708772624
3265,-0.4193316635514394
3266,-0.31131865859916164
3267,-0.21845528520178414
3268,-0.1716135615071283
3269,-0.16097105391606512
3270,-0.15405801707469136
3271,-0.12866289447178847
3272,-0.08932119313458428
3273,-0.05655133405382756
3274,-0.0439752146045905
3275,-0.046198279405197745
3276,-0.04641777225872459
3277,-0.033439698546299565
3278,-0.011116132038612983
3279,0.007215236870253851
3280,0.012137759107481869
3281,0.0062947415663084354
3282,0.0006194501253533754
3283,0.0034367116506984507
3284,0.013023828669035502
3285,0.020091234888960575
3286,0.01720716508159601
3287,0.006092331173241592
3288,-0.003949771159329065
3289,-0.0048656434540611665
3290,0.002393728214846406
3291,0.008588288106735096
3292,0.004912317783192783
3293,-0.008355741932018339
3294,-0.02156468485578969
3295,-0.024354253304644982
3296,-0.015304181391630492
3297,-0.003394332088623706
3298,0.0002879907871224697
3299,-0.00719364800478248
3300,-0.018211791940256555
3301,-0.02232728964229066
3302,-0.01665054772316911
3303,-0.008664199280070822
3304,-0.00871835095225681
3305,-0.0195719053323529
3306,-0.03329583532973951
3307,-0.038624929406593
3308,-0.03157022812484826
3309,-0.018949520618939245
3310,-0.011548080049373882
3311,-0.013829651773718046
3312,-0.0203385956243901
3313,-0.022063002845582227
3314,-0.016043729356618977
3315,-0.008425277106134034
3316,-0.007956066073310073
3317,-0.01670029443229985
3318,-0.02754846295528699
3319,-0.03117005531731651
3320,-0.02538484210076114
3321,-0.017364006993943963
3322,-0.016285697223553858
3323,-0.02382819033406135
3324,-0.032268893509783146
3325,-0.03238926635388022
3326,-0.023356216086074577
3327,-0.014421916043821216
3328,-0.016248686876492738
3329,-0.030149761962436728
3330,-0.04601104665287761
3331,-0.051380096833953184
3332,-0.043175528091127284
3333,-0.03063816848779788
3334,-0.026524171227151817
3335,-0.035026319882628734
3336,-0.04815938424616445
3337,-0.05405416321406402
3338,-0.04887868238842448
3339,-0.04053984300542115
3340,-0.04049527828049596
3341,-0.05185435936958625
3342,-0.06570422826729944
3343,-0.06948205449915654
3344,-0.0592388202604731
3345,-0.04368179339619861
3346,-0.03590272626444968
3347,-0.0407920624289846
3348,-0.05037719066217246
3349,-0.05155743487606397
3350,-0.03863668215240028
3351,-0.018528929003840865
3352,-0.003835755432813517
3353,-0.0007965869439085364
3354,-0.003800336274579376
3355,-0.0013693059044492385
3356,0.012732814681597704
3357,0.034216364545320094
3358,0.053477722380858114
3359,0.06546920805121662
3360,0.07419197016958509
3361,0.08775862678396308
3362,0.10968866545281236
3363,0.1356055292844494
3364,0.1584727795946925
3365,0.1764202559287656
3366,0.19454164588817446
3367,0.21851302416036594
3368,0.24672409146206975
3369,0.26956524830618844
3370,0.277354943330883
3371,0.2693204484708511
3372,0.25442882271155715
3373,0.24267691169095135
3374,0.23507906332692247
3375,0.22232862694430378
3376,0.19390188163768243
3377,0.14908230645024872
3378,0.09915985018308712
3379,0.058313897153457556
3380,0.0315664735751933
3381,0.011142448710521963
3382,-0.015350061602877241
3383,-0.052715767276673035
3384,-0.09345615302456739
3385,-0.12475739541865333
3386,-0.14021645551669695
3387,-0.14505971191436703
3388,-0.1501962857836528
3389,-0.16130884864153566
3390,-0.1737195837357689
3391,-0.17775484193968594
3392,-0.16890939298784768
3393,-0.15258737657626611
3394,-0.13886450785137677
3395,-0.1327454503955408
3396,-0.12976068886816078
3397,-0.12122606577722847
3398,-0.10373145036664455
3399,-0.08322876178437731
3400,-0.06958078841290188
3401,-0.06702686869500385
3402,-0.07009081411675121
3403,-0.06897993660834124
3404,-0.059053288750673796
3405,-0.0449643888901284
3406,-0.03552114099522989
3407,-0.03462012056082135
3408,-0.037443525950503265
3409,-0.03567182487913595
3410,-0.026308129738073997
3411,-0.01507334468131953
3412,-0.010850819498712378
3413,-0.01673593610832249
3414,-0.026714854397948164
3415,-0.031360372033355434
3416,-0.026873298288109786
3417,-0.01844761811501712
3418,-0.014676981462224258
3419,-0.01875830236726385
3420,-0.025449857074526634
3421,-0.02684100131429313
3422,-0.020942595864394578
3423,-0.014118179430657189
3424,-0.014602284313238949
3425,-0.023585310781668083
3426,-0.03316753630209512
3427,-0.03378312828256343
3428,-0.02400089717411217
3429,-0.012734186236654234
3430,-0.011070459945156938
3431,-0.021318129774140306
3432,-0.0341049847321078
3433,-0.036880574617590534
3434,-0.026009528840100965
3435,-0.010756159315899655
3436,-0.004956935834146486
3437,-0.014031239189128759
3438,-0.029692491147178486
3439,-0.03754103721785757
3440,-0.030434674248942275
3441,-0.014992146577146148
3442,-0.005172546977373324
3443,-0.009215133191695746
3444,-0.022384773555430122
3445,-0.03210245217816181
3446,-0.030043044582936648
3447,-0.019399855159990823
3448,-0.010756859444369047
3449,-0.011364192852386087
3450,-0.018720786327747332
3451,-0.024411883415977387
3452,-0.023514155282117737
3453,-0.019490485632474013
3454,-0.01965968989840059
3455,-0.026441708850690984
3456,-0.03403162209168102
3457,-0.034322160065637805
3458,-0.025915391534030923
3459,-0.016472912355653332
3460,-0.015401470012358538
3461,-0.024088974236194195
3462,-0.033901692732645525
3463,-0.03451644431488398
3464,-0.024494923740483607
3465,-0.013305311221654872
3466,-0.012327646305203253
3467,-0.02352644354518211
3468,-0.037122368056205265
3469,-0.040842833653599045
3470,-0.031798204070290784
3471,-0.019278351356670782
3472,-0.015652696201636018
3473,-0.02430365570738964
3474,-0.0364542469361247
3475,-0.03996120787924093
3476,-0.03136470641793901
3477,-0.019346248943580092
3478,-0.016256923581199005
3479,-0.02606084450909555
3480,-0.040430572311004595
3481,-0.04666876166241607
3482,-0.039664953038653264
3483,-0.02640056378103421
3484,-0.018956265068960414
3485,-0.023070370595231163
3486,-0.03326968756226915
3487,-0.038872937916828734
3488,-0.034588100717974815
3489,-0.02529406038973659
3490,-0.020652426469736664
3491,-0.025229821754648187
3492,-0.03398417838426834
3493,-0.037418963987628534
3494,-0.031108950701968216
3495,-0.020109510336461925
3496,-0.013958493663528838
3497,-0.017307729494380107
3498,-0.02547466199643412
3499,-0.029264513514994407
3500,-0.02422309217651454
3501,-0.015116199297593232
3502,-0.011180835032258574
3503,-0.01684555853305745
3504,-0.027127585141604536
3505,-0.032319977274027384
3506,-0.02741665357689724
3507,-0.017043208364674475
3508,-0.011087540421634927
3509,-0.015357690784128991
3510,-0.026385654226202978
3511,-0.035246529263897416
3512,-0.03629562383548257
3513,-0.032031710118147844
3514,-0.029492768949615066
3515,-0.03230430071898158
3516,-0.0368205301709017
3517,-0.036353669485801474
3518,-0.028910847944299316
3519,-0.020066864840886336
3520,-0.01761635453416517
3521,-0.02336799172450603
3522,-0.03077228107932162
3523,-0.031313642033682254
3524,-0.02344968729361218
3525,-0.01481224940443549
3526,-0.014898898032968854
3527,-0.0252490104370287
3528,-0.03712867916452829
3529,-0.039581978014961036
3530,-0.03023819382693201
3531,-0.01807499346054374
3532,-0.014989927521974134
3533,-0.024176840667988808
3534,-0.036783746650512254
3535,-0.040383713288879367
3536,-0.03109942930742097
3537,-0.017438709905648234
3538,-0.011979346760651984
3539,-0.019086062215435247
3540,-0.030829491512748552
3541,-0.035121698515804045
3542,-0.02787127774916547
3543,-0.016945940344821685
3544,-0.01400122351790039
3545,-0.022499622328304665
3546,-0.03411292655946654
3547,-0.03720397989860853
3548,-0.028775830350446722
3549,-0.017652662483541373
3550,-0.015490333225747638
3551,-0.024637240772023762
3552,-0.035270369939343876
3553,-0.03502796749598477
3554,-0.02170912630624349
3555,-0.006261349564183538
3556,-0.002728451145044759
3557,-0.014760052267518111
3558,-0.03183679869009491
3559,-0.03898070496903559
3560,-0.03064409130574652
3561,-0.01552381612739122
3562,-0.00795802537300299
3563,-0.014450075942276543
3564,-0.028188361698642403
3565,-0.03629969606334728
3566,-0.03227134659835612
3567,-0.02149332878401153
3568,-0.015142855193606995
3569,-0.0190659150604843
3570,-0.028667855888721675
3571,-0.03428871403334888
3572,-0.03106591322951789
3573,-0.023302584456038892
3574,-0.019415014583865155
3575,-0.023144144670756355
3576,-0.030177584565115347
3577,-0.033416734407555146
3578,-0.031085875332737326
3579,-0.02895338766682522
3580,-0.03406833865506908
3581,-0.046358458740793494
3582,-0.05704762791299195
3583,-0.056263827805706136
3584,-0.042808870569617505
3585,-0.026295344687741355
3586,-0.01885483729716876
3587,-0.023855363067254734
3588,-0.0324866058012835
3589,-0.03194362823869343
3590,-0.01779338532653748
3591,0.0012837631056469047
3592,0.01124036022858627
3593,0.005830369221534492
3594,-0.007315096997452886
3595,-0.01368255802316107
3596,-0.0054407097495089915
3597,0.011333340669165972
3598,0.022665851995284984
3599,0.020098806225822257
3600,0.008560572707200797
3601,0.0012378217109810536
3602,0.006679286277631757
3603,0.020765357926631554
3604,0.031081972961877636
3605,0.028893100084311667
3606,0.01671251251220255
3607,0.00446020454418281
3608,-0.001042920787058013
3609,-0.0020926103719789623
3610,-0.005820817592745938
3611,-0.014961098471992475
3612,-0.024107473491867107
3613,-0.025677465275005952
3614,-0.01903411183106268
3615,-0.012567346734884537
3616,-0.015973456622769548
3617,-0.03056719530683436
3618,-0.047825330271352266
3619,-0.057871392098433394
3620,-0.05925297733723306
3621,-0.06010067550807377
3622,-0.0698139210348618
3623,-0.09007330501505406
3624,-0.11413238675110043
3625,-0.13428773328951987
3626,-0.14917741817469476
3627,-0.1637072014124228
3628,-0.18294093502567146
3629,-0.20740024078998381
3630,-0.23452495551512548
3631,-0.2634736635991659
3632,-0.2970745285501312
3633,-0.3389962544307093
3634,-0.3901405726406119
3635,-0.44818357662451463
3636,-0.508452560881326
3637,-0.5610857936917153
3638,-0.5843370718415954
3639,-0.542005628852107
3640,-0.3935267713787492
3641,-0.11477202030468904
3642,0.28412063536011634
3643,0.7571547079009963
3644,1.2365430495582488
3645,1.6487548525433606
3646,1.9214251664170385
3647,1.9861904355662814
3648,1.793235051622209
3649,1.3427220398228323
3650,0.7134178440974361
3651,0.056099119758060215
3652,-0.4619184147049748
3653,-0.7351979628067438
3654,-0.7698386423165433
3655,-0.6674953293744219
3656,-0.5539710093152417
3657,-0.5034959509605577
3658,-0.5101701546705786
3659,-0.5185965080569862
3660,-0.4808844260772964
3661,-0.3933820662440142
3662,-0.2907155043786199
3663,-0.21180475743789373
3664,-0.17066868598650353
3665,-0.15331950480236808
3666,-0.13649070359131643
3667,-0.1080179935765003
3668,-0.07273392809285795
3669,-0.04335053279429764
3670,-0.027554344103166095
3671,-0.02239003226443538
3672,-0.018530192351212154
3673,-0.00893883180045523
3674,0.005632158704042157
3675,0.01816415016341727
3676,0.022024921245307964
3677,0.01708290262952545
3678,0.01012682078545742
3679,0.009021393733732171
3680,0.015491947855417541
3681,0.0231615988004759
3682,0.023223998037844706
3683,0.013014510182057267
3684,-0.0006377753435287924
3685,-0.007078167749024139
3686,-0.0016980257147150967
3687,0.009403040703439468
3688,0.014852559965039574
3689,0.008648314560238846
3690,-0.004280249006613296
3691,-0.013139905841132192
3692,-0.012010174937641387
3693,-0.005526133801678271
3694,-0.003781286510292165
3695,-0.011614402487123272
3696,-0.02321015621337391
3697,-0.027632784996489506
3698,-0.019832563588204444
3699,-0.006056907928144993
3700,0.0018269024341890307
3701,-0.0025144625259215436
3702,-0.014258069769470375
3703,-0.022659539304061126
3704,-0.02158737195329687
3705,-0.014755299912500559
3706,-0.010786059056055257
3707,-0.01369696190032903
3708,-0.018852902152096326
3709,-0.018467824906344105
3710,-0.01064497023226035
3711,-0.00219172347930294
3712,-0.0019177868061760954
3713,-0.011170878367321346
3714,-0.02158327624851181
3715,-0.022889813940944796
3716,-0.01330751898722362
3717,-0.0019249115914626936
3718,-0.00020787043087267085
3719,-0.010653313520216335
3720,-0.023850850853270295
3721,-0.02723889796829685
3722,-0.017316033450829382
3723,-0.0033918576177317944
3724,0.0010164769290583369
3725,-0.008997089941827904
3726,-0.025075956184252
3727,-0.033659564563841435
3728,-0.028943473853752833
3729,-0.018159260562380087
3730,-0.014127440928679704
3731,-0.022508745297083306
3732,-0.03632969938376012
3733,-0.04311510089522238
3734,-0.03747359436277278
3735,-0.02659689533008159
3736,-0.023177148140453765
3737,-0.032742850151182064
3738,-0.04797591374292169
3739,-0.05568335849014103
3740,-0.04958728426117587
3741,-0.03636004137294149
3742,-0.029032931865182625
3743,-0.034361603213432054
3744,-0.046585294384394564
3745,-0.05352771080423168
3746,-0.04870201740741245
3747,-0.03726117950173891
3748,-0.030006505863379718
3749,-0.03175472393766327
3750,-0.036009366660415654
3751,-0.031439164471447414
3752,-0.013641653152893861
3753,0.009811553175778632
3754,0.026416707747811338
3755,0.0310781078595935
3756,0.031462989820891574
3757,0.04084187576123737
3758,0.0652500190210889
3759,0.09750210589169958
3760,0.12393120561234403
3761,0.1372750942341772
3762,0.14319092338524106
3763,0.15424499216791113
3764,0.17750265120594821
3765,0.20788059130146844
3766,0.23341267963728354
3767,0.2467191132368127
3768,0.2511159980286466
3769,0.25559228676517864
3770,0.2642324895354989
3771,0.2710809639919858
3772,0.2656442872008624
3773,0.24331384864603753
3774,0.2100938365855231
3775,0.17696935465708197
3776,0.1497996334173432
3777,0.12497062601255692
3778,0.0948858899912795
3779,0.05719563327420686
3780,0.01797537428173205
3781,-0.014411928824725051
3782,-0.038141970351047695
3783,-0.05986240554176059
3784,-0.08728292162381886
3785,-0.11988176301914713
3786,-0.14758540851789692
3787,-0.15946463639098662
3788,-0.15424157105552722
3789,-0.14215765697900634
3790,-0.13600706479742383
3791,-0.139799048138143
3792,-0.14594537781686456
3793,-0.14356246882554152
3794,-0.12961056480873362
3795,-0.11191065885728785
3796,-0.1012106325321142
3797,-0.10033460570658187
3798,-0.1012947468168752
3799,-0.09330347816127094
3800,-0.07379393525908229
3801,-0.05153658639187046
3802,-0.03867663320116199
3803,-0.03936522839023757
3804,-0.04597768088018912
3805,-0.04651679908068064
3806,-0.03598571475277283
3807,-0.02081285185326657
3808,-0.01229333461284994
3809,-0.015628798100033762
3810,-0.02517211950927834
3811,-0.03019042600347044
3812,-0.025203863475230827
3813,-0.014769946903397902
3814,-0.008344509221757834
3815,-0.01066044212302852
3816,-0.017243093361149188
3817,-0.01930318043807404
3818,-0.012858094399245804
3819,-0.002878304561030609
3820,0.0015900910626421565
3821,-0.0036783676757539433
3822,-0.014065735409122013
3823,-0.02081321649659543
3824,-0.019528814618784248
3825,-0.013920065942053075
3826,-0.011216277202029631
3827,-0.014275298066188014
3828,-0.018680068324920373
3829,-0.01785509724047879
3830,-0.010782422577847103
3831,-0.003986740515685211
3832,-0.005234136085601469
3833,-0.015088234096430321
3834,-0.025151943813203764
3835,-0.02545566120479198
3836,-0.014190503914437219
3837,-0.000173049824963494
3838,0.004809840304343643
3839,-0.003253624310705983
3840,-0.017010029946612867
3841,-0.024749876914475714
3842,-0.021217159243583736
3843,-0.011826048691005626
3844,-0.0065067655920953565
3845,-0.00964228941695129
3846,-0.016217333451683927
3847,-0.017787454134021635
3848,-0.011831288659800918
3849,-0.0046719137935465355
3850,-0.004867645419387084
3851,-0.013911402031520161
3852,-0.024023798038758683
3853,-0.025644363673201748
3854,-0.017169623267072314
3855,-0.006902506906322941
3856,-0.004913764644965625
3857,-0.01285406759285121
3858,-0.0221215861483352
3859,-0.022543571150560285
3860,-0.013035467192991762
3861,-0.003408749986469288
3862,-0.005138061590121435
3863,-0.019959615129735212
3864,-0.03755566937862653
3865,-0.04477237889247933
3866,-0.03751693344142906
3867,-0.02391170984017242
3868,-0.01596405623297207
3869,-0.018233390377752796
3870,-0.02458674961436647
3871,-0.02570895009139293
3872,-0.019215837323731506
3873,-0.011907684504504171
3874,-0.012054230952325655
3875,-0.019969388514464427
3876,-0.02691510618688621
3877,-0.02377912996308104
3878,-0.01079357434609804
3879,0.0017849138829878189
3880,0.0031530253022119523
3881,-0.007569693370996966
3882,-0.02027619224918118
3883,-0.02344441569557263
3884,-0.015091971960303402
3885,-0.004463849283073389
3886,-0.002890413418047336
3887,-0.01282540355788336
3888,-0.025723742231301406
3889,-0.030617507696163993
3890,-0.024768963508518333
3891,-0.015934292565105257
3892,-0.01423566894848348
3893,-0.021916982966498404
3894,-0.031192624961320855
3895,-0.0322090382756873
3896,-0.023060733297961412
3897,-0.011839012310711425
3898,-0.008699569298655714
3899,-0.01587904116464233
3900,-0.025586116036776314
3901,-0.02781263396224717
3902,-0.020244652483864464
3903,-0.010417557358350649
3904,-0.008042308033821534
3905,-0.015236158721781204
3906,-0.02443826130312509
3907,-0.02605217655914098
3908,-0.01809636211279724
3909,-0.008143045311692817
3910,-0.005604018153534381
3911,-0.012172249987856449
3912,-0.02012486882136188
3913,-0.020271010148093602
3914,-0.011527457801395797
3915,-0.0023424625631956815
3916,-0.002347475477336273
3917,-0.012549088303292011
3918,-0.024017082766461934
3919,-0.02657968150253436
3920,-0.018907919107461046
3921,-0.00980774450312294
3922,-0.009271810273220472
3923,-0.018199297110683972
3924,-0.027210414259368716
3925,-0.025972005930943558
3926,-0.013837849118824267
3927,-0.0010753934485727792
3928,0.0008085015009561139
3929,-0.009762343679967252
3930,-0.022820577900945327
3931,-0.026497479733445593
3932,-0.018485263725252755
3933,-0.00804161646658533
3934,-0.006585432730876724
3935,-0.016213399074709863
3936,-0.02752596843547239
3937,-0.02894761468465815
3938,-0.01836209275787396
3939,-0.005575014299918697
3940,-0.0031159808573098264
3941,-0.014311563776540068
3942,-0.03019276747677148
3943,-0.03813596187817743
3944,-0.03373735373795351
3945,-0.02442723671680601
3946,-0.02154503857346171
3947,-0.028869746532349826
3948,-0.0389116972819956
3949,-0.040508115402321625
3950,-0.03013739243504847
3951,-0.015752824607297433
3952,-0.009297600504745044
3953,-0.015142647549033859
3954,-0.025693313827613303
3955,-0.02848791645786234
3956,-0.01801806374996337
3957,-0.0009687785714111495
3958,0.010076926668737305
3959,0.008394053273136446
3960,-0.0008347479532788696
3961,-0.0057141653591314175
3962,0.0011541949186382127
3963,0.01617533055798463
3964,0.028810760589842426
3965,0.03172839615883184
3966,0.02702405661362423
3967,0.022845682277849305
3968,0.024443311032954117
3969,0.028970431497916706
3970,0.029147689108352505
3971,0.021643544745807708
3972,0.01119510872607872
3973,0.00596641842817101
3974,0.008817075145735653
3975,0.013622894045542802
3976,0.010876176150654643
3977,-0.002653708698385738
3978,-0.01985260868049695
3979,-0.029211990901778638
3980,-0.02535788908020882
3981,-0.01399930686541406
3982,-0.00639376816662455
3983,-0.008645633497078756
3984,-0.01630827318419869
3985,-0.019652530204407513
3986,-0.014425005578986898
3987,-0.0072546007136378605
3988,-0.009855804240869404
3989,-0.027272839284081224
3990,-0.051836992222631495
3991,-0.0695763171669921
3992,-0.07369793945664604
3993,-0.07206635344624206
3994,-0.08044013362333774
3995,-0.10690826537736635
3996,-0.14256161628002714
3997,-0.16877332052764754
3998,-0.17564817142896333
3999,-0.17404280665925084
4000,-0.1879701410104754
4001,-0.2327383832798144
4002,-0.29949411775508805
4003,-0.36260099234909837
4004,-0.4043045550249753
4005,-0.4320504163973378
4006,-0.4681337443689047
4007,-0.5178512245218033
4008,-0.5463279036256918
4009,-0.49030577338561
4010,-0.29986151859548055
4011,0.02469635265962606
4012,0.4330603645524128
4013,0.8597655599450533
4014,1.25740401505344
4015,1.5947583900337536
4016,1.825707425236804
4017,1.87159257363406
4018,1.6533397798402438
4019,1.1604759769393325
4020,0.4981194797573345
4021,-0.14137465905742375
4022,-0.5762717064869387
4023,-0.7351630917595481
4024,-0.6839225127737039
4025,-0.5622331888683505
4026,-0.4833089303152597
4027,-0.4739073759706288
4028,-0.4900779525417991
4029,-0.478793434221125
4030,-0.4253999453400589
4031,-0.3526913700279375
4032,-0.28738260702791335
4033,-0.23468284544026222
4034,-0.18336616353076512
4035,-0.12785778459846203
4036,-0.0788458500986394
4037,-0.05140271530923623
4038,-0.046419699270370623
4039,-0.04757582680115902
4040,-0.03731923764169229
4041,-0.013987540251595862
4042,0.00839103743793491
4043,0.01658561209546354
4044,0.01252258851026533
4045,0.010337664532199461
4046,0.02022196825616758
4047,0.03710604177555994
4048,0.04628153522244887
4049,0.039490075488807036
4050,0.024025831340872765
4051,0.015263825141076723
4052,0.02072392471032035
4053,0.032443634423337336
4054,0.03540282378344043
4055,0.02301909990329369
4056,0.0037765810723969836
4057,-0.00743304601710042
4058,-0.0040344860738409085
4059,0.006376195198114266
4060,0.010468063974126435
4061,0.002822819266636553
4062,-0.009061332644260952
4063,-0.013011978077147275
4064,-0.004858070937773629
4065,0.007336512701964056
4066,0.011446535692733358
4067,0.0033293915757083062
4068,-0.00936295408006062
4069,-0.01514238611992511
4070,-0.010153781836456943
4071,-0.001635475558778563
4072,-0.00011029158777702973
4073,-0.008359866004048809
4074,-0.018342494836072365
4075,-0.01917990214471181
4076,-0.008256706118730268
4077,0.005666226641408099
4078,0.010567108763849337
4079,0.002670850235891338
4080,-0.009889249751267346
4081,-0.014883404765477646
4082,-0.007725291162429294
4083,0.00422447739130693
4084,0.008906737983799972
4085,0.0012560711349274775
4086,-0.012020823842439007
4087,-0.019109388753645234
4088,-0.014544431802503734
4089,-0.004230361024638583
4090,0.0007549144244186942
4091,-0.004719869779593284
4092,-0.014855344628565805
4093,-0.01893879991188175
4094,-0.012256521122645081
4095,-0.00094992038334874
4096,0.00405447470099964
4097,-0.0020270122515239145
4098,-0.013001048928103262
4099,-0.01784999445437855
4100,-0.01179466210269867
4101,-0.00124768509178833
4102,0.002318463736384812
4103,-0.006451202382474494
4104,-0.021619749697951808
4105,-0.03184977364836336
4106,-0.031430365583772914
4107,-0.025482004574141064
4108,-0.024295779458903807
4109,-0.032650997156424486
4110,-0.044900071435696104
4111,-0.05070228582376138
4112,-0.045516753466190024
4113,-0.03518132687801705
4114,-0.029911224455001936
4115,-0.03378831950206984
4116,-0.040441171033802625
4117,-0.03942942543780513
4118,-0.02701611610512769
4119,-0.010438199238408863
4120,-0.0011567191727758317
4121,-0.0036021990077320827
4122,-0.010589793980676141
4123,-0.010104979173568496
4124,0.003099625964013012
4125,0.022502335467552367
4126,0.0363461643900445
4127,0.03923119329955299
4128,0.03727043934684612
4129,0.04173425865682799
4130,0.05760899521022555
4131,0.07859941219657894
4132,0.0936658408452373
4133,0.09859347528998133
4134,0.10094054902278111
4135,0.11321316908056149
4136,0.1408251117532794
4137,0.17662364707108186
4138,0.20726923867658298
4139,0.22505307379425687
4140,0.23353518384419875
4141,0.24182535452361723
4142,0.25381118752581844
4143,0.26353491004060703
4144,0.2613632134724823
4145,0.2443832610962766
4146,0.2200924046796058
4147,0.19938208640442626
4148,0.1859027566374384
4149,0.17272438879296037
4150,0.1498005826446473
4151,0.11466495708269273
4152,0.07541343628919214
4153,0.042875061311593146
4154,0.019960932782867452
4155,-0.0008483663412367969
4156,-0.029166078451797337
4157,-0.06591113448392177
4158,-0.10110511977914574
4159,-0.12271325600132989
4160,-0.1278480984274164
4161,-0.12522479385663873
4162,-0.1264949940287659
4163,-0.13516460035038327
4164,-0.14406908309353622
4165,-0.14363514517798842
4166,-0.13229949396461277
4167,-0.11843379706075297
4168,-0.11188376073091136
4169,-0.11383183639791235
4170,-0.11540960809383856
4171,-0.10662124042724745
4172,-0.08667060263197947
4173,-0.06527380348490107
4174,-0.053513438786921656
4175,-0.0532530921030728
4176,-0.05560982540233495
4177,-0.0499982262145981
4178,-0.034765458530238505
4179,-0.01886699498168421
4180,-0.012933907927373426
4181,-0.01861027560611346
4182,-0.02676213674968452
4183,-0.026381605794518134
4184,-0.015417069698010797
4185,-0.0028229639721210472
4186,0.0002431144344656954
4187,-0.008553169694600479
4188,-0.0203244664224247
4189,-0.023582562938102326
4190,-0.015432604125269074
4191,-0.00433672342496387
4192,-0.0016990457946451305
4193,-0.010506865331373056
4194,-0.022190911058505618
4195,-0.02484872725057179
4196,-0.014856284818908907
4197,-0.0005638261260309386
4198,0.00551975712302296
4199,-0.0015248758111110524
4200,-0.014640332449860387
4201,-0.021772447846883165
4202,-0.01719680445643311
4203,-0.006233277947509641
4204,0.000778676336259801
4205,-0.0012401632409095626
4206,-0.00788216638965499
4207,-0.010842313309730733
4208,-0.007035425239712968
4209,-0.001629270713382082
4210,-0.0020068670195973453
4211,-0.009266294140455052
4212,-0.01646916330308277
4213,-0.015752477776148358
4214,-0.006970422007105445
4215,0.0013938302946233019
4216,0.0005084208980212993
4217,-0.009520799755599788
4218,-0.01903964599595152
4219,-0.018084997251936363
4220,-0.006549214980285652
4221,0.0050420910239560145
4222,0.005397078635058481
4223,-0.00643816556518789
4224,-0.01973175468583582
4225,-0.022137964941409714
4226,-0.011635460644650807
4227,0.0012638637469435036
4228,0.0033507486118149674
4229,-0.008718502534783523
4230,-0.025120018730256502
4231,-0.03193163726727626
4232,-0.023898445345780603
4233,-0.008888533207971075
4234,-0.00018735091090198055
4235,-0.004331690912125827
4236,-0.01599492042759421
4237,-0.024158392009794125
4238,-0.02288419539089347
4239,-0.016105508750576966
4240,-0.012381884494198431
4241,-0.015638777632127628
4242,-0.02146759852636069
4243,-0.02239857221371902
4244,-0.0162459143953481
4245,-0.008658568324939504
4246,-0.007224183434036467
4247,-0.013342714358690326
4248,-0.020471092161399626
4249,-0.020793032809671548
4250,-0.01357944775561323
4251,-0.006504515759461782
4252,-0.008162866073342486
4253,-0.019052157279107626
4254,-0.03019377816528012
4255,-0.031224034126523224
4256,-0.020353059498067216
4257,-0.00646168367490366
4258,-0.0010740998480423527
4259,-0.007783191346890456
4260,-0.019241940170753032
4261,-0.024512017830405467
4262,-0.019523398444590317
4263,-0.010493381402469568
4264,-0.007206015268433459
4265,-0.013062478562214628
4266,-0.0218710147178703
4267,-0.024461577870104646
4268,-0.018298068294783143
4269,-0.010258819735085273
4270,-0.009694095652358124
4271,-0.018782130939724376
4272,-0.030067426420817348
4273,-0.03387325041693108
4274,-0.028202704482392937
4275,-0.021008346930035275
4276,-0.022276450122145814
4277,-0.033754469659633635
4278,-0.04679862291020185
4279,-0.050803145304572195
4280,-0.043881411828402724
4281,-0.03486668715722663
4282,-0.03423135637981749
4283,-0.042842507189073564
4284,-0.05010327977588643
4285,-0.04396242191057483
4286,-0.023293788967741987
4287,-0.0002903149584517744
4288,0.01002766658031209
4289,0.0034471936741897885
4290,-0.009694111189093448
4291,-0.014209479548433882
4292,-0.003772227427526048
4293,0.014477996324050273
4294,0.02831585474848089
4295,0.0328248198902471
4296,0.034185340854576654
4297,0.04133301475048518
4298,0.05450795517681507
4299,0.06298970402249793
4300,0.054989846690062266
4301,0.03015695213520064
4302,0.0020626240158936725
4303,-0.012435260319316532
4304,-0.007316962672132698
4305,0.008040041910062216
4306,0.017782004333866612
4307,0.013277867907404763
4308,-0.0010043663481239468
4309,-0.013886012235217737
4310,-0.018788942034066926
4311,-0.018721414618849103
4312,-0.02091390207022078
4313,-0.027680307919977973
4314,-0.033419201000557106
4315,-0.03080441978572662
4316,-0.01945838090253099
4317,-0.007723089637900056
4318,-0.0051930758590017344
4319,-0.013289491589662746
4320,-0.023572600515622988
4321,-0.026051911056571828
4322,-0.019638397793753003
4323,-0.014196273370520426
4324,-0.02149105922672105
4325,-0.043420207030938594
4326,-0.06929272287238561
4327,-0.08563606682588812
4328,-0.0895403372306767
4329,-0.09220874832316178
4330,-0.10830412531878432
4331,-0.14093463387065946
4332,-0.1775360648810698
4333,-0.20199418029345545
4334,-0.21187148310017506
4335,-0.223135270224877
4336,-0.25619200042911094
4337,-0.3161209071004546
4338,-0.3872110183123367
4339,-0.4481633581011979
4340,-0.4921424506266923
4341,-0.5285594897353205
4342,-0.561159054998223
4343,-0.5637206193294342
4344,-0.4822799359092499
4345,-0.2698306262481157
4346,0.07387374194698781
4347,0.49435931136287736
4348,0.9157564475030129
4349,1.2847679623406965
4350,1.5826747614575043
4351,1.7945408832792968
4352,1.871442631021055
4353,1.7352694612490058
4354,1.3376041000709757
4355,0.7271586276749291
4356,0.06012780980228377
4357,-0.4707273128959353
4358,-0.7430297233192865
4359,-0.767905843649626
4360,-0.6626422824178972
4361,-0.55881219661349
4362,-0.5198655019566792
4363,-0.5258592429732778
4364,-0.5216241692533166
4365,-0.47547863593072326
4366,-0.3989668467972525
4367,-0.32273209758219246
4368,-0.26300471339509757
4369,-0.21283795618679005
4370,-0.16008642764874426
4371,-0.10678370897383721
4372,-0.0679554477660015
4373,-0.053535368977818625
4374,-0.05533022088963476
4375,-0.05374533538779565
4376,-0.03659284765283252
4377,-0.009769267057411766
4378,0.010740979555062802
4379,0.016054687242077866
4380,0.012524639198969251
4381,0.0132956365069734
4382,0.023447487120408853
4383,0.03481195474917438
4384,0.035426222205422096
4385,0.022988659877776284
4386,0.007922626704316362
4387,0.0029501539224236323
4388,0.010148999610024374
4389,0.018872161361805605
4390,0.016656730590288247
4391,0.0020979980097621306
4392,-0.013223124896965477
4393,-0.015746878951390417
4394,-0.0031622462359119294
4395,0.012955050782181447
4396,0.017634147691122287
4397,0.006153381052486704
4398,-0.011959707292784286
4399,-0.022074635125275875
4400,-0.01790042037142075
4401,-0.006636066488607791
4402,-0.0013851773359761467
4403,-0.00844950008023566
4404,-0.02165181877779519
4405,-0.028773324369440773
4406,-0.02351383107616936
4407,-0.011317897898952085
4408,-0.0036591411467627264
4409,-0.006693891028171445
4410,-0.015530664083785227
4411,-0.019606684390844342
4412,-0.013599190062999424
4413,-0.0028821759164419443
4414,0.0019068123279127884
4415,-0.004322797895618546
4416,-0.01583578753456831
4417,-0.021672706123694763
4418,-0.016528151219359553
4419,-0.005959357376205907
4420,-0.0006561509097276854
4421,-0.005532242101133969
4422,-0.014682447148365755
4423,-0.01741063964633035
4424,-0.009372605718620822
4425,0.002402225160639969
4426,0.005878819315324143
4427,-0.0042820508839347795
4428,-0.021155645172558447
4429,-0.0316754859256229
4430,-0.028610820416908517
4431,-0.01691990970402157
4432,-0.008575205196014414
4433,-0.011140818940980176
4434,-0.021179617652402675
4435,-0.02849363002034212
4436,-0.02652386482100384
4437,-0.01852827154690271
4438,-0.013788315368026823
4439,-0.018127932985856805
4440,-0.028405761939351237
4441,-0.036243006609348656
4442,-0.03679237357160879
4443,-0.03343079637432077
4444,-0.033679636409601726
4445,-0.04076451245589273
4446,-0.049721562913130304
4447,-0.05228426051557594
4448,-0.04568673605802648
4449,-0.0362541286942908
4450,-0.03367730097777117
4451,-0.041295631785940076
4452,-0.05208092023796226
4453,-0.05473534071178923
4454,-0.0443785329756968
4455,-0.02750437019157344
4456,-0.01616835420842338
4457,-0.016750583298910122
4458,-0.023991232119077374
4459,-0.02597003212616612
4460,-0.015132449645032579
4461,0.005293708469024544
4462,0.025433952073328197
4463,0.03891852727646315
4464,0.04871611410598384
4465,0.0629607404928395
4466,0.08542593010345013
4467,0.11081282697911177
4468,0.13003047279021435
4469,0.14017675146201888
4470,0.14871291898947775
4471,0.16690561845214857
4472,0.19854684753772928
4473,0.2351587733993739
4474,0.2628303860499074
4475,0.2743454915456973
4476,0.27483854924477735
4477,0.2754532764335102
4478,0.2813141476334119
4479,0.2857744315224615
4480,0.2766782613371088
4481,0.24842584151137462
4482,0.20786087585391022
4483,0.16815225262462735
4484,0.13675847329839247
4485,0.10936301500355691
4486,0.07563136045522681
4487,0.030871751387924255
4488,-0.018075968182990107
4489,-0.058508197031893056
4490,-0.08334106770239086
4491,-0.09702654878979856
4492,-0.11025258518131947
4493,-0.12898473445100522
4494,-0.1488496277623533
4495,-0.16024477063676196
4496,-0.1587031768157953
4497,-0.14988089181059916
4498,-0.14413378414370953
4499,-0.14623546003895438
4500,-0.15068143336391854
4501,-0.14737208461232748
4502,-0.1320232036248089
4503,-0.11090497305982273
4504,-0.09516586375244135
4505,-0.09034954815326858
4506,-0.09143077409128544
4507,-0.08815407767076375
4508,-0.0752641011127545
4509,-0.05751561117279041
4510,-0.04470951966430725
4511,-0.041940020971070684
4512,-0.04483047445719919
4513,-0.044329657695476817
4514,-0.036000152045969305
4515,-0.02435147173969863
4516,-0.017939477746257374
4517,-0.020344077259851146
4518,-0.02625917250792697
4519,-0.026692799414087594
4520,-0.01803677897251068
4521,-0.005859253964593728
4522,0.000405110754115793
4523,-0.003437315843078369
4524,-0.01247261240088159
4525,-0.017741825790130485
4526,-0.014974767698186052
4527,-0.008238549244170838
4528,-0.00511496245707217
4529,-0.008664053794589802
4530,-0.014512455373512811
4531,-0.015881939924220823
4532,-0.01105819902329935
4533,-0.005320041167565633
4534,-0.005250239922511971
4535,-0.011461280647522273
4536,-0.017585189954002226
4537,-0.016888517350828455
4538,-0.009745037920258971
4539,-0.003957062579650479
4540,-0.007088539854138889
4541,-0.01834876267670929
4542,-0.02845876645092746
4543,-0.028143388451520236
4544,-0.017123891596564512
4545,-0.00466515739335398
4546,-0.0009064936051870157
4547,-0.007338044509192439
4548,-0.015726863679024254
4549,-0.016504647587002815
4550,-0.008294261017699995
4551,0.0008397270300687469
4552,0.0015824364400897437
4553,-0.007219461331693449
4554,-0.017336906496587867
4555,-0.019359322414994933
4556,-0.01214294360491246
4557,-0.004059028797048215
4558,-0.004725500948726378
4559,-0.01537733391670501
4560,-0.02744091752999157
4561,-0.030797785507060377
4562,-0.02362640995196135
4563,-0.01409807927570722
4564,-0.012221463556131514
4565,-0.019896016105634885
4566,-0.029075360693209526
4567,-0.029943920208595553
4568,-0.021004622524472757
4569,-0.010904125609307234
4570,-0.009911947315018987
4571,-0.019365976355723402
4572,-0.029751023713239875
4573,-0.029779200733163824
4574,-0.01783851882773359
4575,-0.004381787254993547
4576,-0.0023529430947173404
4577,-0.014538544573704432
4578,-0.0301971520563706
4579,-0.03471294039950396
4580,-0.02341325850723816
4581,-0.0063494286569513465
4582,0.0007623641072512394
4583,-0.008968909327696659
4584,-0.02734666778013356
4585,-0.038839324689256396
4586,-0.03476079507069503
4587,-0.020397597080466522
4588,-0.008798699080414599
4589,-0.007977359034196791
4590,-0.014269816711043206
4591,-0.01786246915094116
4592,-0.014076603554527091
4593,-0.008457572464352218
4594,-0.010470024055122523
4595,-0.02256208113786447
4596,-0.03624614556671875
4597,-0.03968100199870158
4598,-0.029372323795872242
4599,-0.01416454697124762
4600,-0.0072473279332699
4601,-0.013848110252662835
4602,-0.026603842117064416
4603,-0.03299828237264233
4604,-0.02739493732865135
4605,-0.01590592508022201
4606,-0.009698576398480666
4607,-0.01378697609476686
4608,-0.022475506871177317
4609,-0.025601417074583695
4610,-0.018905453614357973
4611,-0.008081995819304048
4612,-0.0027779822683174048
4613,-0.006938916962021342
4614,-0.015251927996491287
4615,-0.018968890917499266
4616,-0.01493022544855114
4617,-0.008671018948174533
