,0
0,-0.016924010101474242
1,-0.017706035885845534
2,-0.018508289500409697
3,-0.0188611804583778
4,-0.018386465472905344
5,-0.01791949396885934
6,-0.019486905107843483
7,-0.02442596661674957
8,-0.031233586376719934
9,-0.0357314623243475
10,-0.03425305357085245
11,-0.02732312496303992
12,-0.020106141733208915
13,-0.01848561119657804
14,-0.023902700271143017
15,-0.03179876197910121
16,-0.035532971873460245
17,-0.03245292360459415
18,-0.026413261491507405
19,-0.024128536674536433
20,-0.02865561164461894
21,-0.03630859920619929
22,-0.040207592688544534
23,-0.037193405952809774
24,-0.03130689534396759
25,-0.030144179424492306
26,-0.037371393545081275
27,-0.04869727544037904
28,-0.05549100236743223
29,-0.05280332689002215
30,-0.04406547497310355
31,-0.037787831338101735
32,-0.03935807359412956
33,-0.0459221061324642
34,-0.049387920747544806
35,-0.044597312954346144
36,-0.034551799260936135
37,-0.02744795859682029
38,-0.028414331380282827
39,-0.0341751607348867
40,-0.036031983691785986
41,-0.0283055589861423
42,-0.013913649083846971
43,-0.001551015643159459
44,0.002757495032060078
45,0.0013920937137514384
46,0.0025277199139750153
47,0.011819060539561155
48,0.026635229358621768
49,0.03850926126103049
50,0.04131541327027107
51,0.03709356637865535
52,0.03388993640504439
53,0.037921076785038435
54,0.04785905876870571
55,0.05672245670845855
56,0.059214534224850034
57,0.057061150332057664
58,0.05712333932222877
59,0.06437976376627724
60,0.07689005801268445
61,0.08766045277010981
62,0.091331009111728
63,0.0889020148743461
64,0.08592655411758338
65,0.08630148429276019
66,0.08814608481197964
67,0.08594960776263558
68,0.07666955795983962
69,0.06340917983732569
70,0.05275832436768789
71,0.04831720240473608
72,0.04684959499611659
73,0.04101353089801982
74,0.026195620893132814
75,0.004974415901001401
76,-0.014969683642310248
77,-0.027426532678476764
78,-0.032529402683382926
79,-0.03562838734330802
80,-0.0416905962534065
81,-0.0507937401886725
82,-0.05879275512153993
83,-0.061979212483643145
84,-0.06081041525847202
85,-0.059088781029596985
86,-0.059755093039606716
87,-0.061818998602215625
88,-0.06160230632561866
89,-0.056927466923618816
90,-0.04981455494157842
91,-0.04476296194895586
92,-0.04424615828503031
93,-0.04601692995908058
94,-0.04513879163574093
95,-0.038920732037038
96,-0.029868089189326548
97,-0.023547618120874934
98,-0.0232741128565238
99,-0.026818776023613926
100,-0.028521679673983474
101,-0.02488993250971272
102,-0.018187696614287235
103,-0.014340827145193339
104,-0.0170622432627753
105,-0.023959572296712937
106,-0.02857173441268086
107,-0.02644685377763859
108,-0.019298464924482256
109,-0.013123852937868092
110,-0.01219776294329909
111,-0.015015576654744966
112,-0.01626827814773369
113,-0.01272723462140978
114,-0.006835026293824749
115,-0.0041316229637806436
116,-0.007113525346811449
117,-0.012049544813442434
118,-0.012422354824376952
119,-0.005768111386961653
120,0.0031529699713979866
121,0.006511721161779066
122,0.0011075292819049225
123,-0.00807664230997969
124,-0.012307343196692931
125,-0.007424992477457755
126,0.0020989749733462946
127,0.007463682828766608
128,0.004028606313085172
129,-0.004366022005784887
130,-0.009457121577648418
131,-0.006843682455092011
132,-0.0001742226543576163
133,0.0028841837289091247
134,-0.0013041284132167175
135,-0.008504801847097797
136,-0.010912748969329398
137,-0.005253474380378646
138,0.0035240071421421184
139,0.006778151591578842
140,0.000525515396834776
141,-0.010601355687145146
142,-0.017649138910897005
143,-0.015652145618860094
144,-0.007912439155495976
145,-0.002337873765451394
146,-0.0037207015346961054
147,-0.009569794961897991
148,-0.013283714723865511
149,-0.011109796371578492
150,-0.005805256868429727
151,-0.003502730857218082
152,-0.007176600602784191
153,-0.013400635071015765
154,-0.015661703705789967
155,-0.010919502482770788
156,-0.002911230982993486
157,0.0010795960674046118
158,-0.003080230207976912
159,-0.012567723638352103
160,-0.020206354360702967
161,-0.020909535442344047
162,-0.01591553400286315
163,-0.011061882638304958
164,-0.0110463375641702
165,-0.015250279171950588
166,-0.018943556560630886
167,-0.0184073499625634
168,-0.01481294238172328
169,-0.013045104638888342
170,-0.016664734473166964
171,-0.02401862613965247
172,-0.02944992841269787
173,-0.028625831594313672
174,-0.022907050768709768
175,-0.018427506956075285
176,-0.02054455172634094
177,-0.028838643672375534
178,-0.037480274572013667
179,-0.040725612640505934
180,-0.03832343901614341
181,-0.0355765657135967
182,-0.03790369779553504
183,-0.04514374516055655
184,-0.05123116663208852
185,-0.04971873406944459
186,-0.039875433037639435
187,-0.02742516160163011
188,-0.01918474200147071
189,-0.016851213570547627
190,-0.016014771300441995
191,-0.01124600226699932
192,-0.002017879156010325
193,0.006588040425615066
194,0.009114097184284197
195,0.00552888179799671
196,0.0015907334945242666
197,0.003286411244501351
198,0.010939513118328425
199,0.0189855668343234
200,0.02166682354072757
201,0.018855245341855426
202,0.016062975186451976
203,0.01862286656089601
204,0.025962355442722268
205,0.03178100721803605
206,0.029929979366895766
207,0.020080053051904745
208,0.0076727184147634235
209,-0.0013811575978229732
210,-0.005544651168613482
211,-0.007218771840943418
212,-0.008130224089863951
213,-0.006204701138812742
214,0.0021319211581148443
215,0.016476502710803087
216,0.030050382052062664
217,0.03394568413685739
218,0.024716402183629943
219,0.008046479449985383
220,-0.0055080700042909325
221,-0.009192607413914974
222,-0.005275604774822325
223,-0.0021281434413854567
224,-0.006119351882293059
225,-0.015985857904525554
226,-0.02466824991675768
227,-0.026385418188746082
228,-0.021984635784267285
229,-0.017677354018154595
230,-0.018778692478396815
231,-0.024639214079394598
232,-0.029486829677367033
233,-0.028174632757072562
234,-0.021374535780763218
235,-0.01547066648544659
236,-0.017287875271283754
237,-0.02832686093945875
238,-0.043538053023036864
239,-0.05576183398202364
240,-0.062140230524030574
241,-0.0669982669136148
242,-0.07843924515909302
243,-0.10119068218797539
244,-0.1318486329310718
245,-0.16125553132399056
246,-0.18281953384010335
247,-0.1998380608680725
248,-0.22475800080847771
249,-0.2698745733608941
250,-0.3369432066156889
251,-0.4149039443773385
252,-0.48779720852427483
253,-0.5450567971826132
254,-0.583552344886779
255,-0.598831093970192
256,-0.5747950576988086
257,-0.48445981762726265
258,-0.3047588816403751
259,-0.034215674203562724
260,0.30193669701581405
261,0.6635476210183181
262,1.0125012118574095
263,1.3184379328394518
264,1.5494864372369879
265,1.662071376653171
266,1.6081164791723535
267,1.3623629435688822
268,0.9508691777945363
269,0.4553043358439632
270,-0.01580611644746846
271,-0.3720910556628232
272,-0.5737258192337148
273,-0.6336982709649818
274,-0.5957426870394977
275,-0.5081559607515478
276,-0.40915467797792116
277,-0.3243839982894309
278,-0.26784857909320364
279,-0.24089127826083173
280,-0.2323667168714579
281,-0.22517214888786866
282,-0.20745472624014738
283,-0.17988600579223266
284,-0.1524377082084596
285,-0.1337852945560039
286,-0.12354023226969554
287,-0.11426723964712743
288,-0.10009821505287812
289,-0.08245522888503642
290,-0.06730882416825154
291,-0.0578351465180087
292,-0.050970540936246166
293,-0.04150301333140133
294,-0.028727485638420584
295,-0.017890967850943993
296,-0.014579509164794755
297,-0.018167543687901855
298,-0.02167548779121063
299,-0.018534881967572827
300,-0.00927339268825747
301,-0.0010722632137205228
302,-0.0005827742423234934
303,-0.0074117242020328555
304,-0.014907357305890503
305,-0.017201663017456268
306,-0.015011555094322893
307,-0.01419219835351659
308,-0.018790441967738
309,-0.026159486413764414
310,-0.029478708681629114
311,-0.025127388575841146
312,-0.017082660595567414
313,-0.013437612777702234
314,-0.018326848614726863
315,-0.027528942560131255
316,-0.032504076558616216
317,-0.029038962733714938
318,-0.021752845822598607
319,-0.01965481746429567
320,-0.02696089389824487
321,-0.03840202894900843
322,-0.04402598247567793
323,-0.0390318707418822
324,-0.028911205326526482
325,-0.02454731148596059
326,-0.03180204236243507
327,-0.04572286680030744
328,-0.05514248228059401
329,-0.053289372686468786
330,-0.044096533983905624
331,-0.038103925034003915
332,-0.042071241504655035
333,-0.052532051456378084
334,-0.05949472712716335
335,-0.056397761253270146
336,-0.04633983426537949
337,-0.03852318288105486
338,-0.03872190082416707
339,-0.04346891742648613
340,-0.043735503560858355
341,-0.03424754709775839
342,-0.018990457455744333
343,-0.007428471428818293
344,-0.005338150252334027
345,-0.00943344931937342
346,-0.010958106319361463
347,-0.004374094470938219
348,0.007632159326762464
349,0.017584825531209516
350,0.021212283253856306
351,0.021679978996797345
352,0.02585895497922521
353,0.036702856513916755
354,0.04975258531265407
355,0.05747579582752323
356,0.057070923321554716
357,0.05375209787587433
358,0.05600882476529684
359,0.06736702710080122
360,0.08271871102970914
361,0.09284475643140482
362,0.09277719938283094
363,0.0859974354239888
364,0.08063356837368874
365,0.08158727364803572
366,0.08626010825600705
367,0.08774891578739413
368,0.08196619542195423
369,0.07146766079913236
370,0.062332471260416356
371,0.05753312257480959
372,0.053720430244900357
373,0.04478173990089533
374,0.028541521223742178
375,0.009637577015180221
376,-0.00463206519048216
377,-0.0115237997700766
378,-0.01580019281959014
379,-0.02511003795977681
380,-0.042069177165236914
381,-0.06090838297001275
382,-0.07235174021557134
383,-0.07229748608534188
384,-0.06586802468491498
385,-0.06265255695996166
386,-0.06753818780155622
387,-0.07601781529801357
388,-0.07868231948607612
389,-0.07065731395233436
390,-0.05677827945725788
391,-0.04731315802626676
392,-0.04823917300945282
393,-0.05547696275436165
394,-0.058728638189309804
395,-0.051274954247858655
396,-0.03633428695398691
397,-0.023977010263160993
398,-0.02174067938122269
399,-0.02802838093700504
400,-0.03439053898347175
401,-0.034016336820521145
402,-0.027911948951261402
403,-0.022933216002746386
404,-0.02412929519762904
405,-0.029372969175344488
406,-0.03163372984480227
407,-0.02636009114976571
408,-0.0163194561079037
409,-0.00896162096164199
410,-0.009029808285453658
411,-0.013942596945917232
412,-0.01660976194173671
413,-0.012787695314855236
414,-0.005480358724223429
415,-0.0018767937978334207
416,-0.005871473631009563
417,-0.013740929135047214
418,-0.017480440281148372
419,-0.012658837591039342
420,-0.0030359175217454506
421,0.002759885686877215
422,-0.0005751473432057035
423,-0.009870066273408295
424,-0.0164081781569948
425,-0.01414816156283438
426,-0.005328378635538859
427,0.001877850427927014
428,0.0012567464210454966
429,-0.0057132374179630924
430,-0.011740510608889362
431,-0.011129693795349463
432,-0.005287693419996105
433,-0.0009478503911218929
434,-0.00307065305014882
435,-0.009669163997236213
436,-0.01381077360725454
437,-0.010795143663897265
438,-0.0032574592721745493
439,0.0010516233578810046
440,-0.0032231718098438725
441,-0.013601266585835041
442,-0.021824493515809378
443,-0.02152649321581191
444,-0.014128843122546319
445,-0.007302314138000051
446,-0.007561230998768513
447,-0.01419745767923698
448,-0.020331548680401625
449,-0.019857659294792572
450,-0.013393710768153514
451,-0.007504342755166773
452,-0.0081623609345911
453,-0.014990536635121298
454,-0.02186045778260222
455,-0.02302972411483624
456,-0.018592846209451036
457,-0.013904745277860122
458,-0.013787368354256258
459,-0.01752830781254379
460,-0.019757365286044798
461,-0.016253616886816962
462,-0.008704974590913812
463,-0.0034778282951142504
464,-0.005503946861623561
465,-0.013361481833951704
466,-0.020502595763932173
467,-0.02146800076627839
468,-0.01695411262650428
469,-0.012760839990925796
470,-0.013784948278878082
471,-0.01916167200232141
472,-0.023421545700762186
473,-0.022378367519785572
474,-0.01763351092775036
475,-0.014994243388359089
476,-0.018356113364233873
477,-0.025339616126838566
478,-0.02932126382046501
479,-0.026037964977034353
480,-0.01818027946962812
481,-0.013207150825999978
482,-0.01630334082490254
483,-0.025309106596413937
484,-0.03264465009073058
485,-0.03246144852633219
486,-0.026165394830966464
487,-0.021058283966055906
488,-0.02349930536252763
489,-0.033149936458825816
490,-0.043595712604249076
491,-0.04839341145518518
492,-0.046582904981296004
493,-0.042650795313275584
494,-0.04154990215945671
495,-0.04394913206434441
496,-0.0461119364112035
497,-0.04390522968098965
498,-0.036577859071706374
499,-0.026800431834840086
500,-0.01767042996286021
501,-0.01032046798885524
502,-0.004496329540506468
503,-0.0007291644301325182
504,-0.0008278059726575463
505,-0.005518559156919692
506,-0.011806299936616919
507,-0.013698641152384072
508,-0.006755865658022567
509,0.0074127618995298225
510,0.021400502121480067
511,0.027630574174428723
512,0.024719803453453856
513,0.018723738291385954
514,0.01779355182300741
515,0.0248314491835413
516,0.03471558643174859
517,0.03858870675545418
518,0.03133838699433978
519,0.01567755535281851
520,-0.00042119251054464077
521,-0.010113213020563921
522,-0.012017639038184818
523,-0.009202426570327623
524,-0.004850723307352981
525,0.0005626112560480324
526,0.007970471562409149
527,0.016320302910427867
528,0.02136456154468354
529,0.018553071391835117
530,0.007483629888427488
531,-0.006621807837093956
532,-0.016386834533997634
533,-0.017976780064591337
534,-0.013995902553851119
535,-0.010910294122799185
536,-0.013227220800970307
537,-0.019630272200149318
538,-0.024548255177193806
539,-0.023707299418125393
540,-0.018500357713739073
541,-0.01494741849152171
542,-0.01796208264819283
543,-0.026221900108403903
544,-0.03281148739866369
545,-0.031651730571224626
546,-0.02399321323710563
547,-0.018485128290676254
548,-0.02393138591414499
549,-0.04106551784230664
550,-0.061443351987623386
551,-0.07530392196187319
552,-0.08130518222643301
553,-0.08830646369344247
554,-0.10655015200573796
555,-0.13646754925362953
556,-0.16687989490860072
557,-0.18584653542371526
558,-0.1943365700710898
559,-0.20861988932863512
560,-0.24738302705550763
561,-0.3149350247797237
562,-0.3967292036652139
563,-0.4716710706638481
564,-0.5284178204643788
565,-0.5681378576287619
566,-0.5901070838796214
567,-0.5755649194871003
568,-0.4892179974266131
569,-0.3010674484401953
570,-0.010130888264211529
571,0.35160816816470636
572,0.7374604111604306
573,1.106574489802781
574,1.4254189147567913
575,1.6514126806008127
576,1.723453726381033
577,1.5822521331334818
578,1.2144577274209745
579,0.685583304020766
580,0.1277146882469721
581,-0.3183208669062776
582,-0.5691819464975874
583,-0.6288569199206375
584,-0.5661422932099408
585,-0.46293687473045253
586,-0.37268857698131297
587,-0.3114516290819844
588,-0.2739296638270946
589,-0.251478277723707
590,-0.2377049475095111
591,-0.2255102138774875
592,-0.20697675903719592
593,-0.17945579650498314
594,-0.15009391659368598
595,-0.13091425756414643
596,-0.12730813399348181
597,-0.13148263932871962
598,-0.12854153721149417
599,-0.1100945743717783
600,-0.08218605071632391
601,-0.05963655874292993
602,-0.052256173280594245
603,-0.05622222535029066
604,-0.05853097082634908
605,-0.04960013135058693
606,-0.031674615807829015
607,-0.015537519731323841
608,-0.009665112522761813
609,-0.012736455134105668
610,-0.01622540588887674
611,-0.013575708856634448
612,-0.00648251281410509
613,-0.0024342160673533945
614,-0.006620894169016654
615,-0.016557418047010233
616,-0.02454952799436714
617,-0.02517106476652571
618,-0.020218435233984262
619,-0.016485014830200456
620,-0.018919057903297315
621,-0.026071086305387785
622,-0.03213891829764622
623,-0.03322175340202846
624,-0.03130326052230032
625,-0.03193836701058926
626,-0.03806279624183283
627,-0.046333208099902906
628,-0.049963844847234165
629,-0.04552083575144224
630,-0.03698238635061647
631,-0.03276658294844775
632,-0.038185322335955105
633,-0.0503731063436445
634,-0.060601216016611864
635,-0.06194031519296578
636,-0.055134258488040176
637,-0.04726426341031553
638,-0.044706427065928554
639,-0.04730588614521191
640,-0.049319933771234656
641,-0.04588102176724057
642,-0.03824369771448266
643,-0.03238942055649602
644,-0.03239422698648825
645,-0.035449206031456106
646,-0.03393550561547278
647,-0.022837986292185836
648,-0.0051631267847150955
649,0.010282273735004191
650,0.016872491966942745
651,0.01615340171275431
652,0.01590161871586312
653,0.022176031382962386
654,0.03335368383741956
655,0.042189339699479154
656,0.043788016624743284
657,0.04125020998527091
658,0.042985856216401996
659,0.05419395521900293
660,0.07115514694894616
661,0.08436644789542291
662,0.08761742216009605
663,0.08390785095441886
664,0.0821072149209679
665,0.08761215112233588
666,0.09650007547222375
667,0.09930163586978685
668,0.09075485666517158
669,0.07562958832112635
670,0.06444749075622916
671,0.06308738124127691
672,0.06663319538626244
673,0.06383508480569414
674,0.04804821192631527
675,0.023966187376300303
676,0.0034779761065901545
677,-0.005382829883537724
678,-0.005699170064407416
679,-0.00824016023707955
680,-0.020891566649318058
681,-0.04125843076440537
682,-0.059319191790895204
683,-0.06706803777378739
684,-0.06555484829094453
685,-0.062817444938364
686,-0.06541441700408934
687,-0.072282958815561
688,-0.0767473326680369
689,-0.07404746733743385
690,-0.06641967313264704
691,-0.06067657653646065
692,-0.061070791497210994
693,-0.06490538162398084
694,-0.06531560164685775
695,-0.05825159571712373
696,-0.04652891755492486
697,-0.03695656374794018
698,-0.03361432805335002
699,-0.03413324745045419
700,-0.032631582113734015
701,-0.026153839160081346
702,-0.017957152233400494
703,-0.014248671533022008
704,-0.017649329096658728
705,-0.0240298063598625
706,-0.026067718723853432
707,-0.020192116828068145
708,-0.010140141815563422
709,-0.0035729032670872916
710,-0.0049438163738909
711,-0.011475799248837492
712,-0.016087657857141908
713,-0.014348973416932026
714,-0.008641179284200882
715,-0.00548202783340335
716,-0.008721914711240689
717,-0.015419902787546808
718,-0.01859444582471833
719,-0.01423262676797479
720,-0.005622377595463272
721,-0.0005642968158040643
722,-0.003975804504980101
723,-0.013022208983582306
724,-0.019592275421873237
725,-0.01784969139584729
726,-0.00963683770183249
727,-0.002562996814706426
728,-0.002699824633182963
729,-0.008996565035963962
730,-0.014737508371481897
731,-0.014399227286699269
732,-0.009025660667954408
733,-0.004873272378146536
734,-0.006878891368661686
735,-0.013634567753760958
736,-0.018912835177336024
737,-0.018092406770631286
738,-0.012873883961774598
739,-0.009447639202675948
740,-0.011964013114239985
741,-0.017978959883263774
742,-0.02061166239604123
743,-0.015393216809535048
744,-0.005008153782115184
745,0.002852417843239709
746,0.0025111562859250042
747,-0.004603837478478914
748,-0.011640961014490782
749,-0.012949206522387529
750,-0.009098556981477952
751,-0.005593900619251299
752,-0.006961193382428342
753,-0.012331080548315575
754,-0.01680849186602981
755,-0.01687339959922106
756,-0.014042129832939445
757,-0.013033976834858959
758,-0.016505440484078735
759,-0.02197947422933963
760,-0.024270462155499137
761,-0.020943808959910604
762,-0.015120660288454567
763,-0.01258574421317674
764,-0.0159901288314709
765,-0.022002016368586518
766,-0.02439568907210008
767,-0.02013207160695838
768,-0.012442826041442753
769,-0.007848914614949284
770,-0.010018157925834076
771,-0.016455531009308452
772,-0.021185861310925112
773,-0.02068602379069608
774,-0.017200213954251923
775,-0.016254641172213355
776,-0.0209435246858714
777,-0.028682618661085294
778,-0.03360586612042905
779,-0.032195734218414374
780,-0.02661775850902904
781,-0.02257519489528912
782,-0.023895154476550058
783,-0.029157379052205782
784,-0.03350523129959029
785,-0.03360164482064166
786,-0.030685725781221994
787,-0.028776322931676677
788,-0.030072693292982608
789,-0.03245112092467452
790,-0.031774954823964724
791,-0.02672117830010224
792,-0.021067458337242814
793,-0.02075851784364509
794,-0.028307763833542252
795,-0.03995329450359046
796,-0.048495936150730376
797,-0.04924737268834012
798,-0.043452684634193675
799,-0.03605109654301659
800,-0.030284018185665368
801,-0.024783955588272292
802,-0.016144313827557266
803,-0.004153892453893257
804,0.006164974199066897
805,0.008519477897071826
806,0.0018199380462711463
807,-0.007461148468010098
808,-0.010127115685121254
809,-0.0023155969094474085
810,0.010799789169551583
811,0.019507890852580773
812,0.018349571520739325
813,0.011015178355784
814,0.006698922325623252
815,0.011336781215116077
816,0.021987617696360776
817,0.029520025132001578
818,0.026810714991246147
819,0.01462938483356236
820,5.417410896375234e-05
821,-0.010283251267025822
822,-0.015121131654581711
823,-0.017217714275622516
824,-0.01813890704299569
825,-0.015506629613884064
826,-0.0060238086740533
827,0.00901909882438947
828,0.022188228737013316
829,0.024956086229519663
830,0.015110578406163862
831,-0.0006306892167481481
832,-0.011733823387717394
833,-0.01233833733111549
834,-0.005567489773352052
835,-5.010673510408574e-05
836,-0.002207250973725006
837,-0.011366051842996307
838,-0.021571989363804035
839,-0.02754966317613828
840,-0.02884371046606063
841,-0.028645626701624058
842,-0.02929207066175242
843,-0.029463737102207413
844,-0.0260340580946506
845,-0.018627839917616778
846,-0.012039406006108016
847,-0.013469091789497664
848,-0.02642349071145824
849,-0.04666759258919564
850,-0.06447115824391825
851,-0.0721729141501315
852,-0.07105545257910223
853,-0.07125613075135692
854,-0.08386419210465693
855,-0.11136378344795006
856,-0.14491804563040123
857,-0.17173069226959306
858,-0.18672461600464027
859,-0.19814145400916944
860,-0.2214325287921715
861,-0.26639612660684464
862,-0.32906878510691806
863,-0.39553584138505804
864,-0.45317884070817194
865,-0.49738615955817345
866,-0.5264929768178059
867,-0.5304715724242586
868,-0.48655439895527736
869,-0.3688894446186034
870,-0.1650678025704333
871,0.11517994362177764
872,0.4459949192514072
873,0.7974490965620772
874,1.1386724156033363
875,1.4281804101560174
876,1.6054699345038532
877,1.6028872131923941
878,1.3803436139028844
879,0.9611906471179635
880,0.4391488126334096
881,-0.05576591590749125
882,-0.4137783481686156
883,-0.5888461483506059
884,-0.6043934141538678
885,-0.5246569936057792
886,-0.4162191734269036
887,-0.32341103770424573
888,-0.2641245742698246
889,-0.23724429772662115
890,-0.23104462518927804
891,-0.22953788940170566
892,-0.2191149610387143
893,-0.19538015997188385
894,-0.16535544657749257
895,-0.14140327186207297
896,-0.1305910616823473
897,-0.1286554018802038
898,-0.12427232010981534
899,-0.10964376202702923
900,-0.08728304405759904
901,-0.0667692913486804
902,-0.055218766567160286
903,-0.051106613054740554
904,-0.047097229542349656
905,-0.0381816026697507
906,-0.02642154138199654
907,-0.01777659461661807
908,-0.015027808789157979
909,-0.01467510158646483
910,-0.011089117618291271
911,-0.0032704129063911946
912,0.0032811364791292853
913,0.0019330214100734687
914,-0.007846458856411508
915,-0.018991775544927064
916,-0.023048789126439866
917,-0.01821112937781131
918,-0.011204059435131645
919,-0.010908671319839275
920,-0.01974072231762199
921,-0.03114409889096639
922,-0.0357377146515972
923,-0.03028464730608608
924,-0.020875038636731284
925,-0.017253667591585763
926,-0.02372470231374856
927,-0.03531133684102952
928,-0.04273478213512591
929,-0.041303185561173975
930,-0.035162205262806244
931,-0.032981522823483475
932,-0.03943969653952423
933,-0.05076677603270881
934,-0.058465877412318526
935,-0.05736609012405934
936,-0.05015841351786156
937,-0.04426691737756998
938,-0.044459397976305
939,-0.0485442687646897
940,-0.05014266905586894
941,-0.04542504256355674
942,-0.03695082530583021
943,-0.030905946381984087
944,-0.03074164427278237
945,-0.03372661318234363
946,-0.033837009699441395
947,-0.02795515750887744
948,-0.019036876433056328
949,-0.013010943054415981
950,-0.012536126710837021
951,-0.013973873790659116
952,-0.01078621527466051
953,-0.0001387772666979584
954,0.013837692096823551
955,0.02353489442777969
956,0.02491507955612892
957,0.021344946528036042
958,0.02045085351004538
959,0.026974878122269896
960,0.03851366447964195
961,0.04821770338371044
962,0.05171086575032667
963,0.05134368109523289
964,0.053547145573980846
965,0.061944619963645066
966,0.07319005598867416
967,0.07987538049130914
968,0.0777915919024505
969,0.07033940474752026
970,0.06553641957491038
971,0.06835864040408107
972,0.07586603073505697
973,0.07992248543630347
974,0.07485745912492528
975,0.06254593738747519
976,0.05000573346660332
977,0.04212761533045122
978,0.03699595167640031
979,0.028515174961987275
980,0.013506650276054296
981,-0.00420786132479086
982,-0.017158805579539353
983,-0.02173861979251024
984,-0.022143493721531723
985,-0.02648230169558078
986,-0.03873313151782387
987,-0.05456710303351113
988,-0.06529558124337395
989,-0.06607870862918944
990,-0.06028038151681517
991,-0.05577192243652196
992,-0.057071792110948864
993,-0.06125764374531514
994,-0.06158009928342209
995,-0.05484732479225615
996,-0.04496366138462059
997,-0.039113862802630905
998,-0.04061727171564984
999,-0.04571995213589704
1000,-0.047414143996791516
1001,-0.0422543088200323
1002,-0.03335410400683687
1003,-0.026890469523529456
1004,-0.026003046140588643
1005,-0.028256346487656025
1006,-0.028821740681670094
1007,-0.025677981008277808
1008,-0.021430790844429663
1009,-0.020207376474725626
1010,-0.023177057373739932
1011,-0.027347908773926687
1012,-0.02860694551292532
1013,-0.025631676700145215
1014,-0.020746156244461394
1015,-0.017240354600485633
1016,-0.016242108243148246
1017,-0.016281908645861737
1018,-0.015529773939861952
1019,-0.013910456111137635
1020,-0.012789590470220043
1021,-0.012866945899254372
1022,-0.01294553029697499
1023,-0.011174584723854623
1024,-0.0074589531811502475
1025,-0.004232374155368648
1026,-0.004401766873019256
1027,-0.00832863101475427
1028,-0.012972068086766073
1029,-0.014342861738517995
1030,-0.011111661253463898
1031,-0.005912866181265852
1032,-0.0029849205891704484
1033,-0.004303370498912145
1034,-0.007859223656726904
1035,-0.009709292823086853
1036,-0.0078074877344756835
1037,-0.003925442510651496
1038,-0.0018488360763965097
1039,-0.0036650103370737866
1040,-0.007787659258942292
1041,-0.01060151547990228
1042,-0.010006537303979341
1043,-0.007288411248606347
1044,-0.005498660792683754
1045,-0.006120663927210813
1046,-0.007558550867283645
1047,-0.007066707367545246
1048,-0.0040681969215005465
1049,-0.0012145610641940618
1050,-0.0018083558228194762
1051,-0.00611698234847984
1052,-0.010559391537689951
1053,-0.011006975725325833
1054,-0.007117362130080206
1055,-0.0031927176510157
1056,-0.004270616266207665
1057,-0.011011431669929739
1058,-0.01850793631786933
1059,-0.02055541158057999
1060,-0.015517758757207173
1061,-0.008095173999836024
1062,-0.005083670479393615
1063,-0.009069512248802297
1064,-0.016144318833917395
1065,-0.01989637273944319
1066,-0.017780430509175847
1067,-0.013565829466640426
1068,-0.013386644054064353
1069,-0.0192823426058163
1070,-0.02672147783655489
1071,-0.02876633198639327
1072,-0.022947539945487587
1073,-0.014076674362056644
1074,-0.010038190847544076
1075,-0.01443894342027951
1076,-0.023167619192590132
1077,-0.02824189713081217
1078,-0.025300142615332942
1079,-0.017555166646712403
1080,-0.012453636437970539
1081,-0.014370414102975657
1082,-0.020501475731554936
1083,-0.02394014691235663
1084,-0.02082682349199289
1085,-0.014419601805761247
1086,-0.011952937454980939
1087,-0.017314199383790974
1088,-0.026821594289224787
1089,-0.032461900389879776
1090,-0.029611909559949048
1091,-0.021712431125116526
1092,-0.017165602922285313
1093,-0.02128084379690643
1094,-0.031046626703665835
1095,-0.037914039750756086
1096,-0.036038128870723746
1097,-0.02804312461469613
1098,-0.022675294666363963
1099,-0.02653641999844392
1100,-0.03784209664144993
1101,-0.048171637790233715
1102,-0.050375752707765675
1103,-0.04484709163632811
1104,-0.03812274585991401
1105,-0.035519891270310806
1106,-0.035481490033343666
1107,-0.031508886614631
1108,-0.019737833226818578
1109,-0.0042569062533412885
1110,0.005693915349767651
1111,0.004340765404414526
1112,-0.0046246565373183526
1113,-0.010879291404396016
1114,-0.006772193101225779
1115,0.005744456397871685
1116,0.017244668635605774
1117,0.019937539593345308
1118,0.014931675466976622
1119,0.010758483766487298
1120,0.014863039486956144
1121,0.026467546371968027
1122,0.03748412360090726
1123,0.04003245687836409
1124,0.032916331865702406
1125,0.021164791285057265
1126,0.010178987084253077
1127,0.0012233006014617234
1128,-0.007245621596269699
1129,-0.014790396472710177
1130,-0.017024942328571362
1131,-0.009476063229447083
1132,0.0065342143744931275
1133,0.02266430370898307
1134,0.029275275826600916
1135,0.023183207004835733
1136,0.010057462770710355
1137,-0.0009249537424301888
1138,-0.005072946416053715
1139,-0.005283693582946017
1140,-0.007695687905749797
1141,-0.01465084326960488
1142,-0.02209989938299555
1143,-0.023871294353520693
1144,-0.018319979690214528
1145,-0.010613333928648657
1146,-0.008311563418215932
1147,-0.014464717918746324
1148,-0.024818123432634627
1149,-0.031790538747386576
1150,-0.03153499203982667
1151,-0.027558509039379033
1152,-0.02757343696027908
1153,-0.036468766424312724
1154,-0.05187735347769444
1155,-0.0665271613228689
1156,-0.07536602007898047
1157,-0.08085881315998272
1158,-0.09119176793061301
1159,-0.1125535890591229
1160,-0.14254770861888255
1161,-0.17142264757717493
1162,-0.19085739050675432
1163,-0.20257596982328646
1164,-0.2184197602812804
1165,-0.25107231439339933
1166,-0.30364183987000126
1167,-0.3677299750323272
1168,-0.4312970075526742
1169,-0.4874232221289267
1170,-0.5336886369411302
1171,-0.5617744439290266
1172,-0.5485314739585714
1173,-0.4606205472218571
1174,-0.2725881492532123
1175,0.015501220443839066
1176,0.3755321312380239
1177,0.7644397011659692
1178,1.1384472655635962
1179,1.4542892684837172
1180,1.6600180370361197
1181,1.6940403182969628
1182,1.5076382136696747
1183,1.1031429667075217
1184,0.5581085542105331
1185,0.008299543276885299
1186,-0.4089598917713924
1187,-0.6175821076132231
1188,-0.6308813552529363
1189,-0.5288328052279035
1190,-0.40417885719641655
1191,-0.3155061549349102
1192,-0.27368630318914566
1193,-0.25965105280378087
1194,-0.25118689880993694
1195,-0.23796354666286876
1196,-0.22038803373229757
1197,-0.20167306856093614
1198,-0.18327867338998305
1199,-0.16561876118946717
1200,-0.14958038071849472
1201,-0.13562256020892036
1202,-0.12212830665796132
1203,-0.1062903572765442
1204,-0.08741418960982744
1205,-0.0688345041506288
1206,-0.05554957818602825
1207,-0.04940075267647237
1208,-0.046765061118111025
1209,-0.041534109311979095
1210,-0.03075912746440357
1211,-0.017449541691882675
1212,-0.0077317126933197505
1213,-0.0051568652950192235
1214,-0.007709124928475069
1215,-0.010269665547442807
1216,-0.009841805254753928
1217,-0.008217651671724314
1218,-0.009498103836322196
1219,-0.015132534552722466
1220,-0.02166287156141973
1221,-0.023668074314543507
1222,-0.01917761312997887
1223,-0.01220134759176407
1224,-0.009620951243788802
1225,-0.015078222743477813
1226,-0.025520252067652238
1227,-0.03375197598268419
1228,-0.034782843683374046
1229,-0.03015766560763338
1230,-0.02628115847480101
1231,-0.028341726437063054
1232,-0.035555282290552215
1233,-0.042159974484617155
1234,-0.043095066162998096
1235,-0.038847484088212356
1236,-0.034838392691116805
1237,-0.03608712775495953
1238,-0.04247832152298971
1239,-0.049245340434129585
1240,-0.05198576328840815
1241,-0.05096277359541973
1242,-0.050257487682961635
1243,-0.05273865288289412
1244,-0.05628314336137191
1245,-0.05551536016188691
1246,-0.04756808778946119
1247,-0.03590046391601762
1248,-0.027828249810096187
1249,-0.027749532744050093
1250,-0.03269862925738671
1251,-0.03488516781511625
1252,-0.028993169661785306
1253,-0.017117319213181534
1254,-0.006418601886260188
1255,-0.001858751596076126
1256,-0.001387588744760119
1257,0.0015077122391871137
1258,0.01055707462947461
1259,0.022384543224881082
1260,0.029833693785774443
1261,0.02971314954226006
1262,0.026873181431416426
1263,0.02996873822702384
1264,0.042761681243755886
1265,0.05972881387969715
1266,0.07080990217540567
1267,0.07101445639845129
1268,0.06544567573076936
1269,0.06451388098085077
1270,0.07375734517219272
1271,0.08820604405166149
1272,0.09696128782823515
1273,0.09366818313540834
1274,0.0826775364922677
1275,0.07481994867817976
1276,0.07685757726033891
1277,0.0848702458762818
1278,0.0879777595877358
1279,0.07871395792756573
1280,0.059970530882964265
1281,0.04193402183536579
1282,0.03227361706023843
1283,0.02927474218598478
1284,0.024431418950678484
1285,0.011548313795702005
1286,-0.006890969498584103
1287,-0.022336568338892714
1288,-0.028901496055323047
1289,-0.029283332336489186
1290,-0.03191330560492597
1291,-0.0422548396984347
1292,-0.05704067464912378
1293,-0.06726355732785819
1294,-0.06696888088384585
1295,-0.05912613300449332
1296,-0.05279415231543046
1297,-0.054438733441270856
1298,-0.06196973822105193
1299,-0.06722792426543175
1300,-0.06422067833921045
1301,-0.05484524215356828
1302,-0.04659937928414862
1303,-0.04491411409667178
1304,-0.047995543565026014
1305,-0.049239824940166446
1306,-0.0444376058196173
1307,-0.03618131632750741
1308,-0.030965174820672525
1309,-0.03213928892681565
1310,-0.03618721013761575
1311,-0.03630675977061906
1312,-0.02962290673725014
1313,-0.020486563793376773
1314,-0.01627120610873129
1315,-0.019835195540759958
1316,-0.026375580087417402
1317,-0.028025967953060036
1318,-0.021655962478551866
1319,-0.011988806640444941
1320,-0.006838328315846719
1321,-0.009258363496097172
1322,-0.014563389331958521
1323,-0.015265669615010441
1324,-0.008934460356835965
1325,-0.0009678354859368203
1326,0.0006443173549916579
1327,-0.006593485918858198
1328,-0.016842727231265956
1329,-0.021263648654500776
1330,-0.016338007349792676
1331,-0.007039766180617009
1332,-0.0018131620684218737
1333,-0.004370358473234938
1334,-0.010351525592199472
1335,-0.011989904925541922
1336,-0.006035955133782339
1337,0.002894968689780596
1338,0.0067556694138038
1339,0.0018343495615119733
1340,-0.007723681154502901
1341,-0.013910853187893138
1342,-0.01230292770722758
1343,-0.00574797794652531
1344,-0.0010353052501033259
1345,-0.002188185415224363
1346,-0.007043974328925109
1347,-0.01014931301290205
1348,-0.008601634779424524
1349,-0.004770033044058597
1350,-0.0033528705461596028
1351,-0.006165327651957412
1352,-0.010269921866712307
1353,-0.011379618189988245
1354,-0.008798775616347607
1355,-0.006464899648348494
1356,-0.008742178776657358
1357,-0.015286658996318876
1358,-0.020589706600616438
1359,-0.019168340801468044
1360,-0.011412163984220791
1361,-0.003997425396378657
1362,-0.0039469622240343
1363,-0.011853145741658116
1364,-0.020961547490150945
1365,-0.023299530910455248
1366,-0.01711629793409486
1367,-0.008464989574717295
1368,-0.005374375327891229
1369,-0.010278874942829367
1370,-0.018050915224722564
1371,-0.02140505094038305
1372,-0.018142723570287372
1373,-0.012969450913502524
1374,-0.012184068060478765
1375,-0.01680953291086633
1376,-0.021344117720874342
1377,-0.01957494503794893
1378,-0.011569292228969987
1379,-0.004503995072626773
1380,-0.0060366788183901674
1381,-0.01651628656993065
1382,-0.02783519893574656
1383,-0.030461169537370297
1384,-0.02220309498162603
1385,-0.010402444344458726
1386,-0.005397130742191849
1387,-0.011344634073286706
1388,-0.02288877670625915
1389,-0.03050342252745671
1390,-0.029204304139304985
1391,-0.022471116250582804
1392,-0.01814263884632334
1393,-0.020727126159398406
1394,-0.027606288645373126
1395,-0.03239322934667162
1396,-0.03166112710192023
1397,-0.028271357175156928
1398,-0.028218707175807614
1399,-0.034375150144585614
1400,-0.0434015042108475
1401,-0.0488068756569063
1402,-0.04709329949106574
1403,-0.04101790380546448
1404,-0.036882217803334116
1405,-0.03848385199342103
1406,-0.043450739692094016
1407,-0.04533340057873491
1408,-0.03943176035852955
1409,-0.026980722886378476
1410,-0.014004512974771965
1411,-0.00611347564150014
1412,-0.004081968900723804
1413,-0.004035537565706779
1414,-0.001649499588297495
1415,0.0038364800523843006
1416,0.009474685892821695
1417,0.012097708397002273
1418,0.011733267968791365
1419,0.011534916322313273
1420,0.01445493707330249
1421,0.020184369125056275
1422,0.02553835629930571
1423,0.02783353029847915
1424,0.027605119428566145
1425,0.027614790437337493
1426,0.029038357389119786
1427,0.028991342565012006
1428,0.022586616672696454
1429,0.008162481725715235
1430,-0.009345927369904822
1431,-0.020764121438813943
1432,-0.0193969889272698
1433,-0.006385826342206664
1434,0.010107659393377799
1435,0.021189632280424708
1436,0.02341401652967488
1437,0.019695005312806185
1438,0.014970737049185138
1439,0.011385267232311508
1440,0.00751693544870787
1441,0.001569594491828447
1442,-0.0055744166776178355
1443,-0.010912712470717628
1444,-0.012689616610319211
1445,-0.012616101276838737
1446,-0.01430783046910335
1447,-0.019516528898314726
1448,-0.026188158892327913
1449,-0.030461693344210845
1450,-0.030562993299781432
1451,-0.028611760639178058
1452,-0.028599892285217414
1453,-0.03271773421331789
1454,-0.0397046851144036
1455,-0.04664853127268441
1456,-0.05222432538164984
1457,-0.058219471882137636
1458,-0.06811981950217336
1459,-0.08424860584574417
1460,-0.10588979262865927
1461,-0.12965201344783048
1462,-0.1516182120672307
1463,-0.1699416249409027
1464,-0.18650985092470812
1465,-0.20663380013395155
1466,-0.2365280505105256
1467,-0.2798082730080109
1468,-0.33540002522551754
1469,-0.39847742303287154
1470,-0.4631892241355017
1471,-0.5235956057804017
1472,-0.5705681459934273
1473,-0.5871192384850196
1474,-0.5481217666576785
1475,-0.4280718601562064
1476,-0.21344312282885447
1477,0.08891839519016856
1478,0.45307674926510233
1479,0.8418814277816864
1480,1.2125948337496821
1481,1.5156683939247402
1482,1.6928686108044568
1483,1.6866185406690268
1484,1.464672117920355
1485,1.0479822288432885
1486,0.5199378656145448
1487,0.0032584260264717085
1488,-0.38747292021327895
1489,-0.5914176138992426
1490,-0.6191968666987548
1491,-0.5350794077431806
1492,-0.41801235354111765
1493,-0.32561170421073826
1494,-0.2782956561255386
1495,-0.2654381434032669
1496,-0.26356312913667856
1497,-0.2539505381910291
1498,-0.23147704501403116
1499,-0.20300960368595522
1500,-0.17892025781667475
1501,-0.16415131685756512
1502,-0.15489466934289498
1503,-0.1428791356567547
1504,-0.12337102299503011
1505,-0.09975555183852346
1506,-0.0803933794231782
1507,-0.0705399750382743
1508,-0.06704490190781714
1509,-0.06120284262108341
1510,-0.0472840368384474
1511,-0.028485211743484187
1512,-0.014278548531392909
1513,-0.01149484412349373
1514,-0.01774623123003708
1515,-0.023623589369583524
1516,-0.021530848356459388
1517,-0.012542864757615926
1518,-0.004726702504569111
1519,-0.004841809488412459
1520,-0.011750588567742117
1521,-0.017924680315648596
1522,-0.017247256832512606
1523,-0.011144771403257472
1524,-0.006976538698571776
1525,-0.010466614248382907
1526,-0.019842292495729434
1527,-0.0274936248939077
1528,-0.027422918638220502
1529,-0.021091773979702085
1530,-0.01599376755419022
1531,-0.01848283844727485
1532,-0.027883925522954277
1533,-0.037431425332175874
1534,-0.040825226694675386
1535,-0.037906604470399174
1536,-0.034163693733928496
1537,-0.03498706273522084
1538,-0.04055104107504315
1539,-0.04617725812823148
1540,-0.04738194950507282
1541,-0.044302448147243864
1542,-0.04118365933125202
1543,-0.041789099799454735
1544,-0.045612175766715723
1545,-0.048667655993907946
1546,-0.0477961562486782
1547,-0.04388170455553786
1548,-0.040698362060574755
1549,-0.04075155928030352
1550,-0.04258478191229326
1551,-0.04239769064336624
1552,-0.038219382236937036
1553,-0.03213108938268868
1554,-0.02804391082117509
1555,-0.027266093467417436
1556,-0.02660676850818146
1557,-0.021316257283158453
1558,-0.01011997899242939
1559,0.00284840989419337
1560,0.011549036941963688
1561,0.013807935436712989
1562,0.0136108403971789
1563,0.017342912763678976
1564,0.027404845364949464
1565,0.03949635156156838
1566,0.046502554066573006
1567,0.045440458334262655
1568,0.040713791795143825
1569,0.04032978254757726
1570,0.048563088014736314
1571,0.06209264319153774
1572,0.07330038236822126
1573,0.07743728251626308
1574,0.07664725686490366
1575,0.07708868484538789
1576,0.08231977693569062
1577,0.08973080273584487
1578,0.09349915932920902
1579,0.0907592659382474
1580,0.0844163658742455
1581,0.07965346321703162
1582,0.07791533210965298
1583,0.07494928014919862
1584,0.06530437244073886
1585,0.04876869013650212
1586,0.03180145389462838
1587,0.021861313773485352
1588,0.019914110129986843
1589,0.01874650414923834
1590,0.009322639550472977
1591,-0.010569992206261192
1592,-0.033745032125409816
1593,-0.04985459240725837
1594,-0.05465902324924711
1595,-0.05348079133905189
1596,-0.05552643963606201
1597,-0.06460591886404601
1598,-0.07531194306168572
1599,-0.07842572889967687
1600,-0.0702916427963138
1601,-0.05695167627566218
1602,-0.048857221041783375
1603,-0.05114468086312985
1604,-0.05885409470886628
1605,-0.06177088477903238
1606,-0.054294271381262874
1607,-0.04087039241176206
1608,-0.031797114010147356
1609,-0.033472520458336645
1610,-0.04244288296320255
1611,-0.04883392838272934
1612,-0.04566993594695132
1613,-0.035056248026853226
1614,-0.025509755661787453
1615,-0.02345482913004035
1616,-0.027405715220067316
1617,-0.03032688681047948
1618,-0.02733079423865449
1619,-0.02066051250455355
1620,-0.01695079454441677
1621,-0.019815095576603388
1622,-0.025602990008260447
1623,-0.026849024603286992
1624,-0.01994306673119413
1625,-0.009112541954930485
1626,-0.0025039833478431046
1627,-0.004230314380277446
1628,-0.010438938573235544
1629,-0.013415953406253601
1630,-0.00954868209146099
1631,-0.002989382685939617
1632,-0.0012208014939126346
1633,-0.00703403991868097
1634,-0.01520741320752599
1635,-0.017484007110630823
1636,-0.010965354724436053
1637,-0.0013899276548491014
1638,0.002241633029514572
1639,-0.0034744566953451026
1640,-0.01282287966412938
1641,-0.016433027055272748
1642,-0.010462295212080756
1643,-0.0004632632871904869
1644,0.003922780094986844
1645,-0.0017170111296832317
1646,-0.012335014023734797
1647,-0.01834541017895716
1648,-0.014795469654598548
1649,-0.005820021449803352
1650,-0.00019290596316999086
1651,-0.002575756496508352
1652,-0.009160805161250393
1653,-0.011874119053683928
1654,-0.006772803619996516
1655,0.0017942184768034494
1656,0.005370546487114984
1657,-0.0002693946375395661
1658,-0.010866792629059395
1659,-0.017647394877073647
1660,-0.015571119075176993
1661,-0.0078426997773434
1662,-0.0024762404432812947
1663,-0.004503586174842172
1664,-0.0114948121374434
1665,-0.016547914468229015
1666,-0.015453449102127183
1667,-0.010765159465846
1668,-0.008827555751829076
1669,-0.012968271103107012
1670,-0.019871314913762372
1671,-0.022855956972558766
1672,-0.018756928451418138
1673,-0.011403353058919189
1674,-0.008054725660647081
1675,-0.012238071200586204
1676,-0.020146818830338357
1677,-0.02432099540675572
1678,-0.021066505677912236
1679,-0.014217839732601842
1680,-0.0113490781029192
1681,-0.016049161234258494
1682,-0.023957867750199265
1683,-0.026728919476287638
1684,-0.020272390038434295
1685,-0.009222160056340203
1686,-0.0030523138463190514
1687,-0.007362369245565469
1688,-0.018649104207305645
1689,-0.02759835167970732
1690,-0.02771070249126002
1691,-0.020968815243012216
1692,-0.015265842998771656
1693,-0.01642518123617708
1694,-0.02280021198225117
1695,-0.0275970817521825
1696,-0.026193542612777256
1697,-0.020814008834140016
1698,-0.01786542377287724
1699,-0.0209227951429379
1700,-0.026846914972675356
1701,-0.02919814270010381
1702,-0.025413378875627238
1703,-0.02012638869745794
1704,-0.02085832836044331
1705,-0.030228174914809523
1706,-0.04267287706954586
1707,-0.049324039324609534
1708,-0.046426754056002675
1709,-0.038900637386679524
1710,-0.035318574060511934
1711,-0.03915085206043468
1712,-0.044989404483132045
1713,-0.04365937463300465
1714,-0.03134446542369593
1715,-0.013809097825323764
1716,-0.0015168893502241756
1717,-0.0002694267324912106
1718,-0.006261741162427251
1719,-0.010082839965892964
1720,-0.00559106289442062
1721,0.004831899264457078
1722,0.01330080544415773
1723,0.014302635896170432
1724,0.00965060190214233
1725,0.0060690348972124546
1726,0.008332022785933955
1727,0.014938389521894701
1728,0.020320873478622554
1729,0.0208827828526165
1730,0.01850605920829447
1731,0.01802382108200867
1732,0.021407583291935726
1733,0.02477097220101505
1734,0.02149823958267673
1735,0.008730747185883878
1736,-0.008937507718450883
1737,-0.02218503768804788
1738,-0.023836069961008975
1739,-0.01394767302636109
1740,0.0009701168867385699
1741,0.013333479552230992
1742,0.019462367934400766
1743,0.02026512509936879
1744,0.018160138577298267
1745,0.014031283381661637
1746,0.007202629290886206
1747,-0.002191905834932839
1748,-0.011596348774514306
1749,-0.017313942417554344
1750,-0.01755912257316261
1751,-0.014163287950554066
1752,-0.011117443170760214
1753,-0.011289248353600049
1754,-0.014392910992447331
1755,-0.017929563802339774
1756,-0.019878016249524077
1757,-0.020406180183911833
1758,-0.021146789621121348
1759,-0.023113934316599298
1760,-0.025509730908634086
1761,-0.02651109063736841
1762,-0.025083268966488933
1763,-0.022043993937201307
1764,-0.019557953604599637
1765,-0.019719148095618515
1766,-0.023428429123371758
1767,-0.030228173171673742
1768,-0.03898740339453213
1769,-0.048962759004182024
1770,-0.060633229862689916
1771,-0.07561083847134939
1772,-0.09526699381390304
1773,-0.11886422280552457
1774,-0.1431448948030867
1775,-0.16482317533709906
1776,-0.18476108449281026
1777,-0.20997758334390546
1778,-0.2503005525841379
1779,-0.3109913609577263
1780,-0.3871868113508434
1781,-0.4654450075910257
1782,-0.5314216198768903
1783,-0.5764147642261039
1784,-0.5960983490005363
1785,-0.5827528982088386
1786,-0.5200600702012701
1787,-0.3883818711197754
1788,-0.17822760387001335
1789,0.0998046481995513
1790,0.41845029600208516
1791,0.7476347731302599
1792,1.064593686013705
1793,1.3489425403655666
1794,1.567425493903309
1795,1.6670353168056808
1796,1.5917033486649046
1797,1.317323710147424
1798,0.8802079205715221
1799,0.37416191013316497
1800,-0.08678540730541012
1801,-0.41719725763677373
1802,-0.5897657684463141
1803,-0.6305225395430325
1804,-0.5898563082238311
1805,-0.5131512763824946
1806,-0.42825743077878264
1807,-0.3494571582899547
1808,-0.2857329256276208
1809,-0.24320497016818335
1810,-0.22186025751987765
1811,-0.21351370779819118
1812,-0.20570866909170457
1813,-0.1892556683511214
1814,-0.1632620414853363
1815,-0.13402680029327133
1816,-0.10953643876614134
1817,-0.09415644276949228
1818,-0.08676801891510136
1819,-0.08247496130002964
1820,-0.07603891179110026
1821,-0.06500533640817803
1822,-0.0510008097989769
1823,-0.038392546291484364
1824,-0.030847472869109646
1825,-0.02811517899978981
1826,-0.025906830754036256
1827,-0.019606524781217657
1828,-0.008935847408984088
1829,0.0009021416150862148
1830,0.003356407855542357
1831,-0.003363345051751035
1832,-0.013971176652363455
1833,-0.02025455179795404
1834,-0.018216164869712684
1835,-0.01152970413165793
1836,-0.00786684352803083
1837,-0.011489528013521289
1838,-0.019247560794128236
1839,-0.023895047397157813
1840,-0.021443883691685484
1841,-0.015216781514087927
1842,-0.01248121693488078
1843,-0.016957550849568334
1844,-0.024739568500039846
1845,-0.027915515762360735
1846,-0.022528235330096957
1847,-0.013020076776736288
1848,-0.008533536399838448
1849,-0.014363814577840967
1850,-0.026749473971122643
1851,-0.036160877636103234
1852,-0.03611056953463341
1853,-0.029126862815435643
1854,-0.02417566618941131
1855,-0.028006208896455144
1856,-0.03873300707031689
1857,-0.047783247213949456
1858,-0.048233751646376576
1859,-0.04140168230255439
1860,-0.035325123926100356
1861,-0.03672922912056038
1862,-0.044423740049877675
1863,-0.0505977967873068
1864,-0.04865068195688867
1865,-0.039760884706365435
1866,-0.03170974378441931
1867,-0.0312014442464494
1868,-0.037351564646639884
1869,-0.04275063756042109
1870,-0.040874626451439064
1871,-0.0323198440736711
1872,-0.02370698817938256
1873,-0.02065636838187114
1874,-0.022225947170909865
1875,-0.022505624186522404
1876,-0.017482319544480804
1877,-0.00972545516547016
1878,-0.0057320430610246975
1879,-0.008593180659333174
1880,-0.0138270612510634
1881,-0.01319979387685497
1882,-0.0030524694873560634
1883,0.01135831904431193
1884,0.020328896925815285
1885,0.018950472502970245
1886,0.012034043758331208
1887,0.00968559306790738
1888,0.01774919588506864
1889,0.032478728715744934
1890,0.04459148487285153
1891,0.048498700050745164
1892,0.04742859330964236
1893,0.04945350029565063
1894,0.058698687951941775
1895,0.07083230889587337
1896,0.07746188143318995
1897,0.07490270397187401
1898,0.06827721012740222
1899,0.0666228561029276
1900,0.07382557377704088
1901,0.0844877805890839
1902,0.08894405626570195
1903,0.0824941787840719
1904,0.06972212370994565
1905,0.059695527014745106
1906,0.056920350246472705
1907,0.057077975419963234
1908,0.0517104831081744
1909,0.03706881573782214
1910,0.018232524989428442
1911,0.004375097938872626
1912,-0.00012753530709898558
1913,5.7157134233592295e-05
1914,-0.004194667715106161
1915,-0.017546900011117084
1916,-0.03563240918424301
1917,-0.04914602876295928
1918,-0.05246205254333402
1919,-0.04842306390747833
1920,-0.04496277422854188
1921,-0.04728587563645767
1922,-0.0534134792695231
1923,-0.05715813375275724
1924,-0.05502132542517581
1925,-0.04977467126618194
1926,-0.047189207700902416
1927,-0.04955798629630788
1928,-0.05294161013585831
1929,-0.05116640667450427
1930,-0.04256421660537744
1931,-0.0324686402149644
1932,-0.028627985758995445
1933,-0.033809818885897215
1934,-0.0428130437203829
1935,-0.04691893986680039
1936,-0.041638890449126026
1937,-0.030502978454793682
1938,-0.02153568026323449
1939,-0.020030655217788754
1940,-0.024466891838849626
1941,-0.028977413085361843
1942,-0.029345738659141793
1943,-0.026446152515180225
1944,-0.024116394452263143
1945,-0.024252525235871875
1946,-0.02453384723470888
1947,-0.021158827695262894
1948,-0.01359103393652687
1949,-0.00613143949262881
1950,-0.0043409210232200485
1951,-0.009650650543488395
1952,-0.017532661561458746
1953,-0.021269053812820085
1954,-0.017910763807353514
1955,-0.010808837452774472
1956,-0.006315887432366317
1957,-0.007797156146161013
1958,-0.012617238103372235
1959,-0.014876161860679025
1960,-0.011174010496433111
1961,-0.0038665278698643947
1962,0.0012202833089881098
1963,0.0003047639544361989
1964,-0.004935017110165672
1965,-0.009219549761354907
1966,-0.008826454373964985
1967,-0.004965590076798708
1968,-0.0021865398738782835
1969,-0.0035937805975486325
1970,-0.007742674643917612
1971,-0.010288847823472256
1972,-0.008610966711041178
1973,-0.004608841660025693
1974,-0.0027485192288572284
1975,-0.005318648457680717
1976,-0.009814883328705015
1977,-0.011307295232614617
1978,-0.007555225479482651
1979,-0.0016667288779852892
1980,0.0006076962694850454
1981,-0.003538831310989435
1982,-0.011062936837922126
1983,-0.015904710285357802
1984,-0.014891249746535141
1985,-0.010815821738095328
1986,-0.00947650272014141
1987,-0.013524811622988195
1988,-0.019357261230066633
1989,-0.020425066848229274
1990,-0.01391002143388666
1991,-0.004123581612626919
1992,0.0010179741540300297
1993,-0.0027051146670729167
1994,-0.011771541776983788
1995,-0.018165568042534098
1996,-0.016887289791545707
1997,-0.010500727820292922
1998,-0.006351303544070732
1999,-0.009235649865286594
2000,-0.01672373225738117
2001,-0.021669741582129094
2002,-0.019351004588184458
2003,-0.012156947503485787
2004,-0.007237346970986932
2005,-0.009493337756258362
2006,-0.01683825961912038
2007,-0.02232931815311566
2008,-0.02096163499376303
2009,-0.01439596649099162
2010,-0.00906390932740854
2011,-0.009701317078293456
2012,-0.014804664773999995
2013,-0.018445213128520398
2014,-0.016470861737968627
2015,-0.0107959114769767
2016,-0.007487945410908902
2017,-0.010622221917355398
2018,-0.018102468399312135
2019,-0.023646714973277867
2020,-0.02294883507798922
2021,-0.017853327715847384
2022,-0.014381921439057054
2023,-0.01661130788206603
2024,-0.02255189880183735
2025,-0.026167070594456103
2026,-0.023509334776704607
2027,-0.016809317779710505
2028,-0.012393637705143623
2029,-0.014495303147955226
2030,-0.021145485127436144
2031,-0.0262405175570236
2032,-0.025659371523582383
2033,-0.021236936228469554
2034,-0.018604728322528352
2035,-0.021174164113391864
2036,-0.026493211383173253
2037,-0.028795582389621696
2038,-0.025190863190802226
2039,-0.019110139094100614
2040,-0.017305257625118448
2041,-0.023253409603460243
2042,-0.033583644007215904
2043,-0.04121248325856089
2044,-0.042134295712887536
2045,-0.039074692302142625
2046,-0.03832126399056386
2047,-0.042913183219424805
2048,-0.04907478275485466
2049,-0.0495611688464145
2050,-0.040671567908015016
2051,-0.026027809081156268
2052,-0.013451843621267667
2053,-0.008094777576295023
2054,-0.008511322570190213
2055,-0.009188760263976367
2056,-0.006508173488734904
2057,-0.001905376873186314
2058,0.0007538542372738375
2059,0.00037987960127033394
2060,0.0005738578899005026
2061,0.0059707401074289715
2062,0.016805049083846453
2063,0.027661333356671668
2064,0.03223366310319009
2065,0.029597962866508485
2066,0.025516573177390034
2067,0.026922051696831546
2068,0.03456812091837165
2069,0.04108887734602754
2070,0.036911810578102756
2071,0.0190485977053172
2072,-0.005181662835945996
2073,-0.0230556899930064
2074,-0.025859803779201253
2075,-0.01484697365252198
2076,0.0008648241729835633
2077,0.011865556700905869
2078,0.01462477290281808
2079,0.011617095762574164
2080,0.006806910051556621
2081,0.0017465466152887742
2082,-0.004178135482004139
2083,-0.010770983547389142
2084,-0.015561799272235537
2085,-0.015995403489722892
2086,-0.0128701481605836
2087,-0.010715255442958609
2088,-0.013805112688065356
2089,-0.021425878966630733
2090,-0.027530921409203574
2091,-0.02598924532552122
2092,-0.01685841230406409
2093,-0.007419636155326809
2094,-0.006303728916342214
2095,-0.01579863394279009
2096,-0.029651854160175874
2097,-0.03875274945197089
2098,-0.039474193354670194
2099,-0.03667386905607037
2100,-0.03846518077525877
2101,-0.04806138329080148
2102,-0.06103670008617357
2103,-0.07087042150494241
2104,-0.07694968748981529
2105,-0.08628646020629803
2106,-0.1065065597421607
2107,-0.13707720650768968
2108,-0.1683857187245374
2109,-0.19077736423131064
2110,-0.2051954139801373
2111,-0.22452514089902592
2112,-0.26337243087909723
2113,-0.3254549678168914
2114,-0.40026051986560574
2115,-0.4712512731741171
2116,-0.5262143254468715
2117,-0.5587166690560538
2118,-0.5599981262542286
2119,-0.5120272458147312
2120,-0.39224342755393893
2121,-0.18824615715133972
2122,0.09074746501296371
2123,0.41665069978746816
2124,0.7560538183247818
2125,1.0797708113648488
2126,1.358285576713735
2127,1.550097742771182
2128,1.6015146323848866
2129,1.4684837469444068
2130,1.149152046990081
2131,0.7009727705672295
2132,0.22432143095452917
2133,-0.17985740637839703
2134,-0.45047238578394544
2135,-0.5797709328336995
2136,-0.5974756231480802
2137,-0.5443256461392336
2138,-0.4556266327981365
2139,-0.3597346153888995
2140,-0.280955830321307
2141,-0.23598549942020441
2142,-0.22539375602189995
2143,-0.23144024362038879
2144,-0.22932452124759503
2145,-0.20522322603542864
2146,-0.165980304449332
2147,-0.13159292792965394
2148,-0.1170274245993024
2149,-0.11952189750373565
2150,-0.12219556693018638
2151,-0.10978307094444419
2152,-0.08181148179538153
2153,-0.051834241922183166
2154,-0.03454295146461328
2155,-0.03311792601495833
2156,-0.03786665313678081
2157,-0.0362265852233696
2158,-0.024171769086512508
2159,-0.008774808652280539
2160,-0.0005171867038833702
2161,-0.003250407713738192
2162,-0.01114302568414844
2163,-0.01483948345032866
2164,-0.010438583669372434
2165,-0.0027094006335765504
2166,0.00015402840743473944
2167,-0.005183444275085423
2168,-0.01397732272725374
2169,-0.018226951975656457
2170,-0.014661522524975382
2171,-0.007997407567865614
2172,-0.00628091473318634
2173,-0.012924325521917513
2174,-0.023287166592659343
2175,-0.029158869500180394
2176,-0.026696976280737694
2177,-0.019993262427825856
2178,-0.016831710798283193
2179,-0.020972924415018947
2180,-0.02867396208228524
2181,-0.0327820743859801
2182,-0.03008925463072574
2183,-0.024450808482506053
2184,-0.02262392520276144
2185,-0.027255463762178543
2186,-0.03428534367406408
2187,-0.03737894318118457
2188,-0.03470222792918475
2189,-0.030939740965416775
2190,-0.032401016609415786
2191,-0.04025126599388143
2192,-0.04891415187925536
2193,-0.05142976168147459
2194,-0.046392038639297056
2195,-0.03938438105793715
2196,-0.03737037371028529
2197,-0.04167285747568559
2198,-0.04667570513189472
2199,-0.04563096960936175
2200,-0.037725539983812145
2201,-0.029177970274559862
2202,-0.027074282788313107
2203,-0.03201428541849698
2204,-0.037026080221702166
2205,-0.03411168255564153
2206,-0.02216951367708992
2207,-0.008467356178369198
2208,-0.001994437605058858
2209,-0.004959158825614788
2210,-0.010632651821691427
2211,-0.009683970729980354
2212,0.0010582232670399711
2213,0.01584200551350424
2214,0.02581046346799403
2215,0.027617456012607944
2216,0.026357575882321058
2217,0.02998204292189125
2218,0.04084633027898797
2219,0.05294573519167884
2220,0.05778062400639012
2221,0.053135698934219384
2222,0.04596362634310807
2223,0.046231738118135676
2224,0.057526508959283816
2225,0.07355308366001657
2226,0.08399522657927462
2227,0.08404361289261755
2228,0.07832583652447803
2229,0.07555995049581689
2230,0.07944993133110348
2231,0.08496916781293909
2232,0.08363460779416276
2233,0.07227715170665003
2234,0.056343953780905696
2235,0.04440009029685976
2236,0.03948097946163411
2237,0.03615258218431701
2238,0.02631888870948946
2239,0.007897902075909439
2240,-0.012470837841982083
2241,-0.0255237864105475
2242,-0.028233105294633493
2243,-0.026589104542109707
2244,-0.029538209697064513
2245,-0.040113638883395836
2246,-0.052526743979359775
2247,-0.05800583184602663
2248,-0.053530491274242
2249,-0.04487828399986252
2250,-0.041124476932325356
2251,-0.04609468601475859
2252,-0.055041972042445264
2253,-0.0595055822754513
2254,-0.05536035006146166
2255,-0.0462675701416955
2256,-0.03955412263464533
2257,-0.038966119036961774
2258,-0.04148439267122915
2259,-0.041039549970841895
2260,-0.03508150270811147
2261,-0.027335676481621475
2262,-0.02407997175329562
2263,-0.02775141734413096
2264,-0.03425559424106883
2265,-0.03663428638682523
2266,-0.03152586746618363
2267,-0.022207477555119245
2268,-0.015396852181599661
2269,-0.01500594469230463
2270,-0.018841328183785137
2271,-0.021237689681134105
2272,-0.018831981309301554
2273,-0.01376539139471974
2274,-0.011280178135428795
2275,-0.014237047665242636
2276,-0.020057807613583566
2277,-0.02313221680900002
2278,-0.020297015547528212
2279,-0.013954891507009376
2280,-0.009732184488059178
2281,-0.010968988444040897
2282,-0.015473754123138998
2283,-0.017750051017029263
2284,-0.014498442251951106
2285,-0.007946673712481853
2286,-0.0036947521869050955
2287,-0.005190805381804867
2288,-0.010302872882002182
2289,-0.013382496327546137
2290,-0.010765642556844493
2291,-0.004249534854606499
2292,0.0008660143389957853
2293,0.0011155064699860514
2294,-0.0018639235149868955
2295,-0.0034463490512523817
2296,-0.001287411007400755
2297,0.0017994121832566746
2298,0.0005624791460516702
2299,-0.0069252360110636626
2300,-0.016355114969767437
2301,-0.020426365665073574
2302,-0.015452168269880044
2303,-0.0050014979423928276
2304,0.003075622018826093
2305,0.0035263317701736204
2306,-0.0020277936752509836
2307,-0.007350920888807444
2308,-0.007930208886704114
2309,-0.005050135170396701
2310,-0.003730933274102518
2311,-0.006928149141277632
2312,-0.012120032711202038
2313,-0.013853825429129874
2314,-0.009618321536264702
2315,-0.0029048953148019105
2316,-0.00011867337428634414
2317,-0.004290139097666742
2318,-0.011911349955962741
2319,-0.0161911914294166
2320,-0.013591204395535149
2321,-0.007161013522083424
2322,-0.0033549554963631482
2323,-0.0055367644903871575
2324,-0.010700268577999578
2325,-0.012691217114241468
2326,-0.008658842919151352
2327,-0.0021967829637724806
2328,5.0103137803494e-05
2329,-0.005034845676816117
2330,-0.013839513823067737
2331,-0.019400338332588692
2332,-0.018003739975503082
2333,-0.012495129726298192
2334,-0.00914316597003571
2335,-0.011360002724314887
2336,-0.016614701572154132
2337,-0.019497300079858587
2338,-0.017595213598238752
2339,-0.014039834738303312
2340,-0.014083632587382006
2341,-0.019270587969499292
2342,-0.02532042823244278
2343,-0.026123335250323926
2344,-0.019983977913823493
2345,-0.011808181575127828
2346,-0.008827902918189037
2347,-0.013866586896026416
2348,-0.022670310436537784
2349,-0.027925714427663968
2350,-0.026085231577815553
2351,-0.02042174414449421
2352,-0.017467748472029088
2353,-0.020455513120617004
2354,-0.026223076409069276
2355,-0.028551895590250457
2356,-0.024556699631685962
2357,-0.017788143917049477
2358,-0.014980600837375992
2359,-0.019616540685311115
2360,-0.028576390913269287
2361,-0.035122227966572016
2362,-0.035318332290611
2363,-0.031702274215071075
2364,-0.03071660125349674
2365,-0.03640686570112754
2366,-0.04637831560028547
2367,-0.05371609895796953
2368,-0.05287286589289682
2369,-0.043971689274559134
2370,-0.031846546285886346
2371,-0.021352561233933236
2372,-0.013785543334442464
2373,-0.0075527313637601245
2374,-0.0015679899428194034
2375,0.0028482392390825322
2376,0.0037782686512418118
2377,0.0020198315765375856
2378,0.0017168814158160716
2379,0.006871742310349203
2380,0.016977597229710303
2381,0.02654853273867252
2382,0.029737158214908355
2383,0.025925085376105106
2384,0.020658481178059313
2385,0.020512356143209825
2386,0.026499999688239982
2387,0.03246196228744612
2388,0.0303749218190116
2389,0.017877555185542272
2390,0.000993638230042757
2391,-0.010571132208762973
2392,-0.011238388751980313
2393,-0.0033633555385485106
2394,0.006058379121027627
2395,0.012070946047711882
2396,0.015194257774911313
2397,0.018688603388659727
2398,0.023166563967358986
2399,0.02469438894501601
2400,0.018693722595686527
2401,0.005631077493647619
2402,-0.007768615494141642
2403,-0.01373824887014006
2404,-0.010430558519633457
2405,-0.0037692329325175744
2406,-0.002078679090427072
2407,-0.008487417203468607
2408,-0.01841631585618514
2409,-0.02449524354005714
2410,-0.02387685723745874
2411,-0.020605175319787866
2412,-0.020875318826861874
2413,-0.02640515149603883
2414,-0.03303381009806759
2415,-0.035993127512799664
2416,-0.03599555639560584
2417,-0.03921868500027449
2418,-0.050831727725200455
2419,-0.06900422952330676
2420,-0.08629931019806589
2421,-0.09755985857683244
2422,-0.10599690621445398
2423,-0.12046231145966803
2424,-0.1460967890878206
2425,-0.17813112078770849
2426,-0.20610593531054813
2427,-0.22512449462012665
2428,-0.2428798960415664
2429,-0.2746674697783186
2430,-0.33029162107452475
2431,-0.40478189023412314
2432,-0.48084810321204935
2433,-0.5392304194924064
2434,-0.5658964010930618
2435,-0.5497998481727863
2436,-0.4762066959082704
2437,-0.32606938700439525
2438,-0.08569612054033783
2439,0.24013009099281335
2440,0.6223984538732921
2441,1.013201929252774
2442,1.3560102933660578
2443,1.5932270651064049
2444,1.6714302282703846
2445,1.5519287503352484
2446,1.2302298665178637
2447,0.7547056441178335
2448,0.2260906032750069
2449,-0.2326418198534993
2450,-0.5253224282227511
2451,-0.6226939783838492
2452,-0.5683474009923313
2453,-0.44719991031613365
2454,-0.3377643694145539
2455,-0.2779572045028035
2456,-0.2615578941155372
2457,-0.26007973263273737
2458,-0.24991083327160843
2459,-0.2262019753968068
2460,-0.19867348766746118
2461,-0.17814283177558612
2462,-0.16662917135984798
2463,-0.1577201236236826
2464,-0.14425550113885333
2465,-0.125147874281329
2466,-0.10547245829979246
2467,-0.09075293181725526
2468,-0.08146796103500259
2469,-0.07302187767014745
2470,-0.060866879802280935
2471,-0.04544784545761207
2472,-0.03191177184108727
2473,-0.024826916955931845
2474,-0.023299652401643365
2475,-0.02164266419117168
2476,-0.015162170482848548
2477,-0.0052324845178992555
2478,0.001744108833685755
2479,0.000770353432034986
2480,-0.006346895010944377
2481,-0.012334028587402358
2482,-0.011493899514993694
2483,-0.005434928996495995
2484,-0.0015156838729169489
2485,-0.005337530716186447
2486,-0.014824619724192616
2487,-0.02205426571673876
2488,-0.021209976829769803
2489,-0.014677829389221997
2490,-0.01097850116365076
2491,-0.016399949695664003
2492,-0.02863422513673419
2493,-0.038829909608348985
2494,-0.04007380075896977
2495,-0.033884575064379134
2496,-0.02834646017218953
2497,-0.029939306383745656
2498,-0.03736669196064154
2499,-0.04345355125143814
2500,-0.04286025069691849
2501,-0.03750923827676661
2502,-0.03419152596713364
2503,-0.037059641797724044
2504,-0.04304858922975355
2505,-0.04516213674614024
2506,-0.040240322742998824
2507,-0.0329491857714123
2508,-0.03146457107053031
2509,-0.038935986452904824
2510,-0.0494565895881571
2511,-0.053017527340320086
2512,-0.04492328519327657
2513,-0.03046671199060643
2514,-0.02013073742909876
2515,-0.01984340449561397
2516,-0.025662452693805196
2517,-0.027896993788829937
2518,-0.020458214752149352
2519,-0.006300340667056434
2520,0.006076326414428075
2521,0.011196762463034762
2522,0.011604513204111874
2523,0.014531476122622651
2524,0.0239620715394828
2525,0.036288961383559096
2526,0.04390992328319275
2527,0.04300717333514122
2528,0.037592972499942014
2529,0.03577167850697961
2530,0.04202393000520435
2531,0.05322340919045277
2532,0.0622165847603582
2533,0.06515487543078013
2534,0.06509503785948276
2535,0.06831093174198337
2536,0.0772374342264092
2537,0.08740200637212162
2538,0.09161782253503631
2539,0.08725216673662557
2540,0.0791193699091153
2541,0.07485703986039455
2542,0.07725581363413406
2543,0.0812470465660625
2544,0.0787365863740273
2545,0.06661763477046366
2546,0.04997541795301204
2547,0.03716205410084625
2548,0.031536586147903126
2549,0.02812746947428508
2550,0.018701828844948955
2551,0.0003471457089478478
2552,-0.020973415559542446
2553,-0.03560333262597534
2554,-0.03920581183630317
2555,-0.03682763938069995
2556,-0.038004058931133095
2557,-0.04764181240493606
2558,-0.06150543994835897
2559,-0.07054797491700973
2560,-0.06965948927122781
2561,-0.06224607789561337
2562,-0.05641020658985513
2563,-0.05688211208815163
2564,-0.060848942765470565
2565,-0.06159417304206194
2566,-0.05586547889553097
2567,-0.047276149711230286
2568,-0.042351160797555035
2569,-0.043500101088102205
2570,-0.04633507825857712
2571,-0.044194491308499326
2572,-0.035227731098466254
2573,-0.024677881203020387
2574,-0.019874360865389948
2575,-0.0229360676290214
2576,-0.028620988818781577
2577,-0.02960428293919031
2578,-0.02391580526018337
2579,-0.01698726642469635
2580,-0.01612109116016148
2581,-0.022850575114476822
2582,-0.030904736230562807
2583,-0.031999302620759104
2584,-0.02387381890110574
2585,-0.012657825685628687
2586,-0.00714678074253346
2587,-0.010499199642976308
2588,-0.017403473037142132
2589,-0.019405780873979563
2590,-0.01312404384784915
2591,-0.0033324569052065405
2592,0.0019645188386671884
2593,-0.0005460366607279643
2594,-0.006443973160282407
2595,-0.008341790943771804
2596,-0.0035779513882714365
2597,0.0029465672535074414
2598,0.0037015344218225927
2599,-0.0036595128711811083
2600,-0.013461958019780812
2601,-0.017145405292955128
2602,-0.011460204433746644
2603,-0.0016954654198720683
2604,0.0032842817441223835
2605,-0.0006065274497141487
2606,-0.009045404177739566
2607,-0.013834700157252834
2608,-0.010991410053194584
2609,-0.0043633428063137225
2610,-0.001315846111341802
2611,-0.0050077585011655094
2612,-0.011146920548806533
2613,-0.01250354047942089
2614,-0.006527511527229118
2615,0.0017907973210730906
2616,0.0048570189510688516
2617,0.00024405531122444082
2618,-0.006699774998146597
2619,-0.008270776823276572
2620,-0.0025146513946114825
2621,0.00427650489382453
2622,0.003513486664840181
2623,-0.006972724981028356
2624,-0.020142372761327937
2625,-0.025930824390728982
2626,-0.020616216823407023
2627,-0.010324382053299021
2628,-0.0052332724031349444
2629,-0.01003767178024759
2630,-0.01979818372779215
2631,-0.024990781941436217
2632,-0.02067711437274561
2633,-0.010933693894881118
2634,-0.00454165442464529
2635,-0.006478391927880075
2636,-0.013570906156418646
2637,-0.018246253259942127
2638,-0.016272725436312453
2639,-0.010703911428647003
2640,-0.008333054130370866
2641,-0.012518507445024923
2642,-0.019703348532132146
2643,-0.023053531618275554
2644,-0.019447756972811252
2645,-0.012758762445067216
2646,-0.010135326930035153
2647,-0.01497198479715275
2648,-0.023513236028019205
2649,-0.028427437075777055
2650,-0.025836341199820364
2651,-0.01894457211630742
2652,-0.014803470482167291
2653,-0.017475333911105166
2654,-0.02431966787487276
2655,-0.028959943568881232
2656,-0.027869642312666035
2657,-0.02396802225394907
2658,-0.023623809833927707
2659,-0.03004817584829514
2660,-0.0397073417365231
2661,-0.04546310461065037
2662,-0.04349141925671443
2663,-0.03719251611745365
2664,-0.03412054785392726
2665,-0.03873286955600352
2666,-0.04787692459829201
2667,-0.053357706847831816
2668,-0.04916509542308577
2669,-0.036569791558473036
2670,-0.022503810637641827
2671,-0.013143039131665342
2672,-0.00899659408498732
2673,-0.005918947328074785
2674,-0.0004125936743993875
2675,0.006486859910344147
2676,0.010617464059997143
2677,0.009618051737146697
2678,0.0060040653276762015
2679,0.005067301509538219
2680,0.009731985320963135
2681,0.017692424879657963
2682,0.023814349228537007
2683,0.02533982315457212
2684,0.024502583186820612
2685,0.025773805209681398
2686,0.030498326700525123
2687,0.034520860350643195
2688,0.0315909179550358
2689,0.01958050959654814
2690,0.0035427260761807483
2691,-0.007581604680991494
2692,-0.007865530627485639
2693,0.0012153106594692377
2694,0.012627224450677068
2695,0.019776780845198308
2696,0.020993328729105934
2697,0.018786159330195618
2698,0.015535429781909506
2699,0.010621415136374589
2700,0.0020329178890641005
2701,-0.009628081127080678
2702,-0.019688937906628446
2703,-0.02288290093845682
2704,-0.01866838232458062
2705,-0.012693936370963773
2706,-0.012113690592053451
2707,-0.018795967655318605
2708,-0.0272105092987504
2709,-0.029609691831265203
2710,-0.023777017035483076
2711,-0.015582011386394371
2712,-0.013436398746225445
2713,-0.02000063822378332
2714,-0.02965501271949899
2715,-0.03459445636391164
2716,-0.03336149850942495
2717,-0.03269417358338912
2718,-0.04033831668773212
2719,-0.05627085158135199
2720,-0.07208653149065092
2721,-0.07998520476217724
2722,-0.0821756438828948
2723,-0.09015046698939155
2724,-0.11351494628029848
2725,-0.1496059376494932
2726,-0.18540723025787034
2727,-0.21097705996270893
2728,-0.2310950625309457
2729,-0.26260645199779925
2730,-0.31901966395443326
2731,-0.39701638056264377
2732,-0.4777489084158189
2733,-0.5406397513616527
2734,-0.5747645231011458
2735,-0.5763354480373906
2736,-0.5366966751245491
2737,-0.43631218914714276
2738,-0.2541350595274896
2739,0.015118386083158101
2740,0.35233550052924334
2741,0.7214564144245201
2742,1.0830244413500107
2743,1.3980175169083084
2744,1.6196492810603895
2745,1.6893748726959288
2746,1.5548333052270034
2747,1.2064091766644789
2748,0.7048272471511909
2749,0.17070038393982379
2750,-0.26603689776537703
2751,-0.525751159871789
2752,-0.607613886839404
2753,-0.5706643962085771
2754,-0.4869742518863057
2755,-0.4034040001744327
2756,-0.33429428868365463
2757,-0.278369579901368
2758,-0.2362652943910521
2759,-0.21260328197528622
2760,-0.2066200444293043
2761,-0.20667975396435112
2762,-0.19725030499278245
2763,-0.1718357951993262
2764,-0.13851491721879772
2765,-0.1123353564770932
2766,-0.1019170581269233
2767,-0.10275948660043206
2768,-0.10262570526840802
2769,-0.09291923278508721
2770,-0.07530097403469842
2771,-0.05838543041767261
2772,-0.0488411236614812
2773,-0.04559186125938321
2774,-0.04190466616766564
2775,-0.032540068022742716
2776,-0.01895702636531141
2777,-0.007978363808028459
2778,-0.005483274386593387
2779,-0.010980264122990684
2780,-0.01787489731915247
2781,-0.019123908950465736
2782,-0.013267544766372251
2783,-0.005523601503149035
2784,-0.0029474137629574037
2785,-0.00792482981057446
2786,-0.015859712397023516
2787,-0.019278238048302226
2788,-0.014763514111503187
2789,-0.006391640069163088
2790,-0.002358666763659735
2791,-0.0077063789240836185
2792,-0.019745982052603837
2793,-0.03037266320536735
2794,-0.0331006482753009
2795,-0.028325727841459408
2796,-0.022160769565066702
2797,-0.02037204486394175
2798,-0.023438658452553274
2799,-0.0272630859105562
2800,-0.028248718206745183
2801,-0.027238374844031965
2802,-0.028324776311016688
2803,-0.03404951761629274
2804,-0.042241391429504435
2805,-0.04790885989555762
2806,-0.04821487515663823
2807,-0.04529541213667204
2808,-0.04393387745871982
2809,-0.046496713001860104
2810,-0.050425656533795535
2811,-0.050943080322126084
2812,-0.046185662633490665
2813,-0.03939310049024575
2814,-0.035760251684897576
2815,-0.037078862442508964
2816,-0.039672356528453044
2817,-0.03787296490167924
2818,-0.029668791859474714
2819,-0.018865985079547794
2820,-0.011522647579683446
2821,-0.010122897636326718
2822,-0.01124670701747533
2823,-0.009048843840264338
2824,-0.0011069200740223932
2825,0.009147787210855322
2826,0.015821327941724212
2827,0.016422937915399765
2828,0.014422983587837186
2829,0.015983993831796467
2830,0.0240687068940681
2831,0.035674667970783086
2832,0.04484194335747682
2833,0.04841828745324478
2834,0.0489228988398212
2835,0.05178459369464404
2836,0.05979941752197205
2837,0.07033800443496549
2838,0.07801216232046593
2839,0.08003432436564525
2840,0.07884905199639221
2841,0.07942146817474423
2842,0.08399228302034295
2843,0.0896734930116563
2844,0.09135386626600658
2845,0.08693803199909267
2846,0.0795050453031659
2847,0.07408430512505254
2848,0.07229699418435129
2849,0.07042129920254125
2850,0.06304728701005474
2851,0.04874797116230635
2852,0.03196845447258774
2853,0.01901442627620724
2854,0.011993172514915997
2855,0.006773771236717477
2856,-0.00285518083305554
2857,-0.01882261016927339
2858,-0.0364660334439436
2859,-0.04859086629195461
2860,-0.05197583523817949
2861,-0.050073393875066846
2862,-0.049475831761846494
2863,-0.05378792529668125
2864,-0.060832864967464775
2865,-0.06553221399160125
2866,-0.06515229554209379
2867,-0.06158485469637088
2868,-0.05872772800870796
2869,-0.05812603726402561
2870,-0.057577705218839474
2871,-0.054013399132426844
2872,-0.04735103868770969
2873,-0.04103817364958196
2874,-0.03858059736265707
2875,-0.03969809010822978
2876,-0.04028149087516618
2877,-0.036449504090660015
2878,-0.028681206270469835
2879,-0.02171025729823483
2880,-0.02003138900470236
2881,-0.0233755599899469
2882,-0.02677567600866586
2883,-0.025423918059184723
2884,-0.01965893691215262
2885,-0.014984696166391732
2886,-0.016690514149346962
2887,-0.024063290197481248
2888,-0.030018706910810627
2889,-0.02709881445634283
2890,-0.014598279026773287
2891,-5.19897332233836e-05
2892,0.006764928775647119
2893,0.002174222980878457
2894,-0.00832924916623351
2895,-0.015176024921950021
2896,-0.013299575863952478
2897,-0.006189426414655931
2898,-0.0017338249780343516
2899,-0.004090519904564779
2900,-0.009664594930673006
2901,-0.011154180236949056
2902,-0.005498897649675609
2903,0.0024743126093817285
2904,0.004666911905883361
2905,-0.001895336914222669
2906,-0.011477395033097738
2907,-0.014849639476909314
2908,-0.008382320297051913
2909,0.002109924072742724
2910,0.006911740475138012
2911,0.002065839991867381
2912,-0.006481667509397692
2913,-0.008588968477368031
2914,-8.978305759398033e-06
2915,0.013102382388752547
2916,0.019789652738878304
2917,0.014548636860832048
2918,0.002212106020049574
2919,-0.0071130553679373985
2920,-0.007763588548857717
2921,-0.0032151956478153076
2922,-0.0014553427438353372
2923,-0.006224328781351509
2924,-0.013242705621548879
2925,-0.015091320439419536
2926,-0.009385065265084211
2927,-0.0015987362734348597
2928,0.00039751912620411556
2929,-0.005616663995886707
2930,-0.013943359355581783
2931,-0.01682005661113706
2932,-0.012348763706312169
2933,-0.006333309155997691
2934,-0.006150966795671144
2935,-0.012991589923243363
2936,-0.02050098987285173
2937,-0.021320224440879696
2938,-0.014886781554479176
2939,-0.008432843399174925
2940,-0.009891419417016937
2941,-0.019635470670338242
2942,-0.02938468904537233
2943,-0.029718128841996757
2944,-0.01916090674838993
2945,-0.0060811205482905785
2946,-0.0013817864433174508
2947,-0.00871843167068467
2948,-0.021333580948977346
2949,-0.028372750790113768
2950,-0.024713201164735268
2951,-0.015236201692482942
2952,-0.009865271278803104
2953,-0.014309407033356925
2954,-0.025175069240835794
2955,-0.03367667464289121
2956,-0.03403492748603086
2957,-0.028532672714265073
2958,-0.0247418353673347
2959,-0.027977184269583316
2960,-0.03633387759476271
2961,-0.0428552498125455
2962,-0.04242653923823259
2963,-0.03662899957149699
2964,-0.03200357609703132
2965,-0.03358509900571596
2966,-0.03995434859806623
2967,-0.044393838026941565
2968,-0.04087852105916914
2969,-0.02927125494909587
2970,-0.015180722667161466
2971,-0.005084060763998055
2972,-0.001439592795758999
2973,-0.0019067385359368579
2974,-0.002522632813980218
2975,-0.0011835588462382513
2976,0.0017316224213170933
2977,0.005294984939447666
2978,0.00965472954754874
2979,0.015389832085272677
2980,0.02169406960012716
2981,0.026109153426536295
2982,0.026782585472414123
2983,0.024999979305417433
2984,0.024754681366280708
2985,0.02887352045794323
2986,0.03514446635367889
2987,0.036763030259209836
2988,0.027760653959827897
2989,0.009061479533211108
2990,-0.010578177152624524
2991,-0.020395849620523824
2992,-0.015722362119472748
2993,-0.0014458037249904592
2994,0.012199133187860433
2995,0.017760353211861445
2996,0.015454711634974102
2997,0.010888767093680793
2998,0.0084990430739638
2999,0.007411658659133317
3000,0.0035771621397190766
3001,-0.004549284017152488
3002,-0.013153730016264856
3003,-0.016364736458785722
3004,-0.012416028736751208
3005,-0.006083497898971162
3006,-0.004453616410008707
3007,-0.010045395872240999
3008,-0.01830660960589868
3009,-0.02218331196515521
3010,-0.01915146013774816
3011,-0.013489858382381863
3012,-0.011570681033618718
3013,-0.015345362926323582
3014,-0.021056326335435374
3015,-0.024394457268760914
3016,-0.0261214789394768
3017,-0.03159554822931662
3018,-0.044540733113926374
3019,-0.06220077286473376
3020,-0.07786045504813793
3021,-0.08844516043797312
3022,-0.09864994471314902
3023,-0.11628814667688238
3024,-0.1433620520960758
3025,-0.17295123776697005
3026,-0.1964840599688168
3027,-0.21453791546659579
3028,-0.23940548522719168
3029,-0.28535773661647035
3030,-0.35527798999141114
3031,-0.43649804447208995
3032,-0.5093357995967882
3033,-0.5587466672252075
3034,-0.5768554715805744
3035,-0.5549942826955963
3036,-0.47635120493172955
3037,-0.3203974390785572
3038,-0.0774100657764332
3039,0.24024449290931504
3040,0.6005683235099974
3041,0.9640327027616061
3042,1.2913016428432043
3043,1.5393644846162913
3044,1.6557426764969878
3045,1.587979201214698
3046,1.3126407756618974
3047,0.8652637433015282
3048,0.34341379618370116
3049,-0.12837361573538525
3050,-0.45310970214613666
3051,-0.599983936210827
3052,-0.6035436118151232
3053,-0.5295962225138681
3054,-0.43590001796151306
3055,-0.3528926128777482
3056,-0.28849778474534515
3057,-0.24242679263253575
3058,-0.21412963250857417
3059,-0.20109758803094022
3060,-0.1954654461164198
3061,-0.18650447151273894
3062,-0.16786972896281582
3063,-0.14221686479363488
3064,-0.11829826919030709
3065,-0.1031920562644216
3066,-0.09670826777916637
3067,-0.09241206382277131
3068,-0.0835294909219997
3069,-0.06830629849101949
3070,-0.05077633881641343
3071,-0.03710181541772208
3072,-0.030805372729854827
3073,-0.0304069538195096
3074,-0.030869813774321263
3075,-0.027584678938865667
3076,-0.019908344194699078
3077,-0.01151902719578497
3078,-0.0071718420718078
3079,-0.008447323651437185
3080,-0.012264635871070264
3081,-0.013737887978583375
3082,-0.010887831782557296
3083,-0.006616372578787823
3084,-0.005714537359489944
3085,-0.00964635089480122
3086,-0.014472579607703932
3087,-0.014471659346729681
3088,-0.008189175799531476
3089,-0.0007268263697422159
3090,0.0005460305667057538
3091,-0.006958686537471339
3092,-0.018213719774086125
3093,-0.025072834276790145
3094,-0.023928373490879434
3095,-0.0190075972608462
3096,-0.017968471116613594
3097,-0.024138187717055767
3098,-0.033169035330699446
3099,-0.037488168594305406
3100,-0.03404918155238044
3101,-0.027517040250101585
3102,-0.025605966087847754
3103,-0.031249322336820387
3104,-0.039551168080979845
3105,-0.04269754269139377
3106,-0.03795492338458059
3107,-0.030667510385370262
3108,-0.02907596815613606
3109,-0.03596962666044809
3110,-0.04548569838763376
3111,-0.04843713232812971
3112,-0.04118365497651387
3113,-0.029467545874853163
3114,-0.02336440906287033
3115,-0.027987792658406625
3116,-0.038651794628325346
3117,-0.04498110712029374
3118,-0.0400703863864357
3119,-0.026232645516822514
3120,-0.012315217773269209
3121,-0.005509515258231322
3122,-0.005433802387664969
3123,-0.005654100241936584
3124,-0.0005700984330628092
3125,0.009227848865835945
3126,0.01805229199844884
3127,0.021106401143644586
3128,0.019250247659748754
3129,0.01800904994447005
3130,0.02211389826278653
3131,0.031092846212833307
3132,0.04008602292850999
3133,0.044769688586385976
3134,0.04538540866642049
3135,0.04606902420924962
3136,0.05049320357563357
3137,0.058360130845420466
3138,0.06612615962622623
3139,0.0709077475905738
3140,0.07338239462079318
3141,0.07673249134328478
3142,0.08286255256661051
3143,0.08991679848323783
3144,0.09372696406829582
3145,0.09173265784230121
3146,0.08535232279459382
3147,0.0783547742956211
3148,0.07288143880983304
3149,0.06721392765983297
3150,0.05765529030287505
3151,0.0427043728612549
3152,0.025280627965689896
3153,0.01059845717288536
3154,0.0016167633327093915
3155,-0.003517685039036382
3156,-0.009496478369287981
3157,-0.019251349872024322
3158,-0.031224737553799325
3159,-0.04112983128528043
3160,-0.04633364130424256
3161,-0.04839186980576021
3162,-0.05117790186868605
3163,-0.056570400367315296
3164,-0.062204400716292824
3165,-0.06372395045358187
3166,-0.059345051829504475
3167,-0.05206101980327555
3168,-0.04709552594796391
3169,-0.047006511837465834
3170,-0.049301520400880684
3171,-0.04898218603774128
3172,-0.04350617444583218
3173,-0.03523242428825926
3174,-0.028985235465578886
3175,-0.027326053437897523
3176,-0.028386318690025586
3177,-0.028366478530218245
3178,-0.025892718577610194
3179,-0.023472683401026692
3180,-0.024390564559549882
3181,-0.028346866779726417
3182,-0.030738905234721316
3183,-0.0268498969502038
3184,-0.01696059256341319
3185,-0.006996686920038887
3186,-0.0034975400643671847
3187,-0.007455722891308341
3188,-0.013097594992550964
3189,-0.013150932820211002
3190,-0.005809329370039511
3191,0.0033064581006537787
3192,0.006292828135822298
3193,0.0004904193210283151
3194,-0.008780702532698763
3195,-0.013025019360262333
3196,-0.008484149311837854
3197,0.0003226103982683765
3198,0.004831600490626423
3199,0.00046502560217927084
3200,-0.00913999566151354
3201,-0.01566689201594469
3202,-0.013952349009212573
3203,-0.006571560453463604
3204,-0.0008538008907642562
3205,-0.0014103347475386842
3206,-0.005628155116258018
3207,-0.006610658368488638
3208,-0.0006052072492741143
3209,0.00861422610810577
3210,0.013020778680389825
3211,0.00822680419840861
3212,-0.0018518233058804445
3213,-0.008436645671353665
3214,-0.006306173708632472
3215,0.0010651110939387328
3216,0.00489639278628928
3217,-0.00012491407664035536
3218,-0.01032297589570107
3219,-0.016387904883344673
3220,-0.012484238973832513
3221,-0.0021616012732563446
3222,0.004888221916489439
3223,0.002180096333484212
3224,-0.007261086282261516
3225,-0.01386012646447082
3226,-0.010808616001425776
3227,-0.0005891290153405381
3228,0.0075945704069971115
3229,0.006732501691307306
3230,-0.0016433007226902406
3231,-0.009757314125021916
3232,-0.011796002394720532
3233,-0.009471668400725941
3234,-0.009402922895229787
3235,-0.015348117007265481
3236,-0.023603352408563594
3237,-0.02648149973386427
3238,-0.020315122282321647
3239,-0.009659685467142987
3240,-0.00322254139720722
3241,-0.005528282272072008
3242,-0.012726240350897665
3243,-0.016755901241986983
3244,-0.013615163725815177
3245,-0.007363777570889652
3246,-0.0058751609239172005
3247,-0.012704074857726285
3248,-0.0232875556506384
3249,-0.029242401237852586
3250,-0.026387346472559456
3251,-0.018521689008948572
3252,-0.013408257798013221
3253,-0.015207809575773003
3254,-0.02092902160809876
3255,-0.02415347833536823
3256,-0.021933063979300563
3257,-0.017781554523621984
3258,-0.017885455461652582
3259,-0.02457620191072305
3260,-0.033737510973005425
3261,-0.03870189002996009
3262,-0.03665930269286782
3263,-0.031225109804867323
3264,-0.028789925740357887
3265,-0.03242851425302344
3266,-0.03932964954264405
3267,-0.0439539781254053
3268,-0.04340754743065933
3269,-0.03957977583653586
3270,-0.03619045024940392
3271,-0.03419565512818774
3272,-0.0305987611342071
3273,-0.022043389860478206
3274,-0.009420523097330106
3275,0.0016069143283341124
3276,0.005301876529769763
3277,0.0015181490216176667
3278,-0.003338831343799168
3279,-0.001530754472850844
3280,0.009077985882313181
3281,0.022782167579941795
3282,0.0308088466435832
3283,0.028966457915212043
3284,0.021284042241446845
3285,0.016356261666913514
3286,0.01974363260418258
3287,0.029262053605037003
3288,0.03714939668148805
3289,0.03673971619260869
3290,0.02745984051322633
3291,0.014111345021133617
3292,0.0020901382534310987
3293,-0.006296445023340451
3294,-0.011199218997511182
3295,-0.01209299321071966
3296,-0.006620593181449529
3297,0.006600463111094932
3298,0.02415034453646247
3299,0.037814978157102976
3300,0.039806985866981046
3301,0.029044880194764637
3302,0.01252614226800201
3303,-2.32603333492681e-05
3304,-0.0037429956364063858
3305,-0.001737174615351415
3306,-0.0010841678970569273
3307,-0.005787708958419496
3308,-0.013398591745310343
3309,-0.018243365166986852
3310,-0.017689256198403093
3311,-0.015025014200256143
3312,-0.01605565726312013
3313,-0.02286309495627382
3314,-0.031114345557061163
3315,-0.033914927134214665
3316,-0.028752093528144028
3317,-0.020795047308589075
3318,-0.018997839665798266
3319,-0.028251202725558575
3320,-0.044870039595740846
3321,-0.059971060132482074
3322,-0.06800788358129525
3323,-0.07255667064753442
3324,-0.08348833141648673
3325,-0.10754649616903118
3326,-0.1409917486462789
3327,-0.17183565567687273
3328,-0.19061595013059163
3329,-0.20025056051353574
3330,-0.21546254903366402
3331,-0.25140237907250473
3332,-0.3112489623553798
3333,-0.3838370061463282
3334,-0.45287872271314566
3335,-0.507974786550776
3336,-0.545836949924215
3337,-0.5604654147397607
3338,-0.5334987390886707
3339,-0.43748540656694423
3340,-0.2526831356662629
3341,0.016316741487132965
3342,0.33941459021507836
3343,0.6765551519937094
3344,0.9950399281018194
3345,1.271958964719308
3346,1.4809154345259021
3347,1.580317352984084
3348,1.521997651563042
3349,1.280464111456633
3350,0.881398976924916
3351,0.40423912374296467
3352,-0.04742366184240144
3353,-0.38885016078749407
3354,-0.582775701635257
3355,-0.6395672116637587
3356,-0.597164923033269
3357,-0.49985067978107556
3358,-0.3874105035331477
3359,-0.2918548029300264
3360,-0.23333389569445068
3361,-0.2139290347930503
3362,-0.21683255255245804
3363,-0.2170463359987928
3364,-0.19860315991894667
3365,-0.1648048667405943
3366,-0.13247778097210622
3367,-0.11546403337519946
3368,-0.1124994640763192
3369,-0.1101324582906347
3370,-0.09675408166459591
3371,-0.0735687359952317
3372,-0.052261751841194734
3373,-0.04271765390598684
3374,-0.043569861687316275
3375,-0.04461048255331787
3376,-0.03769535801892446
3377,-0.02459201485746834
3378,-0.014126220913568292
3379,-0.012315426061704117
3380,-0.016085110241992148
3381,-0.016908620672269975
3382,-0.010178663752098024
3383,-0.0003210695764246969
3384,0.0036685552548845943
3385,-0.00242881254520609
3386,-0.013495786704287948
3387,-0.019965696154788142
3388,-0.017139847661361153
3389,-0.009493921276775466
3390,-0.005744471990036012
3391,-0.009849836883570991
3392,-0.017140292699024236
3393,-0.01943238507519687
3394,-0.013805044096116142
3395,-0.006013121699189439
3396,-0.00497158615920203
3397,-0.013792241397013658
3398,-0.02636645800699377
3399,-0.03297295773760618
3400,-0.029418953353976523
3401,-0.02076832415125913
3402,-0.016145833079052433
3403,-0.01992139125207556
3404,-0.02798580804559667
3405,-0.03255091129252173
3406,-0.030355284862312593
3407,-0.02590064668648827
3408,-0.02653440906838165
3409,-0.034504671024150946
3410,-0.044176481578918125
3411,-0.04738045505283048
3412,-0.041636790113660865
3413,-0.033001104053664555
3414,-0.03051256416315024
3415,-0.037509511007748
3416,-0.0482348862596164
3417,-0.053079421380789506
3418,-0.04747675887964829
3419,-0.03598177256843769
3420,-0.02774952417687079
3421,-0.027868239270515502
3422,-0.032829861577773053
3423,-0.034280483996334765
3424,-0.02723128821412136
3425,-0.014818329762587904
3426,-0.005243035458832205
3427,-0.004071583411716613
3428,-0.009299947376071515
3429,-0.013625737109105812
3430,-0.011351405701558778
3431,-0.0031511441745353777
3432,0.00557494029052846
3433,0.010607038437407929
3434,0.012970596898046444
3435,0.01729347897682484
3436,0.026502754924907654
3437,0.038482724274999124
3438,0.04808624908341329
3439,0.05230288284694039
3440,0.05318815996547546
3441,0.05555160409089678
3442,0.06185716626304984
3443,0.0696804665384046
3444,0.07441205837253265
3445,0.07440863780388812
3446,0.07312918296834518
3447,0.07577711641414504
3448,0.0836579689201008
3449,0.09204613989803712
3450,0.09405499322046673
3451,0.0869898312711686
3452,0.07497418086449367
3453,0.06511617570585401
3454,0.06080493363319091
3455,0.058623478994098394
3456,0.05187655650110905
3457,0.03724771173067275
3458,0.018051046253772157
3459,0.0009802935855766045
3460,-0.010250782849572166
3461,-0.017951065368890733
3462,-0.027223233780850703
3463,-0.039956125169817835
3464,-0.0523792104663815
3465,-0.05882450243014205
3466,-0.05784304405535989
3467,-0.05421211722491061
3468,-0.05445791316792373
3469,-0.06024725023541158
3470,-0.06645685113033936
3471,-0.06619737552061736
3472,-0.057969946342940185
3473,-0.04769469725876063
3474,-0.043267572143735694
3475,-0.04681962137690922
3476,-0.0523944067973306
3477,-0.05157609729744571
3478,-0.041711647054447104
3479,-0.028663202534944504
3480,-0.021333060822226406
3481,-0.023322262419596583
3482,-0.0299100626399987
3483,-0.03320353494021784
3484,-0.03013621657197725
3485,-0.025209158103567025
3486,-0.025282568032963353
3487,-0.0318612144720112
3488,-0.038908097128201
3489,-0.038597733944476596
3490,-0.02926413234241854
3491,-0.017418609160111252
3492,-0.011607739458659163
3493,-0.014145924635786823
3494,-0.01901077451543908
3495,-0.01807319019085086
3496,-0.009448575277559896
3497,0.0004480293399544608
3498,0.003302201405493712
3499,-0.002580931257059493
3500,-0.010198810059744403
3501,-0.010456589344047213
3502,-0.001083766835205488
3503,0.010876674933176102
3504,0.015518899928565765
3505,0.009291100104284923
3506,-0.0018339716272775097
3507,-0.008134965320662083
3508,-0.005164765146357364
3509,0.0026027545810038306
3510,0.006696270810664043
3511,0.0030274654469310703
3512,-0.004472836545726169
3513,-0.00822998454432628
3514,-0.004772630828651427
3515,0.0018987479748907008
3516,0.004516913605534736
3517,-3.0652117346876943e-05
3518,-0.007512216043672968
3519,-0.010545037237568767
3520,-0.005988202711273125
3521,0.0017882771021316582
3522,0.005004265213205985
3523,-4.696874735791133e-05
3524,-0.009416604361360414
3525,-0.015280137764174362
3526,-0.013373048840975718
3527,-0.006869058999272825
3528,-0.003024324257973527
3529,-0.005990011619206283
3530,-0.012877037603936704
3531,-0.016866200310889503
3532,-0.014169267598040908
3533,-0.007866195595972413
3534,-0.00479888932505779
3535,-0.008652543480708642
3536,-0.016178500290697572
3537,-0.020375260965810132
3538,-0.01745646481339272
3539,-0.010605635363443392
3540,-0.006739026062620033
3541,-0.009570924092256348
3542,-0.016043949698049773
3543,-0.019755424305686275
3544,-0.017799837887865495
3545,-0.013842398202409654
3546,-0.01407289719946131
3547,-0.020168054531807953
3548,-0.026786624375405174
3549,-0.026679624255725225
3550,-0.018524037911109723
3551,-0.009298955619275453
3552,-0.008152039307970566
3553,-0.0173833325783571
3554,-0.02957876090879744
3555,-0.03423341167281451
3556,-0.02778090894088449
3557,-0.017230052155470646
3558,-0.013613120719408844
3559,-0.021451237147065705
3560,-0.034498042935664774
3561,-0.04193676666379297
3562,-0.03890858083216489
3563,-0.030994057818580202
3564,-0.028335193384160132
3565,-0.03540765198088683
3566,-0.04667424136783569
3567,-0.052275107525984243
3568,-0.04775205653212345
3569,-0.03788289450198916
3570,-0.030938813006049084
3571,-0.029616650462375632
3572,-0.02830181785494394
3573,-0.01966261021643958
3574,-0.0036948519914821428
3575,0.010538222246565771
3576,0.012958846460445567
3577,0.0026657920353137807
3578,-0.010045214276303567
3579,-0.012390530239109791
3580,-0.0005292691115276159
3581,0.017147495554078462
3582,0.02796810559629892
3583,0.026514019508379005
3584,0.018855984194866116
3585,0.015907756177074028
3586,0.02275526266986754
3587,0.03420524633993467
3588,0.040203632882022944
3589,0.035150443280493576
3590,0.02202565119478575
3591,0.008204916311651298
3592,-0.0017077847285628988
3593,-0.008427343088739978
3594,-0.014065482988514715
3595,-0.017158908750904096
3596,-0.01303843379469543
3597,0.0003100865871473019
3598,0.017378745800139164
3599,0.027485250032464367
3600,0.02332832381888013
3601,0.007903014186495954
3602,-0.007292773982772491
3603,-0.011795908180063413
3604,-0.004968881919593259
3605,0.0040059623085996355
3606,0.004841586746643408
3607,-0.004587527494494125
3608,-0.016911879167388903
3609,-0.02273598524715443
3610,-0.019562506927585516
3611,-0.013730108480692851
3612,-0.013776049147107883
3613,-0.021796970778703604
3614,-0.03118165473970959
3615,-0.032971754590400235
3616,-0.024886206470724568
3617,-0.014398103283546564
3618,-0.012659035938966862
3619,-0.02460298402117635
3620,-0.04437488346056109
3621,-0.06062924562686725
3622,-0.06716543321248397
3623,-0.06906344891313168
3624,-0.0781764470984389
3625,-0.10166805021853859
3626,-0.13436200287838923
3627,-0.16292797619517302
3628,-0.1790661651725851
3629,-0.18964457758686792
3630,-0.21338713882743937
3631,-0.2657138746331122
3632,-0.34488622766173166
3633,-0.4322357501345837
3634,-0.5062877557754651
3635,-0.557003645336929
3636,-0.5858631456543374
3637,-0.59165004795964
3638,-0.5571986881313226
3639,-0.4530912029823897
3640,-0.25822975801777603
3641,0.02048905270182491
3642,0.348238420902388
3643,0.6827325260827262
3644,0.9954997837457155
3645,1.2727825241114137
3646,1.4952888026349695
3647,1.6193464444232335
3648,1.5845929688560483
3649,1.3504426661404276
3650,0.9353047355849728
3651,0.4254149341300313
3652,-0.05809261204970234
3653,-0.4132277092003873
3654,-0.5968815312215505
3655,-0.6284337019714754
3656,-0.5632639921357194
3657,-0.4599644138533063
3658,-0.36087218641045715
3659,-0.28860018369496687
3660,-0.24950973160731044
3661,-0.23689156552923574
3662,-0.23482603247031397
3663,-0.22632511649884474
3664,-0.20360962079692707
3665,-0.17260116471736742
3666,-0.14657451191877519
3667,-0.13376718347919214
3668,-0.13015535134510625
3669,-0.12406358008620198
3670,-0.10780858472071647
3671,-0.08479756268047667
3672,-0.06535959814209266
3673,-0.0560434064259044
3674,-0.05343208377197552
3675,-0.048471351617394035
3676,-0.03639507123416922
3677,-0.021833426437871846
3678,-0.013974803426504378
3679,-0.016953037582428686
3680,-0.02533462888806514
3681,-0.02915615741521453
3682,-0.023271108537763
3683,-0.01170367007773858
3684,-0.0030768118578805405
3685,-0.0021696580815554175
3686,-0.006118191103631283
3687,-0.008551732330049994
3688,-0.006765453301971951
3689,-0.00428353144315668
3690,-0.006387445638669471
3691,-0.013692968336279168
3692,-0.020839209481381498
3693,-0.02187331129317096
3694,-0.01675962514720379
3695,-0.012060573442572557
3696,-0.014705334578011426
3697,-0.024911931890550437
3698,-0.03543863608751448
3699,-0.03818223005851709
3700,-0.03183138548447716
3701,-0.02314080727975413
3702,-0.020589283756799415
3703,-0.026583208742790673
3704,-0.03566436130491109
3705,-0.04018343015065606
3706,-0.03763662086492704
3707,-0.03250437401962429
3708,-0.031147450484755992
3709,-0.03523361750474359
3710,-0.04037020949676909
3711,-0.041081610999489024
3712,-0.036764509570764034
3713,-0.03239301627505099
3714,-0.03328807890262968
3715,-0.03943977768418674
3716,-0.045327714498993095
3717,-0.045482879104195614
3718,-0.04005705399685788
3719,-0.03458553229344119
3720,-0.03408443566919306
3721,-0.0375452012013386
3722,-0.038659186233865155
3723,-0.03232059511152591
3724,-0.020415607961940342
3725,-0.010804672382042715
3726,-0.010041970078769252
3727,-0.01674020689952952
3728,-0.022186139766491423
3729,-0.017963036653935276
3730,-0.0035468485286150996
3731,0.013247453978545404
3732,0.02334708901831154
3733,0.024334161980533918
3734,0.0218850882150791
3735,0.0237602781374701
3736,0.03241168964008797
3737,0.04326492248664025
3738,0.04992557388780689
3739,0.05080940150875558
3740,0.05058533990182711
3741,0.05521932691157351
3742,0.06579254630484421
3743,0.07732103197942511
3744,0.08364720196047339
3745,0.08338724748311387
3746,0.0809696870640233
3747,0.08181606269869349
3748,0.08658502788036007
3749,0.09026929608782736
3750,0.08702608988039881
3751,0.07591109327883394
3752,0.06185241587151108
3753,0.05098565681202465
3754,0.045031033800023726
3755,0.04021279410154925
3756,0.031587404927341356
3757,0.01826998140869393
3758,0.004287892537268715
3759,-0.005685146982738566
3760,-0.01126031423307974
3761,-0.01682576868389095
3762,-0.027014233346979742
3763,-0.04168602769890979
3764,-0.055541204404936845
3765,-0.06289767584481903
3766,-0.06300070564061022
3767,-0.06063084778364762
3768,-0.06138430731575645
3769,-0.06626133447532484
3770,-0.07088730539927567
3771,-0.07009780126680219
3772,-0.06328434714015063
3773,-0.05513243537299604
3774,-0.05098642873824454
3775,-0.05149349363107277
3776,-0.0519840554566021
3777,-0.047353131091800955
3778,-0.03762651438231776
3779,-0.028529166588892332
3780,-0.026218355704394604
3781,-0.031199673159526202
3782,-0.03746674101260701
3783,-0.037931873900485975
3784,-0.03102836194219219
3785,-0.022080551692590888
3786,-0.01804362721725341
3787,-0.020693508027036806
3788,-0.024927149343864034
3789,-0.02387842264431638
3790,-0.015860557762194853
3791,-0.006293475735694351
3792,-0.0026387791488137495
3793,-0.007215974914238638
3794,-0.014884810256831839
3795,-0.017859076542294204
3796,-0.01298905256111313
3797,-0.004506933218580997
3798,0.00026865104416257276
3799,-0.0020884439044327827
3800,-0.008264369692028234
3801,-0.01202492518039711
3802,-0.010586501510425523
3803,-0.007051709278864573
3804,-0.006613234109690733
3805,-0.010649048064698633
3806,-0.014948757029896977
3807,-0.013998985314604452
3808,-0.00693803716809209
3809,0.0010510175538045988
3810,0.003560877083852971
3811,-0.0007397114503338183
3812,-0.006726168730216036
3813,-0.007905213031069867
3814,-0.002972347773262809
3815,0.0027512549322071065
3816,0.002531046473926988
3817,-0.005077789804051963
3818,-0.014748225316139271
3819,-0.01961416232264773
3820,-0.01793654241474485
3821,-0.014447460468753979
3822,-0.015000067428517292
3823,-0.019997993125631684
3824,-0.02343601567772652
3825,-0.018788342825667975
3826,-0.006004635457427259
3827,0.0074394561164685125
3828,0.012735297095018777
3829,0.007351078131270648
3830,-0.0031647487441150957
3831,-0.010706006047898169
3832,-0.011890087064262957
3833,-0.010094099221157091
3834,-0.01074116039098449
3835,-0.015098082674936886
3836,-0.01905804886206612
3837,-0.017971393141608966
3838,-0.012222974934367359
3839,-0.007485895776371147
3840,-0.009157565207557273
3841,-0.016630258377236314
3842,-0.0234122327957756
3843,-0.023260439537813697
3844,-0.01633772395771139
3845,-0.009231454821202953
3846,-0.008707364003373946
3847,-0.015291632017926684
3848,-0.02294970464386498
3849,-0.025089285720371807
3850,-0.02088889393779581
3851,-0.015724615668340394
3852,-0.015411433266240662
3853,-0.020139794755525183
3854,-0.02424937502355893
3855,-0.022115030295833726
3856,-0.014269494826184885
3857,-0.007554038291918505
3858,-0.008911981805437487
3859,-0.018709614875769342
3860,-0.030047526155414783
3861,-0.03483834027436751
3862,-0.03098157920739601
3863,-0.023962277406950443
3864,-0.02154129341631081
3865,-0.026699896777956297
3866,-0.0354403405629236
3867,-0.04118631512361506
3868,-0.041193180092876744
3869,-0.03869306880149777
3870,-0.0389463918651506
3871,-0.043442368768295325
3872,-0.048187053334380156
3873,-0.04775237716360602
3874,-0.04088023081064845
3875,-0.03186621325973261
3876,-0.026267639171527444
3877,-0.02532043674642656
3878,-0.024850226612065745
3879,-0.01990415051478888
3880,-0.010373728391014959
3881,-0.0016504630912537275
3882,0.0006945036387231097
3883,-0.003032029807685415
3884,-0.006207092272616958
3885,-0.002000044272447354
3886,0.00975463681125599
3887,0.021864038928647814
3888,0.02634995628358937
3889,0.022120793184539828
3890,0.016191272728262127
3891,0.016994569411434547
3892,0.0260577760473831
3893,0.036047616700222565
3894,0.037146257762296644
3895,0.025774882622482016
3896,0.007594541076853379
3897,-0.007611508776141223
3898,-0.01388630271183745
3899,-0.012447510767036724
3900,-0.008177354569060545
3901,-0.0038974287479716157
3902,0.0013435517528175246
3903,0.008746179682219284
3904,0.015755439377753536
3905,0.01682670132571259
3906,0.008762809786167794
3907,-0.005027243578695936
3908,-0.016422778965947755
3909,-0.019476923315218754
3910,-0.015701444400119925
3911,-0.012368402052072226
3912,-0.015298504513637338
3913,-0.023182512191418918
3914,-0.029036655639066898
3915,-0.02730395364631105
3916,-0.019514317367265582
3917,-0.012913841038739798
3918,-0.013484241690425194
3919,-0.020238911058006175
3920,-0.026267837321488807
3921,-0.025354421239860696
3922,-0.017784282715423573
3923,-0.010089096318209867
3924,-0.009370161918478321
3925,-0.017591418698598087
3926,-0.03062603402713242
3927,-0.04218925054538958
3928,-0.04884867438952573
3929,-0.05225370173329341
3930,-0.05760769749975911
3931,-0.07007904940430476
3932,-0.09152670694707361
3933,-0.1192203992292775
3934,-0.1473265940017215
3935,-0.17081447392484583
3936,-0.18974618631258805
3937,-0.21066438990728723
3938,-0.24299510509693245
3939,-0.2922818354024322
3940,-0.35548246213684354
3941,-0.42247289205810357
3942,-0.4822382389429199
3943,-0.5272506993662803
3944,-0.5510032058284864
3945,-0.5412038238087102
3946,-0.4773011623968557
3947,-0.33846285924599734
3948,-0.11799988579900655
3949,0.1676799794194595
3950,0.4842436188781625
3951,0.7948017757121358
3952,1.0717311395556994
3953,1.2947012406712477
3954,1.4390914614006647
3955,1.470293273412057
3956,1.3554723466849237
3957,1.087690893242141
3958,0.703363818694507
3959,0.2765608446924769
3960,-0.10888354958095445
3961,-0.39159406910341943
3962,-0.5495715783231534
3963,-0.5956776923493937
3964,-0.5611063318796828
3965,-0.4806650678570538
3966,-0.3859485721019692
3967,-0.30281203815000834
3968,-0.247705989605401
3969,-0.2231822816581565
3970,-0.21787546216912035
3971,-0.2140705665551399
3972,-0.1989057371797499
3973,-0.17119171878981293
3974,-0.13928824540417883
3975,-0.11299267391911993
3976,-0.09662534373677203
3977,-0.08798471839566156
3978,-0.0820084201868434
3979,-0.07474076341826144
3980,-0.0647616642336118
3981,-0.05261267829529109
3982,-0.040023723003392096
3983,-0.02939573277071387
3984,-0.022734093489533404
3985,-0.02004395311938192
3986,-0.018812929864299013
3987,-0.015923102387120375
3988,-0.010777457640979426
3989,-0.006443700767893051
3990,-0.007010857409460868
3991,-0.01324483243757364
3992,-0.02092638598939177
3993,-0.02405679967395938
3994,-0.020236950420126798
3995,-0.012980696581707417
3996,-0.008466217453428454
3997,-0.009754133146838222
3998,-0.014173285928938052
3999,-0.01647193244357449
4000,-0.014474995495704477
4001,-0.011389430887529613
4002,-0.01233572955353979
4003,-0.0186965007818647
4004,-0.026237675796386768
4005,-0.029129988994996255
4006,-0.025854837795600452
4007,-0.02088730610123996
4008,-0.020279925813812008
4009,-0.025551720460563532
4010,-0.03213894819235709
4011,-0.03408481964386596
4012,-0.030254699598944466
4013,-0.025714478486802392
4014,-0.02675672139466907
4015,-0.03450911574380892
4016,-0.04354986046416941
4017,-0.04695732388148431
4018,-0.042804101519066357
4019,-0.035742631938080485
4020,-0.03231739158721804
4021,-0.034846042210890105
4022,-0.03988542946325681
4023,-0.042424685565866094
4024,-0.04115384734484273
4025,-0.03934681838160309
4026,-0.04071149624147971
4027,-0.04486307578122828
4028,-0.04736653831047259
4029,-0.04436866074770315
4030,-0.03690900746474781
4031,-0.03022987089382308
4032,-0.02857931525316971
4033,-0.03077154056934465
4034,-0.031173394082534292
4035,-0.025339964519778872
4036,-0.014718470279070283
4037,-0.005590251985460331
4038,-0.0030805302079198417
4039,-0.006040535492275843
4040,-0.007908120933798422
4041,-0.0028777866162083277
4042,0.008515320332696134
4043,0.01982343609256286
4044,0.024782688580014
4045,0.023247464134646272
4046,0.021268091139272867
4047,0.0252680827001132
4048,0.03596407551485768
4049,0.04786678917033031
4050,0.054722482413502374
4051,0.05546551186212968
4052,0.05483358274685313
4053,0.05815765148719601
4054,0.06566803145655696
4055,0.072141344115278
4056,0.0723153402691076
4057,0.06658539565708502
4058,0.06104859672004297
4059,0.06156314244577814
4060,0.06761592963039088
4061,0.07223855808806345
4062,0.06835727703579611
4063,0.05552737552517306
4064,0.04044206586059248
4065,0.03061566954280693
4066,0.027347869324281418
4067,0.024816033641399247
4068,0.016124701629815996
4069,0.00030088150373395214
4070,-0.016658126659265107
4071,-0.027633003196468074
4072,-0.031228345433982445
4073,-0.03277755760226281
4074,-0.0385494314757767
4075,-0.04902622198117326
4076,-0.058086354201366805
4077,-0.059053852425277775
4078,-0.05168326491327177
4079,-0.04307055881077903
4080,-0.04133450441950643
4081,-0.04800188665528081
4082,-0.05642743830679874
4083,-0.057884153328405616
4084,-0.049640764595525404
4085,-0.03743403413178563
4086,-0.030065815898131197
4087,-0.03130291149962769
4088,-0.0367298152095149
4089,-0.038398793529053774
4090,-0.03268625097463046
4091,-0.023797600402679434
4092,-0.01963388820817333
4093,-0.024078283945774527
4094,-0.033131886467518495
4095,-0.03855465048799347
4096,-0.03545431043412492
4097,-0.026572776191227096
4098,-0.019332699955737186
4099,-0.01871505671124409
4100,-0.022908708476163653
4101,-0.02572982687480072
4102,-0.023078371600632808
4103,-0.016864080135645547
4104,-0.012610437225350844
4105,-0.01343226176280279
4106,-0.01671091669716305
4107,-0.016927969836319792
4108,-0.0117139936073857
4109,-0.004772232809419465
4110,-0.0024603983355068765
4111,-0.007332901604646327
4112,-0.015214733765183749
4113,-0.01897214684598577
4114,-0.015400602574281084
4115,-0.008380159193275342
4116,-0.005052977051389935
4117,-0.008735981392572714
4118,-0.01560889609600621
4119,-0.018500016125402793
4120,-0.013996708695724168
4121,-0.005761247236363367
4122,-0.0007464059545600863
4123,-0.0021749414125953265
4124,-0.006428150991047767
4125,-0.007015418219906835
4126,-0.0015508094141351261
4127,0.005480186152474319
4128,0.007136751766547574
4129,0.0011994432102066309
4130,-0.007298213080235028
4131,-0.010970859133957721
4132,-0.007553441553400525
4133,-0.0022367015458396753
4134,-0.0022301851110436777
4135,-0.008934190324887757
4136,-0.01586368305199795
4137,-0.01488418618587073
4138,-0.004794935690509999
4139,0.0065066102231803365
4140,0.008974092568613118
4141,3.163880125548282e-05
4142,-0.012616368281571238
4143,-0.018075417569961914
4144,-0.012619384186446456
4145,-0.003265450599018169
4146,-0.0009654413044583539
4147,-0.009926316858767915
4148,-0.02339717538611348
4149,-0.029980163925160563
4150,-0.024301559108614264
4151,-0.011763164455526746
4152,-0.0030448437058217333
4153,-0.004041358932187414
4154,-0.011084776003456875
4155,-0.015697399846279853
4156,-0.013573908809868763
4157,-0.008591923620217778
4158,-0.008087470457184947
4159,-0.01465103196136125
4160,-0.02309916666156947
4161,-0.025749268532246086
4162,-0.020479856933961715
4163,-0.013174794146827228
4164,-0.011920517373197909
4165,-0.018797653676109412
4166,-0.02762393528250335
4167,-0.030008398819622983
4168,-0.02366907497125123
4169,-0.014668710666446342
4170,-0.01134744847492035
4171,-0.016074776233062717
4172,-0.023093680274752122
4173,-0.024548909310051742
4174,-0.018538073740760032
4175,-0.011019128560229793
4176,-0.009653166643189562
4177,-0.015847488740633443
4178,-0.023131016220235903
4179,-0.023637102831393045
4180,-0.01625335852101218
4181,-0.008186447874087314
4182,-0.008159710426746673
4183,-0.01781065195580797
4184,-0.029768886977151715
4185,-0.034427328614541244
4186,-0.028931213852637458
4187,-0.019756064488452567
4188,-0.016506691149191562
4189,-0.023041638124695424
4190,-0.03441377320281899
4191,-0.04222730227597641
4192,-0.04280449934881336
4193,-0.04011552083867018
4194,-0.040939538961901736
4195,-0.047480572264455755
4196,-0.05491786797937736
4197,-0.05611406637684741
4198,-0.04847670895885141
4199,-0.03608267743838332
4200,-0.025301011849480113
4201,-0.018799164842636336
4202,-0.014136626395917904
4203,-0.007979592883389489
4204,-0.000910541394021293
4205,0.002715380004754399
4206,-0.00011355228033696247
4207,-0.006613840231429479
4208,-0.009707394242639038
4209,-0.00457133313547833
4210,0.0062809632037603685
4211,0.01489874128458674
4212,0.015379489229078058
4213,0.009696146838556484
4214,0.005944916672399265
4215,0.010500674977796772
4216,0.021687842981496598
4217,0.031177809770708876
4218,0.0317124274516094
4219,0.023538764785065135
4220,0.013367267161857871
4221,0.007261164567816624
4222,0.004913456239614399
4223,0.0011439832429669511
4224,-0.007150977284392384
4225,-0.016137365227072882
4226,-0.017797347694276336
4227,-0.00798674803947173
4228,0.008236269804896577
4229,0.019749340497724928
4230,0.0185259217653242
4231,0.006367084612702799
4232,-0.007098805222582041
4233,-0.0132035899338553
4234,-0.011534123316680795
4235,-0.009108066047041312
4236,-0.01269979997199329
4237,-0.022000224360606044
4238,-0.03014113973823026
4239,-0.030750102843941585
4240,-0.02439562549436221
4241,-0.018062800801951162
4242,-0.018224291871383455
4243,-0.02433958957075444
4244,-0.02920844928684211
4245,-0.025979942510454535
4246,-0.015145494102971297
4247,-0.004702578291211517
4248,-0.0030564369908051433
4249,-0.011176395717336004
4250,-0.021475197246642097
4251,-0.024765619043235033
4252,-0.01900506986487758
4253,-0.011545979856490446
4254,-0.012440919843541533
4255,-0.02487447893036107
4256,-0.041967260037960204
4257,-0.05353682366023872
4258,-0.05672525848026279
4259,-0.05994178498390369
4260,-0.0753313219454303
4261,-0.1062953331215159
4262,-0.1426043489540898
4263,-0.16949327430538608
4264,-0.18347615361026798
4265,-0.19944972949752987
4266,-0.24013977906980363
4267,-0.3154871500519931
4268,-0.4106686082103839
4269,-0.4951550604121628
4270,-0.5458206806697912
4271,-0.562727379722759
4272,-0.5618077724112117
4273,-0.5505231115077064
4274,-0.5101585226543853
4275,-0.40373774786322275
4276,-0.2046199532409561
4277,0.07967245272644116
4278,0.41023489840855276
4279,0.7426524112760055
4280,1.0498628079030614
4281,1.3191770921712527
4282,1.5277730672274559
4283,1.6255560092830823
4284,1.5507467731587878
4285,1.2731141426691979
4286,0.8305728433653075
4287,0.32544934844049406
4288,-0.1217918608298541
4289,-0.4290794001842627
4290,-0.5804034364671362
4291,-0.6110930078242054
4292,-0.5707109600600566
4293,-0.4955527488579088
4294,-0.40604800629617827
4295,-0.3185949052434372
4296,-0.2515482196937586
4297,-0.21746868894332558
4298,-0.21216364512503574
4299,-0.21555364351968156
4300,-0.20658112496087117
4301,-0.1790997986243271
4302,-0.1442290461344385
4303,-0.11794627119066184
4304,-0.10653744713822541
4305,-0.103184158568955
4306,-0.096929443827274
4307,-0.08352885445108466
4308,-0.06761788519919232
4309,-0.05579911052355001
4310,-0.04927952212690266
4311,-0.04371596612196786
4312,-0.03527009931305508
4313,-0.025394656399565056
4314,-0.019069231363862724
4315,-0.018862687709088638
4316,-0.021686800185502283
4317,-0.021860064431399807
4318,-0.017082672026271176
4319,-0.010830577641385366
4320,-0.008629289872210037
4321,-0.0122083494816459
4322,-0.01769258764028018
4323,-0.019643620618337777
4324,-0.016641788848975436
4325,-0.012592342871168258
4326,-0.012481286790322744
4327,-0.01707386506178832
4328,-0.022085749014615207
4329,-0.022679152318397656
4330,-0.01861096328512514
4331,-0.014654507567818175
4332,-0.01574704553951837
4333,-0.02176576592773221
4334,-0.027348580917775374
4335,-0.02715912431889444
4336,-0.02143727664676774
4337,-0.016189898943065783
4338,-0.017576466172593414
4339,-0.025853405955491415
4340,-0.034863778901993915
4341,-0.03774494704161839
4342,-0.03341668633208165
4343,-0.02754305808587132
4344,-0.026988923979519776
4345,-0.033154665603640575
4346,-0.04070463265304614
4347,-0.04293103219479436
4348,-0.038464433594672984
4349,-0.03269790262808865
4350,-0.03249439568603814
4351,-0.039379974407635646
4352,-0.04793295980206344
4353,-0.050957847680086044
4354,-0.04634969783479925
4355,-0.03892031634754553
4356,-0.03547332453104571
4357,-0.03808317975489679
4358,-0.04224709279891968
4359,-0.041675070606933935
4360,-0.03486540709384199
4361,-0.02684939170595393
4362,-0.024298397426048064
4363,-0.028783837485557823
4364,-0.034853308395576474
4365,-0.03491596141905933
4366,-0.026316471819398966
4367,-0.013861168369881643
4368,-0.0054326391674613264
4369,-0.00488668926057809
4370,-0.008864823134736376
4371,-0.01027513275494175
4372,-0.00488022579607455
4373,0.00525743514341513
4374,0.014409913294248698
4375,0.01894584898261757
4376,0.020521850910966533
4377,0.023852755401538733
4378,0.03162761653737617
4379,0.041765504352475925
4380,0.0496173192548515
4381,0.052678668083178254
4382,0.05295763212615939
4383,0.05467330980509079
4384,0.05978673028979932
4385,0.06605899005735553
4386,0.06966585178125671
4387,0.06959462673683546
4388,0.06905636865666875
4389,0.07212636023806476
4390,0.07886137086350782
4391,0.0840698764478641
4392,0.08153247396015714
4393,0.06994828222959926
4394,0.05475936527994939
4395,0.04366783308705979
4396,0.03975920858820067
4397,0.03871029431066018
4398,0.03288079735584545
4399,0.018551230012900512
4400,-0.0005054855272408466
4401,-0.016479363349683945
4402,-0.02465883056188349
4403,-0.02742547075790884
4404,-0.03140343626302455
4405,-0.04069520547889535
4406,-0.05282151528181528
4407,-0.0612001616619523
4408,-0.06158596055211441
4409,-0.056157632514056394
4410,-0.051416462700237434
4411,-0.05214444074693974
4412,-0.05732679135920431
4413,-0.061739105202746086
4414,-0.061256609721094125
4415,-0.056526503564187494
4416,-0.05165944800325879
4417,-0.04973872383619694
4418,-0.049935943621958766
4419,-0.04900444651982107
4420,-0.04521310731846968
4421,-0.04033078350691124
4422,-0.03753068877112301
4423,-0.03756888562285909
4424,-0.03753461284060089
4425,-0.033784843733244946
4426,-0.026135120713316033
4427,-0.018769613913740157
4428,-0.01650631228231096
4429,-0.019903763935813782
4430,-0.024227565387971984
4431,-0.02371052361694568
4432,-0.017229720694374014
4433,-0.009808363868958787
4434,-0.008161688872571463
4435,-0.014294060892335881
4436,-0.023248139025889267
4437,-0.027309154619680247
4438,-0.02283871306623727
4439,-0.013380146538972704
4440,-0.006230387277752443
4441,-0.005872014395574379
4442,-0.0104839867999815
4443,-0.014525781978309638
4444,-0.014413002092304806
4445,-0.011517843518683199
4446,-0.009786877390568036
4447,-0.010907891422056275
4448,-0.012366129460069755
4449,-0.010487063917021977
4450,-0.005108759723315339
4451,-0.0006167782643052838
4452,-0.001810571805956389
4453,-0.008643713266666065
4454,-0.015430782867428017
4455,-0.015809724165687766
4456,-0.008832805614190111
4457,-0.00011985823178794325
4458,0.0032791663206809623
4459,-0.000590613578078051
4460,-0.007046255941593029
4461,-0.009666550085675268
4462,-0.006678695448498052
4463,-0.0024351398710114264
4464,-0.0026055862812250207
4465,-0.008112394034390596
4466,-0.014096697119845684
4467,-0.015008205418795294
4468,-0.010556519933487881
4469,-0.00627822546270352
4470,-0.007941066107774505
4471,-0.015389767959515376
4472,-0.022191216769068156
4473,-0.02169057048778903
4474,-0.013596577117882182
4475,-0.004550171179463898
4476,-0.002021821157655217
4477,-0.007457641193777327
4478,-0.015288952632380672
4479,-0.01858782331424598
4480,-0.015657961666646413
4481,-0.011139762343796562
4482,-0.010850912745070725
4483,-0.01580921034985148
4484,-0.021476883084631637
4485,-0.022784376243965607
4486,-0.01959300960531448
4487,-0.016900150710968634
4488,-0.019548923124571117
4489,-0.026880751870001926
4490,-0.032907123665244904
4491,-0.032035266124857936
4492,-0.02473153850650585
4493,-0.0174258260365523
4494,-0.016574025622687
4495,-0.02256871593197264
4496,-0.029418611873804394
4497,-0.030546401827930003
4498,-0.02511384790374207
4499,-0.01876059501977338
4500,-0.0180487316693123
4501,-0.023989906535430233
4502,-0.03091067904462319
4503,-0.03175750643290591
4504,-0.024758472037541255
4505,-0.01510457919422474
4506,-0.010142978927164141
4507,-0.012763758559288293
4508,-0.01923484251521306
4509,-0.023276358448659808
4510,-0.02212522820153556
4511,-0.01864022485396432
4512,-0.01768872295663043
4513,-0.02084110811831935
4514,-0.0249526956695747
4515,-0.026024725476962197
4516,-0.02412521144293389
4517,-0.02391705930292469
4518,-0.02985749093622881
4519,-0.04085359113831667
4520,-0.05014633374713338
4521,-0.051173284091540684
4522,-0.04399581457652067
4523,-0.03583086264087019
4524,-0.03465105097951094
4525,-0.04160196332823812
4526,-0.04946243169373685
4527,-0.04889244250728532
4528,-0.036888200463484656
4529,-0.019692147795612333
4530,-0.007498226841390107
4531,-0.005831172187132792
4532,-0.01137513072680661
4533,-0.015692719070769752
4534,-0.01297640192755874
4535,-0.004596054848481799
4536,0.003325400832275542
4537,0.006373894351350884
4538,0.005915533834708429
4539,0.007129094034790978
4540,0.013379004546333543
4541,0.022666177491199643
4542,0.02953862305594484
4543,0.03034447312764932
4544,0.026523461188223546
4545,0.02274347445715147
4546,0.021859596810231616
4547,0.02179017542676851
4548,0.017488193032495717
4549,0.006187818568649138
4550,-0.009099286194604829
4551,-0.02123118948654363
4552,-0.02429978944472517
4553,-0.017928010205619856
4554,-0.0069252768492583374
4555,0.0028594740089409433
4556,0.008394365460633244
4557,0.009852981543560062
4558,0.008199921682932865
4559,0.003323202037486604
4560,-0.0050983679445959565
4561,-0.015352734595395323
4562,-0.0233523535682143
4563,-0.025495884653752424
4564,-0.022210550768142084
4565,-0.0182469679227822
4566,-0.01872209809575515
4567,-0.024382378455042257
4568,-0.030804937440051534
4569,-0.03258278672235195
4570,-0.028476237891410454
4571,-0.022364269142796468
4572,-0.01905590593291759
4573,-0.01937543307628673
4574,-0.019726545543716313
4575,-0.016546659186340226
4576,-0.010715127958411966
4577,-0.006945309420338703
4578,-0.008716416998721324
4579,-0.014420183197737396
4580,-0.019275795019988856
4581,-0.021122248164823797
4582,-0.023511806934289198
4583,-0.03217720281120222
4584,-0.04844120070761835
4585,-0.06713238978421943
4586,-0.0820254164289674
4587,-0.09320205625332859
4588,-0.10775646633882724
4589,-0.13212040346922233
4590,-0.16409389906476463
4591,-0.1942583665603256
4592,-0.2168374387665935
4593,-0.23890440882083572
4594,-0.27678582748418057
4595,-0.3411087419466258
4596,-0.4245602916173392
4597,-0.505009110162651
4598,-0.5613388641788826
4599,-0.5857621981508714
4600,-0.5796154484715001
4601,-0.5374615612762013
4602,-0.4381981596915926
4603,-0.2560760231979852
4604,0.01620919372067396
4605,0.3543346449608272
4606,0.7126064982471007
4607,1.0476443550731072
4608,1.3314325425184306
4609,1.5412237793930623
4610,1.6403679970784797
4611,1.5778395377456436
4612,1.318365668149168
4613,0.8828614821959994
4614,0.36204617338523926
4615,-0.11644318986249833
4616,-0.4490876236716672
4617,-0.6028924633189927
