,0
0,-0.0029334950842555343
1,0.001260193314027486
2,0.0015293125805448445
3,-0.0027682872904498932
4,-0.008023671069068213
5,-0.00871823433042321
6,-0.0017879163803036066
7,0.010240330990924876
8,0.020344310915449904
9,0.022233156105610108
10,0.015742620059986154
11,0.007494862676760683
12,0.005569970208254799
13,0.012445610689703353
14,0.02260399198077253
15,0.027349361020449697
16,0.0226732215998758
17,0.012866644449923755
18,0.006400992776203849
19,0.00798000074405127
20,0.014402156405893079
21,0.018121045275467124
22,0.01476798194780015
23,0.007048694180484505
24,0.0012682162137671884
25,0.00035340365972740857
26,0.0007759246730168728
27,-0.0034456873695832488
28,-0.014054016991431523
29,-0.02648395102261822
30,-0.03482558310697591
31,-0.03860229978834123
32,-0.04394777731888812
33,-0.05754598883424882
34,-0.07950153750357072
35,-0.10277691747251416
36,-0.12011742746190607
37,-0.13139020286820619
38,-0.14355952478881145
39,-0.16315944784574138
40,-0.18917759410271295
41,-0.2140029579467712
42,-0.2314311888525999
43,-0.2427538597490425
44,-0.25354135525756616
45,-0.26378522221894074
46,-0.2621214387309413
47,-0.23181848667659002
48,-0.1643637977217878
49,-0.06781587067439204
50,0.03887874878692177
51,0.14094337076598634
52,0.23801122812026576
53,0.33971958254810586
54,0.45113118477859626
55,0.5624359847077622
56,0.6529294491763715
57,0.7049012866613638
58,0.7134856398968769
59,0.6834724933301064
60,0.6182548847045344
61,0.5145412895486884
62,0.37012549761609503
63,0.19724387174477948
64,0.026306705924607966
65,-0.10727977172558134
66,-0.18411789734515896
67,-0.21188149138880186
68,-0.2165896854506993
69,-0.221573967672868
70,-0.23207362094028047
71,-0.23741989144698714
72,-0.22647658091328257
73,-0.2008122969667793
74,-0.17381995940140035
75,-0.15809580127276435
76,-0.15407883458207
77,-0.15069357158738003
78,-0.13669302284674978
79,-0.11148345999691184
80,-0.08541760638228624
81,-0.06992194503791879
82,-0.06716314765092321
83,-0.06876237247437779
84,-0.06416162938729668
85,-0.050345083481786415
86,-0.03387169927587838
87,-0.02381388169012469
88,-0.02276832596109364
89,-0.02463206082580873
90,-0.0211188068143058
91,-0.01051610389476194
92,1.6000030797227787e-05
93,0.0011298077570438408
94,-0.009258872211863618
95,-0.022939655314954375
96,-0.028158929422574815
97,-0.02020966169627743
98,-0.0059578459946887565
99,0.0022065596349585335
100,-0.002383996480460708
101,-0.01466160064665675
102,-0.022709836742405228
103,-0.018975292173531694
104,-0.007222420575330881
105,0.0012976564600055982
106,-0.0013080690663428733
107,-0.012148304908959337
108,-0.020559649799204646
109,-0.018431744451361507
110,-0.007736543141294336
111,0.0018973209054107675
112,0.0028498064305753535
113,-0.0033075932717182756
114,-0.00810477925264113
115,-0.0053263598467906455
116,0.0024060019222019655
117,0.006290488628054273
118,0.0004459327670451791
119,-0.011894326697171916
120,-0.021471359381768175
121,-0.022278649737043327
122,-0.01759034934928627
123,-0.016535320672410543
124,-0.02458240390221786
125,-0.03753175037530935
126,-0.04517384547999534
127,-0.041106190455286434
128,-0.029007157039529302
129,-0.019161395648940094
130,-0.018681784558551327
131,-0.02501565181897223
132,-0.028904609302429583
133,-0.023564277212736275
134,-0.010928005918837518
135,0.0008744959102343157
136,0.005689892076354532
137,0.004650819381490418
138,0.003553274718391343
139,0.005693909017685163
140,0.008176289653813128
141,0.005744451791976599
142,-0.002081241312706852
143,-0.008645009207218533
144,-0.005879553410534013
145,0.0071978628855538344
146,0.02203874064477841
147,0.027448760210196304
148,0.019768638090322886
149,0.006566960343053507
150,-6.988253297643659e-05
151,0.0054198713879445104
152,0.01710993549964322
153,0.023414048922010898
154,0.01809637912019961
155,0.0059228478524750786
156,-0.00232360348455237
157,-0.00041589586979667273
158,0.007522747368593791
159,0.011539146649167178
160,0.006042980391156795
161,-0.0044919177882541406
162,-0.00996785653290783
163,-0.004842471838013788
164,0.006039315111362228
165,0.011793475863664565
166,0.005883233042814935
167,-0.007506965885467195
168,-0.01726402366934577
169,-0.01563960362146208
170,-0.005228967626046927
171,0.003800465640109529
172,0.0032518245634384053
173,-0.005985775761340408
174,-0.015642269544043363
175,-0.01827024456688673
176,-0.01369101894912456
177,-0.007834256243709396
178,-0.005995490797263336
179,-0.0077955656357490055
180,-0.00873269611834529
181,-0.006053061291310332
182,-0.0022832279029116258
183,-0.0025554925789203105
184,-0.008670588264195495
185,-0.016438638352290293
186,-0.019444007138067706
187,-0.015552589158503285
188,-0.00938159550043546
189,-0.00790856415881697
190,-0.01342963035488659
191,-0.020959774710926263
192,-0.02284387184498223
193,-0.016117157807038728
194,-0.005341290016742236
195,0.001858332889055354
196,0.00203575047291596
197,-0.0012817368881056401
198,-0.001871174106365307
199,0.0024364384342119762
200,0.007590233149311966
201,0.007960964027359251
202,0.0028497959860117736
203,-0.0021524880676716753
204,-0.0006973281569691791
205,0.0074581786404026495
206,0.015554176116847472
207,0.01631894220917457
208,0.009569029867060732
209,0.003046561276474318
210,0.005107324852749272
211,0.01617892014509511
212,0.027607561521859246
213,0.029531905477552727
214,0.020416918386716686
215,0.008845266405039494
216,0.005443310113512997
217,0.012502394706478213
218,0.021381408055403346
219,0.020415467324339014
220,0.005832452672935384
221,-0.014863039937618172
222,-0.030307328157256515
223,-0.03621614649495683
224,-0.03912976513228755
225,-0.049392007229099366
226,-0.07047758841302654
227,-0.0953836452462432
228,-0.11368284957633751
229,-0.12209704368921998
230,-0.1279001929247439
231,-0.1417243430218116
232,-0.1670961704684723
233,-0.19730277631721435
234,-0.22254029167629916
235,-0.23952409676396133
236,-0.253042982883107
237,-0.2673954928093073
238,-0.27672037847653386
239,-0.2652702462667461
240,-0.21898826312971506
241,-0.13784447011585546
242,-0.03662796545573435
243,0.06726804176671744
244,0.167576222219862
245,0.2710187072349014
246,0.38547721758743114
247,0.50633047210144
248,0.6147664090392124
249,0.6898396306603036
250,0.7220973189544779
251,0.7151207930019536
252,0.6741838477893629
253,0.5953531845749256
254,0.46876484628378823
255,0.295147774759299
256,0.09933763980767661
257,-0.07534923629920415
258,-0.19110227098238936
259,-0.23914596711916158
260,-0.24259010756319532
261,-0.23588642169048946
262,-0.2386327910994383
263,-0.2457653173647947
264,-0.24045949540146466
265,-0.21537479238378565
266,-0.18159667691365486
267,-0.15791827230671657
268,-0.15242119999521103
269,-0.15501555151494634
270,-0.14795261983720429
271,-0.12346641434548179
272,-0.09116525843532938
273,-0.06838697444210218
274,-0.06345344459102563
275,-0.06819819524156903
276,-0.06654448648280255
277,-0.05024170243891491
278,-0.02644360577784307
279,-0.010325816405464022
280,-0.010487029443161669
281,-0.021271692974204448
282,-0.02878276108792171
283,-0.024051932516447896
284,-0.010589661629107305
285,0.00021239286818359863
286,0.0004179775687611629
287,-0.007652356061648976
288,-0.015094430404784235
289,-0.01593322467242793
290,-0.012607833271205866
291,-0.012358879272405726
292,-0.018898439519599325
293,-0.028231579881376145
294,-0.03282857754357599
295,-0.029601995062446214
296,-0.023279765058659224
297,-0.021577613988247684
298,-0.027052743042692912
299,-0.034033243041102376
300,-0.0339913718167309
301,-0.024192602374883118
302,-0.010983824404399791
303,-0.004240071154767804
304,-0.00822505050013212
305,-0.01776003929862594
306,-0.02345436745492851
307,-0.020844225111060946
308,-0.014432098989774062
309,-0.012684297529460728
310,-0.0190475104497627
311,-0.028037953432679848
312,-0.03041634815542469
313,-0.022366641909029567
314,-0.009528861097948281
315,-0.0018142778435740158
316,-0.004118514369771953
317,-0.012136737341430788
318,-0.017331754720929515
319,-0.015866749533059714
320,-0.012321871635275705
321,-0.01436444290135444
322,-0.023875150611107683
323,-0.033857573776715395
324,-0.034753186095595884
325,-0.02416755658069382
326,-0.010200227040512093
327,-0.004588212257486285
328,-0.011906194876297342
329,-0.025163640940746884
330,-0.03213355241345084
331,-0.02645119370319518
332,-0.012993533403544562
333,-0.0026620947733762604
334,-0.0018799846751797586
335,-0.006950389546216891
336,-0.008392552974251892
337,-0.0006278512614743078
338,0.012522166013685724
339,0.02161453283491908
340,0.020607034230220672
341,0.012285004456275776
342,0.005162369768221911
343,0.005321918689084647
344,0.011218132673510966
345,0.016043539614901764
346,0.01468536196557237
347,0.008185149081259856
348,0.0017141151132394387
349,-0.0011710839833591214
350,-0.0017712728387113742
351,-0.0038640480467968057
352,-0.008709726048452172
353,-0.013158517480194436
354,-0.013104239709020058
355,-0.008604236923312122
356,-0.004886024633648415
357,-0.007548028375254891
358,-0.016462132338721944
359,-0.024761313378190174
360,-0.024612113656663576
361,-0.014660651006524545
362,-0.0019407886515448915
363,0.003966108379053909
364,-0.0007178673990916155
365,-0.010938629393871439
366,-0.017951517882633078
367,-0.01762603597482637
368,-0.013861540851283638
369,-0.013899073675426997
370,-0.020341692675598877
371,-0.02797177131064053
372,-0.02866450579166517
373,-0.01955643104639044
374,-0.006274524571761024
375,0.002102828918788823
376,0.0014141837455811347
377,-0.004173674599871096
378,-0.006988069331409087
379,-0.003835236874757226
380,0.0011077912557776164
381,0.0014393281756790621
382,-0.0037866581000011133
383,-0.008204127168261955
384,-0.004558082811037872
385,0.006940945483763847
386,0.017267681802966568
387,0.01649407482514481
388,0.003692889516351499
389,-0.011117662915384153
390,-0.015618836142772385
391,-0.006625098771267351
392,0.006686636194646141
393,0.011195702676321986
394,0.0021453387855905797
395,-0.012353932604626855
396,-0.018976070546120452
397,-0.011714643516495265
398,0.0026172346266590844
399,0.011004495452140578
400,0.006406726895208593
401,-0.006196287131178235
402,-0.015342932853245332
403,-0.014343353368793721
404,-0.007110400809114802
405,-0.003203234515536033
406,-0.007567300967101499
407,-0.015524864629783548
408,-0.017954767054756293
409,-0.011128444798277144
410,-0.000960593904304556
411,0.0027982219195943916
412,-0.0034569048942561372
413,-0.013317275319987642
414,-0.016796229502910938
415,-0.01073745713445048
416,-0.0025729179287988582
417,-0.0032481932940494045
418,-0.016029411006771174
419,-0.03234913371037269
420,-0.039197852599421726
421,-0.03121612426674977
422,-0.015801052763678484
423,-0.006139763888929624
424,-0.008779321269963
425,-0.017685455403515776
426,-0.020446149219744025
427,-0.010479840364704448
428,0.006642776809120954
429,0.018766724890215133
430,0.01894356568568984
431,0.01181574369641002
432,0.008488775950814844
433,0.015206854700243445
434,0.027134362857919127
435,0.03327331516920569
436,0.027409601745347553
437,0.01410997938779303
438,0.003925375812823198
439,0.0028010062354672433
440,0.006341538553883195
441,0.004493160480522205
442,-0.008317078980057
443,-0.027841654134828264
444,-0.04459980422190437
445,-0.05338461682246785
446,-0.057924806456192225
447,-0.0662511919949096
448,-0.08200814943017878
449,-0.1009382758041619
450,-0.1160554568259512
451,-0.1257620817483314
452,-0.13613553710342227
453,-0.15491069262372334
454,-0.18352253926938175
455,-0.21549096035945858
456,-0.24242697778715191
457,-0.2606570343003187
458,-0.27100117655845973
459,-0.27223781413705167
460,-0.25647126581783747
461,-0.21317406915168913
462,-0.13907127798781907
463,-0.04353385055092465
464,0.05747192177455538
465,0.1541532208146411
466,0.2497116462253598
467,0.35344553416626845
468,0.4661189692053238
469,0.5723473036142169
470,0.648793232688917
471,0.6813146218616417
472,0.6744245354505608
473,0.6431137972383205
474,0.5945667445180202
475,0.5184160857880347
476,0.397123935293271
477,0.2286172017994337
478,0.039955430332574135
479,-0.12291338907985813
480,-0.22323971158840744
481,-0.25675551622784215
482,-0.2508723464561552
483,-0.24102378342704486
484,-0.24453464772850364
485,-0.253203696540391
486,-0.24825041343219983
487,-0.22182610163826458
488,-0.18522957794435824
489,-0.15782312933505022
490,-0.148714807403815
491,-0.1489703910134073
492,-0.14114945811387952
493,-0.11644631365780071
494,-0.08313288569146614
495,-0.05881772872984346
496,-0.0543014974743322
497,-0.06415337184036815
498,-0.07222173324114801
499,-0.06623263944253965
500,-0.04773869969452123
501,-0.028882091517491847
502,-0.02014911140477925
503,-0.021238347894911847
504,-0.023190721083774235
505,-0.01853694755070812
506,-0.00876173719984746
507,-0.0018680969338011714
508,-0.003257778536884009
509,-0.00982180254591148
510,-0.013439798532342295
511,-0.010043485550376877
512,-0.004459002599462622
513,-0.005586393299663586
514,-0.016661400255448988
515,-0.030801752118651306
516,-0.0369238284904291
517,-0.030460210534927094
518,-0.01805374377747669
519,-0.011191540200421218
520,-0.014933565064209493
521,-0.02309083174930995
522,-0.02488720866911614
523,-0.016480680301304333
524,-0.005555370921633495
525,-0.003987268314709419
526,-0.015682496698858073
527,-0.03186568244635169
528,-0.03892389561203384
529,-0.031389128406388606
530,-0.017305499329739883
531,-0.010553163744552209
532,-0.017513704587178817
533,-0.03105248840002086
534,-0.03760299077076264
535,-0.030305028040932217
536,-0.015360983439020594
537,-0.00563857516519475
538,-0.008121790452014211
539,-0.01763103790447179
540,-0.02271891287926428
541,-0.017491550452213962
542,-0.007425935458019244
543,-0.0035194545888006345
544,-0.01087033681960141
545,-0.023276351364341457
546,-0.02930173837816957
547,-0.023740165060171448
548,-0.012989021119311559
549,-0.00887903434105879
550,-0.01694978386493303
551,-0.030710746990487973
552,-0.0376237595208227
553,-0.031096228989714064
554,-0.016880060749100197
555,-0.007654220295178546
556,-0.010963584542590488
557,-0.022051220562958957
558,-0.02837433140795188
559,-0.021419265010410367
560,-0.004603849300246448
561,0.010009573949029668
562,0.01277272698315295
563,0.004751514337148304
564,-0.004189083857291408
565,-0.0050452137938483965
566,0.002437340501149898
567,0.01078477049465075
568,0.01287108652634521
569,0.00861662786352972
570,0.003939341576243742
571,0.0037449776926230063
572,0.006593927027144729
573,0.00651869784268854
574,-0.00016485497404407996
575,-0.010366764084507827
576,-0.01686497438318943
577,-0.0154559285472807
578,-0.009302814428197869
579,-0.005994503439845571
580,-0.010224466856774205
581,-0.019414244962075916
582,-0.02658149799219369
583,-0.027410682340738707
584,-0.024301843719184122
585,-0.023377628210884814
586,-0.027715730474692793
587,-0.033970599564520365
588,-0.036014302783510095
589,-0.03182722465903576
590,-0.02623775015282353
591,-0.0261848565188691
592,-0.03302057307812294
593,-0.03993114782760441
594,-0.03781940256160213
595,-0.024345746353949507
596,-0.007023217511557254
597,0.0033700784072442274
598,0.0031240671175916937
599,-0.0005586530852091103
600,0.003484460475065717
601,0.01910649933160459
602,0.038609931589814794
603,0.050342536609246674
604,0.05093629194960479
605,0.049610362875172724
606,0.05936785972220435
607,0.08343056822706146
608,0.1111904455335441
609,0.1292699461157908
610,0.13755930920647375
611,0.15307124301517422
612,0.19453079188664638
613,0.25955098286522327
614,0.3159453976842841
615,0.3185610314612186
616,0.24087720572654878
617,0.09643626633575642
618,-0.06761997123198604
619,-0.19998467106399243
620,-0.274568110648942
621,-0.29873475954453554
622,-0.29825600803003127
623,-0.29503422579120053
624,-0.29572807321860745
625,-0.29611280132426304
626,-0.2916931748452347
627,-0.2827228082827933
628,-0.27099683729681745
629,-0.25519118880163916
630,-0.23154552856163874
631,-0.19898061766284544
632,-0.16199446145988047
633,-0.12736293360779033
634,-0.09821355920208444
635,-0.0724351014107651
636,-0.04753710661841113
637,-0.026391375576367546
638,-0.016612083884487136
639,-0.023018271802810207
640,-0.0406790479094714
641,-0.05651462332227128
642,-0.059158093914895835
643,-0.04804234887388537
644,-0.032726053375954196
645,-0.022800776300503194
646,-0.018169091781376885
647,-0.00940380380439946
648,0.011963570943870535
649,0.0433693631839511
650,0.0716183837774156
651,0.08391831371548183
652,0.07920949327274283
653,0.0688929616809679
654,0.06610788167166465
655,0.0736689878615848
656,0.08204284131809311
657,0.07911546285732085
658,0.062284169511420726
659,0.04133685571451961
660,0.029507454972171998
661,0.03133458354090694
662,0.03878657585377538
663,0.039061148245082396
664,0.02643338080611264
665,0.007019945911758504
666,-0.007598407703007532
667,-0.011365727764863625
668,-0.0088409883339551
669,-0.009974246907927536
670,-0.02009760635114028
671,-0.03485888015495852
672,-0.04459298852928565
673,-0.04343209996370958
674,-0.03427530088060342
675,-0.025281213871865358
676,-0.02194104814573006
677,-0.022704599375521408
678,-0.02202720063225269
679,-0.017069260418341586
680,-0.010861962607284902
681,-0.008786265469721893
682,-0.012336872987999233
683,-0.016994143524558546
684,-0.016708803291300183
685,-0.010477303157901187
686,-0.004011322497008784
687,-0.004277748327449766
688,-0.01203383443587272
689,-0.019960569023193302
690,-0.018852413186728978
691,-0.006384066864719742
692,0.009951600652883627
693,0.018945745986310002
694,0.015496705487530847
695,0.005139224389566162
696,-0.0009351626453704325
697,0.004242663453129533
698,0.017724452966614637
699,0.03011833615985991
700,0.03453241368557697
701,0.03235866698973724
702,0.03070711373398847
703,0.03458072436448234
704,0.04184935167936892
705,0.045959679378053064
706,0.0433588424980534
707,0.03781676700660186
708,0.037003206251162685
709,0.04462038680328341
710,0.05609674899555653
711,0.0624776459610281
712,0.05895101025160409
713,0.04960698550958114
714,0.04353197817695101
715,0.04587656954908135
716,0.05266965775555561
717,0.05464585110845962
718,0.046495929094346834
719,0.0324476885101528
720,0.02249290008536269
721,0.022703620385542106
722,0.0290081719969342
723,0.03061779113874505
724,0.020007647059761918
725,-3.4601756437643958e-06
726,-0.018744379719231395
727,-0.02722170781205454
728,-0.025541120337436028
729,-0.02143547072995028
730,-0.021963188998408156
731,-0.026936310145021593
732,-0.030431621401582815
733,-0.02826042471719436
734,-0.023209799612068035
735,-0.02236233240246248
736,-0.02923306856810463
737,-0.0391165805593321
738,-0.04298046457709817
739,-0.03644310348167245
740,-0.02480506247873583
741,-0.01864819572178347
742,-0.023867467960019803
743,-0.03581389473431561
744,-0.04348610920361784
745,-0.039909623425746485
746,-0.02866140183754129
747,-0.0201702912017203
748,-0.021430062932103016
749,-0.029232647340538646
750,-0.03353785570223626
751,-0.02758420355780032
752,-0.01472462095366757
753,-0.005272241770882272
754,-0.006537351576961499
755,-0.01589596581295597
756,-0.023610229768948103
757,-0.022432026636552267
758,-0.014428627723766404
759,-0.008431264398398131
760,-0.010910937014254036
761,-0.01949291418560571
762,-0.025446713916122896
763,-0.022398794954820948
764,-0.012407723250536637
765,-0.0034473961652451987
766,-0.0011529382280970179
767,-0.0034065850182633485
768,-0.0032345297979677725
769,0.003179722522525575
770,0.011884433447901554
771,0.014979508215296203
772,0.009114927454184477
773,-0.00017108659260791845
774,-0.0031727073484262773
775,0.004466222385705852
776,0.01685660001105213
777,0.02278238008601422
778,0.016013623543515362
779,0.0011192794585929318
780,-0.010889679674633605
781,-0.01287098413321212
782,-0.007801858315462181
783,-0.0050175467325102585
784,-0.010402490643659001
785,-0.02042025696150236
786,-0.02590761989451618
787,-0.02169900259301731
788,-0.01227992395496257
789,-0.007676228882081672
790,-0.013628520897521621
791,-0.02587202330662501
792,-0.034242026115211835
793,-0.032499067940157805
794,-0.02411135318927713
795,-0.018388459424820057
796,-0.02105262275299563
797,-0.02876091177802011
798,-0.032877718112901744
799,-0.028376498762281082
800,-0.0187391190748276
801,-0.012079652959955405
802,-0.012790179563935508
803,-0.01742405024152674
804,-0.01888734628917993
805,-0.01428088835822676
806,-0.008024116408987397
807,-0.006976607804341812
808,-0.012767845835018471
809,-0.01955824124723335
810,-0.019823939840148172
811,-0.012312802795084326
812,-0.003835927147124143
813,-0.002701649806405083
814,-0.010170191133554989
815,-0.018565676524926175
816,-0.018246397506255792
817,-0.0068758128470081704
818,0.007946529724403758
819,0.015306099950694353
820,0.010655004875335605
821,-0.00039972288287265316
822,-0.00741968563792257
823,-0.004313548744923632
824,0.006031996496160921
825,0.01530741056615586
826,0.01749485462884079
827,0.013456406383510757
828,0.008807144266808443
829,0.007973587394879803
830,0.010327026650086037
831,0.011484700400711983
832,0.007689018101197053
833,-0.0012274311316430677
834,-0.012605545183582431
835,-0.02383381181328456
836,-0.03410313713590371
837,-0.043697315883316545
838,-0.05236960917739685
839,-0.05910056086743578
840,-0.06360206764585655
841,-0.06768666122352773
842,-0.0745708240029888
843,-0.08635101590672015
844,-0.10195157165142936
845,-0.1176431010650364
846,-0.12995462642311295
847,-0.13863879511807703
848,-0.14724668310799666
849,-0.16077328111574782
850,-0.18200169420633466
851,-0.20893559851171944
852,-0.2347952477325138
853,-0.25042334959909607
854,-0.24771278893814336
855,-0.22233539703079003
856,-0.17456908219853834
857,-0.10808677904529573
858,-0.027697675762685392
859,0.0624487180127871
860,0.15922100809816794
861,0.259694099914916
862,0.3602846595151237
863,0.4565649675193956
864,0.5433040925814132
865,0.6137830130826256
866,0.6585271096573455
867,0.6653367267710544
868,0.6226968904831809
869,0.5262478118652227
870,0.3846443897305435
871,0.2200544255165465
872,0.06143368605453009
873,-0.06629007544573146
874,-0.15093967012675907
875,-0.19499715687408148
876,-0.21067666288779452
877,-0.21219381031146964
878,-0.20981489498607014
879,-0.2077928041873848
880,-0.2055231173134991
881,-0.20019233189585087
882,-0.189556508425412
883,-0.17389510618506424
884,-0.15622826984341595
885,-0.14044120871031046
886,-0.12847204004334128
887,-0.11894079339686911
888,-0.1087544276964014
889,-0.09644904340618794
890,-0.08395981525215107
891,-0.07469744907588183
892,-0.0695921991127303
893,-0.06532217776489416
894,-0.0571552840358678
895,-0.044012145105804076
896,-0.03045278024293925
897,-0.022840069828879928
898,-0.02289530289492306
899,-0.02515816673656201
900,-0.021580094283107417
901,-0.009374959404690405
902,0.0055384050801305755
903,0.013353761239964514
904,0.009245122844052614
905,-0.0022090745125418463
906,-0.011443158898597873
907,-0.012888615335287639
908,-0.009670673944363732
909,-0.009440728422673543
910,-0.015731148588108722
911,-0.023793082024015262
912,-0.025310897677564132
913,-0.017235620636965262
914,-0.005595660221853186
915,-0.00012197712540083222
916,-0.004896944199662875
917,-0.014433781859271869
918,-0.019222710090444003
919,-0.015210389504742499
920,-0.007653520240308787
921,-0.005473647318367022
922,-0.011908321840049436
923,-0.021050455146567497
924,-0.023868179738278532
925,-0.017573854135287212
926,-0.00869219931215714
927,-0.00653439742520957
928,-0.013616016219018364
929,-0.02283888982894261
930,-0.024537548093299902
931,-0.016465612014670995
932,-0.00661096147872064
933,-0.005722025351314504
934,-0.016705535200465072
935,-0.031349468702700736
936,-0.037773192513829656
937,-0.03153296300720064
938,-0.019732621923386456
939,-0.014290708819397495
940,-0.020952816012450935
941,-0.034510987427848264
942,-0.04439947749983916
943,-0.04476726519152975
944,-0.03916792073806559
945,-0.03576517466553245
946,-0.038424498920304556
947,-0.042822350766351686
948,-0.04128022342965203
949,-0.031120324460938674
950,-0.01790700309056794
951,-0.010251745417677122
952,-0.011417354924130823
953,-0.016157046950006693
954,-0.015956885970337224
955,-0.007470074068161931
956,0.004206138565376183
957,0.010606372560981315
958,0.008258494119555836
959,0.0020692721863368197
960,0.0004353515026465437
961,0.006931360734120907
962,0.01673469188577717
963,0.0212319337779978
964,0.016234099659191144
965,0.0058009111444548705
966,-0.0018810022730406167
967,-0.0022933855853622597
968,0.0016715168920114743
969,0.0034931877685578675
970,0.00018402125300163316
971,-0.004632793850903486
972,-0.004893591901839262
973,0.0008670712895256486
974,0.007088560021360748
975,0.006244012532611691
976,-0.0034775915841566253
977,-0.015721064776901116
978,-0.021589145669916564
979,-0.018036160950991302
980,-0.010683185118544183
981,-0.008065664053717
982,-0.01290673042673024
983,-0.019176830273665176
984,-0.018069733099366728
985,-0.007074362179955861
986,0.006955492763442687
987,0.013987839636318045
988,0.010282023672114332
989,0.0018142868414206543
990,-0.0017117355040443991
991,0.003686882607830574
992,0.012664147907624762
993,0.01612625535473341
994,0.010192019555830895
995,-0.00040103943542857054
996,-0.007477842278003778
997,-0.007513890162772029
998,-0.004342398508162835
999,-0.004136173490988752
1000,-0.008412360029470347
1001,-0.012600203013191431
1002,-0.011510983189869442
1003,-0.005567303666569732
1004,-0.0008437893449708567
1005,-0.00266371441977603
1006,-0.009546866643274097
1007,-0.014169826742855832
1008,-0.010708332951355103
1009,-0.0010963383721245353
1010,0.006400884555040117
1011,0.005093907896328973
1012,-0.0036674815610238474
1013,-0.012028815462634672
1014,-0.013584543829362899
1015,-0.009620783096651136
1016,-0.007305803477201116
1017,-0.011798130466159558
1018,-0.020522343841101527
1019,-0.02562036168183393
1020,-0.022102095622973945
1021,-0.013236629126319208
1022,-0.007466040765665171
1023,-0.009852667472576933
1024,-0.016823771171706355
1025,-0.019750129161815656
1026,-0.013862860329412093
1027,-0.0033995001570165766
1028,0.002460829639851318
1029,-0.0010588926711093277
1030,-0.00919666047540155
1031,-0.012145597809430649
1032,-0.004867103273206712
1033,0.007655486309724402
1034,0.015205284300798844
1035,0.012542293863557865
1036,0.004782082728686761
1037,0.0023613439623739606
1038,0.010458756825476208
1039,0.023471141982411806
1040,0.03024698316758272
1041,0.025016369066264955
1042,0.013122015775241327
1043,0.005735330848563399
1044,0.008766510836717069
1045,0.017083626911770906
1046,0.01990164332175035
1047,0.011951622108532418
1048,-0.0009019013839505073
1049,-0.007466818937097061
1050,-0.002813562303509534
1051,0.00601076573447097
1052,0.006169067388692172
1053,-0.008668940545098222
1054,-0.031961961032989164
1055,-0.05028602466396756
1056,-0.056064045251730046
1057,-0.054801732001448944
1058,-0.05987822369886731
1059,-0.07991604236870542
1060,-0.11075544135050303
1061,-0.13945289061546148
1062,-0.15622617294595081
1063,-0.16303069364227693
1064,-0.1710842239691492
1065,-0.19014001547268686
1066,-0.21945389752175976
1067,-0.2479287322371194
1068,-0.2620924894848317
1069,-0.2541631582816533
1070,-0.22392820191038212
1071,-0.17488682441080788
1072,-0.10993154327327426
1073,-0.030629999875821004
1074,0.06066208369203059
1075,0.1594758190399767
1076,0.2605560460125781
1077,0.3599965500351202
1078,0.45514116413859695
1079,0.5417939850658995
1080,0.6116169086795306
1081,0.6529174965361204
1082,0.6549653855942885
1083,0.6127472542023757
1084,0.5289051893197833
1085,0.4123764387613168
1086,0.2758732984464061
1087,0.13421949003159195
1088,0.003280446261501065
1089,-0.10230395693137406
1090,-0.17319990941864635
1091,-0.20915043725696603
1092,-0.21907697116435798
1093,-0.21620841661603254
1094,-0.21084435653745773
1095,-0.20566119914999126
1096,-0.19686229326109295
1097,-0.18000882437055338
1098,-0.15566776657964132
1099,-0.1302239283600129
1100,-0.11127152977567116
1101,-0.10161065640442352
1102,-0.09711871805757555
1103,-0.09047162933287436
1104,-0.07756537733306781
1105,-0.0610027286757287
1106,-0.04751682751888624
1107,-0.041657758948796884
1108,-0.0415702414780045
1109,-0.04086028261776234
1110,-0.03485261057914263
1111,-0.02525524202978581
1112,-0.018603975607481817
1113,-0.01981134257550358
1114,-0.02703809456985986
1115,-0.03302665943239709
1116,-0.03179291956087163
1117,-0.024211883284648246
1118,-0.0169849857455061
1119,-0.015994975284981103
1120,-0.020687261884869572
1121,-0.025099058544696226
1122,-0.024374444701140596
1123,-0.019928897883664403
1124,-0.01778798921714142
1125,-0.021776969021817964
1126,-0.028812371919505086
1127,-0.03157780903059754
1128,-0.026146072483047508
1129,-0.016610849461453338
1130,-0.011492775530883468
1131,-0.01514199657943949
1132,-0.022904915157032336
1133,-0.025425856955192616
1134,-0.018201129629198474
1135,-0.006777620578217666
1136,-0.0019376634756697688
1137,-0.009208290536846643
1138,-0.02304039538404814
1139,-0.03171065096112201
1140,-0.028425043527552027
1141,-0.01778248699451853
1142,-0.011164649051522521
1143,-0.01551704434557405
1144,-0.026545737721089594
1145,-0.03299677648049733
1146,-0.027728807922385128
1147,-0.01463999123976243
1148,-0.004738097605488571
1149,-0.00543776859392572
1150,-0.013738570414772479
1151,-0.019839766041821087
1152,-0.01725657290589109
1153,-0.009172080080116954
1154,-0.004797368592860191
1155,-0.009668227392470814
1156,-0.0198095178093593
1157,-0.025624701590918217
1158,-0.021479191941495862
1159,-0.011250317441795388
1160,-0.004274896767835864
1161,-0.005848099814004521
1162,-0.011900989439350713
1163,-0.013240408671157167
1164,-0.005078904760019404
1165,0.0077811547590889195
1166,0.015430964668422578
1167,0.012633391975173264
1168,0.0041339902508071725
1169,8.464870463007832e-05
1170,0.005981633031198486
1171,0.01707244345879036
1172,0.02288117844532529
1173,0.017500320910820204
1174,0.005481071754697633
1175,-0.0026216353794102825
1176,-0.0007662332763254454
1177,0.006430925992949265
1178,0.008227223145356545
1179,-0.0012624656320502563
1180,-0.01644997854998143
1181,-0.024856601544953172
1182,-0.018837061601072163
1183,-0.0031992874623447314
1184,0.008839265308173104
1185,0.007747405426883529
1186,-0.0036359862927557865
1187,-0.013119981329960787
1188,-0.010954594237753051
1189,0.0009329998031594475
1190,0.011034624802049803
1191,0.009472971970250498
1192,-0.002594834222409335
1193,-0.014323419952793386
1194,-0.015643438610097517
1195,-0.006489114756358485
1196,0.003995156158718182
1197,0.006981844364680205
1198,0.0024548806648019717
1199,-0.0016790310881781827
1200,0.0014453136933763686
1201,0.010028107169869875
1202,0.015217342598895692
1203,0.01035107141145807
1204,-0.001637598976517658
1205,-0.010411495781104726
1206,-0.008174249920848912
1207,0.0023848229628967883
1208,0.010183053800863935
1209,0.00615598617728121
1210,-0.007956146174868868
1211,-0.020976764343532926
1212,-0.022606143375357497
1213,-0.012866478222654864
1214,-0.0017443051995969198
1215,0.00044002613902641835
1216,-0.007424852899682132
1217,-0.016828893123754997
1218,-0.01838503227344917
1219,-0.010932861835736385
1220,-0.0021499146575650304
1221,-0.0004219340995811107
1222,-0.006377007831720596
1223,-0.012631036126372362
1224,-0.011862933034732117
1225,-0.004824793998260964
1226,0.00011665322698899534
1227,-0.004281724954696861
1228,-0.015918436326346118
1229,-0.024299375566507513
1230,-0.020313833255080748
1231,-0.005462316317465434
1232,0.008757078684457038
1233,0.01118461184570134
1234,0.0013169684437024532
1235,-0.010382144372767105
1236,-0.012575303342071135
1237,-0.0038107530441611357
1238,0.0064672084910962855
1239,0.007530530058231299
1240,-0.0019318592271645011
1241,-0.012563341038518644
1242,-0.013683031890060916
1243,-0.003890663618983977
1244,0.007577504054200239
1245,0.0100155894829438
1246,0.001800912593955062
1247,-0.008053982534602036
1248,-0.00870897064595488
1249,0.002161290987972822
1250,0.016543497593608805
1251,0.024129228379603157
1252,0.021893014281991433
1253,0.015869404204329075
1254,0.014095593030040484
1255,0.01851476585341525
1256,0.024036643555190477
1257,0.024956485507023285
1258,0.021236775795880243
1259,0.017812739212906534
1260,0.0180802354490659
1261,0.019239395166351474
1262,0.015095324725816366
1263,0.003505079198160117
1264,-0.009887833400059845
1265,-0.0164177514939383
1266,-0.013301087573091702
1267,-0.007367543915153058
1268,-0.009145991404319506
1269,-0.022755735868393828
1270,-0.04173892594733229
1271,-0.05529003630652585
1272,-0.05888762410439851
1273,-0.05878395632357476
1274,-0.06588189229585385
1275,-0.08509161700248126
1276,-0.11063733442484708
1277,-0.13170590280366984
1278,-0.14263489073390456
1279,-0.14776528284950774
1280,-0.15679885642677058
1281,-0.17574936376420136
1282,-0.20205758387419834
1283,-0.2273587184203653
1284,-0.2437372944392735
1285,-0.24698954766659842
1286,-0.23498235272335422
1287,-0.20488624969429337
1288,-0.1535969162248927
1289,-0.0810515932122641
1290,0.007846399568989275
1291,0.10564201696862101
1292,0.20695576862968207
1293,0.31031454268191777
1294,0.41493539217326036
1295,0.5156914310641176
1296,0.6016477167588807
1297,0.6599532597678391
1298,0.6813928115015344
1299,0.6624947024827138
1300,0.6032625667925299
1301,0.5047088092084273
1302,0.3706212203701781
1303,0.21276076731553106
1304,0.05341480843109071
1305,-0.0801048234433561
1306,-0.16760138732497415
1307,-0.20649383995063647
1308,-0.21222573581493445
1309,-0.20745758747834644
1310,-0.20770601560357502
1311,-0.21382915865374758
1312,-0.21611840206342325
1313,-0.20554238905081995
1314,-0.18253397546164235
1315,-0.15658153972556427
1316,-0.1379638964837499
1317,-0.1293280721348921
1318,-0.12432868861400434
1319,-0.11404414717369929
1320,-0.09516275459412005
1321,-0.07272643255867806
1322,-0.05533480546791297
1323,-0.047455410434765095
1324,-0.04585179321725491
1325,-0.043137171046499265
1326,-0.03486392358184774
1327,-0.023460889946111035
1328,-0.015520959385268136
1329,-0.015308199352597914
1330,-0.020814725468517526
1331,-0.02600181311142328
1332,-0.02672745274195281
1333,-0.024343356750310012
1334,-0.023475887235745854
1335,-0.026492974757352346
1336,-0.030533385462611834
1337,-0.03028825785862758
1338,-0.023689479496254086
1339,-0.014484375702142725
1340,-0.008752744186922054
1341,-0.00874245262432646
1342,-0.01045500488880706
1343,-0.007827047479831787
1344,0.0004691774993126245
1345,0.00867433813641589
1346,0.00899246113483592
1347,-0.0005160531054350353
1348,-0.013105736891339809
1349,-0.018942387740588956
1350,-0.014185840575345565
1351,-0.004782595844037809
1352,-0.0009493842679039514
1353,-0.007345389655301633
1354,-0.01838122476697572
1355,-0.023383182905000882
1356,-0.016805418410344157
1357,-0.0036550490833035573
1358,0.005168308971166102
1359,0.0031369868396383654
1360,-0.005963090858520093
1361,-0.012070678808056855
1362,-0.008751242358575469
1363,0.0007705202931805502
1364,0.007147250766947593
1365,0.004170172356158117
1366,-0.005573334889549655
1367,-0.014027924077593942
1368,-0.016164311248455243
1369,-0.01474825112848936
1370,-0.01660190444698329
1371,-0.024506138404764833
1372,-0.03342779026710845
1373,-0.035254046228567634
1374,-0.027324332574908128
1375,-0.01591062547978859
1376,-0.010718570740108378
1377,-0.015552627349747975
1378,-0.02435519376528137
1379,-0.02673065260186739
1380,-0.0178005275899306
1381,-0.0029511645170340376
1382,0.007065637426869484
1383,0.005960094855867406
1384,-0.002668843989903656
1385,-0.009247295787660299
1386,-0.00744800301675839
1387,0.00017276390687338144
1388,0.00526555069603255
1389,0.0021610655601088232
1390,-0.006589125730928496
1391,-0.012783512315995131
1392,-0.010493720907546232
1393,-0.0015930435649090355
1394,0.006260731012451334
1395,0.006947017945288373
1396,0.001339603528439778
1397,-0.004124766951871969
1398,-0.003943083975805684
1399,0.0014509849854457899
1400,0.006860855162933804
1401,0.008001252525258965
1402,0.005628677010046313
1403,0.004002607937414663
1404,0.005625575627293625
1405,0.008118393616616443
1406,0.0067781048301119124
1407,0.00022515345891474439
1408,-0.007002210514164789
1409,-0.008143643637055931
1410,-0.0008828405768574758
1411,0.009783474943585783
1412,0.015779009080793334
1413,0.013462291033055417
1414,0.0070289755269300185
1415,0.004252035868181151
1416,0.00863610944109422
1417,0.015806226049097614
1418,0.01785674305007926
1419,0.011394027027603722
1420,0.0011561529380739732
1421,-0.004584890299654206
1422,-0.0023363485075775545
1423,0.0030095472751551023
1424,0.0031492515292051585
1425,-0.004830594473633435
1426,-0.014655812466435193
1427,-0.016221877986698222
1428,-0.005285215210087258
1429,0.011781304867833225
1430,0.022923534204818678
1431,0.020625753820763558
1432,0.008037591990738766
1433,-0.004430859408124039
1434,-0.008543614220528573
1435,-0.004847307000442457
1436,-0.0007404875608369462
1437,-0.002579357770038394
1438,-0.009742374398933665
1439,-0.01607965421772104
1440,-0.016673142950295268
1441,-0.012821144052074681
1442,-0.010354791802966922
1443,-0.013299197244872774
1444,-0.019518912942474674
1445,-0.02282854999180177
1446,-0.019418226291775274
1447,-0.012031433208454968
1448,-0.007540409204485525
1449,-0.010182674834704065
1450,-0.01716254589235946
1451,-0.021121992035106237
1452,-0.01723813881555453
1453,-0.008039740395063583
1454,-0.00112418017848913
1455,-0.0018663828882882166
1456,-0.008200087141336573
1457,-0.01264074738508621
1458,-0.00965605885939427
1459,-0.001162893891234361
1460,0.005337716667149507
1461,0.004250940448433995
1462,-0.0023796737859728212
1463,-0.006682323199291446
1464,-0.002675125335151498
1465,0.00769387624138463
1466,0.016257274354617164
1467,0.01652537224230568
1468,0.009980713838086717
1469,0.00446624935738868
1470,0.0062289094900111405
1471,0.013607418204206363
1472,0.018792891785591022
1473,0.015953881900605545
1474,0.007457509602521577
1475,0.0016925751879071187
1476,0.004511522074961806
1477,0.012987730631113005
1478,0.01808178796450502
1479,0.013799309352840367
1480,0.003578029994506601
1481,-0.002868327846592281
1482,0.0006012944069345777
1483,0.009956987355072743
1484,0.014706405370230442
1485,0.008631686002639648
1486,-0.003193497500287329
1487,-0.008643851473369091
1488,-0.00046889727062836934
1489,0.01570380057603657
1490,0.025583518397774733
1491,0.019160296482873887
1492,0.00013819961651577846
1493,-0.01730248736620804
1494,-0.021452030967258763
1495,-0.013403504239103529
1496,-0.005050622218686195
1497,-0.007044091272889715
1498,-0.018601912207480746
1499,-0.02889854358984695
1500,-0.028164104370125245
1501,-0.01722048430517422
1502,-0.006185558196152391
1503,-0.00417539598894413
1504,-0.010700342227052222
1505,-0.017268335670983098
1506,-0.016996902523352207
1507,-0.011903062211466475
1508,-0.010252530063262245
1509,-0.016939077627708993
1510,-0.027274485195985923
1511,-0.03107945085701482
1512,-0.023150618421830825
1513,-0.00925011773014099
1514,-0.0010328506695100898
1515,-0.004605019552038347
1516,-0.014183754529161218
1517,-0.017508936065525664
1518,-0.007910600268334553
1519,0.008914731592233507
1520,0.020282243822096667
1521,0.01885245867725778
1522,0.009730726057692724
1523,0.005274396028251752
1524,0.012737862799963338
1525,0.026992724077825072
1526,0.03550993725160635
1527,0.030627450084483525
1528,0.016952874081521095
1529,0.0066514730763083335
1530,0.007406568768466322
1531,0.015038263135530687
1532,0.018043419833103022
1533,0.009452896246940332
1534,-0.005813753431528962
1535,-0.015391569279851334
1536,-0.011314381596156239
1537,0.002395327226196972
1538,0.013757335804462863
1539,0.014357199438988204
1540,0.006942078890023869
1541,0.0017368467780741262
1542,0.0054316222276268806
1543,0.014069236129605742
1544,0.01708470490495714
1545,0.008480893607309838
1546,-0.0062019899156935355
1547,-0.014476475480827318
1548,-0.008938450326183265
1549,0.005001092205779032
1550,0.013531958151429362
1551,0.007109887094507168
1552,-0.01065624188743226
1553,-0.02640225717526235
1554,-0.02940433323658047
1555,-0.021123844546606492
1556,-0.013036559724864073
1557,-0.015346101386914383
1558,-0.027784292160982063
1559,-0.04112313864056318
1560,-0.04716202668739933
1561,-0.04682612930269482
1562,-0.04855447726002109
1563,-0.05933788700958932
1564,-0.07796637620615227
1565,-0.09710759754422786
1566,-0.11130678926036586
1567,-0.12210540489167725
1568,-0.13521784147092858
1569,-0.15361053090223464
1570,-0.17450226320816353
1571,-0.1932785323219745
1572,-0.20894059436026577
1573,-0.223692135860734
1574,-0.23625216766894447
1575,-0.23674913587316052
1576,-0.21079256180552264
1577,-0.15077391015873703
1578,-0.06355651793596348
1579,0.03422221630662038
1580,0.1299035969534047
1581,0.2243022861691158
1582,0.32683883463860947
1583,0.4403975983209955
1584,0.551037306943289
1585,0.6337489508518563
1586,0.6697247686583135
1587,0.6587514038155738
1588,0.6147788917073014
1589,0.549513606869301
1590,0.4611943110474702
1591,0.3407100948097219
1592,0.1894206171961989
1593,0.03018827311144295
1594,-0.10148858268203337
1595,-0.18043587211432893
1596,-0.208895115724199
1597,-0.2123160864992909
1598,-0.2175298076525566
1599,-0.23259236430935243
1600,-0.245225800910257
1601,-0.23923469151275614
1602,-0.2123547234096328
1603,-0.1791462135766764
1604,-0.15755793425234063
1605,-0.1528630533141434
1606,-0.15403442214977714
1607,-0.14510757148976247
1608,-0.1201976762711632
1609,-0.08833926417220045
1610,-0.06456024979698825
1611,-0.0562875140038597
1612,-0.05765971256545765
1613,-0.05620062427052583
1614,-0.04480930293554175
1615,-0.02775980354624449
1616,-0.015683182108037708
1617,-0.014921128462536626
1618,-0.021487016498659958
1619,-0.025055354337856398
1620,-0.01882760962625744
1621,-0.0058115762845378765
1622,0.0042516133821423295
1623,0.004113464425246945
1624,-0.00448237381929207
1625,-0.01302690743500902
1626,-0.014679247241299528
1627,-0.010503271188507215
1628,-0.0075116254676020735
1629,-0.010769783868873945
1630,-0.017719981647451657
1631,-0.02057144387837495
1632,-0.014372931555491332
1633,-0.0025137847640679493
1634,0.006115504301072491
1635,0.00564045779413796
1636,-0.0011300671811357889
1637,-0.005668066006827444
1638,-0.0024032522531025145
1639,0.005654974919001077
1640,0.010083140412079653
1641,0.005790809904735584
1642,-0.003615540796187743
1643,-0.009442639830151422
1644,-0.006917654741795913
1645,-0.0003801195781541317
1646,0.0008295740457813751
1647,-0.008136824725135924
1648,-0.022264560399999446
1649,-0.03097285765654144
1650,-0.02803852209512534
1651,-0.017477978679036207
1652,-0.009666980768567195
1653,-0.011528242532436717
1654,-0.02029203813002161
1655,-0.026647169902447015
1656,-0.023900803835360217
1657,-0.014186981255972123
1658,-0.006060563487711849
1659,-0.006355821970410399
1660,-0.014415611760688226
1661,-0.023848835113669163
1662,-0.029270479963806665
1663,-0.0308976095081291
1664,-0.03271619849565938
1665,-0.03685763378492795
1666,-0.04058757492135487
1667,-0.03922887224686303
1668,-0.031846449583241794
1669,-0.023433794015545833
1670,-0.020848055181117472
1671,-0.026233233168518034
1672,-0.03449301978988768
1673,-0.03757894799049659
1674,-0.03166960443544562
1675,-0.020395582165822566
1676,-0.011068207926991395
1677,-0.007689091176537134
1678,-0.007627163373093219
1679,-0.005143962181061751
1680,0.0019390402128058094
1681,0.009367089152043245
1682,0.01056978225847572
1683,0.0038467291957500105
1684,-0.004722614149804282
1685,-0.006097414723908259
1686,0.0033465832374947177
1687,0.01792540476847547
1688,0.027353596350265873
1689,0.025950126837994386
1690,0.017691283210217502
1691,0.01220064185752485
1692,0.015414623123894666
1693,0.02387751782571245
1694,0.028200663139698524
1695,0.02234653966167076
1696,0.009693088865808023
1697,-5.439052180202116e-05
1698,-8.612838966084264e-05
1699,0.007170775248531517
1700,0.012730177500418985
1701,0.009967090614680253
1702,0.0009040772094699924
1703,-0.006260098726291189
1704,-0.005702541466422496
1705,8.795428702721981e-05
1706,0.0029334217086162085
1707,-0.0025928436004074695
1708,-0.013489044403487967
1709,-0.02114866019059891
1710,-0.01983556708198298
1711,-0.01230825408359291
1712,-0.00701112284124774
1713,-0.009721033403193018
1714,-0.018013032189774163
1715,-0.023967530984958497
1716,-0.022246597254940874
1717,-0.015374693724731808
1718,-0.010987393773841371
1719,-0.013915214660796125
1720,-0.021116362708293614
1721,-0.024591713291359025
1722,-0.019444787936420002
1723,-0.009099224704961342
1724,-0.002401728774287696
1725,-0.0052280687269256505
1726,-0.014599780172015828
1727,-0.021029968436581902
1728,-0.01707391577599324
1729,-0.004227123865369985
1730,0.008167715011311553
1731,0.010994696519517667
1732,0.003116005197213385
1733,-0.008021418775293613
1734,-0.013144197813028944
1735,-0.008975523546256182
1736,-0.0002527053921214146
1737,0.005337734478320124
1738,0.004213746076632607
1739,-0.0004963899548159681
1740,-0.002655173712696371
1741,0.0009189749014066545
1742,0.007942675996164272
1743,0.013521956430954026
1744,0.014981759384836304
1745,0.013716823612734252
1746,0.012578867086318175
1747,0.012067110684194334
1748,0.009695813925761295
1749,0.0032950386687613546
1750,-0.005470027266243342
1751,-0.011574329830104875
1752,-0.011138519184253261
1753,-0.005462107600023784
1754,-0.000135679126251904
1755,0.00027985073136536876
1756,-0.0033165963045335106
1757,-0.005818088117627074
1758,-0.0038575465061662733
1759,-0.0002478213121610756
1760,-0.0017610922529454139
1761,-0.011869377170438877
1762,-0.025802665603142858
1763,-0.03368851449709219
1764,-0.029574838481643093
1765,-0.01764099380549155
1766,-0.008884770337174053
1767,-0.010754377751117553
1768,-0.01964774148232868
1769,-0.024066161156791718
1770,-0.015948282526455276
1771,0.0007457492426525085
1772,0.013037715285945552
1773,0.01120783716558399
1774,-0.0014052413826225255
1775,-0.010961418227280428
1776,-0.0060958815618669775
1777,0.01098868810603952
1778,0.02618772099856629
1779,0.02663134780400315
1780,0.012836881221550547
1781,-0.0017915059057804247
1782,-0.0036789974238364714
1783,0.00814489998820225
1784,0.021354525953684655
1785,0.022197504695530716
1786,0.008443240459481381
1787,-0.008857646016754858
1788,-0.016167230114016537
1789,-0.010278745164364304
1790,-0.0010833455136661104
1791,-0.0021137857891052525
1792,-0.018225339895364824
1793,-0.04196376068391984
1794,-0.06138782417412011
1795,-0.0712130860965738
1796,-0.07657090710544423
1797,-0.08645624012596242
1798,-0.10410374121760055
1799,-0.12414979333766926
1800,-0.13922198420715903
1801,-0.1488811577096964
1802,-0.16128310654339434
1803,-0.18509436191416287
1804,-0.2190947939806961
1805,-0.24975123083412698
1806,-0.25980555319178816
1807,-0.24038802184271968
1808,-0.19557091478949706
1809,-0.13536834016470417
1810,-0.0643380240962208
1811,0.022688425140198563
1812,0.13315159304487212
1813,0.2647127065148269
1814,0.4007257679932542
1815,0.518385310013644
1816,0.6023085210543034
1817,0.6507518953789353
1818,0.6688089165734642
1819,0.6560654013968442
1820,0.6022276181945823
1821,0.49670706419992516
1822,0.3439867454925666
1823,0.1697155807970708
1824,0.010067241499289198
1825,-0.10793699638440776
1826,-0.17914318050379147
1827,-0.21646276433940476
1828,-0.23582480307688652
1829,-0.24416546543377304
1830,-0.239896666993184
1831,-0.22227094974044428
1832,-0.19803058934902748
1833,-0.17804818469143255
1834,-0.16796272462604528
1835,-0.163141455566177
1836,-0.15351981642260484
1837,-0.1335073420684989
1838,-0.10710354295250317
1839,-0.0835442826845898
1840,-0.06842920449884973
1841,-0.059377983496150546
1842,-0.05001468258040111
1843,-0.03738622125034161
1844,-0.02483604729036063
1845,-0.01767100877302329
1846,-0.01671065487627177
1847,-0.01684475550372358
1848,-0.01219323977267038
1849,-0.0024057144376754395
1850,0.006560363026829462
1851,0.008095012038178551
1852,0.0013321227890302702
1853,-0.008082875406898778
1854,-0.013434410369709882
1855,-0.012968145614051832
1856,-0.010569575974991061
1857,-0.010828000221734146
1858,-0.013935945070872067
1859,-0.015780593740151814
1860,-0.01293263651582011
1861,-0.0069926753349708855
1862,-0.003397623514534401
1863,-0.005682422730363573
1864,-0.011214709261191759
1865,-0.013242145915724118
1866,-0.007699271241229238
1867,0.0019462549780463363
1868,0.007036701666325368
1869,0.001519229371161416
1870,-0.012158188421481472
1871,-0.02492184724321191
1872,-0.0292000554352315
1873,-0.02562836215978351
1874,-0.021876016702883715
1875,-0.024717660259735777
1876,-0.03308444059471699
1877,-0.03894719522111202
1878,-0.035268139264742655
1879,-0.02330035953517546
1880,-0.012045299157797697
1881,-0.010237163336542654
1882,-0.01846310574849516
1883,-0.0288992551794552
1884,-0.032791444794296874
1885,-0.02842195493995044
1886,-0.02203341595372132
1887,-0.02116246658847869
1888,-0.027138957657104897
1889,-0.034026868140908474
1890,-0.034708717000683065
1891,-0.02780216341633549
1892,-0.018564638406428358
1893,-0.013214495171019119
1894,-0.012716724603060666
1895,-0.012382435065505163
1896,-0.007450398037987433
1897,0.0014171088444693842
1898,0.008649938566546608
1899,0.009840734891298407
1900,0.0069021513777457015
1901,0.006535078944091829
1902,0.013131436386132945
1903,0.023336358521935115
1904,0.02833568606614017
1905,0.022304695188144312
1906,0.008883051239121496
1907,-0.0011332094111956709
1908,0.0006584687773662705
1909,0.012345585031929236
1910,0.023186023425212556
1911,0.02346538608285957
1912,0.013544782200825587
1913,0.00344993625812907
1914,0.0032705932897714235
1915,0.013448091440507695
1916,0.024200625833481273
1917,0.0246309579789645
1918,0.012836286779556647
1919,-0.0025325480400304754
1920,-0.010551993607884055
1921,-0.00807017054364852
1922,-0.0019795915557784425
1923,-0.001884642113418151
1924,-0.010575989515433877
1925,-0.021556922790866857
1926,-0.02571464459544076
1927,-0.020286853555147543
1928,-0.011300763977409324
1929,-0.007379529267988032
1930,-0.011362855807901657
1931,-0.018084603340786626
1932,-0.020200322834865853
1933,-0.01582332229720304
1934,-0.010118760789035626
1935,-0.00941556945160236
1936,-0.014171798830194825
1937,-0.018282963672314842
1938,-0.015573951511987628
1939,-0.006713714831135441
1940,0.0008619964714065585
1941,0.00031839176805109094
1942,-0.00729216642619105
1943,-0.013457709800792906
1944,-0.010318463851885713
1945,0.0014886109571279232
1946,0.013231326006851188
1947,0.016563752354363845
1948,0.011702813796430234
1949,0.007021622742969214
1950,0.010326455172778398
1951,0.020567769003118984
1952,0.0285101612405861
1953,0.025960981784043755
1954,0.014395997923631668
1955,0.0041304977106219175
1956,0.0044854755665583185
1957,0.014512924030105727
1958,0.02358263344860533
1959,0.021545710587762862
1960,0.008676780618915289
1961,-0.004369707777213612
1962,-0.006677233303201207
1963,0.002507636114719688
1964,0.013141831612849878
1965,0.014110332873141111
1966,0.003834330607469281
1967,-0.00845096548053785
1968,-0.011783306759045395
1969,-0.003950386192130696
1970,0.006701546426180955
1971,0.00950425604218487
1972,0.0014074456952668714
1973,-0.010959865737008648
1974,-0.018533617961653828
1975,-0.01861794214012288
1976,-0.01642919215170822
1977,-0.018361105414532293
1978,-0.02446227958902139
1979,-0.028167631024576457
1980,-0.023523275372158252
1981,-0.01216645587361231
1982,-0.0024687262819365454
1983,-0.0014061601734539349
1984,-0.007448624005294644
1985,-0.011970902550221589
1986,-0.00801926389889072
1987,0.002440274890654855
1988,0.01036878461279677
1989,0.008968424749587776
1990,0.0010296116610543444
1991,-0.003425864866332797
1992,0.002792580783468066
1993,0.016290050711918996
1994,0.025694255407675948
1995,0.022454960288409313
1996,0.009314460335929593
1997,-0.002078197805854963
1998,-0.0023742181861061092
1999,0.006240958937019788
2000,0.011835834937150402
2001,0.003966019739884466
2002,-0.016377420194608715
2003,-0.037617684798578035
2004,-0.048408983399061405
2005,-0.04815336320598604
2006,-0.047402475583232934
2007,-0.058005359077589365
2008,-0.08238369896271047
2009,-0.11178311564906933
2010,-0.1347053807246955
2011,-0.14737848706631104
2012,-0.15667120863265388
2013,-0.1731556375964597
2014,-0.2008965618632865
2015,-0.23293002065265073
2016,-0.25570361890937926
2017,-0.2577805271097351
2018,-0.2351491246706029
2019,-0.18962190735806755
2020,-0.12352942895373178
2021,-0.03679470459271049
2022,0.07077253180064047
2023,0.19484995234513303
2024,0.32497323388470445
2025,0.44807792454538364
2026,0.5539217782465801
2027,0.636924029278719
2028,0.692514816275615
2029,0.7120845249492423
2030,0.6830254293209091
2031,0.596223460010255
2032,0.4560302580149721
2033,0.2840894404468563
2034,0.11236163720096473
2035,-0.03073078968749793
2036,-0.1314734546802263
2037,-0.19216356617502195
2038,-0.22355805327237582
2039,-0.23597380560723882
2040,-0.23574951374912306
2041,-0.2272760916513253
2042,-0.2155068960344137
2043,-0.20486622076444277
2044,-0.19596205526264052
2045,-0.18494557483904478
2046,-0.1676882697646801
2047,-0.14508663931477678
2048,-0.12355123504269949
2049,-0.10923395172321038
2050,-0.1014416227068042
2051,-0.09242819499913144
2052,-0.0747685193686522
2053,-0.04948350875689515
2054,-0.026472913300265896
2055,-0.015950506771089862
2056,-0.01870673020934875
2057,-0.02481585909725464
2058,-0.022553922104950955
2059,-0.009276150215352644
2060,0.006185849837888672
2061,0.011991093596001888
2062,0.004509342790914911
2063,-0.008417818569328593
2064,-0.01505830464354788
2065,-0.010630082803158634
2066,-0.0009942575240587692
2067,0.0038549637184694487
2068,-0.00041035195107779095
2069,-0.008996198793436026
2070,-0.013666653412180704
2071,-0.01120334552122271
2072,-0.0060279463080489745
2073,-0.004857419181249514
2074,-0.00947647134798689
2075,-0.01523872493849872
2076,-0.016528087844123022
2077,-0.013047038304090992
2078,-0.01012707566178615
2079,-0.012781452243167749
2080,-0.01994756159241067
2081,-0.02521334879719401
2082,-0.02347417349080131
2083,-0.01660620557691328
2084,-0.012058655584397945
2085,-0.015509319117854792
2086,-0.024967375506592893
2087,-0.032458680338299004
2088,-0.031830283137793514
2089,-0.024927035132578282
2090,-0.0198598389967194
2091,-0.022947692188822602
2092,-0.03232083019268205
2093,-0.039636934783235295
2094,-0.03831548158508582
2095,-0.030129488936054466
2096,-0.0235106420826367
2097,-0.0251148907187803
2098,-0.03296359327235944
2099,-0.03804334602398758
2100,-0.032929907799809255
2101,-0.018991619758180586
2102,-0.00502312328951568
2103,0.0014040703138765746
2104,0.0013045519934260924
2105,0.0029296159355980565
2106,0.012871644514108905
2107,0.028422171906420483
2108,0.03903501921674066
2109,0.035941422062297154
2110,0.020826813888897344
2111,0.0050584580429550476
2112,-0.00011737060490440369
2113,0.0067192301517720945
2114,0.016674971474310036
2115,0.019580827432107036
2116,0.013733979796233236
2117,0.006956362168727212
2118,0.008138832948112323
2119,0.017779954499172114
2120,0.02700628509872608
2121,0.026186593197108435
2122,0.01470653600034491
2123,0.0021456610220251422
2124,-0.0006073473285959246
2125,0.008113700051063499
2126,0.018792384412765616
2127,0.01943213843940572
2128,0.006766115083693857
2129,-0.010638186458271652
2130,-0.020278556082873846
2131,-0.017083979113387538
2132,-0.007570424675843051
2133,-0.0031602484428420357
2134,-0.009338431293136478
2135,-0.020958680243634314
2136,-0.02773696372746974
2137,-0.02415275433459835
2138,-0.0141695720311834
2139,-0.006750694911479162
2140,-0.0072138715082941
2141,-0.013041234972354137
2142,-0.017679280835625134
2143,-0.01767817058434729
2144,-0.015584299373701769
2145,-0.015971591003016414
2146,-0.01937787179604312
2147,-0.02095864504486384
2148,-0.015420801755187011
2149,-0.002960302473302734
2150,0.010231304950835815
2151,0.017606592331834797
2152,0.018239997066617008
2153,0.0169350763470068
2154,0.018438510546565555
2155,0.021999483014286773
2156,0.022193748720426874
2157,0.015269282962195155
2158,0.0042343048162245545
2159,-0.003052791841548861
2160,-0.0013075705945994839
2161,0.006696621604893195
2162,0.012423102609845834
2163,0.009706716316899091
2164,0.000723317700570911
2165,-0.006266112456782758
2166,-0.005286695410101463
2167,0.0011877131406940998
2168,0.004535464202457733
2169,-0.0013810780971701994
2170,-0.013753130635500287
2171,-0.023012119168139597
2172,-0.021701904934916645
2173,-0.011530059112396825
2174,-0.0018533708143829539
2175,-0.0011218215910121588
2176,-0.009466640141623225
2177,-0.01928056075439493
2178,-0.022809939553615367
2179,-0.01919231565962495
2180,-0.014308010102953874
2181,-0.014076319585782022
2182,-0.01815665936641006
2183,-0.020324326982154063
2184,-0.015002258307533971
2185,-0.003347358779201802
2186,0.007186128109347982
2187,0.009434825338244454
2188,0.0029279175031311435
2189,-0.005953772000679744
2190,-0.010016314419397224
2191,-0.007563482620736198
2192,-0.0030581093058126723
2193,-0.0019064947715496223
2194,-0.004821183071982489
2195,-0.007353819681328892
2196,-0.004821479752740386
2197,0.002570742919257601
2198,0.00968600442871026
2199,0.011515799219135904
2200,0.008145601697680313
2201,0.004527733455995829
2202,0.005289942418171472
2203,0.009943632311605463
2204,0.013516344136213387
2205,0.012059428181698393
2206,0.0073070142852219785
2207,0.00537732031543083
2208,0.010416040526963816
2209,0.019512205204028386
2210,0.02441884806239625
2211,0.01904309597164692
2212,0.0056949411510861195
2213,-0.006218811191996552
2214,-0.008334008966038229
2215,-0.0008802026592945596
2216,0.007531250521693722
2217,0.007847171697904859
2218,-0.0011667520441463887
2219,-0.012153058497568805
2220,-0.01659099028670013
2221,-0.013280185959934026
2222,-0.009690461207785654
2223,-0.014855604561077049
2224,-0.030703065676902293
2225,-0.0502992486709426
2226,-0.06479253209284669
2227,-0.07226216771430165
2228,-0.0796377106108293
2229,-0.095556155401323
2230,-0.12111195154646592
2231,-0.1479401086473571
2232,-0.1661300759441699
2233,-0.17454047321454952
2234,-0.18296857230293764
2235,-0.2029116006137232
2236,-0.23478546429193267
2237,-0.2636601918059849
2238,-0.2682879234605238
2239,-0.23595742954146498
2240,-0.17018132812756168
2241,-0.08490926764135631
2242,0.008444247563301435
2243,0.10855281874560675
2244,0.21974312143427588
2245,0.34120435169653635
2246,0.4615156034096706
2247,0.5640624123161333
2248,0.6372045429313088
2249,0.6781331304867813
2250,0.6865537068453932
2251,0.6561230149403033
2252,0.5751584689547007
2253,0.43893409369015335
2254,0.2627879542048166
2255,0.08198672555333215
2256,-0.06481676677193826
2257,-0.15657343049841205
2258,-0.1986008625351619
2259,-0.21290592918829374
2260,-0.21958936362756934
2261,-0.22515214469205966
2262,-0.22526953463209468
2263,-0.2157574140429277
2264,-0.19949101144904133
2265,-0.18351547431845325
2266,-0.17151607033117977
2267,-0.16075757595587795
2268,-0.14648307579484027
2269,-0.1281684796169228
2270,-0.11038065757491539
2271,-0.09750622290179159
2272,-0.08864192347793726
2273,-0.07867393081277096
2274,-0.0645121129158205
2275,-0.04950618177341349
2276,-0.04081351010023271
2277,-0.042060301130477984
2278,-0.04888889249135166
2279,-0.05225198413265634
2280,-0.046406698833997846
2281,-0.03372345886592133
2282,-0.021663903029040657
2283,-0.015211224234375306
2284,-0.012494092068724226
2285,-0.007850470457560451
2286,0.0011613661899840277
2287,0.010312372344702229
2288,0.012568293883450139
2289,0.005418377520016757
2290,-0.005865886095158289
2291,-0.012585270518524878
2292,-0.010487996024404547
2293,-0.0034753714097803395
2294,0.0004944463876792335
2295,-0.0027484226299174506
2296,-0.009719160459093433
2297,-0.013134092470027618
2298,-0.009541963762979607
2299,-0.0030165851499212863
2300,-0.001112261543246629
2301,-0.007040543809815303
2302,-0.01593602657508732
2303,-0.019187097122422912
2304,-0.012843434630875653
2305,-0.001904014389732424
2306,0.003910195575442675
2307,-0.0009365465714475754
2308,-0.012698758725763632
2309,-0.022001020670638437
2310,-0.022753508138395252
2311,-0.017727034304275212
2312,-0.015401343804313482
2313,-0.021198554142555358
2314,-0.03172860367754746
2315,-0.03777647019649295
2316,-0.03321179513195779
2317,-0.02112843861519753
2318,-0.011115010708734514
2319,-0.010172204912182337
2320,-0.01605798269273681
2321,-0.019600991268318255
2322,-0.013869886622262123
2323,-0.0013828120107024964
2324,0.007690007237467451
2325,0.004797971556487551
2326,-0.008921933995947975
2327,-0.023326582080179528
2328,-0.02798520191405652
2329,-0.020795556231368435
2330,-0.008773381918223553
2331,-0.0009018752168125006
2332,-0.0002396660950248352
2333,-0.002570281802578333
2334,-0.0020428924382520997
2335,0.0025060101071515267
2336,0.006949056440098158
2337,0.00707314544391007
2338,0.0036290949072233687
2339,0.0016395400612625023
2340,0.0046603883961069195
2341,0.010254825015862983
2342,0.011900101752333511
2343,0.005831804115880914
2344,-0.004162016926913024
2345,-0.009393354692261576
2346,-0.004375067197546907
2347,0.00746179819395995
2348,0.016419640423864568
2349,0.015470211360844262
2350,0.006968617968729128
2351,0.0004327738565756942
2352,0.003255633111332711
2353,0.01327920179736216
2354,0.02060741920905897
2355,0.017122064791520692
2356,0.004519467955729568
2357,-0.007074179909528506
2358,-0.00872716215560417
2359,-0.0012333244545163773
2360,0.005862424557011525
2361,0.0038870407271463852
2362,-0.006135101181274484
2363,-0.014275143578190026
2364,-0.011538635472073872
2365,0.0008296981424812422
2366,0.011843119868456431
2367,0.010859264234655452
2368,-0.002378746270851307
2369,-0.017461227881218348
2370,-0.02308046158981079
2371,-0.01741067148819156
2372,-0.009163906801366604
2373,-0.008571632329937552
2374,-0.017331661945410904
2375,-0.027337042030880707
2376,-0.029126239242941124
2377,-0.021381291914513753
2378,-0.011992855108961243
2379,-0.009868635113802312
2380,-0.015976006676790923
2381,-0.022712763687755294
2382,-0.022089694666761202
2383,-0.014195928580678205
2384,-0.007174631055522219
2385,-0.008689386629115222
2386,-0.017665379346014542
2387,-0.024923011629176272
2388,-0.022286239215903142
2389,-0.01101478465235468
2390,-0.0009180125769417057
2391,-0.000844959707480321
2392,-0.009990473930376602
2393,-0.018718859943451398
2394,-0.018067490109459364
2395,-0.008382625732192174
2396,0.0015178223270530958
2397,0.003619131086434384
2398,-0.001157328835067722
2399,-0.0042934952113990385
2400,0.0009611221063773809
2401,0.011974194991944588
2402,0.018955507405349386
2403,0.015033767925514394
2404,0.003947293431488221
2405,-0.0028102302058635033
2406,0.0029613696639550625
2407,0.017713464554264004
2408,0.028864515823239907
2409,0.02641443439326899
2410,0.012374509017356077
2411,-0.0010930583969188132
2412,-0.0030567704344223196
2413,0.0061813503732756365
2414,0.015875769304380314
2415,0.015327107699211967
2416,0.00379934315101725
2417,-0.009437440611722994
2418,-0.014395468304764517
2419,-0.009581212673899681
2420,-0.002382420374190803
2421,-0.0009796924533332042
2422,-0.006363888888178066
2423,-0.012340817508875718
2424,-0.012892911301258348
2425,-0.008815113491296744
2426,-0.006649440700293807
2427,-0.01122375608052465
2428,-0.019878060468026836
2429,-0.02472584304756796
2430,-0.02085119317970286
2431,-0.011929683788165613
2432,-0.007109568084433481
2433,-0.011875147116466686
2434,-0.022028312231648417
2435,-0.027183325653075928
2436,-0.02078264273511681
2437,-0.006936011464122519
2438,0.0028085156177278985
2439,-7.5356167522838e-05
2440,-0.013340522957754408
2441,-0.026295835417845945
2442,-0.029839305534544416
2443,-0.024460497828780924
2444,-0.018687463155850063
2445,-0.019930738683355813
2446,-0.027002541531686092
2447,-0.03161771798283703
2448,-0.027066712828090946
2449,-0.015162500201529787
2450,-0.004486652762306429
2451,-0.0018029896763465422
2452,-0.0053399318850553806
2453,-0.006685306723755134
2454,0.0006336528255642879
2455,0.014470967266464588
2456,0.02591451773432197
2457,0.02778615721755697
2458,0.021362031479706264
2459,0.014771057137214216
2460,0.014851974447947502
2461,0.020665818743294286
2462,0.025035694955808777
2463,0.022348071367896412
2464,0.01458177905010339
2465,0.009379825333804942
2466,0.01206430878363907
2467,0.01970771678910843
2468,0.023463101032908957
2469,0.0171442451223371
2470,0.0036657472977584447
2471,-0.007191570846446944
2472,-0.007821691412623705
2473,-2.0088968223702305e-05
2474,0.006638217832877815
2475,0.003805885136029651
2476,-0.007887038170612546
2477,-0.019812395702769506
2478,-0.02407012022683009
2479,-0.021435036931501825
2480,-0.020733169729483046
2481,-0.03021139432189369
2482,-0.049334683932686016
2483,-0.06912806801364121
2484,-0.08089612436465224
2485,-0.08489930959667608
2486,-0.0904191734912906
2487,-0.1068895094225375
2488,-0.13453549008805077
2489,-0.16371087691779446
2490,-0.1839094809532162
2491,-0.1939500215992237
2492,-0.2032305655834582
2493,-0.22207475119833994
2494,-0.24966675357233825
2495,-0.27101350608284075
2496,-0.26665799316674677
2497,-0.22726164191179177
2498,-0.16032674520480147
2499,-0.08298467561634473
2500,-0.007196559619523148
2501,0.0693344141859924
2502,0.15828699009867972
2503,0.26633338855133615
2504,0.3845297074121805
2505,0.4915035046293049
2506,0.5678414629528312
2507,0.6086604593239324
2508,0.6228983218947983
2509,0.6202009288355661
2510,0.5980587555188923
2511,0.5419637591815466
2512,0.43943460696604375
2513,0.2957029146922182
2514,0.13676882298282905
2515,-0.003622646722991482
2516,-0.10274694758362873
2517,-0.15878305906706297
2518,-0.18567876808497114
2519,-0.1996146037262616
2520,-0.20903388752873514
2521,-0.21445156124911147
2522,-0.21436901507835784
2523,-0.20945408666547358
2524,-0.20152053624182453
2525,-0.19064375525762542
2526,-0.17528782412178376
2527,-0.15563663050252127
2528,-0.13560644288813098
2529,-0.12013898506953433
2530,-0.11012104858649975
2531,-0.10080409690219415
2532,-0.08635262213976284
2533,-0.06631603815994888
2534,-0.047038292296520234
2535,-0.03587975619754423
2536,-0.033821696927686
2537,-0.03423668852867111
2538,-0.029530104957438283
2539,-0.019070124246478255
2540,-0.010108622760108394
2541,-0.010388750802438496
2542,-0.019789887714283423
2543,-0.02964452965562047
2544,-0.030722671453266712
2545,-0.022034469048615234
2546,-0.011642408701519148
2547,-0.008660350477298257
2548,-0.014443159090635108
2549,-0.02168273646811822
2550,-0.02207713931158202
2551,-0.014675984485335967
2552,-0.006567385047094873
2553,-0.005514933151525042
2554,-0.012251514220261286
2555,-0.020199754649108524
2556,-0.022574042527853923
2557,-0.019282387428513
2558,-0.01648175050881215
2559,-0.01943964906527959
2560,-0.026371105465867142
2561,-0.02989545676335916
2562,-0.02476452984869927
2563,-0.013816859541906014
2564,-0.005702489057735754
2565,-0.006320478375663392
2566,-0.01259530015073844
2567,-0.015225023033970098
2568,-0.008108355895176955
2569,0.00483264079052847
2570,0.012582916347267265
2571,0.007404452383047678
2572,-0.007245331267798026
2573,-0.019205892270118347
2574,-0.01861762730427326
2575,-0.007195146369892342
2576,0.0031257855056277366
2577,0.0011288495412672267
2578,-0.013282755483419822
2579,-0.028904805065542043
2580,-0.03337926127879872
2581,-0.02420109866207448
2582,-0.010541140497185946
2583,-0.004601873774012589
2584,-0.010844178936680476
2585,-0.02290048942861022
2586,-0.030337893955644728
2587,-0.0282902901745926
2588,-0.020962331919226508
2589,-0.016499635028641137
2590,-0.018969615005186506
2591,-0.02527182016099524
2592,-0.029255280457144726
2593,-0.028152170358027376
2594,-0.024730736392292552
2595,-0.023517006947575615
2596,-0.025574524308645017
2597,-0.027419120482765326
2598,-0.02494616616264716
2599,-0.017944492616460708
2600,-0.010370687883049384
2601,-0.006240882736258674
2602,-0.00565586016889401
2603,-0.005194279697782163
2604,-0.002098362432236576
2605,0.002456625694753566
2606,0.004719326988177382
2607,0.0029463856956951718
2608,7.120400831673533e-05
2609,0.0011011542443290206
2610,0.007555909730056546
2611,0.014870540918501141
2612,0.01614427434486757
2613,0.009126705143600023
2614,-0.0005265102298216587
2615,-0.0036176744954154218
2616,0.004137409122893903
2617,0.017568729244715867
2618,0.02619223269857747
2619,0.02357706684718853
2620,0.013199763218776632
2621,0.005084640366551859
2622,0.006259804657445349
2623,0.01410297429383648
2624,0.01900418303108548
2625,0.013811063986436996
2626,0.0009003904070387955
2627,-0.010035039574755891
2628,-0.01136437742461171
2629,-0.0049152600960351255
2630,-0.00014152468181971123
2631,-0.004834125427957306
2632,-0.017448315426126612
2633,-0.02851721662765408
2634,-0.02969799801481933
2635,-0.021566613596515915
2636,-0.012650030437333731
2637,-0.010915310299660528
2638,-0.0162924174354705
2639,-0.021518251651474897
2640,-0.020092475006250686
2641,-0.013060514141851401
2642,-0.007768286227317648
2643,-0.0100723645187849
2644,-0.018164884605033415
2645,-0.024396509752142942
2646,-0.023158699937422478
2647,-0.016615954239961497
2648,-0.012316091426570074
2649,-0.015140058900801471
2650,-0.021975111484513452
2651,-0.024756909178756385
2652,-0.01888010718682229
2653,-0.008304874994056178
2654,-0.0019003951599135386
2655,-0.004503965997701247
2656,-0.011747647090324413
2657,-0.01413134171410096
2658,-0.006562143542014932
2659,0.006080408298565378
2660,0.013080191992668005
2661,0.00793925810760153
2662,-0.005333036138803917
2663,-0.01581052726972111
2664,-0.015679567904172485
2665,-0.00709301770167514
2666,0.0005680243761179087
2667,0.00010314677636561842
2668,-0.006669594184064332
2669,-0.011130891967000171
2670,-0.0066661838561469155
2671,0.0047129845957750854
2672,0.014317181550027137
2673,0.015154000254081219
2674,0.00839104702370145
2675,0.001686734128666185
2676,0.0013133448520639907
2677,0.006029663541861938
2678,0.008699292382980176
2679,0.0038096390825033744
2680,-0.0067886974429304525
2681,-0.0156657460149286
2682,-0.017197871724018363
2683,-0.01299387397743338
2684,-0.00985476657634263
2685,-0.012414080135654884
2686,-0.018092060745213037
2687,-0.01969631957858726
2688,-0.013155762365705249
2689,-0.0024298059253880806
2690,0.0037445784367861777
2691,0.0003616086797468888
2692,-0.00859231514985732
2693,-0.01373622503243554
2694,-0.009591077572749294
2695,-0.0004539400516893647
2696,0.0032697424885822744
2697,-0.004891018391073162
2698,-0.020704051924200242
2699,-0.032511809946967965
2700,-0.031688069494893334
2701,-0.020376269960261623
2702,-0.009148031127335404
2703,-0.006923851979266396
2704,-0.012901261662665035
2705,-0.01811211551620425
2706,-0.014736510509425524
2707,-0.003829031090976186
2708,0.006036252552630027
2709,0.00751922297738844
2710,0.0017068185936310785
2711,-0.003400113337109709
2712,-0.0013353787417600773
2713,0.006176093121165414
2714,0.011108281282752193
2715,0.007529926903558956
2716,-0.002173725392519736
2717,-0.00969208369509863
2718,-0.009415673032757185
2719,-0.0044958791379677825
2720,-0.004041003095717018
2721,-0.014090984021610981
2722,-0.03138702916793665
2723,-0.046316760650985674
2724,-0.05234070476510541
2725,-0.05269445957010991
2726,-0.057675388001700176
2727,-0.0749226214109755
2728,-0.10191735943217448
2729,-0.12790315975340671
2730,-0.14357596171509315
2731,-0.14966667737432157
2732,-0.1565934186656564
2733,-0.1754256176990784
2734,-0.20790775427018368
2735,-0.2436929277323555
2736,-0.2665034211949371
2737,-0.2638008573909909
2738,-0.23265604831383188
2739,-0.1785494257374952
2740,-0.10954544876513177
2741,-0.030944200477472435
2742,0.056116106657930515
2743,0.15221396396277115
2744,0.25594288592158054
2745,0.3616780387395171
2746,0.4600797292536777
2747,0.5408557165877588
2748,0.5960836531457276
2749,0.622086667257675
2750,0.6187110516972096
2751,0.5866776757660952
2752,0.5253782353407315
2753,0.43353781510663647
2754,0.3130225613328209
2755,0.1731208972554621
2756,0.03136951060159625
2757,-0.09111581071414682
2758,-0.17791340891940338
2759,-0.22427969302483275
2760,-0.23831712612567996
2761,-0.2354343753736127
2762,-0.22954941555952002
2763,-0.2264934310169528
2764,-0.22341758417975022
2765,-0.2138917821645224
2766,-0.1946328781957991
2767,-0.16894527834689418
2768,-0.14458220394937027
2769,-0.12799037660112333
2770,-0.11964080692991769
2771,-0.11419187693121195
2772,-0.10522105174252419
2773,-0.09044577069442755
2774,-0.07303296192486734
2775,-0.0581489977652759
2776,-0.048177735893276806
2777,-0.04107401788086701
2778,-0.03312958652721536
2779,-0.02309680722294992
2780,-0.01342157365122886
2781,-0.00746354940160457
2782,-0.005810874369671036
2783,-0.005713368981615384
2784,-0.00425372422582374
2785,-0.0017328170610490382
2786,-0.0013623319929469808
2787,-0.005327103713644582
2788,-0.011452345100266957
2789,-0.014465068777426248
2790,-0.011101138814502927
2791,-0.003930711150111007
2792,0.0004239230338418723
2793,-0.0025505443456882793
2794,-0.010681205049618545
2795,-0.016903688177492035
2796,-0.015969264559711767
2797,-0.009507936874772343
2798,-0.004304467978108755
2799,-0.00540944335707391
2800,-0.01105184836226135
2801,-0.014653552915295883
2802,-0.01201741355259947
2803,-0.006245974524765158
2804,-0.004960972028954675
2805,-0.012210772299033064
2806,-0.023259909469417278
2807,-0.028111074114252437
2808,-0.02103248221996562
2809,-0.006950452336257839
2810,0.0020226894128835284
2811,-0.002676437048498678
2812,-0.01798666275701561
2813,-0.031683216770515915
2814,-0.0334371592090105
2815,-0.024237599990288444
2816,-0.015262384307110136
2817,-0.01717856105934837
2818,-0.02995199700976827
2819,-0.0427934080723762
2820,-0.044237655707818395
2821,-0.03275842309759407
2822,-0.017953289515951425
2823,-0.011464223905478712
2824,-0.01653485252519793
2825,-0.02607360328822459
2826,-0.03054696234786669
2827,-0.027495618803935543
2828,-0.023272532711909703
2829,-0.02569624572573285
2830,-0.03544118553576556
2831,-0.04502227319595685
2832,-0.04629263015304107
2833,-0.03863210425690564
2834,-0.029363357221671736
2835,-0.02599538868926796
2836,-0.028365758774084544
2837,-0.02890451561738601
2838,-0.02085782131271445
2839,-0.005968355233403732
2840,0.0065431472315970575
2841,0.00901091873683935
2842,0.0033149149408774345
2843,-0.00048462202432789027
2844,0.0061244961376735844
2845,0.021544894775302116
2846,0.035259497534810315
2847,0.03774076951176773
2848,0.029365122842691604
2849,0.0196076085371392
2850,0.017477042045842963
2851,0.02280768258037969
2852,0.02699413832604224
2853,0.02217534114797968
2854,0.009448256284677884
2855,-0.0021391216379410237
2856,-0.004627841365481701
2857,0.0010437782145464336
2858,0.006323831387570271
2859,0.00395696173601633
2860,-0.004653604868960831
2861,-0.011122160259002381
2862,-0.009020687857085636
2863,-0.0009113615111922329
2864,0.003769425459804099
2865,-0.002028338039814156
2866,-0.01578068929446584
2867,-0.027465363279749466
2868,-0.0289235470368818
2869,-0.021393431329489586
2870,-0.013999002241599941
2871,-0.014868488886334116
2872,-0.02358500244577636
2873,-0.03206313701216888
2874,-0.03257822832954736
2875,-0.024929212208435015
2876,-0.01603244183140147
2877,-0.012920439880526055
2878,-0.01635856149665548
2879,-0.021118207682016617
2880,-0.021970090575099903
2881,-0.01890419921524983
2882,-0.01636589484330111
2883,-0.017753544791636593
2884,-0.02128197653983414
2885,-0.021688963359461917
2886,-0.016002983018923632
2887,-0.007228134387181589
2888,-0.0018442352641509954
2889,-0.0033947827784889285
2890,-0.008631807146495168
2891,-0.010345988756621967
2892,-0.00435601827965088
2893,0.00620323298846071
2894,0.013714575215502824
2895,0.013480413887086802
2896,0.008462620844253737
2897,0.006500765996259723
2898,0.01245591169597936
2899,0.022902054556555054
2900,0.028825331936610056
2901,0.024130642210118673
2902,0.011906314777520757
2903,0.002166551276757158
2904,0.002770098887042259
2905,0.011897565136513596
2906,0.01934553226434319
2907,0.015766817772123232
2908,0.0014239780354742791
2909,-0.013739038458250325
2910,-0.018917013606006897
2911,-0.012074600998176702
2912,-0.0015443791359867533
2913,0.0017394344933243612
2914,-0.0059832806368158254
2915,-0.01852753447254933
2916,-0.02618815488674497
2917,-0.024880701305668218
2918,-0.0192836054642325
2919,-0.017406597059614747
2920,-0.022356292899622446
2921,-0.029478034519093442
2922,-0.03138979438135542
2923,-0.025522508600555084
2924,-0.016520887828610005
2925,-0.011316841533176768
2926,-0.012172265262076595
2927,-0.014884644163796302
2928,-0.013834328347492134
2929,-0.008380842710899328
2930,-0.003713971140883225
2931,-0.005110587508323014
2932,-0.011618054590159837
2933,-0.01608928592585635
2934,-0.012089407316067582
2935,-0.0009039829267267984
2936,0.008734735688450474
2937,0.008573982285046274
2938,-0.0010145374371226196
2939,-0.010793275151973612
2940,-0.011022710787149035
2941,-0.000705363910982279
2942,0.011144635973700114
2943,0.013617585045279882
2944,0.003911978962203577
2945,-0.010060256189127263
2946,-0.01673557033314907
2947,-0.010886184098706763
2948,0.0026050779533951713
2949,0.014066659423206064
2950,0.017757603600201354
2951,0.015666799150166798
2952,0.01356064095395305
2953,0.01419061101465683
2954,0.014828063576368417
2955,0.011177070001493459
2956,0.0028470648222675126
2957,-0.005878781056718615
2958,-0.010915576518179626
2959,-0.013491564584882806
2960,-0.019588688497635273
2961,-0.03379350225215509
2962,-0.05390993443863782
2963,-0.07242116478781768
2964,-0.08395634329737878
2965,-0.09131025541560378
2966,-0.10339197645990889
2967,-0.12645530780265432
2968,-0.15721482501715528
2969,-0.1852416905471953
2970,-0.20290141261536687
2971,-0.21293112123573654
2972,-0.22521548311146072
2973,-0.24480808153247502
2974,-0.2627403947638287
2975,-0.2597432220019373
2976,-0.2210556449565837
2977,-0.1491716561274945
2978,-0.06215055511742808
2979,0.021792173992028915
2980,0.09939434178597319
2981,0.18275422992615442
2982,0.28427460851782604
2983,0.4003271506077797
2984,0.5094545327914468
2985,0.5871806610193253
2986,0.6234414436776992
2987,0.6260613410300269
2988,0.6074502702453074
2989,0.5684563220616075
2990,0.4963939166200444
2991,0.380231479510222
2992,0.2283727147365837
2993,0.07087109962984392
2994,-0.057760935522630286
2995,-0.14049728006952303
2996,-0.18522875913447928
2997,-0.21214513185921852
2998,-0.23410936253518633
2999,-0.2484387482837367
3000,-0.24598748633785567
3001,-0.22605027777019837
3002,-0.20075399535249694
3003,-0.1845227637506296
3004,-0.1801226223490802
3005,-0.1762954926967089
3006,-0.15977839125160653
3007,-0.12945877526669947
3008,-0.09811664190160316
3009,-0.07991899209690437
3010,-0.07640047407867975
3011,-0.07517102245062501
3012,-0.06261613364343968
3013,-0.037722201862732466
3014,-0.013174024944965335
3015,-0.0028152806355851226
3016,-0.008174975348289704
3017,-0.01739709204284806
3018,-0.017256563936033007
3019,-0.005977690561298711
3020,0.005805146459148329
3021,0.0064287231425077095
3022,-0.004813940533141761
3023,-0.01698932084506946
3024,-0.01844842438799704
3025,-0.00821658311729044
3026,0.003331401711701306
3027,0.0047585345197986365
3028,-0.00562391261978063
3029,-0.0188565374156155
3030,-0.024612205440610088
3031,-0.021050402276384807
3032,-0.01567243649170221
3033,-0.016970765767214242
3034,-0.025690475731279996
3035,-0.03438682427425674
3036,-0.035293692465073474
3037,-0.028275877111356262
3038,-0.02091398148026819
3039,-0.02089129696997374
3040,-0.028465329560299388
3041,-0.036433871441079575
3042,-0.037346863085735045
3043,-0.030604488757204458
3044,-0.022503860222391717
3045,-0.019546939826364153
3046,-0.02198757839717238
3047,-0.024087844149824053
3048,-0.02059373058881704
3049,-0.012637489275041776
3050,-0.006932377317541391
3051,-0.008994745731096168
3052,-0.01725791299443992
3053,-0.024162008594994844
3054,-0.023364664974406358
3055,-0.016025964047880804
3056,-0.009875002108391453
3057,-0.01179807266345519
3058,-0.021095528709336307
3059,-0.030001035454352495
3060,-0.031029478178167563
3061,-0.024078730447759853
3062,-0.01645300031227461
3063,-0.015853710025691806
3064,-0.023153504964501102
3065,-0.031839208102068375
3066,-0.034408512046845766
3067,-0.029299062766412316
3068,-0.021680079013974146
3069,-0.01772616030121688
3070,-0.018428576112394852
3071,-0.019173466211474935
3072,-0.015214134497231517
3073,-0.0071008741822254605
3074,-0.0002989828477008242
3075,0.000607833757146887
3076,-0.0030251789737802894
3077,-0.005071649383503339
3078,-0.001021276997414681
3079,0.007044449949679211
3080,0.01232010199064039
3081,0.01039934023712591
3082,0.004358401014674641
3083,0.0021789420926220135
3084,0.00859108597342411
3085,0.01945782529304349
3086,0.024830438914397054
3087,0.018345036694029607
3088,0.0039775852879713825
3089,-0.0068099062423505625
3090,-0.005385117799431074
3091,0.005870420442237373
3092,0.015426984527946106
3093,0.012989432152086366
3094,-0.0012990836153304436
3095,-0.01741522884051183
3096,-0.024968185699074632
3097,-0.02233260274355605
3098,-0.01673862478220313
3099,-0.015799833866005947
3100,-0.019447379691815044
3101,-0.020588531627206523
3102,-0.013685788167434253
3103,-0.0020977892189164033
3104,0.003972793229849673
3105,-0.002494455064167774
3106,-0.01731213074034816
3107,-0.027705324060032406
3108,-0.023901742781193613
3109,-0.008784216151037994
3110,0.004057655954820101
3111,0.0026057061111635187
3112,-0.012378970584603967
3113,-0.02792680408510518
3114,-0.030816522057418274
3115,-0.019650477186293973
3116,-0.005675974419689914
3117,-0.0017683133602285786
3118,-0.01023141188902672
3119,-0.020959068912554533
3120,-0.0213672755001027
3121,-0.008326725530018357
3122,0.00917851180035421
3123,0.01868166968142177
3124,0.015453839636757064
3125,0.00574963630288788
3126,-0.00021336306049704666
3127,0.0020229702505240752
3128,0.008148654852371458
3129,0.010840378420141034
3130,0.007611692983547424
3131,0.0026930838855336973
3132,0.001647806153393295
3133,0.004997436524582482
3134,0.007752903212443407
3135,0.005147261113924524
3136,-0.001807423666124736
3137,-0.0070847536167366765
3138,-0.00608752406817271
3139,-0.0009572250499033971
3140,0.001117033935248601
3141,-0.004737398735656715
3142,-0.015448075922157276
3143,-0.02214275336666145
3144,-0.018453957445057952
3145,-0.007021617272495881
3146,0.0023597937463394007
3147,0.001521877265931733
3148,-0.008606810234814397
3149,-0.018989812786258744
3150,-0.021035762038389288
3151,-0.014566838275834333
3152,-0.007631567847535362
3153,-0.008456795159180472
3154,-0.017379054051176124
3155,-0.026529721596727472
3156,-0.02748254887991331
3157,-0.01938406154002455
3158,-0.009723459111979449
3159,-0.0071319631076672
3160,-0.013313756434900985
3161,-0.02189185128929997
3162,-0.02504369382012941
3163,-0.021181615684808683
3164,-0.01609067704459674
3165,-0.01659035230108771
3166,-0.023244608850252445
3167,-0.029496156137698883
3168,-0.028081179513715852
3169,-0.0182734426467396
3170,-0.00671708244677637
3171,-0.001061021004943751
3172,-0.0027793587462573172
3173,-0.006271195487528543
3174,-0.004947844668736949
3175,0.0019714806706728687
3176,0.008805452257106248
3177,0.009422807340975984
3178,0.003695889714599189
3179,-0.0021857728459296795
3180,-0.0018142222693510663
3181,0.0051531729512644935
3182,0.012852919917519237
3183,0.015225705696983593
3184,0.011949374505448676
3185,0.008266940695112286
3186,0.009048998895388273
3187,0.013386999732160459
3188,0.015434242831611256
3189,0.010690726710854456
3190,0.0011829174992410102
3191,-0.0060150991275173295
3192,-0.0056567849282528745
3193,0.0003603358276160439
3194,0.004837414032256097
3195,0.0026648320651224194
3196,-0.003675372781847978
3197,-0.006328166288623394
3198,-0.00016146231847734087
3199,0.011264207267124916
3200,0.018166522520285416
3201,0.013582654601496281
3202,0.0003744969413787634
3203,-0.010887341708618901
3204,-0.011612401678167884
3205,-0.0033921183467685544
3206,0.0033050909568786598
3207,-0.0009325737567845707
3208,-0.015145928546177495
3209,-0.02828315011804968
3210,-0.029150093381855723
3211,-0.01692073448180747
3212,-0.002368643569836396
3213,0.0014723413146166442
3214,-0.009307320263745535
3215,-0.02644144610330707
3216,-0.03733915878453989
3217,-0.03636564979957328
3218,-0.029227836049243294
3219,-0.026944605110479088
3220,-0.035649466813718
3221,-0.05191907176925062
3222,-0.06746557189617655
3223,-0.0778560552037472
3224,-0.086374858359763
3225,-0.09943964291908555
3226,-0.11866370561889647
3227,-0.13808543992424166
3228,-0.14988853013287667
3229,-0.1532142922893755
3230,-0.15699809625416872
3231,-0.17292132142523095
3232,-0.20390798025539722
3233,-0.23838486277933638
3234,-0.25609833024697887
3235,-0.2413773607360957
3236,-0.19312854038653962
3237,-0.12347860262719862
3238,-0.046634150182427316
3239,0.032200213052615535
3240,0.11833666356742883
3241,0.21867715169492
3242,0.33080051795228227
3243,0.4402605012183499
3244,0.5288074331294939
3245,0.5861736038279928
3246,0.6145785488475878
3247,0.6216816087388007
3248,0.6086348514325164
3249,0.5651095074463242
3250,0.47739825679001335
3251,0.34364874584673066
3252,0.18283892240179275
3253,0.02844953605714269
3254,-0.08946781528740214
3255,-0.16019402633288787
3256,-0.19430814332799617
3257,-0.21152806012609837
3258,-0.22539848513942534
3259,-0.23681222743262126
3260,-0.2392860610790436
3261,-0.22878423788659147
3262,-0.2086567611737926
3263,-0.18662389426263537
3264,-0.1684615870088933
3265,-0.15482678649899873
3266,-0.14309402559872567
3267,-0.13092244441277218
3268,-0.11772147275108755
3269,-0.10367164494215836
3270,-0.08876050453635295
3271,-0.07337034359688221
3272,-0.05914862176924665
3273,-0.04816768546743115
3274,-0.04076025707342583
3275,-0.03473848115575419
3276,-0.027613862074981475
3277,-0.019773506106162235
3278,-0.014728241799222691
3279,-0.015311514841658682
3280,-0.019513907302030897
3281,-0.02096880872846163
3282,-0.014713000045891107
3283,-0.0028788101823141107
3284,0.005989294041122596
3285,0.004426671915710657
3286,-0.006409246628421939
3287,-0.016831479188576897
3288,-0.01705882729402701
3289,-0.006376261785679048
3290,0.005829541297221873
3291,0.008480471161375907
3292,-0.0011442079662221634
3293,-0.015224071730915865
3294,-0.023028956921097903
3295,-0.020875027353880152
3296,-0.014858464032731153
3297,-0.014085289404911026
3298,-0.021414185813975178
3299,-0.03086997835321114
3300,-0.033949265397153545
3301,-0.028149815869317397
3302,-0.01910966309318618
3303,-0.014482929261880611
3304,-0.016104201081366298
3305,-0.018553461146075395
3306,-0.015476643584640369
3307,-0.006945773187787592
3308,-3.0486301448274687e-05
3309,-0.0017447660473250976
3310,-0.01149990948219021
3311,-0.02097047743871267
3312,-0.021935817639754544
3313,-0.014508022077643465
3314,-0.007448583744225594
3315,-0.009904756031616531
3316,-0.0224108835690397
3317,-0.03594467037301205
3318,-0.040138587780138096
3319,-0.03287236065000799
3320,-0.022086180929286374
3321,-0.018132869734591037
3322,-0.02405943045217595
3323,-0.033078027989752984
3324,-0.03542414377643127
3325,-0.027764124507805143
3326,-0.016074719323220514
3327,-0.00949108906643547
3328,-0.011420095594273837
3329,-0.016634991689397475
3330,-0.01692700603058439
3331,-0.009432930777356663
3332,0.0006628208033097921
3333,0.005530818332291679
3334,0.0025901418517976786
3335,-0.0030218454224624856
3336,-0.0037050878743429185
3337,0.003058347168895115
3338,0.01240924641888451
3339,0.017129762806070353
3340,0.014677401394282134
3341,0.009136027189202894
3342,0.006410453112872821
3343,0.007944779328889845
3344,0.009581693906750663
3345,0.006622342019690622
3346,-0.00045802408049319427
3347,-0.0059254862258786975
3348,-0.004683363683103103
3349,0.001958594682883579
3350,0.006919708927633941
3351,0.004179817380313476
3352,-0.004958760065600397
3353,-0.012713127381297581
3354,-0.01226729857134089
3355,-0.004528881268549047
3356,0.0026524387447863867
3357,0.00218969993793078
3358,-0.005261789359521646
3359,-0.012111740263629165
3360,-0.011702542408635878
3361,-0.0053086327769602286
3362,-0.0010799796531373181
3363,-0.005831399245017467
3364,-0.017914579955111577
3365,-0.02848805714223055
3366,-0.03009207046980244
3367,-0.02396054058300227
3368,-0.018604186493415192
3369,-0.02093934954174915
3370,-0.02888129216955009
3371,-0.033061717032141974
3372,-0.026244310979950163
3373,-0.011132630092161578
3374,0.0014070158295572753
3375,0.0022918590163983994
3376,-0.007258281292280925
3377,-0.016988281631845552
3378,-0.017478579806490535
3379,-0.008999285548397875
3380,-0.0007618607502812625
3381,-0.0014696752447975832
3382,-0.010600063712782546
3383,-0.01899267099940592
3384,-0.01799711060644886
3385,-0.007967612108812371
3386,0.0023210164078113125
3387,0.004600614802957063
3388,-0.0006805721004137275
3389,-0.00511148991483111
3390,-0.0012077560798855376
3391,0.009593581595171954
3392,0.017981285720431076
3393,0.015934801195848336
3394,0.004903506573854963
3395,-0.0052130509486527365
3396,-0.005415521966145906
3397,0.0038306106282873214
3398,0.013168669149911896
3399,0.013428611052859106
3400,0.004284425422091371
3401,-0.005870419975205498
3402,-0.008440889095662317
3403,-0.0029556254268059984
3404,0.002961024842995967
3405,0.0016646742120270375
3406,-0.006663255869590304
3407,-0.014255027042671434
3408,-0.013695155630346017
3409,-0.0054649372052457445
3410,0.002483590008610261
3411,0.0026058695410428375
3412,-0.004875569477823977
3413,-0.012450955379684249
3414,-0.012986481664612037
3415,-0.006738122915585197
3416,-0.0007144429785676968
3417,-0.0012600654149733164
3418,-0.0075769166097142985
3419,-0.012785446265919244
3420,-0.011289387673830854
3421,-0.004725160893806391
3422,-0.00029790460364863193
3423,-0.0032392704067525386
3424,-0.01127220483466742
3425,-0.016943766505152027
3426,-0.01550550133899094
3427,-0.010114061953351858
3428,-0.008710185922858875
3429,-0.015531351560089633
3430,-0.02602623152048786
3431,-0.030804556437451756
3432,-0.02509178297901616
3433,-0.014225396718146217
3434,-0.009281651430340702
3435,-0.01669102247493645
3436,-0.03195309249291945
3437,-0.043836689011615276
3438,-0.045221892455302906
3439,-0.04011179512928244
3440,-0.0399853638105959
3441,-0.05304897356368757
3442,-0.07680246024849119
3443,-0.10092558134250433
3444,-0.11733128897964726
3445,-0.12747173271032675
3446,-0.14013840571666425
3447,-0.1625151527791967
3448,-0.19339375229404976
3449,-0.2244007407439369
3450,-0.24661965602226976
3451,-0.25519794814940117
3452,-0.24803416179480944
3453,-0.22195227500338316
3454,-0.172477438824023
3455,-0.0984693853392212
3456,-0.006194767728328382
3457,0.09304820426722654
3458,0.19074680598022692
3459,0.28660298347532315
3460,0.38506154615870475
3461,0.4854279836871992
3462,0.5755484181038
3463,0.6365261816092338
3464,0.6551491450506137
3465,0.6324066331555577
3466,0.5796763843128613
3467,0.5063310707654587
3468,0.41153447364543855
3469,0.2892901866312838
3470,0.14240910613589983
3471,-0.008866634908250952
3472,-0.1339912995856555
3473,-0.21080776389252792
3474,-0.2400963795208646
3475,-0.24308080644660748
3476,-0.2438369611064872
3477,-0.25171299261666147
3478,-0.2582744189754871
3479,-0.24982634350612687
3480,-0.22290779276044334
3481,-0.18861116661797556
3482,-0.1628013114039828
3483,-0.15230755081249475
3484,-0.1500444363794755
3485,-0.14289363661667265
3486,-0.12422828764791077
3487,-0.09930757682015351
3488,-0.0791911796283701
3489,-0.06974941344373792
3490,-0.06645756699647959
3491,-0.05954779807727208
3492,-0.04401237382472758
3493,-0.024564431965086536
3494,-0.010881772439838875
3495,-0.008001343424907131
3496,-0.01136652723933878
3497,-0.011384294222320502
3498,-0.0030034278877111133
3499,0.009142094066182323
3500,0.015212651285241997
3501,0.010026831990129777
3502,-0.0013633704006475954
3503,-0.008090355571907367
3504,-0.0038895302558268246
3505,0.006527360182614121
3506,0.011564796579386465
3507,0.0037024604753757634
3508,-0.013064719436359798
3509,-0.02654671452299634
3510,-0.02745732290743637
3511,-0.01781126465536007
3512,-0.008668658205931845
3513,-0.00946640138912164
3514,-0.019200683089028177
3515,-0.02782274144366293
3516,-0.026270862838638748
3517,-0.015285338040971413
3518,-0.004551312486098292
3519,-0.0032803876175743216
3520,-0.011610529737334157
3521,-0.021121525015909474
3522,-0.023594862554050893
3523,-0.019093592368625636
3524,-0.0154164168002787
3525,-0.019796587532112567
3526,-0.03141156376334313
3527,-0.042192243929933475
3528,-0.04486348986392727
3529,-0.03989691968438133
3530,-0.034410980252626004
3531,-0.03446117163787278
3532,-0.038911658393685274
3533,-0.041257566843013405
3534,-0.037332664825368345
3535,-0.030568892221723303
3536,-0.02893083290672088
3537,-0.036380310061873575
3538,-0.04772629502289213
3539,-0.05263977363993538
3540,-0.04537264576316773
3541,-0.03065145559926037
3542,-0.019640686838143177
3543,-0.01958350330434537
3544,-0.02709214400373145
3545,-0.0316351236306259
3546,-0.02582305182652232
3547,-0.012427928910963962
3548,-0.0012923780495068212
3549,0.0007524829686665384
3550,-0.0030570327389221373
3551,-0.0024544178041414097
3552,0.009564899175528038
3553,0.029202185086768542
3554,0.044513528137426914
3555,0.04593049307699923
3556,0.034763405953872256
3557,0.021737050252298114
3558,0.017071792196196662
3559,0.021515074110337727
3560,0.026592376697187392
3561,0.023450242366749474
3562,0.011601498631026613
3563,-0.000739035681309141
3564,-0.004797980474950756
3565,0.00015827192551516633
3566,0.0060617484811416695
3567,0.003777328140337441
3568,-0.008113948030154854
3569,-0.02180989096227426
3570,-0.02737408161954628
3571,-0.02165163430055174
3572,-0.010768092866943265
3573,-0.0042608981619224676
3574,-0.006729561804986737
3575,-0.014791767977569842
3576,-0.02158128873634662
3577,-0.023717409227553644
3578,-0.0237603831334518
3579,-0.026220482765190407
3580,-0.031850539460780564
3581,-0.03646093229370048
3582,-0.035488701512018855
3583,-0.029342201538262495
3584,-0.023614273833711716
3585,-0.023608240917336938
3586,-0.028720926533173256
3587,-0.032667957844631154
3588,-0.029675515345314058
3589,-0.020505507312459592
3590,-0.012040322387772591
3591,-0.010523217647377632
3592,-0.015111114121508439
3593,-0.01839812061962424
3594,-0.013742444259642009
3595,-0.00227212172742628
3596,0.007575110708541007
3597,0.007925129839562083
3598,-0.0007264953434966976
3599,-0.009489715389366937
3600,-0.00915356486522392
3601,0.0012219121042812264
3602,0.013416688838153492
3603,0.017753937741790352
3604,0.012063166452241945
3605,0.003429862362997556
3606,0.0012513651835914044
3607,0.008397631085809033
3608,0.018848506348642546
3609,0.023708086773778995
3610,0.019466100591326883
3611,0.0105851203422466
3612,0.004409036908709087
3613,0.00391422246145944
3614,0.005530262637678091
3615,0.0037503339897959776
3616,-0.0026591033717855133
3617,-0.009371164717597656
3618,-0.011286181447501355
3619,-0.008168984027382052
3620,-0.005098678283602362
3621,-0.007191934940837012
3622,-0.01411304636073232
3623,-0.020202031814741186
3624,-0.020272722850852555
3625,-0.015192194208345586
3626,-0.011400456314461821
3627,-0.014614278497992843
3628,-0.023930044713925912
3629,-0.03228492503583867
3630,-0.032924781088872444
3631,-0.025506298945107746
3632,-0.01584640595014089
3633,-0.009772714289472054
3634,-0.007498597583506847
3635,-0.004332064896705863
3636,0.003107567287069037
3637,0.011876615562551098
3638,0.014593425958331126
3639,0.0068221253638838355
3640,-0.007471923209938031
3641,-0.018432734088872176
3642,-0.019060084886643153
3643,-0.011952146485948917
3644,-0.007262259896981934
3645,-0.013426252526089377
3646,-0.029360717752455023
3647,-0.04562509152796493
3648,-0.05345903788274156
3649,-0.05298927701117291
3650,-0.05275830754425381
3651,-0.061238244419982296
3652,-0.07875494871543391
3653,-0.0976322599658574
3654,-0.11012353124999094
3655,-0.11613287258796226
3656,-0.12327777650843841
3657,-0.1396397274531238
3658,-0.16651406246478606
3659,-0.19773584226000293
3660,-0.22501567198221925
3661,-0.2429445787476655
3662,-0.2488044016345044
3663,-0.23889761709379567
3664,-0.20719952822099658
3665,-0.14914397486816247
3666,-0.06676631567692115
3667,0.03105568047587868
3668,0.13462804979419318
3669,0.23991701699893392
3670,0.348316979582653
3671,0.4592053603592262
3672,0.5627647753815659
3673,0.641170295713285
3674,0.6781939008286375
3675,0.6685778981094289
3676,0.6183883215667696
3677,0.5365885714718692
3678,0.427171743094379
3679,0.29072164591555477
3680,0.1341983599620417
3681,-0.021871945269414703
3682,-0.1486046976055316
3683,-0.22469618408502595
3684,-0.250321442786802
3685,-0.2464950496243098
3686,-0.2394401905811286
3687,-0.2424693170168565
3688,-0.24990363371209856
3689,-0.24689030395114464
3690,-0.2253912665323167
3691,-0.1921703532770162
3692,-0.162676670701127
3693,-0.14745711147276613
3694,-0.14369396298105738
3695,-0.13896602770711872
3696,-0.12306000459478245
3697,-0.09690994375735545
3698,-0.07107064003597685
3699,-0.05586445991460772
3700,-0.05247381432422867
3701,-0.052709877033138286
3702,-0.04694758914376468
3703,-0.032542418408724655
3704,-0.015256354355759096
3705,-0.003132635606554554
3706,0.0008456469568521563
3707,0.0004403689781603267
3708,0.0012547372014182806
3709,0.00473325152454708
3710,0.007232470938135491
3711,0.004810974976747227
3712,-0.0016243191215413544
3713,-0.006542243133686442
3714,-0.005427158503610172
3715,1.560116399474537e-05
3716,0.002848418396765694
3717,-0.0023961918147048767
3718,-0.013899679470369438
3719,-0.023782115000257845
3720,-0.0255960013909356
3721,-0.020761011653031083
3722,-0.017255868669038853
3723,-0.021465498646135932
3724,-0.031171174577652654
3725,-0.03697352657144628
3726,-0.03127729337513746
3727,-0.016270597615490507
3728,-0.0028797755246845443
3729,-0.0012416563222333505
3730,-0.011555078715555707
3731,-0.02402799341047153
3732,-0.02801661274776405
3733,-0.021691929677731134
3734,-0.013181887238448306
3735,-0.012440754961850622
3736,-0.021924506966228843
3737,-0.0349388601553182
3738,-0.04272748644007
3739,-0.04285752304176045
3740,-0.040608193976903184
3741,-0.04245633728177886
3742,-0.048760157874551374
3743,-0.05331170624911577
3744,-0.05015200158139859
3745,-0.04045139962506194
3746,-0.03212308793992215
3747,-0.03229057425887537
3748,-0.040151018569241234
3749,-0.04755056238188474
3750,-0.04685850265556871
3751,-0.03829639077607019
3752,-0.029330904482746077
3753,-0.02672113278820135
3754,-0.029304211798651995
3755,-0.02897340751352927
3756,-0.01905473354770127
3757,-0.0016709924165980569
3758,0.013551636575571818
3759,0.01851589637835866
3760,0.014623900266063573
3761,0.011640187449289456
3762,0.01823591466299514
3763,0.03326970498599753
3764,0.046345929978045625
3765,0.04727958940039749
3766,0.03546595259984214
3767,0.02024503923120516
3768,0.012065659105844416
3769,0.013058604916916289
3770,0.015971422587323043
3771,0.012105921481749729
3772,0.00018676018076254914
3773,-0.01252596074376935
3774,-0.01767581122312295
3775,-0.014146079911713905
3776,-0.008958851290049995
3777,-0.009998110752877508
3778,-0.017994907930549017
3779,-0.02583493650143646
3780,-0.025813991193843866
3781,-0.01750288760814478
3782,-0.008350787427085435
3783,-0.006502769168497019
3784,-0.01309019078499986
3785,-0.021656210834270856
3786,-0.025067452277258127
3787,-0.022690375348293518
3788,-0.020469774165781253
3789,-0.02396708974364925
3790,-0.031791638675276165
3791,-0.03655088588709528
3792,-0.032631569690642966
3793,-0.02276883312070655
3794,-0.016192008324225838
3795,-0.019631251284406667
3796,-0.03010643970602652
3797,-0.03717698149882639
3798,-0.03302018169587381
3799,-0.020526220471016484
3800,-0.01104056892854617
3801,-0.013466621827336624
3802,-0.025277781583754898
3803,-0.03452696094169943
3804,-0.03123470839810924
3805,-0.017076740283453032
3806,-0.003680473719874679
3807,-0.0010081683551480863
3808,-0.0072582710038673484
3809,-0.0104040162905128
3810,-2.446167669584512e-06
3811,0.022372244669747916
3812,0.044441434540440077
3813,0.05499407862264773
3814,0.054447447074530225
3815,0.05384787899525863
3816,0.06362284428170495
3817,0.08356301840802616
3818,0.10390826791179272
3819,0.11580513691961636
3820,0.11980411082543309
3821,0.12339860852179968
3822,0.1304484083773973
3823,0.13431109281774112
3824,0.12304219293452723
3825,0.09234733009408491
3826,0.0530649381920425
3827,0.024371271072649574
3828,0.017783106013910678
3829,0.02668928063657265
3830,0.03165622600343097
3831,0.017061948882657905
3832,-0.0161569889628115
3833,-0.05323207270801193
3834,-0.08075816023671048
3835,-0.09977403935567503
3836,-0.12448596183052447
3837,-0.1681045779866953
3838,-0.22913735204784264
3839,-0.2905424609731071
3840,-0.33194164582582286
3841,-0.3435555321295023
3842,-0.33017393700016806
3843,-0.3036195287134017
3844,-0.27241234008400617
3845,-0.23820156588056918
3846,-0.20034645608281318
3847,-0.16177205524214466
3848,-0.12902991434674066
3849,-0.10671390551539678
3850,-0.09289313466175035
3851,-0.08113316377663779
3852,-0.06734419669735506
3853,-0.05407666094923309
3854,-0.047141062413526974
3855,-0.04747301361466422
3856,-0.046717847034806984
3857,-0.032058585351272886
3858,0.003125942933871928
3859,0.052362922183531085
3860,0.09963880445529093
3861,0.13063368357751126
3862,0.14187134453515077
3863,0.14021466110090286
3864,0.13431905120878077
3865,0.1268683026985986
3866,0.11477693494780136
3867,0.09600126931426925
3868,0.07488558926065203
3869,0.059802473431190176
3870,0.055211714690202876
3871,0.05649595079822339
3872,0.05351147184539094
3873,0.040014915257770366
3874,0.019865452602152514
3875,0.0036687033551335776
3876,-0.0011882364925866265
3877,0.00246500696287393
3878,0.004401676506342554
3879,-0.0030523397221647944
3880,-0.01761564011472526
3881,-0.029389780409908188
3882,-0.030589536837716112
3883,-0.02310092279844852
3884,-0.016509171152271532
3885,-0.018650437697900594
3886,-0.02805139213002694
3887,-0.03565073470415263
3888,-0.03396762969208307
3889,-0.02455899158099073
3890,-0.01639848698708527
3891,-0.016869593649349236
3892,-0.024378912798065797
3893,-0.029938999583429514
3894,-0.02613727641174529
3895,-0.01457701815336918
3896,-0.004398479881750939
3897,-0.0033206347592604
3898,-0.010028018532009872
3899,-0.01537644237703303
3900,-0.011188460025524097
3901,0.0020147808838307346
3902,0.015838063062462267
3903,0.022372652417299018
3904,0.02169684315859655
3905,0.02116145909168348
3906,0.027425587251589237
3907,0.03944136914790198
3908,0.04952075796077907
3909,0.051373833710578444
3910,0.04689421882117187
3911,0.04464763018275951
3912,0.05134952458161758
3913,0.06477514271918475
3914,0.07532853101147524
3915,0.07501972708892632
3916,0.0652157818127804
3917,0.055568339131150224
3918,0.05502601042593923
3919,0.06351277549517854
3920,0.07220800764265858
3921,0.07205426118096925
3922,0.06224692436383139
3923,0.050619845134507166
3924,0.04576030209773843
3925,0.04860729061070573
3926,0.05159859342110591
3927,0.046014599942912744
3928,0.03033121895065312
3929,0.011656423318763409
3930,-0.0008350787485620888
3931,-0.003950310611138299
3932,-0.0024328110785309495
3933,-0.0034693876699151485
3934,-0.009576557175554393
3935,-0.01683866889907737
3936,-0.0197494569303371
3937,-0.017273317490617973
3938,-0.013824677956037009
3939,-0.014377871722101723
3940,-0.019078553415556643
3941,-0.023191738767372145
3942,-0.022542713826378423
3943,-0.018673911562178232
3944,-0.017974555128205387
3945,-0.025190182978958423
3946,-0.03778305197365135
3947,-0.047250342099575945
3948,-0.04675773647895273
3949,-0.03791757917155167
3950,-0.029895680875740606
3951,-0.031236693763073156
3952,-0.041935074105311276
3953,-0.05328324447803681
3954,-0.05572617960578052
3955,-0.047357168337621665
3956,-0.03516600148943197
3957,-0.028165104084239084
3958,-0.02920040137310779
3959,-0.03317553030870111
3960,-0.03288993768930605
3961,-0.026312780493970945
3962,-0.018117715206340507
3963,-0.0144005116294011
3964,-0.016351312780682845
3965,-0.01938154462685788
3966,-0.01830614258374443
3967,-0.01287661092957401
3968,-0.007745475553567419
3969,-0.006948411757075699
3970,-0.008908757183900468
3971,-0.007573765539122698
3972,0.0011189490492482916
3973,0.014083449543074035
3974,0.022971101687803343
3975,0.021835165449367783
3976,0.01319459852966957
3977,0.006226712547313537
3978,0.00836176548844366
3979,0.018182258358316508
3980,0.026568428782757038
3981,0.02519083729836416
3982,0.01430488723943967
3983,0.002395426250617074
3984,-0.0019267715920066656
3985,0.0021067022288509887
3986,0.007250439261974866
3987,0.005827638495170359
3988,-0.0025729169265584152
3989,-0.010915281724415535
3990,-0.012101675712660805
3991,-0.0063880062010292
3992,-0.001285421807379423
3993,-0.0040019141781961805
3994,-0.014063090329371683
3995,-0.02364837408769311
3996,-0.025402992532199888
3997,-0.01984085418970906
3998,-0.01473940386615243
3999,-0.017014212026744965
4000,-0.025336778799817265
4001,-0.031224180009229652
4002,-0.027787318778138274
4003,-0.017316752014356986
4004,-0.0096926432846705
4005,-0.012742744900046201
4006,-0.02406750015757543
4007,-0.03283587972893624
4008,-0.0302661439531704
4009,-0.018580710410468215
4010,-0.009303783200231314
4011,-0.012153857221991856
4012,-0.02529545452070006
4013,-0.036723474049401204
4014,-0.03573074991794384
4015,-0.023349623151579374
4016,-0.011447372541566855
4017,-0.011218628070774273
4018,-0.022293834572950526
4019,-0.033148753339443504
4020,-0.03240076931904769
4021,-0.019874251665408817
4022,-0.006607433706572897
4023,-0.003933422523425646
4024,-0.012490869980559847
4025,-0.021915351321222448
4026,-0.021274426562000372
4027,-0.009762347985285219
4028,0.002824688443010002
4029,0.00598659700190359
4030,-0.0012555240383212729
4031,-0.009850181832658636
4032,-0.010047689828778383
4033,-0.000978716127071595
4034,0.009002690708023488
4035,0.01116013913379248
4036,0.005175604232639082
4037,-0.0009794901778193018
4038,0.0002673827902554711
4039,0.0079000136137004
4040,0.013080326299569154
4041,0.008184150659181762
4042,-0.005003428239406856
4043,-0.01630974136145855
4044,-0.01667265854556755
4045,-0.006940015075035989
4046,0.0026411176852167632
4047,0.0018752005232814703
4048,-0.009977640174483392
4049,-0.023754197461332435
4050,-0.029201583334136354
4051,-0.024569560342773793
4052,-0.01790762736145587
4053,-0.01901029415330576
4054,-0.029816382231058813
4055,-0.0423822143025618
4056,-0.04624136980464012
4057,-0.03811026964156646
4058,-0.0248520742644518
4059,-0.017114018540256112
4060,-0.019783870336114166
4061,-0.028135279945581498
4062,-0.032899496281156876
4063,-0.029075801954404124
4064,-0.020088607554104992
4065,-0.013732153951193522
4066,-0.01432186402912294
4067,-0.018859143154885433
4068,-0.020725162798802037
4069,-0.016860760274400883
4070,-0.011045820056947955
4071,-0.009967074628109092
4072,-0.01610265249561918
4073,-0.024709134913936885
4074,-0.028118178588057003
4075,-0.023202063264026622
4076,-0.014594816249391315
4077,-0.010365055140331538
4078,-0.014283509494794908
4079,-0.02221344502366457
4080,-0.02610101361093431
4081,-0.021582467609159238
4082,-0.011772065534898606
4083,-0.0037308109589571817
4084,-0.0014257174014482765
4085,-0.0023205595226076983
4086,-0.0008297477030538389
4087,0.00520565377029378
4088,0.011866144725445532
4089,0.013099861751210758
4090,0.00714076371949676
4091,-0.0013301998739118327
4092,-0.005638000204300974
4093,-0.0036995011977810116
4094,-1.283412783843643e-05
4095,-0.0009963334375879475
4096,-0.008426544467817532
4097,-0.01765840614635371
4098,-0.022381869739030676
4099,-0.02095468998699419
4100,-0.017774608826023268
4101,-0.01834683186588663
4102,-0.023291035711287218
4103,-0.02766396286301086
4104,-0.02640685359755202
4105,-0.020188126174602056
4106,-0.01525588040583777
4107,-0.017025174582644048
4108,-0.02384628991273762
4109,-0.02770667008869554
4110,-0.02185059831562986
4111,-0.008073876302838828
4112,0.003826418599167363
4113,0.00460432313543515
4114,-0.005719193281489105
4115,-0.017469730886461282
4116,-0.020055938199880496
4117,-0.011790255494012719
4118,-0.0014210622443884798
4119,0.0002489487304371532
4120,-0.00928787231880968
4121,-0.021975440543011128
4122,-0.027387487995078758
4123,-0.023520465146339212
4124,-0.019478243514769435
4125,-0.026979202982331973
4126,-0.04861772239344127
4127,-0.07443433683152803
4128,-0.09066487618509896
4129,-0.09264242169753716
4130,-0.089338981607018
4131,-0.09478432901667001
4132,-0.11445058158102883
4133,-0.14003096777623164
4134,-0.1581227683621062
4135,-0.1644341397889189
4136,-0.1689969132345093
4137,-0.18615246479936162
4138,-0.2182384284393854
4139,-0.24899359353248768
4140,-0.25409975782260835
4141,-0.219822123986838
4142,-0.1525266503708263
4143,-0.07042151148462134
4144,0.013902885911395197
4145,0.10274739418919046
4146,0.2055843972228883
4147,0.32299280842652844
4148,0.4394548695401788
4149,0.5329372414266142
4150,0.5914401265382334
4151,0.6189902537364373
4152,0.6243996221381172
4153,0.6047570078648337
4154,0.5425435860144886
4155,0.4223176540986472
4156,0.2523802514994055
4157,0.06959717875547683
4158,-0.08009618925971121
4159,-0.17030194907641588
4160,-0.2076912106680628
4161,-0.21988317875964958
4162,-0.2301554383977542
4163,-0.2419027680217648
4164,-0.24437598583552406
4165,-0.23027993066610808
4166,-0.20604708622866585
4167,-0.18546035211192388
4168,-0.17530010438161517
4169,-0.1691347862116681
4170,-0.15556488817661096
4171,-0.13148450620647517
4172,-0.10594992494558222
4173,-0.09069564299321076
4174,-0.08762804777443467
4175,-0.08665943575233999
4176,-0.07618774631954287
4177,-0.055270651869288555
4178,-0.0348825502537904
4179,-0.027005334510814327
4180,-0.0327067181837934
4181,-0.0411421728536252
4182,-0.040154136601154765
4183,-0.027607738120128646
4184,-0.01237297429525525
4185,-0.004667151204694445
4186,-0.005999517530919625
4187,-0.008718657759131266
4188,-0.0049481382260108415
4189,0.0047594014348540156
4190,0.011962533883835128
4191,0.009238539385178083
4192,-0.0019065793509951928
4193,-0.012259187027463828
4194,-0.013948115881214876
4195,-0.008118904878779185
4196,-0.0035545404640532473
4197,-0.007760244873866133
4198,-0.019521876537044743
4199,-0.030295641503962207
4200,-0.03282841899206423
4201,-0.028216330259117392
4202,-0.02433013595483239
4203,-0.027326804641779792
4204,-0.034961897943329025
4205,-0.03861999612047761
4206,-0.032191971704856485
4207,-0.018922364390116173
4208,-0.009147695554266928
4209,-0.010764221799913772
4210,-0.021547639413212964
4211,-0.030887680786241628
4212,-0.029520080787794774
4213,-0.018124186224601265
4214,-0.006688568868053181
4215,-0.005321116290647658
4216,-0.015216779395119166
4217,-0.028119864469438136
4218,-0.0343575432417627
4219,-0.031473390190219705
4220,-0.025347260007826895
4221,-0.023314311579261407
4222,-0.026549680542660613
4223,-0.02933046931528403
4224,-0.025632965193293937
4225,-0.01612542036085438
4226,-0.008298899021284303
4227,-0.009434576731300928
4228,-0.019341073745879716
4229,-0.030123340382808554
4230,-0.03336726467958051
4231,-0.02784693325322328
4232,-0.020334362078048715
4233,-0.018798922315289842
4234,-0.024634157616147352
4235,-0.031390081025624045
4236,-0.03108239002610403
4237,-0.021824267571053574
4238,-0.009410971068263125
4239,-0.001552208939556932
4240,-0.0006314549648154244
4241,-0.0021095074598282758
4242,0.00012685965488204041
4243,0.007152456364240727
4244,0.013951575087939953
4245,0.01493667891268962
4246,0.0101904760076057
4247,0.005719814518896308
4248,0.0071626456720650985
4249,0.013373599362951748
4250,0.016861153226667473
4251,0.011251849659349507
4252,-0.001506132886846904
4253,-0.011860843924016432
4254,-0.011356433140920868
4255,-0.0011104615223774803
4256,0.008587495693372815
4257,0.007836043115272966
4258,-0.0031342361711624734
4259,-0.013792494570848711
4260,-0.013460890714711338
4261,-0.002233407097204568
4262,0.008206982603337742
4263,0.0052774444834824945
4264,-0.01222636430276813
4265,-0.032197875918201904
4266,-0.03992461401782207
4267,-0.031524544680465325
4268,-0.017351508556742327
4269,-0.012074624779474009
4270,-0.02087699709334679
4271,-0.03487902971918641
4272,-0.03993070816980515
4273,-0.030100994802509655
4274,-0.012968507797071526
4275,-0.0020815701775448786
4276,-0.0043584071980899385
4277,-0.014583275090840371
4278,-0.021604552495004203
4279,-0.019290814297976144
4280,-0.01128242821733013
4281,-0.005625012323450455
4282,-0.005799034064541757
4283,-0.0077535873308531116
4284,-0.005555712189316339
4285,0.001085155056276075
4286,0.005962859156348635
4287,0.0032771781114901283
4288,-0.0052447424432536475
4289,-0.011062505588682815
4290,-0.007190241366539455
4291,0.004286725661907069
4292,0.01358494519791574
4293,0.012535812484148826
4294,0.0026102352979500867
4295,-0.0064999081871379445
4296,-0.006427908754862205
4297,0.0017404453881354972
4298,0.008868610364693476
4299,0.00715989430011718
4300,-0.002032309741096162
4301,-0.009812828440867255
4302,-0.008966612692928193
4303,-0.0013038946323704985
4304,0.004318183747512622
4305,0.0011674855962054919
4306,-0.008426865946243037
4307,-0.015445578060036446
4308,-0.013408330519588386
4309,-0.0050420011074990955
4310,0.0004184263728549228
4311,-0.0033904932000923017
4312,-0.013357089900666086
4313,-0.019783955638555537
4314,-0.016015997015995563
4315,-0.005313557283097211
4316,0.001862107884909846
4317,-0.0023963142995007338
4318,-0.01603517967311673
4319,-0.02902087004883508
4320,-0.03263011414774447
4321,-0.02703988182077533
4322,-0.02012363885590559
4323,-0.019063837469680798
4324,-0.02328029909274007
4325,-0.025597279731096538
4326,-0.020244804922899165
4327,-0.009485260678592256
4328,-0.0020478233711974246
4329,-0.004723526256290916
4330,-0.015357887930412244
4331,-0.024277051615555083
4332,-0.023017760017263956
4333,-0.012057217808198305
4334,-9.884779739611832e-05
4335,0.004398625979901134
4336,0.001240743990698399
4337,-0.0017035520099289102
4338,0.0033294997233153834
4339,0.015919310335224972
4340,0.027468647155928286
4341,0.02937853788502973
4342,0.021417597423655062
4343,0.012041101344352257
4344,0.01024840994294181
4345,0.01686497109014591
4346,0.02374923789902402
4347,0.02172211795180551
4348,0.009521618586408306
4349,-0.004899764698412911
4350,-0.01196350257205736
4351,-0.009591527933436855
4352,-0.005157477208623723
4353,-0.008587360363763587
4354,-0.023390768576706966
4355,-0.04409526562176533
4356,-0.062086505750943835
4357,-0.07377048429488627
4358,-0.0831255854836109
4359,-0.09660163665393746
4360,-0.11590596846244619
4361,-0.13606740577418414
4362,-0.1507153024910451
4363,-0.15927377385823382
4364,-0.16877441307547833
4365,-0.18801430639285932
4366,-0.2189551292489867
4367,-0.25290762485507645
4368,-0.27491298992525987
4369,-0.27273487779042116
4370,-0.2432289091425961
4371,-0.19148503820678872
4372,-0.12441447350686778
4373,-0.04485018182098899
4374,0.048812520640858656
4375,0.15765088182031056
4376,0.27687521308829427
4377,0.3952248642607715
4378,0.49978035985197944
4379,0.5818529636421284
4380,0.638567155604326
4381,0.6687810174490847
4382,0.6675740867040847
4383,0.625476103028521
4384,0.5347440065994495
4385,0.3984352617009861
4386,0.23465606673994938
4387,0.07150663917430958
4388,-0.06456306218717375
4389,-0.15920745217158855
4390,-0.21298200991322822
4391,-0.2362025244399535
4392,-0.24102578229619256
4393,-0.23628790732772686
4394,-0.22673173017229079
4395,-0.21448620561873466
4396,-0.20027711185782843
4397,-0.18396680685759975
4398,-0.16539567706102493
4399,-0.14558944965605658
4400,-0.12695584412276092
4401,-0.11161272593369218
4402,-0.09927342603943264
4403,-0.0872796855008724
4404,-0.0734159651647789
4405,-0.05881073196200318
4406,-0.04745353073772118
4407,-0.04215178691760299
4408,-0.04092976107700097
4409,-0.03812818486409817
4410,-0.029837386410076612
4411,-0.018348745674852958
4412,-0.010597035109634726
4413,-0.011453906874787298
4414,-0.018392064342837768
4415,-0.023276792491890422
4416,-0.02005677890123539
4417,-0.010850500407445389
4418,-0.004068461133623558
4419,-0.006074887817994712
4420,-0.014649512361148052
4421,-0.021060480466408384
4422,-0.01900473611775185
4423,-0.011521541711072822
4424,-0.008634623031039908
4425,-0.01756937767262789
4426,-0.03496124116348015
4427,-0.04887807102893632
4428,-0.0491215114327678
4429,-0.0362713879034186
4430,-0.021095420806990867
4431,-0.015071781538527375
4432,-0.020960486792339438
4433,-0.03184279242145136
4434,-0.03868896809641441
4435,-0.038646572599378565
4436,-0.03630225310500215
4437,-0.03756848550104645
4438,-0.04297490062257024
4439,-0.04713711255687426
4440,-0.04453281556440816
4441,-0.03537667355458181
4442,-0.0255814573909073
4443,-0.020982640093493897
4444,-0.021764158903423637
4445,-0.022653676510633717
4446,-0.018558687595283098
4447,-0.00991627148876114
4448,-0.002438567001499441
4449,-0.0015674477752942605
4450,-0.007124170143880219
4451,-0.013325020419088826
4452,-0.014025198629292072
4453,-0.008072101728265344
4454,0.00021507636905525014
4455,0.005532747351919097
4456,0.006440455274834887
4457,0.0059759585944456775
4458,0.007894605152835773
4459,0.012674541117433841
4460,0.017332892789102494
4461,0.018937696724539547
4462,0.017858513557508907
4463,0.017205634213999295
4464,0.019065103719673505
4465,0.02167063192564642
4466,0.020807924933143068
4467,0.014283684338031222
4468,0.00481174474733316
4469,-0.002048612833434493
4470,-0.0032497069017742865
4471,-0.0015358418597127004
4472,-0.0029038236562027907
4473,-0.010257616567218355
4474,-0.01953082084884781
4475,-0.022729155002719555
4476,-0.015700676420726804
4477,-0.0032955334755159276
4478,0.003680074598038421
4479,-0.0022485675962897254
4480,-0.01802720083760046
4481,-0.03205120356260113
4482,-0.03414485946460344
4483,-0.02464445615859793
4484,-0.014051727101686909
4485,-0.013290303079334683
4486,-0.023502092564070293
4487,-0.03498577043533602
4488,-0.03636539577548348
4489,-0.02533521452135702
4490,-0.010752668570247079
4491,-0.004133115579567534
4492,-0.008824247792607744
4493,-0.017333762455149608
4494,-0.019224310272294078
4495,-0.011565138478662548
4496,-0.0014816515143092233
4497,0.0016337769447959875
4498,-0.0038120476967931447
4499,-0.009701035393672001
4500,-0.006602065248719524
4501,0.006000654394058735
4502,0.018272763609664386
4503,0.019273109716094965
4504,0.007844100118696079
4505,-0.005849114361047507
4506,-0.009936040711027102
4507,-0.0022096056135485426
4508,0.008031696472488276
4509,0.009469383786977661
4510,4.892488962436619e-05
4511,-0.011207954443812828
4512,-0.013531039657357725
4513,-0.005336795014765866
4514,0.004236356748522814
4515,0.004563313339109548
4516,-0.005942715736269843
4517,-0.018563585384327994
4518,-0.023212945264811387
4519,-0.018227085321348487
4520,-0.011158463630897337
4521,-0.010254118924341865
4522,-0.01583775756899885
4523,-0.020545425445913878
4524,-0.017817414833146677
4525,-0.009354885352437104
4526,-0.0034817306558745957
4527,-0.006111777620390807
4528,-0.013990144087859526
4529,-0.01764004512018716
4530,-0.011266809188302064
4531,0.0006461646524565203
4532,0.007226316535180934
4533,0.0020566171728171045
4534,-0.009939666166939467
4535,-0.0168500782731518
4536,-0.011427944964513137
4537,0.0014273006765268183
4538,0.009020667380329287
4539,0.0031171407025461515
4540,-0.011759903319603825
4541,-0.02223469757993425
4542,-0.018686590493196875
4543,-0.004566981551828323
4544,0.0065540864764809526
4545,0.0035611705167691698
4546,-0.011777395239834978
4547,-0.026253676505110915
4548,-0.027135674800076785
4549,-0.01349958437576881
4550,0.003298886082633583
4551,0.010093474092164038
4552,0.003481144704171594
4553,-0.007885747335674024
4554,-0.011779460189486281
4555,-0.0033817662294256664
4556,0.011177604921729627
4557,0.02123962324225056
4558,0.021313073253963893
4559,0.014972189889927195
4560,0.010011855428923548
4561,0.010305218815142871
4562,0.012442187054139258
4563,0.009974631419684212
4564,0.00044376820870081226
4565,-0.012136714388497196
4566,-0.021756144621780254
4567,-0.02701722205435312
4568,-0.032832010173801454
4569,-0.04523132504613465
4570,-0.06458837844924267
4571,-0.0845321071981333
4572,-0.09818563864324882
4573,-0.10559984727853092
4574,-0.11442979697393443
4575,-0.13243943755150211
4576,-0.15910295142784314
4577,-0.18532718029900835
4578,-0.2025178398374741
4579,-0.2121208793806068
4580,-0.2249458214647902
4581,-0.24905609057353978
4582,-0.27721635535230094
4583,-0.28727941271123325
4584,-0.25766758013213487
4585,-0.18514890569574885
4586,-0.08827007572657614
4587,0.007897440752634141
4588,0.09246659827146558
4589,0.17583088657075369
4590,0.27640400184890174
4591,0.39945269518550974
4592,0.5279539982176404
4593,0.6336623219361681
4594,0.6970422632318451
4595,0.7167687878105038
4596,0.7009697426478665
4597,0.6515022247288497
4598,0.5596460824097893
4599,0.4191971342132618
4600,0.24366851919989893
4601,0.06821094550299589
4602,-0.06912152928403753
4603,-0.15159772795073778
4604,-0.19192710213134506
4605,-0.21713864487367412
