,0
0,0.00925179218880592
1,0.03272885359561962
2,0.045947970658134524
3,0.0446331607724499
4,0.03301982667134676
5,0.021465680779772785
6,0.02059746140177276
7,0.03557427756294117
8,0.06391093761652891
9,0.09782484479193893
10,0.1289589234409272
11,0.15197092426940584
12,0.16494630687643913
13,0.16754601178113895
14,0.15955635620768738
15,0.14151775224570243
16,0.11647386282897443
17,0.09034161930302759
18,0.06959294548419646
19,0.0577114572964326
20,0.05341217102253471
21,0.05223367365156758
22,0.05008500487678948
23,0.04560386890128501
24,0.03945799546932435
25,0.03174864021604791
26,0.02049521553431021
27,0.0030396777278845787
28,-0.020758894862314865
29,-0.04660799345240007
30,-0.067283330145852
31,-0.07675815607135691
32,-0.07388116429065351
33,-0.06285965837310217
34,-0.05037021640750983
35,-0.04165555654150224
36,-0.03839115947337369
37,-0.03927550503012131
38,-0.04198893444339384
39,-0.04443764803256422
40,-0.04455548040297613
41,-0.039868046994523614
42,-0.028440182967355024
43,-0.011136946667346149
44,0.00697855974464704
45,0.01835096071642515
46,0.01740154730030325
47,0.0044826244380337926
48,-0.014098202941581442
49,-0.03010216497051793
50,-0.03787316132927089
51,-0.035610266460419523
52,-0.023416279071710365
53,-0.001769391535999018
54,0.026790918807665494
55,0.05482206613921234
56,0.07124648550477086
57,0.0687621917532504
58,0.05195759622028564
59,0.03717817849197225
60,0.04131556071737741
61,0.06815088048166175
62,0.10599494127229814
63,0.14168842773130205
64,0.1796071107402521
65,0.24584093124415873
66,0.3676378873627174
67,0.5401426269717481
68,0.7073450978326964
69,0.7773692820219106
70,0.6676932148433543
71,0.3531785669533978
72,-0.11309363900296328
73,-0.6180695894034799
74,-1.0339936020833491
75,-1.2659363615270192
76,-1.2806883924814187
77,-1.1092201940033743
78,-0.826863042807015
79,-0.5216541175274327
80,-0.26323797959579065
81,-0.0838197971958548
82,0.022126328020966722
83,0.0816585137817483
84,0.12181001938438826
85,0.15584206612810747
86,0.18330149275990848
87,0.19913486578266631
88,0.20183958794714182
89,0.19460429386022363
90,0.1815390670547856
91,0.1650494806696456
92,0.14712476500136232
93,0.13164189599688395
94,0.12350930129765007
95,0.12470547363715856
96,0.13165500806707486
97,0.13752905172687513
98,0.13774820191242743
99,0.13321757107059634
100,0.12801137952862085
101,0.12410909839954753
102,0.11896963389306008
103,0.10867544964315057
104,0.09328618370792141
105,0.07840816715093746
106,0.07068460124123703
107,0.07118802362805199
108,0.07314673550497913
109,0.0665725462701119
110,0.04600049654953907
111,0.01480285225207334
112,-0.01722671388317107
113,-0.040477434179036285
114,-0.05077359773955066
115,-0.04984466870753897
116,-0.042165741161765344
117,-0.03187979453529241
118,-0.022133892625983666
119,-0.015940974134654687
120,-0.016160606444162416
121,-0.023720522570940785
122,-0.03580742686416098
123,-0.04644229088275051
124,-0.049771532622175554
125,-0.04367459949340318
126,-0.030763068144407813
127,-0.016137833939638916
128,-0.004101268861073858
129,0.0034249722783985578
130,0.006159428489769952
131,0.0042017573684902405
132,-0.0018669302680456238
133,-0.009868680939845524
134,-0.016034695952179608
135,-0.017288139574591913
136,-0.014067098615483484
137,-0.010526379073968539
138,-0.011123109861797001
139,-0.016472832559471837
140,-0.022716289372378917
141,-0.02548372364184511
142,-0.024759924439835164
143,-0.025611265426878332
144,-0.033628618701760156
145,-0.04929262541798246
146,-0.06669189719997516
147,-0.07774350828696466
148,-0.07777001298511654
149,-0.06752047217390189
150,-0.05096668607308305
151,-0.03240360630328415
152,-0.015812352522110378
153,-0.005291890871748452
154,-0.0033293545918590068
155,-0.006917081223919936
156,-0.006239526931224629
157,0.00986811646810552
158,0.044435010589638266
159,0.08778567112150672
160,0.12406062789710066
161,0.14416509520661347
162,0.15255910606187953
163,0.1602821054600631
164,0.17138010368584117
165,0.17921798732348077
166,0.18078859505757527
167,0.19648354990251604
168,0.27042022883598105
169,0.4384857198554142
170,0.6814198900655206
171,0.9021875634470231
172,0.9573928180806882
173,0.7343004884947428
174,0.2271522584000118
175,-0.4396337809123033
176,-1.0611521790337188
177,-1.4467453117993032
178,-1.50417202064869
179,-1.2679059839654645
180,-0.8639621001760913
181,-0.44041128299615806
182,-0.10545308519454342
183,0.09925678519317123
184,0.18837802205222703
185,0.20346003681908884
186,0.1854630860079573
187,0.161092654024652
188,0.14255416522070985
189,0.13331415535756644
190,0.13290236631843316
191,0.13852626923313993
192,0.14534591614772616
193,0.14777772763913258
194,0.14192738644075548
195,0.12724469340582667
196,0.10597866318417432
197,0.08128954803120586
198,0.05619973777422838
199,0.034234513099211744
200,0.020032613881723525
201,0.017568378851047645
202,0.026238003769911547
203,0.0384444109337123
204,0.042432570844418926
205,0.02985055202476
206,0.0024838009905809874
207,-0.02793322611491408
208,-0.047586865917953663
209,-0.05013640796654263
210,-0.04016414288832214
211,-0.02797104715195131
212,-0.020760677076143874
213,-0.01813175019423882
214,-0.01530065630216369
215,-0.010007290487860896
216,-0.005820609137031616
217,-0.008522469357102259
218,-0.019324247561177336
219,-0.031865443943296004
220,-0.036259249190894294
221,-0.026682617778808176
222,-0.005789340186487121
223,0.017561494231598793
224,0.03461161136474064
225,0.04135335653730013
226,0.0384337499990172
227,0.028229088010318183
228,0.0131230920994111
229,-0.003533430203069051
230,-0.01620380133206488
231,-0.01876789199441444
232,-0.008648452971202241
233,0.010404466479189401
234,0.03026058168717071
235,0.044051964970980316
236,0.050624270685990874
237,0.053829607916356964
238,0.057682267292932556
239,0.0623999679430932
240,0.06518955210932806
241,0.06447907434897641
242,0.06256889818200989
243,0.06338756768226947
244,0.06749462918066831
245,0.0698912642277962
246,0.06374128362010761
247,0.0470351643067993
248,0.025759209267802667
249,0.010043187316611094
250,0.006392935866483247
251,0.01292432081062491
252,0.02169653914951062
253,0.025584975462322967
254,0.023197866854839582
255,0.017829461249489996
256,0.012565964550663996
257,0.007144863074074827
258,-0.0003091634149079746
259,-0.00910647862840197
260,-0.014533849331218276
261,-0.011386872952898855
262,0.0006427738707046675
263,0.015145621981506645
264,0.02296415717245765
265,0.01872537683647519
266,0.004367904593182898
267,-0.013008339573840776
268,-0.026547140447528796
269,-0.03347378166688589
270,-0.03473711127173353
271,-0.03199808449148315
272,-0.025529329838753397
273,-0.014936703270373646
274,-0.001438950851533615
275,0.011016063748743924
276,0.0171765059278694
277,0.013401325954175217
278,-0.00013640437781825034
279,-0.019322364982108493
280,-0.03780417476255061
281,-0.04938848194817469
282,-0.05016535251755253
283,-0.039906132445515025
284,-0.022462880113439377
285,-0.0048285805934806785
286,0.005295851923964563
287,0.0028880206669095933
288,-0.011473623911015474
289,-0.03096070307121155
290,-0.04523919194122836
291,-0.04588726091223877
292,-0.0316234314101176
293,-0.009694779431270503
294,0.008321158406268743
295,0.014065889972710828
296,0.007961869151209288
297,-0.0016309442276791278
298,-0.00508683403496449
299,0.0015749324143639486
300,0.0153065273019324
301,0.030653098663921304
302,0.045099499328145796
303,0.059622641993682446
304,0.07466917993262123
305,0.08726885039814225
306,0.09371955619830474
307,0.09512712967305569
308,0.09835125319891719
309,0.10934602885188816
310,0.12594884294076436
311,0.14110668433322354
312,0.15796489384998338
313,0.20241981182337826
314,0.313828062868474
315,0.5103602218825192
316,0.7514894113445658
317,0.9321300426508738
318,0.9254523127782415
319,0.6545898659761068
320,0.14705870393331116
321,-0.4666843783567577
322,-1.0117427034852038
323,-1.3475482999326884
324,-1.4203704564252058
325,-1.2660338902975588
326,-0.97362849049758
327,-0.6400150906734512
328,-0.33921881390316033
329,-0.11219551985952028
330,0.030772200209991125
331,0.10307711260160862
332,0.13212566716990531
333,0.14662680028267372
334,0.16415033523234135
335,0.1856778682072351
336,0.20084741526421712
337,0.19972307059998406
338,0.18177280997326145
339,0.15559743037842125
340,0.13124256654380165
341,0.11290526625538402
342,0.09831452915702278
343,0.08410740084272927
344,0.07099666491250407
345,0.0633635340781697
346,0.0637994011619604
347,0.06825345477840634
348,0.06708580451457793
349,0.05195038582026996
350,0.022971029146632193
351,-0.01000009792000424
352,-0.03352860725069644
353,-0.039553461298158926
354,-0.03027681239682904
355,-0.015505453634200703
356,-0.0050702518760585335
357,-0.002582550595569401
358,-0.005021008421800102
359,-0.007320301390937921
360,-0.007099712431001049
361,-0.0053633436976551615
362,-0.0033840256519297664
363,0.00032324260616859975
364,0.00947735954695093
365,0.02637410179481294
366,0.04881015584259479
367,0.07075141064464754
368,0.08620099111738366
369,0.0926804572477572
370,0.09138467922624458
371,0.08458363983525262
372,0.07349357776817414
373,0.05888992412870714
374,0.04329532694547643
375,0.031427588253307215
376,0.027226343980054243
377,0.029692363997522647
378,0.03187922081919719
379,0.02514470931661917
380,0.005950586614657703
381,-0.020380537068921636
382,-0.04251799791838315
383,-0.0507655550221402
384,-0.04364174506087577
385,-0.028419512608531955
386,-0.015592900328161624
387,-0.011920312343883497
388,-0.017246598174061226
389,-0.026668601265380718
390,-0.0352433317299163
391,-0.04101657096930221
392,-0.0444272367853474
393,-0.04566527069609745
394,-0.043149107182209184
395,-0.034806889879668484
396,-0.02091370125000027
397,-0.005571005371689609
398,0.005038936760636582
399,0.006676674418612088
400,0.0002612953069384417
401,-0.008390733829027826
402,-0.012271186949882593
403,-0.007556535674185409
404,0.004550236712951992
405,0.019458699143822505
406,0.032356345202671825
407,0.04006872315452237
408,0.04066570483746551
409,0.032485013514614955
410,0.01478227770577849
411,-0.010000267104721258
412,-0.034948580464298815
413,-0.05089873043315568
414,-0.05156813105548136
415,-0.0378265041253589
416,-0.01749138794701477
417,-0.0006349391557538414
418,0.005984013322205082
419,0.001537221091802662
420,-0.009981151823603974
421,-0.022449265791192503
422,-0.02974454336736579
423,-0.027185008855450023
424,-0.013179556694817804
425,0.009330793681926585
426,0.03354319173157395
427,0.052375330570736164
428,0.06265728784430369
429,0.06630014723941335
430,0.06758853722228628
431,0.0699568727524074
432,0.07604483185199097
433,0.09019907299095811
434,0.11821078174031824
435,0.1613796064873423
436,0.21014661284931088
437,0.24730334573417262
438,0.2638915869724495
439,0.2759821034617011
440,0.3225477098757326
441,0.43583522774563843
442,0.6007376597903854
443,0.7370290820548706
444,0.7286620470548253
445,0.490469765702387
446,0.030398692449050038
447,-0.5374121560780768
448,-1.0418195790234774
449,-1.336686535621309
450,-1.365190320141179
451,-1.1710202917603125
452,-0.858432355464241
453,-0.5336506674874495
454,-0.2637974910758634
455,-0.06932940736135515
456,0.05876106559205096
457,0.13710126138951365
458,0.17809597021236923
459,0.18983919801770316
460,0.18076086908973057
461,0.1618357969691598
462,0.14431207726992018
463,0.13553710358184673
464,0.1364744285532431
465,0.1425692035275421
466,0.1470683315303934
467,0.14455282336200675
468,0.13279003488479796
469,0.11249843222301435
470,0.08609321726552667
471,0.05685338771960148
472,0.028954554807070487
473,0.007411658058566485
474,-0.0033363789003583205
475,-0.0021126158086366854
476,0.006993784663664768
477,0.01563403254084475
478,0.015571182581295126
479,0.0038537622057469353
480,-0.015000227462551922
481,-0.03172656476291335
482,-0.03818928241806839
483,-0.032219398324261725
484,-0.018125007298968654
485,-0.0030304784319502916
486,0.007741017281482883
487,0.012839471566432765
488,0.01373696595136802
489,0.012168109292043438
490,0.008751256196129906
491,0.0037207706457224694
492,-0.0014463659228590654
493,-0.0034104189116012642
494,0.0018132482745736212
495,0.016522744158652014
496,0.03935029709297661
497,0.06482952792446672
498,0.08501030449395294
499,0.09284735215145691
500,0.08609757963956276
501,0.06946562830713358
502,0.052830512840496446
503,0.04551818992413748
504,0.04987249261288643
505,0.059002514331415706
506,0.06123512130800958
507,0.04855290909998401
508,0.022533182230008105
509,-0.007113051004092199
510,-0.03014992805025813
511,-0.04299161444084599
512,-0.04945147597625934
513,-0.05519718239468044
514,-0.0618397836792869
515,-0.06638877178645258
516,-0.06592842728745617
517,-0.06191865535733372
518,-0.05914991734170307
519,-0.06037357072178205
520,-0.06256419009321007
521,-0.059285563229767385
522,-0.04716364895914274
523,-0.02985713147674501
524,-0.015171298341915758
525,-0.007918436616747133
526,-0.005607113932486521
527,-0.0013617943772126185
528,0.008682337295816968
529,0.02068167060156225
530,0.0256360372334383
531,0.016904221361290002
532,-0.003934359180257119
533,-0.02757036271088304
534,-0.04286689110378825
535,-0.04336773818104954
536,-0.030284178682897872
537,-0.011133911470406212
538,0.004345654161503299
539,0.008950400699952673
540,0.0016101963976424686
541,-0.011986011527468997
542,-0.02276796336561544
543,-0.024085424884999408
544,-0.015657314601089857
545,-0.0020563713114391652
546,0.013067400952944588
547,0.03115400665577616
548,0.056559633662586886
549,0.09045455275772513
550,0.12910599014635402
551,0.17159937101027062
552,0.23057136772104458
553,0.33115108328249315
554,0.4894844228999582
555,0.6814886141369746
556,0.8285515168431925
557,0.8221561711873204
558,0.5825709540885791
559,0.11719331584884354
560,-0.46294190627751924
561,-0.9856230522683633
562,-1.2967297392634092
563,-1.3292313026720874
564,-1.1226878747026214
565,-0.7876597583500393
566,-0.44328026338626814
567,-0.16717231017023898
568,0.01887241967755142
569,0.13098331364983842
570,0.19455800177708588
571,0.2257642883028698
572,0.23031800601695807
573,0.2125282587569402
574,0.1826477256442598
575,0.1555315741480245
576,0.142461580909664
577,0.14367676537993082
578,0.1482571047509617
579,0.1420388202700505
580,0.11791825036957546
581,0.08092535935882125
582,0.04435045834122822
583,0.020102143613563574
584,0.010944568901359121
585,0.010533650501842542
586,0.010509664756437585
587,0.00794042138204788
588,0.006435850798923344
589,0.010347302676582524
590,0.018103418255705973
591,0.021685465463826534
592,0.013428226645631723
593,-0.00592555586748988
594,-0.02576621034472387
595,-0.03294703807489314
596,-0.02205515615076173
597,0.0001827693370565584
598,0.020166080133256752
599,0.027697870793736076
600,0.022438329518956718
601,0.011556710191304425
602,0.0017702971757456174
603,-0.006238285867457778
604,-0.015965523241554626
605,-0.028394887429253796
606,-0.03799663443601961
607,-0.03633563253780152
608,-0.02050777841736528
609,0.001735155720579638
610,0.01597023686655428
611,0.01180620864831358
612,-0.008627891884408417
613,-0.03199362958936395
614,-0.044109812065006526
615,-0.040705779222987376
616,-0.029568580122375156
617,-0.022744757187302976
618,-0.026187463731050655
619,-0.03611909962451158
620,-0.04476133155871212
621,-0.049199159059002906
622,-0.05436142040047917
623,-0.06705643467164607
624,-0.08700856317943062
625,-0.10416263977385623
626,-0.10575610071675089
627,-0.08718595385780384
628,-0.05667522849773239
629,-0.029228373841792492
630,-0.015205754053230713
631,-0.013596782297789163
632,-0.015252750351249612
633,-0.01189531559510936
634,-0.0019981303377957097
635,0.01105500324648029
636,0.024806521549380782
637,0.040355634546983155
638,0.05925029451818433
639,0.07923925478882289
640,0.0948348688613078
641,0.10266379872594392
642,0.1053044968039443
643,0.10841442467428009
644,0.11374361735383041
645,0.11624778781493797
646,0.10975350576214626
647,0.09575147468392894
648,0.08498369281284354
649,0.08831097431676918
650,0.10577148675787736
651,0.1270465174997747
652,0.14609022867924232
653,0.1764558350996956
654,0.24877909907509071
655,0.38556832062855895
656,0.5700983203351238
657,0.7357965126857331
658,0.7898661758548445
659,0.6597358158692389
660,0.33400171656573024
661,-0.12628145007914465
662,-0.6102177985992256
663,-0.9989295333041458
664,-1.2061020966848321
665,-1.2027199069936638
666,-1.020643775372529
667,-0.7360999225010305
668,-0.4389408920406357
669,-0.1990240350605081
670,-0.044515761957749325
671,0.03740157248794169
672,0.07972260660448875
673,0.10986864411732138
674,0.13621047529445174
675,0.15291757477712065
676,0.1543106770967527
677,0.14418686530914737
678,0.133046866429544
679,0.12847473652826807
680,0.12922899488776685
681,0.1281151329528297
682,0.11943331916718278
683,0.10331984538285227
684,0.08395778135351376
685,0.06522723313735099
686,0.04880424861676599
687,0.03555913235828877
688,0.027027191194582578
689,0.024416011517491447
690,0.026554992720049166
691,0.030048817265662425
692,0.03218789985127813
693,0.03328686525537681
694,0.035183702151419666
695,0.03714543663718027
696,0.03426618899801312
697,0.02158002798323804
698,0.0007358212996265018
699,-0.01801262799620923
700,-0.02235086524916046
701,-0.00844031040954955
702,0.014145474658733904
703,0.028617105352462327
704,0.023806547720561073
705,0.002649135781058556
706,-0.02110970364438907
707,-0.03482643410056343
708,-0.03668852735352582
709,-0.034923400571031604
710,-0.03817961802444809
711,-0.046701504107061885
712,-0.052427333698267596
713,-0.047180811696733785
714,-0.030609550027620447
715,-0.010433828805705987
716,0.004613098404044027
717,0.012007335548377157
718,0.01625442500662949
719,0.023400878341857133
720,0.035134561253341176
721,0.04792204452947314
722,0.05710973500049521
723,0.0612267374309912
724,0.062263343824579695
725,0.062257508073632985
726,0.06016320742824341
727,0.052290987205096805
728,0.03582331374152407
729,0.012033640982617584
730,-0.013571361034611592
731,-0.03402997089620123
732,-0.04423597662077519
733,-0.042629348577370225
734,-0.030936582921708675
735,-0.013007190255260327
736,0.006274847456701834
737,0.021884582979040987
738,0.029739515853564907
739,0.02809050169804912
740,0.018709520807890317
741,0.006960857610095949
742,1.5906612978687767e-05
743,0.003355067131730325
744,0.017087844146789086
745,0.03463035440599585
746,0.04561091073223594
747,0.04213232609960364
748,0.024402301786321495
749,0.001216476100486306
750,-0.01574997026386793
751,-0.019746668349981594
752,-0.01261069687651158
753,-0.001466868433987402
754,0.008082801829558398
755,0.015683803124387923
756,0.023622255935191495
757,0.031352970908143894
758,0.03377347485137397
759,0.025841921233979492
760,0.008922315710751375
761,-0.008382638235766866
762,-0.016838462913364716
763,-0.014509401248818127
764,-0.007834944669947785
765,-0.004428371262214853
766,-0.005039839934793812
767,-0.003485396862194096
768,0.004915634719442079
769,0.015393742093956287
770,0.015675390462992114
771,-0.0027137311951674833
772,-0.03460565727924894
773,-0.06318221328728155
774,-0.07280736811963129
775,-0.06086083889248285
776,-0.03773923746339404
777,-0.01611267526480615
778,-0.0008802664185537223
779,0.010742425555875514
780,0.02137325220081792
781,0.028578182568819072
782,0.029258698345524033
783,0.02757349736075078
784,0.035222838526406994
785,0.06136004643731643
786,0.10290218560054123
787,0.14850543058733554
788,0.19562822536728913
789,0.26306762308353626
790,0.3804028394856911
791,0.5556680952111794
792,0.7463061122522374
793,0.8624246240922094
794,0.8087551072648654
795,0.5405089952669004
796,0.09546731663603143
797,-0.41884706278731343
798,-0.8726738402445877
799,-1.1654877797758245
800,-1.2548665063547062
801,-1.1564749211532044
802,-0.9259619326095532
803,-0.6362426170083639
804,-0.3566986750897062
805,-0.1358916273331185
806,0.009011479603900172
807,0.09065965379122617
808,0.13665484457077226
809,0.16960005287698826
810,0.195276823080911
811,0.20628536430112565
812,0.19586620540877547
813,0.16870097602444856
814,0.13950123555358498
815,0.12196166895164699
816,0.11894957480651216
817,0.12244397572288293
818,0.1220505743878962
819,0.11358069758841075
820,0.10048469967210535
821,0.0884018903408394
822,0.07905267672535063
823,0.06911168041432122
824,0.05428457377210513
825,0.034214710469413434
826,0.01382285353226255
827,0.0002540133811850531
828,-0.0019169536330513916
829,0.006241180998668901
830,0.018477564821874255
831,0.026831745304933194
832,0.02599496817591166
833,0.016067412207418957
834,0.002106809841692513
835,-0.009246453919305094
836,-0.013813944556168923
837,-0.011776052835760146
838,-0.0062395711993718335
839,-3.721162857286877e-05
840,0.0062463341478148065
841,0.013380239003242415
842,0.0210211143041388
843,0.026563283270319215
844,0.02675942933240623
845,0.02055902188041906
846,0.01023839565799372
847,-0.00031909825394984496
848,-0.008303111063940516
849,-0.012820297278687776
850,-0.013412059469744685
851,-0.008695629942034808
852,0.0023597891469258102
853,0.017254102647932708
854,0.02868132552196305
855,0.02806455033142883
856,0.012151004379970281
857,-0.012961704951630341
858,-0.03472478163763885
859,-0.042443129608634896
860,-0.034375333335537925
861,-0.01777656325690322
862,-0.0022169215783595974
863,0.007615395595024303
864,0.013379432592049685
865,0.018305390199808452
866,0.02161118556386244
867,0.018064814153025986
868,0.0034142206314453404
869,-0.01947253412748377
870,-0.0399144450314905
871,-0.045635598449050796
872,-0.03131815422723419
873,-0.002816698349950615
874,0.026234997829476074
875,0.04289437505952054
876,0.04242145303406255
877,0.029960808067924193
878,0.01595881292510407
879,0.009084295960928818
880,0.011576250214841339
881,0.019676399495415546
882,0.028013099682271662
883,0.034163965777311366
884,0.03986358944157446
885,0.04816487026716103
886,0.0591779377159648
887,0.06825040842142366
888,0.06855168139241263
889,0.056376115953484275
890,0.03500956807052191
891,0.013823261069673912
892,0.002842194396388573
893,0.006541031906326764
894,0.02123432465884794
895,0.03770949371270947
896,0.046947610578176716
897,0.04487321783667021
898,0.03332790525416081
899,0.017541507265052696
900,0.0026895318587218577
901,-0.007961478551076533
902,-0.012803813813282657
903,-0.010935078352091607
904,-0.00213074600781658
905,0.012055062323035097
906,0.027436626461932987
907,0.03812798651526155
908,0.03931454970386378
909,0.0301084609367009
910,0.014286470613170026
911,-0.0018317697245817852
912,-0.012897523764778599
913,-0.016911533189847793
914,-0.01498031429837443
915,-0.009197419293498463
916,-0.000840857631731537
917,0.009539564883056437
918,0.02061118145795624
919,0.029283222010289954
920,0.031739681601479844
921,0.025958746230668572
922,0.0136315175849584
923,-0.00023266525519285205
924,-0.009790385462775353
925,-0.011098431235964466
926,-0.003441336287590903
927,0.010843057653141211
928,0.027018698738900747
929,0.03858187648166742
930,0.038668685470437184
931,0.0231161039579075
932,-0.005886481161525024
933,-0.038736440689720736
934,-0.06252669756033732
935,-0.06891704292347041
936,-0.06014517150216048
937,-0.04765471433515116
938,-0.04343964997264201
939,-0.050971144565955126
940,-0.0638516441240723
941,-0.07378657123805325
942,-0.08037353126791169
943,-0.09243627245262814
944,-0.11801118636805803
945,-0.15163510719634588
946,-0.17211973612477482
947,-0.15586446536903564
948,-0.09628856501304371
949,-0.012587330054785182
950,0.06132262918319398
951,0.1000012815601306
952,0.10323443249471576
953,0.09296183560791763
954,0.09388166932017045
955,0.11455099305150668
956,0.14391616354495496
957,0.16377159828253035
958,0.16447402921248996
959,0.15074300111862077
960,0.13518006649412928
961,0.12776262839496255
962,0.13054932948097273
963,0.13946256531323378
964,0.148346470376873
965,0.15092841024350626
966,0.14135368626571998
967,0.11639479174026564
968,0.07925023101333556
969,0.04059161191595982
970,0.013449530561524266
971,0.004698578337659168
972,0.010536294426393039
973,0.020514148413169703
974,0.026491398129988162
975,0.02785651362347126
976,0.02823104390378022
977,0.02794753692269296
978,0.021263871244678587
979,0.0022510820390589767
980,-0.026421541992860623
981,-0.051656187749605856
982,-0.058592946467541186
983,-0.042713859248324854
984,-0.014245737288774502
985,0.009468677977710616
986,0.016910724331585143
987,0.009440873556231834
988,-0.002608092719904984
989,-0.009701357945402413
990,-0.009420467250524962
991,-0.005037217109609788
992,-0.00015574938557721984
993,0.0040588040339569285
994,0.007115266435322526
995,0.006777704124291977
996,0.000264119145030784
997,-0.011726920437642832
998,-0.02317307968394452
999,-0.026293530475010887
1000,-0.017791791382066033
1001,-0.0016529009489014632
1002,0.014471183771439996
1003,0.02581160572703901
1004,0.033674604107944726
1005,0.04269166500302515
1006,0.05557037630504636
1007,0.07067602325636999
1008,0.08401942953437785
1009,0.09270429723941943
1010,0.09684691255832872
1011,0.10068057997845672
1012,0.11515439145789892
1013,0.1603594333255821
1014,0.2608671600232419
1015,0.4288397675552029
1016,0.6409506000242855
1017,0.8269944551502597
1018,0.8873506696754778
1019,0.7388576460314265
1020,0.3655430612804671
1021,-0.15878830343599776
1022,-0.69460677567727
1023,-1.096277323249479
1024,-1.2732430273833615
1025,-1.21929182944415
1026,-0.9987973346598928
1027,-0.705310604302489
1028,-0.419928970492931
1029,-0.18935346023236924
1030,-0.026316631380811802
1031,0.07767651407876637
1032,0.1388722644739675
1033,0.17265053862347463
1034,0.18964973344880354
1035,0.19504679531112945
1036,0.1903605060002813
1037,0.17708626506614608
1038,0.1598805649737023
1039,0.14640926400882062
1040,0.14325289527338758
1041,0.1509522435793241
1042,0.16276941343361254
1043,0.16911004398875296
1044,0.16474377778781443
1045,0.1531599976125334
1046,0.14421310817016342
1047,0.14636056708399614
1048,0.15920164218512578
1049,0.17219802549911983
1050,0.17115506313511053
1051,0.14833495565365057
1052,0.10906642464782655
1053,0.0697017471061957
1054,0.047624241651947195
1055,0.04979190691169144
1056,0.06780526158124126
1057,0.08326020367766981
1058,0.07991422790843325
1059,0.05422062698940928
1060,0.016967041050861224
1061,-0.014661076875835117
1062,-0.02836406439071671
1063,-0.023272446632170634
1064,-0.00804618330965028
1065,0.006513228171157593
1066,0.013984445620164907
1067,0.013799456931411965
1068,0.008524651379524541
1069,0.0008914989411448293
1070,-0.006718893529724107
1071,-0.011196370912241616
1072,-0.008792327382048642
1073,0.0024598687580310603
1074,0.01999788519898499
1075,0.036812816076839144
1076,0.04523298951220105
1077,0.0417329710701463
1078,0.02885571925734099
1079,0.012777155010083491
1080,-0.0011085649178636469
1081,-0.010653611803240943
1082,-0.015793433444158858
1083,-0.015867131025443813
1084,-0.009003847052882312
1085,0.005274117753232851
1086,0.022990034828010895
1087,0.03616479140601448
1088,0.037622446906169935
1089,0.02639036611983685
1090,0.00866585985641169
1091,-0.006852338053683991
1092,-0.015056472844468828
1093,-0.01631515709092752
1094,-0.012904264558147142
1095,-0.004580461383764934
1096,0.011143405195396805
1097,0.03387508554125629
1098,0.056432925154926414
1099,0.06804016625277656
1100,0.06322270678786233
1101,0.04798112137261727
1102,0.036191819514028244
1103,0.03867585628703301
1104,0.055379960456909724
1105,0.0784646610771855
1106,0.1025528550956454
1107,0.13009638157126963
1108,0.16482997560992624
1109,0.20070598217962815
1110,0.2219428603132092
1111,0.22047751778790492
1112,0.21673311806381657
1113,0.25881818403777473
1114,0.38886174393021694
1115,0.5953097879650902
1116,0.7902901919913092
1117,0.8400843864483081
1118,0.6388910563044343
1119,0.18051810737717183
1120,-0.4211576359862316
1121,-0.9796261233008255
1122,-1.323189704818513
1123,-1.3705670179172085
1124,-1.154507647517017
1125,-0.7885735877578991
1126,-0.40456059775369146
1127,-0.09774204371513491
1128,0.09633889505245827
1129,0.19235240131235937
1130,0.2280710536751456
1131,0.23821466556610993
1132,0.24106427775063108
1133,0.23953147634477706
1134,0.23058759827925296
1135,0.21435269588594114
1136,0.19678559578305876
1137,0.1855683969263327
1138,0.1837382070942511
1139,0.18670684909429688
1140,0.18509798106046063
1141,0.17111349388543506
1142,0.14366844889808306
1143,0.10892973164934908
1144,0.07652179624109279
1145,0.05441552489596916
1146,0.0456124758017816
1147,0.0478419068199593
1148,0.05553615898719909
1149,0.06257647510012014
1150,0.06457109358876953
1151,0.05999592232542232
1152,0.050023609344822466
1153,0.03736376554446828
1154,0.02488170903984243
1155,0.014791340612460659
1156,0.008632367978107132
1157,0.007493436253812851
1158,0.011783698934375964
1159,0.02050859421605377
1160,0.03081848052185235
1161,0.03867424519989426
1162,0.040635027834913115
1163,0.035769808832726346
1164,0.026427253484648708
1165,0.01725986542455927
1166,0.012928769426315904
1167,0.01564780449890523
1168,0.02388051121531886
1169,0.033072130643334544
1170,0.038293182867874545
1171,0.03735698701777144
1172,0.03222516404688644
1173,0.027364987042300247
1174,0.026096701764013953
1175,0.028007016016871503
1176,0.029930571522668988
1177,0.029702518705977683
1178,0.02882414581202862
1179,0.03084826610570666
1180,0.03672689441427307
1181,0.042226963342435975
1182,0.04119494821232232
1183,0.03240460242621453
1184,0.02302753653656328
1185,0.02409009851767718
1186,0.041208865586227744
1187,0.06937452581725159
1188,0.0971424711872437
1189,0.11610524306491225
1190,0.1259829373244964
1191,0.130583179165408
1192,0.13032193637025324
1193,0.12113419284224378
1194,0.10195571671779229
1195,0.08166433410978205
1196,0.07505611605107328
1197,0.08938038046289434
1198,0.11553873125058717
1199,0.1356641799417005
1200,0.14141295654648456
1201,0.14324141639727006
1202,0.15799564802352614
1203,0.18613658173910846
1204,0.20559990144490314
1205,0.19608302488340879
1206,0.17432760143333875
1207,0.2012765216814023
1208,0.340860820834546
1209,0.5953901712448136
1210,0.8721725940316146
1211,1.0182678602867266
1212,0.9066208838647007
1213,0.5137633779907673
1214,-0.06485895596467055
1215,-0.6671391081734266
1216,-1.1415302483605647
1217,-1.398940917390397
1218,-1.4207383693866784
1219,-1.2402432323123707
1220,-0.9233081397671048
1221,-0.5552390002307945
1222,-0.22383504272554952
1223,0.007389671881327456
1224,0.12318967326826002
1225,0.15721447540836714
1226,0.1641114440787364
1227,0.18257390169638152
1228,0.21714276048785214
1229,0.24938307906460527
1230,0.26318333720310794
1231,0.25940779527008506
1232,0.24952438909960867
1233,0.23974814501639602
1234,0.2245363592870037
1235,0.1955914278719648
1236,0.15503047280566604
1237,0.11747778632929015
1238,0.09830509822171773
1239,0.0999482867896954
1240,0.10996659662492048
1241,0.11242271038513661
1242,0.10127459074224866
1243,0.08347002973027899
1244,0.0702183326942636
1245,0.06599499830190875
1246,0.06568182549113026
1247,0.061273565153869114
1248,0.05046604691991454
1249,0.0387537788250999
1250,0.03390916856507905
1251,0.03898971673573305
1252,0.05048277555491126
1253,0.062397964337828155
1254,0.07146442020210383
1255,0.07844902214227245
1256,0.08530295984565464
1257,0.09206355305988127
1258,0.09701603191598315
1259,0.09951722787411997
1260,0.10174246365097489
1261,0.10676297638473008
1262,0.11449251294518112
1263,0.11976760414177667
1264,0.1152257011469321
1265,0.09717005487567945
1266,0.06955548114477916
1267,0.042506127220580725
1268,0.026220586400893493
1269,0.024784515538058972
1270,0.03428615839536103
1271,0.04614908312303787
1272,0.05283853531957645
1273,0.051888151658278196
1274,0.045971051506403376
1275,0.039742452498295396
1276,0.036194994582357684
1277,0.0351666408105637
1278,0.03477198921847092
1279,0.034247235770435036
1280,0.035576774453357926
1281,0.04220776034894265
1282,0.055629370709503995
1283,0.07270741012653986
1284,0.08646868876745131
1285,0.09033061171340678
1286,0.08269755368908147
1287,0.06819735917046013
1288,0.05444787478804776
1289,0.04694231508687279
1290,0.04610128732828757
1291,0.048449774660081386
1292,0.05025066880048077
1293,0.0501436228642413
1294,0.04886217972332722
1295,0.047140069027818005
1296,0.04440667086169142
1297,0.03956803934590085
1298,0.03274087502625585
1299,0.025867549143210856
1300,0.021496152603633828
1301,0.020994290262072075
1302,0.023914006806524415
1303,0.028824824998879416
1304,0.03439013718299567
1305,0.03950243581270084
1306,0.04272067595718816
1307,0.04228130868078716
1308,0.03729565113782836
1309,0.029128997438716005
1310,0.021326371772662563
1311,0.017708834585577635
1312,0.0201417732818154
1313,0.027861156013814788
1314,0.0386025594010694
1315,0.04993103686354943
1316,0.05930642530289633
1317,0.06347415141130247
1318,0.05921180257625632
1319,0.04611542983737342
1320,0.02904258687556225
1321,0.016715491451266197
1322,0.016060808105469223
1323,0.02668788155274118
1324,0.041156267140884134
1325,0.05186052482276844
1326,0.05847831564404393
1327,0.06830051384508083
1328,0.08824853124214432
1329,0.11622702865599374
1330,0.14123334547214494
1331,0.15328197372309427
1332,0.15352381606457524
1333,0.15358310605750103
1334,0.16401833342150385
1335,0.18444183579315218
1336,0.20795797484580786
1337,0.23761930892904695
1338,0.2965391213587143
1339,0.414158187337737
1340,0.592102981417381
1341,0.7765372021500527
1342,0.8665464449085403
1343,0.7634119593489554
1344,0.43222330257574026
1345,-0.06647069086161826
1346,-0.598520335881743
1347,-1.018268017995263
1348,-1.2316976859527093
1349,-1.2250918824593848
1350,-1.0506578188349798
1351,-0.7879161009572173
1352,-0.5081535064900943
1353,-0.2578755487329071
1354,-0.05976186253503976
1355,0.07969360655764945
1356,0.16439621466569493
1357,0.20591655397215364
1358,0.22060750513831862
1359,0.22448197400642594
1360,0.2274204922690076
1361,0.23033072110472375
1362,0.22757433372636435
1363,0.21346361800218353
1364,0.1885241698298996
1365,0.16089489455687178
1366,0.1414041932238012
1367,0.13568741366269482
1368,0.13950743543922317
1369,0.14141636046032857
1370,0.13109032862907286
1371,0.10682146056054789
1372,0.07623900887519898
1373,0.05010151967534838
1374,0.034773417687740504
1375,0.029489922618556257
1376,0.029549050386594097
1377,0.031230062048610487
1378,0.03363582146849293
1379,0.036780956130250515
1380,0.039303163239910226
1381,0.038929024866620136
1382,0.035052980624573654
1383,0.030075211499763405
1384,0.027579786793478556
1385,0.029204391474536344
1386,0.033677296059258316
1387,0.039025303346707535
1388,0.045216401388946045
1389,0.053871999475216106
1390,0.06506651139997113
1391,0.07491467467590135
1392,0.07735804256877873
1393,0.06927443431390916
1394,0.054175865359669596
1395,0.040555268533003334
1396,0.03586335053565383
1397,0.041298943555755085
1398,0.051879294781192804
1399,0.06134277305797171
1400,0.06716558050742859
1401,0.07136799928803314
1402,0.07712816476272259
1403,0.08504621103399326
1404,0.09261967659713537
1405,0.09684984647094527
1406,0.0968612381394705
1407,0.09392996390879102
1408,0.08943051985153849
1409,0.08337453571837203
1410,0.07519000999669029
1411,0.06553049680089229
1412,0.05655153670294018
1413,0.049860287253638974
1414,0.044301073031845085
1415,0.03647274185611589
1416,0.02423977504354629
1417,0.010066426133836775
1418,0.000511345717362783
1419,0.0015842928206063695
1420,0.01376648002460307
1421,0.031170480139002324
1422,0.045673955425357175
1423,0.05235991123141478
1424,0.051653255532573696
1425,0.04701569914419272
1426,0.04131670410440165
1427,0.035692004036304896
1428,0.0313248318888254
1429,0.03100511553372653
1430,0.03760454629460648
1431,0.05051612053227928
1432,0.06420859958670044
1433,0.07151399270103086
1434,0.06929264964587517
1435,0.06099945347470841
1436,0.05320669902757845
1437,0.04921880745331976
1438,0.046267475065504805
1439,0.03946688018177749
1440,0.028650687416701882
1441,0.020658530559801207
1442,0.023755239421185473
1443,0.039014287007433354
1444,0.057405697131848385
1445,0.06645217113561917
1446,0.0609144142670126
1447,0.04735374970733809
1448,0.03772721855772669
1449,0.037757915185510846
1450,0.041355802547442144
1451,0.03695257992509705
1452,0.02003049790060352
1453,-0.00041527467993930775
1454,-0.008475188100920811
1455,0.0044489389430213255
1456,0.03091873043887248
1457,0.05267393219068586
1458,0.055397394688512853
1459,0.03986425300303217
1460,0.019903666244385713
1461,0.009909487633468056
1462,0.013734177597005372
1463,0.024297652762161302
1464,0.03235071410356968
1465,0.03468244654248508
1466,0.034263204105381286
1467,0.03407097687559553
1468,0.03255273313836611
1469,0.02576289584883393
1470,0.013207509917004359
1471,0.0004016676136049391
1472,-0.004826961676381327
1473,0.0017327604714281915
1474,0.01850265254740373
1475,0.04089989606755497
1476,0.06487855806334636
1477,0.08741695009134147
1478,0.10524271111441948
1479,0.1158165830409604
1480,0.12089861232766526
1481,0.1275929379830564
1482,0.14276800526272704
1483,0.16509051394714444
1484,0.18518204902006324
1485,0.19873784596050403
1486,0.22238104342627535
1487,0.292931124494715
1488,0.44076878228263966
1489,0.6521328427513364
1490,0.8518214405279394
1491,0.9283503928996529
1492,0.7922767284665385
1493,0.43063953434579627
1494,-0.07934660241437475
1495,-0.6055487738293399
1496,-1.020077013022739
1497,-1.2458013456715389
1498,-1.2695874911668823
1499,-1.12741491689316
1500,-0.8801795586716444
1501,-0.5939718135128796
1502,-0.32641916808421456
1503,-0.11567821041980965
1504,0.026799395428219592
1505,0.1140340567524358
1506,0.16999256279065955
1507,0.2124339260025206
1508,0.2442565083811713
1509,0.25881913589597916
1510,0.2525959714696202
1511,0.2326514884252646
1512,0.2123765174933552
1513,0.20057526270923773
1514,0.19494963358634082
1515,0.18605133785084305
1516,0.16741619363055943
1517,0.1420678714941188
1518,0.11963969394994556
1519,0.10739639329429468
1520,0.10369202410494782
1521,0.09951540510780266
1522,0.08622002693067146
1523,0.062485650628776
1524,0.03501974147663377
1525,0.013293119298108568
1526,0.003206057552177442
1527,0.0044509533595546566
1528,0.01252223100734572
1529,0.02266248380341713
1530,0.03238451513172902
1531,0.041296160577616675
1532,0.04938104297657299
1533,0.05566777206271624
1534,0.0583064219642424
1535,0.05576415327494522
1536,0.048226998781668834
1537,0.03836969175433144
1538,0.030927390007532883
1539,0.030844663423824782
1540,0.04048912049958145
1541,0.057425614183690805
1542,0.07466014301311753
1543,0.08411067681733828
1544,0.08165349315894943
1545,0.07029600961273613
1546,0.05876830351163219
1547,0.05603871822633306
1548,0.06550145552541752
1549,0.08301070435224851
1550,0.09999679552884319
1551,0.1090198300914106
1552,0.1075618620495406
1553,0.09776931552594931
1554,0.08330366572634171
1555,0.06641079450004317
1556,0.04743167469161423
1557,0.026524816239725933
1558,0.005645259404004742
1559,-0.011050241823691066
1560,-0.01885185884727033
1561,-0.015328203333478648
1562,-0.002721371291211864
1563,0.011816426988448394
1564,0.01913459297311644
1565,0.013320999040941231
1566,-0.0037692272258055934
1567,-0.022406160377364544
1568,-0.030587614306438894
1569,-0.022142671374776463
1570,-0.0012665830237093894
1571,0.020555521157802056
1572,0.03322104160558591
1573,0.035253204435436794
1574,0.03351656362738449
1575,0.03586603827206922
1576,0.04356530050441301
1577,0.05044425100051821
1578,0.049366914484219926
1579,0.03968627617197611
1580,0.028576918810460143
1581,0.02511907198633905
1582,0.03282360183310055
1583,0.047353492105601656
1584,0.060826096939262976
1585,0.06792870150250033
1586,0.06820909953054857
1587,0.06362178908163818
1588,0.05532245067342106
1589,0.04364909590838151
1590,0.03072828998654706
1591,0.021578582964788415
1592,0.02111917590452613
1593,0.029453103856893224
1594,0.04049509504088933
1595,0.046106182673818843
1596,0.04223803168055243
1597,0.031306335342451266
1598,0.018791325280190493
1599,0.008001754079086074
1600,-0.0013998782082502081
1601,-0.010020170877525478
1602,-0.015136153969477876
1603,-0.011915184265823196
1604,0.001160271384505592
1605,0.018738903679040575
1606,0.0317435631448343
1607,0.03484714190461494
1608,0.030636114771517155
1609,0.025869364785802682
1610,0.023949385055565105
1611,0.02241445655863175
1612,0.018864697042661187
1613,0.01842543793197804
1614,0.03244298013754578
1615,0.0669689119352674
1616,0.11226146354530461
1617,0.14649086941965556
1618,0.15355526998291175
1619,0.13885742050809646
1620,0.1259832296832999
1621,0.13525958353263706
1622,0.16520850851825403
1623,0.19793528973525587
1624,0.22602118003484767
1625,0.2732365424354416
1626,0.38146776215253086
1627,0.5661048465996756
1628,0.7759547557263058
1629,0.8982746488463907
1630,0.8164920194726599
1631,0.48430425338516025
1632,-0.03660561136714032
1633,-0.6022650215854191
1634,-1.0565810841616137
1635,-1.2988360163806654
1636,-1.3108579826519033
1637,-1.1401544433759847
1638,-0.8630114892686443
1639,-0.5539244391659495
1640,-0.2710142092804797
1641,-0.05155464917172795
1642,0.09001693413274722
1643,0.16177819500584006
1644,0.1876300574341092
1645,0.19445568918671652
1646,0.20001025929256822
1647,0.20884197655568515
1648,0.21689099378128124
1649,0.21882444961697617
1650,0.21206164450493253
1651,0.1966478681352351
1652,0.17421556992994253
1653,0.1482849408453577
1654,0.12460052757398904
1655,0.1091650402476751
1656,0.10445398276327439
1657,0.10724912088023611
1658,0.11065560653027774
1659,0.1088266846268382
1660,0.10021921323586666
1661,0.08688249973044174
1662,0.07141843687823396
1663,0.05522943580275922
1664,0.039485789023764935
1665,0.026675950937924804
1666,0.01990431760668314
1667,0.02006514337138094
1668,0.02408948132518851
1669,0.02683524416293981
1670,0.02527624878854462
1671,0.020785627578971864
1672,0.016963340038121298
1673,0.015181667258294854
1674,0.01276015600674514
1675,0.0061695779468546
1676,-0.003797097196792
1677,-0.010622577284479788
1678,-0.006854569079154698
1679,0.008817318512630016
1680,0.0290338139925575
1681,0.042828427970753175
1682,0.04418313072458412
1683,0.03645563650611545
1684,0.02875983929261022
1685,0.027836699303639644
1686,0.03296175833470469
1687,0.038182403162725684
1688,0.039005404110005824
1689,0.03665053650191767
1690,0.03590681490258346
1691,0.03927774032419337
1692,0.04372478392635877
1693,0.043448895095048234
1694,0.03591496038746228
1695,0.025067192548949027
1696,0.01851723660881815
1697,0.021373154754631606
1698,0.03243978747695764
1699,0.04596609739831648
1700,0.05676359546486885
1701,0.06366993501789942
1702,0.06847905576181475
1703,0.07212766421226502
1704,0.07246480438060551
1705,0.06608798090454875
1706,0.05254734876326457
1707,0.03675124533955505
1708,0.026855891643924344
1709,0.028859253960339937
1710,0.04205705535207832
1711,0.05901430837725367
1712,0.07025153855097953
1713,0.07024565801243808
1714,0.06040815152877792
1715,0.04710929658213012
1716,0.03665267339324965
1717,0.03132154811867832
1718,0.029418820348096134
1719,0.028597346320283316
1720,0.028871746040832515
1721,0.032177412726676194
1722,0.038891120760677314
1723,0.04507190382593682
1724,0.04396695390409542
1725,0.031410522876345444
1726,0.010655747494952971
1727,-0.008061552947634392
1728,-0.013722055824275072
1729,-0.0019796995792410654
1730,0.0218622868024966
1731,0.046423163006309345
1732,0.061236875872599704
1733,0.0619138646376787
1734,0.050637254132942844
1735,0.033308857430684825
1736,0.016556176078789925
1737,0.006259613504288507
1738,0.0066935350199003344
1739,0.018893884047671818
1740,0.038835592545444844
1741,0.05779020650862914
1742,0.06626256615123668
1743,0.059645568229659426
1744,0.04140475724984806
1745,0.020901285953741876
1746,0.007144231232081712
1747,0.0031834731034187224
1748,0.005360149380663129
1749,0.007564705936988433
1750,0.006577674078196377
1751,0.003995342613447823
1752,0.0035214664525424896
1753,0.006512906372130093
1754,0.010009503989512152
1755,0.009042632605485296
1756,0.0011236753839956662
1757,-0.011077829535757555
1758,-0.021202306309441803
1759,-0.023563054842763217
1760,-0.016821536635791084
1761,-0.004230161915949327
1762,0.009257359081431092
1763,0.020250880901091853
1764,0.027989932050732386
1765,0.03300908065672083
1766,0.03541089072020652
1767,0.03480847337074707
1768,0.03201114119824833
1769,0.030472799667170286
1770,0.03536945263640483
1771,0.05015776284420511
1772,0.0729454380027485
1773,0.09582787508767768
1774,0.1085734495369082
1775,0.10475286240624126
1776,0.08608747037312894
1777,0.06155812963919585
1778,0.04158971619658795
1779,0.03166404829549213
1780,0.030429790730933656
1781,0.03356921455955361
1782,0.0393243712222852
1783,0.049822122001458746
1784,0.06656397673120013
1785,0.08508482230811358
1786,0.09584443978770146
1787,0.0925768099631959
1788,0.08053579696749816
1789,0.07488196707071491
1790,0.0881249231657886
1791,0.1179164504912712
1792,0.14937093596889986
1793,0.17364233173435256
1794,0.20644986046606212
1795,0.2847655822771469
1796,0.43589566670671265
1797,0.6393176133965937
1798,0.8142725721887845
1799,0.8509963322135299
1800,0.6705489663987907
1801,0.2744207085248941
1802,-0.24924968385280602
1803,-0.7655165426108606
1804,-1.150972263964829
1805,-1.3360412989860917
1806,-1.314445381919909
1807,-1.1271593190493092
1808,-0.8389890855014055
1809,-0.5197121938780234
1810,-0.23037134737761158
1811,-0.011559996691760712
1812,0.12461302638711033
1813,0.19295924421859995
1814,0.22198289636818075
1815,0.23600463675122463
1816,0.2443030558402651
1817,0.24356366680206515
1818,0.2290708724680961
1819,0.20374310457862035
1820,0.17768898325262078
1821,0.16034758397103527
1822,0.15347502875281926
1823,0.15118658884686526
1824,0.1460020810082266
1825,0.13468730821599473
1826,0.1189826256691662
1827,0.10188204418588058
1828,0.08417516180423112
1829,0.06487881339015589
1830,0.04460958825396104
1831,0.02767730489096548
1832,0.01989747283734695
1833,0.023525031271366514
1834,0.03395799340529368
1835,0.04173856633085722
1836,0.03880825653995157
1837,0.02412204701856599
1838,0.0041375366453663435
1839,-0.012002912417274116
1840,-0.018492628544013186
1841,-0.015478126161907928
1842,-0.00708762666149464
1843,0.0024170526640727883
1844,0.01083162104136147
1845,0.017525294791157452
1846,0.022128339350921455
1847,0.024517488332062833
1848,0.026042611580338333
1849,0.030048144486308017
1850,0.040337175230493974
1851,0.0585367655750354
1852,0.08264204718170143
1853,0.10786568200780297
1854,0.12869904866920304
1855,0.14036677030242162
1856,0.13929862628342965
1857,0.12383904107121643
1858,0.09593109295732637
1859,0.06234461925400447
1860,0.03298953648541461
1861,0.01592390973576533
1862,0.0122535855665085
1863,0.015362710418257316
1864,0.015807299358780873
1865,0.008214266837113805
1866,-0.0055038237633609184
1867,-0.01908047482586829
1868,-0.02783410496130251
1869,-0.03191297456454026
1870,-0.034143416451893394
1871,-0.0353210207086543
1872,-0.032288776131328537
1873,-0.02111715162375597
1874,-0.0022525456782492106
1875,0.017798371603921413
1876,0.030475809935349537
1877,0.03156625043658916
1878,0.02432352569673544
1879,0.016685016124235917
1880,0.01532624111743475
1881,0.021780876666104308
1882,0.03331833553937928
1883,0.04656677966038584
1884,0.05973130897891285
1885,0.07152479964727312
1886,0.07891476753097465
1887,0.07722397058093311
1888,0.06353265620030915
1889,0.040430053573392036
1890,0.01605677492318345
1891,-0.0005690740747508645
1892,-0.0055051647907876896
1893,-0.0021266322673460175
1894,0.002297957999458853
1895,0.002632440144792305
1896,-0.0009204631396360439
1897,-0.005153850853232634
1898,-0.008990939683452142
1899,-0.015635856148603557
1900,-0.028673587241773338
1901,-0.045475600547089864
1902,-0.05522475382455243
1903,-0.04566701576720324
1904,-0.014236425561386021
1905,0.026675512061365078
1906,0.05704892617145885
1907,0.06470339227883898
1908,0.055636599773670185
1909,0.049185330115898894
1910,0.06202698063481416
1911,0.09699662707709433
1912,0.14925625230059805
1913,0.2241195396289784
1914,0.3446314459209814
1915,0.5313844202546258
1916,0.7629736233440341
1917,0.9513809262392374
1918,0.9656997130230034
1919,0.7038559985423183
1920,0.16964835509277748
1921,-0.5019301879958706
1922,-1.0978222517884166
1923,-1.430559937654311
1924,-1.4277910271131815
1925,-1.1533184229093063
1926,-0.7539131508832033
1927,-0.37456531771566004
1928,-0.09750181397565129
1929,0.06697029304839622
1930,0.1500196687103178
1931,0.18763981141643585
1932,0.20251187810262328
1933,0.20568275218902454
1934,0.2040942289227518
1935,0.20256902155408654
1936,0.2007793284035969
1937,0.19258264916964948
1938,0.17137275931841145
1939,0.13719685725498726
1940,0.09871320345340559
1941,0.06793702911110491
1942,0.052396138430158445
1943,0.05110211743704077
1944,0.05671312163008842
1945,0.061042799797552734
1946,0.05934814156471679
1947,0.05108554526656874
1948,0.038052269072189254
1949,0.022230758848940754
1950,0.004937128704989508
1951,-0.012589342959436084
1952,-0.02808197085070912
1953,-0.037935291228657256
1954,-0.03860412105106389
1955,-0.02935350211436668
1956,-0.014390910966726633
1957,-0.0019754443646427047
1958,2.8295301503904972e-05
1959,-0.010504147381103715
1960,-0.02797776739870825
1961,-0.042640655350516046
1962,-0.047335622517149886
1963,-0.04214234595985546
1964,-0.03324631579668692
1965,-0.027356717763956533
1966,-0.026748229804433886
1967,-0.02901080422553373
1968,-0.03091946383608615
1969,-0.03208466454415242
1970,-0.03474748868216595
1971,-0.040269840053538425
1972,-0.04623543626801426
1973,-0.04739570725883103
1974,-0.03988665859913213
1975,-0.025029519609500634
1976,-0.009407874036791204
1977,-0.0010801092384826617
1978,-0.0047076773601192135
1979,-0.018818046464988705
1980,-0.036632022249555446
1981,-0.04966269330776421
1982,-0.05201365131220424
1983,-0.04319183085045519
1984,-0.028030225767864472
1985,-0.013792641236828933
1986,-0.0062112978014228545
1987,-0.0069573878389237506
1988,-0.013929300340221723
1989,-0.02340889914362421
1990,-0.03174186255364679
1991,-0.035309067523304344
1992,-0.030078341636375207
1993,-0.012971019593841598
1994,0.014918861597190709
1995,0.04640785158315659
1996,0.07096425656531473
1997,0.08141093657809098
1998,0.07925515344331505
1999,0.07334672159727709
2000,0.07226638844125713
2001,0.077035735229015
2002,0.08092916228208058
2003,0.07655824249011128
2004,0.06333854287883134
2005,0.04815465743271698
2006,0.03893002078828742
2007,0.03777098356061637
2008,0.04020603856169423
2009,0.040260895969880875
2010,0.03534618064084005
2011,0.026507901673333757
2012,0.0163163736188572
2013,0.01012373892380939
2014,0.021585203822155934
2015,0.07497398467569541
2016,0.19510219479213475
2017,0.38511147583088884
2018,0.6058925428099
2019,0.7755731027187687
2020,0.7971085073804498
2021,0.6032687620836008
2022,0.19527629264288288
2023,-0.3466434376095088
2024,-0.8876709792746744
2025,-1.2871063245453538
2026,-1.4499923197765356
2027,-1.359806326930984
2028,-1.0787845836124559
2029,-0.7163523495364061
2030,-0.38078935798040603
2031,-0.13785164611650239
2032,0.003706134764306389
2033,0.07579113046087999
2034,0.11861326961477393
2035,0.15512356813992825
2036,0.186359031662858
2037,0.20395751059968548
2038,0.20427226542214066
2039,0.19174298415478197
2040,0.1723261370707025
2041,0.14719239253562613
2042,0.11417449796761854
2043,0.07425892470033804
2044,0.03456202720533741
2045,0.003729036541827225
2046,-0.015233529186240654
2047,-0.026589589439347465
2048,-0.03618107180838098
2049,-0.04499014612799469
2050,-0.049310980577191604
2051,-0.04709971075301076
2052,-0.042592539283590955
2053,-0.04286734873275845
2054,-0.04931404420903056
2055,-0.053683223573629146
2056,-0.044549839286719864
2057,-0.019068824466095553
2058,0.011640622583087155
2059,0.029849063543411356
2060,0.02540881890556047
2061,0.003970883657281563
2062,-0.018092838136192453
2063,-0.026967639915415592
2064,-0.020721654630674522
2065,-0.007325719868385377
2066,0.004820787331789088
2067,0.013810599156836457
2068,0.022691190440819114
2069,0.032797037501362244
2070,0.03988408994487748
2071,0.03702992736701829
2072,0.020857077409133267
2073,-0.005283457676295585
2074,-0.033695865380469564
2075,-0.05718855804664203
2076,-0.07189986200411647
2077,-0.07703469082637077
2078,-0.07393613253205579
2079,-0.06641446872507276
2080,-0.06100557868992759
2081,-0.06452130818427709
2082,-0.079127109653606
2083,-0.09911836787164974
2084,-0.11353372069749054
2085,-0.11374876014789885
2086,-0.09993986439913377
2087,-0.08050188523243884
2088,-0.06466111564015639
2089,-0.05497232697682508
2090,-0.04670756329193271
2091,-0.034660618193444064
2092,-0.020610787666810428
2093,-0.013657278187483527
2094,-0.022147390499971165
2095,-0.044137181103534415
2096,-0.06556117427167826
2097,-0.06911046573792001
2098,-0.04739159541014301
2099,-0.00956585597752873
2100,0.024526072107783604
2101,0.03854301690867985
2102,0.030909937801809978
2103,0.014231628858607133
2104,0.0037293802173632828
2105,0.004676083159955742
2106,0.009397932117081897
2107,0.005943194588943633
2108,-0.009683293980012725
2109,-0.028827668873501126
2110,-0.03729707588422307
2111,-0.027914962799868402
2112,-0.007259848467985984
2113,0.009482058504630813
2114,0.01104309561520702
2115,-0.0009647886506574386
2116,-0.01422543769646939
2117,-0.016692380179698655
2118,-0.006598914436033125
2119,0.006783334353394895
2120,0.011426928236735568
2121,0.0021231234612729207
2122,-0.016515405293122995
2123,-0.03492691293495197
2124,-0.04599351929327338
2125,-0.04865378321122421
2126,-0.04604619136002129
2127,-0.04151969645295622
2128,-0.036651762270013565
2129,-0.032168844076316705
2130,-0.029405587703461415
2131,-0.02997380547423283
2132,-0.0340018980718943
2133,-0.03927074008985232
2134,-0.04262086690906459
2135,-0.04239142163249397
2136,-0.03942010293047797
2137,-0.035667798322109284
2138,-0.03209479066291847
2139,-0.028153842593710142
2140,-0.02338176225297692
2141,-0.019148356164619414
2142,-0.018328335214572583
2143,-0.02285600802979182
2144,-0.03149012895539237
2145,-0.04013424303035621
2146,-0.04465286512463516
2147,-0.0437194144291241
2148,-0.03922651130059317
2149,-0.03413203943985761
2150,-0.02994844223423293
2151,-0.026172050589874093
2152,-0.021863203631501876
2153,-0.017491002136090037
2154,-0.015060826883635761
2155,-0.01639182927635253
2156,-0.02127457071789309
2157,-0.027319769728464453
2158,-0.03164005078245163
2159,-0.032796629398335365
2160,-0.03133493859837698
2161,-0.028735791175227548
2162,-0.026154942057529884
2163,-0.024340083909550503
2164,-0.024583534915949546
2165,-0.029107841124007036
2166,-0.039586748075628134
2167,-0.054566745001731747
2168,-0.06840203124800359
2169,-0.07376624670168426
2170,-0.06675444759057961
2171,-0.05061409627082704
2172,-0.03436902448900085
2173,-0.02655851005928532
2174,-0.02883896811863439
2175,-0.03495601211819249
2176,-0.03628151542159728
2177,-0.029243393404857043
2178,-0.018033562544114336
2179,-0.010164441256773949
2180,-0.009123709255343206
2181,-0.011209067284862866
2182,-0.009663837199170487
2183,-0.0021070940510984452
2184,0.006128326005862075
2185,0.006326708453547398
2186,-0.0054451979650713975
2187,-0.023984579757597158
2188,-0.03855164658482979
2189,-0.04119234951782658
2190,-0.03243854526120277
2191,-0.019881466646947947
2192,-0.011744961390155793
2193,-0.011476161358929803
2194,-0.017283046775399616
2195,-0.025376347967729408
2196,-0.032882035656084024
2197,-0.0381903211381814
2198,-0.04002385364479591
2199,-0.037542107754468465
2200,-0.031608614927199505
2201,-0.025123868207651046
2202,-0.02110652841348804
2203,-0.020142961213646636
2204,-0.02018681566319582
2205,-0.01939209816641794
2206,-0.0190180451609915
2207,-0.02276113357392441
2208,-0.03246776344269023
2209,-0.044487672487121266
2210,-0.05108583324390506
2211,-0.04659026160659092
2212,-0.03288452940593489
2213,-0.018806667555510193
2214,-0.013461075827568142
2215,-0.01922027409066804
2216,-0.030590875589250992
2217,-0.03967567848233619
2218,-0.042940555377279546
2219,-0.04312708918354466
2220,-0.04504504742216639
2221,-0.049733883861596814
2222,-0.052679881740845716
2223,-0.047658627258796174
2224,-0.03256705949989626
2225,-0.012100158111211847
2226,0.004803011978649209
2227,0.010460631945439357
2228,0.002801616405969638
2229,-0.013908890910032928
2230,-0.031594536671185336
2231,-0.042189018671331985
2232,-0.041020297205472095
2233,-0.02881160642836093
2234,-0.011684373986069179
2235,0.0012512049781277842
2236,0.0022209461125737686
2237,-0.010935721926276766
2238,-0.03316040493808484
2239,-0.054616354077979504
2240,-0.06594508529183737
2241,-0.06312886745972277
2242,-0.04902470178391284
2243,-0.03095506001759819
2244,-0.016281527057351017
2245,-0.00884342953505858
2246,-0.008109688677733772
2247,-0.010911601486508896
2248,-0.014128075963393692
2249,-0.016474343558042726
2250,-0.018473170620157502
2251,-0.021036448914862248
2252,-0.02399733151233818
2253,-0.025841610569399848
2254,-0.024859128562531366
2255,-0.020753958165213034
2256,-0.015373697857203644
2257,-0.011960648024365042
2258,-0.013479867822113368
2259,-0.02108394092472305
2260,-0.03333677106812066
2261,-0.046212091933943544
2262,-0.05391967763012026
2263,-0.050984624188840956
2264,-0.03553199686958322
2265,-0.01208931632963997
2266,0.008968707759202044
2267,0.01673866607560305
2268,0.007232501924156165
2269,-0.012872165597897658
2270,-0.030379219372098476
2271,-0.03547068826496097
2272,-0.02939852359123112
2273,-0.02283775264413315
2274,-0.02568519861330332
2275,-0.03731821132572414
2276,-0.04669963943599868
2277,-0.042930291396354125
2278,-0.02669786131055206
2279,-0.011462628901299392
2280,-0.012362739387141386
2281,-0.03244092100880014
2282,-0.05875273460003158
2283,-0.07216035318808642
2284,-0.0622861217485948
2285,-0.03477260575119495
2286,-0.005427740141335219
2287,0.012425780099224869
2288,0.016068388247276105
2289,0.01126499726041778
2290,0.004084039275907239
2291,-0.004660369281265233
2292,-0.017850782545312922
2293,-0.036464525199818174
2294,-0.05626157085073054
2295,-0.06981283991620045
2296,-0.0715054750472996
2297,-0.061129468809585724
2298,-0.04393339179228667
2299,-0.028135994735913574
2300,-0.021643098866098075
2301,-0.02870517186616741
2302,-0.04705828258903571
2303,-0.06732268435960166
2304,-0.07670330200347783
2305,-0.06630491401038813
2306,-0.03741696391283519
2307,-0.0013731234064473614
2308,0.027867671198347006
2309,0.0429101161123847
2310,0.04639778169655943
2311,0.04622272037820101
2312,0.047424516502965794
2313,0.04853088443633394
2314,0.0453066025895733
2315,0.03723929490808982
2316,0.029356381317918505
2317,0.027034204146188855
2318,0.029205153876731466
2319,0.027692194629496986
2320,0.014515463376432766
2321,-0.009423036660954993
2322,-0.03318090974375861
2323,-0.044311871939446176
2324,-0.03968047194633835
2325,-0.02825394630914895
2326,-0.022797884222298496
2327,-0.02815327405777103
2328,-0.03746669831742615
2329,-0.04025160527249101
2330,-0.03439531440029257
2331,-0.029879087116036013
2332,-0.039890481330003266
2333,-0.0677584846902757
2334,-0.1028522699504707
2335,-0.12991336728422676
2336,-0.14257498462241558
2337,-0.14728752658773975
2338,-0.1539052744107238
2339,-0.16379747335773812
2340,-0.16963124740489288
2341,-0.16809358958574072
2342,-0.17063308686138706
2343,-0.1962256828656459
2344,-0.2482511476107177
2345,-0.29777522318786176
2346,-0.295358199958359
2347,-0.2088257583264705
2348,-0.05682156130183145
2349,0.0944309479074195
2350,0.1745764664492908
2351,0.1600372255522074
2352,0.09027447664182225
2353,0.035311106950511144
2354,0.04163412226015161
2355,0.10098010363183868
2356,0.16497261997461427
2357,0.1887455333195472
2358,0.16475099132817256
2359,0.12138907673807792
2360,0.09416209167537908
2361,0.09822742031703172
2362,0.12385558839943756
2363,0.15200223299168153
2364,0.17095809427870656
2365,0.17977225434981048
2366,0.18063925933296038
2367,0.17226242827163385
2368,0.15141392826776445
2369,0.1188662950264173
2370,0.08153004143777381
2371,0.048235758770012765
2372,0.024078371971438424
2373,0.008974609989362961
2374,0.00045633975677805564
2375,-0.0037599663019109294
2376,-0.006218092036004443
2377,-0.011102517985360638
2378,-0.022917928431342376
2379,-0.04249304036151376
2380,-0.06450837443952877
2381,-0.08007865093813504
2382,-0.08285989371724967
2383,-0.07334849244131793
2384,-0.057726236587979894
2385,-0.042891491706672974
2386,-0.032538891711986796
2387,-0.02723356457203817
2388,-0.026916774752000855
2389,-0.032127252425936365
2390,-0.04236314086325232
2391,-0.0537290491403492
2392,-0.05926650661632245
2393,-0.05294210270625466
2394,-0.03459558691134064
2395,-0.0116291917070637
2396,0.004751079115304178
2397,0.0067926805781046064
2398,-0.004173858157813636
2399,-0.018395868374440703
2400,-0.024849031187498684
2401,-0.019538494150111753
2402,-0.00780954609708285
2403,0.001849372643895687
2404,0.007034829617317457
2405,0.014366168451299604
2406,0.032171627300438606
2407,0.05966789797093634
2408,0.08461455066743934
2409,0.09408187355704192
2410,0.08876128821424221
2411,0.08508978628037947
2412,0.10023148503351922
2413,0.13389268910939436
2414,0.1679265771298615
2415,0.18892704715671105
2416,0.2132459258091936
2417,0.2847409508606306
2418,0.43687268593148915
2419,0.6462336317047206
2420,0.8203050143309614
2421,0.8393370792844701
2422,0.6277796754261242
2423,0.20395053491921675
2424,-0.3275677646858409
2425,-0.8316887140100865
2426,-1.2036666568877548
2427,-1.3964893572519297
2428,-1.410462430157706
2429,-1.2700900955784045
2430,-1.0129366429093345
2431,-0.6916551773079369
2432,-0.3718999675435805
2433,-0.11430517291443398
2434,0.050408558006384836
2435,0.13214572064088348
2436,0.16719251209599062
2437,0.19007654989748285
2438,0.21385868066854857
2439,0.2316845421254323
2440,0.23297083151953984
2441,0.21718297873637438
2442,0.19453345432965077
2443,0.1769172575404253
2444,0.1696744459979153
2445,0.1705854912424909
2446,0.174121750223382
2447,0.17557553704967055
2448,0.172646059069181
2449,0.1656917402039691
2450,0.1577203687055411
2451,0.15304542113319836
2452,0.15379950545612897
2453,0.15665173607631183
2454,0.1537534635601605
2455,0.1387090961707625
2456,0.11280939945399605
2457,0.08517700381763274
2458,0.06560994827601666
2459,0.05615561823294196
2460,0.04929272347300101
2461,0.034689887730912194
2462,0.008472136214505155
2463,-0.023324251092830116
2464,-0.049791796670071345
2465,-0.06357413559609523
2466,-0.06512829406658519
2467,-0.06001721402882762
2468,-0.05308550139255713
2469,-0.045446696861920786
2470,-0.03637403055220631
2471,-0.026965445600947036
2472,-0.02109578900154083
2473,-0.022471845197167734
2474,-0.0307608469756757
2475,-0.04067438544611491
2476,-0.045083052899060436
2477,-0.03971158876010674
2478,-0.025857518200191852
2479,-0.009393343926787085
2480,0.0028924972046212656
2481,0.006992663300339621
2482,0.0032099343020443438
2483,-0.004991292285619295
2484,-0.013592926135579598
2485,-0.020122736223214505
2486,-0.023936995450954575
2487,-0.02500678091544361
2488,-0.022860028824961312
2489,-0.01707788984570897
2490,-0.00894220044994943
2491,-0.0022069170391584817
2492,-0.001430579829512709
2493,-0.008754537001037718
2494,-0.02197917790814858
2495,-0.035908783326351244
2496,-0.04577515163845161
2497,-0.049462145433145636
2498,-0.04676796234735528
2499,-0.037539579393459005
2500,-0.02189508866092002
2501,-0.0027902339286998415
2502,0.01290259422059877
2503,0.018375784193350755
2504,0.013804978076933677
2505,0.008839382366214638
2506,0.01566598762458847
2507,0.03724598492266018
2508,0.06257990641704184
2509,0.07625991996995723
2510,0.07516645083174764
2511,0.07512464765919731
2512,0.0973855459913894
2513,0.1452418866843366
2514,0.19522357511614288
2515,0.21780465423947304
2516,0.21392343571199046
2517,0.2318631323442105
2518,0.33846484887144124
2519,0.5566731770135699
2520,0.8168745698861959
2521,0.968810334222906
2522,0.8593105359995807
2523,0.4297237900807085
2524,-0.23275972095243103
2525,-0.9268347661911659
2526,-1.4332419217108279
2527,-1.6161411719500247
2528,-1.4723633878856344
2529,-1.1094578386803207
2530,-0.6773126909062823
2531,-0.298478989652013
2532,-0.03175161627815549
2533,0.12374322328165382
2534,0.20005858034450946
2535,0.2309243790372897
2536,0.23682567768328244
2537,0.22640014924243526
2538,0.2054537879668718
2539,0.18291052066026692
2540,0.16875271966116345
2541,0.1672211866848389
2542,0.17281664328305746
2543,0.17386164501075502
2544,0.1612653362962416
2545,0.13519353328189762
2546,0.10414215794622933
2547,0.07773353366127181
2548,0.05993613173458893
2549,0.048350055511429124
2550,0.03902517026125183
2551,0.03119151997234118
2552,0.027116061553442834
2553,0.02779816796463601
2554,0.029609643431500805
2555,0.02594089009857666
2556,0.012743520465473099
2557,-0.0071535537415938965
2558,-0.02509780453838566
2559,-0.03238258759337627
2560,-0.026092611425107683
2561,-0.01064207719857811
2562,0.005590407823049518
2563,0.01544290621792526
2564,0.016215534077805474
2565,0.00946957076349024
2566,-0.0013737088151308421
2567,-0.01329165873349886
2568,-0.024328993867186496
2569,-0.032905691823467836
2570,-0.037055236673415246
2571,-0.03474645527344053
2572,-0.02538458689909133
2573,-0.011387342903450877
2574,0.00174276581631459
2575,0.0076470155618097325
2576,0.002699850481432176
2577,-0.011431069467356572
2578,-0.028394256804960057
2579,-0.04088490905932706
2580,-0.044904604379148366
2581,-0.04136837650918532
2582,-0.034083829786456785
2583,-0.026320138320964734
2584,-0.019307307510966848
2585,-0.013775115871214997
2586,-0.012179563325505124
2587,-0.018267826838965454
2588,-0.03349435381250761
2589,-0.05374408607711431
2590,-0.07043567242028348
2591,-0.07610782465247591
2592,-0.06981056761676549
2593,-0.05723345075151164
2594,-0.045421555697050656
2595,-0.037252577764520345
2596,-0.030817184745338917
2597,-0.023327146241282366
2598,-0.014290054285571775
2599,-0.004132747764873517
2600,0.009314121737173275
2601,0.03065520926865816
2602,0.0615897560659357
2603,0.09645001949094881
2604,0.12580400829798383
2605,0.14662583326091705
2606,0.16782813482028863
2607,0.2018287538340809
2608,0.24766827438769667
2609,0.2844374705889957
2610,0.288523498713947
2611,0.26479953819960483
2612,0.2618145931202924
2613,0.3474196607748996
2614,0.5539238130801584
2615,0.8332924000855917
2616,1.0624065567562773
2617,1.1024824173532068
2618,0.8747704659283351
2619,0.4026052463044641
2620,-0.2030724867153163
2621,-0.7967969530794008
2622,-1.2524715586512345
2623,-1.4929572908473765
2624,-1.4963665518647256
2625,-1.2926799812728622
2626,-0.9562079309061389
2627,-0.5872759708409527
2628,-0.27913638387598305
2629,-0.08242358300013396
2630,0.009966009206444006
2631,0.04519740875344329
2632,0.07235975679626996
2633,0.1121828868093949
2634,0.1547119422648033
2635,0.1804602311882928
2636,0.18254636967051835
2637,0.17111807813475433
2638,0.16067006246414495
2639,0.15599164145188965
2640,0.15043438978382057
2641,0.1358869819810627
2642,0.11275426059515828
2643,0.09015626261611193
2644,0.07738218625717205
2645,0.07568135617975746
2646,0.07781746332170322
2647,0.07475048270041043
2648,0.06276887611513339
2649,0.04522933729827672
2650,0.028589093214088014
2651,0.017020517878607533
2652,0.010110977938542015
2653,0.004828776551167532
2654,-0.0006434553928163298
2655,-0.004785439612691551
2656,-0.004194190205563799
2657,0.002625958594313253
2658,0.012528795927748356
2659,0.018848768154761095
2660,0.016057366528472644
2661,0.004385610391095615
2662,-0.009587544774219914
2663,-0.017252640742480646
2664,-0.013910115563650877
2665,-0.001627420870398507
2666,0.012987087027220921
2667,0.02374560320678846
2668,0.02827469330905698
2669,0.02760017312377614
2670,0.023447301372330146
2671,0.016487021542184194
2672,0.0070399201378012685
2673,-0.003209786384922847
2674,-0.010952568850465208
2675,-0.013150700285469517
2676,-0.009403679809227385
2677,-0.002593541997232456
2678,0.0027022104573852686
2679,0.002659083360184413
2680,-0.004123856562960321
2681,-0.016223341261263388
2682,-0.029803403443324855
2683,-0.039553610393049665
2684,-0.040409176579894214
2685,-0.02997593524864136
2686,-0.01042535824531958
2687,0.011882028842878877
2688,0.02951166693729478
2689,0.038008159961700386
2690,0.03799217180450505
2691,0.03380001206134362
2692,0.029964925988770548
2693,0.028493365788070945
2694,0.028868524315092757
2695,0.030055067024890362
2696,0.03206773767877022
2697,0.03548015507605727
2698,0.03964272184405241
2699,0.041874111878964795
2700,0.03896866595568317
2701,0.029943034479448932
2702,0.017472128705938745
2703,0.006463642135202567
2704,0.0008074743046407751
2705,0.001042966295158447
2706,0.004844298984486409
2707,0.009603583480704236
2708,0.014485278297873352
2709,0.0199829761960719
2710,0.0256176219557097
2711,0.028442025573362457
2712,0.024414994139579177
2713,0.011937118563757267
2714,-0.005506318874753304
2715,-0.020274819225720553
2716,-0.02486951481651281
2717,-0.016554039827780725
2718,0.0010211281667043448
2719,0.020086458848050597
2720,0.0329381183799227
2721,0.03517203406613905
2722,0.02655748928225218
2723,0.010181561644336971
2724,-0.008812275755087504
2725,-0.024408717336952268
2726,-0.03127256371570455
2727,-0.026837796884121155
2728,-0.012965270629969699
2729,0.0042982405378971435
2730,0.017299131405820515
2731,0.02037775669751634
2732,0.012356031578220926
2733,-0.0033375018030570008
2734,-0.02047953020827234
2735,-0.03246115865494743
2736,-0.03433880934828369
2737,-0.024370886142212233
2738,-0.004987454290152352
2739,0.017417321754033405
2740,0.03459016926909611
2741,0.04006116856272321
2742,0.03243444566810737
2743,0.01608676932789254
2744,-0.0013877513167975444
2745,-0.013288094125609204
2746,-0.01670025084036922
2747,-0.012599090299179877
2748,-0.003908999411880972
2749,0.006407271066559235
2750,0.01589641821427236
2751,0.022246964295591837
2752,0.023367687585402454
2753,0.01847589674915267
2754,0.009265052903913367
2755,-0.0002723484321350187
2756,-0.005712634781089629
2757,-0.0045600208327026374
2758,0.002555813325187347
2759,0.012473617924986276
2760,0.02112769669399457
2761,0.025029341076005327
2762,0.022132181673313857
2763,0.012386733749977752
2764,-0.0018304682816825855
2765,-0.01595847359921096
2766,-0.02486111418836838
2767,-0.025452959724291176
2768,-0.01863886842530713
2769,-0.00882818654200214
2770,-0.0010798712694071292
2771,0.001906607369883728
2772,0.0004371259602072412
2773,-0.00422050006589298
2774,-0.012150720637903466
2775,-0.02452221609593659
2776,-0.04059606748087978
2777,-0.055275205877796
2778,-0.06088516642504106
2779,-0.05315459334932915
2780,-0.03658057694205767
2781,-0.023395174727233924
2782,-0.02511430532534447
2783,-0.04257824664775536
2784,-0.063080776824881
2785,-0.06830698606298294
2786,-0.04780983472931813
2787,-0.007419426416102831
2788,0.034522980279935916
2789,0.06037461484590044
2790,0.06530268328845573
2791,0.05883643301282803
2792,0.05541579813318266
2793,0.062490240730841154
2794,0.0759725598074015
2795,0.08578134638209706
2796,0.08555354529700346
2797,0.07791752199148255
2798,0.07156281070804445
2799,0.07358583942283645
2800,0.08378959477017758
2801,0.09489783937217061
2802,0.09749921169013959
2803,0.08562151731295348
2804,0.059642703505468325
2805,0.02576983724478115
2806,-0.006919979577854788
2807,-0.030405201090878603
2808,-0.04105369692848963
2809,-0.04079408644081897
2810,-0.035340995795298744
2811,-0.0305216126246746
2812,-0.029261866362702373
2813,-0.03125440974641873
2814,-0.034907906538551636
2815,-0.03921103634779405
2816,-0.043691343674742394
2817,-0.0470568883221489
2818,-0.04665121808571668
2819,-0.03986650316017941
2820,-0.026413156147065048
2821,-0.009417385495546295
2822,0.0055193911793039
2823,0.012596413516430625
2824,0.008406527712427923
2825,-0.00577363226612927
2826,-0.023010228868569106
2827,-0.03284240307420693
2828,-0.02707311944539345
2829,-0.005956098524356707
2830,0.02110384381543951
2831,0.04289565801775626
2832,0.05622125142904812
2833,0.06804903629095968
2834,0.08609989535908236
2835,0.10697723389471628
2836,0.11661497188685335
2837,0.10663698288988771
2838,0.09088279800458682
2839,0.10042018644599672
2840,0.1544436167141802
2841,0.23317332190726023
2842,0.2858239758255164
2843,0.2772452650891726
2844,0.23425120215651712
2845,0.24083867648633353
2846,0.37080497169486965
2847,0.6067481183414231
2848,0.8185831535835527
2849,0.8328205913508288
2850,0.547678242725486
2851,0.0065488764654408615
2852,-0.6260357144075189
2853,-1.1630335916828742
2854,-1.4895232635541928
2855,-1.5892898017743704
2856,-1.5048132393792395
2857,-1.2845983761110467
2858,-0.9661491738925805
2859,-0.5939515873900549
2860,-0.23398556203421314
2861,0.044031241491450476
2862,0.20428575960581857
2863,0.26436693219651436
2864,0.2752723624111041
2865,0.27995814583561907
2866,0.2882992330016686
2867,0.28729238649713473
2868,0.26945335144796584
2869,0.2472502192481487
2870,0.24036652309798434
2871,0.2528935528022117
2872,0.26692915141914675
2873,0.2597269331668268
2874,0.2260769194950674
2875,0.18297340806074583
2876,0.15298462674493266
2877,0.14426504939410034
2878,0.14671970685173247
2879,0.14569915691052399
2880,0.1370524450114895
2881,0.12808463602501846
2882,0.12532521955261947
2883,0.12377172326216332
2884,0.10965116063605637
2885,0.07389021410128208
2886,0.022485798600816627
2887,-0.02649543684838096
2888,-0.05624392955474722
2889,-0.06254311827093101
2890,-0.053929276984255606
2891,-0.04252838339753847
2892,-0.0350355813267412
2893,-0.031087596209409537
2894,-0.028046352649635377
2895,-0.025715422387992463
2896,-0.02629692446120461
2897,-0.0307569866663654
2898,-0.03624118398147321
2899,-0.037392754580410775
2900,-0.03017541353510022
2901,-0.014711037123264624
2902,0.004791755505432564
2903,0.022165742540900438
2904,0.0316468335677941
2905,0.02972945489495205
2906,0.016744799446595696
2907,-0.0022256956331269152
2908,-0.018539226553006168
2909,-0.024012945852128285
2910,-0.01590268542573755
2911,0.0008972068927821286
2912,0.016711078309060965
2913,0.023226602696141588
2914,0.018298230249069444
2915,0.006034497914314381
2916,-0.007042557437192166
2917,-0.016076067264426015
2918,-0.01946374399321397
2919,-0.01832835434197018
2920,-0.0156624082960149
2921,-0.015481063806809216
2922,-0.0207704407553849
2923,-0.030355904972958522
2924,-0.03776693106436719
2925,-0.035176752597948585
2926,-0.02063955386147239
2927,-0.001722821729750064
2928,0.009862014508855661
2929,0.009297323163594794
2930,0.0045837060482378554
2931,0.009826211100895998
2932,0.031146868712643015
2933,0.05984054232032444
2934,0.08151588754037331
2935,0.09270691850616307
2936,0.10602727022911146
2937,0.1353109922151638
2938,0.17549908230999522
2939,0.20321330762669404
2940,0.20629010124856512
2941,0.21690993863189495
2942,0.3077773672317774
2943,0.5363897299720721
2944,0.8722589442217462
2945,1.1706767633844184
2946,1.231514738302125
2947,0.9167149913376341
2948,0.24834782105753225
2949,-0.5839054808766098
2950,-1.3142463156250248
2951,-1.7310540936712466
2952,-1.7646140189010437
2953,-1.4888001908983222
2954,-1.0544752196031935
2955,-0.6087330721675366
2956,-0.2456199453243499
2957,0.0008555460662866901
2958,0.13867133102652407
2959,0.1961901836134189
2960,0.20678090275025762
2961,0.19909329195308217
2962,0.191231301373728
2963,0.18976195351678202
2964,0.19373159501330767
2965,0.20003683889993046
2966,0.2055565979334553
2967,0.2057530382486208
2968,0.19413013767425585
2969,0.16600198313077885
2970,0.12413915779218067
2971,0.08000498368303374
2972,0.0475675530651629
2973,0.03408194968852524
2974,0.03578406257044702
2975,0.04205923524052403
2976,0.043791379788309055
2977,0.03832948535444428
2978,0.027816293271788882
2979,0.014481565622810057
2980,-0.0013262398543713496
2981,-0.018793700581192334
2982,-0.03378465444951425
2983,-0.0398789153476909
2984,-0.033218191221062024
2985,-0.016645594888277073
2986,0.0010178911431785054
2987,0.0102158686354385
2988,0.006210458764965914
2989,-0.008943023319040752
2990,-0.028444567484680404
2991,-0.04446980340302875
2992,-0.05123848960658487
2993,-0.046744883985493285
2994,-0.03334175307217988
2995,-0.01696674230484623
2996,-0.004630774460356868
2997,-0.0009252210982984062
2998,-0.0056943678041791925
2999,-0.01470277790158038
3000,-0.022837067793535153
3001,-0.02722216758983901
3002,-0.027841802012509534
3003,-0.025685952447622996
3004,-0.020671269897178934
3005,-0.011469356686417697
3006,0.0027198783318395157
3007,0.020277118256015247
3008,0.03696370706243794
3009,0.047721162377605056
3010,0.04936291093756645
3011,0.042658027241573894
3012,0.03268055345855492
3013,0.026940020314229967
3014,0.03174759143944482
3015,0.04852861454591857
3016,0.07250576825277297
3017,0.09512889407156935
3018,0.10894051187922965
3019,0.11139224466425679
3020,0.10482296737470093
3021,0.09317971473636166
3022,0.07896716671611209
3023,0.06329506185340006
3024,0.0482355417250928
3025,0.03791138664030026
3026,0.03605568569427985
3027,0.042028782410282184
3028,0.04975705584500284
3029,0.0516345447698798
3030,0.044274438795181864
3031,0.030643969244557666
3032,0.0164696629949269
3033,0.004655949634742908
3034,-0.006411287577438744
3035,-0.018965459727764145
3036,-0.03089487126516524
3037,-0.03579869973326395
3038,-0.028977412007281475
3039,-0.01357069148868554
3040,-3.781470392188926e-05
3041,0.0016154178983093194
3042,-0.009905399561581974
3043,-0.026153356262281623
3044,-0.03616419816286863
3045,-0.03520491168941372
3046,-0.027178015847576127
3047,-0.019258251470396594
3048,-0.014754638579835215
3049,-0.011241683225520344
3050,-0.005058836096253952
3051,0.003248673754544916
3052,0.008486615545611705
3053,0.005720125716107318
3054,-0.00466963369777376
3055,-0.0168509692970816
3056,-0.024154058947034616
3057,-0.023685477825665845
3058,-0.0169161270558026
3059,-0.006912410602783962
3060,0.0038524417441923218
3061,0.01276560728250153
3062,0.015363028054453701
3063,0.006380633628953657
3064,-0.015710098916757276
3065,-0.044636417063204994
3066,-0.0677114406823058
3067,-0.07331685639861582
3068,-0.059287653757794795
3069,-0.03535468586371543
3070,-0.017205816231163865
3071,-0.016406913264010538
3072,-0.0335878678121789
3073,-0.05941802669586245
3074,-0.0817120463747465
3075,-0.09274294292050643
3076,-0.09163476164602694
3077,-0.0813552910147223
3078,-0.06423571628930104
3079,-0.04058551246477132
3080,-0.011533418219378411
3081,0.017282552590767233
3082,0.036083640090146
3083,0.03700876538114415
3084,0.02173629907548036
3085,0.0035115748051067555
3086,-0.00013827876234832198
3087,0.020335201949309954
3088,0.05924542087664632
3089,0.10039597225411442
3090,0.13043172663862818
3091,0.14899003874201555
3092,0.16621864300329595
3093,0.19062385545990723
3094,0.22090672556698254
3095,0.2524704952790776
3096,0.29335387431781673
3097,0.3705036938376206
3098,0.5114709618965466
3099,0.7088337026754763
3100,0.8960989398331507
3101,0.9628030857130147
3102,0.8094686569705176
3103,0.41035250652502864
3104,-0.15877464305275923
3105,-0.7487477520207946
3106,-1.2041296191679831
3107,-1.4279985912148623
3108,-1.4092530017227736
3109,-1.2059677325373328
3110,-0.9053474411806113
3111,-0.5875771935636873
3112,-0.30811887139854016
3113,-0.09602018196169065
3114,0.041508540931123064
3115,0.1141786685038677
3116,0.14286721405717107
3117,0.1512420733625165
3118,0.15671181709815268
3119,0.1655408858088605
3120,0.17493730342279576
3121,0.1797350953289361
3122,0.17807693990074394
3123,0.17217923849078587
3124,0.16494690532606648
3125,0.15651974155958165
3126,0.14416991002598034
3127,0.1254725262627811
3128,0.10168297873956957
3129,0.078192553356393
3130,0.06150353607226556
3131,0.055015280357504553
3132,0.05677168596276619
3133,0.06071309663363986
3134,0.06036387331044166
3135,0.05232567360331178
3136,0.03745722267739907
3137,0.01952465586129679
3138,0.0027772937318260543
3139,-0.009808746457599243
3140,-0.016849986974782356
3141,-0.017883440764616378
3142,-0.01271475181469306
3143,-0.001550690598137128
3144,0.014036757717684048
3145,0.03005051714559187
3146,0.0401261744841322
3147,0.037635968471995095
3148,0.019448006148014216
3149,-0.010812750241120949
3150,-0.04283663357134432
3151,-0.06420408652945805
3152,-0.06724895050574697
3153,-0.05355761145387328
3154,-0.032521640780255115
3155,-0.014703272674980311
3156,-0.004965989268974949
3157,-0.0005914009045899674
3158,0.0045403414120086414
3159,0.013654010818980315
3160,0.024108285182603523
3161,0.029973608464449714
3162,0.027524580497706903
3163,0.018827036118485463
3164,0.01064034183000577
3165,0.009839845858224946
3166,0.01897586096442573
3167,0.034918206095790036
3168,0.05106911330298523
3169,0.06150316863965266
3170,0.06459900969297822
3171,0.06403933512804738
3172,0.06621853300340953
3173,0.07514050845487949
3174,0.08810984944722311
3175,0.09600314806956203
3176,0.08913916419577828
3177,0.06502462030536738
3178,0.03159977176400123
3179,0.00235877293883758
3180,-0.013500408662581856
3181,-0.01777498486301066
3182,-0.020680714644755502
3183,-0.030850484640634834
3184,-0.046707508312991884
3185,-0.05722032223404371
3186,-0.05175010402549913
3187,-0.03033428147886126
3188,-0.005109472071156233
3189,0.00862559032482694
3190,0.004096505486372098
3191,-0.012302243250688573
3192,-0.026759726603130446
3193,-0.02865186936565542
3194,-0.017057083924646388
3195,0.00118522922712484
3196,0.018540989339541916
3197,0.03191700185388826
3198,0.04187480515177597
3199,0.04819008215158442
3200,0.04735806608563963
3201,0.03516769243110064
3202,0.011929315579749538
3203,-0.015160386279891825
3204,-0.035629174091490357
3205,-0.04274156450301046
3206,-0.03781789886170549
3207,-0.027995995198663057
3208,-0.01968051476303513
3209,-0.014043516555883756
3210,-0.00874257364345914
3211,-0.0033546584481428344
3212,-0.001683513832990698
3213,-0.007194372538192696
3214,-0.0159119207093461
3215,-0.0156419841833015
3216,0.004732053940446835
3217,0.043092416934158155
3218,0.08178859607442128
3219,0.10041300665789502
3220,0.09389348955332616
3221,0.0787014610515817
3222,0.07962510504259059
3223,0.10883010774938345
3224,0.15846970796422166
3225,0.21583230651215485
3226,0.2855527107791448
3227,0.3913979868195808
3228,0.5462935584876193
3229,0.7122260183367215
3230,0.7904581191459156
3231,0.6651321672598658
3232,0.27993629957874955
3233,-0.3056852868767075
3234,-0.9265152902198766
3235,-1.3879183735458116
3236,-1.5610761831291198
3237,-1.4374132612863282
3238,-1.1136200213847132
3239,-0.7263898949121863
3240,-0.3837746424586388
3241,-0.1316564913722985
3242,0.037406671384780175
3243,0.15285866804375994
3244,0.23832587309105172
3245,0.30124771415146195
3246,0.3381703508320848
3247,0.34575363664135506
3248,0.32833698639834186
3249,0.2980024625696346
3250,0.26829157636239065
3251,0.24638772348095772
3252,0.2295901984015435
3253,0.20911471528564726
3254,0.1785904443350238
3255,0.14031399504962724
3256,0.10377521514698532
3257,0.07775244288426249
3258,0.0633140914026322
3259,0.05422657966703276
3260,0.04397499254647836
3261,0.03203875084115575
3262,0.02303246145469042
3263,0.01996319908551052
3264,0.019232700437166697
3265,0.013307004013538504
3266,-0.0012139730656386466
3267,-0.018532028791246682
3268,-0.027489213708124863
3269,-0.02137666979664587
3270,-0.004566595438923363
3271,0.010429184427844672
3272,0.012886265790940668
3273,0.0018682995977209607
3274,-0.014300317863397635
3275,-0.02550955136879749
3276,-0.026896778235428697
3277,-0.019828576167079448
3278,-0.007889909934928722
3279,0.006655815671792039
3280,0.02235297891898759
3281,0.03574326936607141
3282,0.04076546919615022
3283,0.03230366181602156
3284,0.011020295424232208
3285,-0.015250790975368468
3286,-0.03540332233129624
3287,-0.04153585347830491
3288,-0.033352578746558115
3289,-0.01780961862022961
3290,-0.004866970419425764
3291,-0.0022761074404073333
3292,-0.012089698968776666
3293,-0.030227383643326507
3294,-0.049109034635906205
3295,-0.06211559458239804
3296,-0.06740482197215936
3297,-0.06839029875512048
3298,-0.07014765750244523
3299,-0.07437859753724477
3300,-0.07737473821786454
3301,-0.07325042281516189
3302,-0.05982775649300961
3303,-0.04153781247363989
3304,-0.026053103191015323
3305,-0.017419377303948783
3306,-0.012332333236928261
3307,-0.003569723310385247
3308,0.012479568308173976
3309,0.03176001405359018
3310,0.04651154604070935
3311,0.05372798566467733
3312,0.05948045928281398
3313,0.07389789797932378
3314,0.10073399789275933
3315,0.13140876389040237
3316,0.14996227946280402
3317,0.14536550148065547
3318,0.12055830683636157
3319,0.09030056583617416
3320,0.06990334645974647
3321,0.06470134549293763
3322,0.06862261155575489
3323,0.07142971239956078
3324,0.06691645759609821
3325,0.05515785775717698
3326,0.0389758273066071
3327,0.020291193532142947
3328,0.0006050106070386425
3329,-0.016125410950031456
3330,-0.023360613347594966
3331,-0.01667358900707989
3332,0.0007530813884731191
3333,0.017983092327949403
3334,0.02308866176658523
3335,0.011557758306511602
3336,-0.010874118580415187
3337,-0.033164683717970767
3338,-0.046904133265004685
3339,-0.050424823199792246
3340,-0.046714877455633956
3341,-0.038758555390641616
3342,-0.027420517262112323
3343,-0.013184925455490295
3344,0.0013420362491521633
3345,0.011582227188594718
3346,0.013758346354093441
3347,0.007376260482165716
3348,-0.00475141161476155
3349,-0.018238175060895954
3350,-0.028644846887251614
3351,-0.03233127379571352
3352,-0.027795697605995005
3353,-0.0176502917605762
3354,-0.008918055196687986
3355,-0.00934712576471643
3356,-0.02134033174929721
3357,-0.03898262625774626
3358,-0.05218641057957631
3359,-0.055185984029045995
3360,-0.051268356653363115
3361,-0.04840247205577372
3362,-0.049734147833387296
3363,-0.04918718483530474
3364,-0.037962736013227666
3365,-0.01600826401891071
3366,0.004165187028030646
3367,0.007293633062194457
3368,-0.00953397589697273
3369,-0.0317943281532537
3370,-0.03888077833509163
3371,-0.0216077295225445
3372,0.011399657524938399
3373,0.04466269388563324
3374,0.07218466166118989
3375,0.10144772585470677
3376,0.14129929148385922
3377,0.18918079543435662
3378,0.2356777945175544
3379,0.28471981349803277
3380,0.365374197470907
3381,0.5121411772463436
3382,0.7197005766646447
3383,0.909939789055692
3384,0.950638924085343
3385,0.7282696290125845
3386,0.23022664134540932
3387,-0.4241592434829218
3388,-1.0322225410348254
3389,-1.4080228259443703
3390,-1.469753156301374
3391,-1.2624345601032325
3392,-0.9116376243088198
3393,-0.5484162762472758
3394,-0.2549260807083057
3395,-0.05416001414257353
3396,0.06759937662595761
3397,0.13328829372458123
3398,0.16151503065936307
3399,0.16693624039173843
3400,0.16362888791294944
3401,0.16368203848526452
3402,0.1724879745758312
3403,0.18673780473689272
3404,0.1978709328923436
3405,0.19806879623687906
3406,0.18416528457668224
3407,0.15784850710493545
3408,0.12401667760630747
3409,0.08943878159388992
3410,0.06163209141484113
3411,0.046602865274157246
3412,0.04562043577193296
3413,0.053554392271648606
3414,0.06120247157278014
3415,0.06082332653983021
3416,0.050811019570420266
3417,0.03570390375769478
3418,0.021704317041346337
3419,0.011883354574499348
3420,0.005285395677399038
3421,0.00010926679761891504
3422,-0.0029533944745705446
3423,-0.0011317397108181082
3424,0.006505668498968387
3425,0.01592213880266432
3426,0.019724744358273635
3427,0.012840514045125541
3428,-0.0027729271335502105
3429,-0.01899590742137868
3430,-0.027584686237752697
3431,-0.026141996379449577
3432,-0.018880870211630124
3433,-0.011987752455131988
3434,-0.008334479937528307
3435,-0.0064362909823215166
3436,-0.003932874327065647
3437,-0.0012707153183494698
3438,-0.0013492972077903162
3439,-0.005478940804231782
3440,-0.010251221396022959
3441,-0.009316127388816844
3442,0.0009567040927955432
3443,0.0172988511129415
3444,0.0313027810469156
3445,0.0360389577455035
3446,0.031648789728624574
3447,0.02478300170420584
3448,0.02247936279719058
3449,0.026272545129422346
3450,0.0319596922812428
3451,0.03488835869539909
3452,0.03530702700984156
3453,0.03834794710312507
3454,0.04848022573938248
3455,0.06365041378923937
3456,0.07476179097425764
3457,0.07141083051099714
3458,0.04942164220836432
3459,0.01440222394469589
3460,-0.021055846052339997
3461,-0.04420726892024211
3462,-0.048484264615238803
3463,-0.03600168945273841
3464,-0.015629370131464614
3465,0.001861080754575411
3466,0.009144247735766619
3467,0.005638020464122534
3468,-0.003061118983494328
3469,-0.009429123338437755
3470,-0.00918980649555985
3471,-0.003588245208754519
3472,0.002968205818875177
3473,0.007594883139567154
3474,0.011366403723776505
3475,0.017056796737636257
3476,0.024597037521921248
3477,0.029384392557290046
3478,0.02598569540427807
3479,0.014094513147808956
3480,0.000639921995907657
3481,-0.004840620950682738
3482,0.002110972006407201
3483,0.017155816374082228
3484,0.030962756783846614
3485,0.03700950835296632
3486,0.03612559229660166
3487,0.0338118267624474
3488,0.03338751269391525
3489,0.0318928920370006
3490,0.022825094432759388
3491,0.0031912592820211748
3492,-0.021699007668026092
3493,-0.040330025602793786
3494,-0.04275545554579885
3495,-0.02822866806645502
3496,-0.006890349081310793
3497,0.006114594919871654
3498,0.0005274069675757342
3499,-0.021665210045503678
3500,-0.04685012289993759
3501,-0.05883598998471885
3502,-0.05050566052866353
3503,-0.029230984241782144
3504,-0.010971066922647847
3505,-0.007010407705396285
3506,-0.014438292347516165
3507,-0.01934880397780226
3508,-0.010555920500930235
3509,0.008989056073915903
3510,0.02491966835452789
3511,0.026800285033180417
3512,0.021097560498210984
3513,0.027571387071243483
3514,0.06119935048808573
3515,0.11812196309611311
3516,0.18242927096315814
3517,0.24947818463407978
3518,0.34047395581489603
3519,0.48543704070413196
3520,0.6801266209416355
3521,0.8530184100223119
3522,0.8805369907386986
3523,0.6546984135050955
3524,0.1625038798333588
3525,-0.480876615587128
3526,-1.0753391331791071
3527,-1.4326009669754571
3528,-1.4661561516973403
3529,-1.2205660574529713
3530,-0.8295004120817204
3531,-0.4376564532167293
3532,-0.13740510178849036
3533,0.04920595278443108
3534,0.14768502130403743
3535,0.19501853289275053
3536,0.21604547967220966
3537,0.2202378759617188
3538,0.2104014259971504
3539,0.1907627093669043
3540,0.1684564158015189
3541,0.15043776935732556
3542,0.14048909735415505
3543,0.1384924104813354
3544,0.14111011132335521
3545,0.14271542588213862
3546,0.13696094839484002
3547,0.11979252149176123
3548,0.09287113097584496
3549,0.06439290901576594
3550,0.04516003786209321
3551,0.04161872547460844
3552,0.05102492085237685
3553,0.06308294250638705
3554,0.06725504001367896
3555,0.05987950943067572
3556,0.04521005944875889
3557,0.029957882594385428
3558,0.016897540001303717
3559,0.003764811249130764
3560,-0.01180124800498153
3561,-0.026816826646664207
3562,-0.033300733518134965
3563,-0.024927464195397528
3564,-0.0038645463473886837
3565,0.019098481979799804
3566,0.031928883108915215
3567,0.029960189255746887
3568,0.018315098956083666
3569,0.0065556658829156325
3570,0.0009645121537372077
3571,0.001297479759461223
3572,0.003799811522420904
3573,0.006216936567144685
3574,0.009459925973670846
3575,0.014970687035363776
3576,0.021558200566220712
3577,0.025577831582939935
3578,0.024171168940173238
3579,0.01780079581260579
3580,0.009341412791296418
3581,0.001102065403748373
3582,-0.00653954677862759
3583,-0.013417307740352878
3584,-0.017403128244579603
3585,-0.015410135956613951
3586,-0.007504047612731988
3587,0.00037310334661398974
3588,-0.0006459784942579264
3589,-0.014922884257538382
3590,-0.0369751603501751
3591,-0.054045722949964584
3592,-0.055419058752142175
3593,-0.040682062298464466
3594,-0.01961098865465559
3595,-0.003913800811696777
3596,0.001538959760025733
3597,0.0003549796997721834
3598,-0.0012117751843401712
3599,-0.0007299278650639686
3600,-6.100344431465322e-06
3601,0.00017523430352496018
3602,0.004184166655074189
3603,0.018818395373217153
3604,0.04554081586380094
3605,0.07563274754464382
3606,0.0942806776169051
3607,0.09119095160544674
3608,0.06870311229952121
3609,0.04019569034017484
3610,0.020191285350128173
3611,0.014720261765782583
3612,0.01959280312828222
3613,0.026614395293202822
3614,0.031014346876388904
3615,0.033526696535890334
3616,0.03663239974353133
3617,0.03999206089153078
3618,0.03997575472305814
3619,0.0333813349614763
3620,0.021211282888835087
3621,0.008693828911008526
3622,0.0016152852989886556
3623,0.0023029928931633655
3624,0.008408420932591594
3625,0.014876532575289819
3626,0.017132403329159034
3627,0.013346267504441803
3628,0.004954088441241291
3629,-0.004266729063854743
3630,-0.009991583482942273
3631,-0.00941730400493902
3632,-0.0027558039539242038
3633,0.006759071884118875
3634,0.014526488435160825
3635,0.01688568125976201
3636,0.01259121541908284
3637,0.0027890640051634052
3638,-0.009888425521045699
3639,-0.022105276086156152
3640,-0.030276034641760347
3641,-0.03131822824010732
3642,-0.02403009148048265
3643,-0.01029633004927926
3644,0.005154879742492188
3645,0.016735686627922783
3646,0.020501520682179628
3647,0.015574271055626431
3648,0.004026507423970866
3649,-0.009969855226592824
3650,-0.021014645618845834
3651,-0.023741408632424285
3652,-0.015129409841759364
3653,0.0028868168231241543
3654,0.022872900305681457
3655,0.035169094711084634
3656,0.03362491914381803
3657,0.019631319569178785
3658,0.0010275111771369657
3659,-0.013337287233771986
3660,-0.018801793214662077
3661,-0.015743120219093056
3662,-0.006411410543548845
3663,0.008025645831660797
3664,0.026745446121251182
3665,0.04598467490785117
3666,0.057858494637937005
3667,0.054304305048917194
3668,0.03375265704580456
3669,0.004473636543001147
3670,-0.019305511864810183
3671,-0.026201370056876304
3672,-0.014676553174883622
3673,0.006934427385533783
3674,0.026673714329957448
3675,0.036109876870711974
3676,0.03345696961739174
3677,0.022030921633380683
3678,0.007017231615818137
3679,-0.0065815638033171866
3680,-0.014580147323496533
3681,-0.014313566296674966
3682,-0.006012859644483563
3683,0.006448537629107258
3684,0.017011097788716442
3685,0.020739057836813866
3686,0.016627030283006855
3687,0.007730837535100775
3688,-0.00126949876879127
3689,-0.006898252128895435
3690,-0.008028269246676888
3691,-0.005161788239914943
3692,0.0007282498788770211
3693,0.008521557891391873
3694,0.01652195936554917
3695,0.02228447084569589
3696,0.023340599448198426
3697,0.018465765736673953
3698,0.008632612574747983
3699,-0.0029156493658056507
3700,-0.011548676376204693
3701,-0.012941496279657306
3702,-0.005215811998856873
3703,0.009380450992410048
3704,0.024610884606367907
3705,0.032946333984627776
3706,0.029735964479648776
3707,0.01614218378127011
3708,-0.001487781976916605
3709,-0.015563371949867318
3710,-0.0215797694016348
3711,-0.019676920647262574
3712,-0.012817820384827367
3713,-0.0039008036992342872
3714,0.005410044589815966
3715,0.013657985252994748
3716,0.01843447601292386
3717,0.01719288506829381
3718,0.009680101322495461
3719,-0.0005860735730013784
3720,-0.007823099730910315
3721,-0.007650157604018704
3722,0.00010229053207724869
3723,0.011691193689033673
3724,0.022221959470065056
3725,0.028221251756639688
3726,0.028194270395615437
3727,0.021824629680132088
3728,0.009745060122662196
3729,-0.005479380737569386
3730,-0.018704853283605938
3731,-0.023808510957579184
3732,-0.017279426382112155
3733,-0.0010890550014311913
3734,0.01786168031488363
3735,0.03167960044565667
3736,0.03587980373292672
3737,0.031078306097149205
3738,0.021299165646505868
3739,0.010924445013549326
3740,0.0027704072977371118
3741,-0.0019856768665693562
3742,-0.0031182869429337654
3743,-0.0010967328430112086
3744,0.002764066604842996
3745,0.006537221702000752
3746,0.008525141024857744
3747,0.007964638872583262
3748,0.004909474486924661
3749,-0.0002976249953276856
3750,-0.00690960102169381
3751,-0.012866921619560844
3752,-0.014493089384945746
3753,-0.008301347965149102
3754,0.005655885738365883
3755,0.021827731299380437
3756,0.03134419558278217
3757,0.027764517887491
3758,0.012186766528670685
3759,-0.006728697761562297
3760,-0.018333912801987724
3761,-0.016923897607708564
3762,-0.004638329270830166
3763,0.011430154604263647
3764,0.024716406670160923
3765,0.032396335699871145
3766,0.0344583047020119
3767,0.031079662072231146
3768,0.02197035533962119
3769,0.008421665231389992
3770,-0.004880560082070173
3771,-0.011485139751432175
3772,-0.007827687601359257
3773,0.0032291105464350095
3774,0.013776505018149691
3775,0.01656527357475748
3776,0.010226601762900005
3777,-0.0005184106821568247
3778,-0.009532399528422702
3779,-0.01419075092471745
3780,-0.01601572939552616
3781,-0.016978720377525673
3782,-0.015823323249512966
3783,-0.00863507616703911
3784,0.006599643504517133
3785,0.02602379249785497
3786,0.04092675465043312
3787,0.04356645469084148
3788,0.033036417873103144
3789,0.01617835973557634
3790,0.002800495929811184
3791,-0.0007941104381226131
3792,0.005039693551005378
3793,0.015181062817125213
3794,0.024153321878165494
3795,0.029112450777056
3796,0.029676733039761975
3797,0.026099745039898342
3798,0.0184134818564411
3799,0.007452009012687031
3800,-0.0038019603089754217
3801,-0.010713647119132738
3802,-0.009689019283235694
3803,-0.0010526876681733915
3804,0.010454951527327713
3805,0.01829811529009186
3806,0.018056346637678182
3807,0.009795283008593697
3808,-0.002618017776987344
3809,-0.01435551263650325
3810,-0.022298570114124585
3811,-0.02578659489309619
3812,-0.025508560084403664
3813,-0.022006042861042987
3814,-0.015221574451878942
3815,-0.005365812823230476
3816,0.005791075003870553
3817,0.014446186070539853
3818,0.015837710918249218
3819,0.006678181153813903
3820,-0.012141007713465757
3821,-0.03423230410596088
3822,-0.04926665296070465
3823,-0.04757402487997817
3824,-0.02582117643700177
3825,0.009784058387715571
3826,0.04563328982608307
3827,0.06781388314640964
3828,0.06997227105236209
3829,0.05659556280741215
3830,0.03935863344921573
3831,0.029330637960196
3832,0.03087788363555112
3833,0.041291312379268974
3834,0.05505681026010008
3835,0.06797141608262963
3836,0.07744810406593325
3837,0.08004354482256187
3838,0.0705560678480685
3839,0.04535157144728483
3840,0.007482929568113212
3841,-0.031886728350191115
3842,-0.05860163112166997
3843,-0.06390593944265752
3844,-0.049412290149422514
3845,-0.024876389869677093
3846,-0.0014278108655476351
3847,0.013725605314928573
3848,0.017966512753701695
3849,0.011541677412605313
3850,-0.002776897369302221
3851,-0.01865696415634941
3852,-0.027607540217491025
3853,-0.024624411682784758
3854,-0.013558329047743053
3855,-0.005154564838414748
3856,-0.007159738836780266
3857,-0.01571440753822059
3858,-0.01856396690860073
3859,-0.009077770542332435
3860,0.0035046532737254676
3861,0.0014505840603577756
3862,-0.02051373365853484
3863,-0.04233200673400553
3864,-0.03140953491716081
3865,0.027451011046022412
3866,0.11563099890458692
3867,0.19931711251681494
3868,0.26769495131310017
3869,0.34748425641492897
3870,0.46710929321955197
3871,0.5967816398670668
3872,0.628955138954417
3873,0.4403567384242153
3874,0.0022025324719531017
3875,-0.5538682242210946
3876,-0.9868516819053117
3877,-1.094271901891029
3878,-0.8489766091988279
3879,-0.4161218477184241
3880,-0.03496091060970882
3881,0.1413667871014263
3882,0.12539290232329064
3883,0.04480869102424664
3884,0.02044976857968319
3885,0.07950414789557297
3886,0.1641890399705045
3887,0.2066008474223225
3888,0.1912595430407779
3889,0.1545686472121564
3890,0.1373514992960312
3891,0.14551503123253562
3892,0.15420715721985573
3893,0.14175167571586667
3894,0.11320662591213353
3895,0.09119829873716209
3896,0.08875831250028746
3897,0.09526416479922928
3898,0.08893413748248252
3899,0.06028633256549081
3900,0.02142846202243074
3901,-0.006886225189006164
3902,-0.015339567002259568
3903,-0.012836710703881371
3904,-0.015103620904728235
3905,-0.02854643234011115
3906,-0.045609554301522165
3907,-0.054483237760090765
3908,-0.05171310261836285
3909,-0.04502617046096474
3910,-0.044838080004366086
3911,-0.053976026437787504
3912,-0.06559296782177068
3913,-0.0701982023029431
3914,-0.0641135568446789
3915,-0.05149046209718686
3916,-0.039178895649222854
3917,-0.030448803884287952
3918,-0.023626725601833
3919,-0.016028353037111108
3920,-0.008299984285355486
3921,-0.0044208918570426145
3922,-0.007455868938485494
3923,-0.015551526483585126
3924,-0.022357287582218537
3925,-0.021617235682252746
3926,-0.011693049593321148
3927,0.0038899001249820004
3928,0.01975502487009466
3929,0.03227859026749913
3930,0.04045810383510044
3931,0.04455892414172953
3932,0.045389565691423626
3933,0.04549331955474292
3934,0.050067398818252284
3935,0.0646282879445111
3936,0.09017040621397776
3937,0.12108130352083296
3938,0.15050919599431944
3939,0.1808344114576107
3940,0.22928513432949577
3941,0.3189827841658879
3942,0.4562815442517699
3943,0.6088605945473002
3944,0.7037892537324124
3945,0.6545754859379034
3946,0.4067016363389616
3947,-0.023855306214495532
3948,-0.5437170185327309
3949,-1.0142576532757652
3950,-1.3077538075315984
3951,-1.3588017718609018
3952,-1.1854838938468932
3953,-0.8721209862066859
3954,-0.5260362286188671
3955,-0.23264837342160857
3956,-0.03053100748308697
3957,0.08609570633946229
3958,0.14596775154686603
3959,0.17715726050922448
3960,0.19456070709250955
3961,0.201235781815967
3962,0.19687377307529397
3963,0.18441742048512227
3964,0.1704391216990423
3965,0.16115526439600147
3966,0.1587452949167399
3967,0.16093917770807953
3968,0.16342789317512948
3969,0.16277008394227904
3970,0.15795211377336904
3971,0.1502245397818832
3972,0.1418027333988363
3973,0.13425285881682064
3974,0.12740548918650801
3975,0.11952727113196575
3976,0.10882734865024668
3977,0.09525706480967885
3978,0.0809781685187087
3979,0.06875511800018447
3980,0.05939632931874601
3981,0.050499254391745865
3982,0.03786736067338037
3983,0.01871101903692561
3984,-0.00582211202730596
3985,-0.030703055101877964
3986,-0.04953745597823149
3987,-0.05776200701207889
3988,-0.05469595939539386
3989,-0.043725615826769544
3990,-0.030885202041234055
3991,-0.02241634208125841
3992,-0.022023607789765615
3993,-0.02895159215905385
3994,-0.03819206809900342
3995,-0.04322424377039917
3996,-0.03986284001428215
3997,-0.028596339020470183
3998,-0.013714854918417486
3999,-0.00010778243333528026
4000,0.009463900272125436
4001,0.01451288325920967
4002,0.015015140338180879
4003,0.010259443243515062
4004,5.282971067855128e-05
4005,-0.012980852735575223
4006,-0.023070454039925678
4007,-0.024435622285728903
4008,-0.015795187789603773
4009,-0.0022179767670723366
4010,0.007724642052463567
4011,0.007384352882774068
4012,-0.004305363268639341
4013,-0.02338072617390382
4014,-0.044114245411044084
4015,-0.0616502591420062
4016,-0.07253564658258127
4017,-0.07462986723161646
4018,-0.06816318026879828
4019,-0.05703412566876167
4020,-0.047551620206947254
4021,-0.04398152061368031
4022,-0.04464405464770804
4023,-0.043385015343407364
4024,-0.03627208929715378
4025,-0.026841765732733856
4026,-0.023028988757450658
4027,-0.027185605730887442
4028,-0.029527393882178593
4029,-0.014249683798162579
4030,0.024903928835745718
4031,0.07478823069423386
4032,0.11125959329727637
4033,0.12082240264357658
4034,0.11473743934340883
4035,0.119049036625366
4036,0.14765577477000086
4037,0.18620958520204428
4038,0.20862468924746772
4039,0.2160732956722143
4040,0.259426208102486
4041,0.41163310426085764
4042,0.6984254341080364
4043,1.0397492775022719
4044,1.25873557972048
4045,1.1694481057589425
4046,0.6927720371530881
4047,-0.07788431264160144
4048,-0.9087979885559949
4049,-1.5378068661919961
4050,-1.7964039896382975
4051,-1.6719924929792747
4052,-1.2851758613250204
4053,-0.8103456482069599
4054,-0.3930941609378292
4055,-0.10548546612038488
4056,0.052083211185559364
4057,0.12019107980756372
4058,0.1459166558788344
4059,0.16116206837552333
4060,0.1775152576484924
4061,0.19259203273864398
4062,0.2000126198174756
4063,0.19662543473525856
4064,0.1841898740590681
4065,0.16671047311851434
4066,0.14705853433861754
4067,0.12601451879490283
4068,0.10400443096781259
4069,0.08314615303714548
4070,0.0671229912575182
4071,0.058739580530474816
4072,0.057376547602925876
4073,0.05870228854483998
4074,0.056992130837634186
4075,0.04829497701470247
4076,0.032296650718895856
4077,0.012019860890415679
4078,-0.007982150617443609
4079,-0.023713850982225112
4080,-0.03320141370952308
4081,-0.03690319764078996
4082,-0.03695029263309367
4083,-0.03553166949486567
4084,-0.0333892091954444
4085,-0.029653332709757264
4086,-0.023416804055296947
4087,-0.015819248346397367
4088,-0.010483456447029884
4089,-0.011207275773741362
4090,-0.01836943784726094
4091,-0.02726109840191382
4092,-0.030488290701083665
4093,-0.023180035962398593
4094,-0.006951483375195741
4095,0.010790049966589074
4096,0.021789634520260018
4097,0.022120254996422693
4098,0.013577150887662991
4099,0.0009194924830097004
4100,-0.011708620640745581
4101,-0.02173059025912679
4102,-0.026462419363501716
4103,-0.022036166004055623
4104,-0.005529671456900572
4105,0.021069282391649888
4106,0.04947044352782194
4107,0.06909068245021283
4108,0.07416821624909337
4109,0.06804975054910345
4110,0.06056148567185333
4111,0.060350071774625334
4112,0.06859457560501296
4113,0.0791866361718248
4114,0.08459997410908479
4115,0.08183257376772704
4116,0.07342308333290584
4117,0.06361497490723873
4118,0.054123851185885724
4119,0.04361778451982848
4120,0.030811614795836866
4121,0.017473392818659
4122,0.008044606799082036
4123,0.006158389013000087
4124,0.011352088478152772
4125,0.01896100106449204
4126,0.023221691219743316
4127,0.020961429013141367
4128,0.013099474593055584
4129,0.00322301405625465
4130,-0.0052674548130775545
4131,-0.011188991314220378
4132,-0.015460999272293163
4133,-0.01923184154479391
4134,-0.021959712051655714
4135,-0.021255692602792902
4136,-0.014975281565190986
4137,-0.004056135192135303
4138,0.006506930321845438
4139,0.010105569234075018
4140,0.003134676155844225
4141,-0.011745640334831765
4142,-0.02667163033570421
4143,-0.03357160373639221
4144,-0.029352722461411067
4145,-0.017322139902728698
4146,-0.004136702163535623
4147,0.004712159950180236
4148,0.00715797997102971
4149,0.003577689097215406
4150,-0.005206349117349123
4151,-0.01829835064544681
4152,-0.03336424284481666
4153,-0.0458886140558957
4154,-0.050982517134893476
4155,-0.046769643619852676
4156,-0.0362140755746367
4157,-0.025321861439391333
4158,-0.019013219958436682
4159,-0.01821206707185498
4160,-0.020520023297685097
4161,-0.02340393363048168
4162,-0.02654765942674898
4163,-0.031106846203875885
4164,-0.03690033188480792
4165,-0.04078907870684517
4166,-0.03843194258212554
4167,-0.02823401190960155
4168,-0.013813178554078638
4169,-0.002194477343165666
4170,0.0013323125200103625
4171,-0.002565109191929205
4172,-0.007900019490142109
4173,-0.00865324177964762
4174,-0.0039794761848913835
4175,0.0018368199014504596
4176,0.005056992395011364
4177,0.008175882561365982
4178,0.018950303242756605
4179,0.04219461081671169
4180,0.07192391397381287
4181,0.09307146227854718
4182,0.09375854698679822
4183,0.07774481930250472
4184,0.06405460612857211
4185,0.07174170038744188
4186,0.10331640921795046
4187,0.1445249690725367
4188,0.18393908863885916
4189,0.23455023229713115
4190,0.33239362635993963
4191,0.5046042436173859
4192,0.7284751736804045
4193,0.9175225694649949
4194,0.9543880613308997
4195,0.7547061295105226
4196,0.3203834155152695
4197,-0.2531714583059836
4198,-0.8189309534931206
4199,-1.2405859312583383
4200,-1.4393848836752263
4201,-1.4074215238736283
4202,-1.1931384984001108
4203,-0.8755604443208993
4204,-0.5390520804700278
4205,-0.2519841230247381
4206,-0.05096074509396557
4207,0.06441109035958233
4208,0.12179657745458727
4209,0.1551798181467455
4210,0.18521031590768633
4211,0.2130387272864978
4212,0.22914606409278496
4213,0.2270833586479736
4214,0.21006501266755523
4215,0.1869266354327176
4216,0.16400678975685412
4217,0.14163942566532045
4218,0.11755953982105714
4219,0.09223063837379461
4220,0.07010233639510036
4221,0.05592157434928688
4222,0.050320131671472396
4223,0.04900575813645154
4224,0.04586542971198439
4225,0.036843964951201055
4226,0.021669854570917208
4227,0.0031501885905708222
4228,-0.014389165414069663
4229,-0.026340498784577275
4230,-0.02887999549113608
4231,-0.020356408183403268
4232,-0.0026363018113425177
4233,0.01869846767928152
4234,0.035999612326619204
4235,0.04256789695267781
4236,0.03566058896595481
4237,0.01803177205330364
4238,-0.002901355868307158
4239,-0.01823283438607575
4240,-0.021813654055443797
4241,-0.013268462796444305
4242,0.0022986372341168623
4243,0.017967305992307607
4244,0.029441900916486175
4245,0.03680715814504751
4246,0.042342843938256054
4247,0.04677539639757459
4248,0.0479291088349669
4249,0.04339755716116328
4250,0.034608042952714885
4251,0.027753136400042025
4252,0.02973784748697946
4253,0.04219621812800914
4254,0.05897112522804038
4255,0.06971950052558695
4256,0.06694086030738913
4257,0.050759918464490975
4258,0.02792981545147868
4259,0.006570940606919765
4260,-0.008633432807087796
4261,-0.01734037520086079
4262,-0.021103890779938104
4263,-0.020839001987225367
4264,-0.016639721903614575
4265,-0.009484924164052918
4266,-0.002464066711776627
4267,0.00012704266224373246
4268,-0.004730832791237498
4269,-0.016689741932059528
4270,-0.03187632902625405
4271,-0.04470083517685056
4272,-0.050487591793006215
4273,-0.047553114532630364
4274,-0.03779175428068436
4275,-0.025504321001586006
4276,-0.015014363262894405
4277,-0.008396411353487492
4278,-0.004817611045978148
4279,-0.002033794600455803
4280,0.0011231064842568603
4281,0.003478318415184644
4282,0.0028414026632180307
4283,-0.0010461030131420934
4284,-0.004761498944159782
4285,-0.002881228460108476
4286,0.0075892976070806115
4287,0.023544848000402643
4288,0.03640342309657852
4289,0.03732271988510144
4290,0.023347367509860825
4291,-0.00034952890028767383
4292,-0.024020976753689867
4293,-0.039851837990171446
4294,-0.04619268108026922
4295,-0.04650122259029429
4296,-0.044797163018975926
4297,-0.04235382239437824
4298,-0.03855225279780275
4299,-0.03413909301058352
4300,-0.03243053729034874
4301,-0.0362877985137003
4302,-0.043724448139764546
4303,-0.04732376612967875
4304,-0.03928659307596803
4305,-0.01799293916456745
4306,0.01022518131583849
4307,0.036038636374686836
4308,0.05404852032660891
4309,0.06506721585029307
4310,0.07237169255587741
4311,0.07726074173911436
4312,0.07972092291546992
4313,0.08326740386196077
4314,0.0967666003178955
4315,0.12845106172427945
4316,0.17712243853849957
4317,0.23175344319095248
4318,0.2841167544056187
4319,0.3437709143562311
4320,0.4365025990965946
4321,0.5782209920382759
4322,0.7403063715672659
4323,0.8379484354560898
4324,0.7622765557340566
4325,0.4445062922234241
4326,-0.08857693856036314
4327,-0.7084409211816518
4328,-1.2371879829701196
4329,-1.5283967483071197
4330,-1.528638623893289
4331,-1.2874728501487418
4332,-0.9183353633461577
4333,-0.5401524922285534
4334,-0.23308059413231164
4335,-0.0248716911962904
4336,0.09669009427617975
4337,0.16093251205607628
4338,0.19510685368267608
4339,0.21510664635253057
4340,0.2254294172247414
4341,0.22451087170264478
4342,0.21107276375016254
4343,0.1879835370838439
4344,0.16200498006373132
4345,0.1403528797165179
4346,0.12690808129935013
4347,0.12076655862303576
4348,0.11773721941109186
4349,0.11319688925906225
4350,0.10418630025641142
4351,0.08987574428922346
4352,0.0710516036089788
4353,0.04965624410353711
4354,0.02863224066314346
4355,0.011509970840065775
4356,0.0012713089656501216
4357,-0.001137271127176316
4358,0.0023672565333925574
4359,0.0075814747203458484
4360,0.00978713055743484
4361,0.0057010518588664055
4362,-0.005396412579602493
4363,-0.02161617100391931
4364,-0.03905227512033148
4365,-0.05255765218889516
4366,-0.05683826342209121
4367,-0.04832365383982792
4368,-0.027600021113136627
4369,-0.000888404238922543
4370,0.02143172476365964
4371,0.02973606875451921
4372,0.021096566568108602
4373,0.002012827346419274
4374,-0.014862857036313638
4375,-0.018522776216126965
4376,-0.006619242928882187
4377,0.013474519263109577
4378,0.03030740707264537
4379,0.03624972340635882
4380,0.03164908642062432
4381,0.022638393792772778
4382,0.015273684282229687
4383,0.011255322918614391
4384,0.008405180198970222
4385,0.004599110725902624
4386,0.0010847564847576688
4387,0.002155594253576828
4388,0.011569388242064715
4389,0.028734031101285418
4390,0.04763749158921605
4391,0.059370617130101555
4392,0.05678166732792549
4393,0.03865549233895124
4394,0.011047784040445544
4395,-0.015279451244022033
4396,-0.03034261924174462
4397,-0.030380951681959763
4398,-0.01974707323013778
4399,-0.007649045773257972
4400,-0.0017574441375378643
4401,-0.003291081635267348
4402,-0.007293397687153775
4403,-0.007699004992873348
4404,-0.002800237418841756
4405,0.003556022010352084
4406,0.0058905578711897135
4407,0.002437004320613493
4408,-0.0029629555928361584
4409,-0.004104924833199214
4410,0.0020636734939046054
4411,0.012396760586608671
4412,0.019459232533338804
4413,0.016780396577643138
4414,0.0034322061386996595
4415,-0.015176725319001182
4416,-0.030469038953679202
4417,-0.03553813091570014
4418,-0.028798077884410887
4419,-0.014624812505590523
4420,-0.0008262280880332986
4421,0.005667897696732522
4422,0.0025080403910757378
4423,-0.007219057247664089
4424,-0.017552983722357158
4425,-0.023786060411625128
4426,-0.025019108608015678
4427,-0.02332377350520282
4428,-0.02076655562975917
4429,-0.017537218709008574
4430,-0.013145104058552747
4431,-0.00914925442017792
4432,-0.009829572461598025
4433,-0.019115608157057446
4434,-0.03632356390594153
4435,-0.05525063851481184
4436,-0.06827943843247349
4437,-0.07194140696578552
4438,-0.06847814286274173
4439,-0.061901805071828214
4440,-0.05305905124585183
4441,-0.03956244077167359
4442,-0.02102467740530308
4443,-0.003337893275401728
4444,0.0043773052848934246
4445,-0.0012005537121467344
4446,-0.011697928617673846
4447,-0.01196123374872302
4448,0.00720368927405836
4449,0.04067912054993674
4450,0.07426876910551924
4451,0.09896369882606548
4452,0.11922081301714632
4453,0.14552680597701106
4454,0.1789702393333331
4455,0.20691612261455733
4456,0.21954644202736742
4457,0.23323278993241187
4458,0.29244289587081573
4459,0.4358048451423774
4460,0.6461962571432068
4461,0.8284394652025873
4462,0.8453301190468849
4463,0.5986322481122462
4464,0.1017234652925779
4465,-0.5099250978166558
4466,-1.042058154897533
4467,-1.3383114289141016
4468,-1.3487574061514294
4469,-1.133081524367416
4470,-0.808357274186597
4471,-0.48394797592789013
4472,-0.22310330867540282
4473,-0.042189325829770766
4474,0.06869062981416332
4475,0.12638532910820605
4476,0.1472198016378637
4477,0.14720076601544607
4478,0.1414644835779314
4479,0.14030765944700402
4480,0.14572321607739408
4481,0.15266326585134793
4482,0.15442190426846802
4483,0.14765681078737042
4484,0.1334818690741475
4485,0.11507588279932128
4486,0.09500198367961118
4487,0.07465618907804128
4488,0.055486705145386166
4489,0.03988965620247063
4490,0.030385434294262374
4491,0.027674055500553914
4492,0.0293770137175603
4493,0.030741335390035013
4494,0.027015432360147335
4495,0.016004980253456216
4496,-0.000702238622881584
4497,-0.0184200122275358
4498,-0.03145529696315925
4499,-0.03553570918595422
4500,-0.029556270911767824
4501,-0.016034297699573978
4502,-0.00014090233234602878
4503,0.012352580531240888
4504,0.017420021992840075
4505,0.014360758201451657
4506,0.005798512286850995
4507,-0.0038802887915349894
4508,-0.010659088365932379
4509,-0.012286519202957327
4510,-0.008336899824946419
4511,0.0004760395644408848
4512,0.012610294037574556
4513,0.025238346784720703
4514,0.03394913785122221
4515,0.033992316846235826
4516,0.02322955908890874
4517,0.004942371819707951
4518,-0.012199357444454734
4519,-0.018140278941010654
4520,-0.007463116593528379
4521,0.016601713636847395
4522,0.043301982103634284
4523,0.06024106684088864
4524,0.060195615256421406
4525,0.04445034229083651
4526,0.02089385981866422
4527,-0.001146245464613809
4528,-0.015518963610666
4529,-0.020761792024179625
4530,-0.018822147403355534
4531,-0.013127653899072923
4532,-0.0075888977442684444
4533,-0.006235612378037741
4534,-0.012204284831165712
4535,-0.02578556538901608
4536,-0.04303053410865486
4537,-0.05683236952704028
4538,-0.0606090797931564
4539,-0.05223863859336235
4540,-0.03522613398917717
4541,-0.01613687600792945
4542,-0.00038218538152422167
4543,0.010301294293934957
4544,0.01705443773671897
4545,0.021201926726084976
4546,0.022581809492708656
4547,0.020442967719476405
4548,0.015676130217583358
4549,0.011713019580593433
4550,0.012699195639664316
4551,0.020225011813588437
4552,0.03141724723602146
4553,0.040179433365620396
4554,0.04081330404263564
4555,0.031424439072440635
4556,0.014836927698870423
4557,-0.0032893169254802354
4558,-0.017549477925395462
4559,-0.025039983882494232
4560,-0.0257222592737726
4561,-0.021350082106333712
4562,-0.01422386924190466
4563,-0.006710209748333055
4564,-0.0014038625533042946
4565,-0.0009688451228774221
4566,-0.006915158766128674
4567,-0.017813168724131634
4568,-0.028644278597040745
4569,-0.03276062336698558
4570,-0.025966239833339087
4571,-0.009995415442935706
4572,0.007643933746597664
4573,0.018032035718494606
4574,0.016502994857672877
4575,0.005345221391282718
4576,-0.008458125942981096
4577,-0.018328331730445686
4578,-0.021680390146682244
4579,-0.01941788178210465
4580,-0.012802004441942821
4581,-0.0015169571089928538
4582,0.014907935037765
4583,0.03408806409272323
4584,0.050036765317031176
4585,0.0564825618453127
4586,0.05181886483172789
4587,0.04113166150468875
4588,0.03302665713836005
4589,0.033591114285428283
4590,0.042390962608603575
4591,0.0535368724447823
4592,0.06042613595163688
4593,0.059938836751916844
4594,0.05300687099974367
4595,0.04209418609326614
4596,0.028661284555516385
4597,0.013017509546653294
4598,-0.0038134905538306984
4599,-0.01863607565818818
4600,-0.026998135615499998
4601,-0.02616824666761168
4602,-0.017879011886276247
4603,-0.008426988420469142
4604,-0.0054751688520360275
4605,-0.013283769161812502
4606,-0.02953418413765689
4607,-0.046305755902363556
4608,-0.05511508840427873
4609,-0.05275261652682592
4610,-0.043452347910174646
4611,-0.03532481293714959
4612,-0.0336883684391785
4613,-0.037007684605446456
4614,-0.039256338029787424
4615,-0.03664427973460942
4616,-0.032105736344648715
4617,-0.03263113937262946
4618,-0.04156159575230356
4619,-0.053610611214050974
4620,-0.05841259451269735
4621,-0.04997644856034075
4622,-0.03284292980012503
4623,-0.018303660588466244
4624,-0.01391238173723096
4625,-0.01672626356748852
4626,-0.017231687808632656
4627,-0.009724341645114713
4628,0.002224738492003973
4629,0.011450933785773491
4630,0.017729612646900282
4631,0.030704780284298874
4632,0.06082537909860643
4633,0.10837089212297507
4634,0.16496994340407603
4635,0.22890772374468416
4636,0.31702020314675183
4637,0.45310867346248374
4638,0.6334017944072956
4639,0.796955785442913
4640,0.835200411522631
4641,0.6483994212273414
4642,0.21646251664311694
4643,-0.3675728090983416
4644,-0.9312612318329805
4645,-1.3058817770489317
4646,-1.405706279660671
4647,-1.2549623226130548
4648,-0.9535637054600274
4649,-0.6137981705358388
4650,-0.3119108147573736
4651,-0.07718826129717238
4652,0.09047622729177965
4653,0.19916344598530983
4654,0.2563239735877846
4655,0.27163073321256004
4656,0.260083169350746
4657,0.23850457470243863
4658,0.21858357036724754
4659,0.20368716967802675
4660,0.19196517485077094
4661,0.18151670114002968
4662,0.17216972433586453
4663,0.1632041826030858
4664,0.15114928557189222
4665,0.1313757068726201
4666,0.10251131219533356
4667,0.06916074816558533
4668,0.039793023586346586
4669,0.021337352351017136
4670,0.015081104049340622
4671,0.016978292699433455
4672,0.021294295765662746
4673,0.023930004699488208
4674,0.023026290581757404
4675,0.017716639911530198
4676,0.007554323266464493
4677,-0.006343878761132857
4678,-0.020070488303269372
4679,-0.027968259197908647
4680,-0.026115831318967372
4681,-0.015609687478840527
4682,-0.0025522507575374076
4683,0.005724125271675128
4684,0.005393844082900927
4685,-0.001812111747756785
4686,-0.01055526688199825
4687,-0.015871966318948057
4688,-0.015946234501082023
4689,-0.012019422151951425
4690,-0.006419064418051533
4691,-0.000890857231696895
4692,0.0035759599986336828
4693,0.00602292147932184
4694,0.005205880486382535
4695,0.0002150377913208057
4696,-0.008593078355263944
4697,-0.019263931981431056
4698,-0.02878681892484906
4699,-0.03412043165122901
4700,-0.03326028920598122
4701,-0.026176032142849533
4702,-0.015401435760987351
4703,-0.005714334553812414
4704,-0.002413832736183171
4705,-0.008620108604969808
4706,-0.02313965871210262
4707,-0.04053516418697843
4708,-0.053672724397094716
4709,-0.0572111200469068
4710,-0.04984335643862004
4711,-0.034175554981040836
4712,-0.014904583246283111
4713,0.0031551231016891433
4714,0.01621461056115029
4715,0.02199368107292053
