,0
0,108
1,114
2,121
3,168
4,154
5,149
6,141
7,109
8,112
9,104
10,117
11,131
12,129
13,126
14,134
15,119
16,134
17,132
18,161
19,131
20,100
21,139
22,116
23,129
24,132
25,117
26,114
27,118
28,118
29,106
30,151
31,108
32,139
33,107
34,115
35,126
36,151
37,122
38,123
39,122
40,116
41,125
42,112
43,130
44,171
45,124
46,128
47,124
48,103
49,100
50,118
51,118
52,168
53,151
54,174
55,156
56,199
57,125
58,122
59,108
60,123
61,112
62,126
63,129
64,120
65,161
66,131
67,127
68,121
69,100
70,119
71,128
72,107
73,118
74,130
75,117
76,116
77,124
78,121
79,122
80,121
81,128
82,131
83,138
84,119
85,126
86,126
87,138
88,129
89,154
90,111
91,111
92,120
93,142
94,126
95,106
96,119
97,128
98,105
99,113
100,118
101,108
102,122
103,116
104,114
105,117
106,113
107,107
108,178
109,158
110,131
111,141
112,149
113,120
114,132
115,113
116,112
117,130
118,103
119,127
120,137
121,150
122,114
123,121
124,112
125,115
126,119
127,114
128,117
129,114
130,117
131,128
132,120
133,116
134,112
135,134
136,112
137,124
138,107
139,117
140,127
141,115
142,110
143,124
144,117
145,125
146,153
147,126
148,203
149,180
150,195
151,100
152,145
153,137
154,206
155,137
156,113
157,130
158,141
159,153
160,126
161,128
162,113
163,105
164,119
165,119
166,117
167,103
168,107
169,135
170,137
171,147
172,126
173,132
174,156
175,153
176,114
177,122
178,173
179,120
180,128
181,105
182,137
183,122
184,124
185,148
186,138
187,125
188,120
189,135
190,123
191,102
192,125
193,120
194,137
195,123
196,117
197,123
198,150
199,118
200,197
201,164
202,97
203,123
204,165
205,135
206,135
207,129
208,130
209,111
210,139
211,121
212,149
213,151
214,212
215,169
216,134
217,155
218,137
219,159
220,174
221,158
222,138
223,117
224,117
225,142
226,172
227,158
228,139
229,166
230,127
231,110
232,120
233,105
234,106
235,120
236,114
237,118
238,139
239,107
240,96
241,122
242,111
243,134
244,125
245,119
246,261
247,102
248,163
249,101
250,163
251,188
252,120
253,136
254,119
255,117
256,152
257,120
258,115
259,107
260,181
261,121
262,116
263,95
264,154
265,139
266,120
267,113
268,134
269,95
270,107
271,101
272,127
273,136
274,126
275,133
276,136
277,126
278,145
279,142
280,119
281,112
282,110
283,115
284,121
285,133
286,141
287,126
288,167
289,114
290,206
291,141
292,135
293,168
294,143
295,110
296,146
297,116
298,119
299,106
300,133
301,104
302,120
303,139
304,133
305,134
306,113
307,115
308,115
309,134
310,180
311,163
312,133
313,131
314,136
315,141
316,119
317,100
318,141
319,122
320,186
321,185
322,133
323,124
324,110
325,121
326,148
327,152
328,134
329,115
330,119
331,156
332,116
333,120
334,113
335,113
336,133
337,114
338,123
339,109
340,126
341,119
342,114
343,111
344,112
345,108
346,123
347,131
348,108
349,108
350,135
351,147
352,138
353,117
354,127
355,114
356,130
357,161
358,119
359,121
360,119
361,118
362,113
363,132
364,111
365,105
366,117
367,129
368,103
369,96
370,177
371,125
372,169
373,152
374,158
375,202
376,110
377,108
378,139
379,147
380,129
381,161
382,129
383,122
384,131
385,109
386,112
387,121
388,122
389,105
390,121
391,115
392,106
393,106
394,119
395,125
396,119
397,111
398,97
399,119
400,129
401,127
402,170
403,127
404,118
405,159
406,139
407,176
408,164
409,112
410,95
411,123
412,121
413,126
414,120
415,157
416,129
417,189
418,208
419,121
420,119
421,115
422,115
423,127
424,114
425,127
426,158
427,114
428,123
429,135
430,142
431,118
432,118
433,120
434,330
435,131
436,116
437,161
438,133
439,104
440,123
441,130
442,132
443,127
444,122
445,138
446,126
447,152
448,126
449,201
450,145
451,147
452,119
453,113
454,130
455,127
456,165
457,141
458,134
459,142
460,113
461,185
462,157
463,134
464,119
465,154
466,133
467,106
468,159
469,180
470,118
471,159
472,144
473,136
474,136
475,148
476,120
477,124
478,117
479,101
480,126
481,105
482,111
483,130
484,126
485,108
486,116
487,110
488,117
489,125
490,127
491,162
492,150
493,120
494,118
495,122
496,99
497,177
498,109
499,107
500,106
501,103
502,106
503,104
504,111
505,105
506,144
507,136
508,130
509,141
510,137
511,156
512,131
513,119
514,120
515,151
516,148
517,147
518,132
519,134
520,149
521,119
522,108
523,104
524,110
525,115
526,129
527,109
528,113
529,111
530,120
531,117
532,161
533,122
534,140
535,129
536,123
537,122
538,106
539,125
540,136
541,199
542,151
543,118
544,126
545,139
546,126
547,162
548,123
549,148
550,183
551,129
552,140
553,191
554,136
555,127
556,130
557,118
558,131
559,166
560,147
561,125
562,127
563,170
564,182
565,122
566,116
567,118
568,104
569,187
570,173
571,120
572,150
573,109
574,118
575,166
576,103
577,103
578,113
579,108
580,122
581,155
582,138
583,116
584,149
585,135
586,156
587,158
588,140
589,108
590,114
591,216
592,156
593,127
594,121
595,112
596,114
597,112
598,128
599,125
600,159
601,139
602,144
603,121
604,125
605,159
606,196
607,153
608,121
609,134
610,133
611,123
612,112
613,112
614,109
615,166
616,140
617,107
618,141
619,103
620,123
621,161
622,113
623,117
624,170
625,141
626,117
627,118
628,122
629,107
630,112
631,133
632,165
633,146
634,131
635,133
636,125
637,135
638,114
639,223
640,126
641,182
642,125
643,117
644,105
645,118
646,108
647,114
648,144
649,148
650,122
651,112
652,104
653,119
654,113
655,110
656,124
657,157
658,121
659,119
660,113
661,151
662,183
663,121
664,124
665,103
666,125
667,118
668,114
669,175
670,135
671,119
672,101
673,120
674,122
675,130
676,157
677,125
678,113
679,115
680,106
681,178
682,176
683,166
684,122
685,111
686,124
687,153
688,150
689,144
690,122
691,127
692,131
693,145
694,132
695,117
696,124
697,126
698,182
699,128
700,133
701,117
702,150
703,120
704,129
705,162
706,138
707,131
708,151
709,122
710,112
711,197
712,117
713,133
714,161
715,160
716,113
717,117
718,162
719,123
720,111
721,193
722,120
723,124
724,121
725,108
726,132
727,132
728,134
729,154
730,114
731,120
732,125
733,161
734,124
735,115
736,114
737,123
738,121
739,125
740,102
741,167
742,175
743,132
744,121
745,116
746,103
747,111
748,119
749,103
750,119
751,131
752,134
753,118
754,210
755,185
756,119
757,150
758,164
759,130
760,131
761,112
762,156
763,140
764,112
765,102
766,164
767,125
768,116
769,135
770,149
771,116
772,122
773,116
774,113
775,130
776,138
777,127
778,125
779,112
780,130
781,114
782,116
783,129
784,141
785,128
786,163
787,118
788,110
789,119
790,123
791,130
792,144
793,126
794,145
795,117
796,122
797,116
798,117
799,116
800,123
801,122
802,155
803,115
804,122
805,149
806,123
807,120
808,119
809,105
810,122
811,105
812,152
813,119
814,144
815,145
816,120
817,187
818,137
819,122
820,145
821,120
822,122
823,119
824,117
825,102
826,108
827,98
828,98
829,191
830,125
831,122
832,110
833,130
834,163
835,124
836,154
837,117
838,119
839,104
840,96
841,110
842,134
843,160
844,127
845,112
846,117
847,127
848,152
849,119
850,159
851,145
852,127
853,119
854,112
855,174
856,116
857,102
858,126
859,151
860,127
861,103
862,126
863,118
864,174
865,120
866,189
867,160
868,121
869,116
870,115
871,120
872,151
873,114
874,105
875,110
876,114
877,102
878,119
879,109
880,115
881,120
882,143
883,122
884,165
885,108
886,115
887,164
888,159
889,120
890,145
891,152
892,123
893,124
894,137
895,189
896,120
897,134
898,161
899,134
900,129
901,121
902,122
903,108
904,114
905,110
906,121
907,172
908,166
909,125
910,111
911,163
912,107
913,112
914,181
915,136
916,116
917,119
918,151
919,129
920,117
921,123
922,125
923,162
924,118
925,98
926,115
927,114
928,119
929,108
930,108
931,111
932,113
933,116
934,141
935,139
936,136
937,120
938,131
939,165
940,138
941,114
942,134
943,115
944,115
945,145
946,118
947,116
948,131
949,125
950,115
951,133
952,121
953,154
954,167
955,169
956,118
957,105
958,127
959,114
960,159
961,125
962,117
963,123
964,102
965,107
966,118
967,152
968,141
969,158
970,110
971,133
972,117
973,108
974,162
975,114
976,107
977,99
978,118
979,118
980,132
981,100
982,175
983,153
984,116
985,112
986,102
987,181
988,113
989,113
990,102
991,122
992,121
993,161
994,118
995,166
996,110
997,120
998,126
999,121
1000,107
1001,117
1002,102
1003,115
1004,112
1005,158
1006,154
1007,130
1008,123
1009,127
1010,148
1011,154
1012,154
1013,110
1014,182
1015,117
1016,110
1017,126
1018,146
1019,125
1020,159
1021,113
1022,109
1023,108
1024,109
1025,119
1026,110
1027,112
1028,149
1029,128
1030,152
1031,116
1032,116
1033,121
1034,149
1035,141
1036,109
1037,109
1038,123
1039,104
1040,117
1041,101
1042,120
1043,147
1044,111
1045,108
1046,170
1047,121
1048,124
1049,131
1050,114
1051,112
1052,110
1053,103
1054,168
1055,120
1056,115
1057,115
1058,139
1059,149
1060,209
1061,133
1062,133
1063,153
1064,132
1065,108
1066,128
1067,185
1068,111
1069,127
1070,164
1071,124
1072,117
1073,120
1074,100
1075,120
1076,126
1077,119
1078,127
1079,117
1080,112
1081,111
1082,175
1083,234
1084,100
1085,98
1086,134
1087,111
1088,123
1089,122
1090,116
1091,110
1092,116
1093,122
1094,152
1095,101
1096,117
1097,119
1098,108
1099,187
1100,115
1101,168
1102,108
1103,116
1104,114
1105,178
1106,131
1107,160
1108,111
1109,132
1110,154
1111,116
1112,110
1113,124
1114,139
1115,130
1116,114
1117,185
1118,134
1119,122
1120,117
1121,140
1122,99
1123,131
1124,168
1125,104
1126,108
1127,113
1128,140
1129,121
1130,141
1131,143
1132,108
1133,148
1134,125
1135,107
1136,106
1137,179
1138,122
1139,133
1140,189
1141,179
1142,125
1143,121
1144,96
1145,102
1146,127
1147,108
1148,113
1149,109
1150,110
1151,157
1152,107
1153,114
1154,144
1155,125
1156,164
1157,189
1158,127
1159,121
1160,147
1161,129
1162,105
1163,133
1164,171
1165,137
1166,119
1167,102
1168,110
1169,163
1170,133
1171,143
1172,121
1173,99
1174,101
1175,126
1176,224
1177,156
1178,120
1179,120
1180,141
1181,115
1182,124
1183,128
1184,136
1185,117
1186,125
1187,125
1188,142
1189,115
1190,110
1191,107
1192,112
1193,141
1194,131
1195,152
1196,101
1197,101
1198,103
1199,99
1200,108
1201,113
1202,148
1203,108
1204,114
1205,109
1206,176
1207,170
1208,160
1209,157
1210,121
1211,130
1212,123
1213,114
1214,152
1215,94
1216,107
1217,113
1218,108
1219,105
1220,157
1221,150
1222,178
1223,133
1224,126
1225,139
1226,129
1227,186
1228,113
1229,118
1230,173
1231,147
1232,122
1233,145
1234,123
1235,135
1236,112
1237,140
1238,104
1239,112
1240,119
1241,120
1242,115
1243,103
1244,658
1245,126
1246,133
1247,115
1248,155
1249,122
1250,110
1251,113
1252,113
1253,136
1254,163
1255,120
1256,174
1257,138
1258,130
1259,171
1260,119
1261,102
1262,121
1263,108
1264,106
1265,112
1266,125
1267,128
1268,119
1269,146
1270,113
1271,116
1272,126
1273,156
1274,129
1275,156
1276,126
1277,147
1278,100
1279,109
1280,162
1281,122
1282,183
1283,116
1284,117
1285,122
1286,119
1287,104
1288,145
1289,137
1290,119
1291,136
1292,128
1293,136
1294,161
1295,132
1296,114
1297,115
1298,98
1299,106
1300,110
1301,111
1302,124
1303,106
1304,147
1305,113
1306,107
1307,136
1308,126
1309,126
1310,159
1311,107
1312,150
1313,125
1314,108
1315,196
1316,123
1317,158
1318,122
1319,123
1320,129
1321,120
1322,139
1323,123
1324,110
1325,98
1326,102
1327,107
1328,133
1329,130
1330,122
1331,165
1332,152
1333,129
1334,142
1335,119
1336,114
1337,103
1338,105
1339,130
1340,124
1341,163
1342,123
1343,130
1344,132
1345,117
1346,103
1347,128
1348,129
1349,125
1350,109
1351,127
1352,125
1353,115
1354,123
1355,147
1356,122
1357,103
1358,217
1359,119
1360,165
1361,111
1362,215
1363,106
1364,169
1365,144
1366,162
1367,160
1368,145
1369,129
1370,200
1371,116
1372,111
1373,121
1374,121
1375,113
1376,119
1377,116
1378,164
1379,165
1380,130
1381,139
1382,138
1383,132
1384,125
1385,97
1386,107
1387,117
1388,123
1389,116
1390,116
1391,110
1392,106
1393,103
1394,121
1395,112
1396,141
1397,112
1398,107
1399,107
1400,107
1401,112
1402,102
1403,102
1404,141
1405,133
1406,117
1407,132
1408,143
1409,124
1410,107
1411,107
1412,167
1413,160
1414,121
1415,112
1416,122
1417,105
1418,170
1419,156
1420,112
1421,121
1422,106
1423,172
1424,132
1425,105
1426,125
1427,163
1428,109
1429,169
1430,104
1431,102
1432,102
1433,128
1434,100
1435,120
1436,127
1437,106
1438,103
1439,101
1440,103
1441,139
1442,120
1443,111
1444,114
1445,113
1446,165
1447,152
1448,103
1449,117
1450,110
1451,109
1452,112
1453,127
1454,121
1455,111
1456,121
1457,114
1458,153
1459,121
1460,146
1461,85
1462,46
1463,145
1464,137
1465,130
1466,116
1467,145
1468,109
1469,108
1470,134
1471,108
1472,120
1473,108
1474,119
1475,201
1476,116
1477,201
1478,177
1479,121
1480,107
1481,114
1482,168
1483,236
1484,126
1485,114
1486,110
1487,129
1488,164
1489,112
1490,164
1491,166
1492,108
1493,111
1494,210
1495,130
1496,120
1497,123
1498,116
1499,133
1500,150
1501,112
1502,218
1503,137
1504,170
1505,137
1506,156
1507,134
1508,111
1509,116
1510,113
1511,110
1512,114
1513,135
1514,141
1515,130
1516,117
1517,151
1518,128
1519,117
1520,120
1521,123
1522,109
1523,107
1524,102
1525,132
1526,104
1527,98
1528,114
1529,140
1530,104
1531,109
1532,180
1533,101
1534,108
1535,114
1536,199
1537,121
1538,112
1539,138
1540,158
1541,137
1542,154
1543,113
1544,117
1545,144
1546,160
1547,115
1548,118
1549,117
1550,147
1551,142
1552,121
1553,130
1554,148
1555,165
1556,146
1557,124
1558,104
1559,101
1560,118
1561,126
1562,101
1563,128
1564,133
1565,118
1566,119
1567,162
1568,116
1569,120
1570,119
1571,150
1572,125
1573,121
1574,120
1575,107
1576,123
1577,123
1578,156
1579,130
1580,112
1581,127
1582,109
1583,101
1584,112
1585,107
1586,115
1587,107
1588,109
1589,157
1590,100
1591,98
1592,105
1593,194
1594,114
1595,153
1596,116
1597,120
1598,100
1599,116
1600,141
1601,164
1602,112
1603,103
1604,95
1605,101
1606,104
1607,118
1608,132
1609,111
1610,136
1611,106
1612,105
1613,143
1614,149
1615,134
1616,109
1617,117
1618,141
1619,138
1620,125
1621,106
1622,107
1623,103
1624,133
1625,215
1626,127
1627,103
1628,106
1629,150
1630,120
1631,110
1632,131
1633,106
1634,107
1635,133
1636,119
1637,112
1638,186
1639,128
1640,167
1641,113
1642,130
1643,128
1644,126
1645,119
1646,113
1647,110
1648,167
1649,126
1650,137
1651,120
1652,109
1653,103
1654,113
1655,137
1656,146
1657,119
1658,128
1659,124
1660,109
1661,111
1662,114
1663,128
1664,117
1665,118
1666,118
1667,116
1668,111
1669,93
1670,111
1671,100
1672,99
1673,102
1674,131
1675,126
1676,113
1677,147
1678,144
1679,122
1680,112
1681,151
1682,157
1683,104
1684,111
1685,108
1686,103
1687,102
1688,109
1689,110
1690,102
1691,133
1692,113
1693,94
1694,99
1695,99
1696,150
1697,146
1698,126
1699,141
1700,110
1701,104
1702,145
1703,95
1704,114
1705,156
1706,107
1707,171
1708,126
1709,100
1710,103
1711,106
1712,115
1713,108
1714,97
1715,128
1716,110
1717,103
1718,103
1719,110
1720,121
1721,138
1722,119
1723,129
1724,162
1725,103
1726,107
1727,111
1728,113
1729,107
1730,99
1731,90
1732,123
1733,118
1734,150
1735,117
1736,143
1737,129
1738,106
1739,104
1740,114
1741,146
1742,117
1743,109
1744,117
1745,112
1746,119
1747,174
1748,101
1749,142
1750,110
1751,117
1752,171
1753,117
1754,153
1755,146
1756,140
1757,109
1758,118
1759,119
1760,102
1761,205
1762,103
1763,101
1764,106
1765,104
1766,106
1767,97
1768,105
1769,115
1770,135
1771,154
1772,119
1773,91
1774,104
1775,104
1776,111
1777,116
1778,183
1779,105
1780,122
1781,126
1782,123
1783,114
1784,116
1785,112
1786,143
1787,129
1788,122
1789,112
1790,104
1791,104
1792,110
1793,105
1794,112
1795,179
1796,98
1797,104
1798,104
1799,91
1800,104
1801,112
1802,105
1803,147
1804,104
1805,99
1806,110
1807,161
1808,114
1809,104
1810,94
1811,95
1812,91
1813,93
1814,98
1815,104
1816,141
1817,114
1818,103
1819,104
1820,139
1821,119
1822,175
1823,106
1824,115
1825,115
1826,138
1827,109
1828,94
1829,134
1830,105
1831,100
1832,153
1833,132
1834,113
1835,166
1836,108
1837,139
1838,115
1839,105
1840,118
1841,125
1842,96
1843,114
1844,144
1845,113
1846,106
1847,156
1848,154
1849,169
1850,100
1851,98
1852,98
1853,188
1854,140
1855,141
1856,117
1857,106
1858,163
1859,111
1860,97
1861,133
1862,151
1863,119
1864,177
1865,155
1866,128
1867,125
1868,108
1869,122
1870,144
1871,146
1872,113
1873,121
1874,118
1875,148
1876,130
1877,141
1878,114
1879,153
1880,131
1881,98
1882,139
1883,182
1884,113
1885,109
1886,115
1887,182
1888,118
1889,121
1890,153
1891,119
1892,117
1893,125
1894,110
1895,119
1896,135
1897,104
1898,110
1899,114
1900,115
1901,115
1902,97
1903,162
1904,142
1905,118
1906,144
1907,118
1908,126
1909,135
1910,96
1911,109
1912,117
1913,113
1914,159
1915,120
1916,170
1917,161
1918,117
1919,107
1920,114
1921,117
1922,95
1923,110
1924,171
1925,125
1926,110
1927,163
1928,106
1929,103
1930,99
1931,145
1932,137
1933,106
1934,86
1935,103
1936,114
1937,111
1938,105
1939,111
1940,126
1941,147
1942,122
1943,116
1944,162
1945,110
1946,137
1947,136
1948,122
1949,143
1950,117
1951,116
1952,135
1953,141
1954,107
1955,126
1956,117
1957,126
1958,129
1959,130
1960,133
1961,114
1962,160
1963,108
1964,121
1965,129
1966,105
1967,101
1968,148
1969,172
1970,159
1971,126
1972,98
1973,119
1974,116
1975,147
1976,105
1977,116
1978,106
1979,109
1980,111
1981,112
1982,127
1983,114
1984,171
1985,118
1986,105
1987,121
1988,110
1989,132
1990,123
1991,111
1992,56
1993,51
1994,101
1995,104
1996,100
1997,134
1998,128
1999,134
2000,130
2001,139
2002,114
2003,104
2004,113
2005,108
2006,107
2007,115
2008,122
2009,115
2010,170
2011,112
2012,112
2013,174
2014,120
2015,106
2016,116
2017,172
2018,112
2019,144
2020,116
2021,122
2022,120
2023,171
2024,99
2025,128
2026,138
2027,109
2028,114
2029,108
2030,114
2031,124
2032,135
2033,128
2034,128
2035,101
2036,106
2037,195
2038,116
2039,99
2040,100
2041,92
2042,114
2043,106
2044,124
2045,116
2046,137
2047,152
2048,141
2049,144
2050,150
2051,106
2052,105
2053,189
2054,110
2055,121
2056,115
2057,130
2058,143
2059,123
2060,101
2061,105
2062,104
2063,114
2064,97
2065,117
2066,145
2067,110
2068,111
2069,126
2070,133
2071,111
2072,151
2073,112
2074,103
2075,112
2076,107
2077,100
2078,103
2079,109
2080,109
2081,124
2082,101
2083,116
2084,92
2085,99
2086,111
2087,115
2088,107
2089,103
2090,148
2091,119
2092,125
2093,139
2094,144
2095,157
2096,115
2097,110
2098,101
2099,117
2100,101
2101,115
2102,146
2103,141
2104,146
2105,115
2106,104
2107,105
2108,128
2109,135
2110,107
2111,123
2112,108
2113,117
2114,136
2115,124
2116,116
2117,129
2118,111
2119,135
2120,164
2121,157
2122,115
2123,155
2124,104
2125,99
2126,149
2127,124
2128,106
2129,96
2130,146
2131,116
2132,109
2133,119
2134,110
2135,126
2136,92
2137,92
2138,99
2139,102
2140,102
2141,106
2142,169
2143,109
2144,115
2145,125
2146,109
2147,105
2148,120
2149,149
2150,131
2151,106
2152,147
2153,107
2154,114
2155,120
2156,117
2157,108
2158,117
2159,118
2160,111
2161,136
2162,100
2163,100
2164,102
2165,95
2166,100
2167,143
2168,127
2169,120
2170,108
2171,154
2172,128
2173,145
2174,121
2175,112
2176,116
2177,110
2178,101
2179,107
2180,111
2181,174
2182,157
2183,142
2184,149
2185,111
2186,112
2187,99
2188,112
2189,116
2190,104
2191,108
2192,115
2193,95
2194,110
2195,129
2196,121
2197,137
2198,135
2199,116
2200,130
2201,139
2202,122
2203,109
2204,105
2205,100
2206,118
2207,159
2208,115
2209,106
2210,113
2211,157
2212,131
2213,125
2214,141
2215,111
2216,122
2217,132
2218,147
2219,107
2220,147
2221,115
2222,158
2223,99
2224,101
2225,101
2226,197
2227,140
2228,106
2229,106
2230,114
2231,114
2232,95
2233,95
2234,96
2235,112
2236,113
2237,139
2238,121
2239,92
2240,107
2241,123
2242,123
2243,96
2244,102
2245,108
2246,100
2247,100
2248,152
2249,108
2250,101
2251,96
2252,114
2253,90
2254,116
2255,111
2256,137
2257,129
2258,113
2259,156
2260,108
2261,144
2262,131
2263,112
2264,147
2265,207
2266,143
2267,134
2268,142
2269,115
2270,113
2271,117
2272,107
2273,103
2274,104
2275,108
2276,102
2277,121
2278,110
2279,100
2280,97
2281,94
2282,101
2283,94
2284,101
2285,100
2286,122
2287,106
2288,155
2289,136
2290,107
2291,119
2292,112
2293,100
2294,99
2295,101
2296,108
2297,137
2298,123
2299,163
2300,94
2301,101
2302,107
2303,109
2304,103
2305,125
2306,137
2307,137
2308,112
2309,106
2310,105
2311,155
2312,100
2313,165
2314,150
2315,119
2316,108
2317,115
2318,106
2319,124
2320,140
2321,111
2322,202
2323,121
2324,141
2325,144
2326,105
2327,170
2328,130
2329,116
2330,110
2331,165
2332,155
2333,101
2334,142
2335,117
2336,106
2337,96
2338,137
2339,114
2340,171
2341,110
2342,113
2343,116
2344,115
2345,136
2346,120
2347,111
2348,116
2349,90
2350,138
2351,104
2352,113
2353,171
2354,115
2355,107
2356,97
2357,170
2358,121
2359,146
2360,111
2361,117
2362,102
2363,96
2364,111
2365,105
2366,112
2367,121
2368,122
2369,131
2370,111
2371,112
2372,116
2373,120
2374,109
2375,105
2376,126
2377,120
2378,131
2379,111
2380,156
2381,126
2382,102
2383,143
2384,169
2385,131
2386,107
2387,104
2388,120
2389,129
2390,117
2391,109
2392,105
2393,107
2394,113
2395,108
2396,120
2397,103
2398,108
2399,107
2400,116
2401,152
2402,116
2403,108
2404,146
2405,112
2406,112
2407,111
2408,106
2409,116
2410,124
2411,113
2412,115
2413,152
2414,153
2415,154
2416,112
2417,112
2418,152
2419,114
2420,108
2421,108
2422,100
2423,106
2424,102
2425,115
2426,124
2427,108
2428,114
2429,110
2430,97
2431,115
2432,116
2433,105
2434,109
2435,104
2436,104
2437,96
2438,103
2439,104
2440,112
2441,106
2442,113
2443,150
2444,129
2445,131
2446,144
2447,118
2448,129
2449,115
2450,100
2451,161
2452,109
2453,117
2454,108
2455,154
2456,108
2457,112
2458,122
2459,138
2460,107
2461,101
2462,115
2463,106
2464,114
2465,140
2466,110
2467,148
2468,105
2469,102
2470,94
2471,92
2472,96
2473,105
2474,67
2475,51
2476,135
2477,101
2478,229
2479,138
2480,156
2481,118
2482,147
2483,108
2484,107
2485,107
2486,108
2487,97
2488,91
2489,130
2490,133
2491,110
2492,104
2493,108
2494,115
2495,166
2496,133
2497,153
2498,116
2499,116
2500,163
2501,140
2502,116
2503,99
2504,100
2505,106
2506,164
2507,106
2508,106
2509,109
2510,113
2511,116
2512,100
2513,182
2514,141
2515,107
2516,104
2517,105
2518,107
2519,141
2520,133
2521,130
2522,136
2523,108
2524,96
2525,125
2526,129
2527,102
2528,129
2529,125
2530,116
2531,117
2532,128
2533,106
2534,95
2535,134
2536,115
2537,101
2538,91
2539,102
2540,119
2541,146
2542,115
2543,174
2544,149
2545,141
2546,134
2547,108
2548,134
2549,131
2550,171
2551,114
2552,113
2553,148
2554,118
2555,103
2556,117
2557,120
2558,111
2559,199
2560,107
2561,101
2562,166
2563,98
2564,101
2565,178
2566,141
2567,130
2568,109
2569,106
2570,102
2571,111
2572,145
2573,134
2574,112
2575,103
2576,118
2577,119
2578,104
2579,102
2580,196
2581,137
2582,128
2583,95
2584,120
2585,133
2586,96
2587,99
2588,116
2589,106
2590,116
2591,137
2592,147
2593,121
2594,136
2595,162
2596,115
2597,110
2598,112
2599,110
2600,107
2601,165
2602,98
2603,105
2604,122
2605,141
2606,114
2607,114
2608,103
2609,121
2610,108
2611,159
2612,136
2613,149
2614,145
2615,112
2616,117
2617,139
2618,118
2619,133
2620,122
2621,100
2622,115
2623,111
2624,108
2625,96
2626,99
2627,99
2628,104
2629,119
2630,107
2631,104
2632,108
2633,106
2634,107
2635,107
2636,103
2637,122
2638,111
2639,110
2640,129
2641,188
2642,152
2643,152
2644,121
2645,114
2646,112
2647,125
2648,109
2649,102
2650,189
2651,145
2652,122
2653,112
2654,112
2655,163
2656,180
2657,111
2658,149
2659,111
2660,153
2661,132
2662,112
2663,147
2664,128
2665,138
2666,127
2667,115
2668,147
2669,107
2670,104
2671,112
2672,116
2673,114
2674,107
2675,132
2676,102
2677,99
2678,93
2679,110
2680,107
2681,99
2682,109
2683,103
2684,151
2685,172
2686,124
2687,114
2688,138
2689,186
2690,104
2691,102
2692,116
2693,121
2694,105
2695,118
2696,116
2697,112
2698,131
2699,126
2700,115
2701,110
2702,151
2703,98
2704,95
2705,95
2706,93
2707,102
2708,98
2709,99
2710,97
2711,111
2712,110
2713,160
2714,94
2715,99
2716,103
2717,98
2718,98
2719,116
2720,104
2721,124
2722,96
2723,99
2724,100
2725,122
2726,125
2727,117
2728,109
2729,97
2730,108
2731,141
2732,121
2733,107
2734,128
2735,106
2736,103
2737,111
2738,98
2739,199
2740,112
2741,116
2742,113
2743,149
2744,113
2745,104
2746,108
2747,100
2748,101
2749,142
2750,118
2751,114
2752,101
2753,124
2754,126
2755,138
2756,113
2757,104
2758,122
2759,198
2760,155
2761,186
2762,150
2763,156
2764,173
2765,102
2766,94
2767,99
2768,178
2769,188
2770,114
2771,169
2772,125
2773,106
2774,158
2775,118
2776,127
2777,144
2778,127
2779,126
2780,105
2781,105
2782,111
2783,105
2784,122
2785,140
2786,117
2787,111
2788,164
2789,113
2790,151
2791,126
2792,128
2793,160
2794,110
2795,110
2796,112
2797,108
2798,100
2799,105
2800,100
2801,117
2802,124
2803,106
2804,108
2805,114
2806,101
2807,118
2808,100
2809,104
2810,121
2811,148
2812,117
2813,154
2814,122
2815,115
2816,108
2817,112
2818,99
2819,202
2820,119
2821,94
2822,110
2823,127
2824,104
2825,122
2826,110
2827,105
2828,98
2829,100
2830,120
2831,121
2832,108
2833,138
2834,96
2835,101
2836,96
2837,100
2838,93
2839,139
2840,117
2841,106
2842,124
2843,95
2844,97
2845,110
2846,97
2847,98
2848,176
2849,131
2850,109
2851,107
2852,102
2853,103
2854,105
2855,102
2856,128
2857,103
2858,130
2859,121
2860,121
2861,144
2862,128
2863,183
2864,130
2865,107
2866,97
2867,95
2868,96
2869,92
2870,96
2871,109
2872,99
2873,104
2874,112
2875,106
2876,99
2877,139
2878,134
2879,133
2880,113
2881,112
2882,140
2883,112
2884,111
2885,105
2886,102
2887,98
2888,97
2889,122
2890,121
2891,138
2892,124
2893,123
2894,113
2895,103
2896,121
2897,113
2898,110
2899,118
2900,110
2901,141
2902,131
2903,104
2904,115
2905,114
2906,115
2907,114
2908,109
2909,126
2910,101
2911,122
2912,107
2913,96
2914,109
2915,146
2916,127
2917,120
2918,118
2919,106
2920,102
2921,110
2922,103
2923,95
2924,123
2925,112
2926,119
2927,104
2928,113
2929,109
2930,127
2931,98
2932,104
2933,107
2934,142
2935,108
2936,101
2937,94
2938,127
2939,111
2940,106
2941,106
2942,123
2943,135
2944,112
2945,125
2946,103
2947,94
2948,187
2949,137
2950,122
2951,105
2952,109
2953,133
2954,92
2955,100
2956,97
2957,96
2958,133
2959,149
2960,109
2961,117
2962,111
2963,106
2964,132
2965,115
2966,146
2967,111
2968,120
2969,111
2970,109
2971,98
2972,97
2973,105
2974,118
2975,134
2976,121
2977,93
2978,100
2979,96
2980,157
2981,132
2982,132
2983,130
2984,100
2985,105
2986,102
2987,144
2988,103
2989,106
2990,98
2991,97
2992,141
2993,138
2994,118
2995,107
2996,104
2997,170
2998,140
2999,112
3000,160
3001,128
3002,144
3003,131
3004,106
3005,112
3006,156
3007,104
3008,107
3009,191
3010,139
3011,122
3012,112
3013,107
3014,106
3015,101
3016,99
3017,100
3018,100
3019,98
3020,100
3021,120
3022,119
3023,111
3024,139
3025,105
3026,149
3027,138
3028,112
3029,109
3030,109
3031,153
3032,113
3033,116
3034,110
3035,108
3036,105
3037,104
3038,97
3039,109
3040,153
3041,144
3042,123
3043,112
3044,99
3045,91
3046,91
3047,91
3048,93
3049,96
3050,98
3051,168
3052,143
3053,107
3054,118
3055,99
3056,129
3057,114
3058,118
3059,127
3060,146
3061,141
3062,118
3063,119
3064,112
3065,111
3066,107
3067,115
3068,171
3069,123
3070,133
3071,120
3072,140
3073,130
3074,137
3075,113
3076,116
3077,100
3078,113
3079,120
3080,106
3081,120
3082,105
3083,111
3084,105
3085,102
3086,103
3087,160
3088,96
3089,94
3090,86
3091,99
3092,104
3093,119
3094,108
3095,247
3096,107
3097,103
3098,106
3099,108
3100,92
3101,132
3102,117
3103,106
3104,116
3105,155
3106,103
3107,119
3108,164
3109,131
3110,121
3111,104
3112,119
3113,116
3114,165
3115,114
3116,134
3117,118
3118,113
3119,103
3120,104
3121,153
3122,100
3123,100
3124,104
3125,140
3126,147
3127,170
3128,113
3129,96
3130,99
3131,156
3132,105
3133,98
3134,127
3135,140
3136,128
3137,162
3138,128
3139,96
3140,103
3141,200
3142,119
3143,121
3144,172
3145,98
3146,95
3147,102
3148,143
3149,100
3150,101
3151,112
3152,139
3153,112
3154,128
3155,105
3156,96
3157,104
3158,161
3159,139
3160,117
3161,122
3162,117
3163,118
3164,108
3165,110
3166,99
3167,111
3168,87
3169,108
3170,99
3171,104
3172,101
3173,156
3174,132
3175,100
3176,107
3177,101
3178,107
3179,101
3180,107
3181,118
3182,92
3183,101
3184,99
3185,108
3186,93
3187,169
3188,109
3189,118
3190,95
3191,89
3192,97
3193,106
3194,104
3195,114
3196,147
3197,110
3198,144
3199,136
3200,136
3201,114
3202,113
3203,115
3204,103
3205,96
3206,97
3207,110
3208,112
3209,119
3210,147
3211,99
3212,189
3213,108
3214,106
3215,133
3216,113
3217,157
3218,127
3219,113
3220,141
3221,117
3222,173
3223,99
3224,106
3225,104
3226,160
3227,105
3228,157
3229,114
3230,110
3231,114
3232,96
3233,136
3234,115
3235,97
3236,134
3237,113
3238,111
3239,97
3240,114
3241,92
3242,97
3243,100
3244,102
3245,107
3246,107
3247,197
3248,101
3249,110
3250,120
3251,103
3252,102
3253,121
3254,125
3255,120
3256,106
3257,166
3258,109
3259,100
3260,93
3261,105
3262,110
3263,111
3264,124
3265,105
3266,102
3267,105
3268,109
3269,112
3270,113
3271,135
3272,113
3273,97
3274,108
3275,107
3276,124
3277,103
3278,100
3279,143
3280,152
3281,134
3282,140
3283,113
3284,100
3285,114
3286,108
3287,171
3288,94
3289,110
3290,117
3291,133
3292,126
3293,109
3294,107
3295,178
3296,141
3297,123
3298,111
3299,122
3300,102
3301,148
3302,98
3303,95
3304,97
3305,100
3306,114
3307,120
3308,164
3309,131
3310,110
3311,131
3312,106
3313,132
3314,146
3315,105
3316,115
3317,102
3318,119
3319,112
3320,123
3321,104
3322,152
3323,106
3324,109
3325,114
3326,110
3327,114
3328,110
3329,107
3330,110
3331,110
3332,113
3333,103
3334,109
3335,102
3336,106
3337,109
3338,111
3339,134
3340,134
3341,112
3342,111
3343,107
3344,146
3345,117
3346,119
3347,112
3348,104
3349,101
3350,115
3351,107
3352,96
3353,102
3354,103
3355,102
3356,100
3357,128
3358,168
3359,124
3360,122
3361,113
3362,162
3363,101
3364,98
3365,105
3366,120
3367,113
3368,110
3369,99
3370,144
3371,94
3372,102
3373,100
3374,99
3375,104
3376,166
3377,109
3378,103
3379,108
3380,116
3381,163
3382,115
3383,105
3384,100
3385,112
3386,118
3387,104
3388,114
3389,107
3390,107
3391,104
3392,121
3393,123
3394,110
3395,146
3396,100
3397,97
3398,109
3399,107
3400,110
3401,107
3402,116
3403,100
3404,101
3405,96
3406,108
3407,94
3408,95
3409,91
3410,95
3411,98
3412,117
3413,131
3414,101
3415,104
3416,105
3417,110
3418,185
3419,140
3420,109
3421,101
3422,108
3423,99
3424,99
3425,94
3426,103
3427,143
3428,127
3429,112
3430,118
3431,96
3432,94
3433,116
3434,135
3435,111
3436,121
3437,113
3438,110
3439,100
3440,100
3441,93
3442,111
3443,126
3444,134
3445,112
3446,98
3447,98
3448,159
3449,122
3450,110
3451,105
3452,106
3453,95
3454,113
3455,102
3456,106
3457,99
3458,91
3459,111
3460,126
3461,116
3462,127
3463,154
3464,110
3465,93
3466,95
3467,104
3468,115
3469,98
3470,107
3471,107
3472,94
3473,113
3474,97
3475,138
3476,112
3477,97
3478,98
3479,94
3480,177
3481,95
3482,91
3483,92
3484,94
3485,94
3486,143
3487,105
3488,138
3489,143
3490,146
3491,115
3492,109
3493,96
3494,98
3495,134
3496,151
3497,99
3498,88
3499,97
3500,155
3501,118
3502,97
3503,135
3504,139
3505,145
3506,109
3507,120
3508,115
3509,114
3510,117
3511,95
3512,102
3513,104
3514,100
3515,99
3516,154
3517,113
3518,135
3519,107
3520,99
3521,99
3522,108
3523,101
3524,101
3525,108
3526,113
3527,162
3528,99
3529,111
3530,141
3531,104
3532,109
3533,107
3534,97
3535,109
3536,190
3537,119
3538,122
3539,99
3540,96
3541,105
3542,159
3543,163
3544,109
3545,121
3546,118
3547,131
3548,113
3549,106
3550,170
3551,89
3552,136
3553,166
3554,107
3555,117
3556,98
3557,104
3558,115
3559,100
3560,98
3561,171
3562,100
3563,108
3564,101
3565,101
3566,148
3567,107
3568,164
3569,134
3570,114
3571,108
3572,105
3573,108
3574,114
3575,155
3576,117
3577,100
3578,161
3579,100
3580,132
3581,103
3582,108
3583,105
3584,137
3585,136
3586,108
3587,107
3588,139
3589,99
3590,96
3591,103
3592,127
3593,118
3594,187
3595,140
3596,132
3597,131
3598,130
3599,111
3600,103
3601,109
3602,100
3603,97
3604,96
3605,117
3606,101
3607,129
3608,93
3609,100
3610,102
3611,124
3612,102
3613,94
3614,190
3615,131
3616,117
3617,113
3618,122
3619,106
3620,103
3621,108
3622,106
3623,107
3624,132
3625,133
3626,124
3627,121
3628,146
3629,123
3630,119
3631,116
3632,103
3633,99
3634,100
3635,97
3636,89
3637,87
3638,96
3639,148
3640,107
3641,109
3642,98
3643,90
3644,99
3645,115
3646,146
3647,111
3648,120
3649,128
3650,117
3651,104
3652,103
3653,166
3654,108
3655,100
3656,150
3657,134
3658,139
3659,109
3660,113
3661,133
3662,158
3663,107
3664,93
3665,121
3666,128
3667,132
3668,106
3669,141
3670,148
3671,95
3672,168
3673,104
3674,160
3675,123
3676,127
3677,122
3678,128
3679,107
3680,100
3681,105
3682,91
3683,88
3684,101
3685,91
3686,91
3687,91
3688,96
3689,96
3690,98
3691,94
3692,101
3693,103
3694,161
3695,98
3696,117
3697,79
3698,159
3699,105
3700,109
3701,102
3702,95
3703,112
3704,117
3705,107
3706,99
3707,116
3708,133
3709,142
3710,90
3711,115
3712,118
3713,102
3714,100
3715,96
3716,95
3717,97
3718,101
3719,145
3720,101
3721,107
3722,113
3723,103
3724,151
3725,121
3726,134
3727,116
3728,107
3729,101
3730,101
3731,110
3732,105
3733,99
3734,102
3735,105
3736,155
3737,131
3738,147
3739,113
3740,135
3741,129
3742,101
3743,106
3744,131
3745,88
3746,112
3747,131
3748,104
3749,143
3750,115
3751,105
3752,101
3753,117
3754,97
3755,112
3756,93
3757,102
3758,138
3759,137
3760,112
3761,119
3762,108
3763,119
3764,111
3765,108
3766,108
3767,136
3768,202
3769,163
3770,138
3771,143
3772,143
3773,225
3774,161
3775,132
3776,120
3777,100
3778,97
3779,119
3780,134
3781,128
3782,123
3783,99
3784,98
3785,165
3786,107
3787,105
3788,110
3789,106
3790,101
3791,169
3792,113
3793,109
3794,102
3795,147
3796,111
3797,99
3798,105
3799,98
3800,102
3801,117
3802,158
3803,112
3804,110
3805,105
3806,114
3807,91
3808,154
3809,143
3810,125
3811,112
3812,114
3813,106
3814,104
3815,115
3816,147
3817,131
3818,121
3819,98
3820,92
3821,101
3822,109
3823,163
3824,140
3825,113
3826,101
3827,105
3828,106
3829,103
3830,114
3831,112
3832,103
3833,152
3834,102
3835,167
3836,111
3837,113
3838,103
3839,106
3840,173
3841,158
3842,99
3843,115
3844,112
3845,96
3846,106
3847,167
3848,120
3849,102
3850,102
3851,125
3852,106
3853,102
3854,107
3855,101
3856,98
3857,103
3858,100
3859,100
3860,102
3861,100
3862,92
3863,92
3864,92
3865,112
3866,133
3867,122
3868,107
3869,102
3870,98
3871,194
3872,150
3873,112
3874,104
3875,118
3876,147
3877,125
3878,134
3879,121
3880,121
3881,140
3882,102
3883,147
3884,106
3885,112
3886,151
3887,106
3888,101
3889,106
3890,108
3891,180
3892,98
3893,107
3894,118
3895,110
3896,154
3897,130
3898,109
3899,118
3900,107
3901,99
3902,171
3903,150
3904,112
3905,110
3906,154
3907,134
3908,128
3909,123
3910,99
3911,98
3912,165
3913,107
3914,105
3915,110
3916,106
3917,101
3918,169
3919,113
3920,109
3921,102
3922,147
3923,111
3924,99
3925,105
3926,98
3927,102
3928,117
3929,158
3930,112
3931,110
3932,105
3933,114
3934,91
3935,154
3936,143
3937,125
3938,112
3939,114
3940,106
3941,104
3942,115
3943,147
3944,131
3945,121
3946,98
3947,92
3948,101
3949,109
3950,163
3951,140
3952,113
3953,101
3954,105
3955,106
3956,103
3957,114
3958,112
3959,103
3960,152
3961,102
3962,167
3963,111
3964,113
3965,103
3966,106
3967,173
3968,158
3969,99
3970,115
3971,112
3972,96
3973,106
3974,167
3975,120
3976,102
3977,102
3978,125
3979,106
3980,102
3981,107
3982,101
3983,98
3984,103
3985,100
3986,100
3987,102
3988,100
3989,92
3990,92
3991,92
3992,112
3993,133
3994,122
3995,107
3996,102
3997,98
3998,194
3999,150
4000,112
4001,104
4002,118
4003,147
4004,125
4005,134
4006,121
4007,121
4008,140
4009,102
4010,147
4011,106
4012,112
4013,151
4014,106
4015,101
4016,106
4017,108
4018,180
4019,98
4020,107
4021,118
4022,110
4023,154
4024,130
4025,109
4026,118
4027,107
4028,99
4029,171
4030,150
4031,112
4032,110
4033,93
4034,115
4035,110
4036,103
4037,104
4038,149
4039,169
4040,117
4041,97
4042,107
4043,102
4044,114
4045,112
4046,182
4047,148
4048,112
4049,116
4050,117
4051,114
4052,146
4053,184
4054,115
4055,121
4056,110
4057,145
4058,110
4059,121
4060,140
4061,111
4062,133
4063,83
4064,255
4065,135
4066,156
4067,106
4068,112
4069,207
4070,109
4071,96
4072,149
4073,128
4074,100
4075,98
4076,117
4077,116
4078,123
4079,132
4080,112
4081,110
4082,155
4083,125
4084,103
4085,101
4086,95
4087,91
4088,102
4089,101
4090,96
4091,102
4092,114
4093,111
4094,121
4095,119
4096,115
4097,114
4098,102
4099,102
4100,95
4101,102
4102,129
4103,168
4104,131
4105,109
4106,110
4107,125
4108,130
4109,112
4110,163
4111,126
4112,107
4113,157
4114,116
4115,97
4116,98
4117,103
4118,104
4119,187
4120,106
4121,149
4122,142
4123,142
4124,114
4125,143
4126,136
4127,141
4128,120
4129,113
4130,98
4131,98
4132,117
4133,150
4134,108
4135,108
4136,106
4137,104
4138,109
4139,100
4140,114
4141,109
4142,105
4143,100
4144,130
4145,121
4146,184
4147,113
4148,130
4149,104
4150,103
4151,102
4152,104
4153,102
4154,97
4155,95
4156,107
4157,103
4158,108
4159,106
4160,115
4161,105
4162,103
4163,121
4164,118
4165,165
4166,125
4167,108
4168,111
4169,128
4170,119
4171,105
4172,105
4173,113
4174,168
4175,119
4176,158
4177,98
4178,143
4179,86
4180,140
4181,89
4182,156
4183,117
4184,105
4185,103
4186,101
4187,107
4188,161
4189,113
4190,109
4191,125
4192,118
4193,109
4194,139
4195,102
4196,108
4197,98
4198,118
4199,106
4200,99
4201,106
4202,109
4203,134
4204,154
4205,158
4206,106
4207,102
4208,95
4209,106
4210,103
4211,107
4212,105
4213,102
4214,101
4215,91
4216,98
4217,106
4218,121
4219,159
4220,121
4221,138
4222,110
4223,126
4224,109
4225,114
4226,117
4227,118
4228,118
4229,166
4230,105
4231,107
4232,98
4233,101
4234,109
4235,154
4236,110
4237,102
4238,114
4239,158
4240,114
4241,119
4242,115
4243,110
4244,113
4245,158
4246,107
4247,106
4248,158
4249,116
4250,133
4251,119
4252,113
4253,104
4254,147
4255,118
4256,119
4257,132
4258,153
4259,159
4260,121
4261,101
4262,98
4263,99
4264,115
4265,144
4266,125
4267,117
4268,118
4269,103
4270,197
4271,169
4272,163
4273,126
4274,113
4275,158
4276,117
4277,99
4278,144
4279,105
4280,96
4281,124
