0,-0.032,-0.032,-0.032,-0.032,-0.068,-0.068,-0.068,-0.068,-0.068,-0.10300000000000001,-0.10300000000000001,-0.10300000000000001,-0.10300000000000001,-0.10300000000000001,-0.10300000000000001,-0.10300000000000001,-0.10300000000000001,-0.10300000000000001,-0.10300000000000001,-0.10300000000000001,-0.10300000000000001,-0.10300000000000001,-0.10300000000000001,-0.068,-0.068,-0.068,-0.10300000000000001,-0.10300000000000001,-0.068,-0.068,-0.068,-0.068,-0.068,-0.068,-0.068,-0.068,-0.068,-0.068,-0.068,-0.068,-0.068,-0.032,-0.032,-0.032,-0.032,-0.032,-0.032,-0.032,-0.032,-0.032,-0.032,-0.032,-0.032,-0.032,0.003,0.003,0.003,0.037000000000000005,0.037000000000000005,0.037000000000000005,0.073,0.073,0.073,0.073,0.073,0.10800000000000001,0.10800000000000001,0.10800000000000001,0.14400000000000002,0.14400000000000002,0.14400000000000002,0.14400000000000002,0.14400000000000002,0.14400000000000002,0.14400000000000002,0.14400000000000002,0.14400000000000002,0.14400000000000002,0.179,0.179,0.179,0.179,0.179,0.179,0.179,0.179,0.179,0.215,0.215,0.215,0.215,0.215,0.215,0.215,0.215,0.215,0.215,0.179,0.179,0.179,0.179,0.179,0.179,0.179,0.179,0.14400000000000002,0.14400000000000002,0.14400000000000002,0.14400000000000002,0.14400000000000002,0.10800000000000001,0.10800000000000001,0.10800000000000001,0.10800000000000001,0.073,0.073,0.037000000000000005,0.037000000000000005,0.037000000000000005,0.037000000000000005,0.003,0.003,0.003,0.003,0.003,0.003,0.003,-0.032,-0.032,0.003,0.003,0.003,0.003,0.003,0.003,0.003,0.037000000000000005,0.037000000000000005,0.037000000000000005,0.037000000000000005,0.037000000000000005,0.003,0.003,0.003,0.003,0.003,0.003,0.003,0.003,0.003,0.003,0.003,0.003,0.003,0.003,0.003,0.003,0.003,0.003,0.003,0.003,0.003,0.003,0.003,0.003,0.003,0.003,0.003,0.003,0.003,0.003,0.003,0.003,0.003,0.003,0.003,0.003,0.003,0.003,0.003,0.003,0.003,0.003,0.003,-0.032,-0.032,-0.032,-0.032,-0.068,-0.10300000000000001,-0.10300000000000001,-0.10300000000000001,-0.068,-0.032,0.003,0.10800000000000001,0.215,0.321,0.499,0.64,0.711,0.711,0.675,0.499,0.35700000000000004,0.179,0.073,0.003,-0.032,-0.068,-0.10300000000000001,-0.139,-0.139,-0.139,-0.10300000000000001,-0.068,-0.068,-0.032,0.003,0.003,0.003,-0.032,-0.032,-0.032,-0.068,-0.068,-0.10300000000000001,-0.10300000000000001,-0.10300000000000001,-0.10300000000000001,-0.139,-0.174,-0.174,-0.174,-0.174,-0.174,-0.174,-0.174,-0.174,-0.174,-0.174,-0.174,-0.174,-0.174,-0.174,-0.174,-0.174,-0.174,-0.174,-0.174,-0.174,-0.174,-0.174,-0.174,-0.174,-0.174,-0.174,-0.174,-0.174,-0.139,-0.139,-0.139,-0.139,-0.139,-0.10300000000000001,-0.10300000000000001,-0.10300000000000001,-0.10300000000000001,-0.10300000000000001,-0.10300000000000001,-0.10300000000000001,-0.10300000000000001,-0.10300000000000001,-0.068,-0.068,-0.032,-0.032,-0.032,-0.032,-0.032,-0.032,0.003,0.003,0.003,0.003,0.037000000000000005,0.037000000000000005,0.073,0.073,0.073,0.10800000000000001,0.10800000000000001,0.14400000000000002,0.179,0.179,0.179,0.179,0.215,0.179,0.179,0.179,0.215,0.215,0.215,0.215,0.215,0.215,0.215,0.215,0.215,0.179,0.179,0.14400000000000002,0.14400000000000002,0.14400000000000002,0.14400000000000002,0.10800000000000001,0.10800000000000001,0.073,0.073,0.073,0.073,0.037000000000000005,0.037000000000000005,0.003,0.003,0.003,0.003,0.003,0.003,0.003,0.003,-0.032,-0.032,-0.032,-0.068,-0.068,-0.068,-0.068,-0.032,-0.032,-0.032,-0.032,0.003,0.003,-0.032,-0.032,-0.032,-0.068,-0.068,-0.032,-0.032,-0.068,-0.068,-0.068,-0.068,-0.068,-0.032,-0.032,-0.032,-0.032,-0.032,-0.032,-0.068,-0.068,-0.068,-0.032,-0.032,-0.032,-0.032,-0.032,-0.032,-0.032,-0.032,-0.032,-0.032,-0.032,-0.032,0.003,0.003,0.003,0.003,0.003,0.003,0.003,0.003,0.003,0.037000000000000005,0.037000000000000005,0.037000000000000005,0.037000000000000005,0.037000000000000005,0.037000000000000005,0.003,0.003,0.003,0.003,0.003,-0.032,-0.032,-0.032,-0.032,-0.032,-0.032,-0.032,-0.032,-0.068,-0.068,-0.068,-0.068,-0.032,-0.032,-0.032,-0.032,-0.032,-0.032,-0.032,-0.032,-0.032,-0.032,-0.032,-0.032,-0.068,-0.068,-0.068,-0.068,-0.032,-0.068,-0.068,-0.032,-0.068,-0.032,-0.032,-0.032,-0.032,-0.032,-0.032,-0.032,-0.032,-0.032,-0.032,-0.032,-0.032,-0.032,-0.032,-0.068,-0.068,-0.032,-0.032,-0.032,-0.032,-0.032,-0.032,-0.032,-0.032,-0.068,-0.068,-0.068,-0.032,-0.032,-0.068,-0.032,0.003,0.003,0.003,0.003,0.003,0.003,0.003,0.003,0.003,0.037000000000000005,0.037000000000000005,0.037000000000000005,0.037000000000000005,0.037000000000000005,0.037000000000000005,0.037000000000000005,0.003,0.003,0.003,0.003,0.003,0.003,0.003,0.003,0.003,0.003,0.003,0.003,0.003,0.003,0.003,-0.032,-0.032,-0.032,-0.032,-0.068,-0.032,-0.032,-0.032,-0.032,0.003,0.003,0.003,0.003,0.003,0.003,0.003,0.003,0.003,0.003,0.003,0.003,0.003,0.003,0.003,0.003,0.003,0.003,0.003,0.003,0.003,0.003,-0.032,-0.032,0.003,0.003,0.003,0.003,0.003,-0.032,-0.032,-0.032,-0.032,-0.032,-0.032,0.003,0.003,0.003,0.003,0.003,0.037000000000000005,0.037000000000000005,0.003,0.003,0.037000000000000005,0.037000000000000005,0.037000000000000005,0.037000000000000005,0.037000000000000005,0.037000000000000005,0.037000000000000005,0.037000000000000005,0.003,0.003,0.003,0.003,0.003,0.003,0.003,0.003,0.003,0.003,0.003,0.003,0.003,0.003,0.037000000000000005,0.073,0.14400000000000002,0.215,0.321,0.46399999999999997,0.569,0.711,0.782,0.8170000000000001,0.782,0.675,0.499,0.321,0.215,0.10800000000000001,0.073,0.037000000000000005,0.003,-0.032,-0.10300000000000001,-0.174,-0.24600000000000002,-0.281,-0.281,-0.281,-0.24600000000000002,-0.21,-0.174,-0.139,-0.139,-0.10300000000000001,-0.10300000000000001,-0.10300000000000001,-0.10300000000000001,-0.10300000000000001,-0.10300000000000001,-0.068,-0.068,-0.068,-0.068,-0.10300000000000001,-0.10300000000000001,-0.10300000000000001,-0.10300000000000001,-0.10300000000000001,-0.10300000000000001,-0.068,-0.068,-0.032,-0.032,-0.032,0.003,0.003,0.003,0.003,0.003,0.003,0.003,0.003,0.003,0.003,0.003,0.003,0.003,0.003,0.003,-0.032,-0.032,-0.032,-0.032,-0.032,-0.068,-0.068,-0.068,-0.068,-0.068,-0.10300000000000001,-0.10300000000000001,-0.10300000000000001,-0.10300000000000001,-0.068,-0.068,-0.068,-0.068,-0.032,-0.068,-0.068,-0.032,-0.032,-0.032,0.003,0.003,0.003,0.003,0.003,0.037000000000000005,0.037000000000000005,0.037000000000000005,0.037000000000000005,0.073,0.073,0.073,0.073,0.073,0.073,0.10800000000000001,0.10800000000000001,0.14400000000000002,0.179,0.179,0.179,0.179,0.179,0.179,0.179,0.179,0.179,0.179,0.215,0.215,0.215,0.215,0.215,0.215,0.215,0.215,0.25,0.25,0.25,0.25,0.25,0.25,0.25,0.25,0.215,0.215,0.215,0.215,0.179,0.179,0.14400000000000002,0.14400000000000002,0.10800000000000001,0.073,0.073,0.037000000000000005,0.037000000000000005,0.003,0.003,0.003,0.003,0.003,-0.032,-0.032,-0.032,-0.032,-0.032,-0.032,-0.068,-0.068,-0.068,-0.068,-0.068,-0.068,-0.068,-0.068,-0.10300000000000001,-0.10300000000000001,-0.10300000000000001,-0.10300000000000001,-0.10300000000000001,-0.10300000000000001,-0.10300000000000001,-0.068,-0.068,-0.068,-0.068,-0.068,-0.068,-0.068,-0.068,-0.068,-0.068,-0.068,-0.068,-0.068,-0.068,-0.068,-0.068,-0.068,-0.068,-0.032,-0.032,-0.032,-0.032,-0.032,-0.032,-0.032,-0.032,-0.032,-0.032,-0.032,-0.032,-0.032,0.003,0.003,0.003,0.003,0.003,0.003,0.037000000000000005,0.037000000000000005,0.037000000000000005,0.037000000000000005,0.003,0.037000000000000005,0.037000000000000005,0.037000000000000005,0.037000000000000005,0.003,0.003,0.003,0.003,0.003,0.003,0.003,0.003,-0.032,-0.032,-0.068,-0.068,-0.068,-0.068,-0.068,-0.068,-0.068,-0.068,-0.068,-0.068,-0.068,-0.068,-0.068,-0.068,-0.068,-0.068,-0.068,-0.068,-0.068,-0.068,-0.068,-0.068,-0.068,-0.032,-0.032,-0.032,0.003,0.003,0.003,0.003,0.003,0.037000000000000005,0.037000000000000005,0.037000000000000005,0.037000000000000005,0.037000000000000005,0.037000000000000005,0.003,0.003,-0.032,-0.068,-0.139,-0.21,-0.281,-0.35200000000000004,-0.423,-0.494,-0.635,-0.848,-1.06,-1.237,-1.38,-1.4509999999999998,-1.52,-1.556,-1.591,-1.591,-1.556,-1.556,-1.556,-1.52,-1.486,-1.38,-1.273,-1.166,-1.06,-0.955,-0.848,-0.777,-0.67,-0.599,-0.528,-0.45899999999999996,-0.38799999999999996,-0.35200000000000004,-0.317,-0.24600000000000002,-0.21,-0.21,-0.21,-0.21,-0.21,-0.174,-0.174,-0.174,-0.139,-0.139,-0.10300000000000001,-0.068,-0.068,-0.032,0.003,0.003,0.037000000000000005,0.073,0.10800000000000001,0.10800000000000001,0.14400000000000002,0.14400000000000002,0.14400000000000002,0.179,0.179,0.179,0.179,0.215,0.215,0.215,0.215,0.215,0.25,0.25,0.25,0.25,0.28600000000000003,0.28600000000000003,0.28600000000000003,0.321,0.321,0.35700000000000004,0.35700000000000004,0.39299999999999996,0.39299999999999996,0.39299999999999996,0.428,0.46399999999999997,0.46399999999999997,0.499,0.499,0.5329999999999999,0.5329999999999999,0.569,0.604,0.604,0.64,0.675,0.675,0.711,0.746,0.746,0.782,0.8170000000000001,0.853,0.853,0.889,0.889,0.924,0.924,0.96,0.96,0.96,0.96,0.995,0.96,0.96,0.96,0.96,0.924,0.924,0.924,0.924,0.889,0.889,0.889,0.853,0.853,0.8170000000000001,0.8170000000000001,0.782,0.746,0.711,0.675,0.64,0.604,0.5329999999999999,0.499,0.46399999999999997,0.428,0.39299999999999996,0.35700000000000004,0.28600000000000003,0.28600000000000003,0.25,0.215,0.179,0.179,0.14400000000000002,0.10800000000000001,0.10800000000000001,0.10800000000000001,0.073,0.073,0.037000000000000005,0.037000000000000005,0.003,0.003,0.003,0.003,-0.032,-0.032,-0.032,-0.068,-0.068,-0.068,-0.068,-0.10300000000000001,-0.10300000000000001,-0.10300000000000001,-0.10300000000000001,-0.10300000000000001,-0.10300000000000001,-0.10300000000000001,-0.139,-0.139,-0.139,-0.139,-0.139,-0.139,-0.139,-0.139,-0.139,-0.139,-0.174,-0.174,-0.174,-0.174,-0.174,-0.139,-0.139,-0.139,-0.139,-0.139,-0.139,-0.139,-0.139,-0.139,-0.139,-0.10300000000000001,-0.10300000000000001,-0.10300000000000001,-0.10300000000000001,-0.10300000000000001,-0.10300000000000001,-0.10300000000000001,-0.10300000000000001,-0.10300000000000001,-0.10300000000000001,-0.10300000000000001,-0.10300000000000001,-0.10300000000000001,-0.10300000000000001,-0.10300000000000001,-0.068,-0.068,-0.032,-0.032,-0.032,-0.032,-0.032,-0.032,-0.068,-0.068,-0.10300000000000001,-0.10300000000000001,-0.10300000000000001,-0.10300000000000001,-0.139,-0.139,-0.139,-0.139,-0.174,-0.174,-0.174,-0.174,-0.174,-0.174,-0.174,-0.174,-0.174,-0.174,-0.174,-0.174,-0.21,-0.174,-0.21,-0.174,-0.174,-0.174,-0.174,-0.174,-0.174,-0.174,-0.174,-0.174,-0.174,-0.174,-0.174,-0.174,-0.174,-0.174,-0.174,-0.174,-0.174,-0.174,-0.174,-0.174,-0.174,-0.174,-0.174,-0.174,-0.174,-0.174,-0.174,-0.139,-0.139,-0.174,-0.174,-0.139,-0.139,-0.139,-0.10300000000000001,-0.10300000000000001,-0.10300000000000001,-0.10300000000000001,-0.10300000000000001,-0.10300000000000001,-0.10300000000000001,-0.10300000000000001,-0.10300000000000001,-0.10300000000000001,-0.10300000000000001,-0.068,-0.068,-0.068,-0.032,-0.032,-0.032,-0.032,0.003,0.003,-0.032,-0.032,0.003,0.003,0.037000000000000005,0.073,0.179,0.25,0.35700000000000004,0.499,0.64,0.675,0.64,0.5329999999999999,0.35700000000000004,0.215,0.073,0.003,-0.068,-0.174,-0.24600000000000002,-0.281,-0.317,-0.35200000000000004,-0.35200000000000004,-0.35200000000000004,-0.317,-0.281,-0.21,-0.21,-0.174,-0.139,-0.139,-0.174,-0.174,-0.174,-0.174,-0.174,-0.174,-0.174,-0.174,-0.174,-0.174,-0.174,-0.174,-0.174,-0.21,-0.21,-0.21,-0.21,-0.21,-0.174,-0.174,-0.174,-0.174,-0.139,-0.139,-0.139,-0.139,-0.139,-0.139,-0.139,-0.139,-0.139,-0.10300000000000001,-0.10300000000000001,-0.10300000000000001,-0.10300000000000001,-0.10300000000000001,-0.10300000000000001,-0.10300000000000001,-0.068,-0.068,-0.032,-0.032,-0.032,-0.032,-0.032,-0.032,-0.032,0.003,0.003,0.003,0.003,0.003,0.003,0.003,-0.032,-0.032,-0.032,-0.032,-0.032,-0.032,-0.032,-0.032,-0.032,-0.032,0.003,0.003,0.003,0.003,0.003,0.003,0.003,0.037000000000000005,0.073,0.073,0.073,0.073,0.073,0.073,0.073,0.073,0.10800000000000001,0.10800000000000001,0.10800000000000001,0.10800000000000001,0.10800000000000001,0.10800000000000001,0.10800000000000001,0.14400000000000002,0.14400000000000002,0.14400000000000002,0.14400000000000002,0.179,0.14400000000000002,0.179,0.179,0.179,0.179,0.179,0.179,0.14400000000000002,0.14400000000000002,0.14400000000000002,0.14400000000000002,0.10800000000000001,0.10800000000000001,0.10800000000000001,0.073,0.073,0.073,0.037000000000000005,0.037000000000000005,0.037000000000000005,0.003,0.003,0.003,0.003,0.003,0.003,0.003,0.003,0.003,0.037000000000000005,0.037000000000000005,0.003,0.003,0.003,0.003,0.003,0.003,0.003,0.003,-0.032,-0.032,-0.032,-0.032,-0.068,-0.068,-0.068,-0.068,-0.068,-0.10300000000000001,-0.10300000000000001,-0.10300000000000001,-0.10300000000000001,-0.10300000000000001,-0.10300000000000001,-0.10300000000000001,-0.10300000000000001,-0.10300000000000001,-0.10300000000000001,-0.10300000000000001,-0.10300000000000001,-0.10300000000000001,-0.068,-0.068,-0.068,-0.068,-0.068,-0.068,-0.10300000000000001,-0.10300000000000001,-0.10300000000000001,-0.10300000000000001,-0.10300000000000001,-0.10300000000000001,-0.068,-0.068,-0.068,-0.068,-0.068,-0.068,-0.068,-0.068,-0.068,-0.032,-0.032,-0.032,-0.032,-0.032,-0.032,-0.032,-0.032,-0.032,-0.032,-0.032,-0.032,-0.032,-0.032,-0.032,-0.032,-0.032,-0.032,-0.032,-0.032,0.003,0.003,0.003,0.073,0.14400000000000002,0.25,0.35700000000000004,0.46399999999999997,0.5329999999999999,0.604,0.604,0.499,0.35700000000000004,0.215,0.10800000000000001,0.003,0.003,0.003,0.003,-0.032,-0.10300000000000001,-0.174,-0.21,-0.24600000000000002,-0.24600000000000002,-0.24600000000000002,-0.24600000000000002,-0.21,-0.174,-0.139,-0.10300000000000001,-0.10300000000000001,-0.10300000000000001,-0.10300000000000001,-0.139,-0.139,-0.139,-0.139,-0.139,-0.139,-0.139,-0.139,-0.139,-0.139,-0.139,-0.174,-0.174,-0.174,-0.174,-0.139,-0.139,-0.139,-0.139,-0.139,-0.139,-0.10300000000000001,-0.10300000000000001,-0.10300000000000001,-0.139,-0.139,-0.139,-0.139,-0.10300000000000001,-0.10300000000000001,-0.10300000000000001,-0.10300000000000001,-0.10300000000000001,-0.10300000000000001,-0.10300000000000001,-0.10300000000000001,-0.068,-0.068,-0.068,-0.10300000000000001,-0.10300000000000001,-0.068,-0.068,-0.032,-0.032,0.003,0.003,0.003,0.003,0.003,0.003,0.003,0.003,0.003,0.037000000000000005,0.037000000000000005,0.037000000000000005,0.073,0.073,0.073,0.073,0.073,0.10800000000000001,0.10800000000000001,0.10800000000000001,0.14400000000000002,0.14400000000000002,0.179,0.179,0.179,0.179,0.179,0.179,0.215,0.215,0.215,0.215,0.215,0.215,0.215,0.215,0.215,0.215,0.179,0.179,0.179,0.179,0.179,0.179,0.179,0.179,0.179,0.179,0.179,0.14400000000000002,0.10800000000000001,0.10800000000000001,0.073,0.073,0.073,0.073,0.073
1,-0.10300000000000001,-0.139,-0.139,-0.139,-0.139,-0.139,-0.139,-0.139,-0.139,-0.139,-0.139,-0.139,-0.139,-0.139,-0.10300000000000001,-0.10300000000000001,-0.10300000000000001,-0.10300000000000001,-0.10300000000000001,-0.10300000000000001,-0.10300000000000001,-0.10300000000000001,-0.10300000000000001,-0.10300000000000001,-0.10300000000000001,-0.10300000000000001,-0.10300000000000001,-0.10300000000000001,-0.10300000000000001,-0.068,-0.068,-0.068,-0.068,-0.068,-0.068,-0.068,-0.068,-0.068,-0.068,-0.068,-0.068,-0.068,-0.068,-0.068,-0.032,-0.032,-0.032,-0.032,-0.032,-0.032,-0.032,0.003,0.003,0.003,0.003,0.003,0.003,0.003,0.003,0.003,0.003,0.037000000000000005,0.037000000000000005,0.073,0.073,0.10800000000000001,0.10800000000000001,0.10800000000000001,0.10800000000000001,0.10800000000000001,0.14400000000000002,0.14400000000000002,0.14400000000000002,0.14400000000000002,0.10800000000000001,0.10800000000000001,0.10800000000000001,0.10800000000000001,0.10800000000000001,0.14400000000000002,0.14400000000000002,0.14400000000000002,0.14400000000000002,0.14400000000000002,0.14400000000000002,0.14400000000000002,0.14400000000000002,0.179,0.179,0.179,0.14400000000000002,0.14400000000000002,0.14400000000000002,0.14400000000000002,0.14400000000000002,0.14400000000000002,0.14400000000000002,0.14400000000000002,0.14400000000000002,0.14400000000000002,0.14400000000000002,0.10800000000000001,0.10800000000000001,0.10800000000000001,0.10800000000000001,0.073,0.073,0.073,0.037000000000000005,0.037000000000000005,0.037000000000000005,0.037000000000000005,0.003,0.003,0.003,0.003,0.003,0.003,0.003,0.003,0.003,0.003,0.003,0.003,-0.032,-0.032,-0.032,-0.032,-0.032,-0.032,-0.032,0.003,0.003,0.003,0.003,0.003,0.003,0.003,0.003,0.003,0.003,0.003,0.003,0.003,0.003,0.003,0.003,0.003,-0.032,-0.032,-0.068,-0.068,-0.068,-0.068,-0.068,-0.068,-0.068,-0.068,-0.068,-0.068,-0.068,-0.032,-0.032,-0.032,-0.068,-0.068,-0.068,-0.068,-0.068,-0.068,-0.032,-0.032,-0.032,-0.032,-0.032,-0.032,-0.032,-0.032,-0.032,-0.032,-0.032,-0.032,-0.032,-0.032,-0.032,-0.032,-0.032,-0.032,0.003,-0.032,0.003,0.003,0.003,-0.032,-0.032,-0.032,-0.032,-0.032,-0.032,-0.032,-0.032,-0.032,-0.032,-0.032,-0.068,-0.068,-0.068,-0.10300000000000001,-0.068,-0.068,-0.032,0.003,0.073,0.179,0.28600000000000003,0.428,0.569,0.675,0.675,0.604,0.428,0.28600000000000003,0.14400000000000002,0.037000000000000005,0.003,-0.068,-0.10300000000000001,-0.174,-0.21,-0.24600000000000002,-0.281,-0.281,-0.24600000000000002,-0.24600000000000002,-0.21,-0.21,-0.174,-0.174,-0.139,-0.139,-0.139,-0.139,-0.139,-0.139,-0.139,-0.139,-0.139,-0.139,-0.139,-0.139,-0.139,-0.139,-0.139,-0.139,-0.139,-0.139,-0.139,-0.10300000000000001,-0.139,-0.139,-0.139,-0.139,-0.10300000000000001,-0.10300000000000001,-0.10300000000000001,-0.10300000000000001,-0.10300000000000001,-0.10300000000000001,-0.10300000000000001,-0.068,-0.068,-0.068,-0.068,-0.068,-0.068,-0.032,-0.032,-0.032,0.003,0.003,0.003,0.003,0.003,0.003,0.003,0.003,0.003,0.003,0.003,0.003,0.003,0.003,0.003,0.003,0.037000000000000005,0.037000000000000005,0.073,0.073,0.10800000000000001,0.10800000000000001,0.073,0.073,0.073,0.073,0.073,0.10800000000000001,0.10800000000000001,0.10800000000000001,0.10800000000000001,0.10800000000000001,0.10800000000000001,0.10800000000000001,0.14400000000000002,0.14400000000000002,0.14400000000000002,0.179,0.179,0.215,0.215,0.215,0.215,0.215,0.25,0.215,0.215,0.215,0.215,0.215,0.179,0.179,0.179,0.179,0.179,0.179,0.14400000000000002,0.14400000000000002,0.14400000000000002,0.10800000000000001,0.10800000000000001,0.073,0.073,0.073,0.073,0.073,0.073,0.073,0.073,0.073,0.073,0.037000000000000005,0.037000000000000005,0.003,0.003,0.003,0.003,0.003,0.003,0.003,0.003,0.003,0.003,0.003,0.003,0.003,-0.032,-0.032,-0.032,-0.032,-0.032,-0.032,-0.032,-0.032,-0.032,-0.032,-0.068,-0.068,-0.068,-0.068,-0.068,-0.068,-0.068,-0.068,-0.068,-0.068,-0.068,-0.068,-0.068,-0.068,-0.068,-0.068,-0.032,-0.032,0.003,0.003,0.003,0.003,0.003,-0.032,-0.032,-0.032,0.003,0.003,0.003,0.003,-0.032,0.003,0.003,0.003,0.003,0.003,0.003,-0.032,0.003,0.003,0.003,0.003,0.003,0.003,0.003,0.003,0.003,0.037000000000000005,0.037000000000000005,0.037000000000000005,0.037000000000000005,0.037000000000000005,0.037000000000000005,0.037000000000000005,0.037000000000000005,0.037000000000000005,0.037000000000000005,0.003,0.037000000000000005,0.037000000000000005,0.037000000000000005,0.037000000000000005,0.003,0.003,0.003,0.003,0.003,0.003,0.003,0.003,0.003,0.003,0.003,0.003,0.003,0.003,0.003,0.003,0.003,-0.032,-0.032,-0.032,0.003,0.003,0.003,0.003,0.003,0.003,0.003,0.003,0.003,0.003,0.003,0.003,-0.032,0.003,0.003,0.003,0.003,0.003,0.003,0.003,0.003,0.003,0.003,0.003,0.003,0.003,0.003,0.003,0.003,0.003,0.003,-0.032,-0.032,-0.032,-0.032,0.003,0.003,0.003,0.003,0.037000000000000005,0.037000000000000005,0.037000000000000005,0.003,0.003,0.003,0.003,0.003,0.037000000000000005,0.037000000000000005,0.037000000000000005,0.037000000000000005,0.037000000000000005,0.037000000000000005,0.003,0.003,0.003,0.003,0.003,0.003,0.003,0.003,0.003,0.003,0.003,0.003,0.003,0.003,0.003,0.003,0.003,0.003,0.003,0.003,-0.032,-0.032,-0.032,-0.032,0.003,0.003,0.003,0.003,0.003,0.003,0.003,0.003,0.003,0.003,0.003,0.003,0.003,0.003,0.003,0.003,0.003,0.003,0.003,0.003,0.003,0.003,0.003,0.037000000000000005,0.037000000000000005,0.037000000000000005,0.037000000000000005,0.037000000000000005,0.073,0.073,0.037000000000000005,0.037000000000000005,0.003,0.003,0.003,0.003,0.003,0.003,0.037000000000000005,0.073,0.10800000000000001,0.10800000000000001,0.10800000000000001,0.10800000000000001,0.10800000000000001,0.10800000000000001,0.073,0.073,0.073,0.073,0.037000000000000005,0.037000000000000005,0.037000000000000005,0.003,0.003,0.003,0.003,0.003,0.003,0.003,0.003,0.003,0.003,0.003,0.003,0.003,0.003,0.003,0.003,0.003,0.003,0.003,0.003,0.003,0.003,-0.032,0.003,0.003,0.003,0.003,0.003,0.037000000000000005,0.073,0.10800000000000001,0.14400000000000002,0.215,0.28600000000000003,0.39299999999999996,0.499,0.64,0.782,0.853,0.889,0.853,0.711,0.5329999999999999,0.39299999999999996,0.25,0.179,0.10800000000000001,0.073,0.003,-0.032,-0.10300000000000001,-0.174,-0.21,-0.24600000000000002,-0.24600000000000002,-0.24600000000000002,-0.21,-0.174,-0.139,-0.10300000000000001,-0.068,-0.032,-0.032,-0.032,0.003,0.003,0.003,0.003,0.003,0.003,0.003,0.003,0.003,0.003,0.003,-0.032,-0.032,-0.032,-0.032,-0.032,-0.068,-0.068,-0.068,-0.068,-0.068,-0.068,-0.068,-0.068,-0.068,-0.10300000000000001,-0.10300000000000001,-0.10300000000000001,-0.10300000000000001,-0.10300000000000001,-0.10300000000000001,-0.10300000000000001,-0.10300000000000001,-0.068,-0.10300000000000001,-0.10300000000000001,-0.10300000000000001,-0.10300000000000001,-0.068,-0.068,-0.068,-0.068,-0.068,-0.068,-0.068,-0.068,-0.068,-0.032,-0.032,0.003,0.003,0.003,0.003,0.003,0.003,0.003,0.003,0.003,0.003,0.037000000000000005,0.037000000000000005,0.037000000000000005,0.037000000000000005,0.073,0.073,0.073,0.073,0.10800000000000001,0.10800000000000001,0.14400000000000002,0.179,0.179,0.215,0.25,0.25,0.25,0.25,0.25,0.25,0.28600000000000003,0.25,0.25,0.25,0.25,0.25,0.25,0.25,0.25,0.25,0.25,0.25,0.25,0.215,0.215,0.215,0.215,0.215,0.179,0.179,0.179,0.14400000000000002,0.14400000000000002,0.14400000000000002,0.10800000000000001,0.10800000000000001,0.073,0.073,0.037000000000000005,0.037000000000000005,0.037000000000000005,0.003,0.003,0.003,0.003,0.003,0.003,0.003,0.003,0.003,0.003,0.003,0.003,-0.032,-0.032,-0.032,-0.032,-0.032,-0.032,-0.032,-0.068,-0.068,-0.068,-0.068,-0.068,-0.068,-0.068,-0.068,-0.068,-0.068,-0.032,-0.032,0.003,0.003,0.003,0.003,0.003,0.003,0.003,0.003,0.003,0.003,0.003,0.003,0.003,0.003,0.003,0.003,0.003,0.003,-0.032,-0.032,-0.032,-0.032,-0.032,-0.032,-0.032,-0.068,-0.068,-0.068,-0.068,-0.068,-0.068,-0.068,-0.068,-0.068,-0.068,-0.068,-0.10300000000000001,-0.10300000000000001,-0.10300000000000001,-0.068,-0.068,-0.068,-0.068,-0.068,-0.068,-0.068,-0.068,-0.068,-0.068,-0.068,-0.068,-0.068,-0.068,-0.068,-0.068,-0.068,-0.068,-0.068,-0.032,-0.068,-0.068,-0.068,-0.068,-0.068,-0.068,-0.068,-0.068,-0.068,-0.068,-0.068,-0.068,-0.068,-0.068,-0.068,-0.068,-0.068,-0.068,-0.068,-0.068,-0.032,-0.068,-0.032,0.003,0.003,0.073,0.10800000000000001,0.179,0.28600000000000003,0.39299999999999996,0.5329999999999999,0.64,0.711,0.675,0.5329999999999999,0.39299999999999996,0.25,0.10800000000000001,0.037000000000000005,0.003,-0.032,-0.068,-0.139,-0.174,-0.21,-0.24600000000000002,-0.24600000000000002,-0.21,-0.21,-0.174,-0.139,-0.139,-0.139,-0.139,-0.139,-0.139,-0.139,-0.174,-0.174,-0.174,-0.174,-0.174,-0.174,-0.174,-0.174,-0.174,-0.174,-0.174,-0.174,-0.174,-0.174,-0.174,-0.174,-0.174,-0.174,-0.174,-0.174,-0.174,-0.139,-0.139,-0.139,-0.139,-0.139,-0.139,-0.10300000000000001,-0.10300000000000001,-0.10300000000000001,-0.10300000000000001,-0.10300000000000001,-0.10300000000000001,-0.10300000000000001,-0.10300000000000001,-0.10300000000000001,-0.10300000000000001,-0.10300000000000001,-0.10300000000000001,-0.10300000000000001,-0.068,-0.068,-0.068,-0.068,-0.068,-0.068,-0.032,-0.032,-0.032,0.003,0.003,0.037000000000000005,0.037000000000000005,0.037000000000000005,0.037000000000000005,0.037000000000000005,0.037000000000000005,0.037000000000000005,0.073,0.073,0.073,0.073,0.073,0.10800000000000001,0.10800000000000001,0.10800000000000001,0.10800000000000001,0.10800000000000001,0.10800000000000001,0.10800000000000001,0.10800000000000001,0.10800000000000001,0.14400000000000002,0.14400000000000002,0.14400000000000002,0.14400000000000002,0.179,0.179,0.179,0.179,0.179,0.179,0.179,0.179,0.179,0.179,0.179,0.14400000000000002,0.14400000000000002,0.14400000000000002,0.10800000000000001,0.10800000000000001,0.10800000000000001,0.073,0.073,0.037000000000000005,0.037000000000000005,0.037000000000000005,0.037000000000000005,0.037000000000000005,0.003,0.003,0.003,0.003,0.003,-0.032,-0.032,-0.032,-0.068,-0.068,-0.068,-0.068,-0.068,-0.068,-0.068,-0.068,-0.068,-0.068,-0.068,-0.068,-0.068,-0.068,-0.032,-0.032,-0.032,-0.068,-0.068,-0.068,-0.068,-0.068,-0.068,-0.068,-0.068,-0.068,-0.068,-0.068,-0.068,-0.068,-0.068,-0.068,-0.10300000000000001,-0.10300000000000001,-0.10300000000000001,-0.10300000000000001,-0.068,-0.10300000000000001,-0.10300000000000001,-0.10300000000000001,-0.10300000000000001,-0.10300000000000001,-0.10300000000000001,-0.068,-0.10300000000000001,-0.10300000000000001,-0.10300000000000001,-0.10300000000000001,-0.068,-0.068,-0.068,-0.068,-0.068,-0.068,-0.068,-0.068,-0.068,-0.068,-0.068,-0.068,-0.068,-0.068,-0.068,-0.068,-0.068,-0.068,-0.068,-0.068,-0.068,-0.068,-0.068,-0.068,-0.068,-0.068,-0.068,-0.068,-0.068,-0.068,-0.068,-0.068,-0.032,-0.032,-0.032,-0.032,0.003,-0.032,-0.032,-0.032,0.003,0.003,0.003,0.003,0.003,0.003,-0.032,0.003,-0.032,-0.032,-0.032,-0.032,-0.032,-0.032,-0.032,-0.032,-0.032,-0.032,-0.032,-0.032,-0.032,-0.032,-0.032,-0.068,-0.068,-0.068,-0.068,-0.068,-0.068,-0.068,-0.068,-0.068,-0.068,-0.068,-0.068,-0.10300000000000001,-0.068,-0.068,-0.068,-0.10300000000000001,-0.10300000000000001,-0.10300000000000001,-0.10300000000000001,-0.10300000000000001,-0.10300000000000001,-0.10300000000000001,-0.10300000000000001,-0.068,-0.10300000000000001,-0.068,-0.068,-0.068,-0.068,-0.068,-0.068,-0.068,-0.068,-0.10300000000000001,-0.10300000000000001,-0.10300000000000001,-0.10300000000000001,-0.10300000000000001,-0.10300000000000001,-0.068,-0.068,-0.068,-0.068,-0.032,-0.032,0.003,0.003,0.003,0.003,0.003,0.003,0.003,-0.032,0.003,0.003,-0.032,-0.032,-0.032,-0.032,-0.032,-0.032,-0.032,-0.032,0.003,0.003,0.003,0.003,-0.032,-0.032,-0.032,-0.032,-0.032,-0.032,-0.032,-0.032,-0.032,-0.032,-0.032,-0.032,-0.032,-0.032,-0.032,-0.032,-0.032,-0.032,-0.032,-0.032,-0.032,-0.032,-0.032,-0.032,-0.032,0.003,0.003,0.073,0.179,0.25,0.35700000000000004,0.499,0.64,0.711,0.711,0.64,0.499,0.35700000000000004,0.179,0.073,-0.032,-0.10300000000000001,-0.21,-0.24600000000000002,-0.281,-0.317,-0.317,-0.281,-0.24600000000000002,-0.21,-0.174,-0.139,-0.068,-0.032,-0.032,-0.032,0.003,0.003,0.003,-0.032,-0.032,-0.032,-0.032,-0.032,-0.032,-0.032,-0.032,-0.032,-0.032,-0.032,-0.032,-0.032,-0.032,-0.068,-0.032,-0.032,-0.032,-0.032,-0.032,-0.032,-0.032,-0.032,-0.032,-0.032,-0.032,-0.032,-0.032,-0.032,-0.032,-0.032,-0.032,-0.032,-0.032,-0.032,-0.032,-0.032,-0.032,-0.032,-0.032,-0.032,-0.032,-0.032,-0.032,-0.032,-0.032,-0.032,0.003,0.003,0.003,0.003,0.003,0.003,0.003,0.003,0.003,0.003,0.037000000000000005,0.003,0.037000000000000005,0.037000000000000005,0.037000000000000005,0.037000000000000005,0.073,0.073,0.10800000000000001,0.10800000000000001,0.14400000000000002,0.179,0.179,0.215,0.215,0.215,0.215,0.25,0.25,0.25,0.25,0.25,0.25,0.25,0.28600000000000003,0.28600000000000003,0.321,0.321,0.321,0.321,0.321,0.321,0.321,0.28600000000000003,0.28600000000000003,0.28600000000000003,0.28600000000000003,0.28600000000000003,0.28600000000000003,0.28600000000000003,0.25,0.25,0.25,0.25,0.215,0.215,0.179,0.179,0.179,0.14400000000000002,0.10800000000000001,0.10800000000000001,0.10800000000000001,0.073,0.073,0.037000000000000005,0.037000000000000005,0.037000000000000005,0.003,0.003,0.003,0.003,0.003,0.003,0.003,0.003,0.003,0.003,-0.032,-0.032,-0.032,-0.032,-0.032,-0.032,-0.032,0.003,0.003,0.003,-0.032,-0.032,0.003,0.003,0.003,0.003,0.003,0.003,0.003,0.003,0.003,0.003,-0.032,0.003,0.003,0.003,0.003,0.003,0.003,-0.032,-0.032,0.003,0.003,0.003,0.003,0.003,0.003,0.003,0.003,0.003,0.003,0.003,-0.032,-0.032,-0.032,-0.032,-0.032,-0.032,-0.032,0.003,0.003,0.003,0.003,0.003,0.003,0.003,0.003,0.003,-0.032,0.003,0.003,0.003,-0.032,-0.032,-0.032,-0.032,-0.032,-0.032,-0.032,-0.032,0.003,0.037000000000000005,0.10800000000000001,0.179,0.321,0.46399999999999997,0.569,0.569,0.5329999999999999,0.46399999999999997,0.28600000000000003,0.179,0.037000000000000005,-0.032,-0.032,-0.068,-0.10300000000000001,-0.139,-0.174,-0.21,-0.21,-0.21,-0.21,-0.21,-0.174,-0.174,-0.139,-0.139,-0.10300000000000001,-0.10300000000000001,-0.10300000000000001,-0.10300000000000001,-0.068,-0.068,-0.032,-0.032,0.003,0.003,0.003,-0.032,-0.032,-0.068,-0.068,-0.068,-0.068,-0.068,-0.068,-0.068,-0.068,-0.068,-0.068,-0.068
2,-0.068,-0.068,-0.068,-0.068,-0.068,-0.068,-0.068,-0.10300000000000001,-0.10300000000000001,-0.068,-0.068,-0.068,-0.068,-0.068,-0.068,-0.068,-0.068,-0.068,-0.068,-0.068,-0.068,-0.068,-0.032,-0.032,0.003,0.003,0.003,0.003,0.003,0.003,0.003,0.003,0.003,0.003,0.003,-0.032,-0.032,-0.032,-0.032,-0.032,-0.032,-0.032,-0.032,-0.032,-0.032,-0.032,-0.032,-0.032,-0.032,-0.032,-0.032,0.003,0.003,0.003,0.003,0.003,0.003,0.003,0.003,0.003,0.003,0.003,0.003,0.037000000000000005,0.073,0.073,0.073,0.10800000000000001,0.10800000000000001,0.10800000000000001,0.14400000000000002,0.179,0.179,0.179,0.179,0.179,0.179,0.179,0.179,0.179,0.215,0.215,0.25,0.25,0.28600000000000003,0.28600000000000003,0.321,0.321,0.321,0.321,0.321,0.321,0.321,0.28600000000000003,0.28600000000000003,0.321,0.321,0.321,0.321,0.321,0.321,0.321,0.321,0.321,0.321,0.28600000000000003,0.25,0.215,0.179,0.10800000000000001,0.10800000000000001,0.073,0.073,0.073,0.073,0.073,0.073,0.037000000000000005,0.037000000000000005,0.037000000000000005,0.003,0.003,0.003,0.003,0.003,0.003,0.003,0.003,-0.032,-0.032,-0.032,-0.032,-0.032,-0.032,-0.032,0.003,-0.032,-0.032,-0.032,-0.032,-0.068,-0.032,-0.068,-0.068,-0.032,-0.068,-0.068,-0.068,-0.068,-0.10300000000000001,-0.10300000000000001,-0.068,-0.068,-0.068,-0.032,-0.032,-0.032,-0.032,-0.032,-0.032,-0.032,-0.032,-0.032,0.003,-0.032,-0.032,-0.032,-0.032,-0.032,-0.032,-0.032,-0.032,0.003,0.003,0.003,0.003,0.003,0.003,0.003,0.003,0.003,0.003,0.003,0.003,0.003,0.003,0.003,-0.032,0.003,0.003,0.003,0.003,0.003,0.003,0.003,-0.032,-0.032,0.003,-0.032,0.003,0.003,0.003,-0.032,-0.032,-0.068,-0.068,-0.10300000000000001,-0.10300000000000001,-0.068,-0.068,-0.032,-0.032,-0.068,-0.068,-0.068,-0.068,-0.032,0.003,0.037000000000000005,0.14400000000000002,0.25,0.35700000000000004,0.46399999999999997,0.5329999999999999,0.569,0.5329999999999999,0.39299999999999996,0.25,0.10800000000000001,0.037000000000000005,0.003,0.003,-0.032,-0.068,-0.139,-0.21,-0.24600000000000002,-0.24600000000000002,-0.281,-0.281,-0.281,-0.24600000000000002,-0.21,-0.21,-0.174,-0.174,-0.139,-0.139,-0.10300000000000001,-0.10300000000000001,-0.10300000000000001,-0.139,-0.139,-0.139,-0.139,-0.139,-0.139,-0.10300000000000001,-0.068,-0.068,-0.068,-0.068,-0.068,-0.068,-0.10300000000000001,-0.10300000000000001,-0.10300000000000001,-0.10300000000000001,-0.10300000000000001,-0.10300000000000001,-0.139,-0.139,-0.10300000000000001,-0.10300000000000001,-0.068,-0.068,-0.068,-0.068,-0.068,-0.068,-0.068,-0.068,-0.068,-0.10300000000000001,-0.10300000000000001,-0.10300000000000001,-0.10300000000000001,-0.068,-0.068,-0.068,-0.068,-0.068,-0.068,-0.068,-0.068,-0.068,-0.068,-0.068,-0.068,-0.032,-0.032,-0.032,0.003,0.003,-0.032,-0.032,-0.032,0.003,0.003,0.003,0.003,0.003,0.003,0.003,0.003,0.003,0.003,0.003,0.003,0.003,0.037000000000000005,0.073,0.10800000000000001,0.179,0.179,0.179,0.215,0.215,0.215,0.215,0.215,0.215,0.179,0.179,0.215,0.215,0.215,0.215,0.215,0.179,0.14400000000000002,0.10800000000000001,0.10800000000000001,0.10800000000000001,0.14400000000000002,0.14400000000000002,0.10800000000000001,0.073,0.073,0.073,0.073,0.037000000000000005,0.003,0.003,0.003,0.003,0.003,0.003,0.003,0.003,0.003,0.003,0.003,0.003,-0.032,-0.032,-0.032,0.003,-0.032,-0.032,-0.032,-0.068,-0.068,-0.068,-0.068,-0.068,-0.068,-0.068,-0.10300000000000001,-0.10300000000000001,-0.10300000000000001,-0.139,-0.174,-0.21,-0.21,-0.21,-0.174,-0.174,-0.174,-0.174,-0.139,-0.139,-0.139,-0.10300000000000001,-0.139,-0.139,-0.139,-0.139,-0.139,-0.139,-0.10300000000000001,-0.10300000000000001,-0.10300000000000001,-0.10300000000000001,-0.10300000000000001,-0.068,-0.068,-0.032,-0.068,-0.068,-0.068,-0.068,-0.068,-0.068,-0.032,-0.032,-0.032,-0.032,-0.032,-0.032,-0.032,-0.032,-0.032,-0.032,-0.032,-0.032,-0.032,-0.068,-0.068,-0.032,-0.032,-0.032,-0.032,-0.032,-0.068,-0.032,-0.032,-0.032,-0.068,-0.032,-0.068,-0.068,-0.10300000000000001,-0.10300000000000001,-0.10300000000000001,-0.10300000000000001,-0.139,-0.139,-0.174,-0.174,-0.174,-0.174,-0.174,-0.174,-0.174,-0.21,-0.21,-0.21,-0.21,-0.21,-0.174,-0.174,-0.174,-0.174,-0.174,-0.174,-0.174,-0.174,-0.174,-0.139,-0.139,-0.10300000000000001,-0.10300000000000001,-0.139,-0.10300000000000001,-0.10300000000000001,-0.10300000000000001,-0.10300000000000001,-0.139,-0.139,-0.10300000000000001,-0.10300000000000001,-0.068,-0.068,-0.032,-0.032,0.003,0.003,0.003,0.003,0.003,-0.032,-0.032,-0.068,-0.068,-0.068,-0.032,-0.032,-0.032,-0.032,0.003,-0.032,-0.032,-0.068,-0.10300000000000001,-0.068,-0.068,-0.068,-0.032,-0.032,-0.032,-0.068,-0.068,-0.068,-0.068,-0.068,-0.068,-0.10300000000000001,-0.139,-0.139,-0.174,-0.174,-0.139,-0.139,-0.10300000000000001,-0.10300000000000001,-0.10300000000000001,-0.10300000000000001,-0.139,-0.174,-0.174,-0.174,-0.174,-0.174,-0.139,-0.10300000000000001,-0.10300000000000001,-0.10300000000000001,-0.139,-0.139,-0.139,-0.10300000000000001,-0.10300000000000001,-0.10300000000000001,-0.10300000000000001,-0.10300000000000001,-0.10300000000000001,-0.10300000000000001,-0.10300000000000001,-0.139,-0.10300000000000001,-0.10300000000000001,-0.068,-0.032,-0.032,-0.032,-0.068,-0.032,-0.032,-0.032,-0.032,-0.032,0.003,0.003,0.003,0.003,0.003,0.003,0.003,0.003,0.003,-0.032,-0.032,-0.032,-0.068,-0.068,-0.068,-0.032,-0.032,-0.032,0.003,0.003,0.003,0.037000000000000005,0.037000000000000005,0.037000000000000005,0.073,0.10800000000000001,0.215,0.321,0.46399999999999997,0.569,0.675,0.782,0.782,0.711,0.569,0.35700000000000004,0.179,0.037000000000000005,-0.032,-0.068,-0.139,-0.21,-0.281,-0.35200000000000004,-0.423,-0.494,-0.494,-0.494,-0.45899999999999996,-0.38799999999999996,-0.35200000000000004,-0.35200000000000004,-0.317,-0.317,-0.317,-0.281,-0.24600000000000002,-0.24600000000000002,-0.21,-0.21,-0.24600000000000002,-0.21,-0.21,-0.21,-0.21,-0.21,-0.21,-0.21,-0.21,-0.21,-0.21,-0.21,-0.21,-0.21,-0.21,-0.21,-0.174,-0.174,-0.174,-0.174,-0.174,-0.174,-0.174,-0.174,-0.174,-0.174,-0.174,-0.174,-0.174,-0.174,-0.174,-0.139,-0.139,-0.174,-0.139,-0.139,-0.139,-0.139,-0.139,-0.10300000000000001,-0.10300000000000001,-0.139,-0.139,-0.139,-0.10300000000000001,-0.10300000000000001,-0.10300000000000001,-0.10300000000000001,-0.10300000000000001,-0.10300000000000001,-0.068,-0.068,-0.032,-0.032,-0.068,-0.068,-0.068,-0.068,-0.068,-0.068,-0.068,-0.068,-0.032,-0.032,0.003,0.003,0.003,0.003,0.003,0.003,0.003,0.037000000000000005,0.037000000000000005,0.073,0.073,0.073,0.10800000000000001,0.10800000000000001,0.10800000000000001,0.14400000000000002,0.179,0.179,0.179,0.179,0.179,0.179,0.179,0.179,0.179,0.179,0.179,0.179,0.215,0.215,0.179,0.179,0.179,0.14400000000000002,0.10800000000000001,0.10800000000000001,0.073,0.073,0.073,0.037000000000000005,0.037000000000000005,0.003,0.003,0.003,0.003,0.003,0.003,0.003,-0.032,-0.032,-0.032,-0.068,-0.068,-0.068,-0.10300000000000001,-0.10300000000000001,-0.10300000000000001,-0.139,-0.139,-0.174,-0.174,-0.174,-0.21,-0.174,-0.174,-0.174,-0.21,-0.21,-0.21,-0.21,-0.24600000000000002,-0.21,-0.21,-0.21,-0.174,-0.21,-0.21,-0.174,-0.21,-0.21,-0.21,-0.21,-0.21,-0.21,-0.174,-0.174,-0.174,-0.174,-0.139,-0.139,-0.139,-0.139,-0.139,-0.139,-0.10300000000000001,-0.10300000000000001,-0.10300000000000001,-0.10300000000000001,-0.10300000000000001,-0.10300000000000001,-0.10300000000000001,-0.10300000000000001,-0.10300000000000001,-0.10300000000000001,-0.10300000000000001,-0.10300000000000001,-0.068,-0.068,-0.068,-0.068,-0.068,-0.068,-0.068,-0.068,-0.068,-0.068,-0.068,-0.068,-0.068,-0.068,-0.068,-0.068,-0.068,-0.068,-0.10300000000000001,-0.10300000000000001,-0.10300000000000001,-0.10300000000000001,-0.10300000000000001,-0.10300000000000001,-0.10300000000000001,-0.10300000000000001,-0.10300000000000001,-0.10300000000000001,-0.068,-0.068,-0.10300000000000001,-0.10300000000000001,-0.10300000000000001,-0.10300000000000001,-0.10300000000000001,-0.068,-0.068,-0.032,-0.032,-0.032,-0.032,-0.032,-0.032,-0.032,0.003,0.003,0.003,0.037000000000000005,0.037000000000000005,0.037000000000000005,0.037000000000000005,0.037000000000000005,0.003,0.003,-0.032,-0.068,-0.139,-0.21,-0.317,-0.38799999999999996,-0.45899999999999996,-0.564,-0.67,-0.848,-1.095,-1.273,-1.4509999999999998,-1.556,-1.591,-1.662,-1.662,-1.662,-1.662,-1.6269999999999998,-1.6269999999999998,-1.591,-1.556,-1.486,-1.415,-1.3090000000000002,-1.202,-1.095,-0.99,-0.919,-0.848,-0.777,-0.67,-0.599,-0.564,-0.528,-0.494,-0.45899999999999996,-0.423,-0.38799999999999996,-0.38799999999999996,-0.35200000000000004,-0.317,-0.281,-0.24600000000000002,-0.24600000000000002,-0.21,-0.174,-0.139,-0.139,-0.10300000000000001,-0.10300000000000001,-0.068,-0.032,0.003,0.037000000000000005,0.037000000000000005,0.073,0.073,0.073,0.10800000000000001,0.10800000000000001,0.10800000000000001,0.10800000000000001,0.14400000000000002,0.179,0.179,0.179,0.179,0.215,0.215,0.215,0.215,0.25,0.25,0.25,0.28600000000000003,0.28600000000000003,0.321,0.35700000000000004,0.35700000000000004,0.35700000000000004,0.39299999999999996,0.428,0.46399999999999997,0.46399999999999997,0.499,0.499,0.5329999999999999,0.5329999999999999,0.569,0.604,0.64,0.64,0.675,0.675,0.711,0.746,0.782,0.782,0.8170000000000001,0.853,0.853,0.889,0.924,0.924,0.96,0.995,0.995,0.995,1.0290000000000001,1.0290000000000001,0.995,0.995,0.995,0.995,0.96,0.924,0.924,0.889,0.889,0.853,0.8170000000000001,0.8170000000000001,0.782,0.782,0.746,0.711,0.64,0.64,0.569,0.5329999999999999,0.5329999999999999,0.499,0.499,0.46399999999999997,0.428,0.39299999999999996,0.39299999999999996,0.35700000000000004,0.321,0.25,0.215,0.179,0.14400000000000002,0.10800000000000001,0.10800000000000001,0.10800000000000001,0.10800000000000001,0.073,0.073,0.037000000000000005,0.037000000000000005,0.003,0.003,0.003,-0.032,-0.032,-0.032,-0.068,-0.068,-0.10300000000000001,-0.068,-0.068,-0.068,-0.10300000000000001,-0.10300000000000001,-0.139,-0.139,-0.139,-0.139,-0.139,-0.139,-0.139,-0.139,-0.174,-0.139,-0.139,-0.139,-0.139,-0.139,-0.139,-0.139,-0.139,-0.139,-0.139,-0.174,-0.174,-0.174,-0.174,-0.174,-0.174,-0.174,-0.174,-0.174,-0.174,-0.174,-0.174,-0.174,-0.174,-0.174,-0.174,-0.174,-0.139,-0.139,-0.139,-0.139,-0.174,-0.139,-0.139,-0.139,-0.139,-0.139,-0.10300000000000001,-0.10300000000000001,-0.10300000000000001,-0.10300000000000001,-0.10300000000000001,-0.10300000000000001,-0.139,-0.139,-0.139,-0.139,-0.139,-0.139,-0.139,-0.139,-0.174,-0.174,0.003,0.003,0.003,0.003,0.003,0.003,0.003,0.003,0.003,0.003,0.003,0.003,0.003,0.003,0.003,0.003,0.003,0.003,0.003,0.003,0.003,0.003,0.003,0.003,0.003,0.003,0.003,0.003,0.003,0.003,0.003,0.003,0.003,0.003,0.003,0.003,0.003,0.003,0.003,0.003,0.003,0.003,0.003,0.003,0.003,0.003,0.003,0.003,0.003,0.003,0.003,0.003,0.003,0.003,0.003,0.003,0.003,0.003,0.003,0.003,0.003,0.003,0.003,0.003,0.003,0.003,0.003,0.003,0.003,0.003,0.003,0.003,0.003,0.003,0.003,0.003,0.003,0.003,0.003,0.003,0.003,0.003,0.003,0.003,0.003,0.003,0.003,0.003,0.003,0.003,0.003,0.003,0.003,0.003,0.003,0.003,0.003,0.003,0.003,0.003,0.003,0.003,0.003,0.003,0.003,0.003,0.003,0.003,0.003,0.003,0.003,0.003,0.003,0.003,0.003,0.003,0.003,0.003,0.003,0.003,0.003,0.003,0.003,0.003,0.003,0.003,0.003,0.003,0.003,0.003,0.003,0.003,0.003,0.003,0.003,0.003,0.003,0.003,0.003,0.003,0.003,0.003,0.003,0.003,0.003,0.003,0.003,0.003,0.003,0.003,0.003,0.003,0.003,0.003,0.003,0.003,0.003,0.003,0.003,0.003,0.003,0.003,0.003,0.003,0.003,0.003,0.003,0.003,0.003,0.003,0.003,0.003,0.003,0.003,0.003,0.003,0.003,0.003,0.003,0.003,0.003,0.003,0.003,0.003,0.003,0.003,0.003,0.003,0.003,0.003,0.003,0.003,0.003,0.003,0.003,0.003,0.003,0.003,0.003,0.003,0.003,0.003,0.003,0.003,0.003,0.003,0.003,0.003,0.003,0.003,0.003,0.003,0.003,0.003,0.003,0.003,0.003,0.003,0.003,0.003,0.003,0.003,0.003,0.003,0.003,0.003,0.003,0.003,0.003,0.003,0.003,0.003,0.003,0.003,0.003,0.003,0.003,0.003,0.003,0.003,0.003,0.003,0.003,0.003,0.003,0.003,0.003,0.003,0.003,0.003,0.003,0.003,0.003,0.003,0.003,0.003,-0.068,-0.068,-0.068,-0.068,-0.068,-0.068,-0.068,-0.032,-0.068,-0.068,-0.032,-0.032,-0.068,-0.068,-0.032,-0.068,-0.032,-0.032,-0.032,-0.032,-0.032,-0.032,-0.032,-0.032,-0.032,-0.032,-0.032,-0.032,-0.032,-0.032,-0.032,-0.032,-0.032,-0.032,-0.032,-0.032,-0.032,-0.032,-0.032,-0.032,-0.032,-0.032,-0.032,-0.032,-0.032,-0.032,-0.032,-0.032,-0.032,-0.032,-0.032,-0.032,-0.032,-0.032,-0.032,-0.032,-0.032,-0.032,-0.032,-0.032,-0.032,-0.032,-0.032,-0.032,-0.032,-0.032,-0.032,-0.032,-0.032,-0.032,-0.032,-0.032,-0.032,-0.032,-0.032,-0.032,-0.032,-0.032,-0.032,-0.032,-0.032,-0.032,-0.032,-0.032,-0.032,-0.032,-0.032,-0.032,-0.032,-0.032,-0.032,-0.032,-0.032,-0.032,-0.032,-0.032,-0.032,-0.032,-0.032,-0.032,-0.032,-0.032,0.003,-0.032,-0.032,-0.032,-0.032,-0.032,-0.032,-0.032,-0.032,-0.032,-0.032,-0.032,-0.032,-0.032,-0.032,-0.032,0.003,0.003,-0.032,0.003,0.003,-0.032,-0.032,0.003,0.003,0.003,0.003,0.003,0.003,0.003,0.003,0.003,0.003,0.003,0.003,0.003,0.003,0.003,0.003,0.003,0.003,0.003,0.003,0.003,0.003,0.003,0.003,0.003,0.003,0.003,0.003,0.003,0.003,0.003,0.003,0.003,0.003,0.003,0.003,0.003,0.037000000000000005,0.46399999999999997,0.746,0.889,0.995,1.0290000000000001,1.065
3,-0.102,-0.07200000000000001,-0.057,-0.057,-0.057,-0.043,-0.027999999999999997,-0.027999999999999997,-0.013000000000000001,-0.013000000000000001,-0.013000000000000001,-0.027999999999999997,-0.057,-0.07200000000000001,-0.07200000000000001,-0.087,-0.087,-0.087,-0.087,-0.102,-0.102,-0.102,-0.11599999999999999,-0.102,-0.102,-0.102,-0.102,-0.11599999999999999,-0.11599999999999999,-0.11599999999999999,-0.11599999999999999,-0.102,-0.102,-0.102,-0.087,-0.07200000000000001,-0.07200000000000001,-0.07200000000000001,-0.07200000000000001,-0.07200000000000001,-0.07200000000000001,-0.07200000000000001,-0.087,-0.087,-0.07200000000000001,-0.07200000000000001,-0.057,-0.057,-0.043,-0.027999999999999997,-0.027999999999999997,-0.027999999999999997,-0.027999999999999997,-0.027999999999999997,-0.013000000000000001,-0.013000000000000001,0.001,0.001,0.001,0.015,0.015,0.03,0.03,0.045,0.059000000000000004,0.059000000000000004,0.059000000000000004,0.07400000000000001,0.08900000000000001,0.10400000000000001,0.11800000000000001,0.14800000000000002,0.192,0.207,0.235,0.235,0.25,0.265,0.27899999999999997,0.27899999999999997,0.27899999999999997,0.27899999999999997,0.265,0.265,0.265,0.265,0.25,0.25,0.25,0.25,0.25,0.25,0.25,0.25,0.235,0.235,0.221,0.207,0.207,0.207,0.192,0.192,0.177,0.162,0.162,0.14800000000000002,0.14800000000000002,0.133,0.133,0.11800000000000001,0.11800000000000001,0.10400000000000001,0.10400000000000001,0.07400000000000001,0.059000000000000004,0.059000000000000004,0.059000000000000004,0.059000000000000004,0.03,0.03,0.015,0.015,0.001,0.001,0.001,0.001,0.001,0.001,0.001,0.001,0.001,-0.013000000000000001,-0.013000000000000001,-0.013000000000000001,-0.013000000000000001,-0.027999999999999997,-0.027999999999999997,-0.027999999999999997,-0.027999999999999997,-0.027999999999999997,-0.027999999999999997,-0.027999999999999997,-0.027999999999999997,-0.027999999999999997,-0.013000000000000001,-0.013000000000000001,0.001,0.001,0.001,0.001,0.015,0.015,0.03,0.03,0.03,0.03,0.03,0.03,0.015,0.015,0.015,0.001,0.001,0.001,0.001,0.001,0.001,0.001,0.001,-0.013000000000000001,-0.013000000000000001,-0.013000000000000001,-0.013000000000000001,-0.013000000000000001,-0.013000000000000001,-0.013000000000000001,-0.027999999999999997,-0.027999999999999997,-0.027999999999999997,-0.043,-0.043,-0.027999999999999997,-0.027999999999999997,-0.043,-0.027999999999999997,-0.027999999999999997,-0.043,-0.043,-0.043,-0.057,-0.043,-0.057,-0.057,-0.057,-0.057,-0.07200000000000001,-0.102,-0.131,-0.146,-0.146,-0.146,-0.11599999999999999,-0.057,0.001,0.10400000000000001,0.221,0.353,0.485,0.5429999999999999,0.529,0.426,0.27899999999999997,0.11800000000000001,-0.013000000000000001,-0.146,-0.233,-0.307,-0.35100000000000003,-0.366,-0.366,-0.336,-0.307,-0.248,-0.205,-0.146,-0.102,-0.07200000000000001,-0.057,-0.057,-0.057,-0.07200000000000001,-0.07200000000000001,-0.087,-0.087,-0.102,-0.102,-0.102,-0.102,-0.11599999999999999,-0.11599999999999999,-0.11599999999999999,-0.11599999999999999,-0.11599999999999999,-0.11599999999999999,-0.11599999999999999,-0.11599999999999999,-0.131,-0.131,-0.131,-0.131,-0.131,-0.146,-0.131,-0.146,-0.146,-0.146,-0.146,-0.146,-0.146,-0.131,-0.131,-0.11599999999999999,-0.131,-0.131,-0.131,-0.131,-0.11599999999999999,-0.102,-0.102,-0.102,-0.102,-0.102,-0.102,-0.102,-0.087,-0.07200000000000001,-0.07200000000000001,-0.07200000000000001,-0.057,-0.057,-0.057,-0.043,-0.027999999999999997,-0.027999999999999997,-0.027999999999999997,-0.013000000000000001,0.001,0.001,0.015,0.015,0.03,0.045,0.059000000000000004,0.059000000000000004,0.07400000000000001,0.07400000000000001,0.08900000000000001,0.10400000000000001,0.11800000000000001,0.133,0.162,0.162,0.192,0.207,0.207,0.235,0.235,0.221,0.221,0.235,0.235,0.221,0.221,0.207,0.192,0.192,0.177,0.162,0.162,0.162,0.14800000000000002,0.14800000000000002,0.133,0.133,0.11800000000000001,0.08900000000000001,0.07400000000000001,0.059000000000000004,0.059000000000000004,0.059000000000000004,0.045,0.03,0.03,0.015,0.015,0.001,0.001,-0.013000000000000001,-0.013000000000000001,-0.013000000000000001,-0.027999999999999997,-0.027999999999999997,-0.027999999999999997,-0.027999999999999997,-0.027999999999999997,-0.027999999999999997,-0.027999999999999997,-0.027999999999999997,-0.027999999999999997,-0.027999999999999997,-0.043,-0.027999999999999997,-0.043,-0.043,-0.027999999999999997,-0.027999999999999997,-0.027999999999999997,-0.027999999999999997,-0.027999999999999997,-0.027999999999999997,-0.027999999999999997,-0.027999999999999997,-0.027999999999999997,-0.027999999999999997,-0.013000000000000001,-0.013000000000000001,0.001,0.001,-0.013000000000000001,-0.013000000000000001,-0.013000000000000001,-0.013000000000000001,-0.013000000000000001,-0.013000000000000001,-0.013000000000000001,0.001,0.001,0.015,0.03,0.03,0.059000000000000004,0.059000000000000004,0.059000000000000004,0.059000000000000004,0.059000000000000004,0.059000000000000004,0.059000000000000004,0.059000000000000004,0.045,0.045,0.03,0.03,0.03,0.015,0.015,0.015,0.001,0.001,0.001,-0.013000000000000001,-0.013000000000000001,-0.027999999999999997,-0.027999999999999997,-0.027999999999999997,-0.027999999999999997,-0.027999999999999997,-0.027999999999999997,-0.043,-0.057,-0.057,-0.057,-0.07200000000000001,-0.057,-0.057,-0.057,-0.057,-0.057,-0.057,-0.057,-0.07200000000000001,-0.057,-0.057,-0.057,-0.057,-0.057,-0.057,-0.057,-0.057,-0.057,-0.07200000000000001,-0.07200000000000001,-0.07200000000000001,-0.057,-0.057,-0.057,-0.043,-0.043,-0.043,-0.057,-0.057,-0.057,-0.057,-0.043,-0.043,-0.043,-0.057,-0.043,-0.043,-0.027999999999999997,-0.027999999999999997,-0.013000000000000001,-0.013000000000000001,0.001,0.001,0.015,0.015,0.03,0.03,0.03,0.045,0.03,0.03,0.03,0.03,0.03,0.03,0.015,0.015,0.015,0.001,0.001,0.001,0.001,0.001,0.001,-0.013000000000000001,-0.013000000000000001,-0.027999999999999997,-0.043,-0.057,-0.07200000000000001,-0.07200000000000001,-0.087,-0.102,-0.11599999999999999,-0.11599999999999999,-0.11599999999999999,-0.11599999999999999,-0.11599999999999999,-0.11599999999999999,-0.102,-0.102,-0.087,-0.07200000000000001,-0.07200000000000001,-0.07200000000000001,-0.07200000000000001,-0.07200000000000001,-0.07200000000000001,-0.07200000000000001,-0.07200000000000001,-0.07200000000000001,-0.07200000000000001,-0.07200000000000001,-0.057,-0.057,-0.057,-0.057,-0.057,-0.057,-0.057,-0.07200000000000001,-0.057,-0.057,-0.043,-0.057,-0.057,-0.07200000000000001,-0.07200000000000001,-0.07200000000000001,-0.07200000000000001,-0.07200000000000001,-0.07200000000000001,-0.057,-0.043,-0.027999999999999997,-0.013000000000000001,0.001,0.001,0.001,0.001,0.015,0.015,0.03,0.03,0.03,0.03,0.03,0.03,0.015,0.03,0.03,0.03,0.015,0.015,0.015,0.015,0.001,0.001,-0.013000000000000001,-0.013000000000000001,-0.013000000000000001,-0.013000000000000001,-0.013000000000000001,-0.013000000000000001,-0.027999999999999997,-0.027999999999999997,-0.027999999999999997,-0.027999999999999997,-0.027999999999999997,-0.027999999999999997,-0.057,-0.057,-0.07200000000000001,-0.07200000000000001,-0.07200000000000001,-0.087,-0.087,-0.07200000000000001,-0.07200000000000001,-0.057,-0.057,-0.057,-0.057,-0.057,-0.057,-0.057,-0.057,-0.057,-0.043,-0.027999999999999997,-0.027999999999999997,-0.027999999999999997,-0.013000000000000001,0.001,0.001,0.015,0.001,0.001,0.001,0.015,0.059000000000000004,0.10400000000000001,0.162,0.25,0.353,0.485,0.573,0.588,0.5579999999999999,0.47,0.309,0.14800000000000002,0.001,-0.102,-0.16,-0.233,-0.292,-0.336,-0.366,-0.38,-0.38,-0.366,-0.322,-0.27699999999999997,-0.233,-0.19,-0.11599999999999999,-0.07200000000000001,-0.057,-0.027999999999999997,-0.043,-0.043,-0.043,-0.027999999999999997,-0.057,-0.07200000000000001,-0.07200000000000001,-0.07200000000000001,-0.087,-0.087,-0.07200000000000001,-0.07200000000000001,-0.07200000000000001,-0.07200000000000001,-0.07200000000000001,-0.07200000000000001,-0.087,-0.07200000000000001,-0.07200000000000001,-0.07200000000000001,-0.087,-0.087,-0.087,-0.07200000000000001,-0.07200000000000001,-0.07200000000000001,-0.07200000000000001,-0.07200000000000001,-0.087,-0.087,-0.07200000000000001,-0.07200000000000001,-0.07200000000000001,-0.07200000000000001,-0.07200000000000001,-0.07200000000000001,-0.087,-0.087,-0.087,-0.087,-0.087,-0.07200000000000001,-0.087,-0.07200000000000001,-0.07200000000000001,-0.057,-0.043,-0.027999999999999997,-0.027999999999999997,-0.013000000000000001,-0.013000000000000001,-0.013000000000000001,-0.013000000000000001,-0.013000000000000001,0.001,0.001,0.015,0.03,0.045,0.059000000000000004,0.07400000000000001,0.08900000000000001,0.10400000000000001,0.11800000000000001,0.14800000000000002,0.162,0.177,0.177,0.177,0.177,0.177,0.177,0.192,0.192,0.192,0.207,0.207,0.235,0.235,0.25,0.27899999999999997,0.27899999999999997,0.27899999999999997,0.27899999999999997,0.265,0.25,0.25,0.235,0.235,0.221,0.221,0.235,0.235,0.25,0.265,0.27899999999999997,0.27899999999999997,0.27899999999999997,0.265,0.25,0.25,0.25,0.235,0.235,0.235,0.235,0.207,0.192,0.192,0.192,0.162,0.14800000000000002,0.14800000000000002,0.11800000000000001,0.10400000000000001,0.08900000000000001,0.07400000000000001,0.07400000000000001,0.07400000000000001,0.07400000000000001,0.059000000000000004,0.059000000000000004,0.045,0.03,0.015,0.015,0.001,0.001,0.001,0.001,0.001,0.001,0.001,0.001,0.001,-0.013000000000000001,-0.013000000000000001,-0.013000000000000001,0.001,0.001,0.001,0.001,0.015,0.015,0.015,0.03,0.03,0.03,0.03,0.045,0.045,0.045,0.045,0.045,0.03,0.045,0.045,0.03,0.03,0.015,0.015,0.015,0.015,0.015,0.015,0.015,0.015,0.015,0.03,0.015,0.015,0.015,0.015,0.015,0.001,0.001,0.001,0.001,0.001,0.001,0.001,0.001,0.001,0.001,0.001,0.001,-0.013000000000000001,-0.013000000000000001,0.001,0.001,0.001,-0.013000000000000001,-0.013000000000000001,-0.013000000000000001,-0.013000000000000001,-0.013000000000000001,-0.027999999999999997,-0.027999999999999997,-0.027999999999999997,-0.027999999999999997,-0.043,-0.043,-0.027999999999999997,-0.027999999999999997,-0.027999999999999997,-0.027999999999999997,-0.027999999999999997,-0.043,-0.043,-0.027999999999999997,-0.027999999999999997,-0.013000000000000001,-0.013000000000000001,-0.013000000000000001,-0.027999999999999997,-0.043,-0.043,-0.043,-0.027999999999999997,-0.027999999999999997,-0.027999999999999997,-0.027999999999999997,-0.027999999999999997,-0.027999999999999997,-0.027999999999999997,-0.027999999999999997,-0.027999999999999997,-0.027999999999999997,-0.027999999999999997,-0.027999999999999997,-0.013000000000000001,0.001,0.001,0.001,0.015,0.015,0.015,0.015,0.045,0.059000000000000004,0.07400000000000001,0.07400000000000001,0.059000000000000004,0.045,0.03,0.001,0.001,0.001,0.001,0.001,0.001,0.001,0.001,0.03,0.03,0.045,0.07400000000000001,0.08900000000000001,0.10400000000000001,0.11800000000000001,0.177,0.25,0.353,0.455,0.5579999999999999,0.588,0.573,0.529,0.426,0.27899999999999997,0.133,0.015,-0.07200000000000001,-0.146,-0.205,-0.263,-0.336,-0.38,-0.424,-0.439,-0.46799999999999997,-0.45299999999999996,-0.41,-0.366,-0.322,-0.27699999999999997,-0.233,-0.21899999999999997,-0.205,-0.19,-0.175,-0.16,-0.16,-0.146,-0.131,-0.131,-0.11599999999999999,-0.11599999999999999,-0.102,-0.102,-0.102,-0.102,-0.102,-0.102,-0.102,-0.11599999999999999,-0.11599999999999999,-0.11599999999999999,-0.102,-0.102,-0.07200000000000001,-0.07200000000000001,-0.057,-0.027999999999999997,-0.013000000000000001,0.001,0.001,0.001,0.001,0.001,0.001,-0.013000000000000001,-0.013000000000000001,-0.013000000000000001,-0.013000000000000001,-0.027999999999999997,-0.013000000000000001,-0.013000000000000001,0.001,0.001,0.001,0.001,0.001,0.001,-0.013000000000000001,-0.013000000000000001,-0.013000000000000001,-0.013000000000000001,-0.013000000000000001,-0.013000000000000001,-0.013000000000000001,0.001,0.001,0.001,0.001,0.001,0.001,0.001,0.001,0.015,0.015,0.015,0.03,0.045,0.059000000000000004,0.08900000000000001,0.10400000000000001,0.10400000000000001,0.10400000000000001,0.11800000000000001,0.11800000000000001,0.11800000000000001,0.14800000000000002,0.14800000000000002,0.162,0.162,0.162,0.162,0.162,0.162,0.162,0.162,0.177,0.192,0.192,0.192,0.192,0.192,0.192,0.192,0.192,0.162,0.162,0.162,0.162,0.162,0.162,0.14800000000000002,0.14800000000000002,0.11800000000000001,0.10400000000000001,0.10400000000000001,0.07400000000000001,0.07400000000000001,0.059000000000000004,0.059000000000000004,0.059000000000000004,0.059000000000000004,0.059000000000000004,0.059000000000000004,0.07400000000000001,0.07400000000000001,0.059000000000000004,0.059000000000000004,0.059000000000000004,0.059000000000000004,0.045,0.03,0.015,0.015,0.001,-0.013000000000000001,-0.013000000000000001,-0.013000000000000001,-0.013000000000000001,-0.013000000000000001,-0.013000000000000001,-0.027999999999999997,-0.043,-0.057,-0.057,-0.07200000000000001,-0.07200000000000001,-0.07200000000000001,-0.07200000000000001,-0.07200000000000001,-0.07200000000000001,-0.07200000000000001,-0.07200000000000001,-0.07200000000000001,-0.07200000000000001,-0.07200000000000001,-0.07200000000000001,-0.07200000000000001,-0.07200000000000001,-0.07200000000000001,-0.07200000000000001,-0.07200000000000001,-0.07200000000000001,-0.07200000000000001,-0.07200000000000001,-0.07200000000000001,-0.07200000000000001,-0.07200000000000001,-0.07200000000000001,-0.07200000000000001,-0.07200000000000001,-0.07200000000000001,-0.07200000000000001,-0.07200000000000001,-0.057,-0.057,-0.043,-0.027999999999999997,-0.043,-0.043,-0.057,-0.057,-0.057,-0.057,-0.057,-0.043,-0.043,-0.057,-0.043,-0.043,-0.043,-0.043,-0.043,-0.057,-0.057,-0.057,-0.057,-0.07200000000000001,-0.057,-0.043,-0.043,-0.027999999999999997,-0.013000000000000001,0.001,0.001,0.001,0.001,0.001,0.001,0.001,-0.013000000000000001,-0.013000000000000001,-0.013000000000000001,-0.013000000000000001,-0.013000000000000001,-0.027999999999999997,-0.027999999999999997,-0.027999999999999997,-0.043,-0.057,-0.057,-0.057,-0.057,-0.057,-0.057,-0.07200000000000001,-0.07200000000000001,-0.087,-0.087,-0.087,-0.087,-0.087,-0.087,-0.102,-0.102,-0.11599999999999999,-0.102,-0.11599999999999999,-0.11599999999999999,-0.11599999999999999,-0.11599999999999999,-0.11599999999999999,-0.11599999999999999,-0.102,-0.102,-0.102,-0.102,-0.102,-0.07200000000000001,-0.07200000000000001,-0.07200000000000001,-0.07200000000000001,-0.057,-0.043,-0.013000000000000001,0.03,0.10400000000000001,0.192,0.294,0.397,0.47,0.47,0.426,0.368,0.221,0.07400000000000001,-0.027999999999999997,-0.146,-0.21899999999999997,-0.27699999999999997,-0.336,-0.395,-0.424,-0.439,-0.45299999999999996,-0.45299999999999996,-0.424,-0.38,-0.322,-0.248,-0.205,-0.16,-0.11599999999999999,-0.102,-0.07200000000000001,-0.057,-0.057,-0.057,-0.057,-0.07200000000000001,-0.057,-0.057,-0.07200000000000001,-0.057,-0.07200000000000001,-0.07200000000000001,-0.07200000000000001,-0.07200000000000001,-0.07200000000000001,-0.087,-0.102,-0.102,-0.102,-0.11599999999999999,-0.11599999999999999,-0.11599999999999999,-0.11599999999999999,-0.11599999999999999,-0.131,-0.131,-0.131,-0.11599999999999999,-0.11599999999999999,-0.11599999999999999,-0.11599999999999999,-0.11599999999999999,-0.131,-0.131,-0.131,-0.131,-0.11599999999999999,-0.11599999999999999,-0.11599999999999999,-0.11599999999999999,-0.102,-0.102,-0.102,-0.102,-0.087,-0.07200000000000001,-0.07200000000000001,-0.07200000000000001,-0.07200000000000001,-0.07200000000000001,-0.057,-0.057,-0.027999999999999997,-0.013000000000000001,-0.013000000000000001,0.001,0.001,0.001,0.001,0.015,0.03,0.03,0.045,0.059000000000000004,0.07400000000000001,0.07400000000000001,0.10400000000000001,0.11800000000000001,0.133,0.14800000000000002,0.162,0.192,0.207,0.235,0.25,0.265,0.27899999999999997,0.27899999999999997,0.27899999999999997,0.27899999999999997,0.27899999999999997,0.27899999999999997,0.27899999999999997,0.27899999999999997,0.27899999999999997,0.27899999999999997,0.27899999999999997,0.27899999999999997,0.265,0.25,0.25,0.235,0.221,0.207,0.207,0.207,0.192,0.162,0.14800000000000002,0.133,0.11800000000000001,0.11800000000000001,0.10400000000000001,0.10400000000000001,0.08900000000000001,0.059000000000000004,0.045,0.03,0.015,0.015,0.001,-0.013000000000000001,-0.027999999999999997,-0.027999999999999997,-0.043,-0.057,-0.057,-0.057,-0.057,-0.07200000000000001,-0.07200000000000001,-0.07200000000000001,-0.07200000000000001,-0.07200000000000001,-0.087,-0.087,-0.102,-0.102,-0.102,-0.102,-0.102,-0.102,-0.102,-0.087,-0.087,-0.07200000000000001,-0.07200000000000001,-0.07200000000000001,-0.07200000000000001,-0.057,-0.057,-0.057,-0.057,-0.057,-0.057,-0.057,-0.057,-0.057,-0.043,-0.027999999999999997,0.001,0.001,0.015,0.03,0.045,0.059000000000000004,0.059000000000000004,0.059000000000000004,0.045,0.045,0.045,0.045,0.045,0.03,0.03,0.015,0.015,0.015,0.001,0.001,0.001,-0.013000000000000001,-0.013000000000000001,-0.013000000000000001,0.001,0.001,-0.013000000000000001,-0.027999999999999997,-0.057,-0.057,-0.087,-0.11599999999999999,-0.146,-0.146,-0.16,-0.146,-0.11599999999999999,-0.057,0.001,0.10400000000000001,0.221,0.33799999999999997,0.382,0.397,0.33799999999999997,0.207,0.059000000000000004,-0.07200000000000001,-0.205,-0.307,-0.395,-0.439,-0.46799999999999997,-0.439,-0.424,-0.366,-0.322,-0.27699999999999997,-0.233,-0.19,-0.16,-0.146,-0.16,-0.146,-0.146,-0.146,-0.146,-0.146,-0.146,-0.146,-0.146,-0.146,-0.146,-0.146,-0.146,-0.131,-0.131,-0.102,-0.102,-0.07200000000000001,-0.057,-0.043,-0.027999999999999997,-0.027999999999999997,-0.027999999999999997,-0.027999999999999997,-0.027999999999999997,-0.027999999999999997,-0.027999999999999997,-0.027999999999999997,-0.043,-0.043,-0.043,-0.043,-0.057,-0.057,-0.057,-0.057,-0.057,-0.07200000000000001,-0.07200000000000001,-0.07200000000000001,-0.087,-0.087,-0.087,-0.087,-0.07200000000000001,-0.07200000000000001,-0.07200000000000001,-0.07200000000000001,-0.057,-0.043,-0.043,-0.027999999999999997,-0.027999999999999997,-0.027999999999999997,-0.027999999999999997,-0.027999999999999997,-0.027999999999999997,-0.013000000000000001,-0.013000000000000001,-0.013000000000000001,0.001,0.001,0.015,0.015,0.03,0.059000000000000004,0.059000000000000004,0.07400000000000001,0.08900000000000001,0.10400000000000001,0.10400000000000001,0.10400000000000001,0.08900000000000001,0.10400000000000001,0.10400000000000001,0.11800000000000001,0.11800000000000001,0.11800000000000001,0.133,0.133,0.14800000000000002,0.14800000000000002,0.14800000000000002,0.14800000000000002,0.14800000000000002,0.14800000000000002,0.162,0.162,0.162,0.162,0.14800000000000002,0.14800000000000002,0.14800000000000002,0.14800000000000002,0.14800000000000002,0.162,0.162,0.192,0.192,0.192,0.192,0.177,0.162,0.162,0.14800000000000002,0.133,0.11800000000000001
4,0.063,0.063,0.063,0.063,0.042,0.042,0.042,0.042,0.042,0.042,0.022000000000000002,0.022000000000000002,0.022000000000000002,0.022000000000000002,0.022000000000000002,0.022000000000000002,0.022000000000000002,0.022000000000000002,0.022000000000000002,0.002,0.002,0.002,0.002,0.002,0.002,0.002,0.002,0.002,0.002,0.002,0.002,0.002,0.002,0.002,0.002,0.002,0.002,0.002,0.002,0.002,0.002,0.002,0.002,0.002,0.002,0.002,0.002,0.002,0.002,0.002,0.002,0.002,0.002,0.002,0.002,0.002,0.002,0.002,0.002,0.002,0.002,0.002,0.002,0.002,0.002,0.002,0.002,0.002,0.002,0.002,0.002,0.002,0.002,0.002,0.002,0.002,0.002,0.002,0.002,0.002,0.002,0.002,0.002,0.002,0.002,0.002,0.002,0.002,0.002,0.002,0.002,0.002,0.002,0.002,0.002,0.002,0.002,0.002,0.002,0.002,0.002,0.002,0.002,0.002,0.002,-0.019,-0.019,-0.019,-0.039,-0.039,-0.039,-0.039,-0.039,-0.06,-0.06,-0.06,-0.039,-0.039,-0.039,-0.039,-0.039,-0.039,-0.039,-0.019,-0.019,-0.019,-0.019,-0.019,-0.019,-0.019,-0.039,-0.039,-0.039,-0.039,-0.06,-0.06,-0.06,-0.06,-0.039,-0.039,-0.019,0.002,0.002,0.002,0.002,0.002,0.002,0.002,0.002,0.002,0.002,0.002,0.002,0.002,0.002,0.002,0.002,0.002,0.002,-0.019,-0.019,-0.019,0.002,0.002,0.002,0.002,0.002,0.002,0.022000000000000002,0.042,0.083,0.083,0.10400000000000001,0.125,0.10400000000000001,0.10400000000000001,0.063,0.022000000000000002,0.002,-0.081,-0.184,-0.327,-0.47100000000000003,-0.635,-0.779,-0.902,-1.005,-1.087,-1.128,-1.149,-1.149,-1.149,-1.087,-1.025,-0.943,-0.841,-0.7170000000000001,-0.574,-0.47100000000000003,-0.389,-0.327,-0.287,-0.245,-0.204,-0.163,-0.142,-0.122,-0.10099999999999999,-0.06,-0.039,0.002,0.002,0.042,0.063,0.10400000000000001,0.10400000000000001,0.10400000000000001,0.125,0.125,0.125,0.125,0.125,0.125,0.125,0.125,0.10400000000000001,0.125,0.125,0.125,0.10400000000000001,0.125,0.125,0.125,0.125,0.10400000000000001,0.10400000000000001,0.125,0.125,0.10400000000000001,0.125,0.125,0.10400000000000001,0.10400000000000001,0.10400000000000001,0.125,0.125,0.125,0.125,0.125,0.125,0.10400000000000001,0.10400000000000001,0.10400000000000001,0.10400000000000001,0.10400000000000001,0.10400000000000001,0.10400000000000001,0.10400000000000001,0.10400000000000001,0.125,0.125,0.125,0.10400000000000001,0.10400000000000001,0.10400000000000001,0.125,0.125,0.125,0.125,0.125,0.125,0.10400000000000001,0.125,0.10400000000000001,0.125,0.125,0.10400000000000001,0.125,0.125,0.125,0.125,0.125,0.125,0.125,0.125,0.125,0.125,0.145,0.145,0.145,0.145,0.145,0.125,0.125,0.125,0.125,0.125,0.125,0.145,0.145,0.145,0.145,0.145,0.145,0.145,0.145,0.145,0.145,0.145,0.145,0.145,0.145,0.145,0.145,0.145,0.145,0.125,0.125,0.125,0.125,0.10400000000000001,0.10400000000000001,0.10400000000000001,0.10400000000000001,0.10400000000000001,0.10400000000000001,0.10400000000000001,0.10400000000000001,0.10400000000000001,0.083,0.083,0.083,0.083,0.083,0.063,0.063,0.063,0.063,0.042,0.042,0.042,0.042,0.042,0.042,0.042,0.042,0.042,0.042,0.042,0.022000000000000002,0.022000000000000002,0.042,0.022000000000000002,0.022000000000000002,0.022000000000000002,0.022000000000000002,0.022000000000000002,0.002,0.002,0.002,0.002,0.002,0.002,0.002,0.002,0.002,0.002,0.002,0.002,0.002,0.002,0.002,0.002,0.002,0.002,0.002,0.002,0.002,0.002,0.002,0.002,0.002,0.002,0.002,0.002,0.002,0.002,0.002,0.002,0.002,0.002,0.002,0.002,0.002,0.002,0.002,0.002,0.002,0.002,0.002,0.002,0.002,0.002,0.002,0.002,0.002,0.002,0.002,0.002,0.002,0.002,0.002,0.002,0.002,0.002,0.002,0.002,0.002,0.002,0.002,0.002,0.002,0.002,0.002,0.002,0.002,0.002,0.002,0.002,0.002,0.002,0.002,0.002,0.002,0.002,0.002,0.002,0.002,0.002,0.002,0.002,0.002,0.002,-0.019,-0.019,-0.019,-0.039,-0.039,-0.039,-0.039,-0.039,-0.039,-0.039,-0.039,-0.039,-0.039,-0.039,-0.039,-0.039,-0.019,-0.019,-0.019,-0.019,-0.019,-0.019,-0.019,-0.039,-0.039,-0.039,-0.039,-0.06,-0.06,-0.06,-0.039,-0.039,-0.019,-0.019,0.002,0.002,0.002,0.002,0.002,0.002,0.002,0.002,0.002,0.002,0.002,0.002,0.002,0.002,0.002,0.002,0.002,0.002,0.002,0.002,0.002,0.002,0.002,0.002,0.002,0.002,0.002,0.022000000000000002,0.042,0.083,0.10400000000000001,0.125,0.125,0.125,0.10400000000000001,0.083,0.042,0.002,-0.06,-0.184,-0.306,-0.47100000000000003,-0.635,-0.779,-0.902,-1.025,-1.1079999999999999,-1.149,-1.189,-1.189,-1.169,-1.128,-1.0659999999999998,-0.9840000000000001,-0.8809999999999999,-0.738,-0.594,-0.49200000000000005,-0.409,-0.34700000000000003,-0.287,-0.245,-0.204,-0.163,-0.142,-0.122,-0.10099999999999999,-0.06,-0.019,0.002,0.022000000000000002,0.042,0.063,0.10400000000000001,0.10400000000000001,0.125,0.125,0.125,0.125,0.125,0.125,0.125,0.125,0.125,0.125,0.125,0.125,0.125,0.125,0.125,0.125,0.125,0.125,0.125,0.125,0.125,0.125,0.125,0.125,0.125,0.125,0.125,0.125,0.125,0.125,0.125,0.125,0.145,0.125,0.125,0.10400000000000001,0.125,0.125,0.125,0.125,0.125,0.10400000000000001,0.125,0.125,0.125,0.125,0.125,0.10400000000000001,0.125,0.125,0.125,0.125,0.125,0.125,0.125,0.145,0.125,0.125,0.125,0.145,0.125,0.125,0.125,0.125,0.125,0.145,0.145,0.145,0.145,0.145,0.145,0.145,0.145,0.145,0.145,0.145,0.166,0.145,0.166,0.166,0.166,0.166,0.166,0.166,0.145,0.145,0.145,0.145,0.145,0.145,0.166,0.166,0.166,0.166,0.166,0.145,0.145,0.145,0.145,0.145,0.145,0.145,0.145,0.125,0.125,0.125,0.125,0.125,0.10400000000000001,0.10400000000000001,0.10400000000000001,0.10400000000000001,0.10400000000000001,0.10400000000000001,0.10400000000000001,0.083,0.083,0.083,0.083,0.083,0.063,0.063,0.063,0.063,0.042,0.063,0.063,0.042,0.042,0.042,0.042,0.042,0.042,0.042,0.042,0.042,0.022000000000000002,0.022000000000000002,0.022000000000000002,0.022000000000000002,0.022000000000000002,0.002,0.002,0.022000000000000002,0.022000000000000002,0.022000000000000002,0.002,0.002,0.002,0.002,0.002,0.002,0.002,0.002,0.002,0.002,0.002,0.002,0.002,0.002,0.002,0.002,0.002,0.002,0.002,0.002,0.002,0.002,0.002,0.002,0.002,0.002,0.002,0.002,0.002,0.002,0.002,0.002,0.002,0.002,0.022000000000000002,0.002,0.002,0.002,0.002,0.002,0.002,0.002,0.002,0.002,0.002,0.002,0.002,0.002,0.002,0.002,0.002,0.002,0.002,0.002,0.002,0.002,0.002,0.002,0.002,0.002,0.002,0.002,0.002,0.002,0.002,0.002,0.002,0.002,0.002,0.002,0.002,0.002,0.002,0.002,0.002,0.002,0.002,0.002,0.002,-0.019,-0.019,-0.019,-0.019,-0.019,-0.039,-0.039,-0.039,-0.039,-0.039,-0.039,-0.039,-0.039,-0.039,-0.039,-0.039,-0.039,-0.039,-0.039,-0.039,-0.039,-0.039,-0.019,-0.019,-0.019,-0.019,-0.019,-0.039,-0.039,-0.039,-0.039,-0.06,-0.039,-0.039,-0.039,-0.019,-0.019,0.002,0.002,0.002,0.002,0.002,0.002,0.002,0.002,0.002,0.002,0.002,0.002,0.002,0.002,0.002,0.002,0.002,0.002,0.002,0.002,0.002,0.002,0.002,0.002,0.002,0.002,0.022000000000000002,0.042,0.083,0.10400000000000001,0.10400000000000001,0.125,0.145,0.125,0.10400000000000001,0.063,0.022000000000000002,-0.039,-0.10099999999999999,-0.245,-0.368,-0.5329999999999999,-0.6970000000000001,-0.841,-0.9840000000000001,-1.087,-1.128,-1.169,-1.189,-1.189,-1.149,-1.1079999999999999,-1.025,-0.922,-0.8,-0.655,-0.5529999999999999,-0.43,-0.368,-0.327,-0.266,-0.225,-0.204,-0.163,-0.142,-0.122,-0.081,-0.039,-0.019,0.002,0.022000000000000002,0.063,0.083,0.10400000000000001,0.10400000000000001,0.10400000000000001,0.125,0.125,0.125,0.145,0.125,0.125,0.125,0.145,0.125,0.145,0.125,0.125,0.125,0.125,0.125,0.125,0.125,0.125,0.125,0.125,0.125,0.125,0.125,0.125,0.145,0.125,0.145,0.125,0.125,0.125,0.125,0.125,0.125,0.125,0.125,0.125,0.125,0.125,0.125,0.125,0.125,0.125,0.125,0.125,0.125,0.145,0.125,0.145,0.145,0.145,0.125,0.125,0.125,0.125,0.125,0.125,0.125,0.125,0.145,0.145,0.125,0.145,0.145,0.145,0.145,0.145,0.145,0.145,0.145,0.145,0.145,0.145,0.145,0.166,0.166,0.166,0.166,0.166,0.166,0.166,0.145,0.166,0.166,0.166,0.166,0.166,0.145,0.145,0.166,0.166,0.166,0.166,0.166,0.166,0.166,0.166,0.166,0.145,0.145,0.145,0.145,0.145,0.145,0.125,0.125,0.125,0.125,0.10400000000000001,0.10400000000000001,0.10400000000000001,0.10400000000000001,0.10400000000000001,0.10400000000000001,0.10400000000000001,0.083,0.083,0.083,0.083,0.063,0.063,0.063,0.063,0.063,0.042,0.042,0.042,0.042,0.042,0.042,0.042,0.042,0.042,0.042,0.042,0.042,0.022000000000000002,0.022000000000000002,0.022000000000000002,0.022000000000000002,0.022000000000000002,0.022000000000000002,0.022000000000000002,0.022000000000000002,0.022000000000000002,0.002,0.002,0.002,0.022000000000000002,0.002,0.002,0.002,0.002,0.002,0.002,0.002,0.022000000000000002,0.002,0.022000000000000002,0.002,0.002,0.002,0.002,0.002,0.002,0.002,0.002,0.022000000000000002,0.002,0.022000000000000002,0.022000000000000002,0.002,0.002,0.002,0.002,0.002,0.002,0.002,0.022000000000000002,0.022000000000000002,0.022000000000000002,0.022000000000000002,0.022000000000000002,0.022000000000000002,0.022000000000000002,0.022000000000000002,0.022000000000000002,0.022000000000000002,0.022000000000000002,0.022000000000000002,0.022000000000000002,0.002,0.002,0.022000000000000002,0.022000000000000002,0.002,0.022000000000000002,0.022000000000000002,0.002,0.022000000000000002,0.002,0.002,0.002,0.002,0.022000000000000002,0.002,0.002,0.002,0.002,0.002,0.002,0.002,0.002,0.002,0.002,0.002,0.002,0.002,0.002,0.002,0.002,0.002,0.002,0.002,0.002,0.002,0.002,0.002,-0.019,-0.039,-0.039,-0.039,-0.039,-0.039,-0.039,-0.039,-0.039,-0.039,-0.039,-0.039,-0.039,-0.019,-0.019,-0.019,-0.019,-0.019,-0.019,-0.019,-0.019,-0.019,-0.019,-0.039,-0.039,-0.039,-0.039,-0.06,-0.039,-0.039,-0.019,-0.019,0.002,0.002,0.002,0.002,0.002,0.002,0.002,0.002,0.002,0.002,0.002,0.002,0.002,0.002,0.002,0.002,0.002,0.002,0.002,0.002,0.002,0.002,0.002,0.002,0.002,0.002,0.002,0.022000000000000002,0.042,0.063,0.083,0.10400000000000001,0.125,0.125,0.10400000000000001,0.10400000000000001,0.042,0.002,-0.039,-0.122,-0.266,-0.389,-0.5529999999999999,-0.7170000000000001,-0.841,-0.963,-1.046,-1.1079999999999999,-1.1079999999999999,-1.149,-1.128,-1.1079999999999999,-1.046,-0.9840000000000001,-0.861,-0.738,-0.614,-0.49200000000000005,-0.409,-0.34700000000000003,-0.306,-0.266,-0.225,-0.184,-0.163,-0.142,-0.10099999999999999,-0.081,-0.039,-0.019,0.002,0.042,0.063,0.083,0.10400000000000001,0.10400000000000001,0.10400000000000001,0.10400000000000001,0.125,0.125,0.125,0.125,0.125,0.125,0.125,0.125,0.125,0.125,0.125,0.125,0.125,0.125,0.125,0.125,0.125,0.125,0.125,0.125,0.125,0.125,0.125,0.125,0.125,0.125,0.125,0.125,0.125,0.125,0.125,0.125,0.125,0.125,0.125,0.10400000000000001,0.125,0.125,0.125,0.125,0.125,0.125,0.125,0.10400000000000001,0.125,0.125,0.125,0.125,0.125,0.125,0.125,0.125,0.125,0.125,0.125,0.125,0.125,0.125,0.125,0.125,0.145,0.145,0.145,0.145,0.145,0.145,0.145,0.145,0.145,0.145,0.145,0.145,0.145,0.145,0.166,0.145,0.145,0.145,0.145,0.166,0.166,0.166,0.166,0.166,0.166,0.166,0.166,0.166,0.166,0.166,0.166,0.166,0.166,0.166,0.145,0.145,0.145,0.145,0.145,0.145,0.125,0.125,0.125,0.125,0.125,0.10400000000000001,0.10400000000000001,0.10400000000000001,0.10400000000000001,0.10400000000000001,0.10400000000000001,0.10400000000000001,0.083,0.083,0.083,0.083,0.083,0.063,0.063,0.063,0.063,0.042,0.042,0.042,0.042,0.042,0.042,0.042,0.042,0.022000000000000002,0.022000000000000002,0.022000000000000002,0.022000000000000002,0.022000000000000002,0.002,0.022000000000000002,0.002,0.022000000000000002,0.002,0.002,0.002,0.002,0.002,0.002,0.002,0.002,0.002,0.002,0.002,0.002,0.002,0.002,0.002,0.002,0.002,0.002,0.002,0.002,0.002,0.002,0.002,0.002,0.002,0.002,0.002,0.002,0.002,0.002,0.002,0.002,0.002,0.002,0.002,0.002,0.002,0.002,0.002,0.022000000000000002,0.022000000000000002,0.022000000000000002,0.022000000000000002,0.022000000000000002,0.022000000000000002,0.022000000000000002,0.002,0.022000000000000002,0.022000000000000002,0.022000000000000002,0.022000000000000002,0.022000000000000002,0.022000000000000002,0.022000000000000002,0.022000000000000002,0.022000000000000002,0.022000000000000002,0.022000000000000002,0.022000000000000002,0.022000000000000002,0.022000000000000002,0.022000000000000002,0.022000000000000002,0.022000000000000002,0.022000000000000002,0.022000000000000002,0.002,0.002,0.002,0.022000000000000002,0.002,0.002,0.002,0.002,0.002,0.002,0.002,0.002,0.002,0.002,0.002,0.002,0.002,0.002,0.002,0.002,-0.019,-0.019,-0.019,-0.039,-0.039,-0.039,-0.039,-0.039,-0.039,-0.039,-0.039,-0.039,-0.039,-0.039,-0.039,-0.019,-0.019,-0.019,-0.019,-0.019,-0.019,-0.019,-0.039,-0.039,-0.039,-0.039,-0.06,-0.06,-0.06,-0.06,-0.039,-0.039,-0.019,0.002,0.002,0.002,0.002,0.002,0.002,0.002,0.002,0.002,0.002,0.002,0.002,0.002,0.002,0.002,0.002
5,0.083,0.083,0.083,0.083,0.083,0.083,0.063,0.063,0.063,0.063,0.063,0.042,0.042,0.042,0.042,0.042,0.042,0.042,0.022000000000000002,0.022000000000000002,0.022000000000000002,0.022000000000000002,0.022000000000000002,0.022000000000000002,0.022000000000000002,0.022000000000000002,0.022000000000000002,0.002,0.022000000000000002,0.002,0.022000000000000002,0.002,0.002,0.002,0.002,0.002,0.002,0.002,0.002,0.002,0.002,0.002,0.002,0.002,0.002,0.002,0.002,0.002,0.002,0.002,0.002,0.002,0.002,0.002,0.002,0.002,0.002,0.002,0.002,0.002,0.002,0.002,0.002,0.002,0.002,0.002,0.002,0.002,0.002,0.002,0.002,0.002,0.002,0.002,0.002,0.002,0.002,0.002,0.002,0.002,0.002,0.002,0.002,0.002,0.002,0.002,0.002,0.002,0.002,0.002,0.002,0.002,0.002,0.002,0.002,0.002,0.002,0.002,0.002,0.002,0.002,0.002,0.002,0.002,0.002,0.002,0.002,0.002,0.002,0.002,0.002,0.002,0.002,0.002,-0.019,-0.019,-0.019,-0.039,-0.039,-0.039,-0.039,-0.039,-0.06,-0.06,-0.039,-0.039,-0.039,-0.039,-0.039,-0.019,-0.039,-0.019,-0.019,-0.019,-0.019,-0.019,-0.019,-0.039,-0.039,-0.039,-0.039,-0.06,-0.06,-0.06,-0.06,-0.039,-0.039,-0.019,0.002,0.002,0.002,0.002,0.002,0.002,0.002,0.002,0.002,0.002,0.002,0.002,0.002,0.002,0.002,0.002,0.002,0.002,0.002,0.002,0.002,0.002,-0.019,0.002,0.002,0.002,0.002,0.022000000000000002,0.042,0.063,0.083,0.10400000000000001,0.125,0.10400000000000001,0.10400000000000001,0.083,0.042,0.002,-0.039,-0.122,-0.245,-0.368,-0.5329999999999999,-0.6970000000000001,-0.82,-0.943,-1.046,-1.1079999999999999,-1.128,-1.149,-1.128,-1.1079999999999999,-1.046,-0.9840000000000001,-0.902,-0.779,-0.655,-0.5329999999999999,-0.43,-0.34700000000000003,-0.306,-0.266,-0.225,-0.184,-0.142,-0.122,-0.10099999999999999,-0.081,-0.039,-0.019,0.002,0.022000000000000002,0.042,0.083,0.10400000000000001,0.10400000000000001,0.10400000000000001,0.10400000000000001,0.125,0.125,0.10400000000000001,0.125,0.125,0.125,0.10400000000000001,0.125,0.125,0.125,0.125,0.125,0.125,0.125,0.125,0.125,0.125,0.125,0.125,0.125,0.125,0.10400000000000001,0.125,0.125,0.125,0.10400000000000001,0.10400000000000001,0.10400000000000001,0.10400000000000001,0.125,0.125,0.125,0.125,0.125,0.125,0.10400000000000001,0.10400000000000001,0.10400000000000001,0.10400000000000001,0.10400000000000001,0.10400000000000001,0.10400000000000001,0.125,0.10400000000000001,0.125,0.10400000000000001,0.125,0.125,0.10400000000000001,0.125,0.125,0.10400000000000001,0.10400000000000001,0.10400000000000001,0.10400000000000001,0.125,0.125,0.125,0.125,0.125,0.125,0.125,0.125,0.125,0.125,0.125,0.145,0.145,0.145,0.145,0.145,0.145,0.145,0.145,0.145,0.145,0.145,0.145,0.145,0.145,0.145,0.166,0.166,0.145,0.145,0.145,0.145,0.145,0.145,0.145,0.166,0.145,0.145,0.145,0.145,0.145,0.145,0.145,0.145,0.125,0.125,0.125,0.125,0.10400000000000001,0.10400000000000001,0.10400000000000001,0.10400000000000001,0.10400000000000001,0.10400000000000001,0.10400000000000001,0.083,0.083,0.083,0.083,0.083,0.063,0.063,0.063,0.063,0.063,0.042,0.042,0.042,0.042,0.042,0.042,0.042,0.042,0.022000000000000002,0.022000000000000002,0.022000000000000002,0.022000000000000002,0.022000000000000002,0.022000000000000002,0.022000000000000002,0.022000000000000002,0.002,0.002,0.022000000000000002,0.002,0.002,0.002,0.002,0.002,0.002,0.002,0.002,0.002,0.002,0.002,0.002,0.002,0.002,0.002,0.002,0.002,0.002,0.002,0.002,0.002,0.002,0.002,0.002,0.002,0.002,0.002,0.002,0.002,0.002,0.002,0.002,0.002,0.002,0.002,0.002,0.002,0.002,0.002,0.002,0.002,0.002,0.002,0.002,0.002,0.002,0.002,0.002,0.002,0.002,0.002,0.002,0.002,0.002,0.002,0.002,0.002,0.002,0.002,0.002,0.002,0.002,0.002,0.002,0.002,0.002,0.002,0.002,0.002,0.002,0.002,0.002,0.002,0.002,0.002,0.002,0.002,0.002,0.002,0.002,0.002,0.002,0.002,0.002,-0.019,-0.019,-0.019,-0.019,-0.019,-0.039,-0.039,-0.039,-0.039,-0.039,-0.039,-0.039,-0.039,-0.039,-0.039,-0.039,-0.039,-0.019,-0.019,-0.019,-0.019,-0.019,-0.019,-0.019,-0.019,-0.039,-0.039,-0.039,-0.039,-0.06,-0.06,-0.06,-0.039,-0.039,-0.019,0.002,0.002,0.002,0.002,0.002,0.002,0.002,0.002,0.002,0.002,0.002,0.002,0.002,0.002,0.002,0.002,0.002,0.002,0.002,0.002,0.002,0.002,0.002,0.002,0.002,0.002,0.002,0.022000000000000002,0.022000000000000002,0.063,0.083,0.10400000000000001,0.125,0.125,0.125,0.10400000000000001,0.083,0.022000000000000002,-0.019,-0.10099999999999999,-0.204,-0.34700000000000003,-0.49200000000000005,-0.655,-0.8,-0.922,-1.046,-1.087,-1.128,-1.149,-1.149,-1.1079999999999999,-1.0659999999999998,-0.9840000000000001,-0.922,-0.8,-0.6759999999999999,-0.5529999999999999,-0.43,-0.34700000000000003,-0.306,-0.266,-0.225,-0.184,-0.142,-0.122,-0.10099999999999999,-0.081,-0.039,-0.019,0.002,0.022000000000000002,0.042,0.083,0.10400000000000001,0.10400000000000001,0.125,0.125,0.125,0.125,0.125,0.125,0.125,0.125,0.125,0.125,0.125,0.125,0.125,0.125,0.125,0.125,0.125,0.125,0.125,0.125,0.10400000000000001,0.125,0.125,0.125,0.10400000000000001,0.125,0.125,0.125,0.125,0.10400000000000001,0.125,0.10400000000000001,0.125,0.10400000000000001,0.10400000000000001,0.10400000000000001,0.10400000000000001,0.10400000000000001,0.10400000000000001,0.125,0.125,0.125,0.125,0.125,0.125,0.125,0.125,0.125,0.125,0.125,0.125,0.125,0.125,0.125,0.125,0.125,0.125,0.125,0.125,0.125,0.145,0.125,0.125,0.145,0.145,0.145,0.145,0.145,0.145,0.145,0.145,0.145,0.145,0.145,0.145,0.145,0.145,0.145,0.145,0.166,0.145,0.166,0.166,0.166,0.166,0.166,0.166,0.166,0.166,0.145,0.145,0.166,0.166,0.166,0.166,0.166,0.166,0.166,0.166,0.145,0.145,0.145,0.145,0.125,0.125,0.125,0.125,0.125,0.125,0.10400000000000001,0.10400000000000001,0.10400000000000001,0.10400000000000001,0.10400000000000001,0.10400000000000001,0.083,0.083,0.083,0.083,0.083,0.083,0.083,0.063,0.063,0.042,0.042,0.042,0.042,0.042,0.042,0.042,0.042,0.042,0.042,0.042,0.022000000000000002,0.022000000000000002,0.022000000000000002,0.022000000000000002,0.022000000000000002,0.022000000000000002,0.022000000000000002,0.022000000000000002,0.022000000000000002,0.002,0.002,0.002,0.022000000000000002,0.002,0.002,0.002,0.002,0.002,0.002,0.002,0.002,0.002,0.002,0.002,0.002,0.002,0.002,0.002,0.002,0.002,0.002,0.002,0.002,0.002,0.002,0.002,0.002,0.002,0.002,0.002,0.002,0.002,0.002,0.002,0.002,0.002,0.002,0.002,0.002,0.002,0.002,0.002,0.002,0.002,0.002,0.002,0.002,0.002,0.002,0.002,0.002,0.002,0.002,0.002,0.002,0.002,0.002,0.002,0.002,0.002,0.002,0.002,0.002,0.002,0.002,0.002,0.002,0.002,0.002,0.002,0.002,0.002,0.002,0.002,0.002,0.002,0.002,0.002,0.002,0.002,-0.019,-0.019,-0.019,-0.019,-0.019,-0.039,-0.039,-0.039,-0.039,-0.039,-0.039,-0.039,-0.039,-0.039,-0.039,-0.039,-0.039,-0.039,-0.019,-0.019,-0.019,-0.019,-0.039,-0.019,-0.019,-0.039,-0.039,-0.06,-0.06,-0.06,-0.039,-0.039,-0.039,-0.019,0.002,0.002,0.002,0.002,0.002,0.002,0.002,0.002,0.002,0.002,0.002,0.002,0.002,0.002,0.002,0.002,0.002,0.002,0.002,0.002,0.002,0.002,0.002,0.002,0.002,0.002,0.002,0.022000000000000002,0.022000000000000002,0.042,0.083,0.10400000000000001,0.125,0.125,0.125,0.10400000000000001,0.083,0.042,0.002,-0.06,-0.163,-0.306,-0.45,-0.614,-0.758,-0.922,-1.046,-1.128,-1.169,-1.21,-1.21,-1.189,-1.149,-1.1079999999999999,-1.025,-0.922,-0.779,-0.635,-0.5329999999999999,-0.43,-0.34700000000000003,-0.306,-0.266,-0.204,-0.184,-0.142,-0.122,-0.10099999999999999,-0.06,-0.019,0.002,0.002,0.042,0.063,0.083,0.10400000000000001,0.10400000000000001,0.125,0.125,0.125,0.125,0.125,0.125,0.125,0.125,0.125,0.125,0.125,0.125,0.125,0.125,0.125,0.145,0.145,0.145,0.125,0.125,0.125,0.125,0.125,0.125,0.125,0.125,0.125,0.125,0.125,0.125,0.125,0.125,0.125,0.125,0.125,0.125,0.125,0.125,0.125,0.125,0.125,0.125,0.10400000000000001,0.125,0.10400000000000001,0.125,0.125,0.125,0.10400000000000001,0.10400000000000001,0.125,0.125,0.125,0.125,0.125,0.125,0.125,0.145,0.125,0.125,0.125,0.125,0.145,0.125,0.145,0.145,0.145,0.145,0.125,0.125,0.145,0.145,0.145,0.145,0.145,0.145,0.166,0.145,0.166,0.166,0.166,0.145,0.145,0.166,0.166,0.166,0.166,0.166,0.166,0.166,0.166,0.166,0.166,0.166,0.166,0.166,0.145,0.145,0.145,0.145,0.125,0.125,0.125,0.125,0.125,0.125,0.10400000000000001,0.10400000000000001,0.10400000000000001,0.10400000000000001,0.10400000000000001,0.10400000000000001,0.10400000000000001,0.083,0.083,0.083,0.063,0.083,0.083,0.063,0.063,0.042,0.042,0.042,0.042,0.042,0.042,0.042,0.042,0.042,0.042,0.022000000000000002,0.022000000000000002,0.022000000000000002,0.022000000000000002,0.022000000000000002,0.042,0.022000000000000002,0.022000000000000002,0.022000000000000002,0.022000000000000002,0.002,0.022000000000000002,0.022000000000000002,0.002,0.002,0.002,0.002,0.002,0.002,0.002,0.002,0.002,0.002,0.002,0.002,0.002,0.002,0.002,0.002,0.002,0.002,0.002,0.002,0.002,0.002,0.022000000000000002,0.002,0.002,0.002,0.002,0.002,0.002,0.002,0.002,0.002,0.002,0.002,0.002,0.002,0.002,0.002,0.002,0.002,0.002,0.002,0.002,0.002,0.002,0.002,0.002,0.002,0.002,0.002,0.002,0.002,0.002,0.002,0.002,0.002,0.002,0.002,0.002,0.002,0.002,0.002,0.002,0.002,0.002,0.002,0.002,0.002,0.002,0.002,0.002,0.002,0.002,0.002,0.002,0.002,0.002,0.002,0.002,0.002,0.002,0.002,0.002,0.002,0.002,0.002,0.002,0.002,0.002,0.002,0.002,0.002,0.002,0.002,0.002,0.002,0.002,0.002,0.002,0.002,0.002,0.002,0.002,0.002,0.002,0.002,0.002,0.002,0.002,0.002,0.002,0.002,0.002,0.002,0.002,0.002,0.002,0.002,0.002,0.002,0.002,0.002,0.002,0.002,0.002,0.002,0.002,0.002,0.002,0.002,0.002,0.002,0.002,0.002,0.002,0.002,0.002,0.002,0.002,0.002,0.002,0.002,0.002,0.002,0.002,0.002,0.002,0.002,0.002,0.002,0.002,0.002,0.002,0.002,0.002,0.002,0.002,0.002,0.002,0.002,0.002,0.002,0.002,0.002,0.002,0.002,0.002,0.002,0.002,0.002,0.002,0.002,0.002,0.002,0.002,0.002,0.002,0.002,0.002,0.002,0.002,0.002,0.002,0.002,0.002,0.002,0.002,0.002,0.002,0.002,0.002,0.002,0.002,0.002,0.002,0.002,0.002,0.002,0.002,0.002,0.002,0.002,0.002,0.002,0.002,0.002,0.002,0.002,0.002,0.002,0.002,0.002,0.002,0.002,0.002,0.002,0.002,0.002,0.002,0.002,0.002,0.002,0.002,0.002,0.002,0.002,0.002,0.002,0.002,0.002,0.002,0.002,0.002,0.002,0.002,0.002,0.002,0.002,0.002,0.002,0.002,0.002,0.002,0.002,0.002,0.002,0.002,0.002,0.002,0.002,0.002,0.002,0.002,0.002,0.002,0.002,0.002,0.002,0.002,0.002,0.002,0.002,0.002,0.002,0.002,0.002,0.002,0.002,0.002,0.002,0.002,0.002,0.002,0.002,0.002,0.002,0.002,0.002,0.002,0.002,0.002,0.002,0.002,0.002,0.002,0.002,0.002,0.002,0.002,0.002,0.002,0.002,0.002,0.002,0.022000000000000002,0.002,0.002,0.002,0.002,0.002,0.002,0.002,0.002,0.002,0.002,0.002,0.002,0.002,0.002,0.002,0.002,0.002,0.002,0.002,0.002,0.002,0.002,0.002,0.002,0.002,0.002,0.002,0.002,0.002,0.002,0.002,0.002,0.002,0.002,0.002,0.002,0.002,0.002,0.002,0.002,0.002,0.002,0.002,0.002,0.002,0.002,0.002,0.002,0.002,0.002,0.002,0.002,0.002,0.002,0.002,0.002,0.002,0.002,0.002,0.002,0.002,0.002,0.002,0.002,0.002,0.002,0.002,0.002,0.002,0.002,0.002,0.002,0.002,0.002,0.002,0.002,0.002,0.002,0.002,0.002,0.002,0.002,0.002,0.002,0.002,0.002,0.002,0.002,0.002,0.002,0.002,0.002,0.002,0.002,0.002,0.002,0.002,0.002,0.002,0.002,0.002,0.002,0.002,0.002,0.002,0.002,0.002,0.002,0.002,0.002,0.002,0.002,0.002,0.002,0.002,0.002,0.002,0.002,0.002,0.002,0.002,0.002,0.002,0.002,0.002,0.002,0.002,0.002,0.002,0.002,0.002,0.002,0.002,0.002,0.002,0.002,0.002,0.002,0.002,0.002,0.002,0.002,0.002,0.002,0.002,0.002,0.002,0.042,0.45299999999999996,0.72,0.8640000000000001,0.925,0.987,0.987,1.0070000000000001,1.0070000000000001,1.0070000000000001,1.0070000000000001,1.0070000000000001,1.0070000000000001,0.987,0.987,0.987,0.987,0.987
6,0.125,0.10400000000000001,0.10400000000000001,0.10400000000000001,0.10400000000000001,0.10400000000000001,0.083,0.083,0.083,0.083,0.083,0.083,0.083,0.063,0.063,0.063,0.063,0.063,0.042,0.042,0.042,0.042,0.042,0.042,0.042,0.042,0.022000000000000002,0.022000000000000002,0.022000000000000002,0.022000000000000002,0.022000000000000002,0.022000000000000002,0.022000000000000002,0.022000000000000002,0.022000000000000002,0.002,0.002,0.002,0.022000000000000002,0.002,0.002,0.002,0.002,0.002,0.002,0.002,0.002,0.002,0.002,0.002,0.002,0.002,0.002,0.002,0.002,0.002,0.002,0.002,0.002,0.002,0.002,0.002,0.002,0.002,0.002,0.002,0.002,0.002,0.002,0.002,0.002,0.002,0.002,0.002,0.002,0.002,0.002,0.002,0.002,0.002,0.002,0.002,0.002,0.002,0.002,0.002,0.002,0.002,0.002,0.002,0.002,0.002,0.002,0.002,0.002,0.002,0.002,0.002,0.002,0.002,0.002,0.002,0.002,0.002,0.002,0.002,0.002,0.002,0.002,0.002,0.002,0.002,0.002,0.002,0.002,0.002,0.002,0.002,0.002,0.002,-0.019,-0.019,-0.019,-0.039,-0.039,-0.039,-0.039,-0.039,-0.06,-0.06,-0.039,-0.039,-0.039,-0.039,-0.039,-0.039,-0.019,-0.019,-0.019,-0.019,-0.019,-0.019,-0.019,-0.019,-0.039,-0.039,-0.039,-0.039,-0.06,-0.06,-0.06,-0.039,-0.039,-0.019,0.002,0.002,0.002,0.002,0.002,0.002,0.002,0.002,0.002,0.002,0.002,0.002,0.002,0.002,0.002,0.002,0.002,0.002,0.002,0.002,0.002,0.002,0.002,0.002,0.002,0.002,0.002,0.002,0.022000000000000002,0.063,0.083,0.10400000000000001,0.125,0.125,0.125,0.10400000000000001,0.063,0.022000000000000002,-0.019,-0.10099999999999999,-0.204,-0.34700000000000003,-0.49200000000000005,-0.655,-0.8,-0.922,-1.025,-1.087,-1.128,-1.149,-1.149,-1.1079999999999999,-1.0659999999999998,-1.005,-0.902,-0.8,-0.655,-0.5529999999999999,-0.43,-0.368,-0.327,-0.266,-0.225,-0.204,-0.163,-0.142,-0.122,-0.081,-0.06,-0.019,0.002,0.002,0.042,0.063,0.083,0.083,0.10400000000000001,0.10400000000000001,0.10400000000000001,0.10400000000000001,0.10400000000000001,0.10400000000000001,0.10400000000000001,0.10400000000000001,0.10400000000000001,0.125,0.10400000000000001,0.125,0.10400000000000001,0.10400000000000001,0.10400000000000001,0.10400000000000001,0.10400000000000001,0.10400000000000001,0.10400000000000001,0.10400000000000001,0.10400000000000001,0.125,0.10400000000000001,0.10400000000000001,0.10400000000000001,0.10400000000000001,0.10400000000000001,0.10400000000000001,0.10400000000000001,0.10400000000000001,0.10400000000000001,0.10400000000000001,0.10400000000000001,0.10400000000000001,0.10400000000000001,0.10400000000000001,0.10400000000000001,0.10400000000000001,0.10400000000000001,0.10400000000000001,0.10400000000000001,0.10400000000000001,0.10400000000000001,0.10400000000000001,0.10400000000000001,0.10400000000000001,0.125,0.10400000000000001,0.10400000000000001,0.10400000000000001,0.10400000000000001,0.125,0.10400000000000001,0.10400000000000001,0.10400000000000001,0.10400000000000001,0.10400000000000001,0.10400000000000001,0.10400000000000001,0.10400000000000001,0.10400000000000001,0.10400000000000001,0.10400000000000001,0.125,0.10400000000000001,0.10400000000000001,0.125,0.125,0.125,0.125,0.125,0.125,0.125,0.125,0.125,0.125,0.145,0.125,0.145,0.145,0.145,0.145,0.145,0.145,0.145,0.145,0.145,0.145,0.145,0.145,0.145,0.145,0.145,0.145,0.145,0.145,0.145,0.145,0.145,0.145,0.145,0.145,0.145,0.125,0.125,0.125,0.125,0.10400000000000001,0.10400000000000001,0.10400000000000001,0.10400000000000001,0.10400000000000001,0.10400000000000001,0.083,0.083,0.083,0.083,0.083,0.083,0.083,0.083,0.063,0.063,0.042,0.063,0.042,0.042,0.042,0.042,0.042,0.042,0.042,0.042,0.042,0.042,0.022000000000000002,0.042,0.042,0.022000000000000002,0.022000000000000002,0.022000000000000002,0.022000000000000002,0.022000000000000002,0.042,0.022000000000000002,0.022000000000000002,0.022000000000000002,0.022000000000000002,0.022000000000000002,0.022000000000000002,0.002,0.002,0.002,0.002,0.002,0.002,0.002,0.002,0.002,0.002,0.002,0.002,0.002,0.002,0.002,0.002,0.002,0.002,0.002,0.002,0.002,0.002,0.002,0.002,0.002,0.002,0.002,0.002,0.002,0.002,0.002,0.002,0.002,0.002,0.002,0.002,0.002,0.002,0.022000000000000002,0.002,0.002,0.002,0.002,0.002,0.002,0.002,0.002,0.002,0.002,0.002,0.002,0.002,0.002,0.002,0.002,0.002,0.002,0.002,0.002,0.002,0.002,0.002,0.002,0.002,0.002,0.002,0.002,0.002,0.002,0.002,0.002,0.002,0.002,0.002,0.002,0.002,0.002,-0.019,-0.019,-0.019,-0.019,-0.039,-0.039,-0.039,-0.039,-0.039,-0.039,-0.039,-0.039,-0.039,-0.039,-0.019,-0.019,-0.019,-0.019,-0.019,-0.019,-0.019,0.002,-0.019,-0.019,-0.039,-0.039,-0.039,-0.039,-0.039,-0.06,-0.039,-0.039,-0.039,-0.019,0.002,0.002,0.002,0.002,0.002,0.002,0.002,0.002,0.002,0.002,0.002,0.002,0.002,0.002,0.002,0.002,0.002,0.002,0.002,0.002,0.002,0.002,0.002,0.002,0.002,0.002,0.002,0.022000000000000002,0.042,0.063,0.10400000000000001,0.10400000000000001,0.125,0.145,0.125,0.10400000000000001,0.083,0.042,0.002,-0.081,-0.184,-0.327,-0.47100000000000003,-0.635,-0.779,-0.922,-1.025,-1.1079999999999999,-1.149,-1.169,-1.189,-1.149,-1.1079999999999999,-1.046,-0.963,-0.861,-0.7170000000000001,-0.594,-0.47100000000000003,-0.389,-0.327,-0.287,-0.245,-0.204,-0.163,-0.142,-0.10099999999999999,-0.081,-0.06,-0.019,0.002,0.022000000000000002,0.042,0.083,0.083,0.10400000000000001,0.10400000000000001,0.10400000000000001,0.125,0.10400000000000001,0.125,0.125,0.125,0.125,0.125,0.125,0.125,0.125,0.125,0.125,0.125,0.125,0.125,0.125,0.125,0.125,0.125,0.125,0.125,0.125,0.125,0.125,0.125,0.125,0.125,0.10400000000000001,0.125,0.10400000000000001,0.125,0.125,0.125,0.125,0.125,0.10400000000000001,0.10400000000000001,0.125,0.125,0.125,0.125,0.10400000000000001,0.10400000000000001,0.10400000000000001,0.10400000000000001,0.10400000000000001,0.10400000000000001,0.125,0.10400000000000001,0.125,0.125,0.125,0.125,0.125,0.125,0.10400000000000001,0.125,0.125,0.125,0.125,0.125,0.125,0.125,0.125,0.125,0.125,0.125,0.125,0.125,0.125,0.145,0.145,0.145,0.125,0.125,0.145,0.145,0.145,0.145,0.145,0.145,0.145,0.145,0.166,0.166,0.166,0.166,0.166,0.166,0.166,0.166,0.166,0.166,0.145,0.166,0.166,0.145,0.145,0.145,0.145,0.145,0.125,0.125,0.125,0.125,0.125,0.10400000000000001,0.125,0.10400000000000001,0.10400000000000001,0.10400000000000001,0.10400000000000001,0.10400000000000001,0.083,0.083,0.083,0.083,0.083,0.083,0.063,0.063,0.063,0.063,0.042,0.042,0.042,0.042,0.042,0.042,0.042,0.042,0.042,0.042,0.042,0.042,0.042,0.042,0.022000000000000002,0.022000000000000002,0.022000000000000002,0.022000000000000002,0.022000000000000002,0.022000000000000002,0.022000000000000002,0.022000000000000002,0.022000000000000002,0.022000000000000002,0.022000000000000002,0.022000000000000002,0.002,0.002,0.002,0.002,0.022000000000000002,0.002,0.002,0.002,0.002,0.002,0.022000000000000002,0.002,0.002,0.002,0.002,0.002,0.002,0.002,0.002,0.002,0.002,0.002,0.002,0.002,0.002,0.002,0.022000000000000002,0.022000000000000002,0.022000000000000002,0.002,0.002,0.002,0.002,0.002,0.002,0.002,0.002,0.002,0.002,0.002,0.002,0.002,0.002,0.002,0.002,0.002,0.002,0.002,0.002,0.002,0.002,0.002,0.002,0.002,0.002,0.002,0.002,0.002,0.002,0.002,0.002,0.002,0.002,0.002,0.002,0.002,0.002,0.002,0.002,0.002,0.002,0.002,0.002,0.002,0.002,0.002,0.002,-0.019,-0.019,-0.019,-0.019,-0.019,-0.039,-0.039,-0.039,-0.039,-0.039,-0.039,-0.039,-0.039,-0.039,-0.039,-0.039,-0.039,-0.019,-0.019,-0.019,-0.019,-0.019,-0.019,-0.019,-0.039,-0.039,-0.039,-0.039,-0.06,-0.06,-0.06,-0.039,-0.039,-0.039,-0.019,0.002,0.002,0.002,0.002,0.002,0.002,0.002,0.002,0.002,0.002,0.002,0.002,0.002,0.002,0.002,0.002,0.002,0.002,0.002,0.002,0.002,0.002,0.002,0.002,0.002,0.002,0.002,0.022000000000000002,0.042,0.083,0.10400000000000001,0.10400000000000001,0.125,0.125,0.10400000000000001,0.083,0.042,0.002,-0.06,-0.142,-0.266,-0.409,-0.574,-0.7170000000000001,-0.861,-0.9840000000000001,-1.0659999999999998,-1.1079999999999999,-1.149,-1.149,-1.149,-1.1079999999999999,-1.046,-0.9840000000000001,-0.8809999999999999,-0.738,-0.614,-0.49200000000000005,-0.409,-0.34700000000000003,-0.306,-0.266,-0.204,-0.184,-0.163,-0.122,-0.10099999999999999,-0.081,-0.039,-0.019,0.002,0.042,0.042,0.083,0.083,0.10400000000000001,0.10400000000000001,0.10400000000000001,0.10400000000000001,0.10400000000000001,0.10400000000000001,0.10400000000000001,0.10400000000000001,0.10400000000000001,0.125,0.10400000000000001,0.10400000000000001,0.10400000000000001,0.10400000000000001,0.10400000000000001,0.10400000000000001,0.125,0.125,0.10400000000000001,0.125,0.10400000000000001,0.10400000000000001,0.10400000000000001,0.10400000000000001,0.10400000000000001,0.10400000000000001,0.10400000000000001,0.10400000000000001,0.10400000000000001,0.10400000000000001,0.125,0.10400000000000001,0.10400000000000001,0.10400000000000001,0.10400000000000001,0.10400000000000001,0.10400000000000001,0.10400000000000001,0.10400000000000001,0.10400000000000001,0.10400000000000001,0.10400000000000001,0.10400000000000001,0.10400000000000001,0.10400000000000001,0.10400000000000001,0.10400000000000001,0.10400000000000001,0.10400000000000001,0.10400000000000001,0.10400000000000001,0.10400000000000001,0.10400000000000001,0.10400000000000001,0.10400000000000001,0.10400000000000001,0.10400000000000001,0.10400000000000001,0.10400000000000001,0.10400000000000001,0.10400000000000001,0.10400000000000001,0.10400000000000001,0.125,0.10400000000000001,0.125,0.125,0.125,0.125,0.125,0.125,0.125,0.125,0.125,0.125,0.125,0.145,0.125,0.145,0.145,0.145,0.145,0.145,0.145,0.145,0.145,0.145,0.145,0.145,0.145,0.145,0.145,0.145,0.145,0.145,0.145,0.145,0.145,0.145,0.145,0.145,0.145,0.125,0.125,0.125,0.125,0.10400000000000001,0.10400000000000001,0.10400000000000001,0.10400000000000001,0.10400000000000001,0.10400000000000001,0.10400000000000001,0.083,0.083,0.083,0.083,0.083,0.083,0.083,0.063,0.063,0.042,0.063,0.042,0.042,0.042,0.042,0.042,0.042,0.042,0.042,0.042,0.042,0.022000000000000002,0.022000000000000002,0.022000000000000002,0.022000000000000002,0.022000000000000002,0.022000000000000002,0.022000000000000002,0.022000000000000002,0.022000000000000002,0.022000000000000002,0.022000000000000002,0.022000000000000002,0.022000000000000002,0.022000000000000002,0.002,0.002,0.002,0.002,0.002,0.002,0.002,0.002,0.002,0.002,0.002,0.002,0.002,0.002,0.002,0.002,0.002,0.002,0.002,0.002,0.002,0.002,0.002,0.002,0.002,0.002,0.002,0.002,0.002,0.002,0.002,0.002,0.002,0.002,0.002,0.002,0.002,0.002,0.002,0.002,0.002,0.002,0.002,0.002,0.002,0.002,0.002,0.002,0.002,0.002,0.002,0.002,0.002,0.002,0.002,0.002,0.002,0.002,0.002,0.002,0.002,0.002,0.002,0.002,0.002,0.002,0.002,0.002,0.002,0.002,0.002,0.002,0.002,0.002,0.002,0.002,0.002,0.002,0.002,0.002,0.002,-0.019,-0.019,-0.019,-0.039,-0.039,-0.039,-0.039,-0.06,-0.06,-0.06,-0.039,-0.039,-0.039,-0.039,-0.039,-0.039,-0.039,-0.019,-0.019,-0.019,-0.019,-0.019,-0.019,-0.039,-0.039,-0.039,-0.039,-0.06,-0.06,-0.06,-0.06,-0.039,-0.039,-0.019,0.002,0.002,0.002,0.002,0.002,0.002,0.002,0.002,0.002,0.002,0.002,0.002,0.002,0.002,0.002,0.002,0.002,0.002,0.002,0.002,0.002,0.002,0.002,0.002,0.002,0.002,0.002,0.002,0.022000000000000002,0.042,0.083,0.10400000000000001,0.125,0.125,0.125,0.10400000000000001,0.063,0.022000000000000002,-0.019,-0.10099999999999999,-0.225,-0.368,-0.512,-0.655,-0.82,-0.922,-1.025,-1.087,-1.128,-1.149,-1.149,-1.128,-1.0659999999999998,-1.005,-0.922,-0.8,-0.655,-0.5529999999999999,-0.45,-0.368,-0.327,-0.266,-0.225,-0.184,-0.163,-0.142,-0.10099999999999999,-0.081,-0.039,-0.019,0.002,0.022000000000000002,0.042,0.083,0.083,0.10400000000000001,0.10400000000000001,0.10400000000000001,0.10400000000000001,0.10400000000000001,0.125,0.125,0.125,0.125,0.125,0.125,0.125,0.125,0.10400000000000001,0.10400000000000001,0.10400000000000001,0.125,0.10400000000000001,0.10400000000000001,0.125,0.10400000000000001,0.10400000000000001,0.125,0.125,0.10400000000000001,0.125,0.10400000000000001,0.125,0.10400000000000001,0.125,0.10400000000000001,0.10400000000000001,0.10400000000000001,0.10400000000000001,0.10400000000000001,0.10400000000000001,0.10400000000000001,0.10400000000000001,0.10400000000000001,0.125,0.10400000000000001,0.10400000000000001,0.10400000000000001,0.10400000000000001,0.10400000000000001,0.10400000000000001,0.10400000000000001,0.10400000000000001,0.10400000000000001,0.10400000000000001,0.10400000000000001,0.10400000000000001,0.10400000000000001,0.10400000000000001,0.125,0.10400000000000001,0.10400000000000001,0.10400000000000001,0.10400000000000001,0.10400000000000001,0.10400000000000001,0.10400000000000001,0.125,0.125,0.125,0.125,0.125,0.125,0.125,0.125,0.125,0.145,0.125,0.125,0.125,0.125,0.125,0.125,0.125,0.145,0.145,0.145,0.145,0.145,0.145,0.145,0.145,0.145,0.145,0.145,0.145,0.145,0.145,0.145,0.145,0.145,0.145,0.145,0.145,0.145,0.145,0.125,0.145,0.125,0.125,0.125,0.125,0.10400000000000001,0.10400000000000001,0.10400000000000001,0.10400000000000001,0.10400000000000001,0.10400000000000001,0.083,0.083,0.083,0.083,0.063,0.083,0.083,0.063,0.063,0.063,0.063,0.063,0.042,0.042,0.042,0.042,0.042,0.042,0.042,0.042,0.042,0.022000000000000002,0.022000000000000002,0.022000000000000002,0.022000000000000002,0.022000000000000002,0.022000000000000002,0.022000000000000002,0.022000000000000002,0.002,0.002,0.002,0.002,0.002,0.002,0.002,0.002,0.002,0.002,0.002,0.002,0.002,0.002,0.002,0.002,0.002,0.002,0.002,0.002,0.002,0.002,0.002,0.002,0.002,0.002,0.002,0.002,0.002,0.002,0.002,0.002,0.002,0.002,0.002,0.002,0.002,0.002,0.002,0.002,0.002,0.002,0.002,0.002,0.002,0.002,0.002,0.002,0.002,0.002,0.002,0.002,0.002,0.002,0.002,0.002,0.002,0.002,0.002,0.002,0.002,0.002,0.002,0.002,0.002,0.002,0.002,0.002,0.002,0.002,0.002,0.002,0.002,0.002,0.002,0.002,0.002,0.002,0.002,0.002,0.002,0.002,0.002,0.002,0.002,-0.019,-0.019,-0.019,-0.019,-0.039,-0.039,-0.039,-0.039,-0.06,-0.06,-0.039,-0.039,-0.039,-0.039,-0.039,-0.039,-0.019,-0.019,-0.019,-0.019,-0.019,-0.019,-0.019,-0.019,-0.039,-0.039,-0.039,-0.039,-0.06,-0.06
7,0.10400000000000001,0.10400000000000001,0.10400000000000001,0.10400000000000001,0.10400000000000001,0.083,0.083,0.083,0.083,0.083,0.083,0.083,0.063,0.083,0.063,0.063,0.063,0.042,0.063,0.042,0.042,0.042,0.042,0.042,0.042,0.022000000000000002,0.022000000000000002,0.042,0.042,0.022000000000000002,0.022000000000000002,0.022000000000000002,0.022000000000000002,0.022000000000000002,0.022000000000000002,0.022000000000000002,0.002,0.002,0.002,0.022000000000000002,0.002,0.002,0.002,0.002,0.002,0.002,0.002,0.002,0.002,0.002,0.002,0.002,0.002,0.002,0.002,0.002,0.002,0.002,0.002,0.002,0.002,0.002,0.002,0.002,0.002,0.002,0.022000000000000002,0.002,0.002,0.002,0.002,0.002,0.002,0.002,0.002,0.002,0.002,0.002,0.002,0.002,0.002,0.022000000000000002,0.022000000000000002,0.022000000000000002,0.002,0.002,0.002,0.002,0.002,0.002,0.002,0.002,0.002,0.002,0.002,0.002,0.002,0.002,0.002,0.002,0.002,0.002,0.002,0.002,0.002,0.002,0.002,0.002,0.002,0.002,0.002,0.002,0.002,0.002,0.002,0.002,0.002,0.002,0.002,0.002,0.002,-0.019,-0.019,-0.019,-0.039,-0.039,-0.039,-0.039,-0.039,-0.039,-0.039,-0.06,-0.039,-0.039,-0.039,-0.039,-0.039,-0.039,-0.019,-0.019,-0.019,-0.019,-0.019,-0.019,-0.019,-0.039,-0.039,-0.039,-0.06,-0.06,-0.06,-0.039,-0.039,-0.039,-0.019,0.002,0.002,0.002,0.002,0.002,0.002,0.002,0.002,0.002,0.002,0.002,0.002,0.002,0.002,0.002,0.002,0.002,0.002,0.002,0.002,0.002,0.002,0.002,0.002,0.002,0.002,0.002,0.002,0.022000000000000002,0.063,0.083,0.10400000000000001,0.125,0.125,0.125,0.10400000000000001,0.063,0.022000000000000002,-0.019,-0.10099999999999999,-0.225,-0.368,-0.512,-0.6759999999999999,-0.82,-0.943,-1.046,-1.128,-1.149,-1.189,-1.169,-1.149,-1.1079999999999999,-1.025,-0.922,-0.82,-0.6759999999999999,-0.5529999999999999,-0.45,-0.368,-0.327,-0.287,-0.245,-0.204,-0.163,-0.142,-0.10099999999999999,-0.081,-0.039,-0.019,0.002,0.022000000000000002,0.042,0.063,0.083,0.10400000000000001,0.10400000000000001,0.10400000000000001,0.10400000000000001,0.10400000000000001,0.125,0.10400000000000001,0.125,0.125,0.125,0.125,0.125,0.125,0.125,0.125,0.125,0.125,0.10400000000000001,0.10400000000000001,0.10400000000000001,0.10400000000000001,0.10400000000000001,0.10400000000000001,0.125,0.10400000000000001,0.125,0.125,0.10400000000000001,0.125,0.10400000000000001,0.10400000000000001,0.125,0.10400000000000001,0.125,0.10400000000000001,0.10400000000000001,0.10400000000000001,0.10400000000000001,0.10400000000000001,0.10400000000000001,0.10400000000000001,0.10400000000000001,0.125,0.125,0.10400000000000001,0.125,0.125,0.125,0.125,0.10400000000000001,0.10400000000000001,0.10400000000000001,0.10400000000000001,0.10400000000000001,0.10400000000000001,0.10400000000000001,0.125,0.10400000000000001,0.10400000000000001,0.125,0.10400000000000001,0.125,0.125,0.125,0.125,0.125,0.125,0.125,0.125,0.125,0.125,0.125,0.125,0.125,0.125,0.125,0.125,0.145,0.125,0.125,0.145,0.145,0.145,0.145,0.145,0.166,0.145,0.166,0.166,0.166,0.145,0.166,0.145,0.166,0.145,0.145,0.145,0.145,0.145,0.145,0.145,0.145,0.125,0.125,0.125,0.125,0.125,0.10400000000000001,0.10400000000000001,0.10400000000000001,0.10400000000000001,0.10400000000000001,0.10400000000000001,0.083,0.083,0.083,0.083,0.083,0.083,0.063,0.063,0.063,0.042,0.042,0.042,0.042,0.042,0.042,0.042,0.042,0.042,0.022000000000000002,0.022000000000000002,0.022000000000000002,0.022000000000000002,0.022000000000000002,0.022000000000000002,0.022000000000000002,0.022000000000000002,0.022000000000000002,0.022000000000000002,0.002,0.002,0.002,0.002,0.002,0.002,0.002,0.002,0.002,0.002,0.002,0.002,0.002,0.002,0.002,0.002,0.002,0.002,0.002,0.002,0.002,0.002,0.002,0.002,0.002,0.002,0.002,0.002,0.002,0.002,0.002,0.002,0.002,0.002,0.002,0.002,0.002,0.002,0.002,0.002,0.002,0.002,0.002,0.002,0.002,0.002,0.002,0.002,0.002,0.002,0.002,0.002,0.002,0.002,0.002,0.002,0.002,0.002,0.002,0.002,0.002,0.002,0.002,0.002,0.002,0.002,0.002,0.002,0.002,0.002,0.002,0.002,0.002,0.002,0.002,0.002,0.002,0.002,0.002,0.002,0.002,0.002,0.002,0.002,0.002,0.002,0.002,0.002,-0.019,-0.019,-0.019,-0.019,-0.039,-0.039,-0.039,-0.039,-0.039,-0.06,-0.06,-0.06,-0.039,-0.039,-0.039,-0.039,-0.039,-0.019,-0.019,-0.019,-0.019,-0.019,-0.019,-0.039,-0.039,-0.039,-0.039,-0.039,-0.039,-0.06,-0.06,-0.039,-0.039,-0.039,-0.019,0.002,0.002,0.002,0.002,0.002,0.002,0.002,0.002,0.002,0.002,0.002,0.002,0.002,0.002,0.002,0.002,0.002,0.002,0.002,0.002,0.002,0.002,0.002,0.002,0.002,0.002,0.002,0.022000000000000002,0.042,0.063,0.083,0.10400000000000001,0.125,0.10400000000000001,0.10400000000000001,0.063,0.042,0.002,-0.081,-0.163,-0.306,-0.45,-0.594,-0.758,-0.8809999999999999,-0.9840000000000001,-1.0659999999999998,-1.1079999999999999,-1.128,-1.149,-1.128,-1.087,-1.025,-0.943,-0.841,-0.7170000000000001,-0.574,-0.47100000000000003,-0.389,-0.34700000000000003,-0.306,-0.266,-0.225,-0.184,-0.163,-0.142,-0.10099999999999999,-0.081,-0.039,-0.019,0.002,0.042,0.063,0.083,0.083,0.10400000000000001,0.10400000000000001,0.10400000000000001,0.10400000000000001,0.10400000000000001,0.10400000000000001,0.10400000000000001,0.10400000000000001,0.10400000000000001,0.10400000000000001,0.10400000000000001,0.10400000000000001,0.10400000000000001,0.125,0.10400000000000001,0.10400000000000001,0.10400000000000001,0.10400000000000001,0.10400000000000001,0.10400000000000001,0.10400000000000001,0.10400000000000001,0.10400000000000001,0.10400000000000001,0.10400000000000001,0.10400000000000001,0.10400000000000001,0.10400000000000001,0.10400000000000001,0.10400000000000001,0.10400000000000001,0.10400000000000001,0.10400000000000001,0.10400000000000001,0.10400000000000001,0.10400000000000001,0.10400000000000001,0.10400000000000001,0.10400000000000001,0.10400000000000001,0.10400000000000001,0.10400000000000001,0.10400000000000001,0.10400000000000001,0.10400000000000001,0.10400000000000001,0.10400000000000001,0.10400000000000001,0.10400000000000001,0.10400000000000001,0.10400000000000001,0.10400000000000001,0.10400000000000001,0.10400000000000001,0.125,0.10400000000000001,0.125,0.125,0.125,0.125,0.125,0.125,0.125,0.125,0.125,0.125,0.125,0.125,0.125,0.125,0.125,0.145,0.125,0.145,0.125,0.125,0.145,0.145,0.145,0.145,0.145,0.145,0.145,0.145,0.145,0.145,0.166,0.166,0.145,0.166,0.166,0.166,0.166,0.166,0.145,0.145,0.145,0.145,0.145,0.145,0.145,0.125,0.125,0.125,0.125,0.125,0.10400000000000001,0.10400000000000001,0.10400000000000001,0.10400000000000001,0.10400000000000001,0.10400000000000001,0.10400000000000001,0.083,0.083,0.083,0.083,0.083,0.083,0.063,0.083,0.063,0.063,0.063,0.042,0.042,0.042,0.042,0.042,0.042,0.042,0.022000000000000002,0.042,0.022000000000000002,0.022000000000000002,0.022000000000000002,0.022000000000000002,0.022000000000000002,0.022000000000000002,0.022000000000000002,0.022000000000000002,0.002,0.002,0.002,0.002,0.002,0.002,0.002,0.002,0.002,0.002,0.002,0.002,0.002,0.002,0.002,0.002,0.002,0.002,0.002,0.002,0.002,0.002,0.002,0.002,0.002,0.002,0.002,0.002,0.002,0.002,0.002,0.002,0.002,0.002,0.002,0.002,0.002,0.002,0.002,0.002,0.002,0.002,0.002,0.002,0.002,0.022000000000000002,0.002,0.022000000000000002,0.022000000000000002,0.002,0.002,0.002,0.002,0.002,0.002,0.002,0.002,0.002,0.002,0.002,0.002,0.002,0.002,0.002,0.002,0.002,0.002,0.002,0.002,0.002,0.002,0.002,0.002,0.002,0.002,0.002,0.002,0.002,0.002,0.002,0.002,0.002,0.002,0.002,0.002,0.002,0.002,0.002,-0.019,-0.019,-0.019,-0.039,-0.039,-0.039,-0.039,-0.039,-0.039,-0.06,-0.039,-0.039,-0.039,-0.039,-0.039,-0.019,-0.019,-0.019,-0.019,-0.019,-0.019,-0.019,-0.039,-0.039,-0.039,-0.039,-0.039,-0.06,-0.06,-0.039,-0.039,-0.039,-0.019,0.002,0.002,0.002,0.002,0.002,0.002,0.002,0.002,0.002,0.002,0.002,0.002,0.002,0.002,0.002,0.002,0.002,0.002,0.002,0.002,0.002,0.002,0.002,0.002,0.002,0.002,0.002,0.002,0.042,0.042,0.083,0.10400000000000001,0.10400000000000001,0.125,0.10400000000000001,0.083,0.063,0.002,-0.039,-0.10099999999999999,-0.225,-0.368,-0.512,-0.655,-0.8,-0.922,-1.025,-1.087,-1.1079999999999999,-1.128,-1.128,-1.1079999999999999,-1.046,-0.9840000000000001,-0.902,-0.779,-0.635,-0.512,-0.43,-0.368,-0.306,-0.266,-0.225,-0.184,-0.163,-0.142,-0.10099999999999999,-0.10099999999999999,-0.039,-0.019,0.002,0.022000000000000002,0.042,0.063,0.083,0.083,0.10400000000000001,0.10400000000000001,0.10400000000000001,0.10400000000000001,0.10400000000000001,0.10400000000000001,0.10400000000000001,0.10400000000000001,0.125,0.125,0.125,0.125,0.125,0.10400000000000001,0.10400000000000001,0.10400000000000001,0.10400000000000001,0.10400000000000001,0.10400000000000001,0.10400000000000001,0.10400000000000001,0.10400000000000001,0.10400000000000001,0.10400000000000001,0.10400000000000001,0.10400000000000001,0.10400000000000001,0.10400000000000001,0.10400000000000001,0.10400000000000001,0.10400000000000001,0.10400000000000001,0.10400000000000001,0.10400000000000001,0.10400000000000001,0.10400000000000001,0.10400000000000001,0.10400000000000001,0.10400000000000001,0.10400000000000001,0.10400000000000001,0.10400000000000001,0.10400000000000001,0.10400000000000001,0.10400000000000001,0.10400000000000001,0.10400000000000001,0.10400000000000001,0.10400000000000001,0.10400000000000001,0.10400000000000001,0.10400000000000001,0.10400000000000001,0.10400000000000001,0.10400000000000001,0.10400000000000001,0.10400000000000001,0.10400000000000001,0.10400000000000001,0.10400000000000001,0.10400000000000001,0.125,0.10400000000000001,0.10400000000000001,0.10400000000000001,0.125,0.10400000000000001,0.125,0.125,0.125,0.125,0.125,0.125,0.125,0.125,0.125,0.125,0.125,0.125,0.125,0.145,0.145,0.145,0.145,0.145,0.145,0.145,0.145,0.145,0.145,0.145,0.145,0.145,0.145,0.145,0.145,0.145,0.145,0.145,0.145,0.125,0.125,0.125,0.125,0.125,0.125,0.10400000000000001,0.10400000000000001,0.10400000000000001,0.10400000000000001,0.10400000000000001,0.10400000000000001,0.10400000000000001,0.10400000000000001,0.083,0.083,0.083,0.063,0.063,0.063,0.063,0.063,0.063,0.063,0.042,0.042,0.042,0.042,0.042,0.042,0.042,0.022000000000000002,0.042,0.022000000000000002,0.022000000000000002,0.022000000000000002,0.022000000000000002,0.022000000000000002,0.022000000000000002,0.022000000000000002,0.002,0.002,0.022000000000000002,0.002,0.002,0.002,0.002,0.002,0.002,0.002,0.002,0.002,0.002,0.002,0.002,0.002,0.002,0.002,0.002,0.002,0.002,0.002,0.002,0.002,0.002,0.002,0.002,0.002,0.002,0.002,0.002,0.002,0.002,0.002,0.002,0.002,0.002,0.002,0.002,0.002,0.002,0.002,0.002,0.002,0.002,0.002,0.002,0.002,0.002,0.002,0.002,0.002,0.002,0.002,0.002,0.002,0.002,0.002,0.002,0.002,0.002,0.002,0.002,0.002,0.002,0.002,0.002,0.002,0.002,0.002,0.002,0.002,0.002,0.002,0.002,0.002,0.002,0.002,0.002,0.002,0.002,0.002,0.002,0.002,0.002,0.002,0.002,-0.019,-0.019,-0.019,-0.039,-0.039,-0.039,-0.039,-0.06,-0.039,-0.06,-0.06,-0.06,-0.039,-0.039,-0.039,-0.039,-0.039,-0.039,-0.039,-0.019,-0.039,-0.019,-0.019,-0.019,-0.039,-0.039,-0.039,-0.039,-0.06,-0.06,-0.06,-0.06,-0.039,-0.039,-0.019,-0.019,0.002,0.002,0.002,0.002,0.002,0.002,0.002,0.002,0.002,0.002,0.002,0.002,0.002,0.002,0.002,0.002,0.002,0.002,0.002,0.002,0.002,0.002,0.002,0.002,0.002,0.002,0.002,0.022000000000000002,0.042,0.083,0.10400000000000001,0.10400000000000001,0.125,0.10400000000000001,0.10400000000000001,0.063,0.002,-0.039,-0.10099999999999999,-0.225,-0.368,-0.512,-0.6759999999999999,-0.82,-0.922,-1.046,-1.1079999999999999,-1.128,-1.149,-1.149,-1.128,-1.0659999999999998,-1.005,-0.922,-0.82,-0.655,-0.5529999999999999,-0.45,-0.368,-0.327,-0.287,-0.225,-0.184,-0.163,-0.122,-0.10099999999999999,-0.081,-0.039,-0.019,0.002,0.022000000000000002,0.042,0.063,0.083,0.10400000000000001,0.10400000000000001,0.10400000000000001,0.10400000000000001,0.10400000000000001,0.10400000000000001,0.10400000000000001,0.10400000000000001,0.10400000000000001,0.10400000000000001,0.10400000000000001,0.10400000000000001,0.10400000000000001,0.10400000000000001,0.10400000000000001,0.10400000000000001,0.10400000000000001,0.10400000000000001,0.10400000000000001,0.10400000000000001,0.10400000000000001,0.10400000000000001,0.10400000000000001,0.10400000000000001,0.10400000000000001,0.10400000000000001,0.10400000000000001,0.10400000000000001,0.10400000000000001,0.10400000000000001,0.10400000000000001,0.10400000000000001,0.10400000000000001,0.10400000000000001,0.10400000000000001,0.10400000000000001,0.10400000000000001,0.10400000000000001,0.10400000000000001,0.10400000000000001,0.10400000000000001,0.10400000000000001,0.10400000000000001,0.10400000000000001,0.10400000000000001,0.10400000000000001,0.10400000000000001,0.10400000000000001,0.10400000000000001,0.10400000000000001,0.10400000000000001,0.10400000000000001,0.10400000000000001,0.10400000000000001,0.10400000000000001,0.10400000000000001,0.10400000000000001,0.10400000000000001,0.10400000000000001,0.10400000000000001,0.10400000000000001,0.125,0.10400000000000001,0.10400000000000001,0.10400000000000001,0.125,0.10400000000000001,0.125,0.125,0.125,0.125,0.125,0.125,0.125,0.125,0.125,0.125,0.125,0.145,0.145,0.145,0.145,0.125,0.145,0.145,0.145,0.145,0.145,0.145,0.145,0.145,0.145,0.166,0.145,0.145,0.145,0.145,0.145,0.145,0.145,0.145,0.145,0.145,0.125,0.125,0.125,0.125,0.125,0.10400000000000001,0.10400000000000001,0.10400000000000001,0.10400000000000001,0.10400000000000001,0.10400000000000001,0.10400000000000001,0.083,0.083,0.083,0.083,0.083,0.083,0.083,0.063,0.063,0.063,0.063,0.042,0.042,0.042,0.042,0.042,0.042,0.042,0.042,0.042,0.022000000000000002,0.022000000000000002,0.022000000000000002,0.022000000000000002,0.022000000000000002,0.022000000000000002,0.022000000000000002,0.022000000000000002,0.002,0.002,0.002,0.002,0.022000000000000002,0.002,0.002,0.002,0.002,0.002,0.002,0.002,0.022000000000000002,0.002,0.002,0.002,0.002,0.002,0.002,0.002,0.002,0.002,0.002,0.022000000000000002,0.002,0.002,0.002,0.002,0.002,0.002,0.002,0.002,0.002,0.002,0.002,0.002,0.022000000000000002,0.002,0.002,0.002,0.002,0.002,0.002,0.002,0.002,0.002,0.002,0.002,0.002,0.002,0.022000000000000002,0.022000000000000002,0.022000000000000002,0.022000000000000002,0.002,0.002,0.002,0.002,0.002,0.002,0.002,0.022000000000000002,0.022000000000000002,0.002,0.002,0.002,0.002,0.002,0.002,0.002,0.002,0.002,0.002,0.002,0.002,0.002,0.002,0.002,0.002,0.002,0.002,0.002,0.002,0.002,0.002,0.002,0.002,0.002,-0.019,-0.019,-0.039,-0.039,-0.039,-0.039,-0.039,-0.039,-0.039,-0.039,-0.039,-0.039,-0.039,-0.039,-0.019,-0.019,0.002,0.002,0.002,0.002,-0.019,-0.019,-0.019,-0.019,-0.039
